Data from LC_221__Reflection_2.txt Node
Date: Thu Nov 19 13:44:48 EST 2015
User: robert
Spectrometer: USB4E03001
Autoset integration time: false
Trigger mode: 4
Integration Time (sec): 1.000000E-1
Scans to average: 15
Electric dark correction enabled: true
Nonlinearity correction enabled: false
Boxcar width: 5
Stray light correction enabled: false
XAxis mode: Wavelengths
Stop averaging: false
Number of Pixels in Spectrum: 3648
>>>>>Begin Spectral Data<<<<<
177.566	528.63
177.785	1191.83
178.005	1148.61
178.225	684.03
178.445	1430.66
178.665	-116000
178.885	211.86
179.105	880.2
179.324	-536.86
179.544	-1814.93
179.764	-690.06
179.984	-894.06
180.204	-809.41
180.423	-952.57
180.643	-5017.8
180.863	-3298.27
181.083	-650.51
181.302	-479.74
181.522	-425.99
181.742	-3094.18
181.961	5605.6
182.181	4267.15
182.401	582.09
182.621	621.25
182.84	985.94
183.06	2033.19
183.279	1873.8
183.499	1079.47
183.719	1029.43
183.938	614.44
184.158	1248.21
184.377	1387.4
184.597	1017.6
184.816	8160.91
185.036	37965.22
185.256	2451.71
185.475	1375.82
185.695	1306.31
185.914	873.63
186.134	629.45
186.353	579.2
186.572	437.82
186.792	532.3
187.011	4179.19
187.231	769.39
187.45	1075.21
187.67	2536.26
187.889	42048.48
188.108	1048.72
188.328	-5250.79
188.547	-705.61
188.766	-619.51
188.986	-894.93
189.205	-1116.55
189.424	1876.39
189.644	3055.18
189.863	1441.88
190.082	1562.1
190.302	6602.16
190.521	-734.69
190.74	-2414.19
190.959	-22280.99
191.178	28046.61
191.398	-11630.53
191.617	2474.38
191.836	8387.72
192.055	-2480.07
192.274	-899.8
192.494	-1630.39
192.713	-970.27
192.932	-593.69
193.151	-578.48
193.37	-933.99
193.589	-697.12
193.808	-546.35
194.027	-710.18
194.246	-1460.96
194.465	-1292.77
194.685	82445
194.904	1234.23
195.123	718.32
195.342	440.97
195.561	353.11
195.78	457.19
195.999	644.26
196.218	1242.9
196.436	1901.7
196.655	1185.39
196.874	856.96
197.093	734.19
197.312	2220.85
197.531	2190.29
197.75	4393.12
197.969	-1881.96
198.188	-2236.81
198.407	-14861
198.625	912.94
198.844	1390.25
199.063	3352.88
199.282	3255.16
199.501	-2079.34
199.719	-2887.83
199.938	-4656.63
200.157	4129.99
200.376	1299.86
200.594	750.44
200.813	761.58
201.032	502.19
201.251	632.03
201.469	1058.8
201.688	802.58
201.907	642.3
202.125	660.01
202.344	506.21
202.563	424.36
202.781	601.02
203	544.28
203.218	539.93
203.437	1487.26
203.656	893.98
203.874	581.45
204.093	660.69
204.311	623.27
204.53	537.14
204.748	582.19
204.967	673.48
205.185	435.04
205.404	536.9
205.622	704.01
205.841	474.07
206.059	448.67
206.278	570.26
206.496	649.6
206.715	1059.87
206.933	1483.19
207.151	-3291.62
207.37	-2520.33
207.588	-8479.61
207.806	5970.44
208.025	2147.85
208.243	-2919.47
208.461	-2684.79
208.68	-4956.15
208.898	8308.2
209.116	3200.45
209.335	6907.92
209.553	1958.19
209.771	5267.54
209.989	-4566.57
210.208	-3098.94
210.426	-1691.23
210.644	-2101.16
210.862	-956.13
211.081	-950.18
211.299	-477.04
211.517	-670.72
211.735	-786.64
211.953	-2004.28
212.171	1363.63
212.39	1819.82
212.608	2093.18
212.826	941.03
213.044	427.99
213.262	378.31
213.48	429.38
213.698	428.44
213.916	594.64
214.134	805.71
214.352	1410.53
214.57	-3629.36
214.788	1851.55
215.006	9772.63
215.224	-2818.34
215.442	-1073.97
215.66	-1106.28
215.878	2260.61
216.096	595.1
216.314	581.05
216.532	381.45
216.75	347.98
216.968	337.02
217.185	329.11
217.403	383.44
217.621	444.82
217.839	521.86
218.057	448.26
218.275	642.86
218.492	1187.81
218.71	587.49
218.928	525.52
219.146	518.54
219.363	767.46
219.581	785.84
219.799	1633.47
220.017	526.64
220.234	447.25
220.452	616.05
220.67	459.76
220.887	439.7
221.105	906.08
221.323	1107.94
221.54	963.19
221.758	559.9
221.976	518.69
222.193	388.01
222.411	438.9
222.629	461.28
222.846	504.69
223.064	446.67
223.281	433.63
223.499	398.21
223.716	428.64
223.934	373.13
224.151	448.04
224.369	435.47
224.586	404.69
224.804	428.47
225.021	324.92
225.239	265.71
225.456	288.16
225.674	236.8
225.891	207.65
226.108	191.19
226.326	187.12
226.543	152.94
226.76	136.33
226.978	134.69
227.195	128.18
227.413	106.64
227.63	94.61
227.847	81.86
228.064	76.35
228.282	70.78
228.499	68.1
228.716	61.52
228.934	60.59
229.151	62.31
229.368	59.4
229.585	56.58
229.802	63.95
230.02	63.66
230.237	61.94
230.454	61.31
230.671	64.11
230.888	65.88
231.105	71.16
231.323	80.19
231.54	78.16
231.757	82
231.974	86.35
232.191	82.37
232.408	87.39
232.625	94.05
232.842	101.66
233.059	100.28
233.276	105.05
233.493	107.3
233.71	98.42
233.927	101.99
234.144	96.73
234.361	90.75
234.578	94.08
234.795	77.98
235.012	77.56
235.229	66.74
235.446	75.46
235.663	71.18
235.879	70.5
236.096	75.13
236.313	77.29
236.53	73.43
236.747	83.13
236.964	80.8
237.181	94.03
237.397	93.47
237.614	100.71
237.831	94.5
238.048	102.34
238.264	98.16
238.481	89.09
238.698	86.28
238.915	88.09
239.131	68.52
239.348	73.57
239.565	63.32
239.781	66
239.998	62.89
240.215	62.7
240.431	54.58
240.648	53.53
240.865	49.12
241.081	48.24
241.298	43.56
241.514	44.84
241.731	41.23
241.947	37.25
242.164	33.84
242.38	31.77
242.597	29.12
242.814	31.23
243.03	29.86
243.246	32.31
243.463	30.97
243.679	35.44
243.896	36.61
244.112	37.98
244.329	42.29
244.545	45.59
244.762	45.56
244.978	49.35
245.194	46.46
245.411	46.27
245.627	41.19
245.843	39.02
246.06	33.83
246.276	33.22
246.492	30.44
246.709	28.27
246.925	26.12
247.141	26.33
247.357	24.06
247.574	25.61
247.79	25.64
248.006	25.31
248.222	24.56
248.439	25.32
248.655	23.83
248.871	24.68
249.087	24.99
249.303	25.24
249.519	26.75
249.736	29.26
249.952	26.37
250.168	29.88
250.384	35.61
250.6	37.79
250.816	39.3
251.032	40.89
251.248	38.98
251.464	39.67
251.68	38.79
251.896	35.7
252.112	34.73
252.328	34.67
252.544	31.92
252.76	28.94
252.976	31.61
253.192	30.95
253.408	30
253.624	35.21
253.84	35.17
254.056	39.39
254.272	42.97
254.487	45.41
254.703	47.07
254.919	48.36
255.135	49.73
255.351	45.58
255.567	50.06
255.782	50.47
255.998	46.7
256.214	49.02
256.43	44.76
256.646	48.69
256.861	46.76
257.077	48.27
257.293	48.23
257.508	46.14
257.724	43.67
257.94	38.08
258.155	38.27
258.371	35.59
258.587	32.66
258.802	30.34
259.018	25.88
259.234	23.62
259.449	21.13
259.665	19.23
259.88	19.02
260.096	18.37
260.312	18.13
260.527	17.33
260.743	16.69
260.958	16.49
261.174	16.95
261.389	18.61
261.605	19.37
261.82	19.41
262.036	20.46
262.251	21.15
262.466	22.22
262.682	23.73
262.897	25.15
263.113	26.27
263.328	27.91
263.543	30.75
263.759	30.56
263.974	31.07
264.189	31.88
264.405	33.98
264.62	34.72
264.835	34.07
265.051	36.11
265.266	36.64
265.481	37.62
265.696	38.89
265.912	34.92
266.127	32.73
266.342	31.28
266.557	30.21
266.773	26.13
266.988	26.06
267.203	26.03
267.418	23.7
267.633	23.52
267.848	23.08
268.064	20.86
268.279	21.06
268.494	20.97
268.709	22.66
268.924	23.69
269.139	25.38
269.354	27.15
269.569	28.73
269.784	28.84
269.999	28.15
270.214	27.92
270.429	31.31
270.644	31.61
270.859	31.16
271.074	30.58
271.289	31.05
271.504	31.11
271.719	28.44
271.934	26.67
272.149	26.56
272.363	25.69
272.578	24.54
272.793	20.09
273.008	19.04
273.223	18.5
273.438	18.62
273.653	19.2
273.867	18.77
274.082	19.88
274.297	21.62
274.512	22.06
274.726	22.23
274.941	23.91
275.156	27.48
275.371	28.52
275.585	31.94
275.8	31.32
276.015	28.95
276.229	30.62
276.444	29.89
276.659	30.12
276.873	30.73
277.088	31.97
277.302	30.73
277.517	28.59
277.732	30.33
277.946	29.2
278.161	31.22
278.375	32.38
278.59	30.64
278.804	29.62
279.019	30.59
279.233	29.82
279.448	27.97
279.662	27.44
279.877	27.08
280.091	24.97
280.306	23.27
280.52	21.25
280.735	19.95
280.949	20.58
281.163	22.29
281.378	19.46
281.592	20.25
281.806	21.53
282.021	23.25
282.235	24.71
282.449	25.85
282.664	25.68
282.878	25.3
283.092	26.65
283.307	26.81
283.521	24.89
283.735	26.14
283.949	26.22
284.164	25.01
284.378	23.59
284.592	23.01
284.806	21.85
285.02	22.02
285.234	22.19
285.449	22.64
285.663	23.56
285.877	24.27
286.091	24.01
286.305	23.89
286.519	23.79
286.733	22.74
286.947	23.37
287.161	23.37
287.375	22.43
287.589	22.74
287.803	21.26
288.017	21.56
288.231	21.48
288.445	20.87
288.659	20.97
288.873	21.92
289.087	24.42
289.301	24.33
289.515	24.13
289.729	24.44
289.943	25.01
290.157	25.99
290.371	24.99
290.584	24.29
290.798	25.22
291.012	25.23
291.226	24.86
291.44	24.16
291.654	23.78
291.867	24.92
292.081	23.81
292.295	24.51
292.509	23.72
292.722	23.6
292.936	25.11
293.15	24.97
293.364	24.51
293.577	22.96
293.791	23.67
294.005	24.3
294.218	21.67
294.432	23.35
294.645	22.04
294.859	21.52
295.073	20.88
295.286	21.64
295.5	20.14
295.713	19.62
295.927	20.24
296.14	19.24
296.354	18.24
296.568	18.6
296.781	18.28
296.994	17.58
297.208	17.23
297.421	17.29
297.635	16.04
297.848	16.26
298.062	15.85
298.275	15.85
298.489	16.6
298.702	17.39
298.915	17.46
299.129	19.29
299.342	20.12
299.555	22.73
299.769	24
299.982	24.94
300.195	26.31
300.409	27.06
300.622	28.67
300.835	28.44
301.048	28.4
301.262	29.36
301.475	27.79
301.688	28.29
301.901	26.91
302.115	26.47
302.328	26.45
302.541	25.58
302.754	25.91
302.967	25.16
303.18	24.92
303.393	25.18
303.607	25.99
303.82	27.27
304.033	26.58
304.246	27.44
304.459	28.75
304.672	28.66
304.885	28.79
305.098	28.94
305.311	29.24
305.524	30.21
305.737	30.54
305.95	30.32
306.163	27.6
306.376	27.58
306.589	26.36
306.802	25.21
307.015	25.11
307.228	26.18
307.44	25.08
307.653	24.43
307.866	24.84
308.079	25.06
308.292	24.45
308.505	26.33
308.718	27.01
308.93	27.05
309.143	26.24
309.356	26.32
309.569	25.43
309.781	26.28
309.994	26.7
310.207	25.29
310.42	24.25
310.632	24.44
310.845	22.8
311.058	22.19
311.27	21.33
311.483	21.81
311.696	21.09
311.908	20.84
312.121	21.17
312.333	22.45
312.546	22.29
312.759	21.99
312.971	22.51
313.184	25.87
313.396	25.97
313.609	26
313.821	25.03
314.034	26.57
314.246	27.89
314.459	26.9
314.671	25.21
314.884	26.12
315.096	27.58
315.309	27.1
315.521	25.8
315.733	26.37
315.946	26.55
316.158	27.95
316.371	27.39
316.583	26.13
316.795	25.49
317.008	25.36
317.22	24.8
317.432	23.46
317.644	24.45
317.857	23.5
318.069	22.6
318.281	25.42
318.494	24.8
318.706	25.52
318.918	25.8
319.13	27.95
319.342	27.36
319.555	26.97
319.767	27.33
319.979	26.74
320.191	26.39
320.403	27.41
320.615	24.29
320.827	25.07
321.039	25.97
321.252	26.98
321.464	25.95
321.676	27.71
321.888	27.65
322.1	25.93
322.312	24.42
322.524	26.16
322.736	24.92
322.948	27.25
323.16	26.36
323.372	24.67
323.584	23.7
323.796	24.27
324.007	22.45
324.219	24.24
324.431	25.89
324.643	26.36
324.855	25.44
325.067	25.37
325.279	24.44
325.491	24.23
325.702	24.4
325.914	24.38
326.126	23.83
326.338	23.71
326.55	22.74
326.761	23.73
326.973	23.75
327.185	25.09
327.396	26.3
327.608	26.39
327.82	26.65
328.032	26.33
328.243	26.43
328.455	26.93
328.666	28.35
328.878	28.81
329.09	27.2
329.301	28.1
329.513	26.88
329.725	26.86
329.936	26.58
330.148	27.51
330.359	29.49
330.571	30.62
330.782	29.67
330.994	30.7
331.205	29.76
331.417	29.58
331.628	28.95
331.84	29.49
332.051	28.63
332.262	28.74
332.474	26.93
332.685	26.11
332.897	25.1
333.108	25.12
333.319	24
333.531	25.6
333.742	27.25
333.953	26.89
334.165	26.08
334.376	27.02
334.587	26.3
334.799	26.57
335.01	25.73
335.221	25.49
335.432	24.92
335.644	24.24
335.855	23.65
336.066	23.85
336.277	23.91
336.488	22.89
336.7	22.61
336.911	23.23
337.122	23.62
337.333	24.02
337.544	25.04
337.755	25.67
337.966	25.53
338.177	24.1
338.388	22.35
338.599	22.77
338.811	23.65
339.022	23.62
339.233	24
339.444	24.39
339.655	23.88
339.866	22.84
340.076	22.68
340.287	23.76
340.498	24.77
340.709	24.87
340.92	24.09
341.131	25.01
341.342	24.59
341.553	23.85
341.764	23.47
341.975	23.92
342.185	24.04
342.396	24.19
342.607	23.98
342.818	23.96
343.029	23.83
343.239	24.62
343.45	22.9
343.661	22.81
343.872	23.02
344.082	23.18
344.293	22.85
344.504	23.85
344.714	23.62
344.925	23.44
345.136	22.62
345.346	23.42
345.557	23.43
345.768	24.08
345.978	24.17
346.189	24.98
346.399	24.66
346.61	24.45
346.821	23.46
347.031	24.22
347.242	23.52
347.452	24.08
347.663	24.08
347.873	25.22
348.084	25.39
348.294	25.83
348.504	24.88
348.715	25.49
348.925	25.76
349.136	24.64
349.346	22.95
349.557	23.53
349.767	23.28
349.977	23.13
350.188	22.32
350.398	22.49
350.608	21.91
350.819	22.05
351.029	21.49
351.239	22.37
351.449	23.17
351.66	24.87
351.87	24.75
352.08	24.21
352.29	23.6
352.501	22.13
352.711	23.03
352.921	23.01
353.131	22.28
353.341	21.55
353.552	20.58
353.762	20.38
353.972	19.82
354.182	21.04
354.392	22.32
354.602	22.52
354.812	24
355.022	22.62
355.232	22.67
355.442	23.46
355.652	23.09
355.862	22.85
356.072	23.55
356.282	22.81
356.492	20.96
356.702	19.75
356.912	19.76
357.122	19.35
357.332	19.06
357.542	18.85
357.752	18.77
357.962	19.48
358.171	19.33
358.381	19.47
358.591	19.12
358.801	20.21
359.011	20.85
359.221	20.54
359.43	20.29
359.64	20.41
359.85	20.47
360.06	19.66
360.269	19.79
360.479	20.01
360.689	19.19
360.899	19.5
361.108	19.03
361.318	19.09
361.528	18.24
361.737	17.69
361.947	17.7
362.156	17.36
362.366	17.48
362.576	17.27
362.785	16.87
362.995	17.14
363.204	17.03
363.414	17.24
363.623	16.72
363.833	17.58
364.042	17.93
364.252	18.23
364.461	18.34
364.671	18.35
364.88	18.2
365.09	19.19
365.299	19.2
365.509	19.4
365.718	19.54
365.927	19.55
366.137	19.93
366.346	19.43
366.555	18.57
366.765	18.9
366.974	19.25
367.183	19.36
367.393	18.08
367.602	18
367.811	18.02
368.021	17.21
368.23	17.31
368.439	16.5
368.648	17.06
368.857	17.65
369.067	17.51
369.276	16.9
369.485	17.04
369.694	17
369.903	16.28
370.112	16.69
370.321	16.24
370.531	16.14
370.74	16.13
370.949	15.46
371.158	15.15
371.367	14.31
371.576	14.69
371.785	14.35
371.994	14.79
372.203	14.81
372.412	14.36
372.621	14.95
372.83	15.15
373.039	15.56
373.248	15.84
373.457	15.87
373.666	16.29
373.874	16.08
374.083	15.78
374.292	15.55
374.501	15.21
374.71	15.21
374.919	14.72
375.128	14.83
375.336	14.9
375.545	15.18
375.754	15.48
375.963	15.36
376.171	15.63
376.38	16.29
376.589	16.2
376.798	16.46
377.006	16.58
377.215	17.29
377.424	16.62
377.632	16.38
377.841	15.98
378.05	16.38
378.258	16.59
378.467	16.28
378.675	15.45
378.884	16.16
379.093	16.56
379.301	16.63
379.51	16.37
379.718	16.62
379.927	16.85
380.135	16.87
380.344	15.92
380.552	15.89
380.761	16.09
380.969	16.44
381.177	15.51
381.386	16.01
381.594	15.39
381.803	14.7
382.011	15.07
382.219	15.16
382.428	14.91
382.636	15.02
382.845	14.98
383.053	14.84
383.261	14.5
383.469	14.57
383.678	13.97
383.886	13.71
384.094	14.03
384.302	13.32
384.511	12.96
384.719	12.75
384.927	12.88
385.135	12.79
385.343	12.55
385.552	13.11
385.76	13.03
385.968	12.81
386.176	13.2
386.384	12.79
386.592	13.23
386.8	13.18
387.008	13.18
387.216	13.12
387.424	13.2
387.633	13.04
387.841	12.32
388.049	12.84
388.257	12.49
388.465	12.15
388.672	12.96
388.88	12.98
389.088	12.6
389.296	12.57
389.504	12.6
389.712	12.75
389.92	12.74
390.128	13
390.336	12.45
390.544	12.74
390.751	13.07
390.959	12.58
391.167	12.24
391.375	12.36
391.583	12.34
391.79	12.18
391.998	11.83
392.206	12.13
392.414	11.89
392.621	11.77
392.829	11.64
393.037	11.42
393.244	11.51
393.452	11.46
393.66	11.63
393.867	11.67
394.075	11.5
394.283	11.78
394.49	11.64
394.698	12.02
394.905	12.17
395.113	12.23
395.32	12.29
395.528	12.2
395.735	12.31
395.943	12.04
396.15	12.03
396.358	12.17
396.565	12.02
396.773	11.88
396.98	11.57
397.188	11.48
397.395	11.39
397.602	11.44
397.81	11.24
398.017	11.31
398.225	11.1
398.432	11.21
398.639	11.17
398.847	11.52
399.054	11.78
399.261	11.45
399.468	11.38
399.676	11.49
399.883	11.41
400.09	11.51
400.297	11.84
400.505	12.19
400.712	12.38
400.919	12.56
401.126	12.09
401.333	11.98
401.54	12.34
401.748	12.47
401.955	12.5
402.162	12.34
402.369	12.19
402.576	11.78
402.783	11.53
402.99	11.49
403.197	11.38
403.404	11.5
403.611	11.6
403.818	11.88
404.025	11.76
404.232	11.51
404.439	11.59
404.646	11.48
404.853	11.55
405.06	11.69
405.267	11.58
405.474	11.52
405.681	11.36
405.887	11.16
406.094	11.22
406.301	11.72
406.508	12.09
406.715	12.56
406.922	12.89
407.128	12.61
407.335	12.44
407.542	12.49
407.749	12.38
407.955	12.6
408.162	12.22
408.369	11.98
408.575	11.51
408.782	11.13
408.989	10.71
409.195	10.37
409.402	10.78
409.609	10.94
409.815	10.84
410.022	10.81
410.228	10.66
410.435	11.24
410.642	10.81
410.848	11.1
411.055	11.1
411.261	11.24
411.468	11.17
411.674	10.95
411.881	10.76
412.087	10.4
412.294	10.53
412.5	10.1
412.706	9.81
412.913	10.52
413.119	10.26
413.326	10.46
413.532	10.37
413.738	10.63
413.945	10.24
414.151	10.61
414.357	11.06
414.564	11.06
414.77	11.06
414.976	10.96
415.182	11.07
415.389	11.14
415.595	10.7
415.801	10.69
416.007	10.55
416.214	10.87
416.42	10.51
416.626	10.36
416.832	10.49
417.038	10.66
417.244	10.82
417.45	10.4
417.657	10.25
417.863	10.51
418.069	10.22
418.275	10.2
418.481	9.92
418.687	10.01
418.893	10.03
419.099	9.78
419.305	9.77
419.511	9.62
419.717	9.5
419.923	9.35
420.129	9.13
420.335	9.23
420.541	9.25
420.746	9.36
420.952	9.3
421.158	9.14
421.364	9.1
421.57	8.98
421.776	8.95
421.982	8.99
422.187	9.07
422.393	9.02
422.599	9.01
422.805	9.02
423.01	8.96
423.216	9
423.422	9
423.628	9.07
423.833	9.14
424.039	9.32
424.245	9.45
424.45	9.39
424.656	9.52
424.862	9.34
425.067	9.35
425.273	9.38
425.478	9.27
425.684	9.33
425.889	9.39
426.095	9.36
426.301	9.25
426.506	9.14
426.712	9.08
426.917	9.2
427.123	9.26
427.328	9.22
427.533	9.42
427.739	9.63
427.944	9.76
428.15	9.71
428.355	9.8
428.561	9.84
428.766	9.74
428.971	9.91
429.177	9.71
429.382	10.16
429.587	10.31
429.793	10.24
429.998	10.04
430.203	10.09
430.408	10.05
430.614	10.05
430.819	9.95
431.024	10.03
431.229	10.15
431.434	10.55
431.64	10.27
431.845	10.46
432.05	10.57
432.255	10.61
432.46	10.58
432.665	10.54
432.87	10.5
433.076	10.55
433.281	10.47
433.486	10.4
433.691	10.16
433.896	10.09
434.101	9.74
434.306	9.53
434.511	9.53
434.716	9.41
434.921	9.43
435.126	9.59
435.331	9.54
435.535	9.48
435.74	9.49
435.945	9.49
436.15	9.67
436.355	9.99
436.56	10.17
436.765	10.43
436.97	10.46
437.174	10.48
437.379	10.38
437.584	10.47
437.789	10.31
437.993	10.39
438.198	10.38
438.403	10.2
438.608	9.96
438.812	9.65
439.017	9.35
439.222	9.4
439.426	9.34
439.631	9.25
439.836	9.15
440.04	9.34
440.245	9.27
440.45	9.16
440.654	9.2
440.859	9.26
441.063	9.24
441.268	9.33
441.472	9.39
441.677	9.54
441.881	9.67
442.086	9.81
442.29	9.79
442.495	9.75
442.699	9.84
442.904	9.72
443.108	9.66
443.312	9.82
443.517	9.88
443.721	9.62
443.925	9.45
444.13	9.29
444.334	9.08
444.538	9
444.743	9.05
444.947	8.89
445.151	8.96
445.356	9.01
445.56	9.04
445.764	8.97
445.968	9
446.173	9.04
446.377	8.86
446.581	8.89
446.785	8.96
446.989	8.88
447.193	8.91
447.398	8.92
447.602	8.81
447.806	8.88
448.01	8.92
448.214	9.1
448.418	9.17
448.622	9.43
448.826	9.46
449.03	9.41
449.234	9.38
449.438	9.37
449.642	9.3
449.846	9.65
450.05	9.57
450.254	9.43
450.458	9.26
450.662	9.35
450.866	9.2
451.069	9.16
451.273	9.07
451.477	9.22
451.681	9.4
451.885	9.61
452.089	9.4
452.292	9.28
452.496	9.19
452.7	9.15
452.904	8.89
453.107	9.14
453.311	9.18
453.515	9.38
453.719	9.23
453.922	9.25
454.126	9.03
454.33	8.82
454.533	9.01
454.737	9.05
454.94	9.03
455.144	9.1
455.348	8.81
455.551	8.94
455.755	8.84
455.958	8.87
456.162	8.8
456.365	8.92
456.569	8.96
456.772	8.8
456.976	8.93
457.179	8.97
457.383	9.07
457.586	9.12
457.79	8.95
457.993	9.04
458.196	9.17
458.4	9.19
458.603	9.04
458.807	8.97
459.01	9.02
459.213	8.89
459.417	8.89
459.62	8.72
459.823	8.71
460.026	8.72
460.23	8.65
460.433	8.62
460.636	8.49
460.839	8.65
461.042	8.62
461.246	8.59
461.449	8.65
461.652	8.58
461.855	8.57
462.058	8.6
462.261	8.58
462.464	8.51
462.668	8.45
462.871	8.76
463.074	8.55
463.277	8.68
463.48	8.82
463.683	8.86
463.886	8.95
464.089	9.38
464.292	9.51
464.495	9.45
464.698	9.55
464.901	9.74
465.104	9.8
465.306	10.19
465.509	10.21
465.712	10.17
465.915	10.15
466.118	10.11
466.321	9.76
466.524	9.72
466.726	9.81
466.929	9.82
467.132	9.62
467.335	9.35
467.538	9.04
467.74	9.2
467.943	9.07
468.146	9.13
468.348	9.17
468.551	9.19
468.754	9.03
468.956	9.09
469.159	9.18
469.362	9.34
469.564	9.44
469.767	9.52
469.969	9.37
470.172	9.42
470.375	9.37
470.577	9.27
470.78	9.3
470.982	9.38
471.185	9.18
471.387	9.01
471.59	8.99
471.792	8.85
471.995	8.91
472.197	8.86
472.399	8.82
472.602	9.04
472.804	9.09
473.007	9.14
473.209	9.11
473.411	9.27
473.614	9.38
473.816	9.13
474.018	9.21
474.22	9.16
474.423	9.21
474.625	9.3
474.827	8.87
475.03	8.84
475.232	8.93
475.434	9.13
475.636	9.02
475.838	8.99
476.04	9.15
476.243	9.33
476.445	9.28
476.647	9.27
476.849	9.22
477.051	9.4
477.253	9.63
477.455	9.5
477.657	9.34
477.859	9.42
478.061	9.26
478.263	9.19
478.465	8.88
478.667	8.82
478.869	8.85
479.071	8.78
479.273	8.81
479.475	8.56
479.677	8.57
479.879	8.62
480.081	8.75
480.283	8.92
480.485	8.81
480.686	8.99
480.888	9.1
481.09	8.98
481.292	8.81
481.494	8.76
481.695	8.8
481.897	8.69
482.099	8.59
482.301	8.38
482.502	8.25
482.704	8.42
482.906	8.28
483.107	8.18
483.309	8.05
483.511	8.09
483.712	7.96
483.914	7.91
484.115	7.86
484.317	7.83
484.519	7.79
484.72	7.8
484.922	7.65
485.123	7.64
485.325	7.64
485.526	7.68
485.728	7.69
485.929	7.78
486.131	7.83
486.332	7.86
486.534	7.83
486.735	7.88
486.936	7.96
487.138	8.08
487.339	8.08
487.541	8.16
487.742	8.2
487.943	8.25
488.144	8.29
488.346	8.32
488.547	8.4
488.748	8.47
488.95	8.48
489.151	8.45
489.352	8.47
489.553	8.49
489.755	8.5
489.956	8.52
490.157	8.52
490.358	8.53
490.559	8.43
490.76	8.32
490.961	8.31
491.163	8.37
491.364	8.37
491.565	8.3
491.766	8.36
491.967	8.33
492.168	8.29
492.369	8.25
492.57	8.25
492.771	8.36
492.972	8.43
493.173	8.52
493.374	8.6
493.575	8.65
493.776	8.77
493.976	8.82
494.177	9.06
494.378	9.13
494.579	9.2
494.78	9.25
494.981	9.11
495.182	9.12
495.382	9.18
495.583	9.12
495.784	9.26
495.985	9.27
496.185	9.44
496.386	9.17
496.587	9.4
496.788	9.45
496.988	9.41
497.189	9.58
497.39	9.66
497.59	9.58
497.791	9.66
497.992	9.54
498.192	9.53
498.393	9.41
498.593	9.42
498.794	9.27
498.994	9.24
499.195	9.31
499.395	9.2
499.596	9.3
499.796	9.19
499.997	9.25
500.197	9.18
500.398	9.18
500.598	9.27
500.799	9.41
500.999	9.48
501.199	9.54
501.4	9.54
501.6	9.59
501.801	9.45
502.001	9.67
502.201	9.44
502.402	9.55
502.602	9.48
502.802	9.39
503.002	9.41
503.203	9.38
503.403	9.46
503.603	9.46
503.803	9.41
504.003	9.53
504.204	9.53
504.404	9.66
504.604	9.76
504.804	9.98
505.004	9.99
505.204	9.92
505.404	9.92
505.604	9.97
505.804	10
506.005	10.19
506.205	10.24
506.405	10.33
506.605	10.33
506.805	10.33
507.005	10.25
507.204	10.4
507.404	10.37
507.604	10.4
507.804	10.41
508.004	10.53
508.204	10.36
508.404	10.23
508.604	10.14
508.804	10.4
509.003	10.36
509.203	10.23
509.403	10.06
509.603	10.07
509.803	10.04
510.002	10
510.202	9.89
510.402	10.1
510.602	10.1
510.801	10.18
511.001	9.92
511.201	9.96
511.4	10.05
511.6	10.23
511.8	10.23
511.999	10.53
512.199	10.42
512.398	10.3
512.598	10.32
512.797	10.44
512.997	10.31
513.197	10.24
513.396	10.25
513.596	10.28
513.795	10.3
513.994	10.46
514.194	10.29
514.393	10.37
514.593	10.83
514.792	10.78
514.992	10.88
515.191	11.14
515.39	11.37
515.59	11.58
515.789	11.77
515.988	11.83
516.188	11.8
516.387	11.78
516.586	11.83
516.786	11.66
516.985	11.54
517.184	11.46
517.383	11.36
517.582	11.24
517.782	10.96
517.981	10.69
518.18	10.53
518.379	10.57
518.578	10.54
518.777	10.5
518.976	10.49
519.176	10.64
519.375	10.6
519.574	10.59
519.773	10.65
519.972	10.82
520.171	11.03
520.37	11.12
520.569	11.18
520.768	11.31
520.967	11.45
521.166	11.45
521.365	11.37
521.564	11.48
521.762	11.49
521.961	11.62
522.16	11.61
522.359	11.66
522.558	11.61
522.757	11.58
522.956	11.55
523.154	11.47
523.353	11.5
523.552	11.56
523.751	11.71
523.949	11.72
524.148	11.67
524.347	11.79
524.546	11.68
524.744	11.87
524.943	11.85
525.142	11.76
525.34	11.81
525.539	11.88
525.737	11.86
525.936	11.73
526.135	11.76
526.333	11.72
526.532	11.62
526.73	11.64
526.929	11.56
527.127	11.56
527.326	11.62
527.524	11.54
527.723	11.53
527.921	11.54
528.12	11.46
528.318	11.4
528.516	11.37
528.715	11.34
528.913	11.37
529.112	11.36
529.31	11.35
529.508	11.33
529.707	11.43
529.905	11.41
530.103	11.44
530.301	11.59
530.5	11.74
530.698	11.87
530.896	12.07
531.094	12.15
531.293	12.3
531.491	12.38
531.689	12.5
531.887	12.55
532.085	12.58
532.283	12.59
532.481	12.5
532.68	12.5
532.878	12.51
533.076	12.39
533.274	12.36
533.472	12.37
533.67	12.37
533.868	12.46
534.066	12.41
534.264	12.47
534.462	12.53
534.66	12.66
534.858	12.69
535.056	12.81
535.253	12.92
535.451	13.11
535.649	13.2
535.847	13.38
536.045	13.29
536.243	13.53
536.441	13.65
536.638	13.75
536.836	13.71
537.034	13.82
537.232	13.8
537.43	13.79
537.627	13.67
537.825	13.74
538.023	13.77
538.22	14.05
538.418	14.02
538.616	14.09
538.813	14.25
539.011	14.39
539.209	14.34
539.406	14.42
539.604	14.7
539.801	14.81
539.999	14.62
540.196	14.76
540.394	14.75
540.591	14.83
540.789	14.88
540.986	14.85
541.184	14.87
541.381	14.97
541.579	14.96
541.776	14.88
541.974	14.97
542.171	15.14
542.368	15.22
542.566	15.24
542.763	15.24
542.96	15.3
543.158	15.37
543.355	15.46
543.552	15.59
543.75	15.86
543.947	16.1
544.144	16.2
544.341	16.27
544.539	16.37
544.736	16.47
544.933	16.64
545.13	16.81
545.327	16.9
545.524	17.11
545.722	17.2
545.919	17.09
546.116	17.12
546.313	17.12
546.51	17.33
546.707	17.34
546.904	17.36
547.101	17.52
547.298	17.64
547.495	17.73
547.692	17.8
547.889	17.72
548.086	17.73
548.283	17.9
548.48	18.09
548.677	18.17
548.874	18.33
549.07	18.52
549.267	18.55
549.464	18.48
549.661	18.62
549.858	18.8
550.055	19.22
550.251	19.69
550.448	19.84
550.645	20.13
550.842	20.31
551.038	20.47
551.235	20.77
551.432	20.91
551.628	21.2
551.825	21.57
552.022	21.67
552.218	21.65
552.415	21.77
552.612	22.08
552.808	21.98
553.005	21.89
553.201	21.9
553.398	21.89
553.594	22.08
553.791	22.08
553.987	22.06
554.184	21.96
554.38	22.26
554.577	22.28
554.773	22.25
554.97	22.6
555.166	22.94
555.362	23.12
555.559	23.41
555.755	23.38
555.952	23.59
556.148	23.72
556.344	24.12
556.541	24.07
556.737	24.08
556.933	24.29
557.129	24.28
557.326	24.43
557.522	24.51
557.718	24.52
557.914	24.72
558.11	24.88
558.307	24.97
558.503	24.88
558.699	24.99
558.895	25.18
559.091	25.06
559.287	25.49
559.483	25.64
559.679	25.86
559.876	26.1
560.072	26.18
560.268	26.36
560.464	26.43
560.66	26.68
560.856	26.76
561.052	26.9
561.247	27
561.443	26.89
561.639	26.87
561.835	26.82
562.031	26.96
562.227	27.08
562.423	27.03
562.619	27.17
562.815	27.37
563.01	27.92
563.206	28.15
563.402	28.28
563.598	28.41
563.793	28.53
563.989	28.72
564.185	28.78
564.381	28.96
564.576	29.16
564.772	29.43
564.968	29.34
565.163	28.99
565.359	28.86
565.555	28.9
565.75	29.16
565.946	29.37
566.141	29.5
566.337	29.66
566.532	29.69
566.728	29.9
566.923	29.88
567.119	29.97
567.314	30.29
567.51	30.68
567.705	30.76
567.901	30.68
568.096	30.8
568.292	30.88
568.487	30.85
568.682	31.09
568.878	31.06
569.073	31.22
569.268	31.34
569.464	31.23
569.659	31.35
569.854	31.55
570.05	31.71
570.245	31.85
570.44	32.11
570.635	31.94
570.831	32.07
571.026	32.23
571.221	32.43
571.416	32.54
571.611	32.55
571.806	32.37
572.002	32.61
572.197	32.51
572.392	32.27
572.587	32.03
572.782	32.46
572.977	32.45
573.172	32.32
573.367	32.33
573.562	32.5
573.757	32.78
573.952	32.9
574.147	33.1
574.342	33.19
574.537	33.43
574.732	33.76
574.927	33.77
575.121	33.99
575.316	34.29
575.511	34.33
575.706	34.46
575.901	34.51
576.096	34.73
576.29	34.58
576.485	34.96
576.68	35.34
576.875	35.38
577.069	35.42
577.264	35.49
577.459	35.78
577.654	35.79
577.848	35.67
578.043	35.77
578.238	36.05
578.432	36.19
578.627	35.97
578.821	36.04
579.016	36.24
579.21	36.22
579.405	36.32
579.6	36.11
579.794	36.3
579.989	36.62
580.183	36.49
580.378	36.36
580.572	36.67
580.766	37.02
580.961	36.8
581.155	36.71
581.35	37.44
581.544	37.37
581.738	37.62
581.933	37.61
582.127	37.77
582.321	37.99
582.516	38.09
582.71	37.76
582.904	37.74
583.099	37.84
583.293	38.08
583.487	38.1
583.681	38.51
583.875	38.32
584.07	38.41
584.264	38.38
584.458	38.41
584.652	38.44
584.846	38.67
585.04	38.77
585.234	38.98
585.428	38.97
585.623	38.61
585.817	38.37
586.011	38.54
586.205	38.69
586.399	38.52
586.593	38.79
586.787	39.08
586.981	39.06
587.174	39.08
587.368	39.16
587.562	39.44
587.756	39.29
587.95	39.26
588.144	39.1
588.338	39.08
588.532	39.37
588.725	39.57
588.919	39.51
589.113	39.46
589.307	39.42
589.501	39.34
589.694	39.37
589.888	39.61
590.082	39.63
590.275	39.6
590.469	39.94
590.663	40.13
590.856	39.86
591.05	39.85
591.244	40.23
591.437	40.81
591.631	40.86
591.824	40.71
592.018	40.9
592.212	41.25
592.405	41.54
592.599	41.36
592.792	41.07
592.986	41.4
593.179	41.14
593.372	40.92
593.566	40.55
593.759	40.59
593.953	40.59
594.146	40.55
594.339	40.39
594.533	40.53
594.726	40.27
594.92	40.62
595.113	40.48
595.306	40.84
595.499	40.74
595.693	40.72
595.886	40.8
596.079	40.64
596.272	40.57
596.466	40.47
596.659	40.61
596.852	40.65
597.045	40.54
597.238	40.5
597.431	40.42
597.624	40.5
597.818	40.71
598.011	40.62
598.204	40.82
598.397	40.88
598.59	41
598.783	40.73
598.976	40.9
599.169	40.88
599.362	41.04
599.555	41.13
599.748	41.52
599.941	41.47
600.134	41.51
600.326	41.77
600.519	42.19
600.712	42.44
600.905	42.58
601.098	42.64
601.291	42.79
601.483	42.99
601.676	42.93
601.869	42.65
602.062	42.85
602.255	42.86
602.447	42.7
602.64	42.17
602.833	41.87
603.025	41.79
603.218	41.85
603.411	41.74
603.603	41.35
603.796	41.48
603.989	41.24
604.181	40.99
604.374	41.12
604.566	41.16
604.759	41.27
604.951	41.22
605.144	41.14
605.336	41.36
605.529	41.33
605.721	41.37
605.914	41.27
606.106	41.35
606.299	41.52
606.491	41.28
606.683	41.34
606.876	41.36
607.068	41.6
607.26	41.71
607.453	41.4
607.645	41.57
607.837	41.76
608.03	41.83
608.222	41.95
608.414	41.92
608.606	42.15
608.799	42.17
608.991	41.95
609.183	41.94
609.375	41.89
609.567	41.85
609.759	41.75
609.952	41.68
610.144	41.76
610.336	41.81
610.528	41.75
610.72	41.79
610.912	41.77
611.104	42.27
611.296	42.32
611.488	42.83
611.68	43.12
611.872	43.21
612.064	43.78
612.256	43.77
612.448	43.98
612.64	44.11
612.832	44.53
613.023	44.93
613.215	44.77
613.407	44.81
613.599	44.56
613.791	44.66
613.983	44.72
614.174	44.27
614.366	44.6
614.558	44.7
614.75	44.71
614.941	44.47
615.133	44.36
615.325	44.46
615.516	44.5
615.708	44.61
615.9	44.43
616.091	44.49
616.283	44.55
616.475	44.33
616.666	44.35
616.858	44.4
617.049	44.18
617.241	44.04
617.432	43.68
617.624	43.84
617.815	43.62
618.007	43.83
618.198	43.76
618.39	43.59
618.581	43.36
618.773	43.25
618.964	43.39
619.155	43.5
619.347	43.51
619.538	44.07
619.729	44.05
619.921	44.06
620.112	44.13
620.303	44.11
620.494	44.56
620.686	45.01
620.877	45
621.068	44.94
621.259	45.18
621.451	45.31
621.642	45.18
621.833	44.99
622.024	44.98
622.215	44.94
622.406	44.7
622.597	44.44
622.788	44.19
622.98	44.38
623.171	44.34
623.362	44.52
623.553	44.97
623.744	44.72
623.935	44.95
624.126	44.97
624.317	44.87
624.508	45.53
624.698	45.62
624.889	45.67
625.08	45.77
625.271	45.75
625.462	45.16
625.653	44.73
625.844	44.75
626.034	44.6
626.225	44.75
626.416	44.58
626.607	44.32
626.798	44.31
626.988	44.09
627.179	44
627.37	43.87
627.56	44.14
627.751	43.94
627.942	44.05
628.132	43.86
628.323	43.88
628.514	44.17
628.704	43.98
628.895	43.9
629.085	44.13
629.276	44.17
629.466	44.56
629.657	44.64
629.847	44.86
630.038	44.85
630.228	45.27
630.419	45.48
630.609	45.52
630.8	45.97
630.99	45.88
631.181	45.86
631.371	45.87
631.561	45.59
631.752	45.27
631.942	45.32
632.132	45.84
632.323	46.06
632.513	45.98
632.703	45.62
632.893	45.65
633.084	45.81
633.274	45.73
633.464	45.64
633.654	45.84
633.844	45.92
634.034	45.94
634.225	45.22
634.415	45.24
634.605	45.19
634.795	45.44
634.985	45.16
635.175	45.37
635.365	45.31
635.555	45.56
635.745	45.46
635.935	45.79
636.125	45.35
636.315	45.54
636.505	45.39
636.695	45.39
636.885	45.39
637.075	45.5
637.265	45.53
637.455	46.15
637.644	45.96
637.834	46.09
638.024	45.97
638.214	46.61
638.404	46.76
638.593	46.94
638.783	47.14
638.973	47.39
639.163	47.61
639.352	47.56
639.542	47.4
639.732	47.54
639.921	47.61
640.111	47.74
640.301	47.47
640.49	47.62
640.68	47.6
640.87	47.37
641.059	47.39
641.249	47.54
641.438	47.56
641.628	47.59
641.817	47.68
642.007	47.65
642.196	47.74
642.386	48.04
642.575	48.54
642.764	48.04
642.954	48.11
643.143	48.02
643.333	47.84
643.522	47.71
643.711	47.59
643.901	47.52
644.09	47.5
644.279	47.72
644.469	47.91
644.658	47.01
644.847	47.09
645.036	47.09
645.226	47.42
645.415	47.62
645.604	47.59
645.793	47.91
645.982	47.67
646.171	47.6
646.361	47.08
646.55	47
646.739	47.38
646.928	47.57
647.117	47.85
647.306	47.35
647.495	47.22
647.684	47.49
647.873	47.33
648.062	47.61
648.251	48
648.44	48.19
648.629	47.78
648.818	47.71
649.007	47.39
649.196	47.66
649.384	47.86
649.573	47.76
649.762	47.99
649.951	47.63
650.14	47.91
650.328	47.58
650.517	47.3
650.706	47.69
650.895	48.08
651.083	49
651.272	48.57
651.461	48.49
651.65	48.35
651.838	48.49
652.027	48.75
652.216	48.76
652.404	49.03
652.593	49.47
652.781	49.1
652.97	49.24
653.158	48.8
653.347	48.93
653.535	48.61
653.724	48.44
653.912	48.38
654.101	48.54
654.289	48.13
654.478	47.91
654.666	47.77
654.855	48.1
655.043	47.74
655.231	47.55
655.42	47.98
655.608	48.44
655.796	49.13
655.985	48.86
656.173	48.65
656.361	48.54
656.55	48.48
656.738	48.84
656.926	48.9
657.114	49.06
657.302	49.13
657.491	48.45
657.679	48.02
657.867	47.77
658.055	47.68
658.243	47.7
658.431	47.9
658.619	47.95
658.807	47.85
658.996	47.49
659.184	47.36
659.372	47.45
659.56	47.47
659.748	47.63
659.936	48
660.124	47.86
660.311	48
660.499	48.09
660.687	48.22
660.875	48.38
661.063	48.57
661.251	48.58
661.439	48.9
661.627	49.31
661.814	49.45
662.002	49.16
662.19	49.35
662.378	49.37
662.565	49.25
662.753	49.29
662.941	48.59
663.129	48.69
663.316	48.74
663.504	47.96
663.692	47.99
663.879	48.01
664.067	47.62
664.254	47.37
664.442	47.89
664.63	48.09
664.817	48.09
665.005	48.31
665.192	48.2
665.38	48.55
665.567	48.74
665.755	48.59
665.942	48.92
666.13	49.49
666.317	49.77
666.504	48.84
666.692	49.27
666.879	49
667.067	49.2
667.254	49.41
667.441	49.21
667.629	49.71
667.816	49.49
668.003	49.65
668.19	49.47
668.378	49.08
668.565	49.06
668.752	48.51
668.939	48.72
669.127	48.58
669.314	48.58
669.501	48.65
669.688	48.88
669.875	48.9
670.062	48.9
670.249	49.25
670.436	49.56
670.623	49.89
670.81	50.14
670.997	50.24
671.184	50.35
671.371	50.43
671.558	50
671.745	49.64
671.932	50.54
672.119	50.13
672.306	49.95
672.493	50.3
672.68	50.65
672.867	50.73
673.054	50.54
673.24	50.7
673.427	50.67
673.614	51.41
673.801	51.41
673.988	50.33
674.174	50.52
674.361	50.36
674.548	50.09
674.734	49.26
674.921	49.3
675.108	49.44
675.294	49.72
675.481	50.01
675.668	50.13
675.854	50.16
676.041	50.2
676.227	49.93
676.414	50.07
676.601	50.34
676.787	51.02
676.974	50.97
677.16	51.23
677.347	51.1
677.533	50.88
677.719	50.24
677.906	49.87
678.092	50.66
678.279	50.45
678.465	50.25
678.651	50.03
678.838	50.22
679.024	49.91
679.21	48.96
679.397	48.66
679.583	48.49
679.769	48.37
679.955	48.9
680.142	48.45
680.328	48.62
680.514	48.84
680.7	48.57
680.886	48.23
681.073	48.37
681.259	49.02
681.445	49.05
681.631	49.25
681.817	49.28
682.003	48.96
682.189	48.51
682.375	48.83
682.561	49.19
682.747	49.54
682.933	49.91
683.119	49.84
683.305	49.5
683.491	49.3
683.677	49.46
683.863	49.96
684.049	50.63
684.235	50.73
684.42	50.66
684.606	49.67
684.792	50.01
684.978	49.62
685.164	49.84
685.349	50.49
685.535	50.92
685.721	50.24
685.907	49.85
686.092	49.31
686.278	50.35
686.464	50.33
686.649	50.98
686.835	50.94
687.021	51.52
687.206	50.97
687.392	50.34
687.577	50.12
687.763	50.64
687.948	50.18
688.134	50.04
688.319	49.7
688.505	49.78
688.69	49.48
688.876	49.36
689.061	48.76
689.247	49.41
689.432	49.85
689.618	50.01
689.803	50.13
689.988	50.93
690.174	51.4
690.359	51.32
690.544	51.37
690.73	51.73
690.915	51.75
691.1	51.92
691.285	51.84
691.471	52.09
691.656	52.45
691.841	52.08
692.026	51.6
692.211	51.52
692.396	51.48
692.582	51.19
692.767	51.05
692.952	51.17
693.137	51.43
693.322	51.59
693.507	51.85
693.692	51.45
693.877	51.62
694.062	52.36
694.247	52.56
694.432	53.06
694.617	53.03
694.802	53.12
694.987	52.89
695.172	52.83
695.357	52.13
695.541	51.86
695.726	52.22
695.911	52.99
696.096	52.37
696.281	52.09
696.466	51.27
696.65	51.44
696.835	51.69
697.02	51.29
697.204	51.8
697.389	52.58
697.574	52.13
697.759	51.75
697.943	51.05
698.128	51.02
698.312	50.76
698.497	50.66
698.682	50.41
698.866	49.92
699.051	49.91
699.235	49.44
699.42	48.82
699.604	48.57
699.789	48.23
699.973	47.7
700.158	47.57
700.342	47.83
700.527	48.46
700.711	48.59
700.895	49.24
701.08	49.8
701.264	49.63
701.448	49.85
701.633	50.02
701.817	50.71
702.001	51.28
702.186	51.61
702.37	51.56
702.554	51.11
702.738	51.82
702.923	51.69
703.107	51.78
703.291	52.19
703.475	52.32
703.659	52.29
703.843	52.65
704.027	53.18
704.212	52.98
704.396	52.96
704.58	53.65
704.764	53.59
704.948	53.06
705.132	52.58
705.316	52.89
705.5	53.31
705.684	53.66
705.868	53.64
706.052	53.97
706.235	55.31
706.419	55.31
706.603	55.51
706.787	54.98
706.971	55.51
707.155	55.07
707.339	54.91
707.522	54.61
707.706	54.8
707.89	54.65
708.074	54.46
708.257	53.16
708.441	53.99
708.625	53.37
708.808	53.03
708.992	53.11
709.176	54.12
709.359	54.05
709.543	53.98
709.727	54.23
709.91	54.09
710.094	53.98
710.277	54.73
710.461	54.01
710.644	54.88
710.828	55.05
711.011	54.84
711.195	54.59
711.378	55
711.562	54.92
711.745	54.9
711.928	54.87
712.112	55.07
712.295	53.78
712.478	53.77
712.662	53.16
712.845	54.38
713.028	54.57
713.212	54.6
713.395	54.06
713.578	54.34
713.761	53.92
713.945	53.96
714.128	53.65
714.311	54.65
714.494	53.83
714.677	53.46
714.86	52.6
715.043	52.15
715.227	51.77
715.41	51.74
715.593	52.12
715.776	52.4
715.959	52.13
716.142	51.79
716.325	51.08
716.508	51.93
716.691	51.9
716.874	52
717.057	52.7
717.239	53.47
717.422	53.75
717.605	53.1
717.788	52.67
717.971	54.38
718.154	54.57
718.337	55.36
718.519	55.87
718.702	56.35
718.885	55.94
719.068	55.57
719.25	56.01
719.433	56.12
719.616	56.41
719.798	56.96
719.981	56.59
720.164	57.26
720.346	57
720.529	57.21
720.712	56.69
720.894	57.11
721.077	56.76
721.259	55.99
721.442	55.86
721.624	55.92
721.807	56.23
721.989	54.85
722.172	54.42
722.354	54.62
722.537	54.02
722.719	54.59
722.901	54.22
723.084	53.97
723.266	53.79
723.448	54.05
723.631	54.42
723.813	54.75
723.995	55.39
724.178	55.84
724.36	55.68
724.542	54.89
724.724	55
724.907	55.08
725.089	55.89
725.271	55.58
725.453	55.33
725.635	55.1
725.817	54.87
725.999	55.28
726.181	55.63
726.364	56.17
726.546	56.21
726.728	56.32
726.91	56.58
727.092	55.59
727.274	56.37
727.456	56.66
727.638	56.19
727.819	56.06
728.001	54.68
728.183	54.31
728.365	53.84
728.547	54.88
728.729	55.86
728.911	56.07
729.093	56.62
729.274	55.69
729.456	55.37
729.638	56.54
729.82	56.17
730.001	56.44
730.183	56.77
730.365	57.19
730.546	56.64
730.728	55.2
730.91	55.07
731.091	55.01
731.273	55.13
731.455	55.5
731.636	54.47
731.818	54.82
731.999	55.13
732.181	54.95
732.362	55.46
732.544	55.74
732.725	55.05
732.907	54.35
733.088	54.83
733.27	55.51
733.451	54.75
733.633	55.21
733.814	55.03
733.995	55.2
734.177	55.54
734.358	54.37
734.539	54.1
734.721	55.31
734.902	56.09
735.083	55.45
735.264	55.59
735.446	56.8
735.627	56
735.808	55.52
735.989	54.87
736.17	54.28
736.351	54.78
736.533	54.64
736.714	55.21
736.895	54.7
737.076	54.45
737.257	53.56
737.438	52.58
737.619	52.78
737.8	52.12
737.981	53.07
738.162	53.85
738.343	53.97
738.524	53.94
738.705	52.98
738.886	54.21
739.067	55.38
739.247	55.69
739.428	56.65
739.609	56.88
739.79	58.86
739.971	58.53
740.151	58.77
740.332	58.7
740.513	60.02
740.694	60.89
740.874	60.58
741.055	60.15
741.236	60.72
741.417	59.66
741.597	59.69
741.778	58.43
741.958	57.81
742.139	57.13
742.32	56.91
742.5	56.99
742.681	56.81
742.861	56.72
743.042	55.08
743.222	54.13
743.403	54.23
743.583	54.37
743.764	55.58
743.944	56.91
744.124	56.76
744.305	57.21
744.485	56.46
744.666	55.26
744.846	55.01
745.026	57.06
745.207	57.51
745.387	58.81
745.567	59.56
745.747	58.45
745.928	58.54
746.108	58.52
746.288	58.84
746.468	59.67
746.648	61.08
746.829	61.73
747.009	63.15
747.189	63.5
747.369	63.48
747.549	63.63
747.729	65.23
747.909	64.86
748.089	65.05
748.269	64.37
748.449	63.17
748.629	62.07
748.809	61.58
748.989	60.85
749.169	60.33
749.349	59.55
749.529	59.47
749.709	57.84
749.889	57.74
750.068	57.45
750.248	57.96
750.428	58.21
750.608	58.09
750.788	58.92
750.967	57.82
751.147	58
751.327	58.54
751.507	57.17
751.686	58.56
751.866	59.57
752.046	60.26
752.225	60.4
752.405	60.88
752.585	62.08
752.764	61.94
752.944	61.83
753.123	62.52
753.303	62.8
753.482	63.7
753.662	63.03
753.841	61.49
754.021	62.16
754.2	62.85
754.38	63.01
754.559	62.81
754.739	62.15
754.918	62.91
755.097	62.17
755.277	61.5
755.456	61.68
755.635	62.24
755.815	63.1
755.994	61.37
756.173	60.36
756.352	60.19
756.532	58.91
756.711	58.73
756.89	58.36
757.069	58.87
757.248	58.03
757.427	57.4
757.607	57.79
757.786	58.52
757.965	58.42
758.144	58.54
758.323	57.97
758.502	59
758.681	58.7
758.86	58.44
759.039	57.89
759.218	58.01
759.397	58.49
759.576	57.05
759.755	55.29
759.934	55.59
760.113	56.89
760.291	57.01
760.47	57.99
760.649	58.63
760.828	58.71
761.007	58.96
761.186	60.81
761.364	59.86
761.543	60.23
761.722	59.67
761.901	58.69
762.079	58.09
762.258	58.06
762.437	57.46
762.615	57.19
762.794	57.13
762.972	56.13
763.151	54.77
763.33	54.83
763.508	53.81
763.687	54.04
763.865	54.16
764.044	53.02
764.222	53.06
764.401	52.74
764.579	52.3
764.758	52.3
764.936	52.52
765.114	52.5
765.293	53.32
765.471	54.92
765.65	55.45
765.828	56.61
766.006	57.42
766.184	57.96
766.363	57.86
766.541	58.23
766.719	58.83
766.898	59.58
767.076	60.18
767.254	59.67
767.432	59.36
767.61	59.56
767.788	59.69
767.967	59.75
768.145	58.09
768.323	57.97
768.501	58.98
768.679	59.14
768.857	59.7
769.035	61.94
769.213	63.3
769.391	64.5
769.569	65.66
769.747	66.93
769.925	67.01
770.103	69.84
770.281	68.44
770.459	67.9
770.636	67.81
770.814	67.47
770.992	65.12
771.17	64.45
771.348	63.08
771.525	61.2
771.703	59.21
771.881	60.56
772.059	61.06
772.236	61.99
772.414	62.02
772.592	62.31
772.769	64.01
772.947	64.35
773.125	64.64
773.302	65.38
773.48	67.11
773.657	67.64
773.835	64.45
774.013	60.8
774.19	62.7
774.368	62.03
774.545	60.71
774.723	62.59
774.9	61.67
775.077	62.02
775.255	61.02
775.432	63.07
775.61	64.78
775.787	67.2
775.964	70.52
776.142	70.52
776.319	71.66
776.496	72.98
776.674	69.9
776.851	70.08
777.028	71.04
777.205	71.73
777.382	70.64
777.56	68.88
777.737	73.08
777.914	72.03
778.091	72.6
778.268	71.61
778.445	71.07
778.622	70.46
778.8	72.91
778.977	71.96
779.154	79.97
779.331	76.75
779.508	76.17
779.685	71.18
779.862	71.28
780.038	70.71
780.215	71.55
780.392	71.76
780.569	73.85
780.746	73.23
780.923	73.73
781.1	64.07
781.277	65.46
781.453	65.46
781.63	64.13
781.807	67.26
781.984	66.55
782.16	66.46
782.337	65.92
782.514	65.65
782.691	66.08
782.867	66.07
783.044	66.55
783.221	68.83
783.397	72.24
783.574	74.46
783.75	72.45
783.927	72.78
784.103	73.41
784.28	72.49
784.456	72.82
784.633	73.15
784.809	72.74
784.986	73.08
785.162	70.84
785.339	66.46
785.515	67.9
785.692	66.08
785.868	66.56
786.044	66.2
786.221	66.51
786.397	66.81
786.573	64.42
786.749	64.49
786.926	65.41
787.102	65.92
787.278	66.73
787.454	66.63
787.631	68.14
787.807	65.7
787.983	66.86
788.159	68.68
788.335	66.84
788.511	68.6
788.687	68.47
788.863	69.99
789.039	71.1
789.216	70.63
789.392	68.73
789.568	69.84
789.744	72.78
789.919	71.13
790.095	67.36
790.271	67.39
790.447	66.17
790.623	64.21
790.799	62.47
790.975	61.74
791.151	63.22
791.327	64.45
791.502	62.29
791.678	60.22
791.854	61.45
792.03	61.63
792.205	62.32
792.381	62.39
792.557	64.21
792.733	64.2
792.908	64.17
793.084	64.43
793.259	63.28
793.435	66
793.611	66.32
793.786	64.3
793.962	66.29
794.137	66.29
794.313	65.72
794.488	66.47
794.664	67.42
794.839	67.89
795.015	67.66
795.19	68.77
795.366	67.07
795.541	65.73
795.716	64.99
795.892	67.94
796.067	68.96
796.242	68.31
796.418	68.84
796.593	70.89
796.768	71.51
796.944	70.99
797.119	70.55
797.294	70.04
797.469	74.24
797.644	77.84
797.82	76.66
797.995	73.88
798.17	74.83
798.345	73.74
798.52	73.08
798.695	71.51
798.87	71.92
799.045	69.29
799.22	68.33
799.395	66.23
799.57	64.78
799.745	63.93
799.92	66.09
800.095	68.96
800.27	69.13
800.445	66.27
800.62	67.63
800.795	66.98
800.97	70.23
801.145	69.4
801.319	68.43
801.494	67.31
801.669	71.22
801.844	71.39
802.018	67.96
802.193	69.45
802.368	66.72
802.543	65.24
802.717	68.41
802.892	66.26
803.067	67.97
803.241	69.4
803.416	71.06
803.59	68.97
803.765	69.95
803.94	70.39
804.114	66.2
804.289	69.5
804.463	71.76
804.638	68.27
804.812	69.03
804.986	70.26
805.161	69.17
805.335	68.84
805.51	67.4
805.684	65.13
805.858	66.82
806.033	68.5
806.207	70.38
806.381	67.78
806.556	70.57
806.73	69.53
806.904	70.05
807.078	71.5
807.253	73.39
807.427	74.15
807.601	74.84
807.775	74.76
807.949	75.11
808.123	73.44
808.298	72.83
808.472	74.17
808.646	79.06
808.82	76.66
808.994	74.14
809.168	71.99
809.342	72.33
809.516	73.62
809.69	73.28
809.864	72.45
810.038	75.94
810.212	75.1
810.385	72.29
810.559	70.18
810.733	72.3
810.907	73.21
811.081	72.37
811.255	72.14
811.428	74.83
811.602	74.14
811.776	75.18
811.95	73.27
812.123	76.16
812.297	77.98
812.471	73.97
812.644	72.99
812.818	74.41
812.992	74.45
813.165	75.26
813.339	70.97
813.512	71.54
813.686	71.61
813.86	70.54
814.033	74.55
814.207	71.41
814.38	73.85
814.554	75.54
814.727	76.17
814.9	77.47
815.074	74.51
815.247	77.14
815.421	71.77
815.594	76.53
815.767	79.12
815.941	74.25
816.114	77.99
816.287	79.94
816.46	77.71
816.634	75.84
816.807	77.36
816.98	81.89
817.153	84.24
817.327	88.68
817.5	84.33
817.673	86.72
817.846	86.94
818.019	84.69
818.192	85.78
818.365	83.69
818.538	84.42
818.711	81.63
818.884	76.74
819.057	74.65
819.23	75.75
819.403	74.36
819.576	69.93
819.749	68.5
819.922	66.86
820.095	64.22
820.268	65.6
820.441	65.86
820.614	66.09
820.786	66.51
820.959	64.66
821.132	63.8
821.305	62.9
821.477	61.53
821.65	59.64
821.823	59.05
821.996	58.3
822.168	57.74
822.341	55.3
822.514	54.82
822.686	53.83
822.859	53.54
823.031	52.62
823.204	52.46
823.376	52.09
823.549	52.22
823.722	51.95
823.894	51.98
824.067	51.65
824.239	52.46
824.411	52.63
824.584	53.5
824.756	52.97
824.929	53.44
825.101	53.23
825.273	53.44
825.446	53.62
825.618	53.66
825.79	53.73
825.963	53.56
826.135	53.87
826.307	53.76
826.479	53.58
826.652	54.51
826.824	55.64
826.996	55.98
827.168	56.64
827.34	57.13
827.512	56.92
827.684	56.97
827.856	57.32
828.029	56.72
828.201	55.39
828.373	55.54
828.545	55.45
828.717	54.41
828.889	54.67
829.061	53.99
829.232	54.45
829.404	55.2
829.576	56.47
829.748	57.21
829.92	59.37
830.092	63.79
830.264	63.42
830.436	64.57
830.607	65.83
830.779	67.91
830.951	71.99
831.123	72.14
831.294	73.9
831.466	74.18
831.638	76.46
831.809	74.85
831.981	73.2
832.153	72.46
832.324	71.99
832.496	70.32
832.667	69.6
832.839	68.9
833.011	68.23
833.182	69.53
833.354	64.58
833.525	62.15
833.697	62.83
833.868	62.31
834.039	62.98
834.211	62.75
834.382	63.23
834.554	62.02
834.725	60.11
834.896	59.63
835.068	59.16
835.239	60.83
835.41	62.44
835.581	63.24
835.753	62.49
835.924	63.54
836.095	62.54
836.266	63.05
836.438	63.23
836.609	62.7
836.78	63.22
836.951	63.5
837.122	64.7
837.293	65.07
837.464	66
837.635	68.94
837.806	68.88
837.977	72.7
838.148	74.38
838.319	77.41
838.49	81.15
838.661	81.22
838.832	82.61
839.003	83.95
839.174	85.63
839.345	81.07
839.516	80.82
839.687	82.06
839.857	78.76
840.028	75.99
840.199	73.08
840.37	75.82
840.54	79.73
840.711	76.35
840.882	76.61
841.053	77.23
841.223	80.05
841.394	79.26
841.564	84.99
841.735	87.87
841.906	88.12
842.076	87.15
842.247	84.72
842.417	81.73
842.588	83.35
842.758	85.87
842.929	84.18
843.099	86.19
843.27	88.61
843.44	86.21
843.611	88.36
843.781	88.55
843.951	92.27
844.122	91.85
844.292	92.56
844.462	97.84
844.633	97.13
844.803	94.7
844.973	91.26
845.144	91.71
845.314	90.75
845.484	93.24
845.654	98.02
845.824	106.59
845.995	108.72
846.165	128.91
846.335	128.88
846.505	136.3
846.675	146.91
846.845	178.12
847.015	185.45
847.185	191.77
847.355	183.9
847.525	180.59
847.695	173.56
847.865	175.05
848.035	166.03
848.205	175.21
848.375	167.27
848.545	162.6
848.715	133.92
848.884	127.06
849.054	124.76
849.224	122.55
849.394	124.43
849.564	130.88
849.733	132.47
849.903	129.11
850.073	125.72
850.243	137.1
850.412	129.29
850.582	123.52
850.752	134.46
850.921	132.47
851.091	148.65
851.26	146.37
851.43	136.15
851.599	136.99
851.769	131.25
851.939	121.68
852.108	114.83
852.278	126.26
852.447	141.05
852.616	139.72
852.786	130.79
852.955	127.81
853.125	133.48
853.294	131.42
853.463	126.94
853.633	130.76
853.802	147.01
853.971	145.83
854.141	137.85
854.31	131.02
854.479	142.4
854.648	163.51
854.818	157.36
854.987	160.41
855.156	169.77
855.325	163.65
855.494	169.23
855.663	164.07
855.832	153.87
856.001	165.89
856.171	172.74
856.34	162.5
856.509	169.1
856.678	173.91
856.847	154.02
857.016	158.06
857.185	158.76
857.353	157.96
857.522	148
857.691	146.92
857.86	148.17
858.029	147.27
858.198	137.08
858.367	127.86
858.535	122.14
858.704	128.66
858.873	130.74
859.042	122.83
859.21	123.79
859.379	128.14
859.548	137.31
859.717	131.35
859.885	130.3
860.054	139.76
860.222	133.69
860.391	132.45
860.56	137.15
860.728	130.2
860.897	135.6
861.065	129.12
861.234	117.32
861.402	132.47
861.571	124.83
861.739	129.78
861.908	122.36
862.076	133.92
862.244	133.57
862.413	133.77
862.581	141.19
862.749	147.67
862.918	157.81
863.086	186.75
863.254	152.25
863.423	158.77
863.591	150.03
863.759	154.36
863.927	153.15
864.096	145.21
864.264	164.4
864.432	160.21
864.6	161.63
864.768	157.25
864.936	168.55
865.104	157.03
865.272	177.86
865.44	181.27
865.608	176.55
865.776	156.13
865.944	174.58
866.112	156.52
866.28	161.86
866.448	152.24
866.616	151.78
866.784	144.94
866.952	159.04
867.12	131.46
867.288	117.37
867.455	125.79
867.623	117.43
867.791	106.69
867.959	112.41
868.127	105.81
868.294	112.85
868.462	109
868.63	98.39
868.797	100.79
868.965	100.39
869.133	108.3
869.3	102.99
869.468	112.74
869.636	115.41
869.803	103.25
869.971	107.3
870.138	112.82
870.306	111.79
870.473	113.61
870.641	111.53
870.808	126.68
870.975	119.95
871.143	123.42
871.31	117.24
871.478	119.51
871.645	135.03
871.812	137.47
871.98	132.87
872.147	125.79
872.314	126.76
872.482	151.79
872.649	144.63
872.816	163.28
872.983	189.86
873.15	208.19
873.318	203.28
873.485	193.16
873.652	187.26
873.819	181.04
873.986	182.12
874.153	177.37
874.32	164.43
874.487	156.06
874.654	134.93
874.821	122.86
874.988	114.6
875.155	119.32
875.322	110.02
875.489	119.39
875.656	124
875.823	132.04
875.99	130.16
876.157	136.04
876.324	138.2
876.49	155.99
876.657	153.39
876.824	167.88
876.991	173.84
877.157	190.33
877.324	183.55
877.491	184.02
877.658	171.19
877.824	187.83
877.991	175.29
878.157	179.06
878.324	161.2
878.491	163.86
878.657	163.2
878.824	152.43
878.99	138.21
879.157	126.3
879.323	113.4
879.49	109.26
879.656	112.2
879.823	113.67
879.989	108.54
880.156	114.3
880.322	104
880.488	98.47
880.655	103.96
880.821	114.95
880.987	113.49
881.154	113.63
881.32	108.54
881.486	97.37
881.652	90.91
881.819	90.86
881.985	85.36
882.151	85.67
882.317	82.17
882.483	76.32
882.649	72.97
882.816	74.87
882.982	71.18
883.148	70.92
883.314	67.22
883.48	68.52
883.646	66.87
883.812	67.33
883.978	68.41
884.144	67.3
884.31	66.56
884.476	63.93
884.642	60.72
884.807	61.88
884.973	59.91
885.139	62.29
885.305	62.61
885.471	65.26
885.637	62.28
885.802	61
885.968	61.63
886.134	64.08
886.3	65.55
886.465	69.98
886.631	70.81
886.797	79.02
886.962	81.16
887.128	79.09
887.293	79.38
887.459	79.89
887.625	80.94
887.79	85.78
887.956	83.32
888.121	86.97
888.287	84.18
888.452	84.21
888.618	77.41
888.783	75.28
