Data from LC_208__Reflection_3.txt Node
Date: Thu Nov 19 11:59:38 EST 2015
User: robert
Spectrometer: USB4E03001
Autoset integration time: false
Trigger mode: 4
Integration Time (sec): 1.000000E-1
Scans to average: 15
Electric dark correction enabled: true
Nonlinearity correction enabled: false
Boxcar width: 5
Stray light correction enabled: false
XAxis mode: Wavelengths
Stop averaging: false
Number of Pixels in Spectrum: 3648
>>>>>Begin Spectral Data<<<<<
177.566	89.32
177.785	91.31
178.005	93.21
178.225	85.85
178.445	73.06
178.665	65.5
178.885	225.49
179.105	133.09
179.324	105.55
179.544	107.95
179.764	84.69
179.984	112.35
180.204	123.11
180.423	103.55
180.643	110.14
180.863	109.68
181.083	128.18
181.302	1009.74
181.522	-44.76
181.742	45.42
181.961	76.19
182.181	70.89
182.401	104
182.621	112.31
182.84	100.87
183.06	100.47
183.279	112
183.499	128.58
183.719	134.95
183.938	136.59
184.158	171.81
184.377	215.05
184.597	218.55
184.816	171.8
185.036	168.54
185.256	141.62
185.475	288.92
185.695	324.79
185.914	312.38
186.134	448.42
186.353	-262.56
186.572	1097.97
186.792	85
187.011	-138.19
187.231	-75.72
187.45	-450.47
187.67	-525.07
187.889	-172.18
188.108	-67.09
188.328	-41.98
188.547	-89.09
188.766	-132.18
188.986	-4611.7
189.205	968.7
189.424	3388.28
189.644	199.56
189.863	94.01
190.082	-53.9
190.302	-189.9
190.521	-129.68
190.74	-288.55
190.959	-368.38
191.178	1083.99
191.398	240.66
191.617	307.93
191.836	943.51
192.055	614.78
192.274	-1477.05
192.494	-187.76
192.713	-28.64
192.932	28.43
193.151	95.74
193.37	-4.1
193.589	-9
193.808	52.87
194.027	40.07
194.246	77.61
194.465	171.1
194.685	1306.96
194.904	-171.66
195.123	275.24
195.342	-9.9
195.561	40.04
195.78	-7.8
195.999	49.72
196.218	68.55
196.436	60.78
196.655	52.46
196.874	36.57
197.093	44.1
197.312	-0.86
197.531	9.19
197.75	24.62
197.969	51.87
198.188	65.45
198.407	46.44
198.625	68.09
198.844	-22.44
199.063	30.75
199.282	119.53
199.501	21.74
199.719	77.11
199.938	119.35
200.157	40.96
200.376	246.14
200.594	118.06
200.813	2070.92
201.032	324.15
201.251	117.2
201.469	79.65
201.688	-24.62
201.907	-50.24
202.125	5.9
202.344	45.97
202.563	16.85
202.781	-60.39
203	-33.92
203.218	-34.17
203.437	-73.92
203.656	-318.25
203.874	509.62
204.093	2040.25
204.311	3033.96
204.53	240.88
204.748	463.68
204.967	-3934.38
205.185	-700.71
205.404	388.37
205.622	237.33
205.841	176.16
206.059	134.68
206.278	59.7
206.496	12.24
206.715	9.91
206.933	26.78
207.151	38.86
207.37	41.53
207.588	20.77
207.806	44.33
208.025	38.9
208.243	37.38
208.461	-79.37
208.68	-59.92
208.898	15.62
209.116	-30.54
209.335	1335.93
209.553	495.87
209.771	77363.64
209.989	464.37
210.208	-2589.24
210.426	-344.79
210.644	-57.16
210.862	-30.43
211.081	-51.41
211.299	-80.51
211.517	-3.66
211.735	4.74
211.953	31.21
212.171	51.75
212.39	79.2
212.608	53.46
212.826	70.89
213.044	106.91
213.262	85.61
213.48	109.72
213.698	117.13
213.916	87.96
214.134	75.1
214.352	79.21
214.57	80.62
214.788	50.48
215.006	57.7
215.224	38.99
215.442	17.42
215.66	44.6
215.878	33.77
216.096	20.33
216.314	38.62
216.532	36.3
216.75	49.32
216.968	52.04
217.185	61
217.403	75.11
217.621	72.66
217.839	63.61
218.057	50.79
218.275	52.53
218.492	58.26
218.71	38.14
218.928	51.2
219.146	29.83
219.363	47.32
219.581	57.97
219.799	53.13
220.017	63.46
220.234	72.68
220.452	85.11
220.67	122.13
220.887	105.81
221.105	104.79
221.323	71.76
221.54	98.07
221.758	30.35
221.976	-6.48
222.193	1.55
222.411	8.02
222.629	18.25
222.846	-21.88
223.064	-7.62
223.281	-61.79
223.499	-14.19
223.716	10.92
223.934	17.81
224.151	47.25
224.369	47.44
224.586	43.8
224.804	44.13
225.021	47.26
225.239	39.82
225.456	36.28
225.674	35.78
225.891	17.87
226.108	13.27
226.326	12.74
226.543	6.24
226.76	6.47
226.978	6.05
227.195	1.48
227.413	-2.09
227.63	9.23
227.847	9.29
228.064	7.56
228.282	7.59
228.499	5.14
228.716	8
228.934	7.08
229.151	5.73
229.368	3.7
229.585	3.08
229.802	3.75
230.02	2.89
230.237	1.43
230.454	0.25
230.671	3.06
230.888	4.09
231.105	2.47
231.323	-0.33
231.54	2.64
231.757	0.76
231.974	4.89
232.191	3.3
232.408	5.52
232.625	8.61
232.842	9.6
233.059	14.31
233.276	18.27
233.493	17.21
233.71	25.64
233.927	27.04
234.144	30.9
234.361	28.86
234.578	28.56
234.795	24.5
235.012	24.92
235.229	31.03
235.446	28.95
235.663	28.19
235.879	27.29
236.096	24.57
236.313	25.41
236.53	25.6
236.747	26.14
236.964	30.55
237.181	35.01
237.397	33.84
237.614	30.72
237.831	29.46
238.048	29.91
238.264	28.02
238.481	31.35
238.698	29.74
238.915	32.39
239.131	33.42
239.348	26.51
239.565	24.18
239.781	20.73
239.998	18.92
240.215	18.65
240.431	17.9
240.648	20.13
240.865	15.64
241.081	13.33
241.298	9.44
241.514	9.78
241.731	9.71
241.947	8.2
242.164	8.79
242.38	8.98
242.597	8.2
242.814	7.56
243.03	6.81
243.246	8.15
243.463	9.41
243.679	10.72
243.896	9.9
244.112	11.05
244.329	14.04
244.545	15.1
244.762	15.67
244.978	14.95
245.194	15.01
245.411	12.65
245.627	11.52
245.843	11.5
246.06	10.59
246.276	11.43
246.492	11.21
246.709	10.74
246.925	10.4
247.141	11.1
247.357	12.01
247.574	12.06
247.79	12.75
248.006	12.64
248.222	12.3
248.439	12.59
248.655	12.95
248.871	12.49
249.087	11.46
249.303	12.52
249.519	11.83
249.736	12.25
249.952	12.22
250.168	12.71
250.384	14.27
250.6	15.3
250.816	12.43
251.032	11.79
251.248	12.6
251.464	14.44
251.68	13.66
251.896	13.03
252.112	12.13
252.328	10.92
252.544	10.97
252.76	10.95
252.976	10.42
253.192	11.56
253.408	11.11
253.624	11.41
253.84	8.95
254.056	6.72
254.272	7.75
254.487	8.7
254.703	10.58
254.919	10.03
255.135	8.56
255.351	10.82
255.567	10.56
255.782	8.71
255.998	7.46
256.214	10.12
256.43	10.81
256.646	9.4
256.861	7.76
257.077	8.33
257.293	5.09
257.508	5.41
257.724	3.53
257.94	5.15
258.155	6.17
258.371	6.85
258.587	6.89
258.802	7.49
259.018	9.01
259.234	8.9
259.449	9.02
259.665	9.78
259.88	9.5
260.096	9.69
260.312	9.88
260.527	10.35
260.743	10.47
260.958	10.23
261.174	10.71
261.389	10.74
261.605	10.79
261.82	10.04
262.036	11.1
262.251	12.03
262.466	12.8
262.682	12.45
262.897	12.12
263.113	13.47
263.328	14.62
263.543	14.18
263.759	13.35
263.974	14.26
264.189	15.26
264.405	14.77
264.62	14.74
264.835	13.45
265.051	13.7
265.266	13.75
265.481	10.25
265.696	10.76
265.912	10.78
266.127	9.85
266.342	8.91
266.557	8.9
266.773	8.35
266.988	7.44
267.203	8.14
267.418	9.08
267.633	9.44
267.848	10.82
268.064	9.54
268.279	10.6
268.494	11.03
268.709	11.97
268.924	11.99
269.139	11.49
269.354	11.67
269.569	11.04
269.784	10.99
269.999	9.52
270.214	9.35
270.429	9.98
270.644	7.78
270.859	7.74
271.074	8.33
271.289	9.8
271.504	11.06
271.719	11.39
271.934	11.11
272.149	10.48
272.363	11.54
272.578	11.44
272.793	11.29
273.008	11.21
273.223	11.49
273.438	10.54
273.653	9.69
273.867	8.74
274.082	8.78
274.297	8.61
274.512	8.59
274.726	7.14
274.941	6.9
275.156	7.56
275.371	8.82
275.585	8.62
275.8	9.1
276.015	8.33
276.229	7.34
276.444	6.94
276.659	7
276.873	5.88
277.088	6.47
277.302	6.07
277.517	3.61
277.732	2.84
277.946	4.41
278.161	3.9
278.375	3.45
278.59	4.27
278.804	5.89
279.019	6.39
279.233	7.34
279.448	7.19
279.662	7.47
279.877	9.53
280.091	10.47
280.306	9.23
280.52	9.04
280.735	9.53
280.949	10.97
281.163	9.38
281.378	8.5
281.592	7.65
281.806	8.9
282.021	9.4
282.235	9.27
282.449	8.45
282.664	8.25
282.878	7.97
283.092	7.67
283.307	6.78
283.521	6.57
283.735	6.96
283.949	7.6
284.164	6.4
284.378	6.8
284.592	6.37
284.806	7.02
285.02	7.25
285.234	8.76
285.449	9.62
285.663	8.74
285.877	9.13
286.091	9.05
286.305	9.19
286.519	9.55
286.733	9.09
286.947	9.42
287.161	8.66
287.375	8.28
287.589	8.32
287.803	7.83
288.017	8.8
288.231	7.59
288.445	8.15
288.659	8.3
288.873	9.22
289.087	9.08
289.301	9.74
289.515	10.6
289.729	10.66
289.943	10.08
290.157	9.67
290.371	9.02
290.584	9.23
290.798	9.98
291.012	10.21
291.226	9.67
291.44	9.89
291.654	9.09
291.867	8.22
292.081	8.53
292.295	8.59
292.509	9.48
292.722	9.44
292.936	10.81
293.15	10.62
293.364	9.38
293.577	9.37
293.791	9.87
294.005	8.78
294.218	10.42
294.432	10.72
294.645	9.05
294.859	10.04
295.073	11.26
295.286	11.12
295.5	10.58
295.713	12.64
295.927	12.06
296.14	11.71
296.354	13.01
296.568	11.72
296.781	11.68
296.994	12.15
297.208	11.4
297.421	10.78
297.635	10.59
297.848	11.05
298.062	10.23
298.275	10.33
298.489	10.59
298.702	10.53
298.915	10.99
299.129	10.29
299.342	10.94
299.555	10.71
299.769	11.84
299.982	11.56
300.195	10.71
300.409	10.15
300.622	10.73
300.835	10.3
301.048	9.38
301.262	9.58
301.475	11.21
301.688	10.88
301.901	10.82
302.115	11.27
302.328	10.94
302.541	11.01
302.754	11.44
302.967	12.29
303.18	12.54
303.393	13.2
303.607	13.79
303.82	12.91
304.033	13.8
304.246	14.09
304.459	13.54
304.672	14.18
304.885	15.29
305.098	14.68
305.311	14.69
305.524	15.06
305.737	15.12
305.95	14.5
306.163	14.9
306.376	13.86
306.589	14.48
306.802	15.29
307.015	14.56
307.228	13.18
307.44	13.72
307.653	13.31
307.866	13.08
308.079	13.42
308.292	12.7
308.505	13.24
308.718	13.93
308.93	12.19
309.143	11.02
309.356	11.73
309.569	12.71
309.781	12.17
309.994	11.91
310.207	11.68
310.42	11.61
310.632	11.75
310.845	10.3
311.058	10.21
311.27	12.13
311.483	11.93
311.696	11.75
311.908	11.72
312.121	12.37
312.333	12.87
312.546	12.8
312.759	12.83
312.971	13.81
313.184	14.72
313.396	15
313.609	13.87
313.821	14.31
314.034	15.23
314.246	15.75
314.459	16.57
314.671	15.5
314.884	15.51
315.096	15.7
315.309	15.54
315.521	15.36
315.733	15.4
315.946	15.22
316.158	15.43
316.371	14.73
316.583	14.4
316.795	13.05
317.008	13.31
317.22	14.02
317.432	13.85
317.644	13.46
317.857	13.39
318.069	12.46
318.281	12.6
318.494	12.18
318.706	12.89
318.918	12.02
319.13	12.52
319.342	12.58
319.555	12.08
319.767	11.49
319.979	11.63
320.191	11.79
320.403	12.85
320.615	13.05
320.827	12.66
321.039	12.85
321.252	14.15
321.464	14.06
321.676	14.67
321.888	15.22
322.1	16.93
322.312	16.52
322.524	16.1
322.736	15.23
322.948	15.01
323.16	16.08
323.372	15.15
323.584	14.65
323.796	15.07
324.007	15.07
324.219	15.62
324.431	14.59
324.643	14.81
324.855	15.48
325.067	16.88
325.279	17.27
325.491	16.56
325.702	16.98
325.914	16.44
326.126	16.37
326.338	15.61
326.55	15.59
326.761	15.21
326.973	14.72
327.185	14.65
327.396	13.41
327.608	13.1
327.82	14.94
328.032	15.27
328.243	15.48
328.455	16.07
328.666	17.02
328.878	16.5
329.09	17.16
329.301	18.2
329.513	18.29
329.725	19.98
329.936	20.68
330.148	19.02
330.359	20.17
330.571	21.23
330.782	20.97
330.994	21.27
331.205	21.41
331.417	20.6
331.628	20.27
331.84	21.13
332.051	20.77
332.262	21.1
332.474	21.58
332.685	20.5
332.897	20.17
333.108	20.68
333.319	20.06
333.531	20.43
333.742	21.99
333.953	22.21
334.165	21.98
334.376	22.61
334.587	22.63
334.799	22.75
335.01	23.03
335.221	23.33
335.432	23.07
335.644	22.99
335.855	22.64
336.066	22.82
336.277	23.1
336.488	22.87
336.7	22.65
336.911	23.33
337.122	23.68
337.333	23.28
337.544	23.14
337.755	23.56
337.966	23.62
338.177	22.77
338.388	21.95
338.599	22.49
338.811	22.85
339.022	22.66
339.233	21.16
339.444	20.94
339.655	21.77
339.866	22.19
340.076	21.94
340.287	21.87
340.498	23.21
340.709	23.2
340.92	22.44
341.131	22.6
341.342	22.38
341.553	22.48
341.764	22.08
341.975	22.39
342.185	22.1
342.396	21.58
342.607	22.4
342.818	22.87
343.029	22.33
343.239	23.08
343.45	21.83
343.661	21.98
343.872	22.66
344.082	22.55
344.293	21.82
344.504	22.08
344.714	23.03
344.925	22.29
345.136	22.08
345.346	22.67
345.557	21.48
345.768	21.58
345.978	22.05
346.189	21.66
346.399	22.43
346.61	23.01
346.821	22.79
347.031	21.72
347.242	21.85
347.452	21.93
347.663	21.42
347.873	21.3
348.084	21.98
348.294	21.43
348.504	21.41
348.715	21.38
348.925	20.74
349.136	20.26
349.346	20.28
349.557	20.33
349.767	20.12
349.977	20.92
350.188	22.57
350.398	22.18
350.608	21.72
350.819	22
351.029	21.7
351.239	21.71
351.449	22.38
351.66	23.16
351.87	23.4
352.08	23.2
352.29	23.27
352.501	22.6
352.711	23.34
352.921	24
353.131	23.9
353.341	22.9
353.552	23.28
353.762	22.47
353.972	22.49
354.182	23.01
354.392	23.35
354.602	23.45
354.812	23.07
355.022	22.91
355.232	22.77
355.442	23.04
355.652	23.64
355.862	23.67
356.072	23.99
356.282	23.47
356.492	22.85
356.702	22.53
356.912	22.58
357.122	23.04
357.332	23.13
357.542	22.72
357.752	22.52
357.962	22.86
358.171	22.86
358.381	22.8
358.591	23.06
358.801	22.72
359.011	22.97
359.221	22.58
359.43	22.23
359.64	21.84
359.85	21.65
360.06	21.61
360.269	21.28
360.479	21.1
360.689	20.6
360.899	20.92
361.108	20.78
361.318	20.58
361.528	20.92
361.737	21.1
361.947	20.85
362.156	20.78
362.366	20.73
362.576	20.24
362.785	19.89
362.995	20.33
363.204	20.14
363.414	20.01
363.623	20.1
363.833	19.48
364.042	19.2
364.252	19.32
364.461	19.58
364.671	19.33
364.88	19.49
365.09	19.59
365.299	19.47
365.509	19.01
365.718	19.56
365.927	19.25
366.137	19.45
366.346	19.83
366.555	19.82
366.765	20.08
366.974	20.08
367.183	20.7
367.393	21.09
367.602	21.03
367.811	21.35
368.021	20.97
368.23	20.67
368.439	20.45
368.648	19.89
368.857	20.11
369.067	19.92
369.276	19.82
369.485	19.51
369.694	18.77
369.903	19.01
370.112	18.84
370.321	18.6
370.531	18.81
370.74	18.88
370.949	19.03
371.158	19.04
371.367	19.1
371.576	18.99
371.785	19.5
371.994	20.09
372.203	19.98
372.412	19.91
372.621	20.2
372.83	19.74
373.039	19.44
373.248	19.52
373.457	19.2
373.666	18.79
373.874	18.97
374.083	18.37
374.292	17.98
374.501	17.96
374.71	18.17
374.919	18.45
375.128	19.08
375.336	19.79
375.545	19.65
375.754	19.59
375.963	19.55
376.171	19.4
376.38	19.15
376.589	19.27
376.798	19.24
377.006	18.95
377.215	18.48
377.424	18.46
377.632	18.29
377.841	18.22
378.05	18.61
378.258	18.86
378.467	19.45
378.675	19.23
378.884	19.22
379.093	19.08
379.301	19.56
379.51	20.06
379.718	20.09
379.927	19.7
380.135	19.88
380.344	19.83
380.552	19.81
380.761	19.36
380.969	19.52
381.177	19.02
381.386	18.73
381.594	18.04
381.803	17.68
382.011	17.24
382.219	17.38
382.428	16.89
382.636	16.63
382.845	16.12
383.053	15.94
383.261	16.19
383.469	16.55
383.678	16.83
383.886	17.25
384.094	17.28
384.302	17.62
384.511	17.79
384.719	18.17
384.927	18.25
385.135	18.68
385.343	18.54
385.552	18.18
385.76	17.97
385.968	17.76
386.176	17.36
386.384	17.33
386.592	17.12
386.8	17.05
387.008	16.91
387.216	16.79
387.424	16.5
387.633	16.46
387.841	16.65
388.049	16.23
388.257	16.51
388.465	16.66
388.672	16.43
388.88	16.73
389.088	16.5
389.296	16.31
389.504	16.28
389.712	16.33
389.92	16.71
390.128	16.64
390.336	16.89
390.544	16.7
390.751	16.44
390.959	16.77
391.167	16.26
391.375	16.26
391.583	16.42
391.79	16.24
391.998	15.95
392.206	15.78
392.414	15.74
392.621	15.72
392.829	15.59
393.037	15.91
393.244	16.03
393.452	16.34
393.66	16.24
393.867	15.83
394.075	16.04
394.283	16.04
394.49	15.9
394.698	16.05
394.905	16.04
395.113	16.16
395.32	15.99
395.528	15.85
395.735	15.38
395.943	15.39
396.15	15.63
396.358	15.42
396.565	15.63
396.773	15.83
396.98	15.81
397.188	15.9
397.395	15.87
397.602	15.99
397.81	15.99
398.017	16.14
398.225	16.05
398.432	15.55
398.639	15.31
398.847	15.03
399.054	14.81
399.261	14.59
399.468	14.63
399.676	14.52
399.883	14.44
400.09	14.3
400.297	14.16
400.505	14.13
400.712	14.64
400.919	15.14
401.126	15.39
401.333	15.44
401.54	15.37
401.748	15.16
401.955	15.06
402.162	14.72
402.369	14.52
402.576	14.86
402.783	14.92
402.99	14.59
403.197	14.59
403.404	14.33
403.611	14.19
403.818	14.46
404.025	14.46
404.232	14.61
404.439	14.93
404.646	14.71
404.853	14.45
405.06	14.53
405.267	14.6
405.474	14.4
405.681	14.59
405.887	14.7
406.094	14.43
406.301	14.43
406.508	14.48
406.715	14.11
406.922	14.24
407.128	14.51
407.335	14.5
407.542	14.58
407.749	14.64
407.955	14.6
408.162	14.35
408.369	14.56
408.575	14.61
408.782	14.28
408.989	14.58
409.195	14.54
409.402	14.32
409.609	14.18
409.815	14.33
410.022	14.5
410.228	14.56
410.435	14.63
410.642	14.59
410.848	14.49
411.055	14.69
411.261	14.65
411.468	14.72
411.674	14.82
411.881	14.75
412.087	14.6
412.294	14.32
412.5	14.15
412.706	14.23
412.913	14.1
413.119	14.22
413.326	13.94
413.532	13.8
413.738	13.82
413.945	13.64
414.151	13.74
414.357	13.77
414.564	13.6
414.77	13.48
414.976	13.71
415.182	13.91
415.389	13.76
415.595	14.05
415.801	14.11
416.007	14.11
416.214	14.26
416.42	14.34
416.626	14.27
416.832	14.45
417.038	14.59
417.244	14.43
417.45	14.33
417.657	14.41
417.863	14.28
418.069	14.17
418.275	14.28
418.481	14.3
418.687	14.17
418.893	14.28
419.099	14.32
419.305	14.27
419.511	14.31
419.717	14.3
419.923	14.3
420.129	14.41
420.335	14.4
420.541	14.31
420.746	14.28
420.952	14.26
421.158	14.24
421.364	13.97
421.57	13.96
421.776	13.79
421.982	13.78
422.187	13.64
422.393	13.51
422.599	13.57
422.805	13.55
423.01	13.46
423.216	13.42
423.422	13.4
423.628	13.57
423.833	13.61
424.039	13.55
424.245	13.41
424.45	13.54
424.656	13.57
424.862	13.55
425.067	13.53
425.273	13.57
425.478	13.64
425.684	13.52
425.889	13.54
426.095	13.44
426.301	13.59
426.506	13.57
426.712	13.52
426.917	13.42
427.123	13.3
427.328	13.27
427.533	13.13
427.739	13.05
427.944	13.12
428.15	13.06
428.355	13.11
428.561	13.09
428.766	13.15
428.971	13.2
429.177	13.37
429.382	13.44
429.587	13.41
429.793	13.55
429.998	13.67
430.203	13.72
430.408	13.72
430.614	13.75
430.819	13.82
431.024	13.87
431.229	13.77
431.434	13.73
431.64	13.62
431.845	13.74
432.05	13.64
432.255	13.47
432.46	13.53
432.665	13.63
432.87	13.69
433.076	13.68
433.281	13.75
433.486	13.73
433.691	13.56
433.896	13.72
434.101	13.68
434.306	13.71
434.511	13.82
434.716	13.61
434.921	13.51
435.126	13.52
435.331	13.42
435.535	13.34
435.74	13.27
435.945	13.51
436.15	13.6
436.355	13.59
436.56	13.61
436.765	13.66
436.97	13.69
437.174	13.61
437.379	13.5
437.584	13.65
437.789	13.78
437.993	14.03
438.198	13.82
438.403	13.68
438.608	13.79
438.812	13.85
439.017	13.72
439.222	13.88
439.426	13.9
439.631	13.85
439.836	13.85
440.04	13.74
440.245	13.68
440.45	13.8
440.654	13.85
440.859	13.72
441.063	13.65
441.268	13.57
441.472	13.36
441.677	13.39
441.881	13.5
442.086	13.43
442.29	13.47
442.495	13.46
442.699	13.54
442.904	13.5
443.108	13.61
443.312	13.74
443.517	13.79
443.721	13.91
443.925	13.89
444.13	13.74
444.334	13.79
444.538	13.86
444.743	13.88
444.947	13.65
445.151	13.56
445.356	13.42
445.56	13.42
445.764	13.55
445.968	13.47
446.173	13.39
446.377	13.47
446.581	13.44
446.785	13.38
446.989	13.16
447.193	13.26
447.398	13.25
447.602	13.29
447.806	13.16
448.01	13.11
448.214	13.1
448.418	13.03
448.622	13.08
448.826	13.09
449.03	13.02
449.234	13.2
449.438	13.17
449.642	13.21
449.846	13.35
450.05	13.37
450.254	13.28
450.458	13.39
450.662	13.34
450.866	13.24
451.069	13.02
451.273	12.95
451.477	12.76
451.681	12.69
451.885	12.61
452.089	12.44
452.292	12.43
452.496	12.49
452.7	12.41
452.904	12.4
453.107	12.36
453.311	12.34
453.515	12.16
453.719	12.36
453.922	12.4
454.126	12.36
454.33	12.34
454.533	12.3
454.737	12.17
454.94	12.2
455.144	12.37
455.348	12.38
455.551	12.42
455.755	12.59
455.958	12.33
456.162	12.19
456.365	12.26
456.569	12.19
456.772	12.08
456.976	12.18
457.179	12.15
457.383	12.23
457.586	12.11
457.79	12.22
457.993	12.15
458.196	12.29
458.4	12.39
458.603	12.26
458.807	12.33
459.01	12.42
459.213	12.41
459.417	12.4
459.62	12.36
459.823	12.36
460.026	12.47
460.23	12.55
460.433	12.65
460.636	12.58
460.839	12.55
461.042	12.52
461.246	12.54
461.449	12.64
461.652	12.64
461.855	12.66
462.058	12.75
462.261	12.71
462.464	12.75
462.668	12.71
462.871	12.93
463.074	13.14
463.277	13.4
463.48	13.36
463.683	13.14
463.886	13.11
464.089	13.04
464.292	13.03
464.495	13.02
464.698	13
464.901	12.89
465.104	12.8
465.306	12.78
465.509	12.72
465.712	12.68
465.915	12.67
466.118	12.68
466.321	12.79
466.524	12.93
466.726	12.65
466.929	12.47
467.132	12.63
467.335	12.59
467.538	12.47
467.74	12.51
467.943	12.62
468.146	12.6
468.348	12.76
468.551	12.72
468.754	12.66
468.956	12.79
469.159	13.02
469.362	13.14
469.564	13.17
469.767	13.34
469.969	13.29
470.172	13.29
470.375	13.41
470.577	13.14
470.78	13.09
470.982	12.82
471.185	12.88
471.387	12.9
471.59	12.83
471.792	12.79
471.995	12.89
472.197	12.79
472.399	12.85
472.602	12.74
472.804	12.94
473.007	12.88
473.209	12.99
473.411	13.06
473.614	13
473.816	12.85
474.018	12.97
474.22	12.7
474.423	12.79
474.625	12.58
474.827	12.67
475.03	12.71
475.232	12.86
475.434	13.02
475.636	12.74
475.838	12.72
476.04	12.63
476.243	12.7
476.445	12.82
476.647	12.74
476.849	12.98
477.051	13.13
477.253	13.06
477.455	13.14
477.657	13.26
477.859	13.38
478.061	13.51
478.263	13.51
478.465	13.39
478.667	13.35
478.869	13.27
479.071	13.08
479.273	12.95
479.475	12.78
479.677	12.71
479.879	12.5
480.081	12.54
480.283	12.35
480.485	12.43
480.686	12.5
480.888	12.53
481.09	12.58
481.292	12.65
481.494	12.61
481.695	12.85
481.897	12.87
482.099	12.9
482.301	12.93
482.502	12.98
482.704	12.93
482.906	12.86
483.107	12.9
483.309	12.93
483.511	12.96
483.712	13
483.914	12.95
484.115	12.88
484.317	12.89
484.519	12.84
484.72	12.83
484.922	12.87
485.123	12.89
485.325	12.85
485.526	12.85
485.728	12.82
485.929	12.8
486.131	12.84
486.332	12.88
486.534	12.88
486.735	12.98
486.936	13.02
487.138	13
487.339	13.02
487.541	13.07
487.742	13.04
487.943	13.04
488.144	13.01
488.346	12.93
488.547	12.96
488.748	12.95
488.95	12.95
489.151	12.95
489.352	12.96
489.553	12.94
489.755	12.92
489.956	12.89
490.157	12.89
490.358	12.94
490.559	13.08
490.76	13.13
490.961	13.1
491.163	13.04
491.364	12.97
491.565	12.97
491.766	12.93
491.967	12.94
492.168	13
492.369	13.01
492.57	13.03
492.771	12.97
492.972	12.95
493.173	12.93
493.374	12.93
493.575	13.01
493.776	13.07
493.976	13.16
494.177	13.21
494.378	13.26
494.579	13.36
494.78	13.37
494.981	13.51
495.182	13.61
495.382	13.79
495.583	13.83
495.784	13.91
495.985	13.93
496.185	13.94
496.386	13.98
496.587	13.99
496.788	14.05
496.988	14.03
497.189	13.9
497.39	13.93
497.59	13.81
497.791	13.78
497.992	13.72
498.192	13.66
498.393	13.65
498.593	13.58
498.794	13.58
498.994	13.46
499.195	13.4
499.395	13.62
499.596	13.5
499.796	13.61
499.997	13.71
500.197	13.69
500.398	13.65
500.598	13.68
500.799	13.91
500.999	13.94
501.199	13.91
501.4	14.01
501.6	13.89
501.801	13.96
502.001	14.11
502.201	14.32
502.402	14.41
502.602	14.69
502.802	14.9
503.002	14.73
503.203	14.85
503.403	15
503.603	15.13
503.803	15.16
504.003	15.39
504.204	15.41
504.404	15.46
504.604	15.51
504.804	15.44
505.004	15.45
505.204	15.59
505.404	15.55
505.604	15.69
505.804	15.63
506.005	15.67
506.205	15.74
506.405	15.71
506.605	15.54
506.805	15.72
507.005	15.81
507.204	15.84
507.404	15.88
507.604	15.93
507.804	15.95
508.004	16.01
508.204	16.18
508.404	16.14
508.604	16.18
508.804	16.59
509.003	16.53
509.203	16.59
509.403	16.55
509.603	16.61
509.803	16.74
510.002	16.76
510.202	16.69
510.402	16.67
510.602	16.65
510.801	16.67
511.001	16.48
511.201	16.59
511.4	16.69
511.6	16.79
511.8	16.93
511.999	17.02
512.199	17.17
512.398	17.25
512.598	17.36
512.797	17.32
512.997	17.53
513.197	17.61
513.396	17.57
513.596	17.62
513.795	17.67
513.994	17.67
514.194	17.68
514.393	17.77
514.593	17.93
514.792	18.02
514.992	18.19
515.191	18.29
515.39	18.36
515.59	18.4
515.789	18.48
515.988	18.57
516.188	18.56
516.387	18.55
516.586	18.69
516.786	18.74
516.985	18.73
517.184	18.77
517.383	18.74
517.582	18.82
517.782	18.87
517.981	18.94
518.18	19.15
518.379	19.29
518.578	19.37
518.777	19.27
518.976	19.47
519.176	19.53
519.375	19.66
519.574	19.59
519.773	19.63
519.972	19.86
520.171	19.86
520.37	19.66
520.569	19.68
520.768	19.77
520.967	19.93
521.166	19.88
521.365	19.98
521.564	20.01
521.762	20.18
521.961	20.23
522.16	20.1
522.359	20.32
522.558	20.43
522.757	20.59
522.956	20.72
523.154	20.75
523.353	20.85
523.552	20.77
523.751	20.86
523.949	21.16
524.148	21.17
524.347	21.3
524.546	21.25
524.744	21.38
524.943	21.39
525.142	21.47
525.34	21.5
525.539	21.55
525.737	21.66
525.936	21.69
526.135	21.58
526.333	21.71
526.532	21.79
526.73	21.77
526.929	21.83
527.127	21.84
527.326	21.86
527.524	22
527.723	22.11
527.921	22.2
528.12	22.17
528.318	22.18
528.516	22.17
528.715	22.23
528.913	22.29
529.112	22.34
529.31	22.4
529.508	22.38
529.707	22.32
529.905	22.27
530.103	22.26
530.301	22.34
530.5	22.45
530.698	22.52
530.896	22.56
531.094	22.65
531.293	22.61
531.491	22.68
531.689	22.82
531.887	23.02
532.085	23.2
532.283	23.29
532.481	23.35
532.68	23.37
532.878	23.45
533.076	23.47
533.274	23.47
533.472	23.63
533.67	23.63
533.868	23.69
534.066	23.71
534.264	23.68
534.462	23.7
534.66	23.79
534.858	23.79
535.056	23.76
535.253	23.86
535.451	23.81
535.649	23.8
535.847	23.95
536.045	23.91
536.243	23.96
536.441	24
536.638	24.05
536.836	24.1
537.034	24.18
537.232	24.26
537.43	24.26
537.627	24.53
537.825	24.64
538.023	24.59
538.22	24.67
538.418	24.73
538.616	24.72
538.813	24.65
539.011	24.68
539.209	24.68
539.406	24.85
539.604	24.88
539.801	24.82
539.999	24.85
540.196	24.92
540.394	25
540.591	25.07
540.789	25.2
540.986	25.35
541.184	25.47
541.381	25.58
541.579	25.61
541.776	25.69
541.974	25.74
542.171	25.77
542.368	25.91
542.566	25.93
542.763	25.94
542.96	26.01
543.158	26.08
543.355	26.06
543.552	26.08
543.75	26.14
543.947	26.13
544.144	26.26
544.341	26.31
544.539	26.28
544.736	26.34
544.933	26.45
545.13	26.65
545.327	26.66
545.524	26.55
545.722	26.65
545.919	26.73
546.116	26.68
546.313	26.63
546.51	26.71
546.707	26.88
546.904	27.01
547.101	27.03
547.298	27
547.495	27.08
547.692	27.37
547.889	27.46
548.086	27.43
548.283	27.62
548.48	27.7
548.677	27.66
548.874	27.46
549.07	27.41
549.267	27.49
549.464	27.39
549.661	27.45
549.858	27.56
550.055	27.64
550.251	27.83
550.448	27.85
550.645	27.97
550.842	28.22
551.038	28.54
551.235	28.74
551.432	28.65
551.628	28.82
551.825	28.94
552.022	28.75
552.218	28.85
552.415	28.96
552.612	29.13
552.808	29.27
553.005	29.33
553.201	29.3
553.398	29.42
553.594	29.54
553.791	29.56
553.987	29.62
554.184	29.82
554.38	29.84
554.577	29.92
554.773	29.82
554.97	29.77
555.166	29.84
555.362	29.84
555.559	29.72
555.755	29.97
555.952	30.15
556.148	30.15
556.344	30.27
556.541	30.37
556.737	30.23
556.933	30.68
557.129	30.89
557.326	30.89
557.522	30.97
557.718	31.26
557.914	31.37
558.11	31.4
558.307	31.66
558.503	31.84
558.699	31.9
558.895	32.13
559.091	32.2
559.287	32.24
559.483	32.31
559.679	32.43
559.876	32.34
560.072	32.34
560.268	32.59
560.464	32.68
560.66	32.69
560.856	32.85
561.052	33.05
561.247	32.9
561.443	32.85
561.639	32.98
561.835	33.18
562.031	33.43
562.227	33.51
562.423	33.26
562.619	33.45
562.815	33.57
563.01	33.51
563.206	33.54
563.402	33.76
563.598	33.91
563.793	33.91
563.989	33.85
564.185	33.93
564.381	34.01
564.576	34.28
564.772	34.26
564.968	34.37
565.163	34.59
565.359	34.66
565.555	34.57
565.75	34.66
565.946	34.69
566.141	34.96
566.337	34.89
566.532	34.97
566.728	34.99
566.923	34.96
567.119	34.88
567.314	34.97
567.51	34.8
567.705	34.94
567.901	35.1
568.096	35.36
568.292	35.21
568.487	35.36
568.682	35.52
568.878	35.62
569.073	35.51
569.268	35.53
569.464	35.51
569.659	35.69
569.854	35.65
570.05	35.73
570.245	35.77
570.44	35.88
570.635	35.91
570.831	35.78
571.026	36.1
571.221	36.3
571.416	36.54
571.611	36.58
571.806	36.59
572.002	36.74
572.197	36.68
572.392	36.73
572.587	36.64
572.782	36.71
572.977	36.89
573.172	36.72
573.367	36.66
573.562	36.59
573.757	36.6
573.952	36.89
574.147	37.09
574.342	37.33
574.537	37.39
574.732	37.74
574.927	37.81
575.121	37.93
575.316	37.98
575.511	38.16
575.706	38.26
575.901	38.24
576.096	38.34
576.29	38.27
576.485	38.27
576.68	38.34
576.875	38.18
577.069	38.16
577.264	38.12
577.459	38.36
577.654	38.51
577.848	38.55
578.043	38.76
578.238	38.62
578.432	38.66
578.627	38.63
578.821	38.65
579.016	38.82
579.21	38.89
579.405	38.86
579.6	38.75
579.794	38.87
579.989	38.97
580.183	39.15
580.378	39.13
580.572	39.48
580.766	39.51
580.961	39.45
581.155	39.44
581.35	39.64
581.544	39.9
581.738	40
581.933	40.15
582.127	40.16
582.321	40.04
582.516	40.04
582.71	39.81
582.904	39.78
583.099	40.03
583.293	40.12
583.487	40.11
583.681	40.05
583.875	40.02
584.07	39.93
584.264	40.08
584.458	40.13
584.652	40.21
584.846	40.26
585.04	40.47
585.234	40.58
585.428	40.77
585.623	40.71
585.817	40.72
586.011	40.94
586.205	40.72
586.399	40.64
586.593	40.71
586.787	40.94
586.981	40.92
587.174	41.22
587.368	41.19
587.562	41.03
587.756	41.3
587.95	41.48
588.144	41.13
588.338	41.27
588.532	41.24
588.725	41.46
588.919	41.48
589.113	41.67
589.307	41.42
589.501	41.27
589.694	41.47
589.888	41.45
590.082	41.37
590.275	41.54
590.469	41.66
590.663	41.7
590.856	41.55
591.05	41.75
591.244	41.84
591.437	41.99
591.631	42.16
591.824	42.42
592.018	42.45
592.212	42.63
592.405	42.91
592.599	43.15
592.792	43.14
592.986	43.34
593.179	43.25
593.372	43.39
593.566	43.36
593.759	43.54
593.953	43.58
594.146	43.51
594.339	43.21
594.533	43.17
594.726	43.06
594.92	43.52
595.113	43.73
595.306	43.68
595.499	43.64
595.693	43.63
595.886	43.69
596.079	43.45
596.272	43.82
596.466	44.13
596.659	44.14
596.852	44.07
597.045	43.91
597.238	43.76
597.431	43.77
597.624	43.9
597.818	44.02
598.011	43.97
598.204	44.17
598.397	43.98
598.59	44.21
598.783	44.35
598.976	44.53
599.169	44.52
599.362	44.53
599.555	44.61
599.748	44.53
599.941	44.59
600.134	44.67
600.326	44.66
600.519	44.68
600.712	44.51
600.905	44.22
601.098	44.38
601.291	44.51
601.483	44.74
601.676	45
601.869	44.94
602.062	44.95
602.255	44.82
602.447	44.79
602.64	44.83
602.833	44.9
603.025	45.14
603.218	45.07
603.411	44.99
603.603	44.88
603.796	44.73
603.989	44.79
604.181	44.88
604.374	45.12
604.566	44.99
604.759	45.23
604.951	45.22
605.144	45.27
605.336	45.29
605.529	45.41
605.721	45.54
605.914	45.65
606.106	45.59
606.299	45.57
606.491	45.41
606.683	45.65
606.876	45.54
607.068	45.66
607.26	45.71
607.453	45.54
607.645	45.8
607.837	45.8
608.03	45.69
608.222	45.98
608.414	45.96
608.606	46.27
608.799	46.36
608.991	46.38
609.183	46.32
609.375	46.18
609.567	46.43
609.759	46.26
609.952	46.2
610.144	46.21
610.336	46.18
610.528	46.19
610.72	46.05
610.912	45.95
611.104	45.95
611.296	45.82
611.488	45.95
611.68	45.96
611.872	45.84
612.064	45.96
612.256	45.81
612.448	45.88
612.64	45.92
612.832	46.05
613.023	46.29
613.215	46.21
613.407	46.37
613.599	46.4
613.791	46.39
613.983	46.61
614.174	46.61
614.366	46.68
614.558	46.53
614.75	46.61
614.941	46.4
615.133	46.26
615.325	46.18
615.516	46.22
615.708	46.19
615.9	46.17
616.091	45.88
616.283	45.72
616.475	46.13
616.666	46.07
616.858	46.06
617.049	46.3
617.241	46.58
617.432	46.64
617.624	46.67
617.815	46.8
618.007	46.88
618.198	47.45
618.39	47.67
618.581	47.38
618.773	47.68
618.964	47.71
619.155	47.4
619.347	47.24
619.538	47.55
619.729	47.32
619.921	47.1
620.112	47.22
620.303	46.84
620.494	46.61
620.686	46.9
620.877	46.86
621.068	46.72
621.259	47.02
621.451	46.87
621.642	46.65
621.833	47.07
622.024	47.26
622.215	47.23
622.406	47.55
622.597	47.58
622.788	47.6
622.98	47.53
623.171	47.7
623.362	47.86
623.553	48.08
623.744	48.15
623.935	47.72
624.126	47.81
624.317	47.61
624.508	47.35
624.698	47.63
624.889	47.52
625.08	47.57
625.271	47.5
625.462	47.41
625.653	47.36
625.844	47.4
626.034	47.77
626.225	47.66
626.416	47.8
626.607	47.98
626.798	48.04
626.988	48.22
627.179	48.14
627.37	48.41
627.56	48.24
627.751	48.23
627.942	48.24
628.132	48.23
628.323	48.22
628.514	48.3
628.704	48.4
628.895	48.5
629.085	48.45
629.276	48.63
629.466	48.36
629.657	48.47
629.847	48.58
630.038	48.57
630.228	48.37
630.419	48.44
630.609	48.38
630.8	48.07
630.99	47.64
631.181	47.62
631.371	47.56
631.561	47.94
631.752	47.95
631.942	47.86
632.132	47.92
632.323	48.12
632.513	48.24
632.703	48.17
632.893	48.51
633.084	48.83
633.274	49.02
633.464	49.34
633.654	49.34
633.844	49.6
634.034	49.54
634.225	49.65
634.415	49.71
634.605	49.64
634.795	49.84
634.985	49.71
635.175	49.54
635.365	49.47
635.555	49.43
635.745	49.31
635.935	49.05
636.125	49.04
636.315	49.06
636.505	48.9
636.695	49.23
636.885	49.15
637.075	49.08
637.265	49.31
637.455	49.1
637.644	49.2
637.834	49.06
638.024	49.2
638.214	49.15
638.404	49.05
638.593	49.53
638.783	49.49
638.973	49.49
639.163	49.83
639.352	49.6
639.542	50.15
639.732	49.75
639.921	49.94
640.111	50.07
640.301	50.52
640.49	50.87
640.68	50.52
640.87	50.28
641.059	50.41
641.249	50.15
641.438	50.44
641.628	50.48
641.817	50.52
642.007	50.49
642.196	50.71
642.386	50.18
642.575	49.65
642.764	49.5
642.954	49.71
643.143	49.89
643.333	50.1
643.522	49.85
643.711	49.62
643.901	49.67
644.09	49.76
644.279	49.08
644.469	49.54
644.658	49.72
644.847	49.88
645.036	49.56
645.226	49.49
645.415	49.49
645.604	49.8
645.793	49.77
645.982	49.86
646.171	49.66
646.361	50.02
646.55	49.93
646.739	50.34
646.928	50.45
647.117	50.7
647.306	50.95
647.495	50.61
647.684	50.68
647.873	50.99
648.062	51.08
648.251	51.35
648.44	51.21
648.629	51.47
648.818	51.2
649.007	50.98
649.196	50.84
649.384	50.34
649.573	50.71
649.762	50.81
649.951	50.71
650.14	50.41
650.328	50.41
650.517	50.34
650.706	49.83
650.895	49.85
651.083	49.79
651.272	49.78
651.461	49.94
651.65	49.62
651.838	49.61
652.027	49.53
652.216	49.95
652.404	49.82
652.593	50.13
652.781	50.55
652.97	50.83
653.158	51.16
653.347	51.24
653.535	51.51
653.724	51.93
653.912	52.03
654.101	52.03
654.289	51.76
654.478	51.74
654.666	51.44
654.855	51.32
655.043	51.21
655.231	51.18
655.42	51.33
655.608	51
655.796	51.04
655.985	50.6
656.173	50.21
656.361	50.52
656.55	50.67
656.738	51.03
656.926	50.72
657.114	50.39
657.302	50.46
657.491	50.54
657.679	50.78
657.867	50.81
658.055	50.75
658.243	51.37
658.431	51.35
658.619	51.56
658.807	51.74
658.996	52.42
659.184	52.7
659.372	52.46
659.56	52.49
659.748	52.53
659.936	52.45
660.124	52.71
660.311	52.35
660.499	52.11
660.687	52.1
660.875	52.11
661.063	51.77
661.251	51.84
661.439	52.21
661.627	52.09
661.814	51.86
662.002	51.93
662.19	51.68
662.378	52.22
662.565	52.16
662.753	52.15
662.941	51.99
663.129	52.08
663.316	51.92
663.504	51.77
663.692	51.98
663.879	52.34
664.067	52.5
664.254	53.03
664.442	52.35
664.63	52.52
664.817	52.49
665.005	52.72
665.192	52.68
665.38	52.87
665.567	52.98
665.755	52.73
665.942	52.56
666.13	52.69
666.317	52.48
666.504	52.84
666.692	53.07
666.879	52.83
667.067	52.54
667.254	52.38
667.441	52.12
667.629	51.95
667.816	51.76
668.003	51.67
668.19	51.55
668.378	51.63
668.565	51.9
668.752	51.78
668.939	51.66
669.127	51.18
669.314	51.34
669.501	51.57
669.688	51.71
669.875	51.91
670.062	51.9
670.249	51.79
670.436	51.86
670.623	51.72
670.81	51.49
670.997	51.75
671.184	52.6
671.371	52.74
671.558	52.61
671.745	52.7
671.932	52.67
672.119	52.97
672.306	52.9
672.493	52.63
672.68	52.49
672.867	52.69
673.054	52.89
673.24	52.74
673.427	52.66
673.614	52.58
673.801	52.19
673.988	52.3
674.174	52.01
674.361	51.88
674.548	51.83
674.734	52.06
674.921	52.18
675.108	52
675.294	51.73
675.481	51.99
675.668	52.06
675.854	52.55
676.041	52.45
676.227	52.11
676.414	52.26
676.601	52.28
676.787	52.14
676.974	52.44
677.16	52.63
677.347	53.02
677.533	52.33
677.719	52.49
677.906	52.21
678.092	52.82
678.279	53.24
678.465	53.37
678.651	53.38
678.838	53.53
679.024	53.45
679.21	53.56
679.397	53.21
679.583	53.89
679.769	53.95
679.955	54.17
680.142	53.87
680.328	53.9
680.514	54.01
680.7	54.36
680.886	54.54
681.073	54.49
681.259	54.37
681.445	54.73
681.631	54.43
681.817	54.03
682.003	53.6
682.189	53.22
682.375	53.64
682.561	53.45
682.747	53.33
682.933	53.23
683.119	53.34
683.305	53.11
683.491	52.74
683.677	53.34
683.863	53.63
684.049	54.18
684.235	54.45
684.42	54.07
684.606	53.81
684.792	53.6
684.978	52.85
685.164	52.68
685.349	52.73
685.535	52.58
685.721	52.27
685.907	52.09
686.092	52.32
686.278	52.91
686.464	52.83
686.649	53.49
686.835	53.65
687.021	53.86
687.206	54
687.392	53.95
687.577	54.34
687.763	54.3
687.948	54.38
688.134	53.79
688.319	53.56
688.505	53.63
688.69	53.37
688.876	53.55
689.061	53.68
689.247	53.69
689.432	54.27
689.618	54.13
689.803	53.55
689.988	53.77
690.174	53.78
690.359	53.5
690.544	53.43
690.73	53.65
690.915	53.54
691.1	53.51
691.285	53.7
691.471	53.04
691.656	53.33
691.841	53.55
692.026	53.59
692.211	53.97
692.396	54.2
692.582	54.46
692.767	54.05
692.952	54.02
693.137	54.05
693.322	54.06
693.507	54.26
693.692	53.8
693.877	53.93
694.062	53.97
694.247	53.76
694.432	54.16
694.617	53.97
694.802	54.4
694.987	54.33
695.172	54.61
695.357	53.92
695.541	54.04
695.726	54.33
695.911	54.8
696.096	55.22
696.281	55.67
696.466	55.24
696.65	55.25
696.835	55.26
697.02	55.02
697.204	54.94
697.389	55.33
697.574	55.13
697.759	55.13
697.943	54.62
698.128	54.26
698.312	54.11
698.497	54.03
698.682	54.34
698.866	54.15
699.051	54.53
699.235	54.75
699.42	54.53
699.604	54.8
699.789	55
699.973	54.93
700.158	55.2
700.342	55.54
700.527	55.73
700.711	55.82
700.895	55.31
701.08	54.98
701.264	54.58
701.448	54.95
701.633	54.84
701.817	54.87
702.001	54.78
702.186	54.5
702.37	53.99
702.554	53.95
702.738	53.59
702.923	54.1
703.107	54.54
703.291	55.21
703.475	54.89
703.659	55.34
703.843	54.83
704.027	55.33
704.212	55
704.396	54.71
704.58	54.43
704.764	53.87
704.948	54.39
705.132	54.32
705.316	53.34
705.5	53.84
705.684	53.35
705.868	53.59
706.052	53.53
706.235	53.53
706.419	54.07
706.603	54.15
706.787	54.7
706.971	54.61
707.155	54.49
707.339	55.4
707.522	54.67
707.706	54.14
707.89	54.08
708.074	54.43
708.257	55.45
708.441	55.18
708.625	55.91
708.808	55.99
708.992	55.54
709.176	56.01
709.359	55.79
709.543	56.47
709.727	57.29
709.91	56.99
710.094	56.8
710.277	56.4
710.461	56.83
710.644	56.19
710.828	56.42
711.011	56.88
711.195	56.18
711.378	56.04
711.562	55.79
711.745	55.54
711.928	55.74
712.112	56.13
712.295	56.29
712.478	56.04
712.662	56.13
712.845	55.53
713.028	55.12
713.212	55.07
713.395	55.2
713.578	55.19
713.761	55.4
713.945	55.26
714.128	54.24
714.311	54.06
714.494	53.9
714.677	54.38
714.86	54.11
715.043	54.29
715.227	54.87
715.41	54.63
715.593	55.15
715.776	54.87
715.959	54.89
716.142	55.79
716.325	55.54
716.508	55.95
716.691	55.79
716.874	56.65
717.057	56.77
717.239	56.49
717.422	56.91
717.605	56.54
717.788	56.79
717.971	57.06
718.154	57.01
718.337	57.14
718.519	56.23
718.702	55.79
718.885	55.92
719.068	55.49
719.25	55.71
719.433	55.63
719.616	55.87
719.798	56.24
719.981	56.26
720.164	56.02
720.346	55.95
720.529	55.8
720.712	56.05
720.894	55.24
721.077	55.6
721.259	55.1
721.442	54.62
721.624	54.56
721.807	53.72
721.989	53.7
722.172	53.59
722.354	53.58
722.537	54.64
722.719	54.17
722.901	54.68
723.084	55.74
723.266	55.74
723.448	55.44
723.631	54.99
723.813	55.44
723.995	55.05
724.178	55.06
724.36	54.94
724.542	54.74
724.724	54.65
724.907	54.35
725.089	53.09
725.271	53.97
725.453	54.49
725.635	55.09
725.817	54.67
725.999	54.97
726.181	54.95
726.364	55.41
726.546	55.12
726.728	55.27
726.91	55.72
727.092	56.54
727.274	56.17
727.456	56.56
727.638	56.12
727.819	56.64
728.001	56.33
728.183	56.11
728.365	55.91
728.547	55.94
728.729	56.18
728.911	56.2
729.093	56.02
729.274	56.06
729.456	55.21
729.638	55.05
729.82	54.96
730.001	55.91
730.183	56.18
730.365	55.75
730.546	55.57
730.728	55.4
730.91	55.33
731.091	54.57
731.273	54.35
731.455	55
731.636	55.44
731.818	55.23
731.999	54.68
732.181	54.99
732.362	55.19
732.544	55.76
732.725	55.55
732.907	54.91
733.088	55.46
733.27	55.04
733.451	54.8
733.633	54.61
733.814	54.5
733.995	54.52
734.177	54.42
734.358	54.19
734.539	54.28
734.721	55.43
734.902	55.9
735.083	56.11
735.264	57.13
735.446	57.38
735.627	57.02
735.808	56.81
735.989	56.52
736.17	55.73
736.351	56.61
736.533	55.9
736.714	55.59
736.895	55.41
737.076	55.48
737.257	54.32
737.438	54.97
737.619	55.16
737.8	55.15
737.981	56.01
738.162	57.43
738.343	57.31
738.524	58.09
738.705	57.45
738.886	57.42
739.067	56.42
739.247	56.55
739.428	55.62
739.609	56.15
739.79	56.5
739.971	55.78
740.151	55.42
740.332	55.02
740.513	55.22
740.694	55.21
740.874	55.72
741.055	56.64
741.236	56.35
741.417	56.65
741.597	56.69
741.778	56.09
741.958	56.79
742.139	56.89
742.32	57.55
742.5	56.76
742.681	58.06
742.861	58.45
743.042	57.59
743.222	58.21
743.403	59.31
743.583	59.22
743.764	60.21
743.944	59.59
744.124	59.6
744.305	58.98
744.485	59.37
744.666	58.19
744.846	57.26
745.026	58.4
745.207	58.63
745.387	57.18
745.567	56.61
745.747	56.24
745.928	56.52
746.108	56.21
746.288	56.64
746.468	57.19
746.648	56.32
746.829	57.21
747.009	56.67
747.189	56.5
747.369	56.52
747.549	56.72
747.729	56.42
747.909	56.6
748.089	56.56
748.269	55.59
748.449	54.85
748.629	56.28
748.809	55.84
748.989	56.65
749.169	56.62
749.349	56.74
749.529	56.86
749.709	56.72
749.889	57.16
750.068	57.31
750.248	57.47
750.428	57.82
750.608	56.72
750.788	56.15
750.967	55.8
751.147	56.05
751.327	55.82
751.507	56.27
751.686	56.72
751.866	55.65
752.046	55.22
752.225	55.56
752.405	56.01
752.585	56.39
752.764	56.51
752.944	55.92
753.123	56.11
753.303	56.04
753.482	56.29
753.662	55.8
753.841	56.76
754.021	56.92
754.2	56.93
754.38	56.16
754.559	56.12
754.739	55.95
754.918	56.6
755.097	55.68
755.277	55.6
755.456	54.49
755.635	55.25
755.815	54.47
755.994	53.49
756.173	53.34
756.352	52.95
756.532	53.33
756.711	54.24
756.89	53.72
757.069	53.91
757.248	54.81
757.427	54.86
757.607	54.25
757.786	54.1
757.965	55.18
758.144	56.61
758.323	56.21
758.502	55.93
758.681	55.39
758.86	56.06
759.039	55.93
759.218	55.45
759.397	55.25
759.576	55.61
759.755	55.43
759.934	55.45
760.113	54.14
760.291	54.75
760.47	55.25
760.649	55.55
760.828	55.34
761.007	55.54
761.186	56.05
761.364	56.02
761.543	55.55
761.722	55.25
761.901	54.9
762.079	55.09
762.258	55.11
762.437	54.66
762.615	55
762.794	54.92
762.972	55.04
763.151	54.92
763.33	55.35
763.508	55.75
763.687	56.97
763.865	57.49
764.044	56.83
764.222	56.77
764.401	56.97
764.579	56.56
764.758	56.16
764.936	56.72
765.114	56.57
765.293	56.46
765.471	56.32
765.65	56.05
765.828	55.21
766.006	56.11
766.184	56.52
766.363	56.48
766.541	56.91
766.719	57.34
766.898	57.21
767.076	57.05
767.254	57.47
767.432	57.18
767.61	56.28
767.788	55.64
767.967	55.49
768.145	55.98
768.323	56.58
768.501	55.54
768.679	55.07
768.857	54.63
769.035	54.31
769.213	52.59
769.391	53.73
769.569	53.44
769.747	55.16
769.925	55.19
770.103	54.55
770.281	53.75
770.459	55.14
770.636	55.93
770.814	56.66
770.992	56.5
771.17	57.58
771.348	55.22
771.525	55.58
771.703	54.58
771.881	54.63
772.059	53.26
772.236	52.39
772.414	52.33
772.592	51.84
772.769	51.46
772.947	51.93
773.125	51.54
773.302	52.86
773.48	53.26
773.657	53.86
773.835	53.7
774.013	54.53
774.19	55.73
774.368	54.76
774.545	55.04
774.723	54.87
774.9	55.46
775.077	57
775.255	56.23
775.432	57.68
775.61	59.44
775.787	57.26
775.964	59.11
776.142	59.85
776.319	61.17
776.496	61.02
776.674	60.87
776.851	59.37
777.028	58.19
777.205	59.92
777.382	58.96
777.56	57.61
777.737	60.15
777.914	59.12
778.091	58.27
778.268	55.81
778.445	55.91
778.622	55.66
778.8	56.42
778.977	56.88
779.154	57.45
779.331	58.37
779.508	57.29
779.685	56.71
779.862	56.61
780.038	56
780.215	58.55
780.392	58.99
780.569	58.38
780.746	58.83
780.923	57.58
781.1	56.69
781.277	55.54
781.453	56.45
781.63	55.13
781.807	55.95
781.984	56.22
782.16	56.7
782.337	54.17
782.514	54.68
782.691	53.91
782.867	55.53
783.044	55.97
783.221	55.5
783.397	56.03
783.574	57.25
783.75	55.95
783.927	57.12
784.103	55.29
784.28	55.77
784.456	55.86
784.633	56.57
784.809	58.37
784.986	57.88
785.162	58.46
785.339	58.84
785.515	59.84
785.692	59.48
785.868	59.22
786.044	60.07
786.221	63.43
786.397	65.35
786.573	63.66
786.749	61.56
786.926	60.95
787.102	61.92
787.278	61.07
787.454	59.27
787.631	56.74
787.807	56.47
787.983	54.61
788.159	53.02
788.335	51.62
788.511	50.3
788.687	49.78
788.863	49.94
789.039	49.7
789.216	50.01
789.392	50.4
789.568	52.94
789.744	51.75
789.919	52.92
790.095	54.27
790.271	53.96
790.447	56.35
790.623	57.24
790.799	57.68
790.975	57.4
791.151	56.22
791.327	58.05
791.502	56.32
791.678	58.23
791.854	57.91
792.03	56.14
792.205	56.98
792.381	57.18
792.557	57.46
792.733	57.78
792.908	57.73
793.084	58.13
793.259	56.53
793.435	58.68
793.611	57.49
793.786	57.9
793.962	57.13
794.137	56.54
794.313	55.58
794.488	56.83
794.664	57.36
794.839	56.48
795.015	58.49
795.19	58.09
795.366	58.43
795.541	59.28
795.716	56.78
795.892	57.3
796.067	56.64
796.242	58.31
796.418	56.72
796.593	57.92
796.768	59.11
796.944	58.09
797.119	60.18
797.294	61.87
797.469	62.06
797.644	65.58
797.82	65.98
797.995	65.51
798.17	65.58
798.345	67.55
798.52	65.1
798.695	64.24
798.87	63.88
799.045	62.31
799.22	60.78
799.395	59.29
799.57	58.54
799.745	57.84
799.92	61.31
800.095	61.71
800.27	60.55
800.445	59.86
800.62	60.24
800.795	59.96
800.97	59.45
801.145	58.99
801.319	59.23
801.494	56.55
801.669	57.08
801.844	55.26
802.018	55.53
802.193	54.67
802.368	55.64
802.543	54.61
802.717	55.78
802.892	56.2
803.067	55.64
803.241	55.65
803.416	57.37
803.59	57.73
803.765	57.02
803.94	54.14
804.114	52.26
804.289	53.73
804.463	53.59
804.638	53.39
804.812	53.09
804.986	53.7
805.161	53.46
805.335	54.96
805.51	54.87
805.684	55.34
805.858	55.67
806.033	57.39
806.207	56.22
806.381	57.84
806.556	58.57
806.73	59.24
806.904	59.25
807.078	60.77
807.253	60.98
807.427	62.04
807.601	63.37
807.775	63.84
807.949	65.6
808.123	66.5
808.298	64.13
808.472	61.39
808.646	61.05
808.82	60.91
808.994	58.64
809.168	57.49
809.342	55.98
809.516	53.33
809.69	55.08
809.864	52.37
810.038	49.35
810.212	50.93
810.385	51.83
810.559	52.66
810.733	53.43
810.907	52.2
811.081	51.29
811.255	54.45
811.428	54.96
811.602	53.56
811.776	53.73
811.95	52.34
812.123	50.87
812.297	49.98
812.471	51.06
812.644	51.09
812.818	56.27
812.992	57.79
813.165	54.31
813.339	51.63
813.512	51.54
813.686	52.17
813.86	56.62
814.033	59.18
814.207	58.3
814.38	54.83
814.554	53.33
814.727	49.67
814.9	49.06
815.074	49.56
815.247	53.8
815.421	53.61
815.594	54.68
815.767	53.35
815.941	51.92
816.114	54.96
816.287	56.56
816.46	57.15
816.634	56.77
816.807	57.77
816.98	60.02
817.153	56.4
817.327	55.76
817.5	54.09
817.673	55.45
817.846	56.56
818.019	57.66
818.192	58.99
818.365	59.65
818.538	60.84
818.711	61
818.884	58.11
819.057	61.52
819.23	63.51
819.403	65.54
819.576	64.71
819.749	63.02
819.922	63.55
820.095	61.57
820.268	58.66
820.441	58.53
820.614	58.18
820.786	58.07
820.959	58.93
821.132	58.77
821.305	57.16
821.477	56.99
821.65	57.12
821.823	56.19
821.996	56.44
822.168	57.29
822.341	57.33
822.514	56.96
822.686	56.34
822.859	55.87
823.031	55.63
823.204	55.47
823.376	55.21
823.549	55.35
823.722	55.4
823.894	55.62
824.067	55.04
824.239	54.95
824.411	55.24
824.584	55.81
824.756	55.74
824.929	55.59
825.101	55.79
825.273	56.01
825.446	55.89
825.618	55.29
825.79	55.89
825.963	56.97
826.135	57.39
826.307	56.76
826.479	57.09
826.652	57.19
826.824	57.07
826.996	57.79
827.168	57.44
827.34	57.73
827.512	58.05
827.684	57.39
827.856	56.64
828.029	55.67
828.201	56.23
828.373	55.63
828.545	55.56
828.717	55.92
828.889	55.19
829.061	55.4
829.232	54.44
829.404	55.33
829.576	54.61
829.748	55.14
829.92	56.27
830.092	56.02
830.264	57.07
830.436	55.54
830.607	56.67
830.779	56.85
830.951	56.68
831.123	58.33
831.294	57.76
831.466	58.56
831.638	57.87
831.809	56.79
831.981	56.58
832.153	55.98
832.324	57.41
832.496	55.97
832.667	55.38
832.839	58.48
833.011	57.06
833.182	55.24
833.354	53.78
833.525	54.51
833.697	55.37
833.868	53.25
834.039	53.56
834.211	51.58
834.382	50.16
834.554	50.35
834.725	50.15
834.896	48.26
835.068	48.88
835.239	49.31
835.41	48.83
835.581	49.2
835.753	50.12
835.924	49.66
836.095	51.03
836.266	51.31
836.438	51.17
836.609	49.06
836.78	50.37
836.951	51.77
837.122	52
837.293	51.46
837.464	50.71
837.635	52.52
837.806	52.51
837.977	52.16
838.148	54.04
838.319	53.99
838.49	53.63
838.661	52.7
838.832	51.91
839.003	50.34
839.174	51.33
839.345	51.19
839.516	49.03
839.687	48.26
839.857	51.13
840.028	50.36
840.199	50.79
840.37	50.61
840.54	53.75
840.711	53.23
840.882	57.12
841.053	57.15
841.223	52.91
841.394	57.24
841.564	58.38
841.735	53.16
841.906	54.44
842.076	52.74
842.247	54.33
842.417	55.02
842.588	57.64
842.758	57.77
842.929	56.2
843.099	60.29
843.27	58.99
843.44	60.09
843.611	61.32
843.781	63.36
843.951	64.35
844.122	65.07
844.292	62.71
844.462	59.28
844.633	60.17
844.803	56.77
844.973	59.44
845.144	58.71
845.314	56.39
845.484	62.68
845.654	56.89
845.824	69.18
845.995	64.94
846.165	68.68
846.335	64.99
846.505	56.95
846.675	57.43
846.845	53.65
847.015	47.94
847.185	46.32
847.355	40.93
847.525	46.85
847.695	32.36
847.865	38.7
848.035	33.85
848.205	36.45
848.375	35.27
848.545	38.01
848.715	41.74
848.884	44.2
849.054	46.15
849.224	50.11
849.394	43.67
849.564	52.81
849.733	54.79
849.903	49.49
850.073	54.25
850.243	63.64
850.412	61
850.582	54.33
850.752	58.81
850.921	53.85
851.091	60.94
851.26	66.4
851.43	61.77
851.599	52.22
851.769	69.72
851.939	75.28
852.108	77.07
852.278	81.49
852.447	73.65
852.616	67.24
852.786	66.06
852.955	74.6
853.125	77.08
853.294	79.59
853.463	87.32
853.633	81.02
853.802	85.5
853.971	82.78
854.141	82.28
854.31	84.98
854.479	83.45
854.648	88.82
854.818	77.2
854.987	73.01
855.156	75.66
855.325	71.41
855.494	77.1
855.663	70.27
855.832	62.76
856.001	65.41
856.171	72.24
856.34	66.02
856.509	67.15
856.678	65.5
856.847	58.99
857.016	61.69
857.185	57.56
857.353	54.29
857.522	45.46
857.691	44.93
857.86	44.81
858.029	43.16
858.198	41
858.367	35.97
858.535	28.4
858.704	30.17
858.873	33.21
859.042	33.88
859.21	32.26
859.379	39.09
859.548	41.83
859.717	44.97
859.885	46.9
860.054	57.81
860.222	65.25
860.391	76.6
860.56	88.8
860.728	78.73
860.897	79.88
861.065	76.02
861.234	80.56
861.402	73.54
861.571	68.1
861.739	66.55
861.908	67.26
862.076	75.01
862.244	61.26
862.413	62.95
862.581	65.88
862.749	61.84
862.918	64.57
863.086	66.7
863.254	81.25
863.423	84.22
863.591	85.46
863.759	95.85
863.927	93.1
864.096	104.89
864.264	86.98
864.432	79.88
864.6	76.84
864.768	77.14
864.936	69.63
865.104	54.52
865.272	53.72
865.44	50.7
865.608	45.58
865.776	42.55
865.944	44.46
866.112	48.28
866.28	40.24
866.448	47.76
866.616	45.3
866.784	45.62
866.952	41.07
867.12	38.02
867.288	29.5
867.455	30.01
867.623	31.86
867.791	29.18
867.959	31.37
868.127	44.86
868.294	40.9
868.462	45.34
868.63	48.19
868.797	54.92
868.965	55.02
869.133	68.71
869.3	72.3
869.468	65.78
869.636	62.34
869.803	61.6
869.971	56.49
870.138	56.59
870.306	55.16
870.473	52.14
870.641	53.71
870.808	62.04
870.975	51.04
871.143	44.51
871.31	48.74
871.478	54.06
871.645	51.61
871.812	44.61
871.98	49.68
872.147	45.13
872.314	45
872.482	37.21
872.649	24.67
872.816	27.17
872.983	33.32
873.15	38.31
873.318	42.24
873.485	45.87
873.652	59.21
873.819	50.71
873.986	44.95
874.153	46.73
874.32	55.6
874.487	58.4
874.654	63.12
874.821	56.95
874.988	50.17
875.155	49.03
875.322	48.1
875.489	40.35
875.656	41.04
875.823	51.44
875.99	47.79
876.157	51.27
876.324	50.63
876.49	49.33
876.657	53.7
876.824	57.83
876.991	62.41
877.157	65.34
877.324	69.41
877.491	73.42
877.658	63.78
877.824	60.23
877.991	52.19
878.157	49.71
878.324	47.34
878.491	44.62
878.657	42.88
878.824	47.64
878.99	44.11
879.157	40.34
879.323	36.13
879.49	38.21
879.656	49.74
879.823	51.71
879.989	54.71
880.156	54.86
880.322	56.35
880.488	48.26
880.655	40.51
880.821	51.96
880.987	50.67
881.154	51.59
881.32	55.22
881.486	50.49
881.652	52.84
881.819	52.15
881.985	52.26
882.151	52.53
882.317	56.18
882.483	54.75
882.649	53.04
882.816	54.29
882.982	53.98
883.148	54.41
883.314	53.87
883.48	53.97
883.646	52.47
883.812	53.1
883.978	53.32
884.144	53.01
884.31	53.75
884.476	51.66
884.642	51.53
884.807	51.26
884.973	50.79
885.139	52.39
885.305	51.8
885.471	53.6
885.637	52.01
885.802	52.2
885.968	51.94
886.134	51.73
886.3	54.79
886.465	53.53
886.631	53.39
886.797	54.75
886.962	51.19
887.128	49.79
887.293	50.99
887.459	53.71
887.625	55.13
887.79	57.66
887.956	58.21
888.121	55.25
888.287	60.31
888.452	64.2
888.618	60.79
888.783	66.24
