Data from LC_207__Reflection_1.txt Node
Date: Thu Nov 19 11:51:24 EST 2015
User: robert
Spectrometer: USB4E03001
Autoset integration time: false
Trigger mode: 4
Integration Time (sec): 1.000000E-1
Scans to average: 15
Electric dark correction enabled: true
Nonlinearity correction enabled: false
Boxcar width: 5
Stray light correction enabled: false
XAxis mode: Wavelengths
Stop averaging: false
Number of Pixels in Spectrum: 3648
>>>>>Begin Spectral Data<<<<<
177.566	89.71
177.785	66.19
178.005	63.65
178.225	74.63
178.445	75.81
178.665	56.36
178.885	215.66
179.105	129.71
179.324	110.92
179.544	114.84
179.764	105.82
179.984	121.36
180.204	117.76
180.423	126.28
180.643	154.38
180.863	176.26
181.083	221.17
181.302	4164.94
181.522	-281.26
181.742	-12.54
181.961	13.46
182.181	31.02
182.401	39
182.621	69.91
182.84	71.82
183.06	69.19
183.279	82.59
183.499	61.41
183.719	69.92
183.938	81.48
184.158	79.86
184.377	93.85
184.597	126.36
184.816	83.33
185.036	17.34
185.256	27.19
185.475	-237.8
185.695	-249.72
185.914	-482.05
186.134	-573.53
186.353	817.16
186.572	-3440.61
186.792	-209.73
187.011	-661.52
187.231	-230.78
187.45	-524.25
187.67	-579.88
187.889	-69.39
188.108	-42.11
188.328	-30.17
188.547	-75.15
188.766	-46.76
188.986	-1705.85
189.205	735.57
189.424	3721.09
189.644	175.58
189.863	69.88
190.082	-51.62
190.302	-185.98
190.521	-167.46
190.74	-127.87
190.959	-40.07
191.178	-532.02
191.398	-21.19
191.617	-184.88
191.836	-256.35
192.055	-122.2
192.274	1612.08
192.494	670.44
192.713	465.03
192.932	406.31
193.151	317.76
193.37	576.89
193.589	351.2
193.808	250.29
194.027	180.99
194.246	277.65
194.465	455.27
194.685	6572.17
194.904	1413.82
195.123	3094.66
195.342	-423.44
195.561	-111.76
195.78	-166.11
195.999	-185.93
196.218	-57.75
196.436	-22.07
196.655	-46.22
196.874	-43.14
197.093	-18.76
197.312	-36.1
197.531	-61.23
197.75	-80.18
197.969	-58.48
198.188	-115.22
198.407	-71.06
198.625	-81.66
198.844	-60.3
199.063	8.71
199.282	-741.06
199.501	-102.25
199.719	-88.15
199.938	-65.19
200.157	-67.66
200.376	1458.02
200.594	692.96
200.813	6439.01
201.032	989.33
201.251	1203.76
201.469	404.9
201.688	991.85
201.907	457.41
202.125	344.87
202.344	325.72
202.563	317.51
202.781	1082.01
203	937.1
203.218	340.05
203.437	263.7
203.656	817.98
203.874	-635.96
204.093	-3042.8
204.311	-6345.28
204.53	-463.09
204.748	-271.87
204.967	2837.5
205.185	227.28
205.404	-1.32
205.622	85.4
205.841	111.11
206.059	190.2
206.278	89.89
206.496	67.71
206.715	74.8
206.933	55.57
207.151	48.77
207.37	35.35
207.588	16.93
207.806	20.42
208.025	-14.81
208.243	-0.44
208.461	-167.97
208.68	-361.28
208.898	-40.29
209.116	-103.77
209.335	2089.22
209.553	358.87
209.771	36209.09
209.989	305.42
210.208	-2326.39
210.426	-217.14
210.644	-73.69
210.862	-52.4
211.081	-82.26
211.299	-152.24
211.517	-97.99
211.735	-101.54
211.953	-63.34
212.171	-64.39
212.39	-66.31
212.608	-91
212.826	-85.54
213.044	-115.97
213.262	-74.67
213.48	-52.9
213.698	-36.14
213.916	-24.38
214.134	-12.45
214.352	-32.15
214.57	-30.62
214.788	-7.79
215.006	1.28
215.224	-15.29
215.442	-47.66
215.66	-22.4
215.878	-18.28
216.096	-13.96
216.314	-37.74
216.532	-59.04
216.75	-27.89
216.968	-31.51
217.185	-31.39
217.403	-33.19
217.621	-2.53
217.839	17.97
218.057	9.32
218.275	0.92
218.492	-25.48
218.71	-42.46
218.928	-32.88
219.146	-53.95
219.363	-35.97
219.581	-45.63
219.799	-74.66
220.017	-103.74
220.234	-141.51
220.452	-129.52
220.67	-212.19
220.887	-34.11
221.105	-0.45
221.323	-4.27
221.54	-26.88
221.758	-36.52
221.976	-70.08
222.193	-5.63
222.411	-14.51
222.629	-3.63
222.846	-63.87
223.064	-40.91
223.281	-91.21
223.499	-82.59
223.716	-88.86
223.934	-56.3
224.151	-38.01
224.369	-45.51
224.586	-31.42
224.804	-16.85
225.021	0.04
225.239	-8.16
225.456	-6.38
225.674	-11.61
225.891	-23.01
226.108	-9.58
226.326	-10.71
226.543	-8.23
226.76	-2.55
226.978	-9.62
227.195	-13.65
227.413	-16.42
227.63	-7.21
227.847	-5.94
228.064	-2.02
228.282	2.71
228.499	-0.06
228.716	4.32
228.934	3.5
229.151	4.99
229.368	5.74
229.585	5.86
229.802	5.33
230.02	6.4
230.237	5.79
230.454	4.29
230.671	4.28
230.888	4.19
231.105	2.04
231.323	-1.87
231.54	-2.82
231.757	-5.19
231.974	-1.67
232.191	-2.09
232.408	-1.19
232.625	2.11
232.842	-3.46
233.059	-1.23
233.276	1.78
233.493	1.24
233.71	4.81
233.927	9.11
234.144	12.71
234.361	11.14
234.578	13.23
234.795	13.21
235.012	12.21
235.229	17.51
235.446	15.34
235.663	15.48
235.879	12.93
236.096	15.19
236.313	10.24
236.53	12.29
236.747	14.73
236.964	11.35
237.181	11.95
237.397	13.06
237.614	15.9
237.831	16.73
238.048	17.84
238.264	21.28
238.481	20.97
238.698	17.36
238.915	18.75
239.131	18.96
239.348	17.2
239.565	14.13
239.781	14.8
239.998	11.58
240.215	13.38
240.431	12.04
240.648	13.37
240.865	10.41
241.081	11.86
241.298	9.35
241.514	8.82
241.731	7.97
241.947	7.78
242.164	7.14
242.38	7.68
242.597	5.57
242.814	6.74
243.03	5.37
243.246	6.99
243.463	6.92
243.679	5.65
243.896	4.99
244.112	5.12
244.329	7.03
244.545	6.38
244.762	6.75
244.978	9.45
245.194	7.21
245.411	6.67
245.627	5.89
245.843	6.41
246.06	6.55
246.276	7.22
246.492	7.62
246.709	7.2
246.925	6.57
247.141	6.38
247.357	6.47
247.574	7.25
247.79	7.86
248.006	7.79
248.222	7.65
248.439	8.74
248.655	9.01
248.871	8.8
249.087	8.36
249.303	9.38
249.519	10.09
249.736	9.84
249.952	10.69
250.168	10.52
250.384	10.45
250.6	12.05
250.816	9.81
251.032	9.99
251.248	11.11
251.464	10.67
251.68	10.68
251.896	9.43
252.112	9.44
252.328	7.5
252.544	6.39
252.76	8.34
252.976	6.97
253.192	7.71
253.408	6.27
253.624	5.84
253.84	4.94
254.056	1.25
254.272	-0.37
254.487	-0.83
254.703	-0.23
254.919	1.04
255.135	-1.48
255.351	-1.12
255.567	-2.59
255.782	-3.44
255.998	-4.43
256.214	-0.51
256.43	4.71
256.646	6.27
256.861	5.52
257.077	6.61
257.293	5.17
257.508	5.35
257.724	6.04
257.94	5.82
258.155	6.54
258.371	7.39
258.587	7.05
258.802	5.8
259.018	7.01
259.234	6.45
259.449	5.85
259.665	5.86
259.88	5.7
260.096	5.99
260.312	7.33
260.527	7.31
260.743	6.79
260.958	6.89
261.174	6.99
261.389	5.88
261.605	6.01
261.82	5.92
262.036	5.74
262.251	6.23
262.466	5.53
262.682	3.62
262.897	2.68
263.113	3.07
263.328	3.44
263.543	4.74
263.759	4.94
263.974	5.45
264.189	4.87
264.405	5.18
264.62	4.49
264.835	3.78
265.051	4.57
265.266	4.53
265.481	3.87
265.696	1.4
265.912	1.3
266.127	1.77
266.342	1.2
266.557	1.24
266.773	1.96
266.988	2.04
267.203	2.83
267.418	1.72
267.633	3.05
267.848	3.64
268.064	4.17
268.279	4.03
268.494	3.55
268.709	2.99
268.924	2.83
269.139	3.06
269.354	3.87
269.569	3.15
269.784	4.4
269.999	3.63
270.214	3.16
270.429	2.61
270.644	1.64
270.859	2.81
271.074	3.62
271.289	5.39
271.504	5.68
271.719	5.34
271.934	5.68
272.149	5.63
272.363	5.79
272.578	5.72
272.793	6.03
273.008	6.86
273.223	6.31
273.438	6.32
273.653	6
273.867	5.63
274.082	5.99
274.297	6.64
274.512	7.55
274.726	7.18
274.941	8.67
275.156	8.64
275.371	7.63
275.585	8.22
275.8	8.87
276.015	9.3
276.229	8.26
276.444	7.73
276.659	7.64
276.873	5.97
277.088	6.47
277.302	4.87
277.517	5.1
277.732	4.76
277.946	5.03
278.161	5.28
278.375	2.56
278.59	2.42
278.804	3.54
279.019	1.88
279.233	2.79
279.448	2.12
279.662	2.3
279.877	2.41
280.091	3.48
280.306	3.59
280.52	2.23
280.735	3.9
280.949	4.37
281.163	2.52
281.378	2.12
281.592	2.5
281.806	4.6
282.021	5.44
282.235	6.55
282.449	6.94
282.664	6.38
282.878	5.8
283.092	6.46
283.307	7.92
283.521	9.05
283.735	9.51
283.949	9.17
284.164	8.01
284.378	8.4
284.592	7.23
284.806	6.59
285.02	6.52
285.234	8.34
285.449	8.65
285.663	7.71
285.877	7.36
286.091	7.11
286.305	6.46
286.519	6.01
286.733	6.01
286.947	6.59
287.161	5.94
287.375	6.57
287.589	5.87
287.803	4.39
288.017	4.68
288.231	4.23
288.445	5.14
288.659	5.26
288.873	5.64
289.087	5.14
289.301	5.33
289.515	7.33
289.729	6.64
289.943	6.3
290.157	6.47
290.371	5.6
290.584	5.72
290.798	5.85
291.012	6.17
291.226	6.48
291.44	6.29
291.654	5.74
291.867	3.96
292.081	4.22
292.295	5.05
292.509	5.2
292.722	4.91
292.936	4.55
293.15	4.7
293.364	4.61
293.577	4.62
293.791	4.71
294.005	4.77
294.218	5.79
294.432	5.45
294.645	4.01
294.859	4.94
295.073	6.17
295.286	6.92
295.5	6.41
295.713	7.09
295.927	7.5
296.14	6.89
296.354	6.8
296.568	6.7
296.781	7.17
296.994	7.68
297.208	7.28
297.421	6.97
297.635	6.49
297.848	6.72
298.062	6.21
298.275	5.71
298.489	6.46
298.702	6.72
298.915	5.98
299.129	5.96
299.342	7.09
299.555	7.09
299.769	6.94
299.982	6.99
300.195	6.87
300.409	7.24
300.622	7.63
300.835	7.45
301.048	7.22
301.262	7.4
301.475	6.8
301.688	5.59
301.901	4.97
302.115	5.89
302.328	5.81
302.541	4.93
302.754	4.86
302.967	4.38
303.18	5.02
303.393	5.57
303.607	6.6
303.82	6.93
304.033	6.6
304.246	7.91
304.459	7.83
304.672	7.18
304.885	9.83
305.098	9.71
305.311	9.9
305.524	9.3
305.737	8.48
305.95	7.93
306.163	8.25
306.376	8.9
306.589	7.86
306.802	7.67
307.015	7.54
307.228	5.68
307.44	5.82
307.653	5.06
307.866	5.28
308.079	6.43
308.292	6.52
308.505	7.2
308.718	6.97
308.93	6.72
309.143	6.64
309.356	7.38
309.569	7.76
309.781	7.44
309.994	7.63
310.207	7.83
310.42	7.38
310.632	7.42
310.845	6.48
311.058	6.7
311.27	6.57
311.483	7.06
311.696	6.67
311.908	6.72
312.121	7.25
312.333	7.68
312.546	7.17
312.759	7.09
312.971	7.51
313.184	8.22
313.396	8.62
313.609	8.78
313.821	8.42
314.034	9.45
314.246	8.6
314.459	8.66
314.671	7.8
314.884	7.48
315.096	7.78
315.309	8.12
315.521	7.56
315.733	6.99
315.946	7.37
316.158	7.35
316.371	6.89
316.583	8.38
316.795	6.85
317.008	6.72
317.22	7.1
317.432	6.7
317.644	5.86
317.857	5.4
318.069	4.89
318.281	3.75
318.494	3.02
318.706	3.99
318.918	2.98
319.13	3.3
319.342	4.82
319.555	4.99
319.767	4.65
319.979	4.83
320.191	4.67
320.403	4.99
320.615	6.04
320.827	6.63
321.039	6.82
321.252	7.65
321.464	8.28
321.676	7.59
321.888	7.34
322.1	8.66
322.312	8.74
322.524	10.29
322.736	10.14
322.948	10.34
323.16	10.92
323.372	10.22
323.584	10.08
323.796	9.07
324.007	9.14
324.219	9.45
324.431	8.56
324.643	7.76
324.855	7.1
325.067	8.07
325.279	7.75
325.491	7.05
325.702	6.07
325.914	5.7
326.126	6.49
326.338	5.74
326.55	5.93
326.761	6.27
326.973	7.17
327.185	6.26
327.396	5.12
327.608	5.44
327.82	5.74
328.032	6.63
328.243	5.14
328.455	5.68
328.666	6.24
328.878	5.59
329.09	5.27
329.301	4.91
329.513	4.39
329.725	5.44
329.936	6.38
330.148	5.65
330.359	6.12
330.571	8.05
330.782	8.12
330.994	9.28
331.205	9.15
331.417	7.01
331.628	6.83
331.84	7.96
332.051	7.42
332.262	6.48
332.474	7.21
332.685	5.82
332.897	5.23
333.108	4.39
333.319	2.66
333.531	1.73
333.742	4.53
333.953	4.54
334.165	4.16
334.376	4.15
334.587	4.21
334.799	4.41
335.01	5.36
335.221	6.14
335.432	6.13
335.644	6.3
335.855	7.46
336.066	7.32
336.277	8.35
336.488	8.4
336.7	9.19
336.911	9.44
337.122	8.41
337.333	7.7
337.544	7.33
337.755	7.32
337.966	8.65
338.177	8.34
338.388	7.6
338.599	6.58
338.811	7.18
339.022	5.87
339.233	5.48
339.444	6.29
339.655	6.91
339.866	6.87
340.076	7.05
340.287	6.25
340.498	6.3
340.709	6.29
340.92	6.52
341.131	6.64
341.342	6.9
341.553	6.46
341.764	5.52
341.975	6.97
342.185	6.49
342.396	6.42
342.607	5.91
342.818	6.88
343.029	6.77
343.239	7.13
343.45	6.01
343.661	6.62
343.872	7.48
344.082	8.06
344.293	7.09
344.504	7.33
344.714	8.45
344.925	8.59
345.136	7.86
345.346	8.52
345.557	7.71
345.768	7.76
345.978	7.19
346.189	6.83
346.399	7.77
346.61	7.99
346.821	8.42
347.031	6.78
347.242	6.77
347.452	6.69
347.663	6.06
347.873	6.05
348.084	6.5
348.294	7.23
348.504	7.28
348.715	6.77
348.925	5.83
349.136	5.91
349.346	7.02
349.557	7.3
349.767	7
349.977	6.85
350.188	8.12
350.398	8.41
350.608	7.77
350.819	7.5
351.029	6.89
351.239	7.35
351.449	7.07
351.66	6.87
351.87	7.45
352.08	8.72
352.29	9.35
352.501	8.53
352.711	8.6
352.921	8.99
353.131	9.33
353.341	9.31
353.552	9.17
353.762	9.15
353.972	9.54
354.182	9.84
354.392	9.62
354.602	9.51
354.812	9.28
355.022	8.75
355.232	9.07
355.442	8.86
355.652	9.23
355.862	9.47
356.072	8.7
356.282	8.43
356.492	7.87
356.702	7.19
356.912	7.13
357.122	7.8
357.332	8.44
357.542	7.94
357.752	8.06
357.962	8.34
358.171	7.66
358.381	8
358.591	7.74
358.801	7.47
359.011	7.74
359.221	7.4
359.43	7.06
359.64	6.99
359.85	6.53
360.06	6.31
360.269	5.5
360.479	6.07
360.689	5.9
360.899	6.27
361.108	5.94
361.318	6.13
361.528	6.06
361.737	6.11
361.947	5.66
362.156	5.9
362.366	6.16
362.576	6.53
362.785	6.28
362.995	6.96
363.204	6.69
363.414	6.78
363.623	6.56
363.833	7.48
364.042	7.41
364.252	7.61
364.461	7.43
364.671	7.2
364.88	6.59
365.09	7.17
365.299	6.5
365.509	6.79
365.718	6.89
365.927	6.66
366.137	6.26
366.346	6.61
366.555	6.24
366.765	6.79
366.974	6.49
367.183	7.58
367.393	7.05
367.602	6.98
367.811	6.6
368.021	7
368.23	6.98
368.439	6.67
368.648	6.01
368.857	6.45
369.067	6.39
369.276	7.08
369.485	6.54
369.694	6.65
369.903	6.66
370.112	6.63
370.321	6.13
370.531	6.46
370.74	6.55
370.949	6.96
371.158	6.63
371.367	6.14
371.576	6.09
371.785	6.17
371.994	6.59
372.203	6.73
372.412	6.6
372.621	6.84
372.83	6.14
373.039	6.09
373.248	6.48
373.457	6.89
373.666	6.95
373.874	6.71
374.083	6.67
374.292	5.99
374.501	6.1
374.71	6.3
374.919	6.09
375.128	6.5
375.336	7
375.545	6.57
375.754	6.61
375.963	6.99
376.171	6.75
376.38	7.03
376.589	7.67
376.798	7.6
377.006	7.32
377.215	7.42
377.424	7.45
377.632	7.37
377.841	7.26
378.05	7.55
378.258	7.67
378.467	8.04
378.675	7.88
378.884	7.4
379.093	7.4
379.301	7.96
379.51	8.25
379.718	8.56
379.927	8.47
380.135	8.55
380.344	8.3
380.552	8.43
380.761	8.03
380.969	7.68
381.177	7.55
381.386	7.28
381.594	6.96
381.803	6.75
382.011	6.19
382.219	5.79
382.428	5.67
382.636	5.63
382.845	5.32
383.053	5.62
383.261	5.73
383.469	6.05
383.678	6.25
383.886	6.23
384.094	6.16
384.302	6.59
384.511	6.8
384.719	6.59
384.927	6.59
385.135	6.69
385.343	6.2
385.552	5.57
385.76	5.41
385.968	5.49
386.176	5.51
386.384	5.69
386.592	5.6
386.8	5.5
387.008	5.66
387.216	5.56
387.424	5.01
387.633	5.24
387.841	5.76
388.049	5.8
388.257	5.5
388.465	5.55
388.672	5.04
388.88	4.88
389.088	4.88
389.296	4.86
389.504	4.56
389.712	4.9
389.92	5.03
390.128	5
390.336	5.15
390.544	5.46
390.751	5.3
390.959	5.92
391.167	5.7
391.375	5.63
391.583	5.72
391.79	5.78
391.998	5.83
392.206	5.96
392.414	6.02
392.621	5.87
392.829	5.67
393.037	5.69
393.244	5.5
393.452	5.75
393.66	5.81
393.867	5.57
394.075	5.61
394.283	5.44
394.49	5.41
394.698	5.46
394.905	5.48
395.113	5.53
395.32	5.59
395.528	5.42
395.735	5.48
395.943	5.49
396.15	5.44
396.358	5.45
396.565	5.68
396.773	5.65
396.98	5.59
397.188	5.76
397.395	5.85
397.602	5.8
397.81	5.92
398.017	5.61
398.225	5.49
398.432	5.64
398.639	5.59
398.847	5.17
399.054	5.05
399.261	5.04
399.468	4.85
399.676	4.53
399.883	4.6
400.09	4.45
400.297	4.65
400.505	4.77
400.712	4.89
400.919	5.19
401.126	5.44
401.333	5.36
401.54	5.31
401.748	5.25
401.955	5.3
402.162	5.24
402.369	5.4
402.576	5.61
402.783	5.47
402.99	5.18
403.197	5.1
403.404	5.01
403.611	4.94
403.818	5.02
404.025	5.11
404.232	5.26
404.439	5.35
404.646	5.3
404.853	4.93
405.06	4.96
405.267	5.1
405.474	5.02
405.681	5.08
405.887	5.14
406.094	4.85
406.301	4.81
406.508	4.97
406.715	4.72
406.922	4.57
407.128	4.67
407.335	4.89
407.542	4.93
407.749	4.76
407.955	4.62
408.162	4.55
408.369	4.9
408.575	5.04
408.782	4.79
408.989	4.69
409.195	4.8
409.402	4.73
409.609	4.57
409.815	4.54
410.022	4.86
410.228	5.05
410.435	5.09
410.642	4.91
410.848	4.71
411.055	5.1
411.261	5.32
411.468	5.25
411.674	5.3
411.881	5.36
412.087	5.39
412.294	5.21
412.5	5.19
412.706	5.25
412.913	5.34
413.119	5.35
413.326	4.88
413.532	4.88
413.738	5.21
413.945	5.41
414.151	5.43
414.357	5.44
414.564	5.17
414.77	4.86
414.976	4.81
415.182	4.74
415.389	4.66
415.595	4.66
415.801	4.6
416.007	4.38
416.214	4.39
416.42	4.38
416.626	4.27
416.832	4.62
417.038	4.72
417.244	4.72
417.45	4.86
417.657	4.86
417.863	4.98
418.069	5
418.275	5.12
418.481	5.09
418.687	5.13
418.893	5.34
419.099	5.31
419.305	5.32
419.511	5.29
419.717	5.34
419.923	5.46
420.129	5.49
420.335	5.54
420.541	5.5
420.746	5.45
420.952	5.4
421.158	5.41
421.364	5.28
421.57	5.3
421.776	5.33
421.982	5.25
422.187	5.23
422.393	5.15
422.599	5.12
422.805	5.08
423.01	5.04
423.216	5.08
423.422	4.93
423.628	5.08
423.833	5.08
424.039	4.99
424.245	4.91
424.45	4.91
424.656	4.89
424.862	4.95
425.067	4.87
425.273	4.84
425.478	4.68
425.684	4.71
425.889	4.65
426.095	4.69
426.301	4.84
426.506	4.83
426.712	4.7
426.917	4.75
427.123	4.7
427.328	4.7
427.533	4.68
427.739	4.9
427.944	4.91
428.15	4.75
428.355	4.69
428.561	4.52
428.766	4.71
428.971	4.83
429.177	4.89
429.382	4.81
429.587	4.8
429.793	4.84
429.998	4.58
430.203	4.52
430.408	4.75
430.614	4.82
430.819	5.05
431.024	5.02
431.229	5.08
431.434	5.1
431.64	4.97
431.845	4.86
432.05	5
432.255	5.07
432.46	5.15
432.665	5.27
432.87	5.13
433.076	5.01
433.281	5.11
433.486	4.92
433.691	4.85
433.896	5.04
434.101	5.25
434.306	5.2
434.511	5.38
434.716	5.29
434.921	5.09
435.126	5.11
435.331	5.1
435.535	5.12
435.74	5.19
435.945	5.26
436.15	5.29
436.355	5.23
436.56	5.15
436.765	4.97
436.97	4.91
437.174	4.96
437.379	5.03
437.584	5.19
437.789	5.16
437.993	5.31
438.198	5.22
438.403	5.13
438.608	5.21
438.812	5.33
439.017	5.5
439.222	5.7
439.426	5.63
439.631	5.58
439.836	5.47
440.04	5.53
440.245	5.45
440.45	5.47
440.654	5.46
440.859	5.42
441.063	5.35
441.268	5.25
441.472	5.03
441.677	5.15
441.881	5.25
442.086	5.2
442.29	5.14
442.495	5.27
442.699	5.33
442.904	5.36
443.108	5.29
443.312	5.33
443.517	5.31
443.721	5.45
443.925	5.23
444.13	5.07
444.334	5.25
444.538	5.25
444.743	5.12
444.947	4.92
445.151	4.97
445.356	4.9
445.56	4.92
445.764	4.98
445.968	4.88
446.173	4.96
446.377	5.05
446.581	5.08
446.785	5.05
446.989	4.99
447.193	5.19
447.398	5.14
447.602	5.25
447.806	5.21
448.01	5.2
448.214	5.38
448.418	5.27
448.622	5.36
448.826	5.25
449.03	5.21
449.234	5.32
449.438	5.23
449.642	5.25
449.846	5.26
450.05	5.39
450.254	5.21
450.458	5.29
450.662	5.3
450.866	4.99
451.069	4.94
451.273	4.92
451.477	4.74
451.681	4.81
451.885	4.79
452.089	4.78
452.292	4.66
452.496	4.83
452.7	4.59
452.904	4.56
453.107	4.68
453.311	4.74
453.515	4.6
453.719	4.66
453.922	4.42
454.126	4.51
454.33	4.45
454.533	4.37
454.737	4.31
454.94	4.32
455.144	4.48
455.348	4.58
455.551	4.55
455.755	4.7
455.958	4.65
456.162	4.77
456.365	4.62
456.569	4.53
456.772	4.61
456.976	4.69
457.179	4.63
457.383	4.69
457.586	4.61
457.79	4.78
457.993	4.81
458.196	4.87
458.4	4.94
458.603	4.98
458.807	5.1
459.01	5.03
459.213	4.98
459.417	5.11
459.62	5.09
459.823	5.05
460.026	4.95
460.23	4.81
460.433	4.85
460.636	4.85
460.839	4.82
461.042	4.77
461.246	4.94
461.449	4.9
461.652	4.8
461.855	4.8
462.058	4.89
462.261	5.08
462.464	5.27
462.668	5.24
462.871	5.33
463.074	5.45
463.277	5.57
463.48	5.27
463.683	5.19
463.886	5.27
464.089	5.09
464.292	5.07
464.495	4.87
464.698	4.88
464.901	4.99
465.104	4.83
465.306	4.81
465.509	4.7
465.712	4.8
465.915	4.81
466.118	4.72
466.321	4.98
466.524	5.1
466.726	4.9
466.929	4.77
467.132	4.54
467.335	4.62
467.538	4.6
467.74	4.84
467.943	4.86
468.146	4.92
468.348	5.04
468.551	4.94
468.754	4.89
468.956	5.01
469.159	4.96
469.362	5.1
469.564	5.12
469.767	5.17
469.969	5.02
470.172	5.12
470.375	5.21
470.577	5.12
470.78	5.03
470.982	4.86
471.185	4.92
471.387	5.07
471.59	5.01
471.792	4.98
471.995	5.02
472.197	4.89
472.399	4.86
472.602	4.71
472.804	4.8
473.007	4.82
473.209	4.79
473.411	4.82
473.614	4.8
473.816	4.8
474.018	4.81
474.22	4.59
474.423	4.81
474.625	4.55
474.827	4.57
475.03	4.53
475.232	4.55
475.434	4.72
475.636	4.7
475.838	4.67
476.04	4.61
476.243	4.77
476.445	4.76
476.647	4.63
476.849	4.92
477.051	4.94
477.253	4.91
477.455	5.02
477.657	4.94
477.859	4.99
478.061	4.95
478.263	4.91
478.465	4.88
478.667	4.97
478.869	4.93
479.071	4.86
479.273	4.79
479.475	4.72
479.677	4.64
479.879	4.65
480.081	4.51
480.283	4.46
480.485	4.5
480.686	4.35
480.888	4.35
481.09	4.49
481.292	4.48
481.494	4.66
481.695	4.8
481.897	4.79
482.099	4.83
482.301	4.89
482.502	4.92
482.704	4.91
482.906	4.92
483.107	4.88
483.309	4.82
483.511	4.87
483.712	4.91
483.914	4.91
484.115	4.91
484.317	4.93
484.519	4.93
484.72	4.92
484.922	4.97
485.123	4.99
485.325	5.02
485.526	5.05
485.728	5.05
485.929	4.96
486.131	4.94
486.332	4.93
486.534	4.83
486.735	4.81
486.936	4.87
487.138	4.83
487.339	4.85
487.541	4.87
487.742	4.85
487.943	4.88
488.144	4.93
488.346	4.93
488.547	4.98
488.748	5.05
488.95	5.07
489.151	5.08
489.352	5.1
489.553	5.11
489.755	5.11
489.956	5.09
490.157	5.03
490.358	5.09
490.559	5.02
490.76	4.99
490.961	4.93
491.163	4.89
491.364	4.81
491.565	4.8
491.766	4.76
491.967	4.79
492.168	4.84
492.369	4.88
492.57	4.79
492.771	4.81
492.972	4.85
493.173	4.82
493.374	4.73
493.575	4.84
493.776	4.87
493.976	4.86
494.177	4.85
494.378	4.86
494.579	4.79
494.78	4.95
494.981	5.02
495.182	4.92
495.382	5.07
495.583	5.3
495.784	5.28
495.985	5.28
496.185	5.48
496.386	5.45
496.587	5.35
496.788	5.36
496.988	5.28
497.189	5.21
497.39	5.25
497.59	5.22
497.791	5.27
497.992	5.29
498.192	5.19
498.393	4.9
498.593	4.9
498.794	4.9
498.994	4.84
499.195	4.87
499.395	4.97
499.596	4.95
499.796	4.93
499.997	4.86
500.197	4.78
500.398	4.76
500.598	4.92
500.799	5.03
500.999	5.08
501.199	5.15
501.4	5.05
501.6	4.98
501.801	4.94
502.001	5.08
502.201	5.19
502.402	5.22
502.602	5.39
502.802	5.47
503.002	5.28
503.203	5.46
503.403	5.38
503.603	5.55
503.803	5.54
504.003	5.65
504.204	5.64
504.404	5.7
504.604	5.6
504.804	5.63
505.004	5.5
505.204	5.55
505.404	5.41
505.604	5.44
505.804	5.36
506.005	5.37
506.205	5.43
506.405	5.51
506.605	5.29
506.805	5.41
507.005	5.27
507.204	5.33
507.404	5.35
507.604	5.43
507.804	5.38
508.004	5.26
508.204	5.3
508.404	5.17
508.604	5.06
508.804	5.31
509.003	5.25
509.203	5.39
509.403	5.4
509.603	5.49
509.803	5.43
510.002	5.54
510.202	5.55
510.402	5.6
510.602	5.63
510.801	5.68
511.001	5.59
511.201	5.61
511.4	5.53
511.6	5.55
511.8	5.61
511.999	5.55
512.199	5.59
512.398	5.71
512.598	5.74
512.797	5.72
512.997	5.84
513.197	5.77
513.396	5.72
513.596	5.74
513.795	5.75
513.994	5.65
514.194	5.79
514.393	5.71
514.593	5.71
514.792	5.74
514.992	5.68
515.191	5.56
515.39	5.59
515.59	5.62
515.789	5.67
515.988	5.67
516.188	5.55
516.387	5.59
516.586	5.68
516.786	5.73
516.985	5.66
517.184	5.74
517.383	5.68
517.582	5.69
517.782	5.74
517.981	5.81
518.18	5.98
518.379	6.14
518.578	6.19
518.777	6.11
518.976	6.1
519.176	6.11
519.375	6.23
519.574	6.23
519.773	6.21
519.972	6.31
520.171	6.32
520.37	6.12
520.569	6.03
520.768	5.96
520.967	6.13
521.166	6.24
521.365	6.3
521.564	6.18
521.762	6.31
521.961	6.43
522.16	6.17
522.359	6.14
522.558	6.16
522.757	6.38
522.956	6.45
523.154	6.37
523.353	6.27
523.552	6.12
523.751	6.16
523.949	6.23
524.148	6.19
524.347	6.42
524.546	6.49
524.744	6.49
524.943	6.34
525.142	6.45
525.34	6.49
525.539	6.53
525.737	6.64
525.936	6.65
526.135	6.53
526.333	6.53
526.532	6.52
526.73	6.49
526.929	6.59
527.127	6.62
527.326	6.6
527.524	6.7
527.723	6.68
527.921	6.77
528.12	6.77
528.318	6.8
528.516	6.8
528.715	6.83
528.913	6.89
529.112	6.91
529.31	6.96
529.508	6.91
529.707	6.86
529.905	6.88
530.103	6.84
530.301	6.89
530.5	6.89
530.698	6.9
530.896	6.97
531.094	7.04
531.293	7.01
531.491	6.92
531.689	7.04
531.887	7.12
532.085	7.2
532.283	7.24
532.481	7.31
532.68	7.4
532.878	7.5
533.076	7.45
533.274	7.34
533.472	7.4
533.67	7.49
533.868	7.49
534.066	7.51
534.264	7.41
534.462	7.38
534.66	7.38
534.858	7.44
535.056	7.4
535.253	7.41
535.451	7.48
535.649	7.48
535.847	7.57
536.045	7.56
536.243	7.55
536.441	7.64
536.638	7.76
536.836	7.84
537.034	7.79
537.232	7.92
537.43	7.94
537.627	8
537.825	7.99
538.023	8
538.22	7.97
538.418	7.95
538.616	7.98
538.813	7.93
539.011	7.97
539.209	7.92
539.406	7.9
539.604	7.91
539.801	7.93
539.999	8.05
540.196	8.03
540.394	8.12
540.591	8.19
540.789	8.23
540.986	8.21
541.184	8.23
541.381	8.34
541.579	8.37
541.776	8.47
541.974	8.45
542.171	8.48
542.368	8.57
542.566	8.66
542.763	8.66
542.96	8.71
543.158	8.83
543.355	8.73
543.552	8.8
543.75	8.75
543.947	8.68
544.144	8.78
544.341	8.75
544.539	8.78
544.736	8.72
544.933	8.67
545.13	8.84
545.327	8.91
545.524	9.06
545.722	8.97
545.919	9.06
546.116	9.18
546.313	9.18
546.51	9.27
546.707	9.23
546.904	9.41
547.101	9.57
547.298	9.56
547.495	9.47
547.692	9.58
547.889	9.64
548.086	9.76
548.283	9.76
548.48	9.89
548.677	9.88
548.874	9.98
549.07	9.85
549.267	9.99
549.464	9.92
549.661	9.99
549.858	10.06
550.055	10.27
550.251	10.33
550.448	10.32
550.645	10.49
550.842	10.63
551.038	10.66
551.235	10.69
551.432	10.65
551.628	10.72
551.825	10.93
552.022	10.82
552.218	10.92
552.415	10.91
552.612	11.08
552.808	11
553.005	11.14
553.201	11.27
553.398	11.35
553.594	11.35
553.791	11.45
553.987	11.58
554.184	11.6
554.38	11.48
554.577	11.68
554.773	11.75
554.97	11.89
555.166	11.87
555.362	11.76
555.559	11.7
555.755	11.79
555.952	12
556.148	11.81
556.344	12
556.541	12.24
556.737	12.07
556.933	12.02
557.129	11.95
557.326	12.04
557.522	12.17
557.718	12.52
557.914	12.55
558.11	12.33
558.307	12.6
558.503	12.57
558.699	12.47
558.895	12.59
559.091	12.7
559.287	12.78
559.483	12.83
559.679	12.91
559.876	12.75
560.072	12.87
560.268	13.09
560.464	12.93
560.66	13.08
560.856	13.27
561.052	13.4
561.247	13.47
561.443	13.41
561.639	13.42
561.835	13.55
562.031	13.76
562.227	13.77
562.423	13.75
562.619	13.93
562.815	14.04
563.01	14.03
563.206	14
563.402	14.18
563.598	14.3
563.793	14.26
563.989	14.29
564.185	14.3
564.381	14.44
564.576	14.52
564.772	14.7
564.968	14.79
565.163	14.73
565.359	14.92
565.555	14.88
565.75	14.99
565.946	15.2
566.141	15.27
566.337	15.34
566.532	15.42
566.728	15.49
566.923	15.37
567.119	15.3
567.314	15.48
567.51	15.44
567.705	15.51
567.901	15.64
568.096	15.71
568.292	15.79
568.487	15.96
568.682	16.12
568.878	16.38
569.073	16.44
569.268	16.49
569.464	16.46
569.659	16.59
569.854	16.72
570.05	16.75
570.245	16.77
570.44	16.84
570.635	16.73
570.831	16.68
571.026	16.65
571.221	16.74
571.416	16.89
571.611	17.04
571.806	17.1
572.002	17.19
572.197	17.25
572.392	17.25
572.587	17.15
572.782	17.25
572.977	17.33
573.172	17.39
573.367	17.48
573.562	17.56
573.757	17.66
573.952	17.79
574.147	17.93
574.342	18
574.537	18.03
574.732	18.3
574.927	18.33
575.121	18.36
575.316	18.44
575.511	18.41
575.706	18.4
575.901	18.33
576.096	18.37
576.29	18.36
576.485	18.43
576.68	18.49
576.875	18.36
577.069	18.45
577.264	18.43
577.459	18.42
577.654	18.67
577.848	18.71
578.043	18.77
578.238	18.57
578.432	18.53
578.627	18.48
578.821	18.64
579.016	18.74
579.21	18.68
579.405	18.62
579.6	18.48
579.794	18.38
579.989	18.56
580.183	18.59
580.378	18.85
580.572	19.04
580.766	19.08
580.961	19.25
581.155	19.28
581.35	19.28
581.544	19.41
581.738	19.58
581.933	19.68
582.127	19.49
582.321	19.46
582.516	19.65
582.71	19.5
582.904	19.78
583.099	19.68
583.293	19.76
583.487	20.09
583.681	20.44
583.875	20.57
584.07	20.78
584.264	21.03
584.458	21.25
584.652	21.17
584.846	21.24
585.04	21.16
585.234	21.22
585.428	21.29
585.623	21.15
585.817	21.01
586.011	21.03
586.205	20.79
586.399	20.86
586.593	20.82
586.787	20.93
586.981	21
587.174	21.08
587.368	21
587.562	20.95
587.756	21.15
587.95	21.25
588.144	21.3
588.338	21.55
588.532	21.54
588.725	21.72
588.919	21.8
589.113	22.03
589.307	21.9
589.501	22.08
589.694	22.33
589.888	22.46
590.082	22.67
590.275	22.6
590.469	22.54
590.663	22.56
590.856	22.51
591.05	22.68
591.244	22.65
591.437	22.77
591.631	22.81
591.824	22.91
592.018	22.93
592.212	22.81
592.405	22.94
592.599	23.08
592.792	23.08
592.986	23.18
593.179	23
593.372	23.18
593.566	23.11
593.759	23.25
593.953	23.35
594.146	23.37
594.339	23.27
594.533	23.31
594.726	23.42
594.92	23.71
595.113	23.75
595.306	23.82
595.499	23.74
595.693	23.9
595.886	23.87
596.079	23.68
596.272	23.71
596.466	23.83
596.659	23.65
596.852	23.48
597.045	23.32
597.238	23.37
597.431	23.35
597.624	23.47
597.818	23.36
598.011	23.44
598.204	23.48
598.397	23.38
598.59	23.43
598.783	23.64
598.976	23.68
599.169	23.75
599.362	23.61
599.555	23.58
599.748	23.49
599.941	23.64
600.134	23.69
600.326	23.62
600.519	23.82
600.712	23.84
600.905	23.8
601.098	24.03
601.291	24.2
601.483	24.39
601.676	24.52
601.869	24.52
602.062	24.65
602.255	24.66
602.447	24.93
602.64	24.88
602.833	24.91
603.025	24.99
603.218	25.12
603.411	24.99
603.603	25
603.796	25.02
603.989	25.13
604.181	25.14
604.374	25.28
604.566	25.07
604.759	25.2
604.951	25.19
605.144	25.3
605.336	25.12
605.529	25.41
605.721	25.45
605.914	25.53
606.106	25.5
606.299	25.49
606.491	25.35
606.683	25.44
606.876	25.36
607.068	25.33
607.26	25.43
607.453	25.54
607.645	25.42
607.837	25.67
608.03	25.66
608.222	25.64
608.414	25.64
608.606	25.78
608.799	25.8
608.991	25.86
609.183	26.03
609.375	25.98
609.567	26.06
609.759	25.78
609.952	25.72
610.144	25.73
610.336	25.82
610.528	26.1
610.72	26.09
610.912	26.22
611.104	26.31
611.296	26.15
611.488	26.08
611.68	25.93
611.872	26.08
612.064	26.06
612.256	25.81
612.448	25.74
612.64	25.65
612.832	25.52
613.023	25.55
613.215	25.48
613.407	25.69
613.599	25.66
613.791	25.86
613.983	26.17
614.174	26.13
614.366	26.28
614.558	26.13
614.75	25.89
614.941	26.3
615.133	26.2
615.325	26.02
615.516	25.97
615.708	25.85
615.9	25.73
616.091	25.56
616.283	25.53
616.475	25.76
616.666	25.81
616.858	26.06
617.049	25.79
617.241	25.8
617.432	26.1
617.624	26.04
617.815	26.26
618.007	26.31
618.198	26.36
618.39	26.53
618.581	26.25
618.773	26.51
618.964	26.47
619.155	26.45
619.347	26.68
619.538	26.53
619.729	26.47
619.921	26.57
620.112	26.72
620.303	26.84
620.494	26.66
620.686	26.87
620.877	26.77
621.068	26.61
621.259	26.77
621.451	26.77
621.642	26.79
621.833	27.08
622.024	27.23
622.215	27.12
622.406	27.13
622.597	27.12
622.788	27.32
622.98	27.6
623.171	27.9
623.362	27.95
623.553	27.84
623.744	27.88
623.935	27.9
624.126	27.91
624.317	27.88
624.508	27.83
624.698	28.26
624.889	28.23
625.08	27.99
625.271	27.76
625.462	27.56
625.653	27.79
625.844	27.91
626.034	28.14
626.225	28.08
626.416	28.42
626.607	28.61
626.798	28.35
626.988	28.24
627.179	28.16
627.37	28.57
627.56	28.69
627.751	28.55
627.942	28.53
628.132	28.4
628.323	28.67
628.514	28.61
628.704	28.65
628.895	28.86
629.085	29.2
629.276	29.47
629.466	29.13
629.657	29.32
629.847	29.56
630.038	29.71
630.228	29.89
630.419	29.79
630.609	29.83
630.8	29.55
630.99	29.37
631.181	29.24
631.371	29.22
631.561	29.51
631.752	29.43
631.942	29.32
632.132	29.16
632.323	28.98
632.513	28.76
632.703	28.74
632.893	28.78
633.084	29.14
633.274	29.14
633.464	29.2
633.654	29.11
633.844	29.21
634.034	29.16
634.225	29.11
634.415	28.99
634.605	29.18
634.795	29.2
634.985	29.11
635.175	29.24
635.365	29.14
635.555	29.27
635.745	29.3
635.935	29.03
636.125	29.21
636.315	29.11
636.505	29.36
636.695	29.5
636.885	29.4
637.075	29.28
637.265	28.88
637.455	28.89
637.644	29.09
637.834	29.1
638.024	29.33
638.214	29.17
638.404	29.39
638.593	29.66
638.783	29.45
638.973	29.69
639.163	30.46
639.352	30.71
639.542	31.06
639.732	30.61
639.921	30.43
640.111	30.6
640.301	30.79
640.49	31.34
640.68	30.66
640.87	30.71
641.059	30.93
641.249	30.49
641.438	30.42
641.628	30.28
641.817	30.31
642.007	30.71
642.196	30.97
642.386	30.52
642.575	30.16
642.764	30.57
642.954	30.57
643.143	30.8
643.333	31.01
643.522	31.06
643.711	31.45
643.901	31.44
644.09	31.64
644.279	31.13
644.469	31.65
644.658	31.76
644.847	31.69
645.036	31.94
645.226	31.45
645.415	31.45
645.604	31.23
645.793	31.26
645.982	31.81
646.171	31.56
646.361	31.89
646.55	31.89
646.739	31.93
646.928	31.89
647.117	31.8
647.306	32.01
647.495	32.23
647.684	32.36
647.873	32.16
648.062	31.89
648.251	32.15
648.44	32.13
648.629	32.23
648.818	31.96
649.007	32.49
649.196	32.68
649.384	32.47
649.573	32.3
649.762	32.75
649.951	32.79
650.14	32.78
650.328	32.76
650.517	32.48
650.706	32.21
650.895	32.31
651.083	31.72
651.272	31.56
651.461	31.76
651.65	31.83
651.838	31.56
652.027	31.55
652.216	31.43
652.404	31.11
652.593	31.52
652.781	31.97
652.97	32.11
653.158	32.32
653.347	32.59
653.535	32.64
653.724	32.61
653.912	32.46
654.101	32.53
654.289	32.46
654.478	32.77
654.666	32.48
654.855	32.56
655.043	32.33
655.231	32.38
655.42	32.44
655.608	32.6
655.796	32.99
655.985	33.25
656.173	33.3
656.361	33.65
656.55	33.48
656.738	33.33
656.926	32.85
657.114	32.92
657.302	32.97
657.491	32.84
657.679	32.85
657.867	32.47
658.055	32.13
658.243	32.42
658.431	32.74
658.619	32.77
658.807	33.08
658.996	33.5
659.184	33.72
659.372	33.59
659.56	33.74
659.748	33.74
659.936	33.82
660.124	34.03
660.311	33.43
660.499	33.18
660.687	33.36
660.875	33.58
661.063	33.44
661.251	33.62
661.439	33.77
661.627	33.86
661.814	33.68
662.002	33.68
662.19	33.84
662.378	34.07
662.565	34.21
662.753	34.18
662.941	33.71
663.129	33.89
663.316	33.73
663.504	33.86
663.692	33.91
663.879	33.89
664.067	33.92
664.254	33.99
664.442	34.26
664.63	33.96
664.817	33.72
665.005	34.13
665.192	33.75
665.38	34.31
665.567	34.59
665.755	33.99
665.942	34.17
666.13	34.6
666.317	34.58
666.504	34.36
666.692	34.73
666.879	34.97
667.067	34.46
667.254	34.87
667.441	34.31
667.629	33.83
667.816	34.37
668.003	34.46
668.19	34.22
668.378	34.41
668.565	35.05
668.752	34.88
668.939	34.85
669.127	34.84
669.314	34.65
669.501	34.41
669.688	34.66
669.875	34.33
670.062	34.34
670.249	34.05
670.436	33.93
670.623	33.45
670.81	33.52
670.997	33.4
671.184	33.64
671.371	33.81
671.558	34.27
671.745	34.19
671.932	34.12
672.119	34.54
672.306	34.95
672.493	34.56
672.68	34.46
672.867	34.17
673.054	34.41
673.24	34.48
673.427	34.56
673.614	34.79
673.801	35.02
673.988	35.12
674.174	34.49
674.361	34.66
674.548	34.83
674.734	35.18
674.921	35.51
675.108	35.5
675.294	35.68
675.481	35.76
675.668	35.43
675.854	35.56
676.041	35.71
676.227	35.49
676.414	35
676.601	35.07
676.787	34.97
676.974	35.27
677.16	35.38
677.347	35.3
677.533	34.94
677.719	34.98
677.906	35.03
678.092	35.2
678.279	35.88
678.465	36.08
678.651	36.53
678.838	36.47
679.024	36.69
679.21	36.49
679.397	36.5
679.583	36.88
679.769	36.8
679.955	36.69
680.142	36.6
680.328	36.37
680.514	36.66
680.7	36.54
680.886	37.09
681.073	37.09
681.259	37.2
681.445	37.4
681.631	37.18
681.817	37.24
682.003	37.2
682.189	37.04
682.375	37.11
682.561	37.12
682.747	37.19
682.933	36.98
683.119	36.39
683.305	36.24
683.491	36.28
683.677	36.33
683.863	36.7
684.049	36.58
684.235	36.88
684.42	36.76
684.606	36.46
684.792	36.31
684.978	35.92
685.164	36.29
685.349	36.49
685.535	36.58
685.721	36.69
685.907	36.44
686.092	36.57
686.278	36.86
686.464	37.16
686.649	37.28
686.835	37.32
687.021	37.45
687.206	37.28
687.392	37.36
687.577	37.67
687.763	37.54
687.948	37.55
688.134	38.01
688.319	38.07
688.505	37.93
688.69	37.76
688.876	37.76
689.061	37.44
689.247	37.63
689.432	38.03
689.618	37.29
689.803	37.59
689.988	37.64
690.174	37.23
690.359	36.72
690.544	37
690.73	37.83
690.915	37.7
691.1	37.81
691.285	37.54
691.471	36.99
691.656	37.07
691.841	36.75
692.026	36.9
692.211	36.99
692.396	37.31
692.582	37.16
692.767	36.45
692.952	36.56
693.137	36.46
693.322	37.07
693.507	36.96
693.692	37.29
693.877	37.23
694.062	36.95
694.247	36.86
694.432	37.19
694.617	36.56
694.802	37.05
694.987	37.04
695.172	37.52
695.357	36.82
695.541	37.04
695.726	36.9
695.911	37.17
696.096	37.16
696.281	37.52
696.466	36.89
696.65	37.36
696.835	37.31
697.02	37.02
697.204	36.72
697.389	36.96
697.574	37.38
697.759	37.22
697.943	37.19
698.128	37.69
698.312	37.6
698.497	37.61
698.682	37.99
698.866	37.75
699.051	38.18
699.235	38.38
699.42	38.65
699.604	38.48
699.789	38.7
699.973	38.66
700.158	38.33
700.342	38.32
700.527	38.79
700.711	38.64
700.895	38.51
701.08	38.61
701.264	38.7
701.448	38.26
701.633	38.25
701.817	38.68
702.001	38.67
702.186	38.96
702.37	39.07
702.554	38.56
702.738	38.42
702.923	38.55
703.107	38.21
703.291	38.14
703.475	38.28
703.659	38.54
703.843	37.88
704.027	37.9
704.212	37.81
704.396	37.8
704.58	38.24
704.764	38.28
704.948	38.99
705.132	39.28
705.316	39.39
705.5	39.9
705.684	40.06
705.868	40.66
706.052	40.53
706.235	40.15
706.419	40.23
706.603	40.15
706.787	39.35
706.971	39.04
707.155	39.26
707.339	39.41
707.522	38.71
707.706	38.29
707.89	37.83
708.074	38.21
708.257	38.74
708.441	38.3
708.625	38.38
708.808	39.27
708.992	39.41
709.176	39.48
709.359	40.01
709.543	40.64
709.727	40.65
709.91	40.59
710.094	40.23
710.277	39.83
710.461	39.91
710.644	39.37
710.828	39.53
711.011	38.97
711.195	38.94
711.378	38.09
711.562	38.04
711.745	37.91
711.928	37.78
712.112	38.43
712.295	39.03
712.478	39.14
712.662	39.88
712.845	39.64
713.028	39.68
713.212	39.02
713.395	38.68
713.578	38.05
713.761	38.14
713.945	38.31
714.128	37.86
714.311	37.54
714.494	37.64
714.677	37.38
714.86	37.57
715.043	37.91
715.227	38.11
715.41	38.72
715.593	39.88
715.776	39.92
715.959	40.43
716.142	40.59
716.325	40.83
716.508	41.5
716.691	41.07
716.874	40.68
717.057	40.92
717.239	41.28
717.422	41.41
717.605	40.68
717.788	40.65
717.971	40.04
718.154	40.41
718.337	39.91
718.519	39.4
718.702	39.74
718.885	40.56
719.068	40.24
719.25	39.85
719.433	39.86
719.616	40.72
719.798	40.97
719.981	40.71
720.164	40.52
720.346	40.41
720.529	39.71
720.712	39.49
720.894	38.63
721.077	38.64
721.259	38.69
721.442	38.14
721.624	37.11
721.807	36.7
721.989	36.88
722.172	36.74
722.354	36.93
722.537	37.78
722.719	38.4
722.901	39
723.084	39.52
723.266	39.48
723.448	40
723.631	39.91
723.813	39.9
723.995	40.67
724.178	39.99
724.36	39.8
724.542	39.06
724.724	38.79
724.907	37.84
725.089	36.88
725.271	36.63
725.453	36.23
725.635	36.2
725.817	36.65
725.999	36.91
726.181	37.21
726.364	37.7
726.546	38.01
726.728	37.66
726.91	38.22
727.092	38.55
727.274	39.63
727.456	40.1
727.638	40.29
727.819	39.87
728.001	39.27
728.183	39.12
728.365	38.53
728.547	38.79
728.729	39.27
728.911	39.5
729.093	40.32
729.274	39.73
729.456	39.61
729.638	39.38
729.82	40.03
730.001	39.91
730.183	40.35
730.365	41.32
730.546	40.8
730.728	40.31
730.91	39.9
731.091	39.21
731.273	39.09
731.455	38.92
731.636	39.58
731.818	39.33
731.999	39.34
732.181	39.49
732.362	38.79
732.544	39.54
732.725	39.76
732.907	40.07
733.088	39.79
733.27	39.57
733.451	40.02
733.633	40.1
733.814	40.16
733.995	40.17
734.177	39.98
734.358	40.47
734.539	40.13
734.721	41.03
734.902	41.01
735.083	41.68
735.264	41.78
735.446	41.56
735.627	41.62
735.808	41.55
735.989	42.03
736.17	42.16
736.351	42.18
736.533	42.03
736.714	41.42
736.895	40.86
737.076	41.38
737.257	41.05
737.438	40.66
737.619	39.63
737.8	39.65
737.981	40.21
738.162	40.31
738.343	40.16
738.524	40.15
738.705	39.82
738.886	41.04
739.067	39.64
739.247	40.08
739.428	40.82
739.609	41.5
739.79	41.07
739.971	40.99
740.151	40.61
740.332	40.03
740.513	40.05
740.694	39.78
740.874	38.82
741.055	39.32
741.236	38.51
741.417	37.44
741.597	37.2
741.778	37.25
741.958	36.97
742.139	37.26
742.32	38.19
742.5	37.94
742.681	38.97
742.861	38.99
743.042	38.81
743.222	39.65
743.403	40.32
743.583	40.57
743.764	40.22
743.944	39.16
744.124	39.94
744.305	39.29
744.485	40.32
744.666	39.09
744.846	40.33
745.026	41.19
745.207	41.01
745.387	41.07
745.567	40.8
745.747	41.79
745.928	42.88
746.108	42.37
746.288	42.21
746.468	42.59
746.648	42.73
746.829	41.55
747.009	40.42
747.189	41.13
747.369	40.6
747.549	40.62
747.729	39.39
747.909	38.91
748.089	38.38
748.269	39.25
748.449	38.6
748.629	39.76
748.809	39.93
748.989	40.45
749.169	40.03
749.349	41.34
749.529	41.79
749.709	42.62
749.889	43.82
750.068	44.3
750.248	43.85
750.428	43.4
750.608	41.92
750.788	42.09
750.967	43.5
751.147	43.49
751.327	42.76
751.507	43.21
751.686	43.61
751.866	42.34
752.046	41.92
752.225	41.8
752.405	43.17
752.585	43.71
752.764	43.17
752.944	42.09
753.123	41.76
753.303	42.11
753.482	40.85
753.662	40.28
753.841	40.76
754.021	40.68
754.2	41.06
754.38	39.83
754.559	39.79
754.739	39.77
754.918	39.89
755.097	40.43
755.277	40.33
755.456	40.18
755.635	40.47
755.815	40.27
755.994	40.44
756.173	39.73
756.352	40.28
756.532	40.42
756.711	40.44
756.89	40.1
757.069	40.68
757.248	40.62
757.427	41.11
757.607	40.63
757.786	40.34
757.965	41.2
758.144	42.28
758.323	41.2
758.502	40.84
758.681	41.74
758.86	41.51
759.039	40.69
759.218	40.54
759.397	39.97
759.576	41.02
759.755	41.61
759.934	40.51
760.113	40.31
760.291	40.96
760.47	41.87
760.649	41.33
760.828	40.59
761.007	40.6
761.186	40.53
761.364	42.24
761.543	41.55
761.722	40.23
761.901	40.19
762.079	39.73
762.258	39.87
762.437	39.53
762.615	40.04
762.794	40.57
762.972	40.8
763.151	40.79
763.33	40.13
763.508	40.71
763.687	41.51
763.865	42.13
764.044	41.82
764.222	42.25
764.401	42.57
764.579	42.25
764.758	42.24
764.936	41.98
765.114	41.5
765.293	41.35
765.471	40.95
765.65	41.11
765.828	40.66
766.006	40.54
766.184	39.66
766.363	39.74
766.541	40.14
766.719	40.41
766.898	40.62
767.076	41.1
767.254	41.14
767.432	41.87
767.61	41.42
767.788	40.93
767.967	41.32
768.145	42.12
768.323	41.08
768.501	41.05
768.679	41.02
768.857	41.44
769.035	41.18
769.213	40.82
769.391	40.57
769.569	40.39
769.747	41.38
769.925	42.48
770.103	41.14
770.281	42.12
770.459	40.59
770.636	41.3
770.814	41.36
770.992	40.98
771.17	40.34
771.348	38.89
771.525	38.44
771.703	37.95
771.881	37.26
772.059	37.82
772.236	37.34
772.414	39.68
772.592	39.43
772.769	38.96
772.947	39.61
773.125	40.16
773.302	40.13
773.48	41.42
773.657	41.01
773.835	41.5
774.013	41.73
774.19	40.82
774.368	38.96
774.545	38.51
774.723	38.48
774.9	39.49
775.077	39.9
775.255	40.07
775.432	40.25
775.61	41.93
775.787	40.92
775.964	41.32
776.142	41.94
776.319	42.83
776.496	42.88
776.674	42.03
776.851	40.22
777.028	40.17
777.205	41.99
777.382	41.22
777.56	41.09
777.737	41.53
777.914	40.76
778.091	41.63
778.268	39.96
778.445	40.94
778.622	40.74
778.8	42.69
778.977	42.14
779.154	43.16
779.331	43.62
779.508	41.13
779.685	39.64
779.862	40.02
780.038	38.88
780.215	41.24
780.392	40.26
780.569	41.34
780.746	40.18
780.923	41.12
781.1	38.28
781.277	36.78
781.453	37.09
781.63	37.5
781.807	37.64
781.984	37.82
782.16	37.01
782.337	36.56
782.514	36.67
782.691	37.9
782.867	37.51
783.044	37.05
783.221	38.2
783.397	41.53
783.574	42.9
783.75	43.67
783.927	42.46
784.103	42.36
784.28	41.51
784.456	41.13
784.633	38.94
784.809	40.83
784.986	42.13
785.162	42.21
785.339	41.63
785.515	42.18
785.692	41.15
785.868	41.09
786.044	42.43
786.221	43.82
786.397	44.4
786.573	46.77
786.749	44.11
786.926	43.57
787.102	44.87
787.278	41.77
787.454	38.72
787.631	39.5
787.807	41.37
787.983	39.99
788.159	40.75
788.335	39.83
788.511	37.67
788.687	39.73
788.863	40.48
789.039	39.09
789.216	40.96
789.392	42.27
789.568	40.96
789.744	41.07
789.919	40.87
790.095	40.02
790.271	40.68
790.447	41.08
790.623	39.93
790.799	38.23
790.975	38.2
791.151	36.58
791.327	38.21
791.502	38.25
791.678	37.51
791.854	36.51
792.03	35.9
792.205	36.76
792.381	36.87
792.557	37.33
792.733	38.74
792.908	38.19
793.084	38.62
793.259	38.2
793.435	39.87
793.611	39.39
793.786	40.41
793.962	40.37
794.137	38.92
794.313	38.72
794.488	38.59
794.664	38.14
794.839	39.53
795.015	40.14
795.19	40.24
795.366	41.28
795.541	41.77
795.716	40.96
795.892	41.25
796.067	41.64
796.242	40.45
796.418	38.34
796.593	39.97
796.768	39.38
796.944	38.21
797.119	37.33
797.294	35.09
797.469	34.42
797.644	36.37
797.82	37.25
797.995	37.02
798.17	39.15
798.345	42.07
798.52	38.96
798.695	39.19
798.87	40.5
799.045	40.13
799.22	41.82
799.395	42.62
799.57	41.04
799.745	41.87
799.92	43.25
800.095	43.43
800.27	43.18
800.445	44.81
800.62	43.58
800.795	43.05
800.97	42.85
801.145	40.54
801.319	40.03
801.494	37.16
801.669	35.98
801.844	35.31
802.018	35.68
802.193	35.39
802.368	35.48
802.543	36.14
802.717	37.03
802.892	38.27
803.067	39.5
803.241	39.56
803.416	42.62
803.59	40.31
803.765	39.39
803.94	36.57
804.114	35.83
804.289	36.29
804.463	36.33
804.638	36.61
804.812	37.01
804.986	36.79
805.161	36.83
805.335	38.68
805.51	40.82
805.684	43.68
805.858	44.73
806.033	46.3
806.207	45.98
806.381	46.86
806.556	46.14
806.73	46.54
806.904	47.15
807.078	45.63
807.253	43.98
807.427	44.06
807.601	40.42
807.775	40.6
807.949	39.21
808.123	39.12
808.298	39.64
808.472	40.69
808.646	39.24
808.82	38.96
808.994	39.78
809.168	37.07
809.342	38.45
809.516	39.95
809.69	39.71
809.864	37.83
810.038	37.5
810.212	35.68
810.385	33.61
810.559	35.16
810.733	35.88
810.907	36.06
811.081	39.65
811.255	37.17
811.428	36.87
811.602	37.59
811.776	39.52
811.95	38.4
812.123	38.75
812.297	40.16
812.471	38.21
812.644	39.01
812.818	41.82
812.992	42.71
813.165	44.42
813.339	43.24
813.512	42.48
813.686	41.54
813.86	45.07
814.033	44.33
814.207	43.29
814.38	43.51
814.554	42.38
814.727	41.1
814.9	40.32
815.074	39.26
815.247	40.22
815.421	41.26
815.594	41.08
815.767	37.86
815.941	39.26
816.114	39.83
816.287	38.78
816.46	40.92
816.634	40.39
816.807	41.61
816.98	43.22
817.153	41.97
817.327	41.28
817.5	43.11
817.673	44.18
817.846	45.11
818.019	44.06
818.192	46.49
818.365	44.56
818.538	45.32
818.711	42.49
818.884	40.08
819.057	39.86
819.23	40.28
819.403	38.72
819.576	39.09
819.749	36.9
819.922	38.4
820.095	37.52
820.268	35.4
820.441	34.65
820.614	37.04
820.786	38.17
820.959	39.52
821.132	41.09
821.305	41.32
821.477	42.11
821.65	42.87
821.823	42.5
821.996	43.29
822.168	44.04
822.341	43.47
822.514	43.43
822.686	43.36
822.859	43.39
823.031	42.71
823.204	43.08
823.376	42.78
823.549	42.63
823.722	43.06
823.894	42.78
824.067	42.68
824.239	43.3
824.411	43.19
824.584	43.57
824.756	43.75
824.929	43.87
825.101	43.13
825.273	43.41
825.446	43.91
825.618	43.26
825.79	43.77
825.963	44.16
826.135	44.44
826.307	43.84
826.479	44.06
826.652	44.08
826.824	43.65
826.996	44.59
827.168	43.91
827.34	44.21
827.512	44.38
827.684	44.18
827.856	44.17
828.029	43.42
828.201	43.31
828.373	42.07
828.545	42.06
828.717	42.57
828.889	42.17
829.061	42.18
829.232	40.61
829.404	41.93
829.576	40.72
829.748	40.16
829.92	39.99
830.092	40.71
830.264	40.77
830.436	39.95
830.607	39.76
830.779	40.34
830.951	39.94
831.123	42.16
831.294	40.59
831.466	41.91
831.638	40.53
831.809	40.48
831.981	39.84
832.153	41.69
832.324	40.71
832.496	40.92
832.667	40.04
832.839	39.93
833.011	37.64
833.182	35.57
833.354	33.11
833.525	33.56
833.697	35.72
833.868	35.33
834.039	35.52
834.211	36.51
834.382	36.69
834.554	35.91
834.725	37.24
834.896	36.55
835.068	37.61
835.239	38.07
835.41	38.39
835.581	37.59
835.753	37.53
835.924	36.18
836.095	34.88
836.266	33.87
836.438	34.07
836.609	31.63
836.78	31.82
836.951	32.13
837.122	33.31
837.293	33.09
837.464	33.25
837.635	32.8
837.806	33.57
837.977	37.04
838.148	39.42
838.319	39.98
838.49	43.61
838.661	45.93
838.832	44.52
839.003	44.15
839.174	45.79
839.345	45.06
839.516	48.86
839.687	49.22
839.857	46.79
840.028	45.07
840.199	44.45
840.37	41.32
840.54	40.22
840.711	42.72
840.882	44.85
841.053	48.34
841.223	44.92
841.394	43
841.564	42.79
841.735	42.03
841.906	42.1
842.076	41.42
842.247	42.42
842.417	45.97
842.588	46.34
842.758	39.5
842.929	31.93
843.099	33.83
843.27	36.88
843.44	34.57
843.611	29.14
843.781	30.24
843.951	32.73
844.122	29.01
844.292	26.21
844.462	22.49
844.633	31.14
844.803	29.62
844.973	27.58
845.144	24.33
845.314	25.84
845.484	32.85
845.654	25.62
845.824	28.97
845.995	33.86
846.165	32.27
846.335	29.21
846.505	24.69
846.675	27.2
846.845	28.09
847.015	18.19
847.185	12.54
847.355	14.76
847.525	28.73
847.695	18.43
847.865	23.62
848.035	24.18
848.205	28.3
848.375	27.33
848.545	28.08
848.715	32.57
848.884	44.64
849.054	53.73
849.224	58.53
849.394	55.57
849.564	60.3
849.733	58.98
849.903	56.49
850.073	51.24
850.243	50.6
850.412	48.66
850.582	37.19
850.752	23.98
850.921	16.55
851.091	18.18
851.26	16.59
851.43	5.16
851.599	0.6
851.769	10.22
851.939	14.31
852.108	16.14
852.278	24.08
852.447	26.88
852.616	36.41
852.786	37.11
852.955	39.23
853.125	32.68
853.294	39.92
853.463	33.85
853.633	30.8
853.802	37.78
853.971	35.03
854.141	28.49
854.31	31.9
854.479	21.84
854.648	18.28
854.818	8.92
854.987	21.67
855.156	22.73
855.325	31.95
855.494	34.87
855.663	33.86
855.832	36.44
856.001	34.87
856.171	36.57
856.34	37.47
856.509	37.54
856.678	50.21
856.847	42.39
857.016	35.57
857.185	34.07
857.353	33.16
857.522	19.79
857.691	14.21
857.86	27.06
858.029	24.25
858.198	21.84
858.367	22.9
858.535	10.47
858.704	16.24
858.873	21.39
859.042	10.58
859.21	7.14
859.379	16.33
859.548	16.9
859.717	7.04
859.885	7.89
860.054	15.58
860.222	19.77
860.391	26.54
860.56	25.64
860.728	24.06
860.897	29.64
861.065	38.27
861.234	42
861.402	44.95
861.571	36.01
861.739	33.44
861.908	30.08
862.076	34.64
862.244	22.56
862.413	26.07
862.581	29.39
862.749	25.64
862.918	20.57
863.086	12.35
863.254	5.73
863.423	14.53
863.591	20.88
863.759	26
863.927	12.39
864.096	18.21
864.264	2.36
864.432	-0.7
864.6	7.88
864.768	15.72
864.936	14.42
865.104	18.69
865.272	20.15
865.44	18.72
865.608	18.29
865.776	25.33
865.944	23.8
866.112	24.42
866.28	24.16
866.448	19.91
866.616	16.31
866.784	17.5
866.952	15.81
867.12	19.5
867.288	13.79
867.455	17.55
867.623	14.19
867.791	10.76
867.959	18.85
868.127	20.89
868.294	25.54
868.462	26.9
868.63	27.02
868.797	33.32
868.965	28.55
869.133	36.04
869.3	35.64
869.468	37.06
869.636	41.34
869.803	38.18
869.971	33.92
870.138	35.93
870.306	31.5
870.473	37.39
870.641	27.65
870.808	40.9
870.975	39.12
871.143	32.78
871.31	31.83
871.478	31.53
871.645	32.46
871.812	32.45
871.98	30.31
872.147	28.86
872.314	29.06
872.482	29.36
872.649	16.81
872.816	17.48
872.983	25.61
873.15	28.41
873.318	33.89
873.485	33.64
873.652	35
873.819	30.59
873.986	30.42
874.153	25.13
874.32	24.43
874.487	29.33
874.654	26.99
874.821	21.99
874.988	13.62
875.155	17.31
875.322	16.24
875.489	25.33
875.656	28.31
875.823	30.21
875.99	22.25
876.157	20.3
876.324	22.78
876.49	32.23
876.657	31.6
876.824	41.5
876.991	39.84
877.157	38.94
877.324	31.17
877.491	29.17
877.658	30.13
877.824	32.8
877.991	30.98
878.157	30.63
878.324	27.25
878.491	25.07
878.657	11.85
878.824	10.18
878.99	5.18
879.157	8.46
879.323	9.4
879.49	12.11
879.656	15.16
879.823	17.52
879.989	8.89
880.156	12.6
880.322	12.79
880.488	14.76
880.655	16.37
880.821	25.11
880.987	20.8
881.154	22.06
881.32	19.02
881.486	25.03
881.652	31.45
881.819	35.02
881.985	34.21
882.151	38.09
882.317	44.35
882.483	43.31
882.649	43.38
882.816	45.52
882.982	45.45
883.148	46.89
883.314	45.52
883.48	44.99
883.646	44.58
883.812	44.94
883.978	44.28
884.144	43.98
884.31	43.79
884.476	43.5
884.642	41.69
884.807	41.09
884.973	41
885.139	40.61
885.305	39.91
885.471	40.77
885.637	40.04
885.802	39.67
885.968	35.76
886.134	32.43
886.3	31.7
886.465	30.88
886.631	30.19
886.797	29.9
886.962	28.55
887.128	28.54
887.293	27.16
887.459	25.72
887.625	24.7
887.79	29.31
887.956	33.47
888.121	33.28
888.287	38.29
888.452	42.42
888.618	39.19
888.783	42.3
