Data from LC_273_Reflection_1.txt Node
Date: Sat Nov 21 12:16:15 EST 2015
User: robert
Spectrometer: USB4E03001
Autoset integration time: false
Trigger mode: 4
Integration Time (sec): 1.000000E-1
Scans to average: 15
Electric dark correction enabled: true
Nonlinearity correction enabled: false
Boxcar width: 5
Stray light correction enabled: false
XAxis mode: Wavelengths
Stop averaging: false
Number of Pixels in Spectrum: 3648
>>>>>Begin Spectral Data<<<<<
177.566	-107.3
177.785	-180.14
178.005	-472.03
178.225	211.67
178.445	487.53
178.665	1169.41
178.885	-622.68
179.105	310.35
179.324	183.29
179.544	268.63
179.764	1129.22
179.984	144.06
180.204	206.43
180.423	158.46
180.643	150.71
180.863	185.73
181.083	184.89
181.302	203.44
181.522	167.86
181.742	165.38
181.961	140.05
182.181	104.76
182.401	193.73
182.621	141.64
182.84	144.51
183.06	127.54
183.279	102.58
183.499	118.31
183.719	92.44
183.938	94.83
184.158	108.95
184.377	100.99
184.597	104.01
184.816	96.76
185.036	122.09
185.256	130.79
185.475	116.16
185.695	120.53
185.914	112.33
186.134	126.25
186.353	131.07
186.572	119.15
186.792	121.62
187.011	122.31
187.231	125.35
187.45	114.79
187.67	122.84
187.889	134.07
188.108	178.46
188.328	220.76
188.547	247.65
188.766	238.53
188.986	251.61
189.205	371.72
189.424	673.24
189.644	509.4
189.863	-184.62
190.082	-182.85
190.302	286.32
190.521	-9.89
190.74	35.4
190.959	23.76
191.178	25.03
191.398	18.46
191.617	55.59
191.836	89.98
192.055	94.57
192.274	76.62
192.494	88.29
192.713	82.73
192.932	133.53
193.151	114.03
193.37	106.33
193.589	108.55
193.808	164.46
194.027	147.19
194.246	130.18
194.465	126.78
194.685	135.14
194.904	132.89
195.123	144.26
195.342	158.83
195.561	184.32
195.78	132.01
195.999	158.92
196.218	121.7
196.436	142.97
196.655	138.86
196.874	105.76
197.093	137.03
197.312	154.05
197.531	182.37
197.75	131.94
197.969	109.73
198.188	122.73
198.407	112.31
198.625	124.62
198.844	111.71
199.063	106.41
199.282	120.15
199.501	108.59
199.719	101.44
199.938	86
200.157	93.79
200.376	99.16
200.594	131.18
200.813	128.97
201.032	141.67
201.251	122.51
201.469	147.58
201.688	197.18
201.907	202.96
202.125	156.16
202.344	138.32
202.563	152.01
202.781	157.83
203	171.08
203.218	138.89
203.437	223.53
203.656	424.78
203.874	417.53
204.093	148.25
204.311	101.91
204.53	187.53
204.748	201.37
204.967	292.78
205.185	202.19
205.404	172.42
205.622	492.19
205.841	289.97
206.059	248.68
206.278	266.38
206.496	304.37
206.715	748.27
206.933	441.07
207.151	349.06
207.37	191.71
207.588	342.83
207.806	359.82
208.025	209.24
208.243	199.74
208.461	175.94
208.68	174.06
208.898	211.48
209.116	133.5
209.335	155.83
209.553	193.02
209.771	242.93
209.989	187.43
210.208	193.86
210.426	248.24
210.644	299.5
210.862	459.52
211.081	281.46
211.299	171.15
211.517	232.05
211.735	186.81
211.953	129.02
212.171	108.48
212.39	129.83
212.608	102.86
212.826	99.81
213.044	76.64
213.262	77.39
213.48	82.76
213.698	80.34
213.916	71.72
214.134	63.52
214.352	76.88
214.57	82.51
214.788	74.76
215.006	83.49
215.224	69.6
215.442	63.36
215.66	98.4
215.878	106.26
216.096	152.61
216.314	149.57
216.532	155.28
216.75	150.74
216.968	179.09
217.185	146.47
217.403	166.22
217.621	174.6
217.839	155.98
218.057	137.71
218.275	115.79
218.492	77.93
218.71	77.17
218.928	106.87
219.146	97.9
219.363	107.36
219.581	211.99
219.799	146.1
220.017	118.35
220.234	145.55
220.452	129.98
220.67	154.61
220.887	179.84
221.105	160.99
221.323	135.11
221.54	134.49
221.758	109.86
221.976	97.78
222.193	112.04
222.411	124.18
222.629	103.83
222.846	118.34
223.064	90.4
223.281	84.94
223.499	85.53
223.716	99.35
223.934	91.99
224.151	90.7
224.369	78.53
224.586	65.79
224.804	66.46
225.021	69.28
225.239	67.59
225.456	76.05
225.674	68.34
225.891	61.44
226.108	52.05
226.326	52.79
226.543	50.36
226.76	47.02
226.978	48.38
227.195	35.59
227.413	35.11
227.63	33.44
227.847	33.44
228.064	31.45
228.282	26.28
228.499	26.96
228.716	26.17
228.934	25.55
229.151	27.07
229.368	25.76
229.585	28.61
229.802	30.32
230.02	28.25
230.237	27.29
230.454	28.83
230.671	32.91
230.888	35.3
231.105	33.69
231.323	34.51
231.54	37.3
231.757	36.85
231.974	40.43
232.191	36.02
232.408	36.97
232.625	39.43
232.842	41.53
233.059	42.33
233.276	41.98
233.493	49.4
233.71	48.72
233.927	43.48
234.144	45.17
234.361	41.11
234.578	44.55
234.795	49.18
235.012	46.98
235.229	45.82
235.446	40.85
235.663	37.36
235.879	33.03
236.096	32.37
236.313	37.44
236.53	38.09
236.747	39.87
236.964	35.92
237.181	37.62
237.397	36.24
237.614	33.6
237.831	37.46
238.048	37.96
238.264	36.92
238.481	32.02
238.698	31.39
238.915	27.27
239.131	22.34
239.348	23.38
239.565	18.34
239.781	22.04
239.998	24.42
240.215	20.68
240.431	19.16
240.648	19.93
240.865	24.92
241.081	20.36
241.298	22.4
241.514	24.71
241.731	23.02
241.947	21.69
242.164	19.45
242.38	15.84
242.597	16.29
242.814	17.24
243.03	16.17
243.246	16.12
243.463	17.06
243.679	16.21
243.896	15.14
244.112	16.34
244.329	16.38
244.545	15.76
244.762	19.27
244.978	20.29
245.194	19.11
245.411	20.34
245.627	17.85
245.843	16.19
246.06	15.67
246.276	14.56
246.492	13.53
246.709	13.01
246.925	13.41
247.141	12.77
247.357	12.48
247.574	12.5
247.79	12.03
248.006	12.48
248.222	12.27
248.439	13.15
248.655	13.64
248.871	14.38
249.087	15.2
249.303	15.65
249.519	16.79
249.736	18.28
249.952	19.55
250.168	22.49
250.384	24.13
250.6	25.9
250.816	24.6
251.032	24.64
251.248	24.46
251.464	24.66
251.68	23.33
251.896	22.96
252.112	22.17
252.328	21.76
252.544	21.23
252.76	19.7
252.976	19.37
253.192	19.88
253.408	20.11
253.624	22.21
253.84	22.47
254.056	23.3
254.272	21.22
254.487	20.96
254.703	20.55
254.919	17.75
255.135	18.84
255.351	17.65
255.567	15.7
255.782	13.93
255.998	10.97
256.214	10.58
256.43	13.45
256.646	14.83
256.861	12.34
257.077	13.89
257.293	16.29
257.508	15
257.724	15.83
257.94	18.1
258.155	18.21
258.371	17.33
258.587	15.61
258.802	13.63
259.018	12.93
259.234	13.32
259.449	12.46
259.665	11.64
259.88	12.11
260.096	11.99
260.312	11.54
260.527	11.36
260.743	11.47
260.958	11.91
261.174	11.52
261.389	12.11
261.605	12.13
261.82	11.98
262.036	12.55
262.251	12.3
262.466	12.67
262.682	11.19
262.897	11.11
263.113	11.91
263.328	12.81
263.543	14.55
263.759	13.46
263.974	14.75
264.189	16.16
264.405	17.4
264.62	19.59
264.835	20.4
265.051	21.71
265.266	22.83
265.481	20.46
265.696	19.05
265.912	17.96
266.127	18.44
266.342	18.11
266.557	16.94
266.773	14.81
266.988	13.42
267.203	11.53
267.418	12.06
267.633	11.67
267.848	12.28
268.064	12.15
268.279	13.5
268.494	13.74
268.709	13.57
268.924	13.91
269.139	13.37
269.354	11.99
269.569	11.75
269.784	12.58
269.999	11.55
270.214	13.02
270.429	13.92
270.644	12.22
270.859	10.98
271.074	10.45
271.289	9.57
271.504	10.42
271.719	10.2
271.934	11.73
272.149	10.4
272.363	11
272.578	9.37
272.793	9.14
273.008	10.92
273.223	12.02
273.438	12.86
273.653	14.38
273.867	15.03
274.082	16.39
274.297	15.07
274.512	14.93
274.726	15.14
274.941	15.62
275.156	16.24
275.371	14.53
275.585	15.08
275.8	13.84
276.015	12.53
276.229	11.02
276.444	11.46
276.659	12.75
276.873	13.39
277.088	13.97
277.302	14.69
277.517	13.4
277.732	13.73
277.946	13.73
278.161	15.04
278.375	16.01
278.59	16.78
278.804	16.17
279.019	15.8
279.233	16.1
279.448	15.55
279.662	14.56
279.877	14.51
280.091	14.68
280.306	13.3
280.52	11.88
280.735	11.8
280.949	10.82
281.163	10.4
281.378	9.73
281.592	8.61
281.806	8.61
282.021	9.52
282.235	10.34
282.449	10.43
282.664	10.69
282.878	11.14
283.092	11.51
283.307	12.04
283.521	11.93
283.735	12.42
283.949	13.69
284.164	12.37
284.378	11.93
284.592	10.54
284.806	10.87
285.02	10.54
285.234	10.96
285.449	9.94
285.663	10.42
285.877	10.95
286.091	11.06
286.305	10.59
286.519	11.46
286.733	11.93
286.947	13.59
287.161	12.92
287.375	13.12
287.589	12.56
287.803	12.59
288.017	12.51
288.231	11.77
288.445	11.62
288.659	11.71
288.873	12.26
289.087	11.85
289.301	10.19
289.515	10.24
289.729	10.83
289.943	11.2
290.157	11.67
290.371	12.08
290.584	13.28
290.798	13.18
291.012	12.99
291.226	13.08
291.44	13.07
291.654	13.64
291.867	14.17
292.081	14.1
292.295	14.44
292.509	14.97
292.722	14.87
292.936	14.82
293.15	15.05
293.364	15.88
293.577	15.25
293.791	16.14
294.005	15.56
294.218	14.98
294.432	14.83
294.645	14.33
294.859	13.11
295.073	12.19
295.286	11.34
295.5	12.19
295.713	11.58
295.927	11.41
296.14	11.52
296.354	12.23
296.568	12.74
296.781	12.16
296.994	12.54
297.208	12.98
297.421	13.77
297.635	13.95
297.848	12.65
298.062	12.94
298.275	13.54
298.489	12.81
298.702	12.87
298.915	12.34
299.129	12.83
299.342	12.5
299.555	12.94
299.769	12.86
299.982	13.61
300.195	14.97
300.409	15.4
300.622	14.98
300.835	15.9
301.048	16.65
301.262	17.43
301.475	17.4
301.688	17.55
301.901	18.24
302.115	17.81
302.328	17.14
302.541	17.29
302.754	16.15
302.967	16.37
303.18	16.02
303.393	15.2
303.607	14.2
303.82	14.62
304.033	14.49
304.246	13.94
304.459	14.64
304.672	14.86
304.885	15.22
305.098	16.7
305.311	16.59
305.524	15.98
305.737	15.89
305.95	15.64
306.163	15.2
306.376	15.88
306.589	15.74
306.802	14.44
307.015	13.88
307.228	14.18
307.44	13.33
307.653	14.52
307.866	15.22
308.079	15.76
308.292	15.82
308.505	16.96
308.718	17
308.93	17.36
309.143	16.39
309.356	15.33
309.569	13.78
309.781	14.45
309.994	13.45
310.207	13.13
310.42	11.8
310.632	11.61
310.845	10.51
311.058	9.8
311.27	9.56
311.483	11.19
311.696	12.22
311.908	12.65
312.121	11.68
312.333	12.47
312.546	13.17
312.759	14.39
312.971	15.39
313.184	16.88
313.396	16.56
313.609	16.29
313.821	16.06
314.034	16.86
314.246	17.85
314.459	18.48
314.671	17.59
314.884	17.38
315.096	17.18
315.309	15.95
315.521	14.73
315.733	16.05
315.946	16.65
316.158	15.23
316.371	15.42
316.583	14.36
316.795	14.6
317.008	14.64
317.22	13.67
317.432	14.58
317.644	16.18
317.857	16.72
318.069	16.04
318.281	15.74
318.494	17.55
318.706	16.96
318.918	17.08
319.13	17.48
319.342	18.05
319.555	17.31
319.767	16.99
319.979	17.11
320.191	17.27
320.403	18.39
320.615	17.06
320.827	17.15
321.039	16.98
321.252	17.86
321.464	17.1
321.676	16.19
321.888	17.75
322.1	16.84
322.312	16.54
322.524	15.62
322.736	15.97
322.948	18.96
323.16	19.06
323.372	20.27
323.584	20.85
323.796	22.61
324.007	23.5
324.219	23.54
324.431	24.46
324.643	25.04
324.855	25.79
325.067	26.63
325.279	26.05
325.491	26.82
325.702	26.79
325.914	27.59
326.126	26.37
326.338	26.01
326.55	26.86
326.761	27.04
326.973	27.05
327.185	28.44
327.396	27.15
327.608	27.35
327.82	27.57
328.032	27.95
328.243	27.57
328.455	27.88
328.666	29.73
328.878	30.47
329.09	31.44
329.301	34
329.513	34.19
329.725	35.87
329.936	36.36
330.148	36.03
330.359	36.98
330.571	38.16
330.782	39.18
330.994	39.15
331.205	39.67
331.417	39.89
331.628	39.12
331.84	39.91
332.051	40.66
332.262	41.54
332.474	42.25
332.685	41.8
332.897	41.22
333.108	40.96
333.319	41.49
333.531	41.35
333.742	41.67
333.953	41.91
334.165	41.31
334.376	40.6
334.587	40.83
334.799	41.86
335.01	42.49
335.221	43.13
335.432	44.39
335.644	44.24
335.855	44.91
336.066	45.37
336.277	45.82
336.488	45.78
336.7	44.98
336.911	44.06
337.122	43.73
337.333	44.15
337.544	44.01
337.755	44.14
337.966	44.23
338.177	43.77
338.388	43.35
338.599	43.2
338.811	42.89
339.022	43.37
339.233	43.41
339.444	43.11
339.655	42.47
339.866	42.93
340.076	42.54
340.287	42.96
340.498	43.24
340.709	43.15
340.92	43.28
341.131	43.79
341.342	43.9
341.553	45.45
341.764	45.12
341.975	44.67
342.185	43.55
342.396	43.67
342.607	43.53
342.818	43.34
343.029	43.96
343.239	44.04
343.45	44.14
343.661	44.95
343.872	44.03
344.082	45.03
344.293	45.44
344.504	45.82
344.714	45.79
344.925	45.88
345.136	45.81
345.346	45.7
345.557	44.85
345.768	44.79
345.978	44.67
346.189	44.46
346.399	43.56
346.61	43.59
346.821	43.74
347.031	43.76
347.242	43.6
347.452	43.92
347.663	43.45
347.873	44.36
348.084	44.71
348.294	44.58
348.504	45.12
348.715	45.24
348.925	45.26
349.136	45.51
349.346	45.82
349.557	45.14
349.767	45.9
349.977	45.9
350.188	45.54
350.398	45.05
350.608	44.8
350.819	44.91
351.029	44.73
351.239	44.82
351.449	44.92
351.66	44.84
351.87	45.58
352.08	44.56
352.29	44.37
352.501	43.66
352.711	44.52
352.921	44.33
353.131	43.59
353.341	43.72
353.552	43.56
353.762	42.83
353.972	42.5
354.182	42.43
354.392	42.72
354.602	43.17
354.812	43.4
355.022	42.59
355.232	42.59
355.442	42.86
355.652	42.88
355.862	42.81
356.072	42.73
356.282	42.95
356.492	42.67
356.702	42.02
356.912	41.37
357.122	41.86
357.332	41.37
357.542	41.25
357.752	41.1
357.962	41.35
358.171	40.85
358.381	40.89
358.591	40.22
358.801	39.81
359.011	40.14
359.221	40.02
359.43	39.62
359.64	40
359.85	39.93
360.06	39.78
360.269	39.95
360.479	39.93
360.689	39.16
360.899	39.35
361.108	39.1
361.318	38.91
361.528	39.08
361.737	39.15
361.947	39.1
362.156	39.18
362.366	39.52
362.576	38.87
362.785	38.59
362.995	39.09
363.204	38.78
363.414	39.23
363.623	39.37
363.833	39.13
364.042	39.21
364.252	39.05
364.461	38.38
364.671	38.28
364.88	38.73
365.09	39.22
365.299	39.22
365.509	39.52
365.718	39.16
365.927	39.16
366.137	38.93
366.346	38.61
366.555	38.04
366.765	38.34
366.974	37.85
367.183	37.33
367.393	37.16
367.602	37.5
367.811	37.23
368.021	37.31
368.23	36.91
368.439	37.11
368.648	36.99
368.857	37.31
369.067	36.82
369.276	36.86
369.485	37.37
369.694	37.46
369.903	36.69
370.112	36.45
370.321	36.5
370.531	36.2
370.74	35.98
370.949	35.95
371.158	35.91
371.367	35.83
371.576	35.23
371.785	34.4
371.994	34.23
372.203	34.26
372.412	34.67
372.621	34.47
372.83	34.25
373.039	33.88
373.248	33.71
373.457	33.65
373.666	33.66
373.874	33.73
374.083	34.16
374.292	34.09
374.501	33.72
374.71	33.21
374.919	32.82
375.128	33.44
375.336	33.78
375.545	33.65
375.754	33.26
375.963	33.17
376.171	33.11
376.38	32.41
376.589	31.69
376.798	31.65
377.006	31.51
377.215	31.63
377.424	31.26
377.632	31.26
377.841	30.74
378.05	30.86
378.258	30.83
378.467	30.65
378.675	30.95
378.884	31.09
379.093	30.93
379.301	30.78
379.51	30.89
379.718	30.7
379.927	30.89
380.135	31.17
380.344	31.12
380.552	31.22
380.761	31.3
380.969	31.21
381.177	31.05
381.386	30.59
381.594	30.65
381.803	30.17
382.011	29.85
382.219	29.18
382.428	28.97
382.636	28.44
382.845	28.48
383.053	28.28
383.261	28
383.469	28.24
383.678	28.78
383.886	28.93
384.094	28.85
384.302	28.61
384.511	28.51
384.719	28.14
384.927	28.44
385.135	28.3
385.343	28.11
385.552	28.36
385.76	28.22
385.968	28.23
386.176	27.86
386.384	27.87
386.592	27.86
386.8	27.85
387.008	27.96
387.216	28.03
387.424	28.09
387.633	27.95
387.841	27.42
388.049	27.38
388.257	27.43
388.465	27.33
388.672	27.06
388.88	26.8
389.088	26.67
389.296	26.3
389.504	25.97
389.712	25.63
389.92	25.59
390.128	25.49
390.336	25.12
390.544	24.88
390.751	24.82
390.959	24.76
391.167	24.86
391.375	24.98
391.583	24.86
391.79	24.39
391.998	24.39
392.206	24.43
392.414	24.23
392.621	24.39
392.829	24.05
393.037	23.94
393.244	23.93
393.452	23.71
393.66	23.65
393.867	23.88
394.075	24.24
394.283	24.04
394.49	23.98
394.698	24.05
394.905	23.92
395.113	23.93
395.32	23.74
395.528	23.75
395.735	23.69
395.943	23.34
396.15	23.36
396.358	23.08
396.565	22.87
396.773	22.8
396.98	22.91
397.188	22.79
397.395	22.55
397.602	22.34
397.81	22.22
398.017	22.25
398.225	22.4
398.432	22.54
398.639	22.43
398.847	22.37
399.054	22.43
399.261	22.38
399.468	22.22
399.676	22.45
399.883	22.74
400.09	22.76
400.297	22.96
400.505	22.66
400.712	22.34
400.919	22.32
401.126	22.49
401.333	22.16
401.54	21.82
401.748	21.97
401.955	21.99
402.162	22.15
402.369	22.01
402.576	21.44
402.783	21.45
402.99	21.16
403.197	21.41
403.404	21.33
403.611	21.34
403.818	21.22
404.025	21.18
404.232	21.04
404.439	20.79
404.646	20.82
404.853	21.35
405.06	21.33
405.267	21.75
405.474	21.74
405.681	21.92
405.887	21.96
406.094	22.15
406.301	22.02
406.508	22.01
406.715	22
406.922	21.74
407.128	21.58
407.335	21.75
407.542	21.64
407.749	21.54
407.955	21.3
408.162	21.31
408.369	21.64
408.575	21.87
408.782	21.83
408.989	22.1
409.195	22.41
409.402	22.29
409.609	22.05
409.815	21.61
410.022	21.48
410.228	21.58
410.435	21.6
410.642	20.99
410.848	20.98
411.055	21.13
411.261	20.79
411.468	20.55
411.674	20.34
411.881	20.12
412.087	20.32
412.294	20.56
412.5	20.45
412.706	20.46
412.913	21.14
413.119	20.9
413.326	20.71
413.532	20.77
413.738	20.98
413.945	21.19
414.151	21.41
414.357	21.29
414.564	21.27
414.77	21.48
414.976	21.44
415.182	21.06
415.389	21.1
415.595	21.13
415.801	21.14
416.007	20.96
416.214	20.93
416.42	20.88
416.626	21.08
416.832	20.8
417.038	20.58
417.244	20.54
417.45	20.73
417.657	20.63
417.863	20.73
418.069	20.79
418.275	21
418.481	20.83
418.687	20.74
418.893	20.43
419.099	20.43
419.305	20.42
419.511	20.39
419.717	20.16
419.923	20.16
420.129	20.04
420.335	19.94
420.541	19.69
420.746	19.77
420.952	19.89
421.158	19.94
421.364	19.92
421.57	19.83
421.776	19.77
421.982	19.79
422.187	19.76
422.393	19.6
422.599	19.53
422.805	19.52
423.01	19.53
423.216	19.55
423.422	19.52
423.628	19.59
423.833	19.58
424.039	19.6
424.245	19.5
424.45	19.5
424.656	19.46
424.862	19.46
425.067	19.45
425.273	19.42
425.478	19.35
425.684	19.34
425.889	19.25
426.095	19.38
426.301	19.34
426.506	19.32
426.712	19.07
426.917	19.19
427.123	19.27
427.328	19.41
427.533	19.38
427.739	19.4
427.944	19.53
428.15	19.44
428.355	19.39
428.561	19.42
428.766	19.46
428.971	19.81
429.177	20.05
429.382	20.07
429.587	20.07
429.793	20.15
429.998	20.22
430.203	20.19
430.408	20.18
430.614	20
430.819	19.91
431.024	19.87
431.229	19.8
431.434	19.66
431.64	19.55
431.845	19.5
432.05	19.5
432.255	19.35
432.46	19.26
432.665	19.26
432.87	19.25
433.076	19.37
433.281	19.39
433.486	19.35
433.691	19.5
433.896	19.38
434.101	19.38
434.306	19.28
434.511	19.14
434.716	19.18
434.921	19.16
435.126	19.32
435.331	19.37
435.535	19.38
435.74	19.39
435.945	19.05
436.15	19.14
436.355	19.22
436.56	19.25
436.765	19.54
436.97	19.66
437.174	19.84
437.379	19.87
437.584	19.88
437.789	19.94
437.993	19.9
438.198	20
438.403	20.08
438.608	19.99
438.812	19.8
439.017	19.76
439.222	19.74
439.426	19.62
439.631	19.65
439.836	19.57
440.04	19.58
440.245	19.59
440.45	19.6
440.654	19.5
440.859	19.29
441.063	19.3
441.268	19.19
441.472	19.21
441.677	19.31
441.881	19.33
442.086	19.16
442.29	19.13
442.495	19.2
442.699	19.15
442.904	19.13
443.108	19.21
443.312	19.32
443.517	19.38
443.721	19.2
443.925	19.02
444.13	18.7
444.334	18.83
444.538	18.72
444.743	18.58
444.947	18.58
445.151	18.43
445.356	18.46
445.56	18.44
445.764	18.24
445.968	18.29
446.173	18.27
446.377	18.38
446.581	18.3
446.785	18.27
446.989	18.26
447.193	18.26
447.398	18.37
447.602	18.36
447.806	18.22
448.01	18.32
448.214	18.16
448.418	18.13
448.622	17.98
448.826	17.87
449.03	17.86
449.234	17.91
449.438	17.74
449.642	17.49
449.846	17.59
450.05	17.56
450.254	17.43
450.458	17.33
450.662	17.39
450.866	17.42
451.069	17.44
451.273	17.43
451.477	17.24
451.681	17.31
451.885	17.38
452.089	17.2
452.292	17.52
452.496	17.52
452.7	17.62
452.904	17.53
453.107	17.49
453.311	17.51
453.515	17.4
453.719	17.62
453.922	17.69
454.126	17.59
454.33	17.66
454.533	17.38
454.737	17.41
454.94	17.47
455.144	17.66
455.348	17.65
455.551	17.66
455.755	17.74
455.958	17.78
456.162	17.87
456.365	18.03
456.569	18.07
456.772	18.13
456.976	18.14
457.179	18.07
457.383	17.94
457.586	18
457.79	18.08
457.993	18.25
458.196	18.14
458.4	18.03
458.603	18.09
458.807	18.02
459.01	18.07
459.213	18.12
459.417	18.16
459.62	18.13
459.823	18.03
460.026	18.03
460.23	17.87
460.433	17.81
460.636	17.73
460.839	17.76
461.042	17.8
461.246	17.67
461.449	17.71
461.652	17.64
461.855	17.63
462.058	17.8
462.261	17.68
462.464	17.84
462.668	17.98
462.871	18.27
463.074	18.15
463.277	18.18
463.48	18.29
463.683	18.22
463.886	18.3
464.089	18.47
464.292	18.48
464.495	18.54
464.698	18.58
464.901	18.6
465.104	18.68
465.306	18.9
465.509	18.92
465.712	19.08
465.915	19.19
466.118	19.48
466.321	19.43
466.524	19.37
466.726	19.67
466.929	19.72
467.132	19.76
467.335	19.7
467.538	19.58
467.74	19.59
467.943	19.57
468.146	19.64
468.348	19.56
468.551	19.58
468.754	19.76
468.956	19.72
469.159	19.77
469.362	19.73
469.564	19.81
469.767	20.11
469.969	20.24
470.172	20.28
470.375	20.26
470.577	20.51
470.78	20.52
470.982	20.44
471.185	20.53
471.387	20.67
471.59	20.77
471.792	20.68
471.995	20.63
472.197	20.67
472.399	20.72
472.602	20.71
472.804	20.41
473.007	20.42
473.209	20.52
473.411	20.27
473.614	20.15
473.816	20.28
474.018	20.3
474.22	20.25
474.423	20.22
474.625	20.17
474.827	20.32
475.03	20.48
475.232	20.66
475.434	20.67
475.636	20.73
475.838	20.79
476.04	20.58
476.243	20.51
476.445	20.46
476.647	20.41
476.849	20.38
477.051	20.25
477.253	20.23
477.455	20.14
477.657	19.97
477.859	19.95
478.061	19.79
478.263	19.83
478.465	19.91
478.667	19.85
478.869	19.77
479.071	19.87
479.273	19.83
479.475	19.76
479.677	19.71
479.879	19.74
480.081	19.8
480.283	19.95
480.485	19.9
480.686	19.99
480.888	20.05
481.09	20.05
481.292	19.9
481.494	19.87
481.695	19.78
481.897	19.76
482.099	19.72
482.301	19.59
482.502	19.47
482.704	19.46
482.906	19.24
483.107	19.16
483.309	19.12
483.511	19.14
483.712	19.12
483.914	19.15
484.115	19.08
484.317	19.09
484.519	19.06
484.72	19.02
484.922	18.97
485.123	19.03
485.325	19.09
485.526	19.09
485.728	19.07
485.929	19.12
486.131	19.07
486.332	19.17
486.534	19.18
486.735	19.23
486.936	19.34
487.138	19.42
487.339	19.5
487.541	19.46
487.742	19.5
487.943	19.58
488.144	19.59
488.346	19.65
488.547	19.64
488.748	19.62
488.95	19.72
489.151	19.75
489.352	19.79
489.553	19.8
489.755	19.83
489.956	19.93
490.157	19.96
490.358	20.08
490.559	20.09
490.76	20.22
490.961	20.32
491.163	20.31
491.364	20.41
491.565	20.49
491.766	20.57
491.967	20.69
492.168	20.7
492.369	20.73
492.57	20.74
492.771	20.84
492.972	20.86
493.173	21
493.374	21.12
493.575	21.17
493.776	21.24
493.976	21.31
494.177	21.5
494.378	21.68
494.579	21.96
494.78	22.17
494.981	22.44
495.182	22.73
495.382	22.86
495.583	23.04
495.784	23.1
495.985	23.2
496.185	23.41
496.386	23.47
496.587	23.61
496.788	23.67
496.988	23.71
497.189	23.78
497.39	23.85
497.59	24.04
497.791	24.14
497.992	24.23
498.192	24.37
498.393	24.48
498.593	24.73
498.794	24.95
498.994	25.1
499.195	25.33
499.395	25.57
499.596	25.81
499.796	26.06
499.997	26.36
500.197	26.68
500.398	26.87
500.598	27.04
500.799	27.07
500.999	27.24
501.199	27.41
501.4	27.65
501.6	27.77
501.801	27.92
502.001	28.05
502.201	28.23
502.402	28.42
502.602	28.75
502.802	29.03
503.002	29.45
503.203	29.71
503.403	29.92
503.603	30.17
503.803	30.38
504.003	30.64
504.204	31.02
504.404	31.38
504.604	31.58
504.804	31.82
505.004	31.95
505.204	32.1
505.404	32.27
505.604	32.46
505.804	32.52
506.005	32.84
506.205	33.11
506.405	33.27
506.605	33.41
506.805	33.7
507.005	33.85
507.204	34.1
507.404	34.26
507.604	34.6
507.804	34.87
508.004	35.26
508.204	35.49
508.404	35.71
508.604	35.84
508.804	36.07
509.003	36.3
509.203	36.63
509.403	36.76
509.603	37.14
509.803	37.27
510.002	37.52
510.202	37.8
510.402	37.88
510.602	38.02
510.801	38.33
511.001	38.63
511.201	38.86
511.4	39.12
511.6	39.53
511.8	39.74
511.999	40
512.199	40.26
512.398	40.43
512.598	40.92
512.797	41.15
512.997	41.4
513.197	41.49
513.396	41.81
513.596	42.1
513.795	42.34
513.994	42.49
514.194	42.78
514.393	43.13
514.593	43.48
514.792	43.57
514.992	43.93
515.191	44.18
515.39	44.5
515.59	44.7
515.789	44.9
515.988	45.04
516.188	45.47
516.387	45.78
516.586	46.02
516.786	46.24
516.985	46.54
517.184	46.87
517.383	47.14
517.582	47.49
517.782	47.73
517.981	47.93
518.18	48.26
518.379	48.47
518.578	48.53
518.777	48.81
518.976	49.02
519.176	49.16
519.375	49.29
519.574	49.49
519.773	49.47
519.972	49.63
520.171	49.82
520.37	49.91
520.569	50.07
520.768	50.43
520.967	50.49
521.166	50.6
521.365	50.73
521.564	50.86
521.762	51.01
521.961	51.29
522.16	51.41
522.359	51.55
522.558	51.79
522.757	51.98
522.956	52.07
523.154	52.24
523.353	52.47
523.552	52.84
523.751	53.04
523.949	53.15
524.148	53.3
524.347	53.78
524.546	54.12
524.744	54.42
524.943	54.49
525.142	54.68
525.34	54.87
525.539	55.05
525.737	55.16
525.936	55.34
526.135	55.57
526.333	55.87
526.532	55.82
526.73	55.88
526.929	56
527.127	56.32
527.326	56.37
527.524	56.47
527.723	56.65
527.921	56.76
528.12	56.83
528.318	56.74
528.516	56.71
528.715	56.82
528.913	56.9
529.112	56.94
529.31	56.95
529.508	57.05
529.707	57.2
529.905	57.21
530.103	57.24
530.301	57.34
530.5	57.66
530.698	57.81
530.896	57.94
531.094	58.05
531.293	58.13
531.491	58.26
531.689	58.34
531.887	58.49
532.085	58.54
532.283	58.74
532.481	58.81
532.68	58.85
532.878	59.08
533.076	59.14
533.274	59.23
533.472	59.35
533.67	59.3
533.868	59.44
534.066	59.38
534.264	59.52
534.462	59.5
534.66	59.52
534.858	59.57
535.056	59.58
535.253	59.66
535.451	59.71
535.649	59.8
535.847	60.01
536.045	60.15
536.243	60.27
536.441	60.29
536.638	60.52
536.836	60.62
537.034	60.67
537.232	60.63
537.43	60.8
537.627	60.91
537.825	61
538.023	61.01
538.22	61.08
538.418	61.13
538.616	61.3
538.813	61.31
539.011	61.48
539.209	61.38
539.406	61.62
539.604	61.6
539.801	61.64
539.999	61.69
540.196	61.92
540.394	61.86
540.591	61.79
540.789	61.75
540.986	61.73
541.184	61.78
541.381	61.75
541.579	61.75
541.776	61.63
541.974	61.6
542.171	61.62
542.368	61.5
542.566	61.56
542.763	61.67
542.96	61.73
543.158	61.74
543.355	61.7
543.552	61.98
543.75	62.02
543.947	62.25
544.144	62.33
544.341	62.44
544.539	62.6
544.736	62.61
544.933	62.56
545.13	62.68
545.327	62.83
545.524	62.84
545.722	62.74
545.919	62.76
546.116	62.69
546.313	62.75
546.51	62.67
546.707	62.57
546.904	62.68
547.101	62.74
547.298	62.64
547.495	62.61
547.692	62.62
547.889	62.78
548.086	62.84
548.283	62.94
548.48	62.95
548.677	62.97
548.874	63.03
549.07	62.96
549.267	63.2
549.464	63.23
549.661	63.15
549.858	63.3
550.055	63.12
550.251	62.99
550.448	63.09
550.645	63.11
550.842	63.05
551.038	63.12
551.235	63.21
551.432	62.9
551.628	62.79
551.825	62.92
552.022	63.05
552.218	63.16
552.415	63.29
552.612	63.31
552.808	63.21
553.005	63.3
553.201	63.29
553.398	63.09
553.594	63.29
553.791	63.39
553.987	63.45
554.184	63.2
554.38	63.17
554.577	63.29
554.773	63.4
554.97	63.47
555.166	63.43
555.362	63.42
555.559	63.47
555.755	63.21
555.952	63.25
556.148	63.29
556.344	63.54
556.541	63.55
556.737	63.27
556.933	63.14
557.129	63.27
557.326	63.31
557.522	63.49
557.718	63.74
557.914	63.87
558.11	63.99
558.307	63.86
558.503	63.73
558.699	63.78
558.895	63.76
559.091	63.83
559.287	64.02
559.483	64.14
559.679	64.12
559.876	64.2
560.072	64.35
560.268	64.23
560.464	64.58
560.66	64.74
560.856	64.84
561.052	65.08
561.247	65.25
561.443	64.99
561.639	65.02
561.835	65.02
562.031	64.9
562.227	64.78
562.423	64.87
562.619	64.66
562.815	64.71
563.01	64.62
563.206	64.76
563.402	64.35
563.598	64.34
563.793	64.28
563.989	64.13
564.185	64.11
564.381	64.02
564.576	64.08
564.772	64.32
564.968	64.29
565.163	64.13
565.359	64.01
565.555	64.08
565.75	64.23
565.946	64.42
566.141	64.49
566.337	64.49
566.532	64.65
566.728	64.72
566.923	64.51
567.119	64.41
567.314	64.71
567.51	64.7
567.705	64.8
567.901	64.67
568.096	64.56
568.292	64.46
568.487	64.34
568.682	64.27
568.878	64.13
569.073	64.07
569.268	64.02
569.464	63.87
569.659	63.94
569.854	64.03
570.05	64.05
570.245	63.97
570.44	64.04
570.635	64.41
570.831	64.48
571.026	64.44
571.221	64.49
571.416	64.57
571.611	64.6
571.806	64.58
572.002	64.65
572.197	64.84
572.392	64.92
572.587	64.9
572.782	64.79
572.977	64.77
573.172	64.8
573.367	65.06
573.562	65.12
573.757	65.1
573.952	65.08
574.147	65.08
574.342	64.79
574.537	64.73
574.732	64.8
574.927	64.85
575.121	64.87
575.316	64.99
575.511	64.71
575.706	64.6
575.901	64.55
576.096	64.56
576.29	64.38
576.485	64.59
576.68	64.65
576.875	64.66
577.069	64.62
577.264	64.77
577.459	64.59
577.654	64.71
577.848	64.86
578.043	64.84
578.238	64.76
578.432	64.8
578.627	64.52
578.821	64.46
579.016	64.45
579.21	64.15
579.405	63.99
579.6	64.26
579.794	64.32
579.989	64.26
580.183	64.78
580.378	64.84
580.572	65.06
580.766	65.22
580.961	65.35
581.155	65.45
581.35	65.81
581.544	65.91
581.738	65.77
581.933	65.77
582.127	65.75
582.321	65.38
582.516	65.31
582.71	65.04
582.904	65.17
583.099	65.01
583.293	64.86
583.487	64.94
583.681	64.92
583.875	64.9
584.07	64.92
584.264	64.92
584.458	64.86
584.652	64.83
584.846	64.9
585.04	65
585.234	65.2
585.428	65.16
585.623	65.23
585.817	65.28
586.011	65.25
586.205	65.22
586.399	65.27
586.593	65.35
586.787	65.64
586.981	65.64
587.174	65.66
587.368	65.55
587.562	65.58
587.756	65.56
587.95	65.38
588.144	65.52
588.338	65.21
588.532	65.19
588.725	65.08
588.919	64.9
589.113	64.74
589.307	64.61
589.501	64.44
589.694	64.69
589.888	64.46
590.082	64.73
590.275	64.58
590.469	64.73
590.663	64.63
590.856	64.86
591.05	64.84
591.244	65.06
591.437	65.07
591.631	65.29
591.824	65.3
592.018	65.51
592.212	65.14
592.405	65.18
592.599	65.2
592.792	65.21
592.986	65.02
593.179	65.22
593.372	65
593.566	64.95
593.759	64.91
593.953	64.93
594.146	64.75
594.339	64.95
594.533	64.97
594.726	65.04
594.92	65.04
595.113	65.23
595.306	65.21
595.499	65.42
595.693	65.23
595.886	65.31
596.079	65.19
596.272	65.23
596.466	64.98
596.659	64.95
596.852	64.82
597.045	64.87
597.238	64.53
597.431	64.34
597.624	64.38
597.818	64.4
598.011	64.2
598.204	64.13
598.397	64.01
598.59	63.94
598.783	63.85
598.976	63.8
599.169	63.71
599.362	63.72
599.555	63.91
599.748	63.67
599.941	63.87
600.134	64.2
600.326	64.03
600.519	64.08
600.712	64.3
600.905	64.7
601.098	64.8
601.291	64.96
601.483	64.96
601.676	64.61
601.869	64.84
602.062	64.81
602.255	64.77
602.447	64.72
602.64	64.8
602.833	64.55
603.025	64.17
603.218	64.2
603.411	64.04
603.603	64.07
603.796	64.04
603.989	63.98
604.181	63.89
604.374	63.67
604.566	63.77
604.759	63.46
604.951	63.57
605.144	63.58
605.336	63.73
605.529	63.65
605.721	63.61
605.914	63.67
606.106	63.42
606.299	63.32
606.491	63.28
606.683	63.37
606.876	63.26
607.068	63.33
607.26	63.32
607.453	62.99
607.645	63.07
607.837	63.28
608.03	63.29
608.222	63.36
608.414	63.32
608.606	63.25
608.799	63.12
608.991	63.36
609.183	63.43
609.375	63.47
609.567	63.25
609.759	63.28
609.952	62.98
610.144	62.85
610.336	62.78
610.528	62.77
610.72	62.53
610.912	62.39
611.104	62.36
611.296	62.09
611.488	62.07
611.68	62.06
611.872	61.92
612.064	61.97
612.256	61.96
612.448	61.89
612.64	61.86
612.832	62.27
613.023	62.55
613.215	62.54
613.407	62.57
613.599	62.35
613.791	62.33
613.983	62.27
614.174	62.25
614.366	62.2
614.558	62.3
614.75	62.24
614.941	62.09
615.133	61.52
615.325	61.49
615.516	61.24
615.708	61.35
615.9	61.56
616.091	61.62
616.283	61.19
616.475	61.44
616.666	61.18
616.858	61.04
617.049	61.01
617.241	61.03
617.432	60.94
617.624	61.29
617.815	61.12
618.007	60.81
618.198	60.66
618.39	60.99
618.581	60.88
618.773	61.23
618.964	61.25
619.155	61.11
619.347	60.95
619.538	60.49
619.729	60.28
619.921	60.27
620.112	60.44
620.303	60.42
620.494	60.22
620.686	60.08
620.877	59.61
621.068	59.55
621.259	59.57
621.451	59.84
621.642	60.14
621.833	60.16
622.024	60.27
622.215	59.99
622.406	59.68
622.597	59.54
622.788	59.34
622.98	59.35
623.171	58.98
623.362	58.93
623.553	58.77
623.744	58.79
623.935	58.54
624.126	58.44
624.317	58.69
624.508	58.71
624.698	58.9
624.889	58.86
625.08	59.09
625.271	59.72
625.462	59.48
625.653	59.55
625.844	59.29
626.034	59.02
626.225	59.06
626.416	58.97
626.607	59.23
626.798	59.33
626.988	59.37
627.179	59.43
627.37	59.22
627.56	59.17
627.751	59.14
627.942	59.21
628.132	59.44
628.323	59.29
628.514	59.17
628.704	59.07
628.895	58.84
629.085	58.71
629.276	58.33
629.466	57.86
629.657	58.04
629.847	57.79
630.038	57.8
630.228	57.67
630.419	57.52
630.609	57.41
630.8	57.38
630.99	57.34
631.181	57.15
631.371	57
631.561	57.57
631.752	57.48
631.942	57.56
632.132	57.63
632.323	57.64
632.513	57.73
632.703	57.97
632.893	57.79
633.084	57.55
633.274	57.59
633.464	57.97
633.654	57.54
633.844	57.49
634.034	57.32
634.225	57.35
634.415	57.45
634.605	57.4
634.795	56.88
634.985	56.72
635.175	57.02
635.365	56.72
635.555	56.22
635.745	56.41
635.935	56.54
636.125	56.49
636.315	56.29
636.505	56.15
636.695	56.02
636.885	56.17
637.075	55.96
637.265	55.54
637.455	55.79
637.644	56.28
637.834	55.91
638.024	55.71
638.214	55.99
638.404	55.58
638.593	55.55
638.783	55.71
638.973	55.62
639.163	55.97
639.352	55.76
639.542	55.84
639.732	55.47
639.921	55.53
640.111	55.44
640.301	55.17
640.49	55.42
640.68	55.24
640.87	54.92
641.059	54.52
641.249	54.34
641.438	54.43
641.628	54.36
641.817	54.19
642.007	54.15
642.196	53.83
642.386	53.61
642.575	53.38
642.764	53.61
642.954	53.63
643.143	54.34
643.333	54.31
643.522	54.39
643.711	54.05
643.901	54.56
644.09	54.86
644.279	55.2
644.469	55.11
644.658	55.57
644.847	55.8
645.036	55.56
645.226	54.93
645.415	54.91
645.604	54.92
645.793	55.08
645.982	54.69
646.171	54.54
646.361	54.19
646.55	54.73
646.739	54.36
646.928	53.99
647.117	54.63
647.306	55.22
647.495	54.81
647.684	55.14
647.873	55.18
648.062	55.35
648.251	55.08
648.44	55.3
648.629	54.82
648.818	54.51
649.007	54.37
649.196	54.02
649.384	53.81
649.573	54
649.762	53.5
649.951	53.69
650.14	53.18
650.328	53.32
650.517	53.36
650.706	53.62
650.895	53.85
651.083	53.86
651.272	53.79
651.461	53.55
651.65	54.11
651.838	54.24
652.027	53.77
652.216	53.93
652.404	53.75
652.593	53.56
652.781	53.15
652.97	53.1
653.158	53.05
653.347	52.8
653.535	52.84
653.724	52.12
653.912	52.5
654.101	52.52
654.289	52.79
654.478	52.66
654.666	52.67
654.855	52.9
655.043	52.99
655.231	53.13
655.42	53.06
655.608	53.1
655.796	53.42
655.985	52.8
656.173	52.81
656.361	52.39
656.55	52.5
656.738	52.31
656.926	52.06
657.114	52.03
657.302	51.83
657.491	51.94
657.679	51.79
657.867	51.71
658.055	51.97
658.243	51.8
658.431	51.86
658.619	51.87
658.807	51.98
658.996	52.29
659.184	52.1
659.372	51.99
659.56	51.55
659.748	51.55
659.936	51.3
660.124	51.45
660.311	51.45
660.499	51.46
660.687	51.36
660.875	50.99
661.063	50.83
661.251	50.53
661.439	50.44
661.627	50.69
661.814	50.39
662.002	50.41
662.19	49.87
662.378	49.88
662.565	49.81
662.753	49.76
662.941	50.27
663.129	50.2
663.316	50.36
663.504	50.23
663.692	50.37
663.879	50.74
664.067	50.76
664.254	50.59
664.442	50.59
664.63	50.36
664.817	50.38
665.005	49.95
665.192	49.83
665.38	49.95
665.567	49.96
665.755	50.33
665.942	50.37
666.13	50.38
666.317	50.35
666.504	50.58
666.692	51.07
666.879	51
667.067	50.85
667.254	50.44
667.441	50.47
667.629	50.05
667.816	49.28
668.003	49.14
668.19	48.87
668.378	49.31
668.565	49.06
668.752	48.68
668.939	48.53
669.127	48.68
669.314	49.38
669.501	49.54
669.688	50.15
669.875	50.39
670.062	50.44
670.249	50.28
670.436	50.15
670.623	49.93
670.81	49.82
670.997	49.85
671.184	49.62
671.371	49.42
671.558	49.14
671.745	48.6
671.932	48.43
672.119	48.54
672.306	48.93
672.493	48.65
672.68	49.14
672.867	48.98
673.054	49.09
673.24	49.02
673.427	48.6
673.614	48.85
673.801	49.32
673.988	49.55
674.174	49.24
674.361	49.22
674.548	48.99
674.734	48.92
674.921	49.04
675.108	48.74
675.294	49.24
675.481	48.98
675.668	48.72
675.854	48.91
676.041	48.61
676.227	48.42
676.414	48.25
676.601	48.75
676.787	49.18
676.974	48.98
677.16	49.5
677.347	49.5
677.533	49.68
677.719	49.57
677.906	49.1
678.092	49.16
678.279	49.38
678.465	49.28
678.651	48.72
678.838	47.96
679.024	48.15
679.21	47.93
679.397	47.56
679.583	47.29
679.769	47.28
679.955	47.3
680.142	47.02
680.328	47.03
680.514	46.89
680.7	46.86
680.886	47.15
681.073	46.81
681.259	46.67
681.445	46.7
681.631	46.56
681.817	46.55
682.003	46.56
682.189	46.76
682.375	46.81
682.561	47.17
682.747	47.68
682.933	47.41
683.119	47.47
683.305	47.65
683.491	47.6
683.677	48.04
683.863	47.96
684.049	47.85
684.235	47.93
684.42	47.85
684.606	47.35
684.792	46.99
684.978	47.05
685.164	46.97
685.349	46.88
685.535	46.95
685.721	46.88
685.907	46.74
686.092	47.06
686.278	46.83
686.464	46.83
686.649	46.88
686.835	46.84
687.021	46.7
687.206	47.14
687.392	46.81
687.577	46.76
687.763	46.78
687.948	46.76
688.134	46.59
688.319	46.63
688.505	46.84
688.69	47.23
688.876	47.35
689.061	47.11
689.247	47
689.432	47.02
689.618	46.51
689.803	46.46
689.988	46.74
690.174	46.47
690.359	46.21
690.544	45.83
690.73	45.74
690.915	45.58
691.1	46.01
691.285	45.92
691.471	45.92
691.656	46.6
691.841	46.21
692.026	46.33
692.211	45.6
692.396	45.71
692.582	45.62
692.767	45.65
692.952	45.22
693.137	44.81
693.322	44.59
693.507	44.52
693.692	44.61
693.877	44.98
694.062	44.35
694.247	45.44
694.432	45.64
694.617	45.75
694.802	45.53
694.987	45.96
695.172	46.4
695.357	46.43
695.541	46.46
695.726	46.1
695.911	46.45
696.096	46.52
696.281	46.31
696.466	46.27
696.65	45.96
696.835	45.76
697.02	45.55
697.204	45.69
697.389	45.66
697.574	45.43
697.759	44.96
697.943	44.63
698.128	44.92
698.312	44.89
698.497	44.59
698.682	44.85
698.866	44.82
699.051	45.06
699.235	44.7
699.42	44.77
699.604	45.08
699.789	45.48
699.973	45.55
700.158	45.25
700.342	45.32
700.527	45.93
700.711	45.65
700.895	45.76
701.08	45.83
701.264	45.77
701.448	45.68
701.633	45.32
701.817	45.42
702.001	45.37
702.186	45.71
702.37	45.19
702.554	44.23
702.738	44.49
702.923	44.73
703.107	44.27
703.291	44.66
703.475	44.62
703.659	44.85
703.843	44.79
704.027	44.69
704.212	44.28
704.396	45.18
704.58	45.81
704.764	45.63
704.948	45.69
705.132	45.58
705.316	45.66
705.5	46.14
705.684	46.44
705.868	46.31
706.052	45.69
706.235	46.06
706.419	45.64
706.603	45.56
706.787	45.49
706.971	44.93
707.155	45.2
707.339	45.06
707.522	44.38
707.706	44.07
707.89	44.13
708.074	45.06
708.257	44.01
708.441	44.09
708.625	43.73
708.808	43.8
708.992	44.09
709.176	43.64
709.359	43.31
709.543	43.84
709.727	44.17
709.91	44.3
710.094	43.97
710.277	44.98
710.461	45.31
710.644	45.76
710.828	45.68
711.011	45.26
711.195	45.23
711.378	45.62
711.562	44.97
711.745	44.8
711.928	44.52
712.112	44.77
712.295	44.39
712.478	44.11
712.662	43.83
712.845	43.35
713.028	43.27
713.212	43.71
713.395	43.23
713.578	43.31
713.761	42.83
713.945	42.52
714.128	42.55
714.311	43.46
714.494	43.16
714.677	43.43
714.86	43.89
715.043	44.28
715.227	44.38
715.41	44.32
715.593	45.02
715.776	45.24
715.959	45.32
716.142	45.51
716.325	44.71
716.508	44.67
716.691	44.67
716.874	44.74
717.057	45.58
717.239	45.52
717.422	45.64
717.605	44.99
717.788	45
717.971	45.18
718.154	44.98
718.337	45.02
718.519	45.69
718.702	46
718.885	46.16
719.068	44.98
719.25	45.62
719.433	45.96
719.616	45.99
719.798	45.95
719.981	46.12
720.164	45.39
720.346	45.42
720.529	44.77
720.712	43.88
720.894	43.49
721.077	44.23
721.259	43.61
721.442	44
721.624	44.09
721.807	44.51
721.989	43.85
722.172	44.76
722.354	44.39
722.537	44.01
722.719	44.18
722.901	44.05
723.084	43.48
723.266	43.4
723.448	42.87
723.631	42.55
723.813	42.4
723.995	42.89
724.178	42.2
724.36	42.06
724.542	42.76
724.724	43.18
724.907	43.74
725.089	43.85
725.271	43.52
725.453	43.88
725.635	44.92
725.817	45.34
725.999	45.29
726.181	45.24
726.364	45.67
726.546	45.53
726.728	44.98
726.91	44.98
727.092	44.77
727.274	45.01
727.456	44.74
727.638	44.39
727.819	44.1
728.001	44.02
728.183	44.16
728.365	44.27
728.547	44.56
728.729	44.27
728.911	44.36
729.093	44.19
729.274	43.77
729.456	43.07
729.638	43.13
729.82	42.94
730.001	42.77
730.183	42.67
730.365	43.15
730.546	42.83
730.728	43.26
730.91	42.81
731.091	42.51
731.273	42.57
731.455	42.77
731.636	43.11
731.818	43.26
731.999	43.34
732.181	43.25
732.362	42.03
732.544	41.96
732.725	42.14
732.907	42.26
733.088	42.39
733.27	42.45
733.451	42.19
733.633	42.06
733.814	41.28
733.995	41.58
734.177	41.83
734.358	42.46
734.539	42.04
734.721	41.5
734.902	41.45
735.083	41.84
735.264	42.07
735.446	42.19
735.627	41.55
735.808	42.51
735.989	42
736.17	42.67
736.351	42.27
736.533	42.21
736.714	42.7
736.895	42.84
737.076	42.94
737.257	42.84
737.438	43.35
737.619	43.21
737.8	42.35
737.981	43.17
738.162	42.99
738.343	43.7
738.524	43.65
738.705	43.4
738.886	43
739.067	43.18
739.247	43.24
739.428	42.48
739.609	42.72
739.79	42.52
739.971	42.19
740.151	41.92
740.332	41.46
740.513	42.23
740.694	42.11
740.874	42.43
741.055	42.2
741.236	42.18
741.417	42.03
741.597	41.76
741.778	42.73
741.958	42.25
742.139	42.15
742.32	42.72
742.5	42.56
742.681	42.22
742.861	41.63
743.042	42.31
743.222	42.12
743.403	42.71
743.583	43.53
743.764	43.01
743.944	43.52
744.124	43.08
744.305	43.49
744.485	43.2
744.666	43.65
744.846	44.06
745.026	42.93
745.207	43.02
745.387	44.07
745.567	42.8
745.747	42.76
745.928	42.47
746.108	42.7
746.288	41.21
746.468	41.09
746.648	41.16
746.829	41.35
747.009	42.12
747.189	42.22
747.369	41.84
747.549	41.85
747.729	42.1
747.909	42.34
748.089	42.43
748.269	42.72
748.449	42.98
748.629	43.73
748.809	42.73
748.989	42.74
749.169	42.56
749.349	42.83
749.529	43.06
749.709	42.55
749.889	42.08
750.068	41.86
750.248	41.81
750.428	42.53
750.608	40.89
750.788	43.06
750.967	42.32
751.147	43.28
751.327	42.97
751.507	43.52
751.686	44.28
751.866	43.69
752.046	43.65
752.225	43.88
752.405	42.54
752.585	43.27
752.764	41.95
752.944	42.98
753.123	41.75
753.303	42
753.482	42.51
753.662	42.05
753.841	42.76
754.021	43.32
754.2	43.1
754.38	44.54
754.559	45.08
754.739	44.9
754.918	44.46
755.097	44.3
755.277	43.68
755.456	43.61
755.635	43.73
755.815	44.13
755.994	43.16
756.173	43.67
756.352	43.47
756.532	42.85
756.711	42.28
756.89	41.6
757.069	41.9
757.248	42.29
757.427	41.19
757.607	40.32
757.786	40.05
757.965	40.12
758.144	39.24
758.323	38.11
758.502	38.79
758.681	39.35
758.86	39.82
759.039	39.55
759.218	38.46
759.397	38.56
759.576	38.82
759.755	38.24
759.934	38.06
760.113	38.91
760.291	38.56
760.47	38.07
760.649	37.72
760.828	37.09
761.007	37.16
761.186	37.47
761.364	37.95
761.543	38.63
761.722	38.45
761.901	38.86
762.079	38.63
762.258	38.79
762.437	38.86
762.615	39.56
762.794	40.17
762.972	40.1
763.151	40.66
763.33	40.61
763.508	40.2
763.687	40.87
763.865	40.77
764.044	40.54
764.222	41.26
764.401	41.54
764.579	41.41
764.758	41.07
764.936	41.74
765.114	41.66
765.293	41.7
765.471	42.34
765.65	42.07
765.828	43.08
766.006	43.22
766.184	43.25
766.363	42.63
766.541	42.08
766.719	42.06
766.898	41.66
767.076	41.72
767.254	41.27
767.432	40
767.61	39.81
767.788	38.14
767.967	38.34
768.145	37.8
768.323	38.37
768.501	39.03
768.679	39.69
768.857	39.23
769.035	39.45
769.213	39.98
769.391	40.9
769.569	41.41
769.747	43.14
769.925	43.98
770.103	44.38
770.281	42.92
770.459	43.32
770.636	42.25
770.814	42.94
770.992	42.76
771.17	42.43
771.348	42.85
771.525	43.01
771.703	41.96
771.881	41.35
772.059	40.86
772.236	41.58
772.414	39.35
772.592	39.47
772.769	40.15
772.947	41.37
773.125	41.78
773.302	41.98
773.48	42.71
773.657	43.42
773.835	44.29
774.013	43.98
774.19	45.39
774.368	48
774.545	48.03
774.723	47.88
774.9	46.15
775.077	45.82
775.255	44.71
775.432	44.29
775.61	43.8
775.787	42.92
775.964	43.06
776.142	43.13
776.319	42.09
776.496	42.73
776.674	42.54
776.851	43.08
777.028	43.62
777.205	44.15
777.382	43.23
777.56	43.22
777.737	44.13
777.914	44.26
778.091	42.78
778.268	43.82
778.445	44.06
778.622	43.7
778.8	43.31
778.977	42.73
779.154	43.69
779.331	43
779.508	43.16
779.685	42.04
779.862	42.3
780.038	42.52
780.215	42.54
780.392	41.59
780.569	41.53
780.746	40.59
780.923	41.67
781.1	40.66
781.277	42.45
781.453	41.59
781.63	39.89
781.807	38.62
781.984	38.58
782.16	36.02
782.337	35.79
782.514	35.37
782.691	36.65
782.867	35.24
783.044	34.32
783.221	32.38
783.397	33.56
783.574	34.54
783.75	36.69
783.927	37.86
784.103	38.75
784.28	40.65
784.456	41.19
784.633	42.18
784.809	41.2
784.986	42.47
785.162	43.92
785.339	43.69
785.515	45.32
785.692	44.12
785.868	45.61
786.044	46.1
786.221	44.31
786.397	45.09
786.573	44.4
786.749	45.05
786.926	45.98
787.102	47.75
787.278	47.93
787.454	47.05
787.631	47.32
787.807	45.12
787.983	45.02
788.159	45.5
788.335	44.98
788.511	44.85
788.687	44.98
788.863	43.55
789.039	42.45
789.216	42.35
789.392	42.34
789.568	43.71
789.744	43.58
789.919	45.72
790.095	45.79
790.271	44.06
790.447	41.37
790.623	41.07
790.799	41.6
790.975	40.97
791.151	40.5
791.327	40.18
791.502	40.33
791.678	40.83
791.854	40.95
792.03	39.69
792.205	39.9
792.381	41.75
792.557	42.5
792.733	43.28
792.908	43.23
793.084	42.47
793.259	43
793.435	42.24
793.611	43.86
793.786	42.26
793.962	44.78
794.137	46.93
794.313	48.1
794.488	47.83
794.664	46.89
794.839	45.96
795.015	47.58
795.19	48.37
795.366	47.97
795.541	45.07
795.716	45.83
795.892	44.84
796.067	45.1
796.242	45.16
796.418	44.16
796.593	44.64
796.768	44.81
796.944	44.5
797.119	43.19
797.294	43.31
797.469	44.11
797.644	43.17
797.82	43.77
797.995	43.29
798.17	41.26
798.345	41.39
798.52	40.93
798.695	40.56
798.87	38.24
799.045	38.05
799.22	37.99
799.395	36.96
799.57	36.06
799.745	37.95
799.92	37.79
800.095	39.57
800.27	40.14
800.445	40.68
800.62	42.33
800.795	43.25
800.97	42.15
801.145	40.87
801.319	43.56
801.494	42.94
801.669	41.76
801.844	41.81
802.018	41.39
802.193	42.69
802.368	40.03
802.543	38.42
802.717	41.08
802.892	41.79
803.067	43.29
803.241	41.47
803.416	42.53
803.59	42.76
803.765	41.92
803.94	43.16
804.114	42.09
804.289	45.87
804.463	46.65
804.638	46.05
804.812	46.49
804.986	47.06
805.161	48.32
805.335	49.48
805.51	46.56
805.684	47.69
805.858	47.02
806.033	48.09
806.207	46.3
806.381	46.23
806.556	44.43
806.73	45.41
806.904	44.77
807.078	44.46
807.253	42.22
807.427	43.39
807.601	42.11
807.775	42.64
807.949	39.95
808.123	42.06
808.298	43
808.472	44.01
808.646	44.11
808.82	44.34
808.994	43.08
809.168	42.57
809.342	44.36
809.516	45.39
809.69	42.92
809.864	45.57
810.038	43.62
810.212	43.94
810.385	43.8
810.559	42.98
810.733	43.17
810.907	43.68
811.081	44.39
811.255	42.93
811.428	44.74
811.602	45.09
811.776	44.81
811.95	43.95
812.123	46.05
812.297	46.86
812.471	47.04
812.644	47.55
812.818	45.62
812.992	47.07
813.165	45.79
813.339	43.93
813.512	47.26
813.686	46.21
813.86	48.66
814.033	47.84
814.207	48.18
814.38	48.39
814.554	45.92
814.727	46.1
814.9	46.29
815.074	47.23
815.247	46.74
815.421	43.87
815.594	43.32
815.767	44.13
815.941	40.59
816.114	39.6
816.287	39.38
816.46	37.06
816.634	38.9
816.807	37.16
816.98	38.51
817.153	41.06
817.327	42.27
817.5	41.58
817.673	39.67
817.846	40.83
818.019	39.88
818.192	41.18
818.365	41.85
818.538	42.46
818.711	42.83
818.884	41.84
819.057	40.17
819.23	40.97
819.403	41.21
819.576	40.61
819.749	40.14
819.922	38.62
820.095	39.23
820.268	42.41
820.441	42.09
820.614	42.17
820.786	42.42
820.959	42.5
821.132	39.32
821.305	39.18
821.477	38.19
821.65	38.73
821.823	40.04
821.996	38.87
822.168	38.14
822.341	37.89
822.514	36.97
822.686	36.32
822.859	35.86
823.031	36.3
823.204	36.61
823.376	36.62
823.549	35.75
823.722	35.34
823.894	35.86
824.067	35.63
824.239	35.74
824.411	36.44
824.584	36.44
824.756	36.45
824.929	36.83
825.101	36.8
825.273	36.86
825.446	38.08
825.618	37.88
825.79	37.7
825.963	37.74
826.135	37.3
826.307	37.39
826.479	38.27
826.652	38.57
826.824	39.01
826.996	38.62
827.168	38.48
827.34	37.99
827.512	38.3
827.684	38.21
827.856	38.62
828.029	39.09
828.201	38.17
828.373	37.12
828.545	37.06
828.717	37.67
828.889	37.83
829.061	38.66
829.232	37.78
829.404	37.78
829.576	37.29
829.748	37.01
829.92	37.55
830.092	39.61
830.264	41.08
830.436	41.21
830.607	39.39
830.779	40.56
830.951	40.98
831.123	39.82
831.294	40.52
831.466	41.5
831.638	44
831.809	42
831.981	42.42
832.153	41.48
832.324	40.23
832.496	40.26
832.667	39.13
832.839	38.72
833.011	42.43
833.182	43.06
833.354	42.66
833.525	41.28
833.697	39.88
833.868	38.6
834.039	36.87
834.211	36.76
834.382	37.04
834.554	37.01
834.725	36.49
834.896	36.16
835.068	36.27
835.239	35.5
835.41	35.13
835.581	37.98
835.753	37.67
835.924	39.99
836.095	41.23
836.266	42.52
836.438	40.01
836.609	42.09
836.78	41.68
836.951	39.55
837.122	40.25
837.293	40.64
837.464	40.93
837.635	38.12
837.806	37.54
837.977	37.21
838.148	34.82
838.319	39.43
838.49	38.02
838.661	40.86
838.832	43.85
839.003	44.49
839.174	43.31
839.345	42.44
839.516	46.38
839.687	45.69
839.857	45.52
840.028	45.35
840.199	44.5
840.37	41.94
840.54	41.46
840.711	39.88
840.882	40.59
841.053	44.42
841.223	38
841.394	39.29
841.564	39.44
841.735	38.8
841.906	39.4
842.076	39.85
842.247	46.27
842.417	45.23
842.588	51.88
842.758	56.3
842.929	52.48
843.099	60.54
843.27	60.31
843.44	62.92
843.611	71
843.781	73.62
843.951	72.88
844.122	71.37
844.292	75.82
844.462	70.57
844.633	64.74
844.803	62.54
844.973	59.86
845.144	63.61
845.314	62.76
845.484	57.08
845.654	52.75
845.824	60.72
845.995	58.27
846.165	56.37
846.335	52.73
846.505	54.39
846.675	59.67
846.845	62.09
847.015	58.66
847.185	58.76
847.355	56.98
847.525	64.43
847.695	59.32
847.865	61.4
848.035	60.39
848.205	57.06
848.375	58.72
848.545	57.23
848.715	52.49
848.884	51.13
849.054	49.85
849.224	49.56
849.394	52.9
849.564	51.86
849.733	46.43
849.903	46.01
850.073	53.48
850.243	50.18
850.412	60.56
850.582	69.3
850.752	70.78
850.921	79.4
851.091	86.43
851.26	81.7
851.43	82.47
851.599	90
851.769	87.87
851.939	76.98
852.108	79.41
852.278	70.85
852.447	66.3
852.616	69.2
852.786	68.34
852.955	57.64
853.125	54.5
853.294	56.27
853.463	52.57
853.633	59.69
853.802	67.65
853.971	56.52
854.141	58.36
854.31	59.73
854.479	52.85
854.648	57.06
854.818	64.57
854.987	66.88
855.156	58.91
855.325	53.41
855.494	45.88
855.663	49.57
855.832	56.93
856.001	55.57
856.171	55.32
856.34	61.25
856.509	59.17
856.678	62.07
856.847	57.6
857.016	59.79
857.185	70.85
857.353	73.1
857.522	67.88
857.691	68.85
857.86	75.82
858.029	73.99
858.198	67.8
858.367	60.61
858.535	62.7
858.704	69.15
858.873	75.98
859.042	66.3
859.21	65.87
859.379	66.76
859.548	61.64
859.717	57.17
859.885	57.11
860.054	66.63
860.222	71.82
860.391	65.07
860.56	64.97
860.728	57.82
860.897	62.86
861.065	63.82
861.234	60.61
861.402	78.65
861.571	79.82
861.739	83.07
861.908	71.08
862.076	69.19
862.244	72.06
862.413	75.87
862.581	65.5
862.749	62.98
862.918	58.57
863.086	60.4
863.254	45.99
863.423	49.9
863.591	61.04
863.759	68.12
863.927	78.55
864.096	74.73
864.264	66.57
864.432	74.82
864.6	85.86
864.768	90.03
864.936	92.18
865.104	94.99
865.272	86.96
865.44	76.22
865.608	72.61
865.776	62.9
865.944	61.74
866.112	66.05
866.28	64.33
866.448	53.28
866.616	55.6
866.784	59.17
866.952	55.29
867.12	57.88
867.288	59.57
867.455	63.38
867.623	63.77
867.791	71.45
867.959	68.04
868.127	79.57
868.294	77.53
868.462	71.09
868.63	66.28
868.797	72.68
868.965	67.95
869.133	55.11
869.3	52.33
869.468	55.19
869.636	47.84
869.803	51.31
869.971	49.71
870.138	55.74
870.306	63.01
870.473	61.78
870.641	56.85
870.808	66.76
870.975	79.68
871.143	79.05
871.31	75.61
871.478	77.67
871.645	77.7
871.812	76.78
871.98	73.71
872.147	69.23
872.314	66.01
872.482	67.46
872.649	64.56
872.816	58.45
872.983	60.59
873.15	60.44
873.318	57.85
873.485	58.78
873.652	57.05
873.819	59.3
873.986	63.4
874.153	64.46
874.32	66.68
874.487	70.2
874.654	76.02
874.821	77.51
874.988	80.08
875.155	84.21
875.322	86.31
875.489	86.46
875.656	89.84
875.823	96.72
875.99	98.55
876.157	87.84
876.324	79.21
876.49	80.29
876.657	80.74
876.824	78.87
876.991	80.39
877.157	78.5
877.324	79.04
877.491	80.11
877.658	74.76
877.824	75.85
877.991	86.12
878.157	91.48
878.324	90.68
878.491	90.09
878.657	95.6
878.824	95.51
878.99	97.98
879.157	100.55
879.323	97.01
879.49	92.56
879.656	90.09
879.823	86.71
879.989	72.74
880.156	66.57
880.322	63.47
880.488	56.8
880.655	48.73
880.821	46.16
880.987	44.37
881.154	40.5
881.32	38.81
881.486	36.45
881.652	34.25
881.819	36.9
881.985	40.35
882.151	41.72
882.317	39.97
882.483	40.37
882.649	39.94
882.816	38.73
882.982	39.25
883.148	41.58
883.314	39.86
883.48	39.75
883.646	39.89
883.812	37.29
883.978	36.99
884.144	39.97
884.31	40.75
884.476	40.51
884.642	42.8
884.807	43.41
884.973	42.55
885.139	43.78
885.305	44.71
885.471	44.59
885.637	45.71
885.802	45.58
885.968	43.22
886.134	44.63
886.3	43.99
886.465	41.84
886.631	41.21
886.797	40.67
886.962	41.58
887.128	43.28
887.293	45.24
887.459	47.11
887.625	48.83
887.79	53.06
887.956	55.62
888.121	59.27
888.287	63.21
888.452	66.6
888.618	71.08
888.783	72.94
