Data from LC_213__Reflection_1.txt Node
Date: Thu Nov 19 12:43:42 EST 2015
User: robert
Spectrometer: USB4E03001
Autoset integration time: false
Trigger mode: 4
Integration Time (sec): 1.000000E-1
Scans to average: 15
Electric dark correction enabled: true
Nonlinearity correction enabled: false
Boxcar width: 5
Stray light correction enabled: false
XAxis mode: Wavelengths
Stop averaging: false
Number of Pixels in Spectrum: 3648
>>>>>Begin Spectral Data<<<<<
177.566	-23.75
177.785	71.26
178.005	281.38
178.225	147.25
178.445	113.05
178.665	65.1
178.885	-117.12
179.105	-392.31
179.324	-198.8
179.544	-489.87
179.764	117.81
179.984	535.5
180.204	514.7
180.423	322.25
180.643	204.91
180.863	136.81
181.083	158.34
181.302	188.72
181.522	326.53
181.742	137.08
181.961	157.87
182.181	150.2
182.401	106.99
182.621	44.28
182.84	4.42
183.06	13.12
183.279	18.19
183.499	10.84
183.719	3.04
183.938	-28.21
184.158	-168.19
184.377	-91.43
184.597	-464.03
184.816	632.79
185.036	279.21
185.256	180.34
185.475	134.85
185.695	120.21
185.914	95
186.134	95.33
186.353	87.87
186.572	160.61
186.792	270.04
187.011	-387.56
187.231	-210.22
187.45	-73.8
187.67	125.99
187.889	197.73
188.108	313.85
188.328	139.62
188.547	170.18
188.766	-411.93
188.986	3.99
189.205	16.06
189.424	42.36
189.644	29.42
189.863	-40.36
190.082	-2.85
190.302	30.86
190.521	-36.05
190.74	-69.64
190.959	-364.88
191.178	-263.5
191.398	-34.93
191.617	-892.02
191.836	-1296.28
192.055	-151.85
192.274	-9.24
192.494	54.77
192.713	58.48
192.932	51.6
193.151	80.09
193.37	29.66
193.589	78.94
193.808	-80.89
194.027	704.4
194.246	458.39
194.465	-394.26
194.685	2115.38
194.904	-145.36
195.123	-762.27
195.342	-289.18
195.561	-228.07
195.78	-1692.9
195.999	-580.24
196.218	617.09
196.436	-3007.69
196.655	120.51
196.874	74.91
197.093	59.21
197.312	-12.58
197.531	39.35
197.75	-354.62
197.969	-46.11
198.188	788.46
198.407	231.28
198.625	120.54
198.844	66.47
199.063	107.04
199.282	68.95
199.501	71.97
199.719	88.95
199.938	74.08
200.157	40.66
200.376	10.93
200.594	40.52
200.813	43.81
201.032	17.84
201.251	37.96
201.469	-106.53
201.688	-45.79
201.907	-45.39
202.125	-125.4
202.344	-64.03
202.563	-4.95
202.781	15.66
203	-22.29
203.218	-28.45
203.437	-54.65
203.656	-45.62
203.874	467.19
204.093	215.56
204.311	-360.06
204.53	-67.37
204.748	-45.2
204.967	-30.23
205.185	-17.6
205.404	-23.7
205.622	-16.54
205.841	-56.49
206.059	-105.17
206.278	-944.97
206.496	-65.75
206.715	-4.23
206.933	-0.82
207.151	-19.49
207.37	-41.03
207.588	-26.77
207.806	-19.81
208.025	-2.59
208.243	-83.54
208.461	-297.69
208.68	-411.71
208.898	-119.97
209.116	5653.85
209.335	-126.58
209.553	105.93
209.771	41.17
209.989	333.92
210.208	66.13
210.426	112.06
210.644	3.54
210.862	20.7
211.081	-48.79
211.299	-9.84
211.517	-49.48
211.735	-989.42
211.953	-119.06
212.171	-58.3
212.39	10.94
212.608	-6.42
212.826	11.38
213.044	-6.9
213.262	38.46
213.48	51.84
213.698	12.09
213.916	59.97
214.134	47.15
214.352	62.8
214.57	86.68
214.788	127.17
215.006	-617.79
215.224	111.32
215.442	144.22
215.66	97.79
215.878	68.54
216.096	13.61
216.314	-28.28
216.532	-32.82
216.75	-61.91
216.968	-1.08
217.185	9.78
217.403	28.98
217.621	-4.27
217.839	2.15
218.057	3.22
218.275	32.56
218.492	41.81
218.71	74.96
218.928	73.35
219.146	81.45
219.363	70.63
219.581	76.05
219.799	69.54
220.017	89.04
220.234	80.42
220.452	152.85
220.67	382.98
220.887	259.6
221.105	106.38
221.323	59.14
221.54	73.59
221.758	69.48
221.976	28.98
222.193	26.26
222.411	15.44
222.629	31.02
222.846	35.06
223.064	24.38
223.281	16.9
223.499	36.21
223.716	63.77
223.934	52.9
224.151	40.81
224.369	57.29
224.586	84.52
224.804	190.08
225.021	91.76
225.239	45.31
225.456	104.77
225.674	169.28
225.891	91.91
226.108	80.82
226.326	89.75
226.543	78.75
226.76	63.1
226.978	38.99
227.195	33.6
227.413	18.31
227.63	25.05
227.847	14.92
228.064	12.17
228.282	7.22
228.499	0.18
228.716	0.75
228.934	3.05
229.151	7.38
229.368	10.45
229.585	12.89
229.802	17.01
230.02	15.33
230.237	15.62
230.454	15.87
230.671	15.34
230.888	15.27
231.105	13.26
231.323	16.76
231.54	17.72
231.757	15.83
231.974	16.25
232.191	16.74
232.408	17.71
232.625	23.57
232.842	25.02
233.059	26.15
233.276	31.5
233.493	30.31
233.71	31.14
233.927	22.69
234.144	24.41
234.361	23.32
234.578	18.42
234.795	12.43
235.012	14.03
235.229	9.6
235.446	13.17
235.663	12.53
235.879	17.38
236.096	12.89
236.313	13.68
236.53	9.72
236.747	9.98
236.964	12.79
237.181	22.44
237.397	19.95
237.614	23.86
237.831	22.57
238.048	23.14
238.264	21.37
238.481	24.59
238.698	29.1
238.915	27.94
239.131	22.5
239.348	24.09
239.565	21
239.781	19.64
239.998	20.73
240.215	23.21
240.431	23.26
240.648	19.97
240.865	21.7
241.081	18.6
241.298	17.8
241.514	18.71
241.731	18.59
241.947	18.55
242.164	16.84
242.38	13.92
242.597	11.58
242.814	10.86
243.03	10.29
243.246	9.03
243.463	10.08
243.679	13.79
243.896	13.71
244.112	14.35
244.329	13.03
244.545	15.17
244.762	17.05
244.978	20.24
245.194	18.21
245.411	17.04
245.627	15.82
245.843	15.12
246.06	10.79
246.276	10.1
246.492	8.3
246.709	9.86
246.925	8.54
247.141	8.46
247.357	7.55
247.574	9.48
247.79	10.13
248.006	9.86
248.222	9.54
248.439	9.71
248.655	9.44
248.871	10.48
249.087	9.49
249.303	9.48
249.519	8.88
249.736	9.08
249.952	7.36
250.168	8.71
250.384	7.64
250.6	9.35
250.816	11.37
251.032	10.06
251.248	9.22
251.464	9.77
251.68	11.95
251.896	14.32
252.112	14.9
252.328	15.37
252.544	14.74
252.76	16.73
252.976	16.93
253.192	15.61
253.408	17.8
253.624	19.78
253.84	19.96
254.056	19.86
254.272	19.36
254.487	16.01
254.703	15.93
254.919	14.04
255.135	13.93
255.351	12.17
255.567	12.23
255.782	11.71
255.998	4.92
256.214	1.18
256.43	3.19
256.646	4.33
256.861	5.41
257.077	5.42
257.293	5.1
257.508	3.46
257.724	5.08
257.94	5.54
258.155	5.99
258.371	7.21
258.587	9.56
258.802	10.1
259.018	9.34
259.234	10.89
259.449	10.66
259.665	11.13
259.88	12.15
260.096	11.33
260.312	11.05
260.527	10.7
260.743	11.14
260.958	10.69
261.174	9.37
261.389	9.31
261.605	8.79
261.82	9.12
262.036	8.03
262.251	6.65
262.466	7.4
262.682	8.07
262.897	9.16
263.113	9.06
263.328	7.97
263.543	8.26
263.759	9.65
263.974	8.93
264.189	6.5
264.405	8.24
264.62	10.47
264.835	11.35
265.051	9.81
265.266	8.49
265.481	7.23
265.696	9.03
265.912	10.14
266.127	9.58
266.342	11.05
266.557	12.16
266.773	12.64
266.988	9.55
267.203	9.14
267.418	9.65
267.633	10.23
267.848	10.78
268.064	11.47
268.279	11.45
268.494	10.27
268.709	9.7
268.924	10.69
269.139	9.98
269.354	11.34
269.569	8.95
269.784	8.36
269.999	9.44
270.214	9.7
270.429	12.06
270.644	11.8
270.859	14.03
271.074	14.1
271.289	12.59
271.504	12.56
271.719	12.78
271.934	13.35
272.149	14.02
272.363	13.21
272.578	12.06
272.793	8.81
273.008	9.84
273.223	8.14
273.438	7.88
273.653	8.51
273.867	9.51
274.082	9.06
274.297	10.78
274.512	11.38
274.726	12.3
274.941	14.54
275.156	15.67
275.371	15.13
275.585	15.81
275.8	15.01
276.015	13.56
276.229	12.98
276.444	14.23
276.659	13.49
276.873	11.16
277.088	10.36
277.302	9.42
277.517	10.45
277.732	9.75
277.946	8.43
278.161	10.68
278.375	11.57
278.59	11.35
278.804	9.63
279.019	9.67
279.233	11.29
279.448	10.68
279.662	11.28
279.877	9.57
280.091	9.16
280.306	11.14
280.52	8.85
280.735	8.14
280.949	8.77
281.163	9.58
281.378	8.32
281.592	8.2
281.806	8.3
282.021	8.28
282.235	7.66
282.449	8.06
282.664	6.85
282.878	8.26
283.092	10.01
283.307	10.18
283.521	9.69
283.735	9.43
283.949	9.86
284.164	9.54
284.378	9.08
284.592	11.81
284.806	13.22
285.02	12.54
285.234	12.91
285.449	13
285.663	12.55
285.877	12.19
286.091	13.49
286.305	13.11
286.519	13.71
286.733	13.03
286.947	12.29
287.161	10.11
287.375	11.28
287.589	10.53
287.803	9.1
288.017	8.81
288.231	9.14
288.445	8.5
288.659	8.15
288.873	7.1
289.087	9.01
289.301	8.12
289.515	8.86
289.729	7.88
289.943	7.94
290.157	9.94
290.371	10.42
290.584	11.55
290.798	12.58
291.012	14.22
291.226	14.8
291.44	13.94
291.654	13.79
291.867	14.26
292.081	15.67
292.295	15.54
292.509	15.21
292.722	14.76
292.936	13.87
293.15	15.1
293.364	13.12
293.577	13.15
293.791	14.28
294.005	14.99
294.218	15.2
294.432	14.84
294.645	16.37
294.859	14.55
295.073	14.37
295.286	13.69
295.5	11.81
295.713	12.22
295.927	12.03
296.14	10.72
296.354	10.5
296.568	9.71
296.781	9.14
296.994	7.68
297.208	7.69
297.421	7.51
297.635	8.92
297.848	9.01
298.062	9.83
298.275	9.69
298.489	10.23
298.702	10.06
298.915	10.92
299.129	11.91
299.342	12.63
299.555	14.7
299.769	15.83
299.982	15.37
300.195	15.92
300.409	15.11
300.622	16.11
300.835	15.86
301.048	17.39
301.262	18.6
301.475	19.15
301.688	17.69
301.901	16.25
302.115	16.31
302.328	16.59
302.541	16.7
302.754	16.93
302.967	16.43
303.18	17.98
303.393	16.29
303.607	13.9
303.82	14.85
304.033	15.26
304.246	17.34
304.459	16.87
304.672	16.67
304.885	15.64
305.098	15.02
305.311	15.33
305.524	14.55
305.737	14.77
305.95	15.59
306.163	12.1
306.376	12.92
306.589	10.81
306.802	9.97
307.015	8.28
307.228	8.7
307.44	8.76
307.653	8.41
307.866	7.35
308.079	8.5
308.292	9.33
308.505	11.41
308.718	11.36
308.93	11.32
309.143	10.84
309.356	11.55
309.569	12.55
309.781	12.81
309.994	12.86
310.207	13.94
310.42	12.81
310.632	11.97
310.845	11.51
311.058	11.17
311.27	11.3
311.483	12.86
311.696	12.53
311.908	11.06
312.121	10.79
312.333	10.58
312.546	9.32
312.759	9.61
312.971	10.15
313.184	9.82
313.396	10.61
313.609	11.18
313.821	10.24
314.034	10.96
314.246	11.94
314.459	12.33
314.671	12.74
314.884	12.58
315.096	12.98
315.309	11.96
315.521	11.8
315.733	11.57
315.946	10.24
316.158	10.38
316.371	10.77
316.583	10.88
316.795	10.36
317.008	10.14
317.22	11.17
317.432	11.01
317.644	11.51
317.857	12.34
318.069	10.82
318.281	11.78
318.494	11.1
318.706	10.42
318.918	9.18
319.13	9.21
319.342	10.01
319.555	9.41
319.767	9.21
319.979	9.41
320.191	9.27
320.403	10.99
320.615	9.6
320.827	9.11
321.039	8.61
321.252	9.43
321.464	8.56
321.676	7.41
321.888	6.68
322.1	5.17
322.312	4.82
322.524	4.56
322.736	4.68
322.948	5.76
323.16	6.06
323.372	7.38
323.584	7.3
323.796	6.68
324.007	6.49
324.219	7.79
324.431	9.7
324.643	9.9
324.855	9.06
325.067	8.22
325.279	7.99
325.491	9.09
325.702	7.36
325.914	7.16
326.126	9.91
326.338	9.02
326.55	8.32
326.761	7.63
326.973	7.72
327.185	8.82
327.396	8.86
327.608	8.41
327.82	8.24
328.032	9.89
328.243	11.23
328.455	9.84
328.666	11.65
328.878	12.28
329.09	11.65
329.301	11.92
329.513	12.83
329.725	12.76
329.936	12.15
330.148	12.45
330.359	10.61
330.571	10.79
330.782	11.76
330.994	11.18
331.205	10.04
331.417	9.82
331.628	10.47
331.84	9.34
332.051	9.22
332.262	10.03
332.474	8.44
332.685	10.54
332.897	10.18
333.108	9.45
333.319	10.34
333.531	10.42
333.742	11.8
333.953	11.72
334.165	11.66
334.376	12.1
334.587	12.67
334.799	14.31
335.01	13.33
335.221	13.15
335.432	13.04
335.644	11.75
335.855	12.39
336.066	12.27
336.277	11.86
336.488	12.67
336.7	13.14
336.911	13.69
337.122	13.14
337.333	12.78
337.544	13.04
337.755	13.28
337.966	13.1
338.177	13.58
338.388	13.48
338.599	13.11
338.811	12.97
339.022	12.35
339.233	11.35
339.444	11.67
339.655	11.96
339.866	11.16
340.076	11.28
340.287	12.52
340.498	11.42
340.709	11.34
340.92	11.55
341.131	10.72
341.342	10.63
341.553	10.52
341.764	10.89
341.975	11.22
342.185	11.88
342.396	11.4
342.607	11.57
342.818	12.04
343.029	11.77
343.239	11.31
343.45	11.19
343.661	11.48
343.872	11.27
344.082	10.28
344.293	10.03
344.504	11.81
344.714	11.63
344.925	11.29
345.136	11.42
345.346	11.29
345.557	12.19
345.768	12.57
345.978	12.6
346.189	13.03
346.399	13.02
346.61	13.11
346.821	11.21
347.031	11.32
347.242	10.41
347.452	10.17
347.663	9.87
347.873	10.23
348.084	10.06
348.294	9.99
348.504	10.19
348.715	11.32
348.925	11.04
349.136	10.8
349.346	11
349.557	11.61
349.767	11.64
349.977	11.86
350.188	11
350.398	10.91
350.608	10.72
350.819	9.98
351.029	8.57
351.239	9.2
351.449	9.96
351.66	10.16
351.87	10.3
352.08	10.34
352.29	10.33
352.501	9.69
352.711	10.04
352.921	10.16
353.131	10.69
353.341	11.51
353.552	10.98
353.762	10.34
353.972	10.28
354.182	10.76
354.392	10.7
354.602	11.08
354.812	11.18
355.022	11.5
355.232	11.73
355.442	12.24
355.652	12.48
355.862	11.9
356.072	11.43
356.282	10.64
356.492	9.3
356.702	9.61
356.912	9.54
357.122	10.17
357.332	9.76
357.542	9.05
357.752	8.99
357.962	8.11
358.171	8.8
358.381	8.29
358.591	8.74
358.801	9.8
359.011	9.45
359.221	9.56
359.43	9.72
359.64	10.15
359.85	10.82
360.06	10.74
360.269	11.03
360.479	10.99
360.689	11.56
360.899	11
361.108	11.17
361.318	10.99
361.528	10.39
361.737	10.01
361.947	9.71
362.156	9
362.366	8.41
362.576	8.38
362.785	7.92
362.995	7.69
363.204	8.35
363.414	7.73
363.623	7.91
363.833	8.02
364.042	7.98
364.252	7.44
364.461	7.82
364.671	8.53
364.88	8.41
365.09	8.37
365.299	8.64
365.509	8.09
365.718	8.32
365.927	8.44
366.137	8.45
366.346	8.45
366.555	8.33
366.765	8.51
366.974	8.22
367.183	8.48
367.393	8.51
367.602	8.28
367.811	8.37
368.021	7.85
368.23	7.21
368.439	7.88
368.648	7.92
368.857	8.27
369.067	8.01
369.276	7.63
369.485	7.32
369.694	7.86
369.903	8.43
370.112	8.53
370.321	8.98
370.531	9.51
370.74	9.53
370.949	9.57
371.158	9.61
371.367	9.8
371.576	9.82
371.785	9.68
371.994	9.33
372.203	8.73
372.412	8.48
372.621	8.09
372.83	7.84
373.039	6.98
373.248	7.19
373.457	7.29
373.666	6.62
373.874	6.5
374.083	6.52
374.292	6.82
374.501	6.8
374.71	7.14
374.919	7.45
375.128	7.4
375.336	7.72
375.545	7.38
375.754	7.45
375.963	8.24
376.171	8.77
376.38	9.06
376.589	8.9
376.798	8.8
377.006	8.92
377.215	8.75
377.424	9.08
377.632	9.29
377.841	8.81
378.05	8.51
378.258	7.91
378.467	7.77
378.675	7.27
378.884	7.14
379.093	7.46
379.301	7.27
379.51	7.22
379.718	7.23
379.927	6.96
380.135	7.39
380.344	7.45
380.552	7.94
380.761	7.7
380.969	8.33
381.177	8.42
381.386	8.11
381.594	8
381.803	8.15
382.011	7.8
382.219	7.58
382.428	7.71
382.636	7.42
382.845	7.01
383.053	7.04
383.261	6.82
383.469	6.79
383.678	6.74
383.886	6.67
384.094	6.4
384.302	6.25
384.511	6.42
384.719	6.24
384.927	6.16
385.135	6.27
385.343	6.57
385.552	6.01
385.76	5.57
385.968	5.59
386.176	5.86
386.384	5.86
386.592	5.84
386.8	5.87
387.008	6.15
387.216	6.38
387.424	6.94
387.633	6.51
387.841	7.03
388.049	7.46
388.257	7.54
388.465	7.07
388.672	7.36
388.88	7.37
389.088	7.46
389.296	7.14
389.504	7.11
389.712	6.77
389.92	7.02
390.128	6.62
390.336	6.26
390.544	6.21
390.751	6.32
390.959	6.37
391.167	6.73
391.375	6.58
391.583	6.55
391.79	6.66
391.998	6.44
392.206	6.33
392.414	6.26
392.621	6.38
392.829	6.49
393.037	6.94
393.244	6.67
393.452	6.42
393.66	6.32
393.867	6.64
394.075	6.53
394.283	6.61
394.49	6.54
394.698	7.13
394.905	6.96
395.113	6.97
395.32	6.49
395.528	6.56
395.735	6.67
395.943	6.99
396.15	6.65
396.358	6.62
396.565	6.39
396.773	6.31
396.98	6.06
397.188	6.56
397.395	6.48
397.602	6.45
397.81	6.39
398.017	6.46
398.225	6.32
398.432	6.7
398.639	6.57
398.847	6.86
399.054	6.68
399.261	6.63
399.468	6.23
399.676	6.09
399.883	6.25
400.09	6.15
400.297	6.02
400.505	5.92
400.712	5.57
400.919	5.46
401.126	5.3
401.333	5.83
401.54	5.88
401.748	6.27
401.955	6.38
402.162	6.35
402.369	6.39
402.576	6.32
402.783	6.47
402.99	6.48
403.197	6.75
403.404	6.77
403.611	6.44
403.818	6.41
404.025	6.3
404.232	6.3
404.439	6.32
404.646	6.43
404.853	6.3
405.06	6.07
405.267	6.17
405.474	5.99
405.681	5.8
405.887	5.84
406.094	5.88
406.301	5.78
406.508	5.68
406.715	5.6
406.922	5.64
407.128	5.54
407.335	5.47
407.542	5.4
407.749	5.57
407.955	5.96
408.162	5.77
408.369	5.82
408.575	5.89
408.782	5.86
408.989	5.67
409.195	5.4
409.402	5.57
409.609	5.49
409.815	5.42
410.022	5.43
410.228	5.26
410.435	5.1
410.642	4.92
410.848	4.88
411.055	5
411.261	4.87
411.468	5.1
411.674	5.37
411.881	5.68
412.087	5.7
412.294	5.68
412.5	5.86
412.706	6
412.913	5.87
413.119	5.86
413.326	5.93
413.532	6.27
413.738	6.14
413.945	5.62
414.151	5.51
414.357	5.32
414.564	5.33
414.77	5.12
414.976	5.25
415.182	5.41
415.389	5.48
415.595	5.14
415.801	5.14
416.007	5.03
416.214	5.17
416.42	5.15
416.626	5.28
416.832	5.18
417.038	5.09
417.244	5.25
417.45	5.32
417.657	5.09
417.863	5.32
418.069	5.43
418.275	5.61
418.481	5.63
418.687	5.74
418.893	5.69
419.099	5.72
419.305	5.82
419.511	5.5
419.717	5.37
419.923	5.47
420.129	5.37
420.335	5.23
420.541	5.14
420.746	5.25
420.952	5.06
421.158	4.96
421.364	4.85
421.57	4.74
421.776	4.95
421.982	4.85
422.187	4.81
422.393	4.81
422.599	4.71
422.805	4.65
423.01	4.46
423.216	4.53
423.422	4.7
423.628	4.86
423.833	4.94
424.039	4.85
424.245	4.99
424.45	5.01
424.656	5.05
424.862	5.12
425.067	5.18
425.273	5.28
425.478	5.26
425.684	5.27
425.889	5.18
426.095	5.21
426.301	5.24
426.506	5.28
426.712	5.27
426.917	5.15
427.123	5.22
427.328	5.21
427.533	5.2
427.739	5.33
427.944	5.23
428.15	4.96
428.355	4.9
428.561	4.89
428.766	4.79
428.971	4.69
429.177	4.71
429.382	4.52
429.587	4.35
429.793	4.4
429.998	4.16
430.203	3.99
430.408	4.09
430.614	4.14
430.819	4.12
431.024	4.01
431.229	4.25
431.434	4.38
431.64	4.49
431.845	4.67
432.05	4.64
432.255	4.72
432.46	4.95
432.665	5
432.87	4.98
433.076	5.03
433.281	5.01
433.486	5.09
433.691	5.04
433.896	5.01
434.101	4.88
434.306	4.94
434.511	4.71
434.716	4.61
434.921	4.63
435.126	4.63
435.331	4.58
435.535	4.38
435.74	4.28
435.945	4.37
436.15	4.52
436.355	4.73
436.56	4.61
436.765	4.98
436.97	5
437.174	5.14
437.379	4.97
437.584	5.06
437.789	5.33
437.993	5.44
438.198	5.36
438.403	5.32
438.608	5.19
438.812	5.19
439.017	5.27
439.222	5.31
439.426	5.12
439.631	5.09
439.836	5.13
440.04	5.07
440.245	4.88
440.45	4.76
440.654	4.78
440.859	4.74
441.063	4.77
441.268	4.71
441.472	4.72
441.677	4.83
441.881	4.97
442.086	5.01
442.29	5.03
442.495	5.04
442.699	5.23
442.904	5.16
443.108	5.14
443.312	5.1
443.517	4.82
443.721	4.69
443.925	4.67
444.13	4.66
444.334	4.56
444.538	4.62
444.743	4.66
444.947	4.59
445.151	4.42
445.356	4.51
445.56	4.53
445.764	4.66
445.968	4.74
446.173	4.77
446.377	4.73
446.581	4.69
446.785	4.69
446.989	4.71
447.193	4.65
447.398	4.82
447.602	4.76
447.806	4.8
448.01	4.79
448.214	4.82
448.418	4.92
448.622	4.86
448.826	4.79
449.03	4.8
449.234	4.77
449.438	4.79
449.642	4.7
449.846	4.8
450.05	4.76
450.254	4.73
450.458	4.56
450.662	4.4
450.866	4.54
451.069	4.83
451.273	4.8
451.477	4.74
451.681	4.83
451.885	4.81
452.089	4.92
452.292	4.87
452.496	5.14
452.7	5.21
452.904	5.16
453.107	5.06
453.311	4.84
453.515	4.88
453.719	4.91
453.922	4.88
454.126	4.87
454.33	4.64
454.533	4.62
454.737	4.21
454.94	4.22
455.144	4.28
455.348	4.37
455.551	4.47
455.755	4.27
455.958	4.23
456.162	4.23
456.365	4.17
456.569	4.41
456.772	4.5
456.976	4.54
457.179	4.6
457.383	4.68
457.586	4.71
457.79	4.58
457.993	4.85
458.196	4.86
458.4	4.84
458.603	4.92
458.807	4.7
459.01	4.85
459.213	4.89
459.417	4.8
459.62	4.69
459.823	4.77
460.026	4.86
460.23	4.68
460.433	4.73
460.636	4.73
460.839	4.63
461.042	4.72
461.246	4.45
461.449	4.44
461.652	4.43
461.855	4.48
462.058	4.31
462.261	4.32
462.464	4.48
462.668	4.37
462.871	4.3
463.074	4.37
463.277	4.37
463.48	4.58
463.683	4.55
463.886	4.71
464.089	4.65
464.292	4.59
464.495	4.51
464.698	4.43
464.901	4.55
465.104	4.74
465.306	4.81
465.509	4.85
465.712	4.85
465.915	4.92
466.118	4.75
466.321	4.82
466.524	4.77
466.726	4.76
466.929	4.63
467.132	4.69
467.335	4.52
467.538	4.58
467.74	4.61
467.943	4.53
468.146	4.47
468.348	4.53
468.551	4.49
468.754	4.57
468.956	4.45
469.159	4.59
469.362	4.53
469.564	4.5
469.767	4.34
469.969	4.28
470.172	4.37
470.375	4.43
470.577	4.38
470.78	4.37
470.982	4.47
471.185	4.52
471.387	4.41
471.59	4.37
471.792	4.35
471.995	4.57
472.197	4.79
472.399	4.71
472.602	4.68
472.804	4.78
473.007	4.78
473.209	4.62
473.411	4.65
473.614	4.81
473.816	4.86
474.018	4.94
474.22	4.62
474.423	4.42
474.625	4.52
474.827	4.55
475.03	4.44
475.232	4.31
475.434	4.33
475.636	4.36
475.838	4.33
476.04	4.34
476.243	4.42
476.445	4.57
476.647	4.65
476.849	4.56
477.051	4.53
477.253	4.55
477.455	4.58
477.657	4.75
477.859	4.76
478.061	4.65
478.263	4.66
478.465	4.72
478.667	4.75
478.869	4.79
479.071	4.78
479.273	4.92
479.475	4.83
479.677	4.97
479.879	4.89
480.081	4.78
480.283	4.86
480.485	4.77
480.686	4.71
480.888	4.61
481.09	4.41
481.292	4.4
481.494	4.36
481.695	4.39
481.897	4.38
482.099	4.36
482.301	4.43
482.502	4.39
482.704	4.5
482.906	4.42
483.107	4.5
483.309	4.49
483.511	4.52
483.712	4.46
483.914	4.49
484.115	4.5
484.317	4.51
484.519	4.51
484.72	4.52
484.922	4.47
485.123	4.51
485.325	4.48
485.526	4.52
485.728	4.51
485.929	4.53
486.131	4.52
486.332	4.39
486.534	4.37
486.735	4.41
486.936	4.43
487.138	4.44
487.339	4.45
487.541	4.52
487.742	4.52
487.943	4.5
488.144	4.55
488.346	4.56
488.547	4.66
488.748	4.67
488.95	4.6
489.151	4.6
489.352	4.6
489.553	4.56
489.755	4.45
489.956	4.44
490.157	4.49
490.358	4.4
490.559	4.39
490.76	4.38
490.961	4.37
491.163	4.42
491.364	4.4
491.565	4.38
491.766	4.42
491.967	4.45
492.168	4.48
492.369	4.52
492.57	4.56
492.771	4.6
492.972	4.58
493.173	4.62
493.374	4.67
493.575	4.68
493.776	4.72
493.976	4.73
494.177	4.72
494.378	4.63
494.579	4.49
494.78	4.45
494.981	4.32
495.182	4.4
495.382	4.44
495.583	4.43
495.784	4.43
495.985	4.51
496.185	4.41
496.386	4.46
496.587	4.56
496.788	4.6
496.988	4.69
497.189	4.83
497.39	4.81
497.59	4.8
497.791	4.75
497.992	4.78
498.192	4.65
498.393	4.79
498.593	4.83
498.794	4.71
498.994	4.73
499.195	4.72
499.395	4.74
499.596	4.67
499.796	4.62
499.997	4.6
500.197	4.69
500.398	4.74
500.598	4.7
500.799	4.69
500.999	4.81
501.199	4.8
501.4	4.69
501.6	4.57
501.801	4.64
502.001	4.62
502.201	4.78
502.402	4.63
502.602	4.66
502.802	4.76
503.002	4.82
503.203	4.89
503.403	4.86
503.603	4.96
503.803	5.13
504.003	5.06
504.204	5.06
504.404	5.03
504.604	5.13
504.804	5.19
505.004	5.15
505.204	5
505.404	4.91
505.604	5.06
505.804	5.06
506.005	4.99
506.205	4.99
506.405	5.04
506.605	4.89
506.805	4.87
507.005	4.88
507.204	4.84
507.404	5.04
507.604	5.15
507.804	5.04
508.004	5.04
508.204	5.1
508.404	5.21
508.604	5.17
508.804	5.32
509.003	5.34
509.203	5.3
509.403	5.28
509.603	5.29
509.803	5.26
510.002	5.25
510.202	5.29
510.402	5.36
510.602	5.35
510.801	5.46
511.001	5.42
511.201	5.48
511.4	5.5
511.6	5.5
511.8	5.47
511.999	5.49
512.199	5.49
512.398	5.5
512.598	5.34
512.797	5.35
512.997	5.24
513.197	5.27
513.396	5.18
513.596	5.17
513.795	5.18
513.994	5.09
514.194	5.12
514.393	5.12
514.593	5.14
514.792	5.18
514.992	5.21
515.191	5.29
515.39	5.22
515.59	5.25
515.789	5.24
515.988	5.23
516.188	5.31
516.387	5.44
516.586	5.46
516.786	5.45
516.985	5.51
517.184	5.51
517.383	5.48
517.582	5.6
517.782	5.57
517.981	5.61
518.18	5.67
518.379	5.67
518.578	5.55
518.777	5.63
518.976	5.67
519.176	5.68
519.375	5.63
519.574	5.68
519.773	5.72
519.972	5.82
520.171	5.85
520.37	5.92
520.569	5.98
520.768	6.04
520.967	6.05
521.166	5.98
521.365	6.02
521.564	6.21
521.762	6.24
521.961	6.23
522.16	6.11
522.359	6.17
522.558	6.24
522.757	6.31
522.956	6.31
523.154	6.34
523.353	6.39
523.552	6.34
523.751	6.22
523.949	6.27
524.148	6.3
524.347	6.4
524.546	6.3
524.744	6.16
524.943	6.02
525.142	5.89
525.34	5.92
525.539	5.96
525.737	6.02
525.936	6.07
526.135	6.11
526.333	6.06
526.532	6.08
526.73	6.14
526.929	6.14
527.127	6.19
527.326	6.28
527.524	6.27
527.723	6.3
527.921	6.3
528.12	6.27
528.318	6.22
528.516	6.27
528.715	6.27
528.913	6.23
529.112	6.29
529.31	6.34
529.508	6.35
529.707	6.41
529.905	6.43
530.103	6.4
530.301	6.43
530.5	6.49
530.698	6.47
530.896	6.5
531.094	6.51
531.293	6.48
531.491	6.52
531.689	6.58
531.887	6.51
532.085	6.46
532.283	6.59
532.481	6.59
532.68	6.5
532.878	6.47
533.076	6.56
533.274	6.69
533.472	6.82
533.67	6.82
533.868	6.83
534.066	6.88
534.264	6.93
534.462	6.9
534.66	6.99
534.858	6.97
535.056	7
535.253	7.01
535.451	7.02
535.649	6.96
535.847	6.94
536.045	6.91
536.243	6.9
536.441	6.92
536.638	7.01
536.836	7.07
537.034	7.33
537.232	7.43
537.43	7.42
537.627	7.42
537.825	7.42
538.023	7.48
538.22	7.54
538.418	7.66
538.616	7.62
538.813	7.56
539.011	7.57
539.209	7.44
539.406	7.47
539.604	7.56
539.801	7.54
539.999	7.6
540.196	7.55
540.394	7.55
540.591	7.6
540.789	7.7
540.986	7.8
541.184	7.82
541.381	7.86
541.579	7.96
541.776	7.88
541.974	7.91
542.171	7.97
542.368	8.01
542.566	8.11
542.763	8.09
542.96	8.13
543.158	8.11
543.355	8.16
543.552	8.25
543.75	8.18
543.947	8.28
544.144	8.37
544.341	8.36
544.539	8.42
544.736	8.42
544.933	8.57
545.13	8.53
545.327	8.61
545.524	8.61
545.722	8.66
545.919	8.74
546.116	8.78
546.313	8.94
546.51	9
546.707	9.08
546.904	9.06
547.101	9.14
547.298	9.32
547.495	9.45
547.692	9.58
547.889	9.64
548.086	9.67
548.283	9.84
548.48	9.7
548.677	9.73
548.874	9.74
549.07	9.95
549.267	9.89
549.464	9.85
549.661	9.77
549.858	9.65
550.055	9.73
550.251	9.74
550.448	9.56
550.645	9.81
550.842	9.91
551.038	10.13
551.235	10.1
551.432	10.13
551.628	10.16
551.825	10.15
552.022	10.27
552.218	10.37
552.415	10.54
552.612	10.83
552.808	10.75
553.005	10.73
553.201	10.61
553.398	10.67
553.594	10.64
553.791	10.77
553.987	10.88
554.184	10.99
554.38	10.92
554.577	11.02
554.773	10.84
554.97	10.82
555.166	10.98
555.362	11.13
555.559	11.16
555.755	11.41
555.952	11.4
556.148	11.47
556.344	11.38
556.541	11.53
556.737	11.67
556.933	11.92
557.129	12
557.326	12.13
557.522	12.29
557.718	12.48
557.914	12.37
558.11	12.38
558.307	12.31
558.503	12.63
558.699	12.6
558.895	12.4
559.091	12.27
559.287	12.38
559.483	12.36
559.679	12.39
559.876	12.29
560.072	12.47
560.268	12.56
560.464	12.76
560.66	12.91
560.856	13.02
561.052	13.09
561.247	13.2
561.443	13.3
561.639	13.33
561.835	13.25
562.031	13.35
562.227	13.44
562.423	13.55
562.619	13.55
562.815	13.27
563.01	13.25
563.206	13.38
563.402	13.57
563.598	13.55
563.793	13.56
563.989	13.63
564.185	13.72
564.381	13.69
564.576	13.77
564.772	13.87
564.968	14
565.163	14.23
565.359	14.34
565.555	14.34
565.75	14.65
565.946	14.79
566.141	14.76
566.337	14.92
566.532	14.93
566.728	14.89
566.923	15.03
567.119	15.15
567.314	15.08
567.51	15.11
567.705	15.2
567.901	15.14
568.096	15.25
568.292	15.48
568.487	15.31
568.682	15.59
568.878	15.95
569.073	16.09
569.268	16.13
569.464	16.27
569.659	16.35
569.854	16.4
570.05	16.38
570.245	16.45
570.44	16.53
570.635	16.66
570.831	16.66
571.026	16.58
571.221	16.5
571.416	16.57
571.611	16.62
571.806	16.75
572.002	16.83
572.197	16.78
572.392	16.82
572.587	16.88
572.782	16.98
572.977	16.81
573.172	16.79
573.367	16.93
573.562	17.06
573.757	17.01
573.952	17.01
574.147	17.2
574.342	17.41
574.537	17.32
574.732	17.39
574.927	17.47
575.121	17.79
575.316	17.9
575.511	17.97
575.706	17.94
575.901	18
576.096	18.05
576.29	17.94
576.485	17.9
576.68	18.09
576.875	18.26
577.069	18.48
577.264	18.63
577.459	18.88
577.654	19.05
577.848	19.13
578.043	19.38
578.238	19.37
578.432	19.57
578.627	19.74
578.821	20.02
579.016	20.21
579.21	20.14
579.405	20.19
579.6	20.17
579.794	20.07
579.989	20.18
580.183	20.14
580.378	20.36
580.572	20.26
580.766	20.28
580.961	20.22
581.155	19.86
581.35	20.05
581.544	19.94
581.738	20.09
581.933	20.25
582.127	20.37
582.321	20.3
582.516	20.33
582.71	20.5
582.904	20.6
583.099	20.56
583.293	20.89
583.487	20.69
583.681	20.89
583.875	20.81
584.07	20.75
584.264	20.84
584.458	20.88
584.652	20.88
584.846	20.89
585.04	20.96
585.234	21.24
585.428	21.17
585.623	21.47
585.817	21.43
586.011	21.52
586.205	21.63
586.399	21.78
586.593	22.07
586.787	22.06
586.981	22.04
587.174	22.2
587.368	22.07
587.562	22.14
587.756	21.91
587.95	21.97
588.144	21.92
588.338	22.15
588.532	22.04
588.725	22.03
588.919	22.29
589.113	22.62
589.307	22.46
589.501	22.42
589.694	22.46
589.888	22.62
590.082	22.7
590.275	22.83
590.469	22.95
590.663	22.99
590.856	23.14
591.05	23.3
591.244	23.35
591.437	23.6
591.631	23.67
591.824	23.55
592.018	23.56
592.212	23.43
592.405	23.5
592.599	23.18
592.792	23.28
592.986	23.18
593.179	23.28
593.372	23.22
593.566	23.14
593.759	23.5
593.953	23.86
594.146	23.98
594.339	24.04
594.533	24.19
594.726	24.5
594.92	24.67
595.113	24.96
595.306	24.82
595.499	24.97
595.693	25.24
595.886	25.2
596.079	25.05
596.272	25.11
596.466	25.29
596.659	25.05
596.852	24.94
597.045	24.91
597.238	24.81
597.431	24.76
597.624	24.72
597.818	24.51
598.011	24.52
598.204	24.62
598.397	24.49
598.59	24.57
598.783	24.85
598.976	24.86
599.169	24.97
599.362	25
599.555	25.03
599.748	25.07
599.941	25.41
600.134	25.49
600.326	25.57
600.519	25.79
600.712	25.62
600.905	25.58
601.098	25.72
601.291	25.58
601.483	25.53
601.676	25.58
601.869	25.55
602.062	25.24
602.255	25.34
602.447	25.29
602.64	25.39
602.833	25.72
603.025	26.06
603.218	26.06
603.411	26.24
603.603	26.33
603.796	26.5
603.989	26.51
604.181	26.78
604.374	26.78
604.566	26.97
604.759	26.97
604.951	26.81
605.144	26.47
605.336	26.56
605.529	26.31
605.721	26.31
605.914	26.24
606.106	26.12
606.299	26
606.491	25.89
606.683	25.94
606.876	26.02
607.068	26.03
607.26	26.12
607.453	26.12
607.645	26.44
607.837	26.31
608.03	26.24
608.222	26.4
608.414	26.59
608.606	26.61
608.799	26.66
608.991	26.55
609.183	26.5
609.375	26.54
609.567	26.42
609.759	26.56
609.952	26.83
610.144	26.94
610.336	26.86
610.528	26.88
610.72	26.99
610.912	26.76
611.104	27.07
611.296	27.18
611.488	27.62
611.68	27.97
611.872	27.71
612.064	27.59
612.256	28.03
612.448	28.24
612.64	28.35
612.832	28.38
613.023	28.49
613.215	28.15
613.407	28.38
613.599	27.99
613.791	27.77
613.983	27.73
614.174	28.06
614.366	27.73
614.558	27.94
614.75	27.5
614.941	27.65
615.133	28
615.325	28.51
615.516	28.38
615.708	28.55
615.9	28.81
616.091	29.15
616.283	29.18
616.475	29.14
616.666	29.3
616.858	29.72
617.049	29.79
617.241	29.76
617.432	29.26
617.624	29.45
617.815	29.6
618.007	29.48
618.198	29.35
618.39	29.31
618.581	29.23
618.773	29.22
618.964	29.23
619.155	29.26
619.347	29.07
619.538	29.27
619.729	29.17
619.921	28.93
620.112	29.08
620.303	29.4
620.494	29.46
620.686	29.76
620.877	29.72
621.068	29.81
621.259	29.86
621.451	29.84
621.642	29.94
621.833	30.01
622.024	30.13
622.215	30.27
622.406	30.02
622.597	30.17
622.788	30.02
622.98	29.81
623.171	29.47
623.362	29.28
623.553	29.6
623.744	29.96
623.935	30.09
624.126	30.13
624.317	29.83
624.508	30.03
624.698	29.8
624.889	29.78
625.08	30.04
625.271	30.36
625.462	30.55
625.653	30.39
625.844	30.19
626.034	30.34
626.225	30.6
626.416	30.76
626.607	30.79
626.798	30.88
626.988	31.26
627.179	31.16
627.37	31.18
627.56	31.26
627.751	31.4
627.942	31.18
628.132	31.05
628.323	31.01
628.514	30.99
628.704	31.02
628.895	31.17
629.085	30.8
629.276	30.89
629.466	30.88
629.657	30.76
629.847	30.75
630.038	30.95
630.228	31.16
630.419	31.2
630.609	31.2
630.8	31.41
630.99	31.23
631.181	31.32
631.371	31.22
631.561	31.25
631.752	31.29
631.942	31.44
632.132	31.54
632.323	31.35
632.513	31.12
632.703	31.03
632.893	31.04
633.084	30.94
633.274	31.2
633.464	31.27
633.654	31.27
633.844	31.13
634.034	31.11
634.225	31.13
634.415	31.26
634.605	31.35
634.795	31.59
634.985	31.23
635.175	31.29
635.365	31.17
635.555	31.31
635.745	31.37
635.935	31.97
636.125	31.97
636.315	31.76
636.505	31.66
636.695	31.85
636.885	31.58
637.075	32.09
637.265	32.68
637.455	32.65
637.644	32.35
637.834	32.45
638.024	32.05
638.214	31.91
638.404	32.12
638.593	32.3
638.783	32.36
638.973	32.63
639.163	32.11
639.352	32.03
639.542	32.12
639.732	32.54
639.921	32.58
640.111	32.74
640.301	32.57
640.49	32.61
640.68	32.99
640.87	32.86
641.059	33.02
641.249	33.23
641.438	32.93
641.628	32.82
641.817	32.81
642.007	32.95
642.196	33.39
642.386	33.42
642.575	33.59
642.764	33.29
642.954	33
643.143	33
643.333	33.31
643.522	33.59
643.711	33.51
643.901	33.84
644.09	33.65
644.279	33.02
644.469	33.72
644.658	33.78
644.847	33.07
645.036	33.28
645.226	33.36
645.415	33.28
645.604	33.17
645.793	33.7
645.982	33.11
646.171	33.33
646.361	33.62
646.55	33.54
646.739	33.5
646.928	34.41
647.117	34.69
647.306	34.73
647.495	34.76
647.684	34.65
647.873	34.35
648.062	34.6
648.251	34.22
648.44	34.24
648.629	34.34
648.818	34.4
649.007	33.91
649.196	33.68
649.384	33.77
649.573	33.89
649.762	34.04
649.951	34.07
650.14	34.22
650.328	34.59
650.517	34.67
650.706	34.55
650.895	34.66
651.083	35.22
651.272	35.59
651.461	35.57
651.65	35.7
651.838	35.42
652.027	35.7
652.216	35.98
652.404	35.84
652.593	35.76
652.781	35.91
652.97	35.83
653.158	35.24
653.347	35.12
653.535	34.81
653.724	34.69
653.912	35.01
654.101	34.91
654.289	34.69
654.478	34.64
654.666	34.88
654.855	34.9
655.043	34.68
655.231	35.09
655.42	35.26
655.608	35.39
655.796	35.5
655.985	35.68
656.173	35.7
656.361	35.78
656.55	36.2
656.738	35.88
656.926	35.85
657.114	36.03
657.302	35.78
657.491	35.64
657.679	35.63
657.867	35.61
658.055	35.55
658.243	35.6
658.431	35.58
658.619	35.69
658.807	35.87
658.996	35.83
659.184	35.88
659.372	36.24
659.56	36.39
659.748	36.76
659.936	36.86
660.124	36.76
660.311	36.85
660.499	36.76
660.687	36.55
660.875	36.34
661.063	36.18
661.251	36.2
661.439	36.32
661.627	36.16
661.814	35.9
662.002	35.93
662.19	35.72
662.378	35.98
662.565	36.02
662.753	36.37
662.941	36.6
663.129	36.39
663.316	36.69
663.504	36.09
663.692	36.2
663.879	36.14
664.067	36.1
664.254	36.44
664.442	35.96
664.63	36.25
664.817	36.26
665.005	35.99
665.192	36.72
665.38	36.52
665.567	37.02
665.755	37.21
665.942	37.49
666.13	37.51
666.317	37.94
666.504	37.86
666.692	37.86
666.879	37.86
667.067	38.28
667.254	38.17
667.441	38.03
667.629	37.78
667.816	37.83
668.003	37.56
668.19	37.88
668.378	37.73
668.565	38.07
668.752	37.92
668.939	37.78
669.127	37.56
669.314	37.47
669.501	37.57
669.688	37.78
669.875	37.79
670.062	37.86
670.249	37.66
670.436	37.42
670.623	37.16
670.81	37.23
670.997	37.37
671.184	37.57
671.371	37.4
671.558	37.48
671.745	37.4
671.932	37.24
672.119	37.68
672.306	38.06
672.493	38.04
672.68	38.28
672.867	38.08
673.054	37.87
673.24	38.04
673.427	37.94
673.614	37.86
673.801	38.04
673.988	38.4
674.174	38.23
674.361	37.58
674.548	37.61
674.734	37.6
674.921	37.96
675.108	38.16
675.294	37.9
675.481	38.04
675.668	38.16
675.854	37.78
676.041	37.27
676.227	37.35
676.414	37.18
676.601	37.44
676.787	37.92
676.974	37.57
677.16	37.08
677.347	36.89
677.533	37.15
677.719	37.12
677.906	37.26
678.092	37.71
678.279	37.42
678.465	37.64
678.651	37.7
678.838	37.67
679.024	38.11
679.21	38.51
679.397	39.04
679.583	39.05
679.769	39.19
679.955	39.47
680.142	39.45
680.328	39.67
680.514	40.24
680.7	40.2
680.886	39.91
681.073	39.91
681.259	39.97
681.445	39.93
681.631	39.66
681.817	39.38
682.003	39.21
682.189	39.15
682.375	39.42
682.561	39.19
682.747	39.53
682.933	39.54
683.119	39.45
683.305	39.38
683.491	39.41
683.677	40.06
683.863	40.6
684.049	40.99
684.235	40.55
684.42	40.69
684.606	40.32
684.792	40.1
684.978	40.33
685.164	40.64
685.349	40.6
685.535	40.48
685.721	40.14
685.907	39.79
686.092	39.72
686.278	40.33
686.464	39.82
686.649	40.26
686.835	40.06
687.021	40.29
687.206	39.91
687.392	39.82
687.577	40.03
687.763	40.3
687.948	40.63
688.134	40.39
688.319	40.32
688.505	40.78
688.69	40.15
688.876	40.13
689.061	39.73
689.247	40.16
689.432	40.63
689.618	40.5
689.803	40.01
689.988	39.92
690.174	40.14
690.359	39.92
690.544	39.85
690.73	40.46
690.915	40.66
691.1	40.49
691.285	40.61
691.471	39.99
691.656	40.05
691.841	40.52
692.026	40.94
692.211	40.76
692.396	41.2
692.582	41.19
692.767	41.01
692.952	40.85
693.137	41.07
693.322	40.7
693.507	41.77
693.692	41.84
693.877	41.77
694.062	41.67
694.247	41.43
694.432	41.48
694.617	41.81
694.802	42.08
694.987	42.47
695.172	42.91
695.357	43.03
695.541	42.53
695.726	42.8
695.911	43.45
696.096	43.14
696.281	43.56
696.466	43.19
696.65	43.05
696.835	43.22
697.02	43.05
697.204	43.42
697.389	43.58
697.574	43.65
697.759	43.17
697.943	42.49
698.128	42.53
698.312	42.7
698.497	42.71
698.682	42.67
698.866	42.32
699.051	42.16
699.235	41.89
699.42	41.96
699.604	41.78
699.789	42.09
699.973	42.56
700.158	42.58
700.342	42.68
700.527	43.09
700.711	42.83
700.895	43.45
701.08	43.44
701.264	43.06
701.448	42.77
701.633	43.08
701.817	43.15
702.001	42.56
702.186	42.33
702.37	42.05
702.554	41.74
702.738	41.56
702.923	40.9
703.107	41.45
703.291	41.97
703.475	41.73
703.659	41.28
703.843	40.6
704.027	40.91
704.212	41.48
704.396	41.51
704.58	41.74
704.764	42.34
704.948	42.78
705.132	42.4
705.316	42.32
705.5	43.13
705.684	42.9
705.868	42.83
706.052	42.65
706.235	42.26
706.419	41.86
706.603	41.66
706.787	41.1
706.971	40.87
707.155	41.36
707.339	41.45
707.522	41.19
707.706	42.06
707.89	42.22
708.074	42.75
708.257	43.39
708.441	43.62
708.625	44.01
708.808	44.62
708.992	43.99
709.176	43.96
709.359	44.3
709.543	43.87
709.727	43.83
709.91	44.11
710.094	43.27
710.277	42.92
710.461	42.99
710.644	42.9
710.828	42.61
711.011	43.32
711.195	43.55
711.378	43.33
711.562	43.92
711.745	43.64
711.928	43.38
712.112	43.61
712.295	43.73
712.478	43.91
712.662	43.51
712.845	43.93
713.028	43.89
713.212	43.32
713.395	43.52
713.578	43.08
713.761	43.27
713.945	43.98
714.128	44.15
714.311	44.53
714.494	43.53
714.677	43.86
714.86	43.42
715.043	43.38
715.227	43.59
715.41	42.93
715.593	43.31
715.776	43.53
715.959	43.02
716.142	43.99
716.325	43.69
716.508	44.97
716.691	44.93
716.874	45.08
717.057	44.8
717.239	45.22
717.422	45.21
717.605	45.5
717.788	45.38
717.971	45.8
718.154	44.94
718.337	44.83
718.519	43.93
718.702	44.32
718.885	43.92
719.068	44.57
719.25	44.07
719.433	45.44
719.616	44.66
719.798	44.61
719.981	44.76
720.164	44.6
720.346	44.53
720.529	44.6
720.712	43.77
720.894	44.12
721.077	43.76
721.259	44.08
721.442	42.83
721.624	43.64
721.807	44.01
721.989	43.08
722.172	43.41
722.354	43.95
722.537	44.3
722.719	44.85
722.901	45.08
723.084	45.46
723.266	45.21
723.448	45.41
723.631	45.26
723.813	44.75
723.995	44.99
724.178	44.95
724.36	44.23
724.542	44.33
724.724	44.96
724.907	43.81
725.089	43.8
725.271	44.4
725.453	44.6
725.635	44.67
725.817	45.28
725.999	45.51
726.181	45.65
726.364	45.56
726.546	45.75
726.728	45.25
726.91	46.18
727.092	45.34
727.274	45.07
727.456	45.4
727.638	45.29
727.819	45.02
728.001	44.86
728.183	44.44
728.365	44.8
728.547	44.62
728.729	45.07
728.911	45.88
729.093	47.15
729.274	46.92
729.456	46.71
729.638	46.73
729.82	46.43
730.001	47.1
730.183	47.25
730.365	47.74
730.546	47.68
730.728	46.91
730.91	45.78
731.091	44.79
731.273	44.45
731.455	44.2
731.636	43.72
731.818	43.62
731.999	44.2
732.181	44.5
732.362	43.71
732.544	44.42
732.725	44.74
732.907	45.61
733.088	45.65
733.27	46.58
733.451	46.33
733.633	47.43
733.814	47.93
733.995	46.92
734.177	47.42
734.358	47.75
734.539	47.24
734.721	46.89
734.902	46.9
735.083	47.96
735.264	47.73
735.446	47.88
735.627	47.43
735.808	46.87
735.989	48.24
736.17	47.24
736.351	47.32
736.533	47.69
736.714	48.22
736.895	48.09
737.076	47.86
737.257	46.94
737.438	47.46
737.619	46.5
737.8	46.39
737.981	44.8
738.162	45.26
738.343	44.91
738.524	44.83
738.705	44.02
738.886	43.73
739.067	43.98
739.247	44.41
739.428	43.42
739.609	43.87
739.79	43.01
739.971	43.56
740.151	43.39
740.332	43.91
740.513	43.84
740.694	44.14
740.874	43.71
741.055	43.03
741.236	43.64
741.417	44.69
741.597	44.22
741.778	46.15
741.958	45.1
742.139	45.15
742.32	45.42
742.5	44.82
742.681	44.9
742.861	45.02
743.042	44.43
743.222	43.82
743.403	42.85
743.583	43.1
743.764	41.99
743.944	43.18
744.124	43.41
744.305	42.91
744.485	43.49
744.666	43.51
744.846	44
745.026	43.92
745.207	43.88
745.387	44.77
745.567	45.51
745.747	46.48
745.928	46.14
746.108	45.87
746.288	45.69
746.468	44.98
746.648	44.32
746.829	44.25
747.009	44.19
747.189	43.77
747.369	43.63
747.549	43.11
747.729	41.8
747.909	40.88
748.089	40.34
748.269	40.64
748.449	41
748.629	42.94
748.809	43.24
748.989	43.84
749.169	44.39
749.349	44.56
749.529	44.81
749.709	45.72
749.889	46.73
750.068	47.87
750.248	47.56
750.428	48.35
750.608	46.85
750.788	46.22
750.967	45.94
751.147	46.45
751.327	46.91
751.507	47.18
751.686	47.53
751.866	48.28
752.046	48.12
752.225	47.95
752.405	48.28
752.585	48.65
752.764	49.59
752.944	49.9
753.123	49.4
753.303	48.93
753.482	48.57
753.662	47.96
753.841	47.28
754.021	47.3
754.2	48.31
754.38	47.37
754.559	47.73
754.739	47.34
754.918	47.31
755.097	47.88
755.277	47.58
755.456	47.62
755.635	48.27
755.815	48.5
755.994	47.57
756.173	46.95
756.352	48.68
756.532	48.16
756.711	47.97
756.89	48.95
757.069	48.24
757.248	47.52
757.427	47.39
757.607	47.09
757.786	46.55
757.965	47.38
758.144	47.6
758.323	46.29
758.502	46.77
758.681	47.45
758.86	45.21
759.039	45.04
759.218	45.8
759.397	46.28
759.576	47.61
759.755	47.84
759.934	48.01
760.113	48.12
760.291	48.62
760.47	48.5
760.649	47.82
760.828	49.46
761.007	49.94
761.186	50.89
761.364	50.85
761.543	49.81
761.722	50.09
761.901	50.31
762.079	50.57
762.258	50.77
762.437	50.88
762.615	51.01
762.794	50.55
762.972	50.27
763.151	49.02
763.33	48.51
763.508	47.88
763.687	48.18
763.865	47.79
764.044	47.32
764.222	46.74
764.401	45.66
764.579	45.24
764.758	45.78
764.936	45.88
765.114	45.96
765.293	46.3
765.471	46.62
765.65	45.86
765.828	45.94
766.006	45.28
766.184	45.14
766.363	45.44
766.541	46.53
766.719	46.29
766.898	45.92
767.076	46.21
767.254	45.73
767.432	45.22
767.61	46
767.788	46.59
767.967	48.1
768.145	47.87
768.323	48.14
768.501	46.79
768.679	47.46
768.857	46.2
769.035	47.08
769.213	48.35
769.391	48.87
769.569	48.77
769.747	48.95
769.925	48.79
770.103	50.08
770.281	48.92
770.459	50.45
770.636	49.56
770.814	52.94
770.992	53.23
771.17	52.68
771.348	52.36
771.525	51.9
771.703	51.3
771.881	50.88
772.059	49
772.236	50.89
772.414	49.61
772.592	49.14
772.769	48.11
772.947	47.77
773.125	48.44
773.302	48.36
773.48	48.69
773.657	48.11
773.835	47.5
774.013	47.61
774.19	47.88
774.368	48.64
774.545	50.05
774.723	48.57
774.9	48.8
775.077	46.8
775.255	47.36
775.432	46.7
775.61	46.13
775.787	47.43
775.964	48.48
776.142	49.41
776.319	50.06
776.496	49.41
776.674	50.71
776.851	51.13
777.028	51.28
777.205	51.22
777.382	52.91
777.56	54.63
777.737	56.48
777.914	54.71
778.091	53.46
778.268	51.91
778.445	50.35
778.622	49.47
778.8	48.82
778.977	50.94
779.154	51.72
779.331	50.61
779.508	49.33
779.685	47.44
779.862	49.49
780.038	50.11
780.215	51.36
780.392	53.43
780.569	55
780.746	54.1
780.923	52.07
781.1	52.15
781.277	51.88
781.453	52.49
781.63	52.95
781.807	53.16
781.984	53.74
782.16	52.8
782.337	51.81
782.514	50.33
782.691	51.42
782.867	52.3
783.044	49.88
783.221	51.32
783.397	50.69
783.574	48.63
783.75	46.69
783.927	46.21
784.103	47.14
784.28	45.46
784.456	45.47
784.633	43.66
784.809	43
784.986	44.41
785.162	43.42
785.339	42.23
785.515	43.93
785.692	46.33
785.868	47.37
786.044	46.4
786.221	47.2
786.397	46.9
786.573	48.15
786.749	49.25
786.926	49.82
787.102	49.25
787.278	51.2
787.454	50.26
787.631	50.43
787.807	48.21
787.983	48.69
788.159	50.02
788.335	51.22
788.511	51.09
788.687	51.59
788.863	51.66
789.039	52.59
789.216	51.72
789.392	53.33
789.568	52.68
789.744	52.84
789.919	53.49
790.095	53.01
790.271	52.78
790.447	51.91
790.623	50.06
790.799	49.81
790.975	46.62
791.151	46.17
791.327	46.48
791.502	47.53
791.678	47.13
791.854	45.91
792.03	45.14
792.205	45.47
792.381	48.45
792.557	47.26
792.733	49.36
792.908	51.36
793.084	52.95
793.259	50.66
793.435	49.28
793.611	52.07
793.786	51.58
793.962	52.42
794.137	51.47
794.313	48.85
794.488	52.21
794.664	48.2
794.839	48.85
795.015	47.29
795.19	48.41
795.366	48.46
795.541	45.97
795.716	45.76
795.892	44.55
796.067	42.67
796.242	43.47
796.418	41.92
796.593	44.03
796.768	45.71
796.944	44.25
797.119	42.53
797.294	42.66
797.469	43.17
797.644	44.01
797.82	45.47
797.995	47.86
798.17	47.3
798.345	48.15
798.52	47.47
798.695	46
798.87	47.63
799.045	49.16
799.22	49.41
799.395	50.07
799.57	50.12
799.745	50.01
799.92	49.96
800.095	51.24
800.27	50.91
800.445	50.11
800.62	49.18
800.795	49.45
800.97	51.1
801.145	49.12
801.319	49.69
801.494	50.37
801.669	51.39
801.844	52.35
802.018	52.02
802.193	53.43
802.368	53.88
802.543	55.52
802.717	55.23
802.892	53.12
803.067	53.2
803.241	49.95
803.416	50.08
803.59	48.74
803.765	47.49
803.94	47.26
804.114	45.78
804.289	46.31
804.463	45.98
804.638	46.37
804.812	44.49
804.986	45.74
805.161	48.74
805.335	47.86
805.51	48.04
805.684	48.95
805.858	48.01
806.033	48.8
806.207	48.35
806.381	47.4
806.556	48.2
806.73	49.68
806.904	49.77
807.078	49.48
807.253	50.65
807.427	48.69
807.601	48.01
807.775	48.91
807.949	48.04
808.123	47.53
808.298	48.68
808.472	46.65
808.646	47.24
808.82	47.34
808.994	48.41
809.168	46.89
809.342	47.09
809.516	47.07
809.69	48.84
809.864	49.24
810.038	51.37
810.212	51.31
810.385	51.19
810.559	50.53
810.733	52.92
810.907	54.53
811.081	53.72
811.255	56.57
811.428	56.49
811.602	52.09
811.776	51.21
811.95	50.44
812.123	47.64
812.297	48.48
812.471	48.45
812.644	46.88
812.818	44.92
812.992	45.41
813.165	46.2
813.339	43.96
813.512	44.85
813.686	45.31
813.86	46.01
814.033	47.74
814.207	47.55
814.38	47.49
814.554	48.46
814.727	49.58
814.9	48.57
815.074	44.03
815.247	43.19
815.421	43.05
815.594	43.75
815.767	41.14
815.941	41.44
816.114	41.92
816.287	42.24
816.46	39.09
816.634	36.5
816.807	40.19
816.98	44.19
817.153	47.58
817.327	47.73
817.5	46.79
817.673	47.13
817.846	47.29
818.019	49.01
818.192	49.36
818.365	53.28
818.538	54.13
818.711	50.98
818.884	51.37
819.057	53.05
819.23	54.65
819.403	56.61
819.576	58.65
819.749	57.17
819.922	54.81
820.095	56.89
820.268	55.77
820.441	56.86
820.614	59.52
820.786	58.53
820.959	55.92
821.132	54.81
821.305	54.58
821.477	52.78
821.65	53.42
821.823	52.59
821.996	51.67
822.168	50.57
822.341	49.69
822.514	48.9
822.686	49.24
822.859	49.4
823.031	49.58
823.204	49.41
823.376	49.87
823.549	49.12
823.722	48.99
823.894	49.33
824.067	49.65
824.239	49.65
824.411	49.87
824.584	48.88
824.756	48.79
824.929	48.75
825.101	48.58
825.273	48.44
825.446	49.19
825.618	50.3
825.79	49.94
825.963	49.84
826.135	51.02
826.307	50.25
826.479	51.87
826.652	52.29
826.824	51.95
826.996	51.75
827.168	51.33
827.34	51.69
827.512	51.29
827.684	51.25
827.856	51.04
828.029	50.08
828.201	50.06
828.373	49.23
828.545	49.51
828.717	49
828.889	48.59
829.061	49.32
829.232	48.87
829.404	49.4
829.576	49.49
829.748	49.5
829.92	49.28
830.092	50.65
830.264	51.26
830.436	51.52
830.607	52.16
830.779	53.09
830.951	53.52
831.123	53.91
831.294	52.33
831.466	52.1
831.638	53.09
831.809	54.11
831.981	56.82
832.153	55.6
832.324	53.25
832.496	53.83
832.667	54.68
832.839	54.28
833.011	55.69
833.182	56.11
833.354	56.1
833.525	53.75
833.697	52.39
833.868	49.25
834.039	48.22
834.211	49.71
834.382	49.34
834.554	48.61
834.725	47.58
834.896	46.39
835.068	47.31
835.239	48.33
835.41	48.23
835.581	47.72
835.753	47.48
835.924	47.58
836.095	47.06
836.266	48.09
836.438	47.4
836.609	48.94
836.78	47.7
836.951	47.56
837.122	45.05
837.293	46.35
837.464	47.21
837.635	48.13
837.806	48.82
837.977	46.81
838.148	47.93
838.319	49.96
838.49	47.59
838.661	50.18
838.832	49.48
839.003	48.6
839.174	49.56
839.345	50.7
839.516	51.75
839.687	49.04
839.857	52.2
840.028	48.95
840.199	45.88
840.37	47.82
840.54	48.52
840.711	47.58
840.882	46.4
841.053	44.91
841.223	46.29
841.394	42.06
841.564	47.7
841.735	49.36
841.906	51.14
842.076	56.7
842.247	55.45
842.417	54.18
842.588	59.75
842.758	64.49
842.929	63.68
843.099	61.22
843.27	63.58
843.44	61.66
843.611	60.72
843.781	60.58
843.951	58.21
844.122	59.09
844.292	56.57
844.462	53.74
844.633	53.2
844.803	56.96
844.973	53.37
845.144	53.16
845.314	51.62
845.484	48.67
845.654	48.78
845.824	46.54
845.995	49.41
846.165	50.17
846.335	45.44
846.505	51.36
846.675	49.64
846.845	55.17
847.015	57.36
847.185	56.93
847.355	60.01
847.525	62.61
847.695	60.86
847.865	52.19
848.035	53.79
848.205	49.33
848.375	36.66
848.545	40.68
848.715	40.91
848.884	33.46
849.054	41.26
849.224	48.94
849.394	51.99
849.564	43.59
849.733	50.69
849.903	49.79
850.073	52.82
850.243	63.2
850.412	62
850.582	57.64
850.752	53.43
850.921	45.98
851.091	40.21
851.26	28.51
851.43	37.8
851.599	40.2
851.769	41.55
851.939	38.89
852.108	33.96
852.278	20.18
852.447	26.75
852.616	29.13
852.786	37.23
852.955	30.45
853.125	28.1
853.294	35.52
853.463	33.47
853.633	29.55
853.802	46.39
853.971	41.16
854.141	59.48
854.31	66.89
854.479	76.66
854.648	62.1
854.818	74.02
854.987	77.01
855.156	74.37
855.325	77.41
855.494	81.3
855.663	77.65
855.832	79.59
856.001	77.2
856.171	77.56
856.34	77.94
856.509	83.93
856.678	77.49
856.847	81.84
857.016	75.62
857.185	63.08
857.353	69.57
857.522	68.39
857.691	60.76
857.86	63.92
858.029	63.04
858.198	66.15
858.367	62.7
858.535	62.74
858.704	62.58
858.873	63.61
859.042	75.86
859.21	73.38
859.379	70.66
859.548	78.42
859.717	76.59
859.885	73.86
860.054	72.66
860.222	72.12
860.391	75.28
860.56	66.74
860.728	73.13
860.897	72.44
861.065	60.14
861.234	60.06
861.402	60.52
861.571	59.42
861.739	60.74
861.908	54.67
862.076	50.43
862.244	49.79
862.413	56.95
862.581	60.79
862.749	57.45
862.918	76.45
863.086	74.75
863.254	84.4
863.423	85.53
863.591	83.31
863.759	74.63
863.927	75.13
864.096	66.29
864.264	68.97
864.432	60.79
864.6	65.03
864.768	51.8
864.936	49.06
865.104	41.97
865.272	46.68
865.44	39.94
865.608	48.98
865.776	58.43
865.944	57.75
866.112	54.31
866.28	50.36
866.448	49.54
866.616	54.12
866.784	57.2
866.952	53.14
867.12	51.1
867.288	54.83
867.455	58.36
867.623	54.76
867.791	55.59
867.959	50.77
868.127	45.6
868.294	39.31
868.462	38.6
868.63	37.19
868.797	38.81
868.965	41.29
869.133	42.03
869.3	41.33
869.468	44.28
869.636	50.5
869.803	52.69
869.971	52.09
870.138	51.02
870.306	49.32
870.473	52.15
870.641	59.72
870.808	57.34
870.975	55.35
871.143	56.24
871.31	54.38
871.478	52.74
871.645	56.77
871.812	55.06
871.98	54.83
872.147	57.43
872.314	56.63
872.482	56.01
872.649	55.98
872.816	62.19
872.983	55.86
873.15	49.67
873.318	46.92
873.485	39.78
873.652	44.69
873.819	56.41
873.986	46.64
874.153	43.98
874.32	33.96
874.487	20.91
874.654	19.15
874.821	27.14
874.988	32.77
875.155	38.62
875.322	38.77
875.489	46.84
875.656	39.97
875.823	43.18
875.99	39.55
876.157	40.22
876.324	42.72
876.49	42.99
876.657	44.84
876.824	46.42
876.991	35.81
877.157	33.36
877.324	26.46
877.491	34.09
877.658	31.79
877.824	46.05
877.991	45.77
878.157	53.54
878.324	52.63
878.491	39.66
878.657	44.82
878.824	61.19
878.99	71.26
879.157	68.07
879.323	62.62
879.49	63.24
879.656	65.2
879.823	72.36
879.989	80.12
880.156	89.77
880.322	87.86
880.488	80.42
880.655	77.62
880.821	70.26
880.987	74.39
881.154	76.19
881.32	72.78
881.486	67.25
881.652	64.52
881.819	60.92
881.985	54.3
882.151	55.09
882.317	56.33
882.483	55.26
882.649	56.25
882.816	53.55
882.982	53.61
883.148	54.15
883.314	52.54
883.48	52.05
883.646	52.35
883.812	52.25
883.978	52.06
884.144	50.36
884.31	50.15
884.476	49.12
884.642	48.67
884.807	47.43
884.973	46.13
885.139	46.5
885.305	45.1
885.471	44.45
885.637	43.61
885.802	42.29
885.968	42.72
886.134	42.59
886.3	43.19
886.465	43.8
886.631	44.53
886.797	45.94
886.962	47.57
887.128	47.38
887.293	45.84
887.459	46.18
887.625	47.14
887.79	45.39
887.956	38.97
888.121	35.45
888.287	33.26
888.452	32.19
888.618	25.84
888.783	16.65
