Data from LC_238_Reflection_2.txt Node
Date: Thu Nov 19 22:15:55 EST 2015
User: robert
Spectrometer: USB4E03001
Autoset integration time: false
Trigger mode: 4
Integration Time (sec): 1.000000E-1
Scans to average: 15
Electric dark correction enabled: true
Nonlinearity correction enabled: false
Boxcar width: 5
Stray light correction enabled: false
XAxis mode: Wavelengths
Stop averaging: false
Number of Pixels in Spectrum: 3648
>>>>>Begin Spectral Data<<<<<
177.566	-33.05
177.785	21.51
178.005	19.75
178.225	11.04
178.445	42.63
178.665	33.89
178.885	32.63
179.105	-141.67
179.324	-78.71
179.544	28.06
179.764	132.75
179.984	128.06
180.204	80.19
180.423	151.14
180.643	130.21
180.863	84.24
181.083	119.11
181.302	103.94
181.522	97.84
181.742	93.08
181.961	100.95
182.181	112.17
182.401	174.65
182.621	198.54
182.84	295.39
183.06	238.42
183.279	206.68
183.499	154.54
183.719	350.48
183.938	610.1
184.158	-414.73
184.377	-843.07
184.597	574.08
184.816	-4714.15
185.036	-156.56
185.256	2805
185.475	278.84
185.695	230.05
185.914	243.04
186.134	493.58
186.353	328.93
186.572	296.65
186.792	417.54
187.011	-2262.65
187.231	-793.7
187.45	-1522.06
187.67	-137.51
187.889	-109.15
188.108	-56.35
188.328	-102.85
188.547	-437.84
188.766	-691.57
188.986	-896.85
189.205	10914.71
189.424	415.23
189.644	362.91
189.863	186.61
190.082	135.73
190.302	160.38
190.521	163.64
190.74	161.01
190.959	149.93
191.178	137.16
191.398	127.56
191.617	147.25
191.836	396.9
192.055	88.66
192.274	135.82
192.494	75.41
192.713	35.8
192.932	38.72
193.151	43.85
193.37	57.13
193.589	91.98
193.808	101.95
194.027	78.06
194.246	82.73
194.465	94.81
194.685	85.46
194.904	107.1
195.123	137.59
195.342	152.76
195.561	129.87
195.78	95.06
195.999	77.91
196.218	68.42
196.436	85.06
196.655	88.19
196.874	102.25
197.093	137.66
197.312	127.37
197.531	148.13
197.75	247.93
197.969	253.75
198.188	-775.89
198.407	-214.69
198.625	-381.7
198.844	-214.31
199.063	-1359.25
199.282	-98.03
199.501	-87.25
199.719	-85.21
199.938	63.31
200.157	143.41
200.376	131.44
200.594	-849.7
200.813	-532.67
201.032	-224.53
201.251	-308.63
201.469	-273.07
201.688	-5.58
201.907	89.88
202.125	712.26
202.344	247.96
202.563	413.7
202.781	336.59
203	263.77
203.218	173.91
203.437	107.73
203.656	152.15
203.874	215.43
204.093	340.78
204.311	103.03
204.53	50.26
204.748	45.51
204.967	39.21
205.185	44.77
205.404	46.32
205.622	55.56
205.841	128.42
206.059	129.3
206.278	135.87
206.496	134.35
206.715	136.3
206.933	184.72
207.151	189.09
207.37	249.4
207.588	194.31
207.806	157.3
208.025	189.66
208.243	122.31
208.461	209.16
208.68	158.89
208.898	135.56
209.116	139.7
209.335	217.94
209.553	365.36
209.771	-2418.49
209.989	608.06
210.208	-373.51
210.426	-317.57
210.644	262.45
210.862	163.61
211.081	204.88
211.299	154.13
211.517	130.31
211.735	91.79
211.953	73.16
212.171	78.05
212.39	81.32
212.608	90.36
212.826	107.28
213.044	141.14
213.262	157.51
213.48	116.89
213.698	105.57
213.916	144.75
214.134	132.17
214.352	261.61
214.57	383.41
214.788	525.18
215.006	372.52
215.224	251.52
215.442	529.21
215.66	155.45
215.878	269.76
216.096	322.21
216.314	357.22
216.532	632.26
216.75	938.76
216.968	30.78
217.185	-195.65
217.403	269.74
217.621	-43.78
217.839	4.61
218.057	18.29
218.275	50.89
218.492	62.5
218.71	39.95
218.928	31.54
219.146	-7.48
219.363	30.56
219.581	24.73
219.799	61.52
220.017	47.45
220.234	52.51
220.452	69.09
220.67	57.08
220.887	44.59
221.105	62.14
221.323	52.55
221.54	73.57
221.758	75.85
221.976	56.12
222.193	59.14
222.411	55.05
222.629	49.63
222.846	50.7
223.064	68.18
223.281	68.07
223.499	75.62
223.716	79.82
223.934	70.25
224.151	58.03
224.369	70.02
224.586	65.48
224.804	81.92
225.021	95.39
225.239	84.51
225.456	77.27
225.674	86.95
225.891	78.23
226.108	72.32
226.326	66.84
226.543	85.69
226.76	69.34
226.978	63
227.195	51.7
227.413	30.01
227.63	28.96
227.847	21.44
228.064	16.77
228.282	14.38
228.499	14.38
228.716	15.27
228.934	13.88
229.151	15.04
229.368	14.26
229.585	15.45
229.802	14.87
230.02	14.7
230.237	15.87
230.454	15.63
230.671	15.32
230.888	14.93
231.105	14.46
231.323	14.59
231.54	12.55
231.757	9.91
231.974	10.09
232.191	13.29
232.408	15.53
232.625	18.06
232.842	21.18
233.059	26.16
233.276	33.01
233.493	34
233.71	32.88
233.927	36.94
234.144	37.27
234.361	28.25
234.578	30.19
234.795	25.37
235.012	24.77
235.229	19.61
235.446	20.05
235.663	8.9
235.879	6.43
236.096	6.47
236.313	4.47
236.53	8.49
236.747	14.57
236.964	13.22
237.181	15.55
237.397	10.28
237.614	13.42
237.831	12.65
238.048	19.18
238.264	17.01
238.481	18.65
238.698	18.93
238.915	19.57
239.131	17.62
239.348	16.91
239.565	19.76
239.781	22
239.998	22.66
240.215	19.59
240.431	19.34
240.648	22.13
240.865	20.38
241.081	18.24
241.298	17.73
241.514	17.09
241.731	17.54
241.947	15.68
242.164	15.9
242.38	15.85
242.597	16.49
242.814	15.56
243.03	15.21
243.246	16.15
243.463	16.08
243.679	15.43
243.896	16.92
244.112	16.9
244.329	17.14
244.545	17.49
244.762	16.19
244.978	16.43
245.194	17.14
245.411	15.83
245.627	15.99
245.843	16.01
246.06	17.36
246.276	16.09
246.492	15.17
246.709	15.98
246.925	14.83
247.141	15.18
247.357	14.87
247.574	14.84
247.79	14.65
248.006	14.58
248.222	14.41
248.439	13.8
248.655	14.14
248.871	14.95
249.087	14.58
249.303	15.2
249.519	14.83
249.736	14.36
249.952	14.76
250.168	14.55
250.384	12.34
250.6	13.79
250.816	14.53
251.032	13.93
251.248	12.56
251.464	11.71
251.68	11.1
251.896	10.99
252.112	10.99
252.328	11.05
252.544	10.67
252.76	12.82
252.976	12.54
253.192	11.99
253.408	11.86
253.624	13.46
253.84	13.84
254.056	13.79
254.272	13.74
254.487	14.43
254.703	15.63
254.919	17.51
255.135	16.7
255.351	16.98
255.567	19.22
255.782	18.87
255.998	18.59
256.214	17.89
256.43	18.17
256.646	20.19
256.861	20.01
257.077	17.86
257.293	18.2
257.508	19.29
257.724	19.27
257.94	16.78
258.155	17.06
258.371	14.96
258.587	13.91
258.802	13.04
259.018	11.95
259.234	12.2
259.449	12.1
259.665	11.6
259.88	11.2
260.096	10.53
260.312	9.94
260.527	9.32
260.743	9.42
260.958	9.52
261.174	9.9
261.389	9.97
261.605	9.84
261.82	9.44
262.036	9.22
262.251	8.23
262.466	8.74
262.682	9.49
262.897	10.18
263.113	9.89
263.328	10.72
263.543	11.21
263.759	11.58
263.974	12.91
264.189	13.04
264.405	12.95
264.62	13.8
264.835	13.32
265.051	12.04
265.266	11.63
265.481	12.25
265.696	11.46
265.912	10.78
266.127	11.5
266.342	9.33
266.557	8.84
266.773	9.75
266.988	9.3
267.203	8.28
267.418	9.11
267.633	8.8
267.848	7.25
268.064	7.62
268.279	7.23
268.494	6.21
268.709	5.83
268.924	5.89
269.139	6.23
269.354	6.35
269.569	5.7
269.784	5.55
269.999	5.88
270.214	8.07
270.429	8.22
270.644	8.28
270.859	8.43
271.074	9.1
271.289	9.73
271.504	8.84
271.719	9.34
271.934	10.16
272.149	10.17
272.363	10.87
272.578	11.23
272.793	10.82
273.008	10.91
273.223	11.57
273.438	12.08
273.653	12.24
273.867	12.46
274.082	12.39
274.297	13.4
274.512	12.87
274.726	12.65
274.941	10.63
275.156	9.76
275.371	9.24
275.585	8.26
275.8	7.52
276.015	7.42
276.229	8.24
276.444	8.37
276.659	8.03
276.873	7.78
277.088	8.31
277.302	8.46
277.517	9.56
277.732	10.81
277.946	11.04
278.161	10.74
278.375	10.2
278.59	9.07
278.804	7.79
279.019	7.71
279.233	9.14
279.448	9.04
279.662	11.15
279.877	10.8
280.091	9.79
280.306	10.01
280.52	10.65
280.735	11.3
280.949	11.82
281.163	12.51
281.378	12.89
281.592	12.73
281.806	11.97
282.021	11.2
282.235	11.02
282.449	10.77
282.664	10.47
282.878	10.08
283.092	10.09
283.307	10.28
283.521	9.68
283.735	8.82
283.949	8.79
284.164	9.16
284.378	8.71
284.592	8.86
284.806	10
285.02	10.02
285.234	9.97
285.449	9.21
285.663	8.96
285.877	9.23
286.091	9.64
286.305	9.31
286.519	9.59
286.733	9.71
286.947	10.19
287.161	8.86
287.375	9.12
287.589	8.3
287.803	8.87
288.017	9.08
288.231	9.98
288.445	9.68
288.659	10
288.873	8.95
289.087	8.91
289.301	9.83
289.515	10.32
289.729	9.64
289.943	10.97
290.157	11.3
290.371	11.6
290.584	11.16
290.798	11.4
291.012	11.19
291.226	11.72
291.44	12.36
291.654	10.44
291.867	10.22
292.081	10.5
292.295	10.75
292.509	10.17
292.722	9.23
292.936	8.96
293.15	8.24
293.364	9.6
293.577	10.11
293.791	10.23
294.005	10.24
294.218	11.03
294.432	10.6
294.645	9.37
294.859	9.37
295.073	9.01
295.286	9.28
295.5	9.4
295.713	9.21
295.927	9.08
296.14	8.7
296.354	9.19
296.568	9.2
296.781	10.41
296.994	10.68
297.208	10.31
297.421	11.59
297.635	11.66
297.848	12.09
298.062	12.51
298.275	11.99
298.489	11.81
298.702	12.59
298.915	12.58
299.129	12.38
299.342	12.47
299.555	12.81
299.769	11.07
299.982	10.88
300.195	10.35
300.409	9.45
300.622	9.83
300.835	10.15
301.048	9.5
301.262	9.51
301.475	7.94
301.688	6.9
301.901	7.44
302.115	7.87
302.328	8.14
302.541	7.76
302.754	7.65
302.967	8.23
303.18	8.47
303.393	7.91
303.607	8.1
303.82	8.16
304.033	9.73
304.246	9.14
304.459	9.85
304.672	9.95
304.885	10.78
305.098	11.29
305.311	10.74
305.524	10.55
305.737	11.37
305.95	11.16
306.163	11.46
306.376	11.58
306.589	12.08
306.802	11.15
307.015	10.98
307.228	10.99
307.44	10.9
307.653	10.74
307.866	10.73
308.079	10.87
308.292	10.68
308.505	11.31
308.718	10.46
308.93	9.42
309.143	10.5
309.356	10.38
309.569	10.05
309.781	9.24
309.994	8.67
310.207	8.48
310.42	8.74
310.632	8.58
310.845	8.5
311.058	9.27
311.27	9.56
311.483	8.7
311.696	8.83
311.908	10
312.121	9.63
312.333	10
312.546	9.3
312.759	8.88
312.971	9.52
313.184	9.33
313.396	8.14
313.609	8.51
313.821	8.99
314.034	9.4
314.246	8.27
314.459	9.04
314.671	10.01
314.884	10.53
315.096	9.44
315.309	9.18
315.521	10.16
315.733	11.29
315.946	11.7
316.158	12.91
316.371	12.81
316.583	12.11
316.795	11.12
317.008	10.34
317.22	11.22
317.432	12.63
317.644	12.59
317.857	10.88
318.069	10.49
318.281	9.72
318.494	9.6
318.706	8.96
318.918	8.93
319.13	9.48
319.342	8.27
319.555	7.27
319.767	8.07
319.979	7.77
320.191	8.57
320.403	8.87
320.615	9.61
320.827	9.24
321.039	8.38
321.252	8.76
321.464	10.48
321.676	12.19
321.888	12.28
322.1	11.58
322.312	11.94
322.524	13.05
322.736	11.99
322.948	11.99
323.16	11.18
323.372	11.34
323.584	11.53
323.796	9.91
324.007	9.47
324.219	10.01
324.431	9.37
324.643	8.97
324.855	8.82
325.067	9.74
325.279	8.97
325.491	9.61
325.702	10.14
325.914	9.19
326.126	10.28
326.338	10.77
326.55	10.19
326.761	9.7
326.973	10.14
327.185	9.35
327.396	9.78
327.608	10.96
327.82	11.17
328.032	11.23
328.243	11.87
328.455	11.79
328.666	11.29
328.878	12.4
329.09	13.52
329.301	13.46
329.513	13.88
329.725	12.57
329.936	11.65
330.148	10.98
330.359	11.32
330.571	12.2
330.782	10.92
330.994	12.08
331.205	10.66
331.417	10.81
331.628	9.95
331.84	9.65
332.051	9.88
332.262	10.8
332.474	12.07
332.685	12.08
332.897	12.47
333.108	12.41
333.319	11.62
333.531	12.27
333.742	10.83
333.953	11.15
334.165	12.09
334.376	12.48
334.587	11.48
334.799	9.86
335.01	9.46
335.221	9.48
335.432	10.32
335.644	10.16
335.855	9.82
336.066	11.11
336.277	10.47
336.488	9.66
336.7	9.1
336.911	8.39
337.122	8.92
337.333	9.15
337.544	7.91
337.755	7.1
337.966	6.22
338.177	6.78
338.388	6.49
338.599	7.42
338.811	8.09
339.022	7.96
339.233	8.87
339.444	9.12
339.655	8.99
339.866	9.52
340.076	10
340.287	10.55
340.498	10.11
340.709	9.71
340.92	9.64
341.131	8.92
341.342	8.93
341.553	9.58
341.764	8.63
341.975	8.32
342.185	8.38
342.396	8.74
342.607	9.27
342.818	9.29
343.029	10.19
343.239	9.83
343.45	9.82
343.661	10.23
343.872	9.38
344.082	9.78
344.293	10.49
344.504	10.8
344.714	10.61
344.925	10.52
345.136	10.55
345.346	10.67
345.557	10.69
345.768	10.77
345.978	11.22
346.189	10.84
346.399	10.74
346.61	10.07
346.821	9.85
347.031	9.95
347.242	9.65
347.452	9.8
347.663	8.61
347.873	9.1
348.084	9.49
348.294	8.83
348.504	9.72
348.715	10.44
348.925	10.62
349.136	10.79
349.346	10.64
349.557	11.2
349.767	10.97
349.977	11.39
350.188	10.6
350.398	9.21
350.608	9.42
350.819	9.27
351.029	8.81
351.239	9.16
351.449	8.03
351.66	8.03
351.87	7.03
352.08	7.2
352.29	7.64
352.501	7.92
352.711	9.01
352.921	9.39
353.131	8.56
353.341	8.17
353.552	8.27
353.762	8.89
353.972	9.03
354.182	9.33
354.392	9.07
354.602	8.31
354.812	8.37
355.022	7.78
355.232	7.68
355.442	8.48
355.652	8.25
355.862	7.97
356.072	8.37
356.282	8.37
356.492	8.65
356.702	8.81
356.912	9.08
357.122	9.2
357.332	9.73
357.542	9.09
357.752	8.35
357.962	8.87
358.171	8.62
358.381	8.45
358.591	7.89
358.801	7.7
359.011	7.54
359.221	7.46
359.43	7.32
359.64	6.92
359.85	6.87
360.06	7.55
360.269	7.49
360.479	7.48
360.689	7.24
360.899	7.14
361.108	7.34
361.318	7.16
361.528	7.36
361.737	7.46
361.947	7.52
362.156	7.95
362.366	7.76
362.576	7.84
362.785	7.78
362.995	7.61
363.204	8.41
363.414	8.54
363.623	8.62
363.833	8.55
364.042	8.51
364.252	8.69
364.461	8.48
364.671	8.5
364.88	8.8
365.09	9.31
365.299	9.72
365.509	9.53
365.718	9.19
365.927	9.41
366.137	9.05
366.346	9.57
366.555	9.08
366.765	9.13
366.974	8.92
367.183	8.62
367.393	8.2
367.602	8.95
367.811	9.06
368.021	8.86
368.23	7.98
368.439	8.3
368.648	7.59
368.857	8.45
369.067	8.58
369.276	9.24
369.485	8.87
369.694	8.77
369.903	7.75
370.112	7.24
370.321	7.16
370.531	7.63
370.74	6.91
370.949	7.18
371.158	6.52
371.367	6.54
371.576	5.67
371.785	5.87
371.994	5.97
372.203	5.95
372.412	6.32
372.621	6.36
372.83	6.55
373.039	7.43
373.248	7.48
373.457	7.82
373.666	7.95
373.874	8.42
374.083	8.33
374.292	7.97
374.501	8.03
374.71	7.85
374.919	7.94
375.128	8.16
375.336	7.54
375.545	7.44
375.754	7.39
375.963	7.12
376.171	7.15
376.38	7.05
376.589	7.3
376.798	6.99
377.006	6.73
377.215	7.14
377.424	6.51
377.632	6.84
377.841	6.92
378.05	7.1
378.258	7.07
378.467	7.06
378.675	7.21
378.884	7.46
379.093	7.77
379.301	8.01
379.51	7.6
379.718	7.99
379.927	7.74
380.135	7.83
380.344	7.18
380.552	6.75
380.761	6.39
380.969	6.46
381.177	6.36
381.386	6.27
381.594	6.28
381.803	6.36
382.011	6.28
382.219	6.41
382.428	6.1
382.636	6.26
382.845	6.78
383.053	6.81
383.261	6.46
383.469	6.33
383.678	6.14
383.886	6.1
384.094	6.05
384.302	6.31
384.511	5.97
384.719	6.03
384.927	6.16
385.135	6.02
385.343	6.15
385.552	6.45
385.76	6.15
385.968	6.21
386.176	5.95
386.384	5.63
386.592	5.63
386.8	5.78
387.008	5.67
387.216	5.55
387.424	5.49
387.633	5.9
387.841	5.82
388.049	6.11
388.257	6.41
388.465	6.58
388.672	6.95
388.88	6.62
389.088	6.84
389.296	6.69
389.504	6.62
389.712	6.73
389.92	6.25
390.128	6.1
390.336	6.14
390.544	5.68
390.751	5.39
390.959	5.17
391.167	5.56
391.375	5.67
391.583	5.83
391.79	5.65
391.998	5.84
392.206	5.83
392.414	5.95
392.621	5.92
392.829	6.07
393.037	6.43
393.244	6.28
393.452	5.59
393.66	5.19
393.867	5.16
394.075	5.51
394.283	5.19
394.49	4.99
394.698	4.93
394.905	4.72
395.113	4.71
395.32	4.43
395.528	4.68
395.735	5.22
395.943	5.27
396.15	5.02
396.358	4.77
396.565	4.88
396.773	4.75
396.98	4.94
397.188	5.09
397.395	5.13
397.602	4.87
397.81	4.62
398.017	4.31
398.225	4.53
398.432	4.74
398.639	4.64
398.847	4.58
399.054	4.78
399.261	4.68
399.468	4.68
399.676	4.62
399.883	4.83
400.09	5.08
400.297	5.45
400.505	5.32
400.712	5.38
400.919	5.51
401.126	5.55
401.333	5.93
401.54	5.81
401.748	5.89
401.955	5.97
402.162	5.94
402.369	5.86
402.576	5.95
402.783	6.09
402.99	6.1
403.197	6.26
403.404	6.22
403.611	6.08
403.818	6.19
404.025	6.17
404.232	5.94
404.439	6.11
404.646	6.03
404.853	5.8
405.06	5.55
405.267	5.59
405.474	5.33
405.681	5.32
405.887	5.28
406.094	5.09
406.301	5.03
406.508	5.28
406.715	5.09
406.922	5
407.128	4.88
407.335	5.18
407.542	4.95
407.749	5.1
407.955	4.97
408.162	4.95
408.369	5
408.575	5.1
408.782	4.82
408.989	4.94
409.195	5.06
409.402	5.12
409.609	4.87
409.815	4.67
410.022	4.73
410.228	4.92
410.435	4.92
410.642	4.95
410.848	4.96
411.055	5.03
411.261	5.21
411.468	5.12
411.674	5.21
411.881	5.5
412.087	5.63
412.294	5.65
412.5	5.33
412.706	5.25
412.913	5.37
413.119	5.28
413.326	5.11
413.532	4.91
413.738	4.89
413.945	4.77
414.151	4.8
414.357	4.98
414.564	5.01
414.77	5.21
414.976	5.33
415.182	5.12
415.389	5.08
415.595	5.2
415.801	5.3
416.007	5.34
416.214	5.31
416.42	5.07
416.626	5.11
416.832	5.16
417.038	5.16
417.244	5.03
417.45	5.1
417.657	5.1
417.863	5.19
418.069	5.25
418.275	5.41
418.481	5.37
418.687	5.29
418.893	5.46
419.099	5.35
419.305	5.43
419.511	5.45
419.717	5.34
419.923	5.28
420.129	5.29
420.335	5.03
420.541	5
420.746	4.93
420.952	4.94
421.158	4.74
421.364	4.7
421.57	4.49
421.776	4.54
421.982	4.62
422.187	4.76
422.393	4.7
422.599	4.72
422.805	4.66
423.01	4.75
423.216	4.67
423.422	4.68
423.628	4.7
423.833	4.76
424.039	4.64
424.245	4.62
424.45	4.63
424.656	4.67
424.862	4.8
425.067	4.7
425.273	4.76
425.478	4.77
425.684	4.85
425.889	4.94
426.095	4.95
426.301	5.06
426.506	5.09
426.712	4.93
426.917	4.96
427.123	4.98
427.328	4.86
427.533	4.89
427.739	5.04
427.944	4.99
428.15	4.82
428.355	4.81
428.561	4.78
428.766	4.75
428.971	4.74
429.177	4.64
429.382	4.59
429.587	5.08
429.793	4.97
429.998	4.74
430.203	4.71
430.408	4.76
430.614	4.96
430.819	4.81
431.024	4.78
431.229	4.78
431.434	4.61
431.64	4.5
431.845	4.45
432.05	4.49
432.255	4.72
432.46	4.69
432.665	4.75
432.87	4.62
433.076	4.69
433.281	4.61
433.486	4.81
433.691	4.92
433.896	5.12
434.101	5.08
434.306	5.02
434.511	4.93
434.716	5.02
434.921	5.01
435.126	5.25
435.331	5.28
435.535	5.43
435.74	5.13
435.945	5.31
436.15	5.05
436.355	5.08
436.56	5.12
436.765	5.21
436.97	5.11
437.174	5.14
437.379	4.92
437.584	4.89
437.789	4.88
437.993	4.96
438.198	4.77
438.403	4.84
438.608	4.78
438.812	4.75
439.017	4.79
439.222	4.91
439.426	4.84
439.631	4.82
439.836	4.94
440.04	5.02
440.245	5.09
440.45	5.17
440.654	5.32
440.859	5.29
441.063	5.52
441.268	5.45
441.472	5.38
441.677	5.36
441.881	5.37
442.086	5.15
442.29	5.04
442.495	4.95
442.699	5.01
442.904	4.89
443.108	4.9
443.312	4.67
443.517	4.57
443.721	4.65
443.925	4.78
444.13	4.88
444.334	5.11
444.538	5.17
444.743	5.27
444.947	5.12
445.151	5.15
445.356	5.25
445.56	5.37
445.764	5.51
445.968	5.51
446.173	5.42
446.377	5.3
446.581	5.24
446.785	5.19
446.989	5.15
447.193	5.13
447.398	4.96
447.602	4.85
447.806	4.69
448.01	4.53
448.214	4.37
448.418	4.33
448.622	4.29
448.826	4.38
449.03	4.36
449.234	4.33
449.438	4.28
449.642	4.42
449.846	4.44
450.05	4.5
450.254	4.54
450.458	4.61
450.662	4.47
450.866	4.41
451.069	4.28
451.273	4.29
451.477	4.22
451.681	4.19
451.885	4.18
452.089	4.29
452.292	4.29
452.496	4.35
452.7	4.33
452.904	4.37
453.107	4.52
453.311	4.68
453.515	4.74
453.719	4.91
453.922	5.11
454.126	5
454.33	4.87
454.533	4.72
454.737	4.68
454.94	4.72
455.144	4.86
455.348	4.83
455.551	4.69
455.755	4.56
455.958	4.49
456.162	4.37
456.365	4.52
456.569	4.5
456.772	4.73
456.976	4.89
457.179	4.94
457.383	4.96
457.586	4.97
457.79	4.9
457.993	4.85
458.196	4.94
458.4	5.05
458.603	5.06
458.807	5.12
459.01	5.01
459.213	4.92
459.417	4.9
459.62	4.89
459.823	4.85
460.026	4.93
460.23	4.97
460.433	4.81
460.636	4.71
460.839	4.67
461.042	4.69
461.246	4.75
461.449	4.77
461.652	4.8
461.855	4.72
462.058	4.71
462.261	4.73
462.464	4.76
462.668	4.88
462.871	5
463.074	5
463.277	4.85
463.48	4.82
463.683	4.85
463.886	4.9
464.089	4.99
464.292	5.06
464.495	5.08
464.698	5.07
464.901	5.01
465.104	4.98
465.306	5.17
465.509	5.15
465.712	5.1
465.915	5.01
466.118	4.77
466.321	4.83
466.524	4.85
466.726	4.81
466.929	4.8
467.132	4.73
467.335	4.78
467.538	4.54
467.74	4.6
467.943	4.61
468.146	4.58
468.348	4.76
468.551	4.64
468.754	4.75
468.956	4.79
469.159	4.76
469.362	4.93
469.564	4.76
469.767	4.97
469.969	5.05
470.172	5.1
470.375	5.05
470.577	5.01
470.78	5.1
470.982	5.02
471.185	5.03
471.387	4.87
471.59	4.89
471.792	4.92
471.995	4.81
472.197	4.85
472.399	4.86
472.602	5.05
472.804	4.92
473.007	4.86
473.209	4.64
473.411	4.63
473.614	4.81
473.816	4.78
474.018	4.8
474.22	4.79
474.423	4.76
474.625	4.59
474.827	4.47
475.03	4.6
475.232	4.59
475.434	4.85
475.636	4.82
475.838	4.93
476.04	4.85
476.243	4.9
476.445	4.87
476.647	4.82
476.849	5
477.051	5.02
477.253	4.99
477.455	5.06
477.657	4.87
477.859	4.88
478.061	4.74
478.263	4.79
478.465	4.7
478.667	4.72
478.869	4.88
479.071	4.74
479.273	4.71
479.475	4.65
479.677	4.68
479.879	4.79
480.081	4.72
480.283	4.68
480.485	4.6
480.686	4.73
480.888	4.72
481.09	4.57
481.292	4.65
481.494	4.73
481.695	4.79
481.897	4.85
482.099	4.76
482.301	4.77
482.502	4.76
482.704	4.73
482.906	4.7
483.107	4.73
483.309	4.72
483.511	4.67
483.712	4.63
483.914	4.6
484.115	4.52
484.317	4.54
484.519	4.55
484.72	4.58
484.922	4.59
485.123	4.55
485.325	4.51
485.526	4.46
485.728	4.52
485.929	4.56
486.131	4.52
486.332	4.63
486.534	4.6
486.735	4.56
486.936	4.53
487.138	4.56
487.339	4.54
487.541	4.56
487.742	4.58
487.943	4.57
488.144	4.51
488.346	4.61
488.547	4.57
488.748	4.58
488.95	4.6
489.151	4.63
489.352	4.59
489.553	4.72
489.755	4.65
489.956	4.74
490.157	4.69
490.358	4.71
490.559	4.65
490.76	4.66
490.961	4.71
491.163	4.73
491.364	4.73
491.565	4.76
491.766	4.66
491.967	4.77
492.168	4.74
492.369	4.81
492.57	4.8
492.771	4.86
492.972	4.81
493.173	4.76
493.374	4.81
493.575	4.75
493.776	4.7
493.976	4.73
494.177	4.69
494.378	4.69
494.579	4.58
494.78	4.66
494.981	4.47
495.182	4.56
495.382	4.5
495.583	4.35
495.784	4.48
495.985	4.7
496.185	4.61
496.386	4.66
496.587	4.73
496.788	4.69
496.988	4.83
497.189	4.86
497.39	4.98
497.59	5.1
497.791	5.16
497.992	5.14
498.192	5.07
498.393	5.28
498.593	5.31
498.794	5.26
498.994	5.33
499.195	5.19
499.395	5.24
499.596	5.23
499.796	5.23
499.997	5.2
500.197	5.18
500.398	5.21
500.598	5.03
500.799	5.09
500.999	4.91
501.199	5.03
501.4	5.16
501.6	5.13
501.801	4.85
502.001	4.8
502.201	4.83
502.402	4.81
502.602	4.92
502.802	5.05
503.002	5.02
503.203	5.33
503.403	5.25
503.603	5.23
503.803	5.34
504.003	5.5
504.204	5.66
504.404	5.62
504.604	5.65
504.804	5.66
505.004	5.64
505.204	5.57
505.404	5.4
505.604	5.59
505.804	5.64
506.005	5.68
506.205	5.79
506.405	5.71
506.605	6
506.805	6.04
507.005	5.91
507.204	5.98
507.404	5.98
507.604	6.03
507.804	5.98
508.004	6.2
508.204	6.21
508.404	6.13
508.604	6.28
508.804	6.16
509.003	6.22
509.203	6.36
509.403	6.32
509.603	6.36
509.803	6.44
510.002	6.35
510.202	6.14
510.402	6.2
510.602	6.22
510.801	6.17
511.001	6.17
511.201	6.28
511.4	6.24
511.6	6.32
511.8	6.32
511.999	6.35
512.199	6.48
512.398	6.51
512.598	6.55
512.797	6.72
512.997	6.73
513.197	6.81
513.396	6.77
513.596	6.65
513.795	6.59
513.994	6.66
514.194	6.77
514.393	6.81
514.593	6.87
514.792	6.79
514.992	6.75
515.191	6.88
515.39	6.91
515.59	7.04
515.789	7.34
515.988	7.45
516.188	7.5
516.387	7.5
516.586	7.61
516.786	7.57
516.985	7.62
517.184	7.57
517.383	7.47
517.582	7.43
517.782	7.4
517.981	7.41
518.18	7.51
518.379	7.56
518.578	7.64
518.777	7.62
518.976	7.61
519.176	7.78
519.375	7.83
519.574	7.88
519.773	8.04
519.972	8.2
520.171	8.15
520.37	8.09
520.569	8.21
520.768	8.26
520.967	8.27
521.166	8.43
521.365	8.55
521.564	8.59
521.762	8.6
521.961	8.58
522.16	8.52
522.359	8.72
522.558	8.83
522.757	8.76
522.956	8.87
523.154	8.86
523.353	9
523.552	8.84
523.751	8.99
523.949	9.13
524.148	9.15
524.347	9.22
524.546	9.13
524.744	9.25
524.943	9.43
525.142	9.37
525.34	9.46
525.539	9.44
525.737	9.49
525.936	9.54
526.135	9.64
526.333	9.72
526.532	9.77
526.73	9.9
526.929	9.93
527.127	9.89
527.326	9.87
527.524	9.98
527.723	9.99
527.921	10.03
528.12	10.01
528.318	9.97
528.516	9.95
528.715	9.97
528.913	9.97
529.112	9.99
529.31	10.05
529.508	10.13
529.707	10.08
529.905	10.15
530.103	10.17
530.301	10.17
530.5	10.22
530.698	10.28
530.896	10.31
531.094	10.38
531.293	10.43
531.491	10.47
531.689	10.5
531.887	10.67
532.085	10.67
532.283	10.77
532.481	10.87
532.68	10.99
532.878	11.07
533.076	11.17
533.274	11.12
533.472	11.13
533.67	11.15
533.868	11.16
534.066	11.14
534.264	11.22
534.462	11.26
534.66	11.34
534.858	11.31
535.056	11.34
535.253	11.29
535.451	11.47
535.649	11.61
535.847	11.75
536.045	11.84
536.243	11.94
536.441	12.03
536.638	12.04
536.836	12.14
537.034	12.27
537.232	12.36
537.43	12.46
537.627	12.39
537.825	12.36
538.023	12.32
538.22	12.37
538.418	12.38
538.616	12.31
538.813	12.32
539.011	12.36
539.209	12.43
539.406	12.62
539.604	12.67
539.801	12.81
539.999	12.91
540.196	12.92
540.394	12.94
540.591	12.93
540.789	12.96
540.986	12.98
541.184	12.98
541.381	12.98
541.579	12.97
541.776	12.99
541.974	13.03
542.171	13.03
542.368	13.05
542.566	13.13
542.763	13.16
542.96	13.29
543.158	13.39
543.355	13.46
543.552	13.53
543.75	13.5
543.947	13.68
544.144	13.68
544.341	13.79
544.539	13.92
544.736	14.08
544.933	14.14
545.13	14.22
545.327	14.26
545.524	14.34
545.722	14.38
545.919	14.48
546.116	14.33
546.313	14.46
546.51	14.45
546.707	14.49
546.904	14.4
547.101	14.54
547.298	14.52
547.495	14.53
547.692	14.59
547.889	14.65
548.086	14.68
548.283	14.89
548.48	14.97
548.677	15.15
548.874	15.28
549.07	15.49
549.267	15.45
549.464	15.72
549.661	15.82
549.858	16.01
550.055	16.03
550.251	16.11
550.448	16.12
550.645	16.21
550.842	16.12
551.038	16.11
551.235	16.3
551.432	16.5
551.628	16.41
551.825	16.4
552.022	16.4
552.218	16.47
552.415	16.59
552.612	16.57
552.808	16.66
553.005	16.87
553.201	16.88
553.398	16.82
553.594	16.8
553.791	16.75
553.987	17.05
554.184	16.96
554.38	16.99
554.577	17.14
554.773	17.43
554.97	17.48
555.166	17.58
555.362	17.56
555.559	17.59
555.755	17.65
555.952	17.84
556.148	17.79
556.344	17.96
556.541	17.96
556.737	17.78
556.933	17.71
557.129	17.6
557.326	17.45
557.522	17.69
557.718	17.68
557.914	17.98
558.11	17.86
558.307	17.9
558.503	17.86
558.699	17.99
558.895	18.07
559.091	17.98
559.287	17.99
559.483	18.25
559.679	18.39
559.876	18.53
560.072	18.46
560.268	18.68
560.464	18.74
560.66	18.82
560.856	19
561.052	19.14
561.247	19.44
561.443	19.62
561.639	19.36
561.835	19.38
562.031	19.46
562.227	19.58
562.423	19.66
562.619	19.67
562.815	19.95
563.01	19.94
563.206	20.07
563.402	19.92
563.598	19.97
563.793	20.26
563.989	20.4
564.185	20.34
564.381	20.29
564.576	20.38
564.772	20.68
564.968	20.66
565.163	20.76
565.359	20.8
565.555	20.98
565.75	21.05
565.946	21.19
566.141	21.27
566.337	21.37
566.532	21.46
566.728	21.45
566.923	21.36
567.119	21.43
567.314	21.51
567.51	21.6
567.705	21.59
567.901	21.59
568.096	21.62
568.292	21.58
568.487	21.5
568.682	21.6
568.878	21.87
569.073	21.91
569.268	21.98
569.464	22.05
569.659	22.11
569.854	22.31
570.05	22.45
570.245	22.5
570.44	22.66
570.635	22.95
570.831	22.99
571.026	22.97
571.221	23.12
571.416	22.99
571.611	23.04
571.806	23.11
572.002	23.27
572.197	23.46
572.392	23.54
572.587	23.58
572.782	23.52
572.977	23.46
573.172	23.56
573.367	23.51
573.562	23.78
573.757	23.87
573.952	24
574.147	23.97
574.342	24.01
574.537	24.09
574.732	24.19
574.927	24.22
575.121	24.32
575.316	24.33
575.511	24.38
575.706	24.32
575.901	24.36
576.096	24.29
576.29	24.3
576.485	24.37
576.68	24.25
576.875	24.29
577.069	24.42
577.264	24.49
577.459	24.65
577.654	24.89
577.848	24.84
578.043	25.12
578.238	25.23
578.432	24.98
578.627	24.86
578.821	25.03
579.016	24.88
579.21	24.94
579.405	25.07
579.6	24.9
579.794	24.97
579.989	25.18
580.183	24.97
580.378	25.12
580.572	25.41
580.766	25.64
580.961	25.43
581.155	25.47
581.35	25.62
581.544	25.68
581.738	25.73
581.933	25.76
582.127	25.81
582.321	25.87
582.516	25.96
582.71	26.23
582.904	26.1
583.099	26.34
583.293	26.53
583.487	26.39
583.681	26.57
583.875	26.81
584.07	26.7
584.264	26.76
584.458	26.85
584.652	26.84
584.846	26.84
585.04	26.87
585.234	27.1
585.428	27.05
585.623	27.19
585.817	27.14
586.011	27.13
586.205	27.26
586.399	27.36
586.593	27.33
586.787	27.3
586.981	27.32
587.174	27.42
587.368	27.24
587.562	27.24
587.756	27.36
587.95	27.39
588.144	27.15
588.338	27.13
588.532	27.22
588.725	27.16
588.919	27.1
589.113	27.16
589.307	27.08
589.501	27.28
589.694	27.5
589.888	27.62
590.082	27.62
590.275	27.85
590.469	27.83
590.663	27.87
590.856	28.26
591.05	28.37
591.244	28.43
591.437	28.53
591.631	28.6
591.824	28.53
592.018	28.2
592.212	28.27
592.405	28.45
592.599	28.57
592.792	28.6
592.986	28.44
593.179	28.44
593.372	28.64
593.566	29
593.759	29.06
593.953	29.16
594.146	29.41
594.339	29.52
594.533	29.3
594.726	29.46
594.92	29.32
595.113	29.31
595.306	29.45
595.499	29.15
595.693	29.2
595.886	29.18
596.079	29.15
596.272	29.14
596.466	29.15
596.659	29.27
596.852	29.02
597.045	29.14
597.238	29.1
597.431	29.16
597.624	29.11
597.818	29
598.011	28.95
598.204	28.86
598.397	28.93
598.59	28.75
598.783	28.64
598.976	28.78
599.169	28.79
599.362	28.77
599.555	28.57
599.748	29.01
599.941	28.8
600.134	29.07
600.326	29.08
600.519	28.91
600.712	28.96
600.905	29.4
601.098	29.62
601.291	29.72
601.483	29.77
601.676	30.01
601.869	29.9
602.062	30.13
602.255	30.22
602.447	30.23
602.64	30.47
602.833	30.59
603.025	30.53
603.218	30.44
603.411	30.34
603.603	30.45
603.796	30.38
603.989	30.26
604.181	30.2
604.374	30.26
604.566	30.38
604.759	30.26
604.951	30.44
605.144	30.39
605.336	30.45
605.529	30.48
605.721	30.4
605.914	30.34
606.106	30.31
606.299	30.3
606.491	30.13
606.683	30.1
606.876	30.32
607.068	30.24
607.26	30.17
607.453	30.21
607.645	30.21
607.837	30.42
608.03	30.59
608.222	30.82
608.414	30.93
608.606	30.98
608.799	31.22
608.991	31.34
609.183	31.47
609.375	31.63
609.567	31.66
609.759	31.61
609.952	31.71
610.144	31.81
610.336	31.82
610.528	31.96
610.72	32.01
610.912	31.96
611.104	31.9
611.296	31.63
611.488	31.45
611.68	31.58
611.872	31.85
612.064	31.76
612.256	31.72
612.448	31.7
612.64	31.78
612.832	31.92
613.023	31.88
613.215	31.8
613.407	32.01
613.599	32.21
613.791	32.01
613.983	32.03
614.174	31.93
614.366	31.99
614.558	32.21
614.75	31.94
614.941	32.05
615.133	32.27
615.325	32.7
615.516	32.77
615.708	32.7
615.9	32.49
616.091	32.42
616.283	32.54
616.475	32.65
616.666	32.62
616.858	32.66
617.049	32.76
617.241	32.79
617.432	32.48
617.624	32.54
617.815	33.09
618.007	33.56
618.198	33.54
618.39	33.55
618.581	33.79
618.773	33.85
618.964	33.82
619.155	33.42
619.347	33.29
619.538	33.51
619.729	33.5
619.921	33.25
620.112	33.37
620.303	33.49
620.494	33.44
620.686	33.23
620.877	33.03
621.068	33
621.259	33.14
621.451	33.42
621.642	33.21
621.833	33.34
622.024	33.2
622.215	32.73
622.406	32.68
622.597	32.72
622.788	32.48
622.98	32.35
623.171	32.69
623.362	32.98
623.553	32.74
623.744	32.95
623.935	33.08
624.126	33.35
624.317	33.67
624.508	33.68
624.698	33.86
624.889	34.13
625.08	34.56
625.271	34.67
625.462	34.54
625.653	34.44
625.844	34.46
626.034	34.29
626.225	34.12
626.416	34.08
626.607	34.33
626.798	34.21
626.988	34.01
627.179	33.88
627.37	33.81
627.56	33.74
627.751	34.07
627.942	33.91
628.132	34.02
628.323	33.84
628.514	33.96
628.704	34.02
628.895	34.08
629.085	34.19
629.276	34.29
629.466	34.41
629.657	34.4
629.847	34.45
630.038	34.66
630.228	34.63
630.419	35.01
630.609	35.07
630.8	35.16
630.99	35.46
631.181	35.79
631.371	35.76
631.561	35.54
631.752	35.57
631.942	35.34
632.132	35.04
632.323	35.07
632.513	34.9
632.703	34.91
632.893	34.43
633.084	34.29
633.274	34.24
633.464	34.55
633.654	34.7
633.844	34.73
634.034	34.8
634.225	35.23
634.415	35.27
634.605	35.15
634.795	35.24
634.985	35.46
635.175	35.42
635.365	35.43
635.555	35.08
635.745	35.26
635.935	35.48
636.125	35.57
636.315	35.76
636.505	35.68
636.695	35.98
636.885	35.88
637.075	36.07
637.265	36.25
637.455	36.18
637.644	36.22
637.834	36.04
638.024	35.8
638.214	35.93
638.404	35.69
638.593	35.74
638.783	35.87
638.973	36
639.163	35.84
639.352	35.76
639.542	35.68
639.732	35.91
639.921	36.22
640.111	36.36
640.301	36.04
640.49	35.96
640.68	35.77
640.87	36.07
641.059	36.08
641.249	36.39
641.438	36.44
641.628	36.64
641.817	36.5
642.007	36.48
642.196	36.42
642.386	36.56
642.575	36.7
642.764	37.18
642.954	37.08
643.143	37.44
643.333	37.26
643.522	37.31
643.711	37.07
643.901	37.34
644.09	37.1
644.279	37.56
644.469	37.54
644.658	37.44
644.847	37.29
645.036	36.91
645.226	36.64
645.415	36.6
645.604	36.6
645.793	36.69
645.982	36.38
646.171	36.57
646.361	36.42
646.55	36.41
646.739	36.53
646.928	36.81
647.117	36.97
647.306	36.84
647.495	36.95
647.684	36.88
647.873	37.08
648.062	37.2
648.251	37.26
648.44	37
648.629	37.26
648.818	37.36
649.007	37.07
649.196	37.23
649.384	37.32
649.573	37.29
649.762	37.44
649.951	37.95
650.14	38.07
650.328	37.8
650.517	37.95
650.706	37.94
650.895	37.85
651.083	37.88
651.272	37.83
651.461	37.96
651.65	38.02
651.838	38.21
652.027	37.3
652.216	37.28
652.404	37.45
652.593	37.17
652.781	36.7
652.97	36.85
653.158	36.96
653.347	37.08
653.535	36.55
653.724	36.84
653.912	36.65
654.101	37.29
654.289	37.08
654.478	37.24
654.666	37.53
654.855	37.88
655.043	37.62
655.231	37.16
655.42	37.07
655.608	37.71
655.796	37.48
655.985	37.87
656.173	38.01
656.361	38.39
656.55	38.53
656.738	38.64
656.926	38.97
657.114	39.18
657.302	39.53
657.491	39.15
657.679	38.74
657.867	38.79
658.055	38.8
658.243	38.81
658.431	38.82
658.619	38.81
658.807	38.8
658.996	38.82
659.184	38.75
659.372	38.82
659.56	39
659.748	39.16
659.936	39.22
660.124	38.78
660.311	38.74
660.499	38.53
660.687	38.47
660.875	38.54
661.063	38.54
661.251	38.59
661.439	38.67
661.627	38.67
661.814	38.76
662.002	38.62
662.19	39.08
662.378	39
662.565	39.16
662.753	39.1
662.941	39.11
663.129	38.92
663.316	38.93
663.504	38.83
663.692	39
663.879	38.98
664.067	39.02
664.254	38.98
664.442	38.88
664.63	39.05
664.817	38.85
665.005	39.16
665.192	39.26
665.38	38.96
665.567	39.36
665.755	39.26
665.942	39.39
666.13	39.85
666.317	39.83
666.504	39.79
666.692	39.62
666.879	40.2
667.067	40.33
667.254	40.39
667.441	41.19
667.629	40.94
667.816	41.02
668.003	41.24
668.19	41.32
668.378	41.81
668.565	41.86
668.752	41.99
668.939	41.72
669.127	41.57
669.314	42.01
669.501	41.22
669.688	41.11
669.875	41.26
670.062	41.19
670.249	40.73
670.436	40.24
670.623	40.74
670.81	40.79
670.997	41.05
671.184	41.18
671.371	41.17
671.558	42.07
671.745	42.64
671.932	42.67
672.119	42.08
672.306	42.22
672.493	42
672.68	41.72
672.867	42.3
673.054	42.48
673.24	42.3
673.427	41.99
673.614	41.58
673.801	41.16
673.988	41.38
674.174	42.17
674.361	42.3
674.548	42.63
674.734	42.69
674.921	42.15
675.108	41.71
675.294	41.61
675.481	41.69
675.668	41.83
675.854	41.91
676.041	41.91
676.227	41.98
676.414	42
676.601	41.92
676.787	42.01
676.974	42.35
677.16	42.49
677.347	42.76
677.533	42.76
677.719	42.66
677.906	42.88
678.092	42.64
678.279	42.5
678.465	42.27
678.651	42.36
678.838	41.92
679.024	41.76
679.21	41.67
679.397	41.49
679.583	41.57
679.769	41.74
679.955	41.5
680.142	41.63
680.328	41.65
680.514	41.54
680.7	41.32
680.886	41.34
681.073	40.92
681.259	41.13
681.445	41.06
681.631	40.81
681.817	40.77
682.003	41
682.189	40.7
682.375	40.97
682.561	41.27
682.747	41.92
682.933	42
683.119	42.44
683.305	42.19
683.491	42.47
683.677	42.55
683.863	42.26
684.049	42.23
684.235	42.28
684.42	42.13
684.606	42.35
684.792	41.86
684.978	41.98
685.164	41.84
685.349	42.14
685.535	42.01
685.721	42.14
685.907	42.59
686.092	42.72
686.278	43.39
686.464	43.52
686.649	43.44
686.835	43.68
687.021	43.8
687.206	44.01
687.392	43.82
687.577	44.09
687.763	44.13
687.948	43.9
688.134	43.54
688.319	43.35
688.505	42.68
688.69	42.4
688.876	42.57
689.061	42.35
689.247	42.39
689.432	42.45
689.618	42.48
689.803	42.53
689.988	42.82
690.174	43.08
690.359	43.02
690.544	43.74
690.73	44
690.915	43.44
691.1	43.44
691.285	43.44
691.471	43.41
691.656	43.29
691.841	43.52
692.026	43.48
692.211	43.33
692.396	43.15
692.582	42.44
692.767	42.6
692.952	42.72
693.137	43.34
693.322	43.69
693.507	43.71
693.692	43.79
693.877	43.15
694.062	42.93
694.247	42.81
694.432	43.11
694.617	44.04
694.802	44
694.987	44.71
695.172	44.17
695.357	44.08
695.541	44.1
695.726	43.8
695.911	44.44
696.096	44.3
696.281	44.6
696.466	44.31
696.65	44.03
696.835	43.94
697.02	43.5
697.204	43.8
697.389	43.59
697.574	43.39
697.759	43.03
697.943	43.01
698.128	43.15
698.312	43.07
698.497	42.92
698.682	42.97
698.866	43.13
699.051	42.95
699.235	42.7
699.42	42.53
699.604	42.8
699.789	43.16
699.973	43.09
700.158	43.03
700.342	43.03
700.527	43.22
700.711	42.87
700.895	42.54
701.08	42.75
701.264	42.99
701.448	43.69
701.633	43.45
701.817	43.34
702.001	43.26
702.186	43.57
702.37	44.05
702.554	44.06
702.738	44.55
702.923	45.09
703.107	44.94
703.291	45.04
703.475	44.2
703.659	45.08
703.843	45.43
704.027	45.78
704.212	45.37
704.396	45.53
704.58	45.8
704.764	45.52
704.948	45.17
705.132	45.52
705.316	45.39
705.5	45.61
705.684	44.96
705.868	45.47
706.052	45.74
706.235	46.26
706.419	45.91
706.603	46.09
706.787	45.94
706.971	46.16
707.155	46.37
707.339	46.48
707.522	46.94
707.706	47.35
707.89	46.51
708.074	46.03
708.257	45.75
708.441	45.96
708.625	45.35
708.808	45.78
708.992	45.57
709.176	45.71
709.359	45.84
709.543	45.86
709.727	45.33
709.91	45.56
710.094	45.42
710.277	45.36
710.461	45.15
710.644	45.36
710.828	45.18
711.011	45.07
711.195	44.62
711.378	44.76
711.562	44.76
711.745	44.93
711.928	44.89
712.112	45.21
712.295	45.31
712.478	44.6
712.662	45.24
712.845	45.17
713.028	45.83
713.212	45.66
713.395	46.01
713.578	45.35
713.761	45.68
713.945	45.73
714.128	45.73
714.311	46.11
714.494	46.67
714.677	46.03
714.86	46.24
715.043	45.93
715.227	46.6
715.41	46.21
715.593	46.86
715.776	46.52
715.959	46.71
716.142	46.59
716.325	46.29
716.508	46.59
716.691	47.09
716.874	47.05
717.057	47.37
717.239	47.1
717.422	46.95
717.605	46.86
717.788	46.98
717.971	47.92
718.154	48.31
718.337	48.59
718.519	47.95
718.702	47.2
718.885	47.33
719.068	46.85
719.25	46.83
719.433	47.71
719.616	47.58
719.798	47.96
719.981	47.73
720.164	47.59
720.346	47.48
720.529	47.42
720.712	47.45
720.894	47.08
721.077	47.34
721.259	47.65
721.442	47.02
721.624	47
721.807	46.66
721.989	46.25
722.172	46.2
722.354	46.36
722.537	47.88
722.719	48.91
722.901	49.38
723.084	49.19
723.266	48.56
723.448	48.53
723.631	49.67
723.813	49.41
723.995	49.46
724.178	49.61
724.36	49.44
724.542	48.29
724.724	47.98
724.907	48.54
725.089	48.64
725.271	48.98
725.453	49.1
725.635	48.4
725.817	49.18
725.999	49.09
726.181	49.29
726.364	50.07
726.546	50.36
726.728	49.85
726.91	49.65
727.092	49.35
727.274	49.03
727.456	48.44
727.638	47.42
727.819	47.22
728.001	47.32
728.183	46.33
728.365	45.74
728.547	46.02
728.729	46.55
728.911	46.22
729.093	46
729.274	46.8
729.456	47.15
729.638	47.15
729.82	46.82
730.001	46.4
730.183	46.46
730.365	46.53
730.546	46.82
730.728	46.81
730.91	47.06
731.091	47.48
731.273	47.18
731.455	47.17
731.636	47.57
731.818	47.84
731.999	47.68
732.181	48.05
732.362	47.64
732.544	47.29
732.725	47.03
732.907	47.24
733.088	47.52
733.27	47.94
733.451	47.68
733.633	47.86
733.814	47.97
733.995	48.07
734.177	47.96
734.358	49.22
734.539	49.13
734.721	49.32
734.902	49.45
735.083	49.23
735.264	48.99
735.446	49.1
735.627	49.54
735.808	48.96
735.989	49.2
736.17	49.36
736.351	47.54
736.533	48.08
736.714	48.22
736.895	47.04
737.076	47.27
737.257	46.71
737.438	46.57
737.619	45.91
737.8	45.66
737.981	45.66
738.162	46.51
738.343	47.36
738.524	47.84
738.705	48.4
738.886	48.85
739.067	48.86
739.247	49.36
739.428	49.19
739.609	49.76
739.79	50.11
739.971	50.63
740.151	49.64
740.332	49.78
740.513	49.24
740.694	48.53
740.874	48.23
741.055	48.98
741.236	49.8
741.417	50.7
741.597	49.95
741.778	50.17
741.958	49.56
742.139	50.09
742.32	49.27
742.5	48.74
742.681	48.52
742.861	49.17
743.042	48.08
743.222	47.39
743.403	47.57
743.583	48.42
743.764	48.35
743.944	48.81
744.124	48.25
744.305	49.74
744.485	50.6
744.666	51.27
744.846	51.29
745.026	51.65
745.207	51.83
745.387	51.02
745.567	51.04
745.747	51.22
745.928	51.13
746.108	51.28
746.288	50.19
746.468	49.87
746.648	49.18
746.829	48.79
747.009	48.98
747.189	48.21
747.369	49.58
747.549	48.73
747.729	49.15
747.909	49.54
748.089	48.98
748.269	49.71
748.449	49.31
748.629	50.03
748.809	50.63
748.989	50.63
749.169	51.28
749.349	50.29
749.529	51.74
749.709	51.71
749.889	50.5
750.068	51.4
750.248	51.4
750.428	51.31
750.608	52.04
750.788	51.41
750.967	51.21
751.147	50.72
751.327	50.91
751.507	50.17
751.686	49.87
751.866	50.65
752.046	51.48
752.225	51.31
752.405	51.19
752.585	49.98
752.764	49.75
752.944	49.92
753.123	49.98
753.303	50.24
753.482	49.81
753.662	50.41
753.841	50.04
754.021	49.19
754.2	48.78
754.38	49.17
754.559	48.92
754.739	48.69
754.918	48.6
755.097	48.95
755.277	49.25
755.456	49.18
755.635	48.81
755.815	49.11
755.994	49.74
756.173	50.43
756.352	51.16
756.532	52.41
756.711	53.36
756.89	53.73
757.069	52.05
757.248	50.65
757.427	50.97
757.607	50.77
757.786	50.69
757.965	50.17
758.144	50.24
758.323	49.51
758.502	48.81
758.681	48.49
758.86	47.88
759.039	49.64
759.218	50.44
759.397	51.18
759.576	51.75
759.755	52.47
759.934	51.16
760.113	50.84
760.291	50.77
760.47	51.02
760.649	51.73
760.828	50.55
761.007	50.04
761.186	49.91
761.364	49.17
761.543	48.99
761.722	48.27
761.901	48.67
762.079	48.45
762.258	48.42
762.437	48.63
762.615	48.34
762.794	49.52
762.972	49.51
763.151	49.22
763.33	48.99
763.508	48.81
763.687	49.09
763.865	49.51
764.044	49.69
764.222	49.78
764.401	49.32
764.579	48.78
764.758	48.67
764.936	48.69
765.114	49.36
765.293	49.8
765.471	50.21
765.65	49.71
765.828	50.64
766.006	50.2
766.184	49.77
766.363	49.99
766.541	50.53
766.719	50.98
766.898	51.08
767.076	51.21
767.254	51.3
767.432	51.47
767.61	52.31
767.788	51.57
767.967	52.64
768.145	53.72
768.323	53.68
768.501	53.62
768.679	53.33
768.857	53.91
769.035	53.74
769.213	53.68
769.391	53.85
769.569	53.24
769.747	52.52
769.925	52.02
770.103	51.27
770.281	51.09
770.459	51
770.636	51.71
770.814	51.42
770.992	49.85
771.17	49.74
771.348	48.69
771.525	48.13
771.703	49.63
771.881	49.57
772.059	49.28
772.236	48.66
772.414	50.04
772.592	48.88
772.769	46.9
772.947	48.64
773.125	49.08
773.302	49.52
773.48	50.29
773.657	50.14
773.835	50.72
774.013	52.36
774.19	52.68
774.368	52.03
774.545	52.76
774.723	54.24
774.9	55.71
775.077	56.58
775.255	55.28
775.432	56.63
775.61	56.61
775.787	54.42
775.964	53.88
776.142	56.13
776.319	55.7
776.496	54.93
776.674	56.61
776.851	55.28
777.028	54.95
777.205	58.15
777.382	57.24
777.56	55.78
777.737	56.39
777.914	53.86
778.091	51.84
778.268	52.75
778.445	54.81
778.622	53.79
778.8	53.69
778.977	51.86
779.154	56.16
779.331	56.68
779.508	58.54
779.685	59.78
779.862	61.93
780.038	63
780.215	62.37
780.392	60.44
780.569	60.55
780.746	60.99
780.923	62.17
781.1	55.34
781.277	54.4
781.453	53.17
781.63	52.31
781.807	52.21
781.984	53.87
782.16	54.33
782.337	53.4
782.514	54
782.691	53.13
782.867	53.11
783.044	52.36
783.221	53
783.397	54.49
783.574	56.53
783.75	56.83
783.927	55.8
784.103	55.41
784.28	57.36
784.456	57.53
784.633	58.3
784.809	58.38
784.986	58.25
785.162	57.81
785.339	55.45
785.515	53.92
785.692	54.26
785.868	53.39
786.044	51.71
786.221	52.05
786.397	50.86
786.573	51.34
786.749	49.88
786.926	49.46
787.102	49.39
787.278	51.1
787.454	51.28
787.631	51.63
787.807	51.43
787.983	52.96
788.159	52.46
788.335	53.82
788.511	53.22
788.687	54.73
788.863	55.77
789.039	55.24
789.216	55.53
789.392	55.78
789.568	54.71
789.744	55.66
789.919	56.86
790.095	56.03
790.271	54.21
790.447	54.1
790.623	53.31
790.799	54.14
790.975	55.14
791.151	53.76
791.327	53.39
791.502	52.2
791.678	50.86
791.854	49.94
792.03	51.91
792.205	52.32
792.381	53.14
792.557	56.06
792.733	53.81
792.908	54.48
793.084	54.67
793.259	55.63
793.435	56.46
793.611	56.92
793.786	56.53
793.962	55.47
794.137	55.92
794.313	54.96
794.488	52.72
794.664	55.43
794.839	54.48
795.015	55.73
795.19	56.48
795.366	58.38
795.541	58.51
795.716	58
795.892	56.05
796.067	57.27
796.242	55.98
796.418	55.6
796.593	54.81
796.768	53.42
796.944	53.09
797.119	52.03
797.294	50.95
797.469	51.24
797.644	53.02
797.82	54.91
797.995	54.37
798.17	57.5
798.345	58.43
798.52	59.84
798.695	60.65
798.87	60.24
799.045	60.57
799.22	60.01
799.395	59.32
799.57	56.66
799.745	57.36
799.92	55.2
800.095	52.97
800.27	50.72
800.445	49.59
800.62	49.06
800.795	49.56
800.97	48.86
801.145	49.53
801.319	50.05
801.494	52.06
801.669	50.39
801.844	50.95
802.018	49.3
802.193	52.52
802.368	51.84
802.543	52.26
802.717	50.79
802.892	51.15
803.067	52.65
803.241	53.09
803.416	52.4
803.59	52.73
803.765	51.96
803.94	55.58
804.114	55.32
804.289	58.64
804.463	59.5
804.638	61.56
804.812	62.64
804.986	63.18
805.161	61.76
805.335	60.71
805.51	62.2
805.684	61.69
805.858	60.48
806.033	58.01
806.207	54.48
806.381	55.34
806.556	55.05
806.73	55.51
806.904	54.74
807.078	56.08
807.253	57.35
807.427	56.15
807.601	58.64
807.775	58.63
807.949	58.24
808.123	57.9
808.298	57.72
808.472	56.41
808.646	54.86
808.82	55.2
808.994	56.77
809.168	57.44
809.342	56.42
809.516	53.23
809.69	52.2
809.864	54.44
810.038	56.32
810.212	55.13
810.385	57.73
810.559	57.76
810.733	54.28
810.907	51.26
811.081	50.24
811.255	51.33
811.428	54.89
811.602	56.71
811.776	56.68
811.95	55.12
812.123	57.75
812.297	56.17
812.471	57.83
812.644	58.88
812.818	61.97
812.992	62.74
813.165	64.59
813.339	61.6
813.512	61.89
813.686	57.94
813.86	58.11
814.033	54.79
814.207	57.37
814.38	54.47
814.554	56.67
814.727	55.79
814.9	58.74
815.074	57.25
815.247	59.68
815.421	54.94
815.594	55.96
815.767	56.79
815.941	56.79
816.114	55.78
816.287	59.18
816.46	59.95
816.634	59.8
816.807	52.68
816.98	52.84
817.153	52.77
817.327	56.56
817.5	58.5
817.673	58.83
817.846	58.04
818.019	58.12
818.192	57.6
818.365	54.57
818.538	54.33
818.711	57.38
818.884	56.57
819.057	57.3
819.23	57.25
819.403	55.99
819.576	56.15
819.749	58.01
819.922	57.67
820.095	56
820.268	53.68
820.441	52.86
820.614	51.32
820.786	50.12
820.959	50.56
821.132	50.29
821.305	49.75
821.477	48.99
821.65	48.37
821.823	47.69
821.996	47.85
822.168	48.01
822.341	47.4
822.514	47.02
822.686	47.47
822.859	46.75
823.031	47.04
823.204	46.66
823.376	46.79
823.549	46.61
823.722	46.5
823.894	46.61
824.067	46.84
824.239	46.95
824.411	47.55
824.584	47.8
824.756	47.77
824.929	47.22
825.101	48.17
825.273	48
825.446	47.85
825.618	47.63
825.79	47.23
825.963	47.55
826.135	47.82
826.307	47.42
826.479	47.34
826.652	47.33
826.824	46.89
826.996	46.78
827.168	47.14
827.34	47.44
827.512	47.46
827.684	47.69
827.856	47.16
828.029	47.01
828.201	47.82
828.373	46.89
828.545	47
828.717	47.91
828.889	47.91
829.061	48.53
829.232	48.88
829.404	50.33
829.576	50.64
829.748	51.52
829.92	51.84
830.092	52.06
830.264	53.17
830.436	54.33
830.607	53.98
830.779	54.49
830.951	53.17
831.123	53.07
831.294	52.07
831.466	53.07
831.638	52.73
831.809	53.79
831.981	52.82
832.153	52.57
832.324	53.42
832.496	54.66
832.667	54.06
832.839	55.05
833.011	52.55
833.182	54.05
833.354	53.1
833.525	54.65
833.697	54.52
833.868	55.71
834.039	57.61
834.211	55.89
834.382	55.71
834.554	55.51
834.725	53.94
834.896	55.44
835.068	52.68
835.239	52.15
835.41	51.41
835.581	50.73
835.753	49.86
835.924	48.89
836.095	47.1
836.266	46.27
836.438	45.16
836.609	46.25
836.78	46.43
836.951	46.99
837.122	45.79
837.293	45.74
837.464	45.84
837.635	45.69
837.806	47.27
837.977	50.44
838.148	50.34
838.319	51.75
838.49	51.27
838.661	53.47
838.832	55.6
839.003	58.93
839.174	60.77
839.345	63
839.516	65.28
839.687	63.89
839.857	63.04
840.028	62.47
840.199	63.54
840.37	61.6
840.54	59.28
840.711	58.59
840.882	58.49
841.053	58.51
841.223	56.78
841.394	53.07
841.564	51.73
841.735	53.76
841.906	60.29
842.076	59.13
842.247	63.99
842.417	63.3
842.588	65.14
842.758	64.35
842.929	59.65
843.099	60.23
843.27	63.46
843.44	64.69
843.611	62.98
843.781	58.93
843.951	58.91
844.122	54.2
844.292	54.15
844.462	49.73
844.633	45.78
844.803	48.1
844.973	42.63
845.144	38.3
845.314	33.62
845.484	35.86
845.654	33.86
845.824	30.72
845.995	36.13
846.165	38.53
846.335	42.29
846.505	44.35
846.675	45.4
846.845	53.21
847.015	54.36
847.185	57.18
847.355	53.93
847.525	52.91
847.695	62.23
847.865	65.05
848.035	59.23
848.205	59.55
848.375	61.78
848.545	70.25
848.715	73.21
848.884	81.2
849.054	85.36
849.224	87.36
849.394	99.94
849.564	101.35
849.733	89.92
849.903	93
850.073	94.39
850.243	92.52
850.412	91.5
850.582	85.64
850.752	79.9
850.921	72.88
851.091	73.19
851.26	65.69
851.43	62.02
851.599	65.38
851.769	70.34
851.939	66.2
852.108	69.74
852.278	66.27
852.447	70.11
852.616	69.66
852.786	74.92
852.955	74.07
853.125	76.36
853.294	80.68
853.463	78.64
853.633	69.61
853.802	81.07
853.971	90.88
854.141	98.07
854.31	91.72
854.479	100.68
854.648	83.09
854.818	79.91
854.987	76.29
855.156	66
855.325	70.63
855.494	72.67
855.663	65.22
855.832	49.81
856.001	42.59
856.171	46.61
856.34	45.86
856.509	54.98
856.678	60.47
856.847	64.59
857.016	74.15
857.185	81.18
857.353	84.46
857.522	81.94
857.691	80.37
857.86	77.27
858.029	76.63
858.198	74.02
858.367	70.86
858.535	67.56
858.704	66.16
858.873	58.31
859.042	43.17
859.21	35.31
859.379	28.41
859.548	28.98
859.717	31.69
859.885	39.93
860.054	43.11
860.222	39.6
860.391	47.05
860.56	46.64
860.728	53.35
860.897	66.11
861.065	71.25
861.234	76.37
861.402	83.98
861.571	85.46
861.739	80.81
861.908	80.48
862.076	87.11
862.244	85.6
862.413	89.25
862.581	95.98
862.749	94.14
862.918	102.18
863.086	112.7
863.254	101.82
863.423	105.45
863.591	106.02
863.759	97.71
863.927	103.71
864.096	102.15
864.264	105.37
864.432	90.55
864.6	90.96
864.768	85.15
864.936	76.61
865.104	77.87
865.272	71.02
865.44	74.79
865.608	76.45
865.776	75.98
865.944	73.6
866.112	69.45
866.28	76.37
866.448	77.79
866.616	72.36
866.784	54.87
866.952	50.79
867.12	49.54
867.288	52.92
867.455	58.86
867.623	46.03
867.791	52.16
867.959	56.79
868.127	51.76
868.294	52.41
868.462	58.05
868.63	71.7
868.797	71.25
868.965	83.91
869.133	78.06
869.3	80.1
869.468	85.98
869.636	92.27
869.803	84.88
869.971	92.49
870.138	79.01
870.306	82.75
870.473	74.92
870.641	80.84
870.808	80.01
870.975	81.25
871.143	80.95
871.31	82.75
871.478	79.76
871.645	92.43
871.812	87.73
871.98	87.47
872.147	77.79
872.314	87.65
872.482	81.93
872.649	72.69
872.816	78.79
872.983	67.82
873.15	63.94
873.318	61.02
873.485	55.97
873.652	44.79
873.819	47.42
873.986	52.13
874.153	57.67
874.32	55.34
874.487	57.94
874.654	53.35
874.821	53.71
874.988	49.21
875.155	50.8
875.322	55.01
875.489	57.42
875.656	59.38
875.823	45.21
875.99	36.69
876.157	42.87
876.324	48.11
876.49	47.44
876.657	43.84
876.824	62.52
876.991	65.04
877.157	69.15
877.324	75.77
877.491	78.04
877.658	84.67
877.824	91.07
877.991	87.71
878.157	87.71
878.324	98.6
878.491	115.81
878.657	101
878.824	104.4
878.99	103.15
879.157	96.72
879.323	92.26
879.49	91.68
879.656	96.35
879.823	101.24
879.989	91.91
880.156	87.3
880.322	94.89
880.488	86.25
880.655	75.92
880.821	71.75
880.987	71.4
881.154	74.55
881.32	80.04
881.486	71.67
881.652	66.43
881.819	61.81
881.985	57.41
882.151	50.93
882.317	50.71
882.483	52.58
882.649	51.45
882.816	49.4
882.982	47.67
883.148	45.23
883.314	45.32
883.48	46.94
883.646	47.81
883.812	48.89
883.978	49.62
884.144	50.83
884.31	51.21
884.476	50.66
884.642	51.48
884.807	50
884.973	49.99
885.139	49.16
885.305	46.61
885.471	47.14
885.637	47.61
885.802	48.71
885.968	47.61
886.134	47.83
886.3	47.94
886.465	48.47
886.631	50.46
886.797	52.22
886.962	53.68
887.128	55.72
887.293	56.12
887.459	55.59
887.625	55.46
887.79	57.44
887.956	54.37
888.121	57.39
888.287	58.22
888.452	58.21
888.618	52.44
888.783	57.14
