Data from LC_218__Reflection_1.txt Node
Date: Thu Nov 19 13:21:51 EST 2015
User: robert
Spectrometer: USB4E03001
Autoset integration time: false
Trigger mode: 4
Integration Time (sec): 1.000000E-1
Scans to average: 15
Electric dark correction enabled: true
Nonlinearity correction enabled: false
Boxcar width: 5
Stray light correction enabled: false
XAxis mode: Wavelengths
Stop averaging: false
Number of Pixels in Spectrum: 3648
>>>>>Begin Spectral Data<<<<<
177.566	12.52
177.785	-273.44
178.005	-136.96
178.225	-62.51
178.445	136.01
178.665	250600
178.885	46.58
179.105	-162.46
179.324	163.63
179.544	211.24
179.764	86.68
179.984	49.03
180.204	118.51
180.423	144.37
180.643	552.52
180.863	143.35
181.083	185.68
181.302	29.18
181.522	-5.8
181.742	-377.67
181.961	593.51
182.181	828.54
182.401	143.7
182.621	145.4
182.84	360.15
183.06	923.93
183.279	842.98
183.499	316.76
183.719	310.42
183.938	139.8
184.158	163.28
184.377	242.7
184.597	193.49
184.816	1187.05
185.036	6638.04
185.256	335.01
185.475	164.73
185.695	260.35
185.914	268.17
186.134	183.01
186.353	196.58
186.572	181.85
186.792	212.18
187.011	1236.03
187.231	239.16
187.45	255.51
187.67	505.15
187.889	7007.58
188.108	171.17
188.328	-287.15
188.547	-19.52
188.766	-15.03
188.986	44.84
189.205	20.95
189.424	58.16
189.644	22.35
189.863	36.67
190.082	25.35
190.302	-116.07
190.521	90.95
190.74	-198.88
190.959	-657.04
191.178	2564.41
191.398	-1800.7
191.617	292.69
191.836	657.54
192.055	-256.04
192.274	-81.56
192.494	-209.45
192.713	-88.95
192.932	-84.74
193.151	-26.69
193.37	-111.46
193.589	-88.08
193.808	-55.09
194.027	-95.06
194.246	-355.39
194.465	-245.88
194.685	14520
194.904	325.74
195.123	199.35
195.342	91.37
195.561	84.21
195.78	94.77
195.999	77.2
196.218	64.6
196.436	113.74
196.655	73.05
196.874	113.48
197.093	163.35
197.312	228.47
197.531	333.47
197.75	759.98
197.969	-197.35
198.188	-271.3
198.407	-2523.55
198.625	251.87
198.844	338.64
199.063	639.84
199.282	755.05
199.501	-282.09
199.719	-390.63
199.938	-304.66
200.157	525.7
200.376	261.56
200.594	180.01
200.813	103.13
201.032	85.41
201.251	94.77
201.469	137.4
201.688	64.78
201.907	58.84
202.125	96.53
202.344	121.35
202.563	91.9
202.781	140.74
203	124.23
203.218	142.98
203.437	330.68
203.656	226.26
203.874	176.86
204.093	176.98
204.311	194.17
204.53	129.2
204.748	85.88
204.967	101.07
205.185	43.25
205.404	10.39
205.622	-99.34
205.841	-45.42
206.059	-88.79
206.278	-92.03
206.496	-64.32
206.715	-179.22
206.933	-217.31
207.151	365.46
207.37	344.02
207.588	1050.14
207.806	-537.04
208.025	116.83
208.243	-140.11
208.461	-300
208.68	-641.1
208.898	848.68
209.116	262.6
209.335	642.82
209.553	162.28
209.771	482.72
209.989	-373.31
210.208	-66.03
210.426	108.32
210.644	266.75
210.862	176
211.081	118.59
211.299	83.8
211.517	67.67
211.735	2.38
211.953	-61.95
212.171	106.86
212.39	31.83
212.608	33.69
212.826	55.75
213.044	55.01
213.262	68.04
213.48	27.69
213.698	8.61
213.916	40.35
214.134	-17.04
214.352	26.68
214.57	185.61
214.788	103.94
215.006	1417.52
215.224	-194.63
215.442	-81.26
215.66	-109.88
215.878	321.66
216.096	106.32
216.314	82.85
216.532	53.04
216.75	63.81
216.968	86
217.185	88.08
217.403	84.77
217.621	107.27
217.839	103.96
218.057	88.62
218.275	108.73
218.492	212.72
218.71	142.17
218.928	146.11
219.146	115.01
219.363	84.14
219.581	131.6
219.799	226.91
220.017	121.87
220.234	105.61
220.452	124.56
220.67	94.15
220.887	81.34
221.105	115.6
221.323	197.47
221.54	203.34
221.758	184.58
221.976	143.53
222.193	126.84
222.411	102.05
222.629	117.91
222.846	125.32
223.064	124.49
223.281	121.4
223.499	107.1
223.716	93.72
223.934	67.11
224.151	64.67
224.369	60.27
224.586	59.35
224.804	103.72
225.021	86.34
225.239	86.56
225.456	91.76
225.674	92.09
225.891	87.46
226.108	80.36
226.326	74.76
226.543	59.53
226.76	58.71
226.978	48.58
227.195	33.39
227.413	33.21
227.63	25.3
227.847	25.55
228.064	15.04
228.282	11.46
228.499	10.78
228.716	13.48
228.934	14.25
229.151	12.73
229.368	14.76
229.585	17.65
229.802	17.03
230.02	15
230.237	11.66
230.454	16.06
230.671	17.58
230.888	17.19
231.105	19.68
231.323	16.75
231.54	16.19
231.757	21.02
231.974	21.99
232.191	25.22
232.408	29.56
232.625	38.93
232.842	37.15
233.059	31.81
233.276	39.11
233.493	36.76
233.71	34.34
233.927	33.53
234.144	28.24
234.361	20.73
234.578	17.06
234.795	17.92
235.012	11.61
235.229	9.45
235.446	12.34
235.663	12.34
235.879	9.33
236.096	12.74
236.313	17.35
236.53	14.39
236.747	20.73
236.964	20.36
237.181	16.49
237.397	19.69
237.614	21.01
237.831	22.84
238.048	21.08
238.264	20.99
238.481	26.19
238.698	23.34
238.915	24.38
239.131	18.68
239.348	18.56
239.565	20.75
239.781	20.14
239.998	21.23
240.215	23.14
240.431	22.65
240.648	24.12
240.865	21.65
241.081	20.73
241.298	17.58
241.514	20.63
241.731	19.7
241.947	19.2
242.164	17.02
242.38	17.32
242.597	17.29
242.814	17.28
243.03	17.67
243.246	18.3
243.463	17.87
243.679	19.89
243.896	18.85
244.112	17.74
244.329	18.17
244.545	18.89
244.762	19.65
244.978	19.09
245.194	19.99
245.411	17.94
245.627	15.5
245.843	16.66
246.06	15.15
246.276	16.65
246.492	17.92
246.709	18
246.925	18.33
247.141	16.07
247.357	15.29
247.574	15.52
247.79	15.87
248.006	16.99
248.222	15.96
248.439	16.41
248.655	15.7
248.871	16.05
249.087	14.91
249.303	15.07
249.519	16.52
249.736	16.82
249.952	14.39
250.168	13.3
250.384	14.39
250.6	14.56
250.816	14.85
251.032	13.93
251.248	12.11
251.464	12.94
251.68	11.65
251.896	9.84
252.112	9.04
252.328	9.35
252.544	12.27
252.76	10.48
252.976	9.91
253.192	10.78
253.408	10.65
253.624	12.04
253.84	11.12
254.056	12.33
254.272	14.76
254.487	16.12
254.703	16.59
254.919	14.33
255.135	15.69
255.351	18.12
255.567	16.6
255.782	16.41
255.998	15.33
256.214	15.96
256.43	16.81
256.646	15.04
256.861	11.52
257.077	17.02
257.293	17.51
257.508	14.52
257.724	14.12
257.94	13.19
258.155	14.96
258.371	15.01
258.587	15.92
258.802	12.99
259.018	13.6
259.234	14.22
259.449	11.59
259.665	11.59
259.88	12.31
260.096	11.19
260.312	11.69
260.527	10.8
260.743	10.22
260.958	9.6
261.174	10.33
261.389	10.07
261.605	10.05
261.82	9.59
262.036	9.36
262.251	9.03
262.466	9.13
262.682	9.35
262.897	10.07
263.113	10.67
263.328	11.44
263.543	13.22
263.759	14.4
263.974	15.4
264.189	17.85
264.405	18.3
264.62	19.2
264.835	20.58
265.051	22.16
265.266	20.88
265.481	20.19
265.696	20.31
265.912	17.64
266.127	17.26
266.342	15.13
266.557	14.91
266.773	12.05
266.988	12
267.203	11.8
267.418	9.17
267.633	9.94
267.848	10.5
268.064	10.06
268.279	10.32
268.494	9.18
268.709	11.07
268.924	10.89
269.139	11.42
269.354	11.25
269.569	10.7
269.784	10.41
269.999	10.42
270.214	9.56
270.429	9.9
270.644	11.2
270.859	12.35
271.074	12.06
271.289	13.1
271.504	13.61
271.719	13.04
271.934	11.55
272.149	11.95
272.363	10.31
272.578	9.75
272.793	8.74
273.008	7.93
273.223	6.7
273.438	6.67
273.653	6.16
273.867	6.07
274.082	5.88
274.297	9.11
274.512	8.57
274.726	10.61
274.941	10.7
275.156	12.6
275.371	12.21
275.585	13.3
275.8	13.78
276.015	12.33
276.229	12.51
276.444	12.42
276.659	11.52
276.873	12.6
277.088	10.25
277.302	11.37
277.517	11.23
277.732	11.55
277.946	11.87
278.161	12.01
278.375	13.51
278.59	12.39
278.804	11.62
279.019	11.42
279.233	11.49
279.448	13.77
279.662	12.19
279.877	10.44
280.091	10.51
280.306	9.09
280.52	8.73
280.735	7.75
280.949	8.41
281.163	9.24
281.378	8.46
281.592	7.65
281.806	7.59
282.021	9.07
282.235	9.33
282.449	8.5
282.664	9.73
282.878	9.44
283.092	9.38
283.307	10.38
283.521	10.1
283.735	10.9
283.949	11.36
284.164	11.34
284.378	11.12
284.592	11.22
284.806	11.28
285.02	9.9
285.234	8.4
285.449	10.22
285.663	9.94
285.877	10.08
286.091	10.45
286.305	11
286.519	10.97
286.733	9.9
286.947	9.57
287.161	10.03
287.375	10.74
287.589	12.51
287.803	10.47
288.017	11.58
288.231	11.32
288.445	10.32
288.659	9.88
288.873	8.18
289.087	10.2
289.301	11.85
289.515	11.92
289.729	10.96
289.943	10.43
290.157	10.68
290.371	9.88
290.584	9.46
290.798	10.04
291.012	10.02
291.226	11.57
291.44	10.82
291.654	9.13
291.867	8.79
292.081	9.42
292.295	9.63
292.509	10.34
292.722	10.33
292.936	10.53
293.15	11
293.364	10.44
293.577	9.7
293.791	9.53
294.005	10.02
294.218	9.7
294.432	10.22
294.645	10.82
294.859	10.3
295.073	10.51
295.286	12.52
295.5	12.51
295.713	13.1
295.927	13.85
296.14	14.14
296.354	14.88
296.568	15.56
296.781	16
296.994	14.94
297.208	14.86
297.421	14.78
297.635	13.89
297.848	13.54
298.062	12.95
298.275	12.16
298.489	12.58
298.702	11.95
298.915	11.49
299.129	11.16
299.342	12.63
299.555	13.17
299.769	12.53
299.982	13.45
300.195	13.48
300.409	13.34
300.622	14.62
300.835	15.48
301.048	14.64
301.262	15.3
301.475	15.38
301.688	14.47
301.901	13.42
302.115	13.2
302.328	12.05
302.541	11.3
302.754	14.42
302.967	14.12
303.18	12.89
303.393	13.96
303.607	13.02
303.82	12.4
304.033	13.99
304.246	15.88
304.459	17.02
304.672	17.01
304.885	17.75
305.098	15.71
305.311	15.06
305.524	15.5
305.737	16.88
305.95	18.13
306.163	18.31
306.376	17.25
306.589	16.34
306.802	15.96
307.015	17.23
307.228	16.97
307.44	16.83
307.653	17.07
307.866	16.78
308.079	16.41
308.292	14.11
308.505	14.87
308.718	14.73
308.93	14.28
309.143	14.61
309.356	14.48
309.569	14.69
309.781	15.47
309.994	15.54
310.207	15.66
310.42	15.04
310.632	16.17
310.845	14.91
311.058	14.4
311.27	15.02
311.483	14.61
311.696	14.43
311.908	13.78
312.121	13.89
312.333	14.15
312.546	14.32
312.759	14.79
312.971	14.32
313.184	16.55
313.396	17.45
313.609	16.44
313.821	16.15
314.034	16.7
314.246	17.99
314.459	16.68
314.671	16.35
314.884	16.39
315.096	16.58
315.309	17.25
315.521	15.59
315.733	14.31
315.946	14.68
316.158	15.33
316.371	13.55
316.583	13.39
316.795	14.91
317.008	14.65
317.22	13.67
317.432	12.96
317.644	13.1
317.857	13.52
318.069	14.65
318.281	14.85
318.494	14.29
318.706	16.58
318.918	17.02
319.13	16.86
319.342	17.09
319.555	16.92
319.767	17.92
319.979	17.2
320.191	16.93
320.403	15.69
320.615	14.41
320.827	15.14
321.039	13.86
321.252	12.89
321.464	12.46
321.676	13.43
321.888	14.34
322.1	12.42
322.312	13.99
322.524	15.27
322.736	15.49
322.948	17.08
323.16	16.64
323.372	16.16
323.584	16.56
323.796	15.5
324.007	14.73
324.219	15.01
324.431	16.01
324.643	15.3
324.855	14.52
325.067	13.63
325.279	13.82
325.491	13.56
325.702	13.38
325.914	13.46
326.126	14.76
326.338	14.98
326.55	14.85
326.761	15.25
326.973	15.12
327.185	15.3
327.396	16.94
327.608	17.39
327.82	17.36
328.032	17.72
328.243	18.47
328.455	17.51
328.666	17.27
328.878	17.81
329.09	17.82
329.301	17.32
329.513	17.39
329.725	17.99
329.936	16.94
330.148	16.46
330.359	17.4
330.571	16.43
330.782	18.34
330.994	18.58
331.205	17.64
331.417	16.52
331.628	16.85
331.84	16.5
332.051	15.43
332.262	15.62
332.474	16.89
332.685	16.6
332.897	16.79
333.108	15.03
333.319	16.23
333.531	16.84
333.742	17.74
333.953	17.21
334.165	17.44
334.376	17.99
334.587	17.68
334.799	17.13
335.01	17.37
335.221	17.5
335.432	16.99
335.644	16.32
335.855	15.66
336.066	15.97
336.277	17
336.488	16.08
336.7	15.75
336.911	16.04
337.122	15.79
337.333	16.41
337.544	16.48
337.755	17.63
337.966	17.76
338.177	17.64
338.388	16.72
338.599	16.87
338.811	17.6
339.022	18.01
339.233	18.38
339.444	18.7
339.655	17.4
339.866	16.88
340.076	16.65
340.287	16.34
340.498	16.96
340.709	16.31
340.92	15.2
341.131	15.29
341.342	14.97
341.553	14.71
341.764	14.7
341.975	14.63
342.185	15.82
342.396	15.17
342.607	15.14
342.818	15.05
343.029	15.38
343.239	16.45
343.45	16.13
343.661	16.08
343.872	16.4
344.082	16.12
344.293	16.81
344.504	16.43
344.714	17.26
344.925	17.17
345.136	16.82
345.346	16.94
345.557	16.83
345.768	17.74
345.978	17.83
346.189	17.69
346.399	18.47
346.61	18.07
346.821	17.78
347.031	17.45
347.242	16.94
347.452	17.54
347.663	17.65
347.873	17.68
348.084	16.97
348.294	17.73
348.504	17.21
348.715	16.6
348.925	16.27
349.136	15.32
349.346	15.38
349.557	16
349.767	15.37
349.977	15.49
350.188	15.09
350.398	15.18
350.608	15.16
350.819	15.58
351.029	16.23
351.239	16.89
351.449	17.4
351.66	17.58
351.87	17.29
352.08	17.02
352.29	16.66
352.501	16.3
352.711	17.01
352.921	16.21
353.131	16.62
353.341	16.04
353.552	15.87
353.762	16.04
353.972	15.66
354.182	16.09
354.392	16.36
354.602	16.57
354.812	16.83
355.022	15.73
355.232	15.69
355.442	15.51
355.652	15.34
355.862	14.82
356.072	15.12
356.282	14.3
356.492	13.85
356.702	13.9
356.912	14.28
357.122	14.45
357.332	14.53
357.542	14.59
357.752	14.72
357.962	14.94
358.171	15.28
358.381	14.77
358.591	14.96
358.801	14.8
359.011	14.75
359.221	15
359.43	15.27
359.64	15.53
359.85	15.73
360.06	15.05
360.269	15.06
360.479	14.49
360.689	14.64
360.899	14.61
361.108	15
361.318	15.18
361.528	14.67
361.737	14.5
361.947	14.59
362.156	14.44
362.366	14.46
362.576	14.01
362.785	14.62
362.995	15
363.204	15.05
363.414	15.01
363.623	14.68
363.833	14.67
364.042	14.41
364.252	14.18
364.461	14.14
364.671	13.95
364.88	14.3
365.09	14.05
365.299	13.58
365.509	14.7
365.718	14.62
365.927	14.5
366.137	15.06
366.346	14.49
366.555	13.93
366.765	13.53
366.974	13.73
367.183	13.53
367.393	13.51
367.602	13.14
367.811	12.24
368.021	12.03
368.23	12.07
368.439	11.25
368.648	11.83
368.857	11.84
369.067	12.35
369.276	11.8
369.485	12.16
369.694	11.57
369.903	11.6
370.112	11.48
370.321	11.12
370.531	10.92
370.74	10.87
370.949	10.79
371.158	11.14
371.367	10.45
371.576	11.21
371.785	10.93
371.994	11.45
372.203	11.44
372.412	11.93
372.621	12.51
372.83	12.59
373.039	12.77
373.248	12.69
373.457	13.06
373.666	13.51
373.874	13.14
374.083	13.17
374.292	12.63
374.501	12.78
374.71	12.21
374.919	11.8
375.128	11.73
375.336	11.31
375.545	11.6
375.754	11.24
375.963	10.94
376.171	11.17
376.38	11.62
376.589	11.9
376.798	11.89
377.006	12.48
377.215	12.73
377.424	12.7
377.632	12.92
377.841	12.37
378.05	12.7
378.258	12.94
378.467	12.58
378.675	12.14
378.884	11.93
379.093	11.94
379.301	11.78
379.51	11.58
379.718	11.72
379.927	11.85
380.135	11.98
380.344	11.49
380.552	11.48
380.761	11.85
380.969	11.93
381.177	11.89
381.386	11.92
381.594	11.21
381.803	10.84
382.011	11.16
382.219	11.18
382.428	11.33
382.636	11.69
382.845	11.65
383.053	11.78
383.261	11.62
383.469	11.79
383.678	11.58
383.886	11.68
384.094	12.13
384.302	11.75
384.511	11.89
384.719	11.39
384.927	11.29
385.135	11.16
385.343	10.87
385.552	10.83
385.76	10.85
385.968	10.91
386.176	11.08
386.384	10.58
386.592	10.67
386.8	10.4
387.008	10.71
387.216	10.57
387.424	10.52
387.633	10.54
387.841	10.75
388.049	10.8
388.257	10.62
388.465	10.52
388.672	10.86
388.88	11.01
389.088	11.05
389.296	11.21
389.504	10.82
389.712	10.87
389.92	10.29
390.128	10.47
390.336	10.07
390.544	10.28
390.751	10.55
390.959	10.44
391.167	10.19
391.375	10
391.583	9.87
391.79	10.11
391.998	10.18
392.206	10.84
392.414	10.57
392.621	10.51
392.829	10.5
393.037	10.37
393.244	10.37
393.452	10.02
393.66	9.99
393.867	10.02
394.075	9.95
394.283	9.73
394.49	9.38
394.698	9.55
394.905	9.93
395.113	9.93
395.32	9.81
395.528	9.66
395.735	9.99
395.943	9.91
396.15	9.53
396.358	9.87
396.565	10.04
396.773	9.9
396.98	9.48
397.188	9.06
397.395	9.14
397.602	9.33
397.81	9.34
398.017	9.32
398.225	9.25
398.432	9.61
398.639	9.37
398.847	9.35
399.054	9.35
399.261	9.52
399.468	9.56
399.676	9.4
399.883	9.12
400.09	9
400.297	9.12
400.505	9.12
400.712	9
400.919	8.82
401.126	8.61
401.333	9.11
401.54	9.58
401.748	9.49
401.955	9.49
402.162	9.62
402.369	9.66
402.576	9.54
402.783	9.55
402.99	9.67
403.197	9.81
403.404	9.63
403.611	9.31
403.818	8.98
404.025	8.95
404.232	8.94
404.439	8.82
404.646	8.77
404.853	8.78
405.06	8.83
405.267	8.63
405.474	8.49
405.681	8.87
405.887	8.88
406.094	8.99
406.301	9.09
406.508	9.14
406.715	9.35
406.922	9.69
407.128	9.75
407.335	10.03
407.542	10.4
407.749	10.04
407.955	9.92
408.162	9.67
408.369	9.4
408.575	9.37
408.782	9.19
408.989	9.13
409.195	8.77
409.402	8.71
409.609	8.55
409.815	8.44
410.022	8.67
410.228	8.66
410.435	8.92
410.642	8.81
410.848	8.75
411.055	8.61
411.261	8.71
411.468	8.7
411.674	8.6
411.881	8.53
412.087	8.15
412.294	8.5
412.5	8.33
412.706	8.39
412.913	8.92
413.119	9.22
413.326	9.64
413.532	9.66
413.738	9.88
413.945	9.91
414.151	10.05
414.357	10.35
414.564	10.44
414.77	10.61
414.976	10.42
415.182	10.37
415.389	10.08
415.595	9.73
415.801	9.54
416.007	9.37
416.214	9.47
416.42	9.25
416.626	9.35
416.832	9.04
417.038	8.96
417.244	9.12
417.45	8.92
417.657	8.91
417.863	8.92
418.069	8.84
418.275	8.97
418.481	8.86
418.687	8.97
418.893	8.78
419.099	8.91
419.305	8.87
419.511	8.75
419.717	8.67
419.923	8.71
420.129	8.69
420.335	8.83
420.541	8.75
420.746	8.84
420.952	8.71
421.158	8.88
421.364	8.74
421.57	8.7
421.776	8.74
421.982	8.83
422.187	8.97
422.393	9.03
422.599	8.99
422.805	9.08
423.01	8.96
423.216	9.15
423.422	9.12
423.628	9.13
423.833	9.31
424.039	9.4
424.245	9.38
424.45	9.25
424.656	9.17
424.862	9.14
425.067	9.11
425.273	9.07
425.478	9.02
425.684	8.98
425.889	8.99
426.095	8.77
426.301	8.7
426.506	8.71
426.712	8.67
426.917	8.85
427.123	8.81
427.328	8.73
427.533	8.86
427.739	8.73
427.944	8.72
428.15	8.81
428.355	8.78
428.561	8.81
428.766	8.55
428.971	8.62
429.177	8.53
429.382	8.63
429.587	8.74
429.793	8.79
429.998	8.75
430.203	8.57
430.408	8.67
430.614	8.72
430.819	8.72
431.024	8.93
431.229	8.93
431.434	8.83
431.64	8.78
431.845	8.76
432.05	8.79
432.255	8.87
432.46	8.99
432.665	8.84
432.87	8.91
433.076	8.99
433.281	8.97
433.486	9
433.691	8.96
433.896	8.92
434.101	8.92
434.306	8.63
434.511	8.61
434.716	8.55
434.921	8.63
435.126	8.61
435.331	8.46
435.535	8.4
435.74	8.48
435.945	8.45
436.15	8.51
436.355	8.56
436.56	8.88
436.765	8.99
436.97	8.99
437.174	8.86
437.379	9.02
437.584	8.84
437.789	8.88
437.993	8.85
438.198	9.03
438.403	8.85
438.608	8.83
438.812	8.7
439.017	8.51
439.222	8.57
439.426	8.65
439.631	8.55
439.836	8.66
440.04	8.69
440.245	8.57
440.45	8.5
440.654	8.64
440.859	8.63
441.063	8.55
441.268	8.83
441.472	8.78
441.677	8.88
441.881	8.96
442.086	9.07
442.29	9.12
442.495	9.27
442.699	9.27
442.904	9.12
443.108	9.1
443.312	9.14
443.517	9.04
443.721	9.03
443.925	8.84
444.13	8.79
444.334	8.68
444.538	8.73
444.743	8.72
444.947	8.7
445.151	8.83
445.356	8.87
445.56	9.06
445.764	8.95
445.968	8.91
446.173	8.95
446.377	8.9
446.581	8.91
446.785	8.83
446.989	8.82
447.193	8.82
447.398	8.85
447.602	8.92
447.806	8.81
448.01	8.96
448.214	9.08
448.418	9.14
448.622	9.21
448.826	9.19
449.03	9.17
449.234	9.1
449.438	9.11
449.642	9.08
449.846	8.88
450.05	8.9
450.254	8.72
450.458	8.68
450.662	8.66
450.866	8.41
451.069	8.42
451.273	8.49
451.477	8.64
451.681	8.72
451.885	8.81
452.089	8.99
452.292	9.06
452.496	9.01
452.7	9.1
452.904	8.89
453.107	9.16
453.311	9.29
453.515	9.34
453.719	9.23
453.922	9.27
454.126	9.12
454.33	9.03
454.533	9.13
454.737	9.17
454.94	8.96
455.144	9.15
455.348	8.93
455.551	8.89
455.755	8.73
455.958	8.81
456.162	8.63
456.365	8.72
456.569	8.63
456.772	8.51
456.976	8.41
457.179	8.57
457.383	8.51
457.586	8.7
457.79	8.68
457.993	8.85
458.196	8.91
458.4	8.98
458.603	8.9
458.807	8.84
459.01	8.91
459.213	8.95
459.417	8.86
459.62	8.85
459.823	8.81
460.026	8.83
460.23	8.81
460.433	8.76
460.636	8.75
460.839	8.85
461.042	8.85
461.246	8.69
461.449	8.69
461.652	8.84
461.855	8.86
462.058	8.78
462.261	8.66
462.464	8.61
462.668	8.57
462.871	8.58
463.074	8.41
463.277	8.4
463.48	8.44
463.683	8.33
463.886	8.2
464.089	8.34
464.292	8.39
464.495	8.33
464.698	8.23
464.901	8.3
465.104	8.61
465.306	8.86
465.509	8.99
465.712	8.94
465.915	9.13
466.118	9.06
466.321	8.85
466.524	8.87
466.726	9.02
466.929	9.05
467.132	8.85
467.335	8.54
467.538	8.3
467.74	8.32
467.943	8.3
468.146	8.33
468.348	8.34
468.551	8.28
468.754	8.15
468.956	8.2
469.159	8.34
469.362	8.4
469.564	8.54
469.767	8.62
469.969	8.61
470.172	8.69
470.375	8.51
470.577	8.44
470.78	8.59
470.982	8.61
471.185	8.39
471.387	8.08
471.59	8.12
471.792	8.03
471.995	7.95
472.197	7.82
472.399	7.73
472.602	7.96
472.804	8.11
473.007	8.14
473.209	8.2
473.411	8.51
473.614	8.66
473.816	8.73
474.018	8.74
474.22	8.84
474.423	8.93
474.625	9.16
474.827	8.96
475.03	8.83
475.232	8.97
475.434	9.03
475.636	8.76
475.838	8.71
476.04	8.53
476.243	8.59
476.445	8.36
476.647	8.3
476.849	8.09
477.051	8.03
477.253	8.04
477.455	8.04
477.657	8.15
477.859	8.23
478.061	8.22
478.263	8.2
478.465	8.02
478.667	8.12
478.869	8.32
479.071	8.32
479.273	8.34
479.475	8.56
479.677	8.31
479.879	8.12
480.081	8.18
480.283	8.25
480.485	8.4
480.686	8.52
480.888	8.48
481.09	8.36
481.292	8.35
481.494	8.44
481.695	8.43
481.897	8.61
482.099	8.62
482.301	8.52
482.502	8.51
482.704	8.52
482.906	8.56
483.107	8.58
483.309	8.56
483.511	8.59
483.712	8.53
483.914	8.41
484.115	8.35
484.317	8.39
484.519	8.4
484.72	8.41
484.922	8.4
485.123	8.37
485.325	8.39
485.526	8.36
485.728	8.35
485.929	8.39
486.131	8.42
486.332	8.45
486.534	8.41
486.735	8.43
486.936	8.39
487.138	8.34
487.339	8.28
487.541	8.32
487.742	8.33
487.943	8.39
488.144	8.38
488.346	8.43
488.547	8.41
488.748	8.37
488.95	8.34
489.151	8.3
489.352	8.28
489.553	8.38
489.755	8.37
489.956	8.49
490.157	8.45
490.358	8.46
490.559	8.42
490.76	8.39
490.961	8.48
491.163	8.57
491.364	8.68
491.565	8.65
491.766	8.59
491.967	8.57
492.168	8.46
492.369	8.39
492.57	8.37
492.771	8.33
492.972	8.38
493.173	8.36
493.374	8.29
493.575	8.18
493.776	8.29
493.976	8.24
494.177	8.28
494.378	8.35
494.579	8.39
494.78	8.31
494.981	8.24
495.182	8.17
495.382	8.32
495.583	8.41
495.784	8.59
495.985	8.63
496.185	8.76
496.386	8.69
496.587	8.65
496.788	8.64
496.988	8.8
497.189	8.94
497.39	9.08
497.59	8.87
497.791	8.87
497.992	8.72
498.192	8.59
498.393	8.52
498.593	8.49
498.794	8.58
498.994	8.58
499.195	8.55
499.395	8.57
499.596	8.6
499.796	8.62
499.997	8.61
500.197	8.72
500.398	8.86
500.598	8.93
500.799	8.93
500.999	8.83
501.199	9.03
501.4	9.09
501.6	9.04
501.801	8.9
502.001	9.06
502.201	9.09
502.402	9
502.602	8.98
502.802	8.88
503.002	9.05
503.203	9.05
503.403	8.9
503.603	8.93
503.803	8.98
504.003	9.11
504.204	9.08
504.404	8.94
504.604	8.99
504.804	9
505.004	9.18
505.204	9.07
505.404	9.11
505.604	9.1
505.804	9.05
506.005	9.18
506.205	9.26
506.405	9.27
506.605	9.41
506.805	9.36
507.005	9.39
507.204	9.28
507.404	9.24
507.604	9.19
507.804	9.27
508.004	9.27
508.204	9.14
508.404	9.11
508.604	9.1
508.804	9.09
509.003	9.12
509.203	9.05
509.403	9.05
509.603	9.06
509.803	9.1
510.002	9.1
510.202	9.16
510.402	9.22
510.602	9.17
510.801	9.13
511.001	9.05
511.201	9.05
511.4	9.09
511.6	9.14
511.8	9.14
511.999	9.19
512.199	9.19
512.398	9.09
512.598	9.13
512.797	9.17
512.997	9.17
513.197	9.2
513.396	9.2
513.596	9.31
513.795	9.26
513.994	9.28
514.194	9.29
514.393	9.28
514.593	9.45
514.792	9.48
514.992	9.58
515.191	9.7
515.39	9.86
515.59	10.1
515.789	10.18
515.988	10.3
516.188	10.36
516.387	10.41
516.586	10.42
516.786	10.43
516.985	10.37
517.184	10.32
517.383	10.2
517.582	10.13
517.782	9.96
517.981	9.79
518.18	9.73
518.379	9.72
518.578	9.74
518.777	9.7
518.976	9.65
519.176	9.62
519.375	9.6
519.574	9.71
519.773	9.71
519.972	9.75
520.171	9.8
520.37	9.85
520.569	9.89
520.768	9.82
520.967	9.94
521.166	9.99
521.365	9.98
521.564	10
521.762	9.93
521.961	10.12
522.16	10.05
522.359	10.21
522.558	10.13
522.757	10.18
522.956	10.3
523.154	10.28
523.353	10.2
523.552	10.33
523.751	10.42
523.949	10.4
524.148	10.35
524.347	10.41
524.546	10.33
524.744	10.36
524.943	10.41
525.142	10.35
525.34	10.36
525.539	10.46
525.737	10.42
525.936	10.46
526.135	10.56
526.333	10.57
526.532	10.49
526.73	10.52
526.929	10.64
527.127	10.58
527.326	10.64
527.524	10.59
527.723	10.6
527.921	10.61
528.12	10.54
528.318	10.53
528.516	10.51
528.715	10.56
528.913	10.6
529.112	10.55
529.31	10.57
529.508	10.57
529.707	10.64
529.905	10.59
530.103	10.66
530.301	10.75
530.5	10.79
530.698	10.84
530.896	10.95
531.094	10.91
531.293	11.06
531.491	11.11
531.689	11.19
531.887	11.2
532.085	11.38
532.283	11.38
532.481	11.35
532.68	11.4
532.878	11.4
533.076	11.31
533.274	11.41
533.472	11.37
533.67	11.45
533.868	11.48
534.066	11.51
534.264	11.48
534.462	11.5
534.66	11.51
534.858	11.47
535.056	11.55
535.253	11.55
535.451	11.7
535.649	11.74
535.847	11.69
536.045	11.67
536.243	11.81
536.441	11.91
536.638	11.99
536.836	11.99
537.034	12.16
537.232	12.09
537.43	12.24
537.627	12.21
537.825	12.26
538.023	12.35
538.22	12.43
538.418	12.38
538.616	12.39
538.813	12.47
539.011	12.61
539.209	12.62
539.406	12.86
539.604	12.91
539.801	12.89
539.999	12.9
540.196	13.09
540.394	13.15
540.591	13.2
540.789	13.26
540.986	13.32
541.184	13.35
541.381	13.39
541.579	13.38
541.776	13.46
541.974	13.48
542.171	13.52
542.368	13.51
542.566	13.55
542.763	13.58
542.96	13.55
543.158	13.56
543.355	13.64
543.552	13.65
543.75	13.78
543.947	13.85
544.144	13.91
544.341	13.95
544.539	13.96
544.736	14.08
544.933	14.11
545.13	14.36
545.327	14.4
545.524	14.47
545.722	14.58
545.919	14.53
546.116	14.47
546.313	14.6
546.51	14.75
546.707	14.89
546.904	14.95
547.101	15.14
547.298	15.25
547.495	15.42
547.692	15.53
547.889	15.55
548.086	15.52
548.283	15.76
548.48	15.73
548.677	15.82
548.874	15.84
549.07	15.94
549.267	15.99
549.464	15.92
549.661	15.94
549.858	16.02
550.055	16.18
550.251	16.45
550.448	16.38
550.645	16.71
550.842	16.8
551.038	16.92
551.235	17.14
551.432	17.28
551.628	17.5
551.825	17.54
552.022	17.73
552.218	17.92
552.415	18.15
552.612	18.39
552.808	18.45
553.005	18.41
553.201	18.43
553.398	18.33
553.594	18.49
553.791	18.52
553.987	18.59
554.184	18.48
554.38	18.6
554.577	18.55
554.773	18.74
554.97	18.94
555.166	19.27
555.362	19.45
555.559	19.7
555.755	19.7
555.952	19.87
556.148	20.15
556.344	20.37
556.541	20.39
556.737	20.42
556.933	20.35
557.129	20.12
557.326	20.13
557.522	20.22
557.718	20.15
557.914	20.38
558.11	20.33
558.307	20.43
558.503	20.47
558.699	20.59
558.895	20.98
559.091	21.11
559.287	21.58
559.483	21.65
559.679	21.75
559.876	21.91
560.072	21.85
560.268	22.09
560.464	22.19
560.66	22.48
560.856	22.47
561.052	22.44
561.247	22.4
561.443	22.31
561.639	22.47
561.835	22.38
562.031	22.74
562.227	22.68
562.423	22.65
562.619	22.71
562.815	22.77
563.01	23.01
563.206	23.2
563.402	23.49
563.598	23.73
563.793	23.83
563.989	24.11
564.185	23.97
564.381	24.27
564.576	24.39
564.772	24.55
564.968	24.54
565.163	24.54
565.359	24.54
565.555	24.6
565.75	24.66
565.946	24.82
566.141	24.91
566.337	24.98
566.532	25.02
566.728	25.18
566.923	25.14
567.119	25.08
567.314	25.13
567.51	25.33
567.705	25.18
567.901	25.38
568.096	25.49
568.292	25.61
568.487	25.86
568.682	26.01
568.878	26.04
569.073	26.11
569.268	26.58
569.464	26.76
569.659	26.79
569.854	27.07
570.05	27
570.245	26.88
570.44	27.04
570.635	26.92
570.831	27.13
571.026	27.2
571.221	27.41
571.416	27.32
571.611	27.15
571.806	27.22
572.002	27.37
572.197	27.31
572.392	27.35
572.587	27.34
572.782	27.56
572.977	27.61
573.172	27.55
573.367	27.59
573.562	27.68
573.757	28.14
573.952	28.27
574.147	28.38
574.342	28.58
574.537	28.79
574.732	28.78
574.927	28.89
575.121	28.96
575.316	29.22
575.511	29.32
575.706	29.34
575.901	29.23
576.096	29.25
576.29	29.31
576.485	29.53
576.68	29.55
576.875	29.78
577.069	29.64
577.264	29.66
577.459	29.7
577.654	29.57
577.848	29.61
578.043	29.79
578.238	29.97
578.432	29.91
578.627	29.78
578.821	29.89
579.016	29.79
579.21	29.96
579.405	29.72
579.6	29.68
579.794	29.93
579.989	30.16
580.183	29.85
580.378	29.7
580.572	29.54
580.766	29.73
580.961	29.85
581.155	29.93
581.35	30.24
581.544	30.41
581.738	30.51
581.933	30.33
582.127	30.3
582.321	30.37
582.516	30.49
582.71	30.59
582.904	30.51
583.099	30.56
583.293	30.75
583.487	30.63
583.681	30.51
583.875	30.53
584.07	30.61
584.264	30.45
584.458	30.57
584.652	30.65
584.846	31.02
585.04	30.99
585.234	31.14
585.428	31.05
585.623	30.87
585.817	31.3
586.011	31.22
586.205	31.5
586.399	31.55
586.593	31.9
586.787	31.83
586.981	31.75
587.174	31.84
587.368	31.7
587.562	31.7
587.756	31.79
587.95	31.86
588.144	32.03
588.338	32.13
588.532	32.19
588.725	32.04
588.919	32.15
589.113	32.02
589.307	32.05
589.501	32.28
589.694	32.3
589.888	32.47
590.082	32.34
590.275	32.35
590.469	32.32
590.663	32.72
590.856	32.89
591.05	32.86
591.244	33.2
591.437	33.38
591.631	33.27
591.824	33.07
592.018	33.14
592.212	33.24
592.405	33.28
592.599	33.19
592.792	32.75
592.986	32.76
593.179	32.7
593.372	32.54
593.566	32.4
593.759	32.35
593.953	32.69
594.146	32.72
594.339	32.73
594.533	32.83
594.726	32.9
594.92	33.25
595.113	33.41
595.306	33.68
595.499	33.69
595.693	33.66
595.886	33.74
596.079	33.62
596.272	33.49
596.466	33.45
596.659	33.45
596.852	33.5
597.045	33.54
597.238	33.56
597.431	33.6
597.624	33.55
597.818	33.63
598.011	33.61
598.204	33.93
598.397	33.83
598.59	33.88
598.783	34.03
598.976	33.92
599.169	33.92
599.362	33.59
599.555	33.42
599.748	33.61
599.941	33.6
600.134	33.75
600.326	33.63
600.519	34.13
600.712	34.33
600.905	34.21
601.098	34.4
601.291	34.36
601.483	34.74
601.676	34.95
601.869	35.01
602.062	35
602.255	34.9
602.447	34.65
602.64	34.42
602.833	34.39
603.025	34.42
603.218	34.34
603.411	34.18
603.603	33.95
603.796	33.91
603.989	33.81
604.181	33.88
604.374	33.88
604.566	34.15
604.759	34.18
604.951	34.15
605.144	34.07
605.336	34.31
605.529	34.5
605.721	34.6
605.914	34.54
606.106	34.49
606.299	34.63
606.491	34.53
606.683	34.39
606.876	34.5
607.068	34.55
607.26	34.62
607.453	34.34
607.645	34.17
607.837	34.2
608.03	34.13
608.222	34.17
608.414	34.06
608.606	34.21
608.799	34.52
608.991	34.42
609.183	34.43
609.375	34.55
609.567	34.63
609.759	34.74
609.952	34.88
610.144	35.05
610.336	35.33
610.528	35.36
610.72	35.56
610.912	35.41
611.104	35.38
611.296	35.33
611.488	35.55
611.68	35.55
611.872	35.68
612.064	35.71
612.256	35.56
612.448	35.49
612.64	35.49
612.832	35.48
613.023	35.51
613.215	35.6
613.407	35.57
613.599	35.45
613.791	35.71
613.983	35.46
614.174	35.35
614.366	35.58
614.558	35.33
614.75	35.45
614.941	35.28
615.133	35.38
615.325	35.4
615.516	35.55
615.708	35.59
615.9	35.53
616.091	35.83
616.283	35.66
616.475	35.65
616.666	36.03
616.858	36.01
617.049	36.1
617.241	35.96
617.432	36.03
617.624	35.9
617.815	35.84
618.007	35.76
618.198	35.51
618.39	35.98
618.581	36.15
618.773	35.89
618.964	35.8
619.155	35.84
619.347	35.72
619.538	35.93
619.729	35.81
619.921	35.83
620.112	35.99
620.303	35.99
620.494	35.62
620.686	35.36
620.877	35.36
621.068	35.48
621.259	35.45
621.451	35.82
621.642	35.67
621.833	35.82
622.024	35.83
622.215	35.59
622.406	35.66
622.597	35.74
622.788	35.79
622.98	35.75
623.171	35.62
623.362	35.86
623.553	35.98
623.744	35.65
623.935	35.73
624.126	35.35
624.317	35.73
624.508	35.66
624.698	35.55
624.889	35.82
625.08	36.12
625.271	36.05
625.462	35.84
625.653	35.58
625.844	35.66
626.034	35.45
626.225	35.71
626.416	35.46
626.607	35.55
626.798	35.76
626.988	35.57
627.179	35.46
627.37	35.59
627.56	35.66
627.751	35.38
627.942	35.68
628.132	35.89
628.323	35.8
628.514	35.87
628.704	35.81
628.895	35.68
629.085	35.68
629.276	35.81
629.466	35.76
629.657	35.6
629.847	35.89
630.038	35.51
630.228	35.71
630.419	35.86
630.609	35.97
630.8	36.34
630.99	36.38
631.181	36.66
631.371	36.71
631.561	36.55
631.752	36.56
631.942	36.85
632.132	37.25
632.323	37.11
632.513	37.22
632.703	36.92
632.893	36.79
633.084	37
633.274	37
633.464	36.78
633.654	37.12
633.844	37.33
634.034	37.13
634.225	36.78
634.415	36.71
634.605	36.6
634.795	37.02
634.985	37.02
635.175	36.88
635.365	36.63
635.555	36.76
635.745	36.91
635.935	36.88
636.125	36.67
636.315	36.87
636.505	37.24
636.695	37.35
636.885	37.18
637.075	37.26
637.265	37.28
637.455	37.56
637.644	37.38
637.834	37.06
638.024	36.98
638.214	37.35
638.404	37.59
638.593	37.23
638.783	37.08
638.973	37.23
639.163	37.21
639.352	37.31
639.542	37.33
639.732	37.76
639.921	38.12
640.111	38.28
640.301	38.16
640.49	37.86
640.68	38.17
640.87	38.2
641.059	38.01
641.249	37.93
641.438	37.83
641.628	37.8
641.817	37.62
642.007	37.57
642.196	37.71
642.386	38.04
642.575	38.36
642.764	38.16
642.954	38.16
643.143	38.43
643.333	38.32
643.522	37.98
643.711	38.18
643.901	37.99
644.09	37.96
644.279	37.83
644.469	37.58
644.658	37.3
644.847	37.35
645.036	37.19
645.226	36.98
645.415	37.33
645.604	37.34
645.793	37.22
645.982	37.2
646.171	37.17
646.361	36.92
646.55	37.09
646.739	37.4
646.928	37.27
647.117	37.54
647.306	37.35
647.495	37.02
647.684	37.12
647.873	36.8
648.062	37
648.251	37.21
648.44	37.25
648.629	37.02
648.818	36.82
649.007	36.95
649.196	37.32
649.384	37.33
649.573	37.44
649.762	38.02
649.951	38.18
650.14	38.24
650.328	38.08
650.517	38.19
650.706	38.7
650.895	38.59
651.083	38.55
651.272	38.25
651.461	38.49
651.65	38.29
651.838	38.69
652.027	38.78
652.216	38.76
652.404	38.56
652.593	38.45
652.781	38.16
652.97	38.18
653.158	38.15
653.347	38.19
653.535	38.19
653.724	38.74
653.912	38.04
654.101	38.04
654.289	37.83
654.478	37.88
654.666	38.11
654.855	37.98
655.043	37.99
655.231	38.13
655.42	38.14
655.608	37.89
655.796	37.41
655.985	37.8
656.173	37.66
656.361	37.73
656.55	37.5
656.738	37.46
656.926	37.65
657.114	38.04
657.302	37.9
657.491	37.87
657.679	37.8
657.867	37.92
658.055	37.58
658.243	37.16
658.431	37.16
658.619	37.52
658.807	37.81
658.996	37.56
659.184	37.72
659.372	37.76
659.56	37.63
659.748	37.72
659.936	37.95
660.124	37.74
660.311	38.25
660.499	38.31
660.687	38.15
660.875	37.94
661.063	37.99
661.251	37.93
661.439	38.01
661.627	38.21
661.814	38.53
662.002	38.4
662.19	38.89
662.378	39.1
662.565	39
662.753	39.1
662.941	38.78
663.129	38.84
663.316	38.66
663.504	38.62
663.692	38.77
663.879	38.51
664.067	38.29
664.254	38
664.442	37.76
664.63	38.13
664.817	37.99
665.005	38.22
665.192	38.18
665.38	38.09
665.567	38
665.755	37.87
665.942	38.04
666.13	38.23
666.317	38.3
666.504	38.17
666.692	38.21
666.879	38.34
667.067	38.13
667.254	38.27
667.441	38.05
667.629	38.13
667.816	37.87
668.003	37.86
668.19	37.8
668.378	37.66
668.565	37.82
668.752	37.73
668.939	37.9
669.127	38.29
669.314	38.01
669.501	38.25
669.688	38.55
669.875	38.66
670.062	38.71
670.249	39.03
670.436	39.33
670.623	39.21
670.81	39.29
670.997	39.02
671.184	39.07
671.371	39.11
671.558	39.03
671.745	38.75
671.932	39.17
672.119	38.98
672.306	38.81
672.493	38.83
672.68	38.86
672.867	38.47
673.054	38.55
673.24	38.81
673.427	38.8
673.614	38.49
673.801	38.35
673.988	37.88
674.174	38.37
674.361	38.32
674.548	37.97
674.734	37.59
674.921	37.77
675.108	37.97
675.294	37.99
675.481	38.26
675.668	39.33
675.854	39.65
676.041	39.65
676.227	39.03
676.414	38.69
676.601	39.06
676.787	39.32
676.974	39.44
677.16	39.53
677.347	39.11
677.533	38.96
677.719	38.43
677.906	37.98
678.092	38.25
678.279	38.55
678.465	38.89
678.651	38.71
678.838	38.88
679.024	38.92
679.21	38.87
679.397	38.84
679.583	38.67
679.769	38.45
679.955	38.69
680.142	38.35
680.328	38.33
680.514	38.4
680.7	38.4
680.886	38.39
681.073	38.47
681.259	38.4
681.445	38.31
681.631	38.84
681.817	38.72
682.003	38.89
682.189	39.1
682.375	39.37
682.561	39.21
682.747	39.48
682.933	39.57
683.119	39.28
683.305	39.36
683.491	39.76
683.677	39.32
683.863	39.94
684.049	39.97
684.235	39.84
684.42	39.71
684.606	39.53
684.792	38.82
684.978	38.62
685.164	39.09
685.349	39.04
685.535	38.91
685.721	39.04
685.907	38.84
686.092	38.6
686.278	38.86
686.464	38.47
686.649	39.01
686.835	39.87
687.021	39.93
687.206	39.37
687.392	39.36
687.577	39.25
687.763	39.55
687.948	39.09
688.134	38.84
688.319	38.53
688.505	39.18
688.69	38.76
688.876	38.53
689.061	38.47
689.247	38.87
689.432	38.69
689.618	38.81
689.803	38.37
689.988	38.77
690.174	39.5
690.359	39.95
690.544	39.7
690.73	40.24
690.915	40.13
691.1	40.12
691.285	39.91
691.471	39.88
691.656	39.96
691.841	40.06
692.026	39.88
692.211	39.93
692.396	40.31
692.582	39.91
692.767	39.49
692.952	39.51
693.137	39.71
693.322	40.09
693.507	40.09
693.692	40.22
693.877	40.31
694.062	40.02
694.247	39.97
694.432	39.1
694.617	39.1
694.802	40.07
694.987	40.35
695.172	40.6
695.357	39.9
695.541	40.15
695.726	40.25
695.911	39.91
696.096	40.09
696.281	39.48
696.466	39.98
696.65	40.33
696.835	39.36
697.02	38.74
697.204	39.06
697.389	39.52
697.574	39.67
697.759	39.49
697.943	39.95
698.128	40.11
698.312	40.39
698.497	40.1
698.682	40.08
698.866	39.98
699.051	40.21
699.235	39.72
699.42	39.64
699.604	39.46
699.789	39.43
699.973	39.04
700.158	38.92
700.342	39.01
700.527	39.35
700.711	39.6
700.895	39.78
701.08	39.92
701.264	40.01
701.448	40.1
701.633	40.17
701.817	40.09
702.001	40.23
702.186	40.49
702.37	40.34
702.554	39.75
702.738	39.2
702.923	39.27
703.107	39.25
703.291	39.36
703.475	39.14
703.659	38.98
703.843	39.04
704.027	38.99
704.212	38.33
704.396	38.1
704.58	39.16
704.764	39.01
704.948	39.02
705.132	38.74
705.316	38.59
705.5	38.68
705.684	38.43
705.868	38.44
706.052	38.96
706.235	39.67
706.419	39.38
706.603	39.34
706.787	39.58
706.971	39.41
707.155	38.8
707.339	38.93
707.522	39.26
707.706	39.49
707.89	39.52
708.074	39.57
708.257	39.33
708.441	39.87
708.625	39.17
708.808	38.83
708.992	38.74
709.176	39.84
709.359	40.11
709.543	39.94
709.727	40.58
709.91	40.64
710.094	40.6
710.277	40.85
710.461	40.34
710.644	40.76
710.828	41.51
711.011	41.47
711.195	41
711.378	40.68
711.562	40.76
711.745	40.39
711.928	40.42
712.112	40.93
712.295	40.42
712.478	41.29
712.662	41
712.845	41.07
713.028	41.44
713.212	41.65
713.395	41.87
713.578	42.04
713.761	41.77
713.945	42.22
714.128	41.04
714.311	41.71
714.494	40.97
714.677	40.64
714.86	39.82
715.043	39.51
715.227	39.91
715.41	39.67
715.593	39.57
715.776	39.42
715.959	38.42
716.142	38.62
716.325	38.31
716.508	38.55
716.691	38.98
716.874	39.08
717.057	39.38
717.239	38.74
717.422	38.86
717.605	38.79
717.788	39.13
717.971	39.55
718.154	39.71
718.337	39.49
718.519	39.7
718.702	39.6
718.885	39.64
719.068	39.46
719.25	39.7
719.433	39.1
719.616	38.89
719.798	39.57
719.981	39.83
720.164	40.33
720.346	40.6
720.529	40.21
720.712	39.74
720.894	40.28
721.077	41.12
721.259	40.84
721.442	41.94
721.624	42.31
721.807	41.92
721.989	41.4
722.172	41.08
722.354	40.53
722.537	39.96
722.719	40.35
722.901	40.26
723.084	39.7
723.266	40.19
723.448	40.24
723.631	39.58
723.813	39.22
723.995	39.79
724.178	40
724.36	40.7
724.542	40.8
724.724	41.05
724.907	40.91
725.089	40.54
725.271	40.69
725.453	40.23
725.635	40.94
725.817	41.89
725.999	41.79
726.181	41.06
726.364	41.12
726.546	41.36
726.728	41.17
726.91	41.65
727.092	41.08
727.274	40.45
727.456	40.94
727.638	40.09
727.819	39.13
728.001	38.76
728.183	39.63
728.365	39.71
728.547	40.21
728.729	40.33
728.911	40.16
729.093	40.76
729.274	41.09
729.456	40.65
729.638	41.6
729.82	42.18
730.001	42.2
730.183	41.95
730.365	41.9
730.546	41.9
730.728	41.85
730.91	41.37
731.091	41.63
731.273	41.59
731.455	42.12
731.636	41.47
731.818	41.14
731.999	41.85
732.181	41.96
732.362	41.54
732.544	41.76
732.725	41.58
732.907	41.69
733.088	42.25
733.27	42.94
733.451	42.36
733.633	42.21
733.814	42.24
733.995	41.9
734.177	42.29
734.358	42.55
734.539	42.41
734.721	41.74
734.902	41.79
735.083	41.19
735.264	40.69
735.446	41.38
735.627	41.46
735.808	41.25
735.989	40.53
736.17	39.71
736.351	39.62
736.533	39.57
736.714	41.42
736.895	41.28
737.076	41.3
737.257	41.2
737.438	40.43
737.619	41.04
737.8	40.86
737.981	42.25
738.162	42.69
738.343	43.08
738.524	43.43
738.705	43.05
738.886	44.05
739.067	43.93
739.247	43.22
739.428	43.34
739.609	43.43
739.79	43.44
739.971	41.85
740.151	41.73
740.332	41.5
740.513	41.06
740.694	40.81
740.874	40.11
741.055	39.63
741.236	39.7
741.417	39.38
741.597	39.06
741.778	39.37
741.958	40.17
742.139	39.91
742.32	39.58
742.5	40.11
742.681	39.69
742.861	39.14
743.042	39.7
743.222	40.8
743.403	40.51
743.583	40.46
743.764	40.99
743.944	40.92
744.124	41.12
744.305	40.55
744.485	39.81
744.666	40
744.846	40.36
745.026	40.91
745.207	41.37
745.387	42.14
745.567	41.87
745.747	40.48
745.928	40.77
746.108	40.51
746.288	42.43
746.468	43.08
746.648	43.38
746.829	44.13
747.009	44.49
747.189	43.67
747.369	43.19
747.549	43.69
747.729	44.89
747.909	45
748.089	45.32
748.269	44.14
748.449	43.89
748.629	44.08
748.809	43.72
748.989	44.02
749.169	42.65
749.349	43.41
749.529	43.03
749.709	42.6
749.889	42.49
750.068	42.49
750.248	42.17
750.428	41.59
750.608	40.94
750.788	40.19
750.967	38.66
751.147	40.42
751.327	39.92
751.507	39.56
751.686	39.26
751.866	39.97
752.046	40.51
752.225	40.8
752.405	41.26
752.585	41.35
752.764	42.27
752.944	41.34
753.123	40.72
753.303	40
753.482	41.89
753.662	42.83
753.841	42.09
754.021	42.19
754.2	42.3
754.38	43.1
754.559	42.76
754.739	41.98
754.918	42.62
755.097	43.26
755.277	43.44
755.456	42.4
755.635	42.82
755.815	43.09
755.994	43.34
756.173	42.88
756.352	41.33
756.532	41.42
756.711	41.26
756.89	41.69
757.069	42.32
757.248	43.03
757.427	42.89
757.607	41.93
757.786	41.31
757.965	40.03
758.144	40.75
758.323	41.29
758.502	41.91
758.681	42.28
758.86	43.21
759.039	41.32
759.218	41.1
759.397	41.3
759.576	42.26
759.755	42.27
759.934	42.64
760.113	43.43
760.291	42.93
760.47	42.69
760.649	43.27
760.828	42.87
761.007	43.06
761.186	43.5
761.364	43.47
761.543	42.64
761.722	43.08
761.901	42.82
762.079	41.86
762.258	42.53
762.437	42.95
762.615	41.4
762.794	41.15
762.972	41.24
763.151	41.07
763.33	41.33
763.508	41.15
763.687	41.12
763.865	40.98
764.044	41.16
764.222	40.96
764.401	40.6
764.579	41.2
764.758	41.24
764.936	41.48
765.114	41.61
765.293	41.41
765.471	41.97
765.65	41.63
765.828	41.61
766.006	41.5
766.184	41.75
766.363	41.92
766.541	42.64
766.719	42.63
766.898	42.63
767.076	42.97
767.254	42.98
767.432	42.26
767.61	41.56
767.788	41.98
767.967	41.32
768.145	41.48
768.323	41.77
768.501	41.15
768.679	41.7
768.857	41.95
769.035	42.39
769.213	41.27
769.391	41.51
769.569	44.08
769.747	44.36
769.925	45.35
770.103	45.83
770.281	46.26
770.459	46.8
770.636	47.16
770.814	47.15
770.992	46.17
771.17	48.33
771.348	48.12
771.525	46.23
771.703	44.99
771.881	44.83
772.059	44.8
772.236	43.3
772.414	42.89
772.592	43
772.769	43.68
772.947	43.54
773.125	41.67
773.302	41.5
773.48	42.64
773.657	43.84
773.835	42.63
774.013	40.9
774.19	42.72
774.368	43.38
774.545	40.77
774.723	40.22
774.9	38.68
775.077	38.76
775.255	39.36
775.432	39.66
775.61	39.8
775.787	41.67
775.964	43.37
776.142	41.79
776.319	42
776.496	42.61
776.674	43.07
776.851	44.07
777.028	45.03
777.205	46.09
777.382	46.88
777.56	47.44
777.737	47.79
777.914	46.38
778.091	45.4
778.268	44.58
778.445	45.75
778.622	44.97
778.8	45.86
778.977	45.35
779.154	38.67
779.331	37.35
779.508	36.4
779.685	35.94
779.862	36.54
780.038	38.49
780.215	39.83
780.392	38.88
780.569	39.08
780.746	38.08
780.923	37.62
781.1	44.66
781.277	43.76
781.453	44.53
781.63	43.94
781.807	46.48
781.984	46.11
782.16	42.8
782.337	42.83
782.514	44.14
782.691	44.24
782.867	44.06
783.044	43.6
783.221	44.77
783.397	44.3
783.574	43.81
783.75	41.76
783.927	41
784.103	43.24
784.28	43.95
784.456	42.62
784.633	43.46
784.809	44.19
784.986	43.8
785.162	41.3
785.339	40.97
785.515	41.19
785.692	39.72
785.868	38.82
786.044	38.85
786.221	40.21
786.397	39.89
786.573	39.17
786.749	39.39
786.926	39.27
787.102	41.63
787.278	41.91
787.454	43.51
787.631	44.55
787.807	44.66
787.983	44.61
788.159	43.99
788.335	42.81
788.511	44.24
788.687	43.87
788.863	44.13
789.039	43.58
789.216	44.79
789.392	43.29
789.568	45
789.744	46.6
789.919	47.34
790.095	46.77
790.271	47.74
790.447	46.39
790.623	45.93
790.799	47.04
790.975	47.43
791.151	46.04
791.327	46.88
791.502	45.15
791.678	44.25
791.854	42.42
792.03	40
792.205	41.4
792.381	41.97
792.557	42.45
792.733	41.61
792.908	42.26
793.084	43.02
793.259	41.93
793.435	41.68
793.611	42.29
793.786	42.46
793.962	43.78
794.137	41.64
794.313	40.81
794.488	40.93
794.664	40.95
794.839	40.14
795.015	38.2
795.19	38.21
795.366	38.95
795.541	39.19
795.716	37.6
795.892	38.54
796.067	39.51
796.242	39.65
796.418	39.71
796.593	40.38
796.768	39.82
796.944	42.09
797.119	44.26
797.294	44.27
797.469	44.94
797.644	47.4
797.82	46.69
797.995	47.78
798.17	49.87
798.345	50.84
798.52	49.33
798.695	49.96
798.87	48.04
799.045	46.1
799.22	45.39
799.395	43.14
799.57	43.38
799.745	43.37
799.92	42.85
800.095	43.07
800.27	43.41
800.445	44.33
800.62	43.97
800.795	44.42
800.97	45.41
801.145	44.4
801.319	44.36
801.494	41.39
801.669	40.4
801.844	40.06
802.018	38.44
802.193	39
802.368	34.7
802.543	37.15
802.717	37.59
802.892	33.85
803.067	36.2
803.241	38.44
803.416	41.33
803.59	44.68
803.765	44.96
803.94	45.17
804.114	41.96
804.289	45.83
804.463	45.31
804.638	43.41
804.812	45.72
804.986	46.2
805.161	46.16
805.335	46.13
805.51	42.55
805.684	42.06
805.858	42.46
806.033	44.45
806.207	45.67
806.381	44.24
806.556	46.24
806.73	47.78
806.904	46.61
807.078	45.79
807.253	45.2
807.427	46.72
807.601	47.88
807.775	47.45
807.949	45.15
808.123	43.36
808.298	43.65
808.472	45.31
808.646	45.91
808.82	46.34
808.994	48.44
809.168	49.14
809.342	51.83
809.516	50.24
809.69	48.42
809.864	48.18
810.038	49.65
810.212	49.49
810.385	47.01
810.559	45.25
810.733	43.32
810.907	40.68
811.081	40.28
811.255	35.82
811.428	36.01
811.602	37.66
811.776	38.09
811.95	39.52
812.123	41.17
812.297	41.67
812.471	41.27
812.644	42.59
812.818	43.84
812.992	41.84
813.165	45.86
813.339	44.77
813.512	44.29
813.686	47.02
813.86	44.85
814.033	43.59
814.207	42.44
814.38	42.55
814.554	45.27
814.727	44.14
814.9	46.12
815.074	41.58
815.247	42.78
815.421	41.58
815.594	39.84
815.767	38.59
815.941	39.93
816.114	42.55
816.287	43.13
816.46	39.66
816.634	39.7
816.807	40.72
816.98	42.36
817.153	39.31
817.327	39.78
817.5	39.86
817.673	41.83
817.846	42.86
818.019	43.13
818.192	43.61
818.365	43.38
818.538	42.81
818.711	42.04
818.884	41.73
819.057	44.71
819.23	43.95
819.403	43.39
819.576	45.1
819.749	41.75
819.922	43.63
820.095	41.47
820.268	41.8
820.441	42.89
820.614	43.07
820.786	43.7
820.959	44.58
821.132	45.68
821.305	45.68
821.477	42.69
821.65	42.93
821.823	41.48
821.996	42.49
822.168	42.16
822.341	41.44
822.514	41.55
822.686	41.61
822.859	41.41
823.031	41.12
823.204	41.24
823.376	41.58
823.549	41.33
823.722	41.39
823.894	41
824.067	40.84
824.239	41.03
824.411	41.31
824.584	41.93
824.756	41.62
824.929	41.75
825.101	42.3
825.273	42.21
825.446	42.97
825.618	43.35
825.79	43.82
825.963	44.63
826.135	44.89
826.307	45.45
826.479	44.32
826.652	44.44
826.824	45.11
826.996	43.78
827.168	44.54
827.34	45.26
827.512	44.78
827.684	44.59
827.856	44.82
828.029	44.33
828.201	42.63
828.373	43.19
828.545	43.54
828.717	41.55
828.889	42.69
829.061	43.13
829.232	42.89
829.404	43.55
829.576	45.12
829.748	44.4
829.92	45.17
830.092	46.03
830.264	45.09
830.436	44.31
830.607	47.07
830.779	46.05
830.951	44.8
831.123	43.74
831.294	42.55
831.466	40.88
831.638	41.31
831.809	42.43
831.981	41.9
832.153	42.66
832.324	42.51
832.496	40.22
832.667	40.56
832.839	40.95
833.011	41.14
833.182	42
833.354	40.03
833.525	39.25
833.697	39.55
833.868	39.74
834.039	40.77
834.211	41.32
834.382	42.59
834.554	42.45
834.725	43.11
834.896	41.98
835.068	43.1
835.239	42.07
835.41	41.88
835.581	40.81
835.753	40.9
835.924	40.49
836.095	39.88
836.266	40.16
836.438	40.45
836.609	38.54
836.78	39.16
836.951	37.62
837.122	39.81
837.293	40.82
837.464	40.16
837.635	40.62
837.806	40.07
837.977	39.98
838.148	39.73
838.319	40.59
838.49	43.25
838.661	43.55
838.832	44.8
839.003	45.51
839.174	45.7
839.345	48.35
839.516	48.11
839.687	50.11
839.857	50.4
840.028	45.52
840.199	45.09
840.37	45.18
840.54	44.27
840.711	42.99
840.882	42.74
841.053	39.92
841.223	39.48
841.394	37.47
841.564	37.97
841.735	35.51
841.906	42.65
842.076	44.37
842.247	45.01
842.417	45.55
842.588	45.39
842.758	47.83
842.929	50.26
843.099	51.85
843.27	54.42
843.44	56.65
843.611	59.85
843.781	54.85
843.951	54.74
844.122	53.42
844.292	52.51
844.462	51.34
844.633	45.21
844.803	42.87
844.973	40.35
845.144	42.24
845.314	31.01
845.484	34.54
845.654	37.72
845.824	37.45
845.995	31.83
846.165	43.54
846.335	44.47
846.505	46.74
846.675	53.58
846.845	70
847.015	74.32
847.185	87.01
847.355	84.04
847.525	83
847.695	78.91
847.865	85.35
848.035	76.23
848.205	87.04
848.375	80.4
848.545	76.3
848.715	49.29
848.884	45.37
849.054	38.22
849.224	32.09
849.394	33.75
849.564	30.7
849.733	26.55
849.903	21.92
850.073	13.52
850.243	14
850.412	6.98
850.582	23.91
850.752	16.72
850.921	26.77
851.091	33.36
851.26	44.55
851.43	50.88
851.599	49.57
851.769	55.83
851.939	55.16
852.108	64.51
852.278	77
852.447	78.9
852.616	71.67
852.786	71.16
852.955	75.57
853.125	68.87
853.294	61.63
853.463	60.47
853.633	55.76
853.802	60.76
853.971	53.54
854.141	50.55
854.31	46.47
854.479	57.29
854.648	59.24
854.818	53.69
854.987	56.52
855.156	62.49
855.325	65.13
855.494	61.39
855.663	50.65
855.832	51.81
856.001	64.09
856.171	66.98
856.34	65.19
856.509	65.86
856.678	67.9
856.847	61.98
857.016	54.29
857.185	56.05
857.353	59.14
857.522	67.43
857.691	67.55
857.86	58.74
858.029	60.75
858.198	57.11
858.367	53.33
858.535	55.08
858.704	55.81
858.873	58.23
859.042	54.47
859.21	57.6
859.379	50.47
859.548	47.36
859.717	47.55
859.885	46.77
860.054	45.63
860.222	36.42
860.391	37.79
860.56	40.4
860.728	39.52
860.897	40.29
861.065	36.37
861.234	35.97
861.402	38.13
861.571	40.48
861.739	30.36
861.908	42.53
862.076	54.08
862.244	51.94
862.413	48.89
862.581	63.7
862.749	64.43
862.918	66.3
863.086	80.37
863.254	65.7
863.423	63.63
863.591	63.91
863.759	50.36
863.927	47.38
864.096	47.75
864.264	55.07
864.432	54.73
864.6	56.6
864.768	46.99
864.936	44.48
865.104	51.33
865.272	42.73
865.44	51.69
865.608	55.73
865.776	50.35
865.944	46.54
866.112	41.22
866.28	28.37
866.448	17.16
866.616	25.66
866.784	28.14
866.952	22.28
867.12	32.14
867.288	33.1
867.455	37.92
867.623	42.01
867.791	40.2
867.959	43.86
868.127	45.07
868.294	52.57
868.462	56.02
868.63	54.12
868.797	56.93
868.965	55.32
869.133	50.97
869.3	48.27
869.468	49.17
869.636	57.2
869.803	54.05
869.971	55.94
870.138	54.62
870.306	55.13
870.473	57.79
870.641	52.79
870.808	62.77
870.975	63.52
871.143	63.17
871.31	58.74
871.478	52.54
871.645	51.84
871.812	46.74
871.98	38.86
872.147	42.49
872.314	37.8
872.482	46.68
872.649	35.73
872.816	35.92
872.983	32.23
873.15	28.85
873.318	31.22
873.485	44
873.652	39.88
873.819	50.42
873.986	49.3
874.153	47.02
874.32	46.96
874.487	41.73
874.654	45.71
874.821	45.6
874.988	41.96
875.155	43.34
875.322	36.14
875.489	42.77
875.656	49.94
875.823	50.32
875.99	62.23
876.157	60.04
876.324	64.6
876.49	59.91
876.657	56.07
876.824	68.36
876.991	65.48
877.157	72.72
877.324	64.76
877.491	51.64
877.658	46
877.824	41.09
877.991	39.87
878.157	37.87
878.324	38.32
878.491	47
878.657	48.24
878.824	50.15
878.99	48.65
879.157	46.64
879.323	42.95
879.49	43.45
879.656	43.46
879.823	43.71
879.989	44.01
880.156	50.55
880.322	45.01
880.488	46.49
880.655	45.25
880.821	53.8
880.987	49.61
881.154	54.03
881.32	47.27
881.486	50.08
881.652	48.37
881.819	47.87
881.985	44.45
882.151	43.94
882.317	43.34
882.483	42.98
882.649	39.35
882.816	43.01
882.982	42.82
883.148	45.45
883.314	44.92
883.48	45.44
883.646	44.8
883.812	44.58
883.978	45.78
884.144	44.24
884.31	44.09
884.476	43.56
884.642	43
884.807	43.22
884.973	41.74
885.139	40.66
885.305	40.78
885.471	41.04
885.637	38.74
885.802	36.92
885.968	36.33
886.134	35.39
886.3	36.59
886.465	37.82
886.631	37.9
886.797	39
886.962	37.84
887.128	36.83
887.293	36.32
887.459	38.23
887.625	42.03
887.79	45.03
887.956	48.18
888.121	47.67
888.287	44.96
888.452	41.74
888.618	42.18
888.783	43.31
