Data from LC_270_Reflection_1.txt Node
Date: Sat Nov 21 12:08:26 EST 2015
User: robert
Spectrometer: USB4E03001
Autoset integration time: false
Trigger mode: 4
Integration Time (sec): 1.000000E-1
Scans to average: 15
Electric dark correction enabled: true
Nonlinearity correction enabled: false
Boxcar width: 5
Stray light correction enabled: false
XAxis mode: Wavelengths
Stop averaging: false
Number of Pixels in Spectrum: 3648
>>>>>Begin Spectral Data<<<<<
177.566	115.86
177.785	52.85
178.005	322.76
178.225	-81.98
178.445	-270.14
178.665	-1071.18
178.885	54.12
179.105	-237.88
179.324	-64.54
179.544	-111.96
179.764	259.1
179.984	49.17
180.204	57.63
180.423	8.07
180.643	29.09
180.863	20.3
181.083	0.7
181.302	33.35
181.522	60.39
181.742	39.04
181.961	43.27
182.181	18.84
182.401	11.1
182.621	39.62
182.84	87.05
183.06	66.63
183.279	73.91
183.499	85.93
183.719	72.09
183.938	73.87
184.158	83.33
184.377	90.74
184.597	95.34
184.816	75.68
185.036	75.75
185.256	76.36
185.475	59.73
185.695	61.63
185.914	56.69
186.134	58.84
186.353	45.23
186.572	54.33
186.792	53.94
187.011	57.85
187.231	61.74
187.45	61.78
187.67	61
187.889	67.32
188.108	81.44
188.328	105.21
188.547	98.43
188.766	110.81
188.986	97.54
189.205	-3.45
189.424	-226.37
189.644	-66.37
189.863	197.85
190.082	554.26
190.302	-563.99
190.521	-102.1
190.74	-86.17
190.959	-92.09
191.178	-2.85
191.398	40.43
191.617	65.52
191.836	59.84
192.055	63.82
192.274	47.58
192.494	72.62
192.713	58.78
192.932	86.82
193.151	65.96
193.37	68.36
193.589	52.61
193.808	45.62
194.027	51.25
194.246	70.89
194.465	69.63
194.685	80.17
194.904	65.57
195.123	69.42
195.342	50.02
195.561	69.23
195.78	45.06
195.999	60.21
196.218	55.56
196.436	62.43
196.655	28.31
196.874	65.61
197.093	104.24
197.312	131.47
197.531	179.2
197.75	161.96
197.969	136.69
198.188	163.53
198.407	147.31
198.625	155.65
198.844	140.63
199.063	139.47
199.282	122.64
199.501	122.97
199.719	111.63
199.938	93.95
200.157	93.79
200.376	110.91
200.594	96.97
200.813	95.17
201.032	99.9
201.251	91.48
201.469	110.84
201.688	138.2
201.907	129.78
202.125	116.18
202.344	110.75
202.563	146.4
202.781	129.12
203	154.28
203.218	163.39
203.437	261.64
203.656	566.14
203.874	584.89
204.093	317.27
204.311	271.9
204.53	339.14
204.748	288.77
204.967	253.44
205.185	193.21
205.404	186.99
205.622	337.86
205.841	225.25
206.059	148.15
206.278	119.72
206.496	97.76
206.715	119.5
206.933	251.62
207.151	202.76
207.37	123.37
207.588	113.34
207.806	104.77
208.025	75.02
208.243	94.38
208.461	97.26
208.68	91.66
208.898	123.67
209.116	90.5
209.335	55.32
209.553	65.24
209.771	103.45
209.989	127.23
210.208	126.02
210.426	144.81
210.644	87.88
210.862	28.97
211.081	41.83
211.299	15.39
211.517	29.41
211.735	24.39
211.953	18.77
212.171	23.18
212.39	32.16
212.608	35.82
212.826	40.28
213.044	44.98
213.262	51.54
213.48	52.71
213.698	65.74
213.916	67.16
214.134	76.11
214.352	83.58
214.57	84.69
214.788	86.09
215.006	103.6
215.224	97.22
215.442	108.1
215.66	127.67
215.878	112.97
216.096	130.51
216.314	124.96
216.532	117.85
216.75	96.83
216.968	68.29
217.185	57.65
217.403	52.97
217.621	47.23
217.839	58.4
218.057	47.08
218.275	44.43
218.492	20.93
218.71	-5.27
218.928	-2.24
219.146	-0.99
219.363	18.97
219.581	-2.27
219.799	29
220.017	49.19
220.234	25.62
220.452	31.83
220.67	44.64
220.887	69.4
221.105	92.31
221.323	88.44
221.54	100.9
221.758	87.55
221.976	82.86
222.193	85.8
222.411	98.1
222.629	78.83
222.846	80.01
223.064	79.34
223.281	65.2
223.499	51.04
223.716	55.89
223.934	44.13
224.151	48.88
224.369	30.42
224.586	19.53
224.804	18.16
225.021	32.53
225.239	36.06
225.456	33.41
225.674	31.25
225.891	43.48
226.108	38.73
226.326	50.43
226.543	41.11
226.76	44.61
226.978	42.14
227.195	33.52
227.413	26.15
227.63	28.56
227.847	28.91
228.064	26.52
228.282	19.47
228.499	18.86
228.716	16.34
228.934	17.37
229.151	17.65
229.368	17.53
229.585	19.96
229.802	20.77
230.02	19.49
230.237	19.16
230.454	21.98
230.671	22.84
230.888	24.62
231.105	23.58
231.323	24.68
231.54	23.54
231.757	25.64
231.974	24.71
232.191	23.31
232.408	26.78
232.625	26.26
232.842	18.08
233.059	16.71
233.276	17.51
233.493	24.39
233.71	25.61
233.927	27.08
234.144	25.94
234.361	22.81
234.578	24.25
234.795	23.42
235.012	21.3
235.229	24.57
235.446	22.64
235.663	19.8
235.879	14.66
236.096	11.85
236.313	13.51
236.53	12.65
236.747	12.96
236.964	9.17
237.181	5.23
237.397	6.27
237.614	4.31
237.831	8.61
238.048	12.28
238.264	11.84
238.481	7.12
238.698	7.2
238.915	8.05
239.131	4.77
239.348	7.95
239.565	9.2
239.781	14.44
239.998	14.24
240.215	14.75
240.431	8.49
240.648	7.73
240.865	9.47
241.081	5.1
241.298	3.89
241.514	11.14
241.731	11.26
241.947	12.67
242.164	12.1
242.38	12.36
242.597	13.3
242.814	15.15
243.03	15.57
243.246	17.07
243.463	19.05
243.679	20.41
243.896	18.73
244.112	21.09
244.329	20.9
244.545	19.56
244.762	20.59
244.978	18.49
245.194	16.44
245.411	16.07
245.627	15.58
245.843	13.81
246.06	12.89
246.276	10.34
246.492	9.47
246.709	9.22
246.925	9.67
247.141	8.95
247.357	8.85
247.574	8.78
247.79	8.59
248.006	8.02
248.222	7.7
248.439	7.76
248.655	9.25
248.871	9.3
249.087	9.18
249.303	8.48
249.519	9.24
249.736	9.73
249.952	10.43
250.168	12.08
250.384	13.19
250.6	14.68
250.816	15.74
251.032	16.03
251.248	15.7
251.464	15.85
251.68	18.06
251.896	17.28
252.112	17.61
252.328	18.29
252.544	17.79
252.76	17.24
252.976	18.81
253.192	18.28
253.408	18.15
253.624	17.46
253.84	17.87
254.056	16.15
254.272	15.08
254.487	16.09
254.703	15.3
254.919	13.14
255.135	13.18
255.351	11.29
255.567	11.87
255.782	11.82
255.998	14.43
256.214	13.15
256.43	14.46
256.646	16.97
256.861	13.31
257.077	13.64
257.293	14.77
257.508	13.24
257.724	12.37
257.94	11.98
258.155	10.4
258.371	9.99
258.587	10.08
258.802	10.49
259.018	9.91
259.234	10.28
259.449	10.06
259.665	9.84
259.88	10.54
260.096	10.36
260.312	11.32
260.527	12
260.743	11.88
260.958	11.83
261.174	10.14
261.389	10.1
261.605	10.39
261.82	10.24
262.036	10.51
262.251	10.06
262.466	9.98
262.682	8.37
262.897	7.17
263.113	7.01
263.328	7.6
263.543	10.75
263.759	10.83
263.974	11.75
264.189	12.38
264.405	13.31
264.62	14.35
264.835	15.13
265.051	14.44
265.266	17.09
265.481	16.09
265.696	16.08
265.912	15.21
266.127	13.77
266.342	12.02
266.557	12.3
266.773	11.96
266.988	11.82
267.203	10.93
267.418	10.77
267.633	9.6
267.848	9.57
268.064	8.28
268.279	9.39
268.494	11.17
268.709	12.09
268.924	11.87
269.139	11.25
269.354	12.03
269.569	12.89
269.784	13.88
269.999	13.18
270.214	12.96
270.429	13.94
270.644	12.8
270.859	11.75
271.074	10.72
271.289	10.32
271.504	10.45
271.719	8.97
271.934	10.36
272.149	10.15
272.363	10.02
272.578	9.62
272.793	9.47
273.008	10.61
273.223	11.25
273.438	12.35
273.653	13.48
273.867	13.62
274.082	14.39
274.297	12.58
274.512	11.71
274.726	13.13
274.941	14.13
275.156	15.25
275.371	14.19
275.585	14.57
275.8	13.75
276.015	12.92
276.229	12.58
276.444	12.85
276.659	13.23
276.873	14.45
277.088	13.46
277.302	14
277.517	12.11
277.732	11.92
277.946	11.39
278.161	10.37
278.375	9.53
278.59	9.54
278.804	9.73
279.019	10
279.233	10.66
279.448	9.64
279.662	8.63
279.877	8.99
280.091	9.42
280.306	8.49
280.52	9.81
280.735	10.82
280.949	10.81
281.163	9.74
281.378	8.54
281.592	6.72
281.806	8.01
282.021	7.71
282.235	8.74
282.449	8.58
282.664	8.7
282.878	8.07
283.092	8.76
283.307	9.81
283.521	9.78
283.735	10.69
283.949	11.25
284.164	9.62
284.378	10.17
284.592	8.88
284.806	8.67
285.02	8.45
285.234	9.32
285.449	7.88
285.663	7.5
285.877	7.87
286.091	7.73
286.305	8.22
286.519	9.98
286.733	9.69
286.947	10.56
287.161	10.43
287.375	10.9
287.589	10.67
287.803	11.66
288.017	11.19
288.231	10.71
288.445	11.11
288.659	11.13
288.873	10.86
289.087	11.09
289.301	11.09
289.515	11.49
289.729	12.25
289.943	11.52
290.157	10.99
290.371	11.07
290.584	11.61
290.798	11.47
291.012	11.67
291.226	11.52
291.44	11.6
291.654	11.88
291.867	11.74
292.081	11.55
292.295	11.89
292.509	12.21
292.722	12.58
292.936	12.9
293.15	12.63
293.364	11.77
293.577	10.67
293.791	11.18
294.005	11.17
294.218	10.97
294.432	10.36
294.645	11.49
294.859	11.9
295.073	11.28
295.286	11.16
295.5	12.66
295.713	12.71
295.927	12.62
296.14	13.18
296.354	12.24
296.568	12.47
296.781	12.44
296.994	12.8
297.208	11.95
297.421	12.53
297.635	12.31
297.848	11.22
298.062	11.61
298.275	12.32
298.489	11.33
298.702	11.69
298.915	11.13
299.129	11.32
299.342	10.61
299.555	11.36
299.769	11.71
299.982	12.73
300.195	13.26
300.409	12.1
300.622	12.09
300.835	12.56
301.048	13.22
301.262	14.15
301.475	15.22
301.688	14.61
301.901	14.37
302.115	13.11
302.328	13.27
302.541	12.22
302.754	12.98
302.967	13.03
303.18	13.76
303.393	13.53
303.607	13.62
303.82	12.89
304.033	12.75
304.246	13.67
304.459	14.71
304.672	14.49
304.885	15.6
305.098	16.28
305.311	15.61
305.524	14.62
305.737	14.68
305.95	13.98
306.163	13.24
306.376	14.09
306.589	12.71
306.802	11.54
307.015	10.35
307.228	9.83
307.44	9.43
307.653	11.09
307.866	11.41
308.079	10.7
308.292	10.79
308.505	10.62
308.718	10.47
308.93	11
309.143	10.63
309.356	10.4
309.569	10.44
309.781	10.76
309.994	9.38
310.207	9.5
310.42	9.88
310.632	9.99
310.845	10.38
311.058	10.05
311.27	10.05
311.483	11.39
311.696	11.34
311.908	11.67
312.121	11.38
312.333	12.55
312.546	12.56
312.759	12.73
312.971	12.98
313.184	14.43
313.396	15.12
313.609	14.98
313.821	14.38
314.034	15.58
314.246	15.69
314.459	15.99
314.671	15.11
314.884	15.03
315.096	14.33
315.309	14.21
315.521	12.31
315.733	12.04
315.946	12.88
316.158	12.07
316.371	11.98
316.583	11.86
316.795	11.42
317.008	11.61
317.22	11.26
317.432	12
317.644	12.2
317.857	12.31
318.069	11.8
318.281	11.11
318.494	13.03
318.706	12.44
318.918	12.11
319.13	11.74
319.342	12.13
319.555	11.69
319.767	11.4
319.979	10.62
320.191	11.57
320.403	12.01
320.615	11.52
320.827	10.96
321.039	11.05
321.252	11.16
321.464	11.5
321.676	9.5
321.888	10.37
322.1	10.24
322.312	10.6
322.524	8.88
322.736	8.67
322.948	10.59
323.16	9.91
323.372	10.15
323.584	10.42
323.796	11
324.007	12.12
324.219	11.61
324.431	11.79
324.643	11.83
324.855	12.41
325.067	13.05
325.279	12.45
325.491	12.33
325.702	12.09
325.914	11.98
326.126	11.43
326.338	10.28
326.55	10.63
326.761	10.06
326.973	10.32
327.185	11.4
327.396	10.1
327.608	9.71
327.82	9.81
328.032	10.12
328.243	9.64
328.455	9.87
328.666	12.04
328.878	13.2
329.09	13.4
329.301	15.52
329.513	14.43
329.725	15.49
329.936	15.64
330.148	15.87
330.359	16.35
330.571	17.38
330.782	17.88
330.994	17.39
331.205	16.19
331.417	17.35
331.628	15.86
331.84	17.13
332.051	17.58
332.262	18.22
332.474	18.93
332.685	18.29
332.897	17.96
333.108	16.87
333.319	16.65
333.531	16.92
333.742	16.54
333.953	15.56
334.165	15.29
334.376	14.78
334.587	14.53
334.799	14.09
335.01	14.13
335.221	14.53
335.432	14.84
335.644	14.96
335.855	15.74
336.066	15.59
336.277	16.97
336.488	15.58
336.7	15.26
336.911	14.98
337.122	15.62
337.333	15.87
337.544	16.29
337.755	17.08
337.966	17.13
338.177	16.71
338.388	17.14
338.599	16
338.811	17.7
339.022	17.89
339.233	17.64
339.444	16.99
339.655	17.22
339.866	16.68
340.076	15.43
340.287	15.89
340.498	15.71
340.709	15.12
340.92	15.84
341.131	15.33
341.342	15.59
341.553	16.33
341.764	16.68
341.975	16.33
342.185	15.57
342.396	16.07
342.607	15.55
342.818	15.71
343.029	16
343.239	15.88
343.45	14.26
343.661	14.37
343.872	13.54
344.082	14.25
344.293	14.25
344.504	14.98
344.714	14.73
344.925	14.88
345.136	14.26
345.346	14.11
345.557	13.94
345.768	14.78
345.978	14.42
346.189	14.77
346.399	13.34
346.61	13.51
346.821	13.51
347.031	13.41
347.242	13.25
347.452	14.12
347.663	14.54
347.873	14.61
348.084	15.04
348.294	15
348.504	14.74
348.715	15.25
348.925	15.53
349.136	15.96
349.346	16.91
349.557	16.71
349.767	16.32
349.977	15.59
350.188	15.79
350.398	15.44
350.608	14.97
350.819	15.45
351.029	15.38
351.239	14.6
351.449	14.04
351.66	14.21
351.87	14.89
352.08	15.36
352.29	15.57
352.501	14.87
352.711	15.75
352.921	15.83
353.131	15.84
353.341	15.34
353.552	15.03
353.762	14.52
353.972	13.93
354.182	13.45
354.392	13.63
354.602	13.88
354.812	14.29
355.022	13.84
355.232	14.33
355.442	13.9
355.652	14.26
355.862	14.79
356.072	14.68
356.282	14.33
356.492	14.13
356.702	13.04
356.912	12.88
357.122	13.12
357.332	12.41
357.542	12.19
357.752	12.17
357.962	12.25
358.171	11.96
358.381	12.35
358.591	12.26
358.801	12.96
359.011	13.28
359.221	12.92
359.43	12.68
359.64	13.32
359.85	13.34
360.06	13.46
360.269	14.03
360.479	14.19
360.689	13.41
360.899	13.87
361.108	13.06
361.318	12.77
361.528	13.11
361.737	13.14
361.947	13.25
362.156	13.06
362.366	13.18
362.576	12.47
362.785	12.49
362.995	13.33
363.204	12.76
363.414	12.89
363.623	13.4
363.833	13.39
364.042	13.16
364.252	12.8
364.461	12.87
364.671	12.18
364.88	12.34
365.09	12.12
365.299	11.77
365.509	11.44
365.718	11.92
365.927	12.15
366.137	11.84
366.346	12.66
366.555	12.45
366.765	12.94
366.974	13.69
367.183	13.71
367.393	14.05
367.602	14.57
367.811	15.49
368.021	15.71
368.23	15.61
368.439	15.33
368.648	14.31
368.857	14.32
369.067	14.01
369.276	14.1
369.485	14.05
369.694	13.76
369.903	13.04
370.112	13.01
370.321	12.36
370.531	11.9
370.74	11.93
370.949	12.33
371.158	12.53
371.367	12.86
371.576	12.61
371.785	12.71
371.994	12.71
372.203	12.49
372.412	12.34
372.621	12.47
372.83	12.48
373.039	12.75
373.248	12.48
373.457	12.48
373.666	11.82
373.874	10.96
374.083	11.05
374.292	10.92
374.501	10.89
374.71	10.54
374.919	10.54
375.128	10.73
375.336	10.68
375.545	11.04
375.754	11.07
375.963	11.56
376.171	12.31
376.38	12.02
376.589	11.9
376.798	11.69
377.006	11.83
377.215	11.44
377.424	11.1
377.632	11.44
377.841	11.03
378.05	10.94
378.258	10.58
378.467	10.4
378.675	10.39
378.884	10.41
379.093	10.85
379.301	11.01
379.51	11.39
379.718	11.65
379.927	11.43
380.135	11.56
380.344	11.64
380.552	11.06
380.761	10.92
380.969	11.04
381.177	11.28
381.386	10.51
381.594	10.31
381.803	10.14
382.011	10
382.219	9.71
382.428	9.44
382.636	9.14
382.845	10.05
383.053	10.34
383.261	10.17
383.469	9.83
383.678	10.39
383.886	10.37
384.094	9.74
384.302	9.52
384.511	9.73
384.719	9.86
384.927	9.97
385.135	10.06
385.343	10.35
385.552	10.33
385.76	10.55
385.968	10.81
386.176	10.71
386.384	11.13
386.592	11.3
386.8	11.09
387.008	11.01
387.216	11.03
387.424	10.79
387.633	10.12
387.841	9.96
388.049	9.89
388.257	9.62
388.465	9.64
388.672	9.52
388.88	9.22
389.088	8.89
389.296	9.06
389.504	9.12
389.712	9.06
389.92	8.96
390.128	9.13
390.336	9.22
390.544	9.1
390.751	9.09
390.959	9.26
391.167	9.48
391.375	9.7
391.583	9.44
391.79	9.16
391.998	9.21
392.206	9.69
392.414	9.42
392.621	9.29
392.829	9.12
393.037	9.2
393.244	9.04
393.452	8.99
393.66	9.29
393.867	9.64
394.075	10.08
394.283	9.82
394.49	9.46
394.698	9.7
394.905	9.79
395.113	10.04
395.32	9.82
395.528	9.81
395.735	9.79
395.943	9.52
396.15	9.38
396.358	8.91
396.565	8.94
396.773	9.24
396.98	9.31
397.188	9.07
397.395	8.97
397.602	9.23
397.81	9.36
398.017	9.4
398.225	9.49
398.432	9.49
398.639	9.66
398.847	9.82
399.054	9.94
399.261	9.84
399.468	10.24
399.676	10.31
399.883	10.01
400.09	9.91
400.297	9.79
400.505	9.55
400.712	9.36
400.919	9.17
401.126	9.2
401.333	8.68
401.54	8.72
401.748	8.54
401.955	8.57
402.162	8.92
402.369	9.08
402.576	9.22
402.783	9.39
402.99	9.23
403.197	9.53
403.404	9.5
403.611	9.67
403.818	9.54
404.025	9.23
404.232	9.14
404.439	8.85
404.646	8.67
404.853	8.79
405.06	8.74
405.267	9.06
405.474	8.91
405.681	9.05
405.887	9.05
406.094	9.08
406.301	9.27
406.508	9.08
406.715	9.13
406.922	9.18
407.128	8.95
407.335	8.81
407.542	8.84
407.749	8.79
407.955	8.44
408.162	8.14
408.369	8.18
408.575	8.24
408.782	8.47
408.989	8.66
409.195	8.57
409.402	8.82
409.609	8.84
409.815	8.47
410.022	8.67
410.228	8.91
410.435	9.16
410.642	9.12
410.848	8.98
411.055	8.91
411.261	8.69
411.468	8.64
411.674	8.41
411.881	8.61
412.087	8.68
412.294	8.85
412.5	8.59
412.706	8.62
412.913	8.58
413.119	8.81
413.326	8.97
413.532	9.25
413.738	9.06
413.945	9.27
414.151	9.11
414.357	9.2
414.564	9.01
414.77	9.41
414.976	9.27
415.182	9.47
415.389	9.34
415.595	9.4
415.801	9.12
416.007	9.41
416.214	9.22
416.42	9.25
416.626	9.33
416.832	9.09
417.038	8.85
417.244	9.01
417.45	8.9
417.657	8.74
417.863	8.61
418.069	8.76
418.275	8.77
418.481	8.71
418.687	8.74
418.893	8.52
419.099	8.38
419.305	8.4
419.511	8.4
419.717	8.38
419.923	8.43
420.129	8.47
420.335	8.5
420.541	8.37
420.746	8.38
420.952	8.36
421.158	8.52
421.364	8.77
421.57	8.84
421.776	8.8
421.982	8.88
422.187	8.94
422.393	8.9
422.599	8.83
422.805	8.97
423.01	9.06
423.216	9.14
423.422	9.11
423.628	9.12
423.833	9.06
424.039	9.02
424.245	8.92
424.45	9.02
424.656	9.03
424.862	9.01
425.067	9
425.273	8.9
425.478	8.86
425.684	8.95
425.889	8.96
426.095	9
426.301	9.1
426.506	9.1
426.712	8.92
426.917	8.92
427.123	8.94
427.328	8.86
427.533	8.96
427.739	9.07
427.944	8.8
428.15	8.65
428.355	8.73
428.561	8.72
428.766	8.68
428.971	8.59
429.177	8.78
429.382	9.08
429.587	9.1
429.793	9.16
429.998	9.14
430.203	9.25
430.408	9.29
430.614	8.91
430.819	8.79
431.024	8.98
431.229	8.98
431.434	8.89
431.64	8.57
431.845	8.72
432.05	8.59
432.255	8.53
432.46	8.46
432.665	8.35
432.87	8.36
433.076	8.45
433.281	8.37
433.486	8.34
433.691	8.41
433.896	8.37
434.101	8.25
434.306	8.33
434.511	8.18
434.716	8.22
434.921	8.14
435.126	8.26
435.331	8.25
435.535	8.2
435.74	8.31
435.945	8
436.15	7.95
436.355	8.09
436.56	8.14
436.765	8.27
436.97	8.4
437.174	8.68
437.379	8.77
437.584	8.83
437.789	8.86
437.993	8.91
438.198	9.07
438.403	9.22
438.608	9.35
438.812	9.13
439.017	9.16
439.222	9.09
439.426	8.99
439.631	9.04
439.836	9.01
440.04	9.02
440.245	8.97
440.45	9.01
440.654	8.9
440.859	8.72
441.063	8.89
441.268	8.84
441.472	8.89
441.677	8.9
441.881	9.01
442.086	8.89
442.29	9.02
442.495	8.97
442.699	8.98
442.904	9.13
443.108	9.02
443.312	9.03
443.517	9.14
443.721	9.21
443.925	9.1
444.13	8.86
444.334	8.88
444.538	8.65
444.743	8.72
444.947	8.7
445.151	8.62
445.356	8.75
445.56	8.71
445.764	8.54
445.968	8.31
446.173	8.43
446.377	8.6
446.581	8.7
446.785	8.71
446.989	8.69
447.193	8.73
447.398	8.81
447.602	8.77
447.806	8.77
448.01	8.9
448.214	9.04
448.418	8.91
448.622	8.77
448.826	8.53
449.03	8.55
449.234	8.58
449.438	8.52
449.642	8.39
449.846	8.36
450.05	8.32
450.254	8.33
450.458	8.13
450.662	8.33
450.866	8.19
451.069	8.46
451.273	8.43
451.477	8.33
451.681	8.34
451.885	8.3
452.089	8.28
452.292	8.29
452.496	8.31
452.7	8.59
452.904	8.49
453.107	8.64
453.311	8.61
453.515	8.51
453.719	8.49
453.922	8.6
454.126	8.58
454.33	8.62
454.533	8.52
454.737	8.43
454.94	8.43
455.144	8.56
455.348	8.45
455.551	8.43
455.755	8.68
455.958	8.86
456.162	8.74
456.365	8.79
456.569	9.05
456.772	8.99
456.976	8.86
457.179	8.7
457.383	8.47
457.586	8.42
457.79	8.41
457.993	8.35
458.196	8.45
458.4	8.38
458.603	8.41
458.807	8.21
459.01	8.36
459.213	8.44
459.417	8.4
459.62	8.55
459.823	8.63
460.026	8.68
460.23	8.66
460.433	8.45
460.636	8.4
460.839	8.5
461.042	8.6
461.246	8.46
461.449	8.58
461.652	8.57
461.855	8.43
462.058	8.51
462.261	8.35
462.464	8.36
462.668	8.47
462.871	8.62
463.074	8.4
463.277	8.25
463.48	8.47
463.683	8.29
463.886	8.46
464.089	8.57
464.292	8.4
464.495	8.3
464.698	8.18
464.901	8.25
465.104	8.35
465.306	8.51
465.509	8.55
465.712	8.5
465.915	8.54
466.118	8.41
466.321	8.35
466.524	8.42
466.726	8.67
466.929	8.76
467.132	8.65
467.335	8.49
467.538	8.46
467.74	8.35
467.943	8.34
468.146	8.29
468.348	8.39
468.551	8.38
468.754	8.26
468.956	8.22
469.159	8.24
469.362	8.23
469.564	8.18
469.767	8.22
469.969	8.28
470.172	8.28
470.375	8.26
470.577	8.28
470.78	8.28
470.982	8.33
471.185	8.26
471.387	8.32
471.59	8.24
471.792	8.41
471.995	8.4
472.197	8.51
472.399	8.53
472.602	8.56
472.804	8.42
473.007	8.41
473.209	8.49
473.411	8.5
473.614	8.49
473.816	8.56
474.018	8.33
474.22	8.35
474.423	8.32
474.625	8.31
474.827	8.38
475.03	8.56
475.232	8.69
475.434	8.65
475.636	8.59
475.838	8.68
476.04	8.69
476.243	8.71
476.445	8.48
476.647	8.56
476.849	8.44
477.051	8.35
477.253	8.28
477.455	8.32
477.657	8.17
477.859	8.19
478.061	8.05
478.263	8.1
478.465	8.16
478.667	8.28
478.869	8.15
479.071	8.3
479.273	8.29
479.475	8.3
479.677	8.05
479.879	8.21
480.081	8.27
480.283	8.37
480.485	8.35
480.686	8.42
480.888	8.48
481.09	8.45
481.292	8.41
481.494	8.42
481.695	8.4
481.897	8.43
482.099	8.4
482.301	8.35
482.502	8.32
482.704	8.42
482.906	8.27
483.107	8.22
483.309	8.22
483.511	8.18
483.712	8.15
483.914	8.17
484.115	8.15
484.317	8.14
484.519	8.13
484.72	8.03
484.922	7.93
485.123	7.98
485.325	7.97
485.526	7.94
485.728	7.92
485.929	7.94
486.131	7.88
486.332	7.92
486.534	7.88
486.735	7.91
486.936	8.04
487.138	8.05
487.339	8.1
487.541	8.09
487.742	8.12
487.943	8.18
488.144	8.19
488.346	8.12
488.547	8.12
488.748	8.15
488.95	8.12
489.151	8.07
489.352	8.04
489.553	8.08
489.755	8.11
489.956	8.12
490.157	8.08
490.358	8.06
490.559	8.15
490.76	8.12
490.961	8.14
491.163	8.15
491.364	8.09
491.565	8.12
491.766	8.01
491.967	7.99
492.168	7.89
492.369	7.86
492.57	7.82
492.771	7.8
492.972	7.85
493.173	7.86
493.374	7.84
493.575	7.93
493.776	7.96
493.976	7.99
494.177	8.06
494.378	8.17
494.579	8.35
494.78	8.37
494.981	8.56
495.182	8.54
495.382	8.57
495.583	8.56
495.784	8.62
495.985	8.63
496.185	8.69
496.386	8.55
496.587	8.53
496.788	8.55
496.988	8.62
497.189	8.56
497.39	8.47
497.59	8.4
497.791	8.39
497.992	8.29
498.192	8.3
498.393	8.13
498.593	8.27
498.794	8.32
498.994	8.26
499.195	8.13
499.395	8.14
499.596	8.16
499.796	8.2
499.997	8.4
500.197	8.53
500.398	8.48
500.598	8.59
500.799	8.48
500.999	8.49
501.199	8.47
501.4	8.64
501.6	8.65
501.801	8.81
502.001	8.76
502.201	8.8
502.402	8.66
502.602	8.76
502.802	8.91
503.002	9
503.203	9
503.403	8.97
503.603	9.01
503.803	8.96
504.003	8.99
504.204	9.05
504.404	8.93
504.604	8.99
504.804	9.11
505.004	9
505.204	9.1
505.404	9.1
505.604	9.12
505.804	9.05
506.005	9.08
506.205	9.13
506.405	9.18
506.605	9.15
506.805	9.29
507.005	9.14
507.204	9.16
507.404	9
507.604	9.16
507.804	9.18
508.004	9.22
508.204	9.27
508.404	9.01
508.604	8.89
508.804	8.96
509.003	8.82
509.203	8.86
509.403	8.92
509.603	8.98
509.803	8.89
510.002	8.83
510.202	8.84
510.402	8.86
510.602	8.93
510.801	9
511.001	8.96
511.201	8.97
511.4	8.97
511.6	8.8
511.8	8.89
511.999	8.83
512.199	8.86
512.398	8.78
512.598	8.76
512.797	8.84
512.997	8.69
513.197	8.67
513.396	8.82
513.596	8.81
513.795	8.99
513.994	8.87
514.194	8.95
514.393	8.95
514.593	9.06
514.792	9.05
514.992	9.1
515.191	9.25
515.39	9.25
515.59	9.31
515.789	9.44
515.988	9.34
516.188	9.49
516.387	9.5
516.586	9.58
516.786	9.65
516.985	9.69
517.184	9.69
517.383	9.76
517.582	9.81
517.782	9.71
517.981	9.72
518.18	9.68
518.379	9.7
518.578	9.57
518.777	9.63
518.976	9.65
519.176	9.7
519.375	9.68
519.574	9.68
519.773	9.73
519.972	9.66
520.171	9.61
520.37	9.65
520.569	9.62
520.768	9.82
520.967	9.82
521.166	9.75
521.365	9.69
521.564	9.85
521.762	9.76
521.961	9.7
522.16	9.84
522.359	9.86
522.558	9.89
522.757	9.91
522.956	9.86
523.154	9.89
523.353	9.97
523.552	9.99
523.751	9.9
523.949	10.03
524.148	10
524.347	10.06
524.546	10.08
524.744	10.14
524.943	10.12
525.142	10.18
525.34	10.22
525.539	10.15
525.737	10.23
525.936	10.29
526.135	10.34
526.333	10.4
526.532	10.35
526.73	10.3
526.929	10.33
527.127	10.3
527.326	10.3
527.524	10.25
527.723	10.32
527.921	10.27
528.12	10.26
528.318	10.21
528.516	10.2
528.715	10.19
528.913	10.25
529.112	10.28
529.31	10.3
529.508	10.25
529.707	10.25
529.905	10.24
530.103	10.28
530.301	10.3
530.5	10.37
530.698	10.39
530.896	10.49
531.094	10.46
531.293	10.47
531.491	10.5
531.689	10.55
531.887	10.69
532.085	10.76
532.283	10.77
532.481	10.75
532.68	10.75
532.878	10.83
533.076	10.79
533.274	10.83
533.472	10.87
533.67	10.86
533.868	10.94
534.066	10.92
534.264	10.91
534.462	10.91
534.66	10.93
534.858	10.88
535.056	10.88
535.253	10.92
535.451	10.94
535.649	10.9
535.847	10.98
536.045	11.06
536.243	11.17
536.441	11.22
536.638	11.28
536.836	11.29
537.034	11.34
537.232	11.28
537.43	11.34
537.627	11.39
537.825	11.41
538.023	11.44
538.22	11.44
538.418	11.23
538.616	11.28
538.813	11.37
539.011	11.35
539.209	11.38
539.406	11.5
539.604	11.62
539.801	11.72
539.999	12
540.196	11.92
540.394	11.81
540.591	11.95
540.789	11.86
540.986	11.8
541.184	11.92
541.381	11.99
541.579	11.97
541.776	11.91
541.974	11.84
542.171	11.78
542.368	11.85
542.566	11.95
542.763	11.96
542.96	12.06
543.158	12.12
543.355	12.15
543.552	12.28
543.75	12.44
543.947	12.52
544.144	12.74
544.341	12.76
544.539	12.93
544.736	13.04
544.933	13.18
545.13	13.24
545.327	13.37
545.524	13.36
545.722	13.28
545.919	13.38
546.116	13.49
546.313	13.45
546.51	13.52
546.707	13.52
546.904	13.52
547.101	13.57
547.298	13.58
547.495	13.51
547.692	13.52
547.889	13.64
548.086	13.56
548.283	13.52
548.48	13.57
548.677	13.56
548.874	13.57
549.07	13.7
549.267	13.62
549.464	13.82
549.661	13.92
549.858	14.1
550.055	14.01
550.251	14.09
550.448	14.03
550.645	14.14
550.842	14.26
551.038	14.17
551.235	14.2
551.432	14.37
551.628	14.19
551.825	14.25
552.022	14.35
552.218	14.48
552.415	14.6
552.612	14.87
552.808	14.83
553.005	14.81
553.201	14.95
553.398	14.9
553.594	14.93
553.791	15.16
553.987	15.18
554.184	15.23
554.38	15.34
554.577	15.39
554.773	15.23
554.97	15.43
555.166	15.72
555.362	15.84
555.559	15.92
555.755	15.95
555.952	15.96
556.148	16.22
556.344	16.39
556.541	16.44
556.737	16.27
556.933	16.44
557.129	16.41
557.326	16.28
557.522	16.27
557.718	16.35
557.914	16.48
558.11	16.52
558.307	16.42
558.503	16.46
558.699	16.5
558.895	16.57
559.091	16.64
559.287	16.56
559.483	16.54
559.679	16.56
559.876	16.97
560.072	16.91
560.268	17.17
560.464	17.46
560.66	17.48
560.856	17.53
561.052	17.7
561.247	17.99
561.443	18.15
561.639	18.41
561.835	18.62
562.031	18.27
562.227	18.33
562.423	18.1
562.619	18.06
562.815	18.21
563.01	18.16
563.206	18.25
563.402	18.07
563.598	18.14
563.793	18.27
563.989	18.24
564.185	18.34
564.381	18.6
564.576	18.82
564.772	18.87
564.968	18.85
565.163	18.86
565.359	19.02
565.555	18.96
565.75	19.01
565.946	19.06
566.141	19.18
566.337	19.18
566.532	19.19
566.728	18.98
566.923	18.91
567.119	18.81
567.314	18.92
567.51	18.72
567.705	19.07
567.901	19.1
568.096	19.18
568.292	19.2
568.487	19.32
568.682	19.37
568.878	19.59
569.073	19.71
569.268	19.79
569.464	19.88
569.659	20.06
569.854	19.91
570.05	20.01
570.245	19.87
570.44	19.83
570.635	19.81
570.831	19.86
571.026	19.97
571.221	20.08
571.416	20.2
571.611	20.28
571.806	20.48
572.002	20.57
572.197	20.57
572.392	20.49
572.587	20.52
572.782	20.71
572.977	20.71
573.172	20.68
573.367	20.64
573.562	20.67
573.757	20.76
573.952	20.67
574.147	20.63
574.342	20.79
574.537	21.03
574.732	21.08
574.927	21.11
575.121	21.21
575.316	21.42
575.511	21.55
575.706	21.46
575.901	21.29
576.096	21.24
576.29	21.44
576.485	21.28
576.68	21.25
576.875	21.32
577.069	21.11
577.264	21.09
577.459	21.08
577.654	20.95
577.848	21.05
578.043	21.17
578.238	21.31
578.432	21.17
578.627	21.07
578.821	20.99
579.016	20.93
579.21	20.95
579.405	20.94
579.6	20.98
579.794	21.22
579.989	21.33
580.183	21.78
580.378	21.7
580.572	21.87
580.766	21.99
580.961	22.1
581.155	22.39
581.35	22.74
581.544	22.82
581.738	22.74
581.933	22.67
582.127	22.79
582.321	22.33
582.516	22.6
582.71	22.27
582.904	22.4
583.099	22.68
583.293	22.75
583.487	22.75
583.681	22.65
583.875	22.88
584.07	22.89
584.264	22.92
584.458	23.34
584.652	23.36
584.846	23.55
585.04	23.7
585.234	23.44
585.428	23.25
585.623	23.17
585.817	23.5
586.011	23.33
586.205	23.46
586.399	23.36
586.593	22.83
586.787	23.06
586.981	23.01
587.174	22.97
587.368	22.98
587.562	22.97
587.756	23.06
587.95	22.88
588.144	22.89
588.338	22.77
588.532	22.56
588.725	22.95
588.919	22.79
589.113	22.91
589.307	22.99
589.501	22.96
589.694	23.02
589.888	22.89
590.082	23.02
590.275	22.86
590.469	23.09
590.663	23.36
590.856	23.18
591.05	23.13
591.244	23.3
591.437	23.38
591.631	23.68
591.824	23.71
592.018	23.86
592.212	23.95
592.405	24.14
592.599	23.96
592.792	24.06
592.986	24.14
593.179	24.13
593.372	23.97
593.566	23.76
593.759	23.72
593.953	23.94
594.146	24.14
594.339	24
594.533	24.28
594.726	24.43
594.92	24.38
595.113	24.48
595.306	24.56
595.499	24.73
595.693	24.72
595.886	24.6
596.079	24.45
596.272	24.37
596.466	24.41
596.659	24.29
596.852	24.35
597.045	24.36
597.238	24.26
597.431	24.35
597.624	24.32
597.818	24.3
598.011	24.38
598.204	24.27
598.397	24.31
598.59	24.31
598.783	24.36
598.976	24.07
599.169	24.17
599.362	24.27
599.555	24.28
599.748	24.39
599.941	24.88
600.134	24.95
600.326	25.03
600.519	24.92
600.712	24.92
600.905	24.88
601.098	25.12
601.291	25.23
601.483	24.96
601.676	24.76
601.869	24.54
602.062	24.23
602.255	24.23
602.447	24.44
602.64	24.53
602.833	24.58
603.025	24.63
603.218	24.69
603.411	24.57
603.603	24.85
603.796	24.91
603.989	25.06
604.181	25.06
604.374	25.04
604.566	25.12
604.759	24.96
604.951	24.78
605.144	24.74
605.336	24.83
605.529	24.79
605.721	24.9
605.914	25.04
606.106	25.04
606.299	25.23
606.491	25.12
606.683	25.06
606.876	25.35
607.068	25.58
607.26	25.74
607.453	25.68
607.645	25.79
607.837	25.78
608.03	25.61
608.222	25.65
608.414	25.47
608.606	25.69
608.799	25.59
608.991	25.58
609.183	25.52
609.375	25.51
609.567	25.45
609.759	25.43
609.952	25.31
610.144	25.38
610.336	25.28
610.528	25.54
610.72	25.55
610.912	25.79
611.104	25.78
611.296	25.99
611.488	26.05
611.68	25.85
611.872	25.92
612.064	25.97
612.256	26.05
612.448	26.22
612.64	26.14
612.832	26.26
613.023	26.14
613.215	26.21
613.407	26.39
613.599	26.16
613.791	26.66
613.983	26.52
614.174	26.66
614.366	26.84
614.558	26.88
614.75	26.7
614.941	26.6
615.133	26.59
615.325	26.57
615.516	26.19
615.708	26.26
615.9	25.87
616.091	26.05
616.283	25.8
616.475	25.72
616.666	25.85
616.858	25.99
617.049	25.85
617.241	25.76
617.432	25.78
617.624	25.96
617.815	25.77
618.007	25.92
618.198	25.91
618.39	26.29
618.581	26.14
618.773	26.17
618.964	26.43
619.155	26.47
619.347	26.47
619.538	26.38
619.729	26.44
619.921	26.99
620.112	27.11
620.303	27.05
620.494	26.9
620.686	26.97
620.877	26.99
621.068	26.49
621.259	26.63
621.451	26.76
621.642	26.86
621.833	26.95
622.024	27.01
622.215	26.98
622.406	26.96
622.597	27.08
622.788	27.2
622.98	27.14
623.171	27.4
623.362	27.51
623.553	27.54
623.744	27.56
623.935	27.32
624.126	26.96
624.317	26.92
624.508	27.04
624.698	26.96
624.889	26.92
625.08	27.03
625.271	27.08
625.462	27.05
625.653	27.01
625.844	26.98
626.034	26.85
626.225	27
626.416	27.12
626.607	27.3
626.798	27.4
626.988	27.57
627.179	27.45
627.37	27.4
627.56	27.38
627.751	27.58
627.942	27.55
628.132	27.75
628.323	27.54
628.514	27.32
628.704	27.17
628.895	26.97
629.085	26.7
629.276	26.68
629.466	26.52
629.657	26.56
629.847	26.42
630.038	26.53
630.228	26.46
630.419	26.76
630.609	26.91
630.8	26.91
630.99	27.25
631.181	26.98
631.371	26.97
631.561	27.54
631.752	27.58
631.942	27.38
632.132	27.24
632.323	27.29
632.513	27.41
632.703	27.42
632.893	27.4
633.084	27.02
633.274	27.26
633.464	27.32
633.654	26.95
633.844	26.97
634.034	27.11
634.225	27.13
634.415	27.27
634.605	27.19
634.795	27.32
634.985	27.21
635.175	27.53
635.365	27.5
635.555	27.41
635.745	27.48
635.935	27.45
636.125	27.22
636.315	27.45
636.505	27.44
636.695	27.43
636.885	27.58
637.075	27.52
637.265	27.44
637.455	27.78
637.644	27.96
637.834	27.82
638.024	27.73
638.214	28.27
638.404	27.91
638.593	27.66
638.783	27.68
638.973	27.63
639.163	27.97
639.352	27.81
639.542	27.69
639.732	27.69
639.921	27.78
640.111	27.78
640.301	27.62
640.49	27.94
640.68	28.23
640.87	27.94
641.059	27.65
641.249	27.86
641.438	27.78
641.628	27.55
641.817	27.49
642.007	27.51
642.196	27.46
642.386	27.35
642.575	27.23
642.764	27.06
642.954	27.06
643.143	27.62
643.333	27.37
643.522	27.3
643.711	27.31
643.901	27.36
644.09	27.44
644.279	27.88
644.469	27.98
644.658	27.99
644.847	28.41
645.036	28.45
645.226	27.73
645.415	27.44
645.604	27.67
645.793	27.77
645.982	27.68
646.171	27.48
646.361	27.07
646.55	27.14
646.739	27.18
646.928	27.16
647.117	27.64
647.306	28.24
647.495	28.35
647.684	28.8
647.873	29.03
648.062	29.31
648.251	29.08
648.44	29.01
648.629	28.67
648.818	28.51
649.007	28.32
649.196	28.07
649.384	27.92
649.573	28.08
649.762	27.64
649.951	27.52
650.14	27.33
650.328	27.7
650.517	27.94
650.706	28.1
650.895	28.32
651.083	28.39
651.272	28.66
651.461	28.51
651.65	28.85
651.838	28.77
652.027	28.7
652.216	28.21
652.404	28.47
652.593	28.53
652.781	28.42
652.97	28.55
653.158	28.48
653.347	28.34
653.535	28.19
653.724	27.8
653.912	27.93
654.101	27.84
654.289	28.88
654.478	28.5
654.666	28.09
654.855	28.6
655.043	28.29
655.231	28.42
655.42	28.22
655.608	28.62
655.796	28.75
655.985	28.95
656.173	29.38
656.361	28.95
656.55	29.17
656.738	29.63
656.926	29.24
657.114	29.44
657.302	29.32
657.491	29.58
657.679	29.54
657.867	29.66
658.055	29.83
658.243	29.59
658.431	29.59
658.619	29.67
658.807	29.25
658.996	29.36
659.184	29.23
659.372	29.11
659.56	28.72
659.748	28.66
659.936	28.57
660.124	28.3
660.311	28.2
660.499	28.33
660.687	28.06
660.875	28.31
661.063	28.31
661.251	28.09
661.439	28.2
661.627	28.28
661.814	27.87
662.002	27.44
662.19	27.45
662.378	27.58
662.565	27.32
662.753	27.39
662.941	27.14
663.129	27.27
663.316	27.48
663.504	26.77
663.692	27.32
663.879	28.26
664.067	28.53
664.254	28.51
664.442	28.59
664.63	28.53
664.817	28.4
665.005	28.43
665.192	28.37
665.38	28.41
665.567	29.29
665.755	29.11
665.942	28.92
666.13	28.83
666.317	28.99
666.504	28.9
666.692	29.05
666.879	28.85
667.067	29.49
667.254	28.95
667.441	29.14
667.629	28.85
667.816	28.38
668.003	28.01
668.19	28.21
668.378	28.31
668.565	28.34
668.752	28.37
668.939	28.83
669.127	28.95
669.314	29.41
669.501	29.5
669.688	29.85
669.875	30.5
670.062	30.67
670.249	30.69
670.436	30.95
670.623	30.77
670.81	30.45
670.997	30.17
671.184	29.3
671.371	29.28
671.558	29.14
671.745	28.7
671.932	28.62
672.119	28.84
672.306	28.99
672.493	28.58
672.68	28.87
672.867	29.39
673.054	29.61
673.24	29.84
673.427	30.03
673.614	29.92
673.801	30.45
673.988	30.13
674.174	29.81
674.361	29.52
674.548	29.02
674.734	29.19
674.921	28.77
675.108	28.85
675.294	29.27
675.481	28.75
675.668	29.32
675.854	29.03
676.041	28.72
676.227	28.49
676.414	28.71
676.601	29.37
676.787	29.5
676.974	29.75
677.16	29.92
677.347	29.82
677.533	29.79
677.719	29.29
677.906	29.07
678.092	29.47
678.279	29.57
678.465	29.46
678.651	29.3
678.838	28.93
679.024	28.9
679.21	28.84
679.397	28.83
679.583	28.88
679.769	28.91
679.955	29.11
680.142	28.79
680.328	28.84
680.514	29
680.7	28.9
680.886	29.07
681.073	28.78
681.259	28.74
681.445	28.46
681.631	28.57
681.817	28.69
682.003	28.81
682.189	28.89
682.375	29.14
682.561	29.25
682.747	29.37
682.933	29.26
683.119	29.21
683.305	29.21
683.491	29.7
683.677	29.92
683.863	29.93
684.049	29.86
684.235	30.06
684.42	29.74
684.606	29.16
684.792	29.16
684.978	29.02
685.164	29.12
685.349	29.07
685.535	28.8
685.721	28.77
685.907	28.33
686.092	28.17
686.278	28.05
686.464	28.45
686.649	28.81
686.835	28.55
687.021	28.65
687.206	28.6
687.392	28.5
687.577	28.45
687.763	28.32
687.948	28.44
688.134	28.24
688.319	28.33
688.505	28.3
688.69	28.34
688.876	28.36
689.061	28.24
689.247	28.61
689.432	28.66
689.618	28.51
689.803	28.58
689.988	28.7
690.174	28.9
690.359	28.91
690.544	28.59
690.73	28.08
690.915	28.11
691.1	28.22
691.285	27.96
691.471	28.21
691.656	28.31
691.841	27.92
692.026	28.22
692.211	28.5
692.396	28.62
692.582	29.12
692.767	29.79
692.952	29.99
693.137	30.02
693.322	30.19
693.507	30.1
693.692	30.24
693.877	31.16
694.062	30.56
694.247	30.82
694.432	30.38
694.617	29.73
694.802	29.95
694.987	30.26
695.172	30.78
695.357	30.6
695.541	30.5
695.726	30.47
695.911	30.14
696.096	30.31
696.281	29.95
696.466	30.58
696.65	30.72
696.835	30.58
697.02	30.41
697.204	29.95
697.389	30.48
697.574	30.15
697.759	30.21
697.943	30.01
698.128	30.04
698.312	29.74
698.497	29.56
698.682	29.71
698.866	29.78
699.051	29.6
699.235	29.24
699.42	28.96
699.604	29.28
699.789	28.97
699.973	28.95
700.158	28.71
700.342	28.77
700.527	28.52
700.711	28.58
700.895	28.17
701.08	28.13
701.264	28.75
701.448	28.65
701.633	27.98
701.817	28.34
702.001	28
702.186	28.89
702.37	28.99
702.554	28.81
702.738	28.7
702.923	28.82
703.107	28.93
703.291	28.82
703.475	28.61
703.659	28.83
703.843	28.93
704.027	29.71
704.212	29.42
704.396	29.45
704.58	30.07
704.764	29.82
704.948	29.98
705.132	29.57
705.316	29.92
705.5	31.02
705.684	31.87
705.868	32.23
706.052	31.98
706.235	31.91
706.419	31.72
706.603	31.63
706.787	31.6
706.971	31.59
707.155	32.14
707.339	31.74
707.522	30.93
707.706	30.53
707.89	30.18
708.074	29.91
708.257	29.92
708.441	30.31
708.625	30.8
708.808	31.14
708.992	30.72
709.176	30.42
709.359	30.28
709.543	30.22
709.727	30.18
709.91	30.07
710.094	30.06
710.277	30.02
710.461	30.14
710.644	30.13
710.828	29.65
711.011	29.81
711.195	29.65
711.378	30.07
711.562	29.92
711.745	30.35
711.928	29.85
712.112	30.09
712.295	29.96
712.478	30.03
712.662	28.94
712.845	29.29
713.028	29.44
713.212	30.08
713.395	29.37
713.578	29.84
713.761	29.54
713.945	30.28
714.128	30.37
714.311	30.93
714.494	30.63
714.677	31.3
714.86	31.21
715.043	31.34
715.227	31.03
715.41	31.11
715.593	30.56
715.776	30.61
715.959	30.49
716.142	30.12
716.325	29.75
716.508	29.94
716.691	30.48
716.874	30.62
717.057	31.03
717.239	31.11
717.422	30.88
717.605	31.55
717.788	31.35
717.971	31.6
718.154	31.1
718.337	31.35
718.519	31.13
718.702	30.12
718.885	30.17
719.068	29.35
719.25	29.59
719.433	30.36
719.616	29.59
719.798	29.63
719.981	28.79
720.164	28.83
720.346	28.49
720.529	28.51
720.712	29.01
720.894	28.92
721.077	29.22
721.259	28.77
721.442	28.52
721.624	29.37
721.807	29.68
721.989	30.24
722.172	31.54
722.354	31.27
722.537	30.99
722.719	31.2
722.901	30.49
723.084	29.99
723.266	30.27
723.448	30.94
723.631	30.69
723.813	30.1
723.995	30.03
724.178	30.04
724.36	29.72
724.542	30.16
724.724	29.75
724.907	30.33
725.089	30.27
725.271	30.05
725.453	29.22
725.635	29.34
725.817	30.38
725.999	29.97
726.181	29.66
726.364	29.89
726.546	29.34
726.728	29.5
726.91	29.67
727.092	30.25
727.274	30.19
727.456	30.55
727.638	30.35
727.819	30.11
728.001	30.44
728.183	30.54
728.365	31.09
728.547	31.77
728.729	32.16
728.911	31.76
729.093	31.67
729.274	32.03
729.456	31.82
729.638	31.58
729.82	31.15
730.001	30.62
730.183	30.78
730.365	31.38
730.546	31.1
730.728	30.9
730.91	30.42
731.091	30.25
731.273	30.49
731.455	30.41
731.636	31.51
731.818	31.91
731.999	32.56
732.181	31.66
732.362	30.09
732.544	31.48
732.725	30.74
732.907	31.4
733.088	32.08
733.27	30.83
733.451	30.04
733.633	29.42
733.814	28.75
733.995	28.59
734.177	29.24
734.358	30.03
734.539	29.46
734.721	29.54
734.902	29.61
735.083	29.32
735.264	31.01
735.446	32.55
735.627	32.06
735.808	32.71
735.989	33.19
736.17	33.29
736.351	33.5
736.533	32.48
736.714	32.84
736.895	33.03
737.076	32.74
737.257	31.84
737.438	31.48
737.619	31.77
737.8	31.27
737.981	31.64
738.162	31.95
738.343	32.11
738.524	31.54
738.705	32.21
738.886	31.68
739.067	31.63
739.247	32.01
739.428	31.74
739.609	32
739.79	31.78
739.971	31.56
740.151	31.37
740.332	30.86
740.513	32.05
740.694	31.51
740.874	32.13
741.055	32.42
741.236	31.97
741.417	31.89
741.597	31.85
741.778	32.7
741.958	32.32
742.139	32.32
742.32	32.35
742.5	31.36
742.681	31.79
742.861	31.15
743.042	31.58
743.222	32.53
743.403	33.03
743.583	32.62
743.764	32.64
743.944	31.89
744.124	32.35
744.305	33.12
744.485	34.25
744.666	34.62
744.846	35.1
745.026	35.21
745.207	33.92
745.387	34.45
745.567	34.76
745.747	34.85
745.928	35.38
746.108	35.26
746.288	35.09
746.468	33.86
746.648	33.97
746.829	33.92
747.009	33.42
747.189	34.87
747.369	34.52
747.549	34.81
747.729	34.23
747.909	33.83
748.089	33.58
748.269	33.04
748.449	33.92
748.629	32.79
748.809	32.98
748.989	33
749.169	31.97
749.349	30.62
749.529	29.84
749.709	30.03
749.889	31.42
750.068	31.03
750.248	31.9
750.428	32.96
750.608	32.65
750.788	33.86
750.967	33.26
751.147	34.33
751.327	35.29
751.507	35.62
751.686	36
751.866	35.08
752.046	34.93
752.225	34.46
752.405	33.54
752.585	33.63
752.764	33.07
752.944	34.15
753.123	34.06
753.303	34.69
753.482	34.4
753.662	33.78
753.841	33.87
754.021	34.06
754.2	34.1
754.38	35.28
754.559	36.67
754.739	36.53
754.918	35.66
755.097	34.23
755.277	33.66
755.456	33.99
755.635	34.19
755.815	35.13
755.994	35.33
756.173	35.89
756.352	34.67
756.532	34.58
756.711	33.63
756.89	34.44
757.069	35.42
757.248	35.52
757.427	35.83
757.607	36.22
757.786	34.47
757.965	34.75
758.144	34.53
758.323	34.11
758.502	33.09
758.681	32.74
758.86	31.94
759.039	31.46
759.218	30.34
759.397	29.33
759.576	28.35
759.755	27.72
759.934	26.62
760.113	26.62
760.291	26.11
760.47	26.56
760.649	26.45
760.828	26.27
761.007	26.67
761.186	27.9
761.364	28.05
761.543	29.01
761.722	29.98
761.901	30.26
762.079	29.65
762.258	30.55
762.437	29.68
762.615	30.65
762.794	30.88
762.972	30.19
763.151	30.2
763.33	30.38
763.508	29.91
763.687	30.3
763.865	30.46
764.044	30.21
764.222	29.76
764.401	30.5
764.579	30.59
764.758	29.7
764.936	30.06
765.114	29.42
765.293	29.8
765.471	29.54
765.65	29.05
765.828	28.68
766.006	29.58
766.184	29.66
766.363	29.26
766.541	29.19
766.719	30.63
766.898	31.17
767.076	31.54
767.254	31.87
767.432	32.19
767.61	32.4
767.788	32.87
767.967	32.06
768.145	32.4
768.323	33.47
768.501	32.65
768.679	31.58
768.857	31.38
769.035	32.42
769.213	32.63
769.391	32.83
769.569	33.74
769.747	33.84
769.925	35.44
770.103	35.29
770.281	33.8
770.459	34.82
770.636	34.43
770.814	34.03
770.992	33.05
771.17	32.6
771.348	33.54
771.525	32.73
771.703	32.89
771.881	31.04
772.059	31.53
772.236	32.72
772.414	32.04
772.592	33.87
772.769	35.46
772.947	36.67
773.125	35.72
773.302	35.91
773.48	35.67
773.657	36.33
773.835	36.61
774.013	36.67
774.19	36.19
774.368	37.19
774.545	36.16
774.723	34.19
774.9	33.56
775.077	35.51
775.255	33.19
775.432	34.52
775.61	33.97
775.787	34.31
775.964	34.83
776.142	34.1
776.319	33.13
776.496	33.63
776.674	33.58
776.851	32.42
777.028	32.59
777.205	33.95
777.382	32.22
777.56	32.35
777.737	33.49
777.914	31.92
778.091	32.87
778.268	33.44
778.445	33.44
778.622	33.96
778.8	34.43
778.977	33.35
779.154	41.26
779.331	41.24
779.508	41.08
779.685	40.06
779.862	40.58
780.038	40.25
780.215	41.13
780.392	42.2
780.569	43.33
780.746	44.72
780.923	45.16
781.1	35.8
781.277	37.75
781.453	38.95
781.63	37.37
781.807	35.93
781.984	35.21
782.16	33.9
782.337	33.44
782.514	32.72
782.691	31.79
782.867	31.48
783.044	33.44
783.221	32.43
783.397	32.58
783.574	32.81
783.75	35.76
783.927	36.96
784.103	36.67
784.28	36.52
784.456	36.1
784.633	34.53
784.809	32.46
784.986	30.87
785.162	30.93
785.339	29.47
785.515	30.81
785.692	30.24
785.868	31.51
786.044	32.46
786.221	32.5
786.397	33.42
786.573	35.47
786.749	36.43
786.926	36.67
787.102	38.27
787.278	38.26
787.454	37.41
787.631	36.9
787.807	36.41
787.983	35.23
788.159	35.41
788.335	35.42
788.511	34.02
788.687	34.85
788.863	35.87
789.039	33.87
789.216	34.54
789.392	35.19
789.568	35.94
789.744	34.4
789.919	36.07
790.095	35.05
790.271	33.53
790.447	33.46
790.623	32.42
790.799	31.42
790.975	34.25
791.151	33.58
791.327	34.43
791.502	33.84
791.678	34.09
791.854	33.75
792.03	33.57
792.205	35.33
792.381	35.48
792.557	36.38
792.733	36.63
792.908	35.02
793.084	33.93
793.259	31.9
793.435	32.19
793.611	33.77
793.786	33.91
793.962	33.67
794.137	33.36
794.313	35.21
794.488	34.52
794.664	35.69
794.839	35.47
795.015	37.81
795.19	38.52
795.366	39.27
795.541	38.76
795.716	38.67
795.892	41.49
796.067	40.02
796.242	38.21
796.418	38.88
796.593	37.65
796.768	37.02
796.944	36.02
797.119	36.09
797.294	34.92
797.469	34.87
797.644	34.17
797.82	33.13
797.995	34.87
798.17	34.66
798.345	33.76
798.52	34.59
798.695	33.75
798.87	32.96
799.045	32.83
799.22	32.61
799.395	30.88
799.57	30.26
799.745	30.53
799.92	30.42
800.095	31.25
800.27	32.32
800.445	30.6
800.62	31.66
800.795	31.64
800.97	29.9
801.145	29.52
801.319	31.2
801.494	33.22
801.669	32.21
801.844	31.41
802.018	32.04
802.193	30.13
802.368	31.86
802.543	32.9
802.717	35.88
802.892	38.09
803.067	40.41
803.241	39.45
803.416	38.43
803.59	38.07
803.765	39.25
803.94	39.4
804.114	40.9
804.289	42.82
804.463	42.14
804.638	40.14
804.812	40.15
804.986	38.72
805.161	39.16
805.335	40.04
805.51	40.59
805.684	39.82
805.858	38.61
806.033	40.38
806.207	38.07
806.381	36.48
806.556	34.2
806.73	35.9
806.904	35.11
807.078	36.72
807.253	34.26
807.427	33.38
807.601	33.25
807.775	33.5
807.949	32.1
808.123	30.8
808.298	31.41
808.472	32.71
808.646	32.11
808.82	33.18
808.994	32.1
809.168	33.32
809.342	34.51
809.516	34.58
809.69	34.31
809.864	35.16
810.038	36.58
810.212	36.36
810.385	36.22
810.559	35.47
810.733	35.5
810.907	35.48
811.081	36.21
811.255	34.29
811.428	33.55
811.602	34.78
811.776	34.05
811.95	34.75
812.123	36.39
812.297	39.01
812.471	37.94
812.644	37.1
812.818	37.02
812.992	36.66
813.165	39.02
813.339	36.98
813.512	37.44
813.686	34.92
813.86	34.69
814.033	34.64
814.207	30.55
814.38	32.04
814.554	30.77
814.727	29.04
814.9	26.81
815.074	24.91
815.247	29.44
815.421	28.38
815.594	30.4
815.767	30.45
815.941	29.52
816.114	31.27
816.287	31.17
816.46	30.77
816.634	31.63
816.807	32.86
816.98	34.78
817.153	35.39
817.327	36.01
817.5	35.53
817.673	33.95
817.846	33.47
818.019	33.44
818.192	32.28
818.365	33.03
818.538	34.82
818.711	35.15
818.884	33.95
819.057	31.04
819.23	30.17
819.403	30.81
819.576	31.17
819.749	33.27
819.922	32.53
820.095	33.39
820.268	34.43
820.441	32.98
820.614	31.67
820.786	30.21
820.959	31.01
821.132	29.55
821.305	28.09
821.477	27.97
821.65	26.91
821.823	27.55
821.996	26.82
822.168	26.94
822.341	26.71
822.514	26.47
822.686	27.06
822.859	26.34
823.031	26.94
823.204	27.35
823.376	27.4
823.549	27.25
823.722	27.12
823.894	27.77
824.067	27.64
824.239	27.77
824.411	27.91
824.584	27.83
824.756	28.55
824.929	28.45
825.101	28.62
825.273	27.96
825.446	27.88
825.618	27.42
825.79	26.93
825.963	26.93
826.135	26.67
826.307	26.47
826.479	26.96
826.652	26.79
826.824	27.13
826.996	26.94
827.168	28.08
827.34	28.24
827.512	28.42
827.684	28.48
827.856	28.55
828.029	29.31
828.201	29.83
828.373	29.13
828.545	29.27
828.717	29.87
828.889	29.49
829.061	29.65
829.232	29.82
829.404	30.31
829.576	31.04
829.748	30.15
829.92	30.44
830.092	31.94
830.264	32.8
830.436	31.9
830.607	30.52
830.779	32.46
830.951	31.4
831.123	31.21
831.294	31.88
831.466	30.84
831.638	33.48
831.809	31.69
831.981	29.98
832.153	28.97
832.324	30.07
832.496	30.7
832.667	30.44
832.839	31.47
833.011	30.96
833.182	30.94
833.354	30.91
833.525	28.64
833.697	28.39
833.868	27.73
834.039	25.9
834.211	24.05
834.382	24.2
834.554	23.09
834.725	21.53
834.896	24
835.068	23.28
835.239	23.04
835.41	24.49
835.581	25.73
835.753	26.46
835.924	29.39
836.095	33.07
836.266	32.8
836.438	33.17
836.609	35.97
836.78	34.27
836.951	32.34
837.122	32.98
837.293	32.72
837.464	33.1
837.635	32.61
837.806	32.02
837.977	30.11
838.148	29.53
838.319	29.32
838.49	28.36
838.661	29.39
838.832	31.21
839.003	29.76
839.174	28.82
839.345	30.49
839.516	31.28
839.687	29.5
839.857	27.87
840.028	24.41
840.199	24.38
840.37	26.06
840.54	25.39
840.711	27.32
840.882	29.14
841.053	31.43
841.223	27.33
841.394	28.64
841.564	29.47
841.735	29.87
841.906	31.04
842.076	29.47
842.247	28.96
842.417	28.65
842.588	31.99
842.758	37.25
842.929	35.17
843.099	36.84
843.27	35.8
843.44	35.4
843.611	38.78
843.781	44.67
843.951	47.36
844.122	45.6
844.292	47.69
844.462	46.69
844.633	41.2
844.803	38.45
844.973	37.39
845.144	40.51
845.314	44.49
845.484	41.29
845.654	38.9
845.824	43.26
845.995	47.27
846.165	48.83
846.335	49.59
846.505	50.76
846.675	57.6
846.845	54.82
847.015	52.15
847.185	53.12
847.355	55.4
847.525	54.03
847.695	53.03
847.865	56.49
848.035	53.57
848.205	48.19
848.375	42.07
848.545	36.58
848.715	37.83
848.884	39.29
849.054	35.41
849.224	35.88
849.394	40.9
849.564	42.97
849.733	35.79
849.903	38.41
850.073	40.33
850.243	50.09
850.412	56.6
850.582	65.68
850.752	62.88
850.921	58.34
851.091	58.12
851.26	58.12
851.43	52.66
851.599	54.6
851.769	53.94
851.939	48.17
852.108	47.58
852.278	39.88
852.447	39.87
852.616	44.5
852.786	47.91
852.955	43.07
853.125	42.26
853.294	41.92
853.463	39.97
853.633	36.42
853.802	41.28
853.971	40.63
854.141	43.59
854.31	36.77
854.479	22.73
854.648	27.72
854.818	28.52
854.987	26.84
855.156	27.54
855.325	30.2
855.494	28.53
855.663	29.36
855.832	26.35
856.001	29.11
856.171	34.78
856.34	39.57
856.509	31.05
856.678	33.9
856.847	35.6
857.016	35.49
857.185	37.96
857.353	35.85
857.522	36.3
857.691	40.16
857.86	46.17
858.029	44.24
858.198	43.94
858.367	48.75
858.535	45.28
858.704	40.09
858.873	41.49
859.042	40.94
859.21	46.58
859.379	46.83
859.548	40.73
859.717	39.42
859.885	35.54
860.054	36.56
860.222	29.07
860.391	35.91
860.56	36.03
860.728	36.75
860.897	30.97
861.065	33.43
861.234	23.5
861.402	39.95
861.571	35.46
861.739	38.46
861.908	38.52
862.076	44.98
862.244	38.06
862.413	48.45
862.581	47.18
862.749	49.92
862.918	47.2
863.086	50.4
863.254	40.98
863.423	46.8
863.591	49.41
863.759	45.65
863.927	43.46
864.096	46.46
864.264	41.85
864.432	50.03
864.6	48.91
864.768	42.58
864.936	39.41
865.104	35.73
865.272	34.84
865.44	35.05
865.608	41.37
865.776	37.96
865.944	33.32
866.112	34.79
866.28	25.28
866.448	23.04
866.616	27.76
866.784	38.51
866.952	40.73
867.12	36.56
867.288	36.56
867.455	39.15
867.623	39.1
867.791	38.02
867.959	29.06
868.127	36.77
868.294	41.38
868.462	45.29
868.63	41.6
868.797	44.87
868.965	51.02
869.133	51.18
869.3	44.41
869.468	51.21
869.636	53.11
869.803	58.57
869.971	53.59
870.138	54.15
870.306	59.87
870.473	54.8
870.641	52.44
870.808	53.18
870.975	56.14
871.143	56.2
871.31	52.52
871.478	54.04
871.645	53.76
871.812	61.6
871.98	55.82
872.147	47.07
872.314	45.69
872.482	47.52
872.649	40.29
872.816	35.53
872.983	42.63
873.15	43.06
873.318	45.27
873.485	40.88
873.652	36.94
873.819	43.62
873.986	45.53
874.153	50.62
874.32	52.19
874.487	55.7
874.654	54.95
874.821	50.59
874.988	50.2
875.155	55.28
875.322	59.65
875.489	60.51
875.656	51.63
875.823	48.26
875.99	45.83
876.157	43.87
876.324	42.62
876.49	39.83
876.657	36.53
876.824	32.68
876.991	28.76
877.157	28.75
877.324	31.56
877.491	34.5
877.658	35.87
877.824	35.92
877.991	33.9
878.157	32.04
878.324	40.68
878.491	49.99
878.657	57.79
878.824	57.62
878.99	59.11
879.157	56.67
879.323	57.64
879.49	51.32
879.656	50.45
879.823	53.93
879.989	48.08
880.156	39.76
880.322	31.43
880.488	27.61
880.655	21.36
880.821	17.2
880.987	27.1
881.154	26.72
881.32	27.02
881.486	24.89
881.652	20.32
881.819	23.08
881.985	25.88
882.151	25.89
882.317	26.06
882.483	27.2
882.649	27.9
882.816	23.24
882.982	22.06
883.148	24.31
883.314	24.78
883.48	24.59
883.646	24.61
883.812	23.31
883.978	24.08
884.144	23.88
884.31	24.05
884.476	24.82
884.642	27.23
884.807	28.44
884.973	28.72
885.139	28.99
885.305	29.79
885.471	28.7
885.637	29.81
885.802	30.37
885.968	32.23
886.134	29.9
886.3	27.96
886.465	25.38
886.631	25.72
886.797	25.32
886.962	25.98
887.128	28.83
887.293	34.14
887.459	34.8
887.625	33.14
887.79	34.49
887.956	44.06
888.121	48.31
888.287	53.07
888.452	54.48
888.618	56.91
888.783	56.6
