Data from LC_209__Reflection_1.txt Node
Date: Thu Nov 19 12:09:11 EST 2015
User: robert
Spectrometer: USB4E03001
Autoset integration time: false
Trigger mode: 4
Integration Time (sec): 1.000000E-1
Scans to average: 15
Electric dark correction enabled: true
Nonlinearity correction enabled: false
Boxcar width: 5
Stray light correction enabled: false
XAxis mode: Wavelengths
Stop averaging: false
Number of Pixels in Spectrum: 3648
>>>>>Begin Spectral Data<<<<<
177.566	-309.03
177.785	378.54
178.005	-78.54
178.225	54.39
178.445	15.47
178.665	-42.07
178.885	-233.27
179.105	-108.24
179.324	24.68
179.544	284.62
179.764	113.77
179.984	-78.7
180.204	-68.2
180.423	-63.58
180.643	20.29
180.863	3.97
181.083	4.62
181.302	-20.95
181.522	31.68
181.742	38.26
181.961	19.78
182.181	8.84
182.401	23.21
182.621	32
182.84	64.81
183.06	51.56
183.279	105.48
183.499	68.89
183.719	74.48
183.938	84.08
184.158	189.76
184.377	206.75
184.597	502.14
184.816	-452.96
185.036	-243.03
185.256	-157.82
185.475	-72.53
185.695	-41.48
185.914	-13.66
186.134	-22.77
186.353	-3.53
186.572	-144.9
186.792	-123.73
187.011	462.36
187.231	357.58
187.45	215.72
187.67	117.58
187.889	96.89
188.108	-461.98
188.328	-69.65
188.547	-54.85
188.766	336.11
188.986	164.98
189.205	137.11
189.424	80.97
189.644	127.14
189.863	213.87
190.082	159.04
190.302	48.25
190.521	-9.25
190.74	-23.98
190.959	-298.49
191.178	-217.68
191.398	-103.12
191.617	-608.55
191.836	-491.32
192.055	-114.42
192.274	-82.5
192.494	5.16
192.713	-15.85
192.932	-40.66
193.151	-53.32
193.37	-8.89
193.589	-64.94
193.808	318.24
194.027	46.31
194.246	154.52
194.465	-53.27
194.685	504.95
194.904	5.81
195.123	-558.79
195.342	-184.92
195.561	-207.55
195.78	-1144.97
195.999	-479.53
196.218	638.03
196.436	-2284.62
196.655	585.64
196.874	101.77
197.093	181.57
197.312	195.56
197.531	404.38
197.75	1059.23
197.969	241.58
198.188	-3326.92
198.407	-125.42
198.625	26.9
198.844	-27.84
199.063	36.09
199.282	22.15
199.501	20.28
199.719	44.91
199.938	31.45
200.157	-14.39
200.376	0.96
200.594	-23.29
200.813	-51.03
201.032	-67.97
201.251	101.55
201.469	8.74
201.688	97.57
201.907	100.1
202.125	72.42
202.344	103.86
202.563	98.85
202.781	94.13
203	121.19
203.218	120.77
203.437	93.88
203.656	-54.27
203.874	156.79
204.093	92.48
204.311	-44.95
204.53	-14.4
204.748	15.51
204.967	6.37
205.185	12.49
205.404	6.03
205.622	28.17
205.841	-14.26
206.059	-96.09
206.278	-1279.29
206.496	52.14
206.715	1273.46
206.933	-63.38
207.151	7.87
207.37	-12.22
207.588	-21.17
207.806	-39.33
208.025	10.51
208.243	-78.54
208.461	-442.12
208.68	-662.94
208.898	-40.18
209.116	-2182.69
209.335	168.61
209.553	-119.84
209.771	-115.81
209.989	-363.02
210.208	-235.43
210.426	-343.51
210.644	375.94
210.862	272.19
211.081	652.53
211.299	316.89
211.517	242.59
211.735	5391.35
211.953	130.01
212.171	73.09
212.39	73.25
212.608	45.65
212.826	15.84
213.044	76.54
213.262	42.51
213.48	44.23
213.698	48.32
213.916	45.38
214.134	44.53
214.352	79.49
214.57	73.26
214.788	20.49
215.006	1223.08
215.224	106.95
215.442	103.74
215.66	31.74
215.878	78.42
216.096	42.64
216.314	40.02
216.532	69.58
216.75	50.17
216.968	83.92
217.185	76.68
217.403	38.72
217.621	-0.52
217.839	42.89
218.057	76.21
218.275	68.77
218.492	99.11
218.71	80.7
218.928	76.73
219.146	74.24
219.363	44.42
219.581	58.48
219.799	71.24
220.017	101.69
220.234	115.95
220.452	130
220.67	184.04
220.887	127.47
221.105	112.23
221.323	68.75
221.54	72.86
221.758	100.41
221.976	68.74
222.193	75.38
222.411	70.64
222.629	54.19
222.846	58.42
223.064	56.39
223.281	53.78
223.499	66.38
223.716	92.25
223.934	87.79
224.151	65.14
224.369	65.09
224.586	74.58
224.804	53.85
225.021	86.41
225.239	68.71
225.456	52.42
225.674	6.54
225.891	17.22
226.108	14.49
226.326	36.31
226.543	29.01
226.76	7.67
226.978	-20.83
227.195	-4.58
227.413	-8.62
227.63	-8.14
227.847	-0.88
228.064	6.63
228.282	7.46
228.499	8.11
228.716	7.38
228.934	10.01
229.151	14.37
229.368	13.17
229.585	16.04
229.802	13.34
230.02	15.12
230.237	16.52
230.454	17.51
230.671	15.41
230.888	13.79
231.105	16.77
231.323	17.83
231.54	18.89
231.757	23.58
231.974	20.14
232.191	24.4
232.408	26.57
232.625	30.06
232.842	29.85
233.059	29.91
233.276	36.83
233.493	35.77
233.71	37.58
233.927	31.47
234.144	28.66
234.361	30.17
234.578	26.41
234.795	25.19
235.012	22.29
235.229	12.88
235.446	14.99
235.663	4.96
235.879	8.54
236.096	9.47
236.313	10.55
236.53	7.15
236.747	9.06
236.964	15.86
237.181	17.73
237.397	10.22
237.614	15.72
237.831	13.51
238.048	24.37
238.264	17.38
238.481	15.94
238.698	17.99
238.915	25.23
239.131	15.71
239.348	10.94
239.565	12.75
239.781	16.13
239.998	22.83
240.215	25.81
240.431	22.23
240.648	22.74
240.865	23.67
241.081	22.38
241.298	19.45
241.514	21.37
241.731	21.6
241.947	21.47
242.164	19.4
242.38	17.93
242.597	14.4
242.814	14.83
243.03	13.37
243.246	11.51
243.463	11.94
243.679	12.56
243.896	11.63
244.112	11.95
244.329	9.81
244.545	11.95
244.762	10.67
244.978	13.32
245.194	13.38
245.411	12.52
245.627	14.18
245.843	14.63
246.06	12.95
246.276	13.43
246.492	13.32
246.709	12.87
246.925	13.24
247.141	13.05
247.357	12.91
247.574	12.69
247.79	13.89
248.006	12.93
248.222	12.85
248.439	13.36
248.655	12.98
248.871	12.49
249.087	12.7
249.303	12.05
249.519	12.25
249.736	11.99
249.952	11.19
250.168	9.68
250.384	10.07
250.6	10.07
250.816	11.59
251.032	11.67
251.248	11.27
251.464	13.2
251.68	15.49
251.896	14.68
252.112	15.55
252.328	16.12
252.544	17.64
252.76	18.06
252.976	18.17
253.192	16.65
253.408	17.67
253.624	19.13
253.84	17.46
254.056	16.64
254.272	18.1
254.487	15.46
254.703	15.6
254.919	14.92
255.135	16
255.351	11.66
255.567	10.92
255.782	9.36
255.998	6.62
256.214	6.27
256.43	6.92
256.646	8.82
256.861	8.8
257.077	7.66
257.293	5.1
257.508	5.36
257.724	10.17
257.94	11.1
258.155	10.94
258.371	11.8
258.587	11.4
258.802	10.79
259.018	9.9
259.234	11.16
259.449	11.61
259.665	12.24
259.88	12.76
260.096	11.92
260.312	12.11
260.527	11.86
260.743	12.23
260.958	12.33
261.174	11.89
261.389	11.59
261.605	12.21
261.82	11.91
262.036	11.41
262.251	10.56
262.466	11.06
262.682	10.84
262.897	12.57
263.113	11.82
263.328	12.29
263.543	12.04
263.759	13.72
263.974	12.28
264.189	12.55
264.405	12.38
264.62	12.87
264.835	10.84
265.051	9.52
265.266	8.62
265.481	9.21
265.696	8.49
265.912	10.34
266.127	10.26
266.342	12.04
266.557	12.64
266.773	13.35
266.988	12.01
267.203	12.91
267.418	12.58
267.633	13.16
267.848	12.96
268.064	13.64
268.279	12.57
268.494	11.62
268.709	11.57
268.924	11.63
269.139	11.33
269.354	11.43
269.569	11.04
269.784	10.31
269.999	8.49
270.214	8.55
270.429	8.63
270.644	8.25
270.859	8.31
271.074	7
271.289	7.67
271.504	8.04
271.719	8.52
271.934	9.09
272.149	10.99
272.363	12.12
272.578	11.21
272.793	11.54
273.008	13.48
273.223	13.39
273.438	14.35
273.653	13.1
273.867	14.03
274.082	14.28
274.297	14.56
274.512	13.7
274.726	14.01
274.941	15.86
275.156	15.5
275.371	14.84
275.585	15.47
275.8	13.9
276.015	14.19
276.229	12.31
276.444	12.21
276.659	10.85
276.873	8.56
277.088	6.47
277.302	6.29
277.517	7.1
277.732	6.03
277.946	5.8
278.161	6.89
278.375	7.22
278.59	7.14
278.804	7.6
279.019	8.79
279.233	10.47
279.448	10.78
279.662	9.21
279.877	7.95
280.091	9.14
280.306	10.22
280.52	9.71
280.735	10.98
280.949	12.41
281.163	11.82
281.378	10.88
281.592	12.59
281.806	13.36
282.021	14.1
282.235	14.61
282.449	13.48
282.664	12.44
282.878	12.78
283.092	12.28
283.307	11.78
283.521	12.25
283.735	12.34
283.949	11.7
284.164	12.05
284.378	11.59
284.592	12.29
284.806	13.35
285.02	12.35
285.234	11.96
285.449	11.93
285.663	11.84
285.877	11.66
286.091	12.24
286.305	12.09
286.519	11.68
286.733	10.66
286.947	10.04
287.161	8.01
287.375	8.98
287.589	8.22
287.803	7.34
288.017	8.02
288.231	7.3
288.445	6.9
288.659	7.23
288.873	7.26
289.087	10.04
289.301	10.26
289.515	11.99
289.729	12.6
289.943	13.26
290.157	14.17
290.371	14.03
290.584	15.09
290.798	15.06
291.012	15.19
291.226	14.3
291.44	12.75
291.654	11.65
291.867	11.73
292.081	11.84
292.295	11.63
292.509	11.88
292.722	11.04
292.936	11.63
293.15	13.57
293.364	11.72
293.577	13.07
293.791	14.25
294.005	15.32
294.218	14.85
294.432	14.8
294.645	15.9
294.859	14.85
295.073	14.43
295.286	12.93
295.5	11.04
295.713	12.62
295.927	12.59
296.14	12.06
296.354	12.62
296.568	11.72
296.781	11.37
296.994	10.35
297.208	9.87
297.421	10.61
297.635	11.56
297.848	12.23
298.062	12.43
298.275	12.96
298.489	12.62
298.702	11.77
298.915	12.84
299.129	13.12
299.342	13.33
299.555	15.66
299.769	15.61
299.982	15.09
300.195	15.47
300.409	14.51
300.622	14.52
300.835	15.4
301.048	17.03
301.262	16.74
301.475	17.09
301.688	17.1
301.901	15.08
302.115	15.61
302.328	15.96
302.541	15.69
302.754	16.13
302.967	15.51
303.18	16.26
303.393	15.09
303.607	15.49
303.82	15.73
304.033	15.85
304.246	17.44
304.459	17.85
304.672	18.35
304.885	17.38
305.098	17.33
305.311	18.4
305.524	17.44
305.737	18.31
305.95	18.63
306.163	16.69
306.376	17.23
306.589	15.15
306.802	13.99
307.015	13.78
307.228	14.23
307.44	13.82
307.653	13.05
307.866	12.71
308.079	11.47
308.292	11.41
308.505	13.15
308.718	13.79
308.93	14.36
309.143	14.91
309.356	14.54
309.569	15.58
309.781	16.75
309.994	16.58
310.207	17.13
310.42	17.25
310.632	16.55
310.845	16.65
311.058	15.66
311.27	16.39
311.483	16.2
311.696	16.24
311.908	15.79
312.121	14.26
312.333	13.98
312.546	13.17
312.759	13.18
312.971	14.2
313.184	12.97
313.396	13.25
313.609	13.2
313.821	13.32
314.034	11.95
314.246	11.47
314.459	12.73
314.671	13.29
314.884	13.07
315.096	12.86
315.309	11.17
315.521	12.08
315.733	12.14
315.946	12.07
316.158	12.41
316.371	13.96
316.583	14.62
316.795	13.83
317.008	13.31
317.22	12.88
317.432	12.4
317.644	13.2
317.857	13.42
318.069	14.03
318.281	13.31
318.494	12.4
318.706	11.94
318.918	11.23
319.13	11.13
319.342	11.93
319.555	13.54
319.767	13.52
319.979	13.39
320.191	13.82
320.403	14.45
320.615	13.3
320.827	13.23
321.039	12.69
321.252	12.47
321.464	12.3
321.676	11.89
321.888	10.57
322.1	10.57
322.312	10.52
322.524	9.84
322.736	8.75
322.948	9.93
323.16	9.66
323.372	11.08
323.584	10.77
323.796	10.39
324.007	10.22
324.219	10.91
324.431	11.87
324.643	12.55
324.855	12.14
325.067	11.34
325.279	11.09
325.491	11.5
325.702	10.53
325.914	10.29
326.126	11.28
326.338	10.2
326.55	10.01
326.761	10.56
326.973	9.94
327.185	10.37
327.396	11.57
327.608	10.65
327.82	11.34
328.032	11.26
328.243	12.64
328.455	11.19
328.666	13.61
328.878	14.26
329.09	12.54
329.301	12.08
329.513	12.12
329.725	11.89
329.936	12.27
330.148	12.68
330.359	13.8
330.571	14.3
330.782	16.61
330.994	15.21
331.205	14.74
331.417	14.35
331.628	14.05
331.84	13.8
332.051	14.77
332.262	15.1
332.474	14.38
332.685	14.79
332.897	13.14
333.108	12.29
333.319	12.6
333.531	11.88
333.742	12.69
333.953	13.79
334.165	13.97
334.376	13.04
334.587	14.36
334.799	13.44
335.01	12.05
335.221	13.22
335.432	13.58
335.644	13.1
335.855	14.03
336.066	14.29
336.277	13.86
336.488	13.91
336.7	13.52
336.911	12.89
337.122	13.12
337.333	13.14
337.544	12.14
337.755	12.32
337.966	12.68
338.177	12.23
338.388	12.52
338.599	13.45
338.811	13.61
339.022	13.6
339.233	13.19
339.444	13.39
339.655	12.95
339.866	13.24
340.076	13.01
340.287	13.45
340.498	13.14
340.709	13.63
340.92	13.27
341.131	12.37
341.342	12.22
341.553	11.6
341.764	11.73
341.975	12.75
342.185	12.34
342.396	11.37
342.607	10.79
342.818	11.1
343.029	9.78
343.239	9.53
343.45	10.26
343.661	10.45
343.872	10.08
344.082	9.15
344.293	9.54
344.504	10.37
344.714	11.65
344.925	11.66
345.136	12.01
345.346	12.44
345.557	12.5
345.768	11.83
345.978	11.77
346.189	12.45
346.399	13.03
346.61	12.53
346.821	12.54
347.031	11.47
347.242	10.93
347.452	11.14
347.663	10.99
347.873	11.48
348.084	12.68
348.294	12.88
348.504	12.97
348.715	13.52
348.925	13.31
349.136	12.69
349.346	13.24
349.557	13.5
349.767	13.01
349.977	13.13
350.188	12.02
350.398	10.85
350.608	10.53
350.819	10.21
351.029	9.04
351.239	8.15
351.449	8.8
351.66	8.86
351.87	8.94
352.08	8.67
352.29	8.88
352.501	9.21
352.711	9.45
352.921	8.92
353.131	9.77
353.341	11.02
353.552	12
353.762	11.75
353.972	11.61
354.182	12.61
354.392	12.5
354.602	12.14
354.812	12.16
355.022	11.71
355.232	12.91
355.442	12.62
355.652	11.86
355.862	11.13
356.072	10.5
356.282	10.28
356.492	8.48
356.702	9.23
356.912	9.44
357.122	8.98
357.332	9.63
357.542	8.92
357.752	8.99
357.962	9
358.171	10.07
358.381	9.82
358.591	9.82
358.801	10.64
359.011	9.89
359.221	9.35
359.43	9.91
359.64	10.18
359.85	10.85
360.06	10.5
360.269	10.57
360.479	10.46
360.689	10.94
360.899	10.3
361.108	11.01
361.318	11.21
361.528	11.14
361.737	11.53
361.947	11.48
362.156	10.7
362.366	10.35
362.576	10.66
362.785	9.54
362.995	9.71
363.204	10.32
363.414	9.51
363.623	9.88
363.833	10.13
364.042	9.43
364.252	9.31
364.461	10.21
364.671	11.02
364.88	10.35
365.09	10.9
365.299	10.4
365.509	9.94
365.718	9.64
365.927	9.83
366.137	9.57
366.346	8.8
366.555	7.91
366.765	6.93
366.974	6.32
367.183	7.05
367.393	7.06
367.602	6.52
367.811	6.39
368.021	6.48
368.23	5.32
368.439	5.25
368.648	6
368.857	6.96
369.067	7.58
369.276	8.06
369.485	7.12
369.694	7.5
369.903	8.37
370.112	8.9
370.321	9.16
370.531	9.9
370.74	10.29
370.949	10.51
371.158	9.97
371.367	9.73
371.576	9.26
371.785	9.22
371.994	8.56
372.203	8.01
372.412	7.88
372.621	7.7
372.83	7.33
373.039	7.16
373.248	6.93
373.457	6.84
373.666	6.23
373.874	5.93
374.083	5.91
374.292	6.98
374.501	6.72
374.71	6.9
374.919	6.73
375.128	6.62
375.336	6.66
375.545	7.07
375.754	7.35
375.963	7.86
376.171	7.95
376.38	8.31
376.589	7.84
376.798	8.15
377.006	8.15
377.215	8.38
377.424	8.35
377.632	8.23
377.841	7.97
378.05	7.92
378.258	7.7
378.467	7.69
378.675	7.75
378.884	7.71
379.093	8.1
379.301	7.78
379.51	7.51
379.718	7.72
379.927	7.72
380.135	7.85
380.344	7.85
380.552	7.78
380.761	7.71
380.969	7.59
381.177	7.32
381.386	7.63
381.594	7.93
381.803	8.18
382.011	8.42
382.219	8.6
382.428	8.27
382.636	8.05
382.845	7.86
383.053	8.02
383.261	8.07
383.469	8.03
383.678	7.3
383.886	6.98
384.094	6.58
384.302	6.07
384.511	5.82
384.719	5.61
384.927	5.25
385.135	5.49
385.343	5.86
385.552	5.61
385.76	5.71
385.968	6.09
386.176	6.4
386.384	6.55
386.592	6.43
386.8	6.18
387.008	6.38
387.216	6.76
387.424	7.39
387.633	7.26
387.841	7.32
388.049	7.42
388.257	7.14
388.465	7.11
388.672	7.38
388.88	7.47
389.088	7.63
389.296	7.54
389.504	7.74
389.712	6.99
389.92	6.9
390.128	6.72
390.336	6.51
390.544	6.76
390.751	6.54
390.959	6.24
391.167	6.54
391.375	6.74
391.583	6.88
391.79	6.82
391.998	6.99
392.206	7.02
392.414	7.18
392.621	7.23
392.829	7.14
393.037	7.53
393.244	7.55
393.452	7.31
393.66	7.08
393.867	7.01
394.075	6.98
394.283	6.84
394.49	6.61
394.698	6.85
394.905	6.48
395.113	6.19
395.32	5.72
395.528	5.78
395.735	5.8
395.943	6.19
396.15	5.96
396.358	5.78
396.565	5.97
396.773	6.17
396.98	6.1
397.188	6.64
397.395	6.77
397.602	6.53
397.81	6.58
398.017	6.61
398.225	6.52
398.432	6.96
398.639	6.69
398.847	6.62
399.054	6.31
399.261	6.22
399.468	5.88
399.676	5.96
399.883	6.08
400.09	6.13
400.297	6.08
400.505	5.69
400.712	5.54
400.919	5.62
401.126	5.63
401.333	6.17
401.54	6.15
401.748	6.26
401.955	6.15
402.162	6.33
402.369	6.36
402.576	6.44
402.783	6.7
402.99	6.29
403.197	6.49
403.404	6.37
403.611	6.02
403.818	5.88
404.025	5.67
404.232	5.73
404.439	5.74
404.646	5.79
404.853	5.77
405.06	5.65
405.267	6.04
405.474	6.01
405.681	5.94
405.887	6.05
406.094	6.05
406.301	6.22
406.508	6.13
406.715	6.08
406.922	5.88
407.128	5.59
407.335	5.61
407.542	5.56
407.749	5.66
407.955	5.91
408.162	5.8
408.369	5.81
408.575	5.83
408.782	5.89
408.989	5.92
409.195	5.8
409.402	6.02
409.609	6.28
409.815	6.33
410.022	6.23
410.228	6.23
410.435	5.99
410.642	6.11
410.848	6.02
411.055	5.85
411.261	5.82
411.468	6.15
411.674	6.34
411.881	6.19
412.087	6.23
412.294	6.31
412.5	6.25
412.706	6.32
412.913	6.06
413.119	6.2
413.326	6.44
413.532	6.58
413.738	6.3
413.945	6.01
414.151	5.72
414.357	5.54
414.564	5.48
414.77	5.44
414.976	5.54
415.182	5.91
415.389	5.97
415.595	5.8
415.801	5.61
416.007	5.62
416.214	5.58
416.42	5.74
416.626	5.61
416.832	5.55
417.038	5.62
417.244	5.81
417.45	5.63
417.657	5.61
417.863	5.74
418.069	5.81
418.275	6.01
418.481	6
418.687	6.28
418.893	6.27
419.099	6.28
419.305	6.43
419.511	6.16
419.717	6.15
419.923	6.19
420.129	6.05
420.335	5.97
420.541	5.82
420.746	5.98
420.952	5.87
421.158	5.9
421.364	5.88
421.57	5.69
421.776	5.83
421.982	5.88
422.187	5.72
422.393	5.8
422.599	5.73
422.805	5.74
423.01	5.56
423.216	5.43
423.422	5.5
423.628	5.55
423.833	5.67
424.039	5.66
424.245	5.63
424.45	5.68
424.656	5.77
424.862	5.84
425.067	5.82
425.273	5.89
425.478	5.89
425.684	5.95
425.889	5.95
426.095	5.91
426.301	5.93
426.506	5.99
426.712	6.13
426.917	5.92
427.123	6.07
427.328	6.14
427.533	6.32
427.739	6.42
427.944	6.33
428.15	6.2
428.355	6.27
428.561	6.17
428.766	6.11
428.971	6.02
429.177	6.1
429.382	5.89
429.587	5.74
429.793	5.64
429.998	5.44
430.203	5.32
430.408	5.35
430.614	5.11
430.819	5.3
431.024	5.31
431.229	5.34
431.434	5.51
431.64	5.37
431.845	5.64
432.05	5.68
432.255	5.74
432.46	5.89
432.665	5.98
432.87	6.25
433.076	6.25
433.281	6.23
433.486	6.48
433.691	6.46
433.896	6.67
434.101	6.47
434.306	6.48
434.511	6.38
434.716	6.24
434.921	6.24
435.126	6.09
435.331	6.11
435.535	5.98
435.74	5.73
435.945	5.82
436.15	5.95
436.355	6.02
436.56	5.82
436.765	5.96
436.97	6.19
437.174	6.29
437.379	6.23
437.584	6.18
437.789	6.31
437.993	6.44
438.198	6.32
438.403	6.28
438.608	6.39
438.812	6.43
439.017	6.55
439.222	6.46
439.426	6.22
439.631	6.12
439.836	6.09
440.04	6.04
440.245	5.93
440.45	5.95
440.654	5.92
440.859	5.81
441.063	5.95
441.268	5.81
441.472	5.7
441.677	5.77
441.881	5.94
442.086	5.91
442.29	5.98
442.495	6.04
442.699	6.04
442.904	5.94
443.108	5.95
443.312	5.85
443.517	5.93
443.721	6.07
443.925	6.18
444.13	6.29
444.334	6.18
444.538	6.03
444.743	6.03
444.947	6.04
445.151	5.97
445.356	5.9
445.56	5.96
445.764	5.96
445.968	5.97
446.173	6.05
446.377	5.89
446.581	6
446.785	6.06
446.989	6.04
447.193	5.97
447.398	6.08
447.602	6.14
447.806	6.09
448.01	6.09
448.214	6.1
448.418	5.96
448.622	5.87
448.826	5.79
449.03	5.79
449.234	5.71
449.438	5.65
449.642	5.61
449.846	5.66
450.05	5.69
450.254	5.68
450.458	5.55
450.662	5.5
450.866	5.58
451.069	5.73
451.273	5.68
451.477	5.53
451.681	5.55
451.885	5.5
452.089	5.54
452.292	5.53
452.496	5.67
452.7	5.67
452.904	5.59
453.107	5.76
453.311	5.71
453.515	5.81
453.719	6.02
453.922	6.11
454.126	6.11
454.33	6.01
454.533	5.98
454.737	5.94
454.94	6.11
455.144	6.27
455.348	6.28
455.551	6.28
455.755	6.09
455.958	6.02
456.162	5.98
456.365	6.08
456.569	6.21
456.772	6.14
456.976	5.81
457.179	5.72
457.383	5.79
457.586	5.57
457.79	5.54
457.993	5.7
458.196	5.68
458.4	5.74
458.603	5.74
458.807	5.67
459.01	5.72
459.213	5.82
459.417	5.75
459.62	5.64
459.823	5.8
460.026	5.88
460.23	5.85
460.433	5.91
460.636	5.94
460.839	5.85
461.042	5.85
461.246	5.84
461.449	5.84
461.652	5.85
461.855	5.79
462.058	5.73
462.261	5.72
462.464	5.72
462.668	5.71
462.871	5.65
463.074	5.74
463.277	5.63
463.48	5.69
463.683	5.97
463.886	6.07
464.089	6.29
464.292	6.08
464.495	5.96
464.698	5.97
464.901	6.04
465.104	6.09
465.306	5.99
465.509	6.17
465.712	6.17
465.915	6
466.118	5.98
466.321	5.92
466.524	5.95
466.726	6.01
466.929	5.95
467.132	5.91
467.335	5.86
467.538	5.92
467.74	5.87
467.943	5.84
468.146	5.78
468.348	5.81
468.551	5.83
468.754	5.89
468.956	5.81
469.159	5.88
469.362	5.91
469.564	5.87
469.767	5.82
469.969	5.82
470.172	5.9
470.375	5.89
470.577	5.72
470.78	5.7
470.982	5.79
471.185	5.73
471.387	5.62
471.59	5.55
471.792	5.58
471.995	5.67
472.197	5.81
472.399	5.64
472.602	5.76
472.804	5.9
473.007	5.91
473.209	5.88
473.411	6.03
473.614	6.12
473.816	6.14
474.018	6.08
474.22	5.85
474.423	5.8
474.625	6.08
474.827	6.02
475.03	5.9
475.232	5.63
475.434	5.55
475.636	5.45
475.838	5.42
476.04	5.43
476.243	5.73
476.445	5.98
476.647	5.95
476.849	5.7
477.051	5.71
477.253	5.68
477.455	5.87
477.657	6.02
477.859	6.02
478.061	5.96
478.263	5.89
478.465	5.63
478.667	5.62
478.869	5.55
479.071	5.61
479.273	5.62
479.475	5.58
479.677	5.6
479.879	5.53
480.081	5.45
480.283	5.45
480.485	5.56
480.686	5.59
480.888	5.42
481.09	5.31
481.292	5.31
481.494	5.34
481.695	5.43
481.897	5.38
482.099	5.42
482.301	5.58
482.502	5.61
482.704	5.62
482.906	5.62
483.107	5.73
483.309	5.74
483.511	5.71
483.712	5.71
483.914	5.71
484.115	5.77
484.317	5.75
484.519	5.69
484.72	5.7
484.922	5.67
485.123	5.67
485.325	5.62
485.526	5.64
485.728	5.65
485.929	5.65
486.131	5.67
486.332	5.52
486.534	5.54
486.735	5.58
486.936	5.58
487.138	5.57
487.339	5.59
487.541	5.69
487.742	5.63
487.943	5.66
488.144	5.69
488.346	5.71
488.547	5.8
488.748	5.82
488.95	5.75
489.151	5.71
489.352	5.72
489.553	5.71
489.755	5.63
489.956	5.77
490.157	5.81
490.358	5.73
490.559	5.71
490.76	5.74
490.961	5.71
491.163	5.73
491.364	5.81
491.565	5.78
491.766	5.77
491.967	5.74
492.168	5.72
492.369	5.65
492.57	5.66
492.771	5.73
492.972	5.69
493.173	5.7
493.374	5.78
493.575	5.76
493.776	5.77
493.976	5.85
494.177	5.9
494.378	5.82
494.579	5.87
494.78	5.85
494.981	5.7
495.182	5.76
495.382	5.74
495.583	5.83
495.784	5.8
495.985	5.86
496.185	5.73
496.386	5.79
496.587	5.81
496.788	5.77
496.988	5.91
497.189	6.03
497.39	6.14
497.59	6.17
497.791	6.14
497.992	6.23
498.192	6.24
498.393	6.29
498.593	6.22
498.794	6.12
498.994	6.25
499.195	6.11
499.395	6.03
499.596	5.86
499.796	5.83
499.997	5.9
500.197	5.89
500.398	5.84
500.598	5.84
500.799	5.87
500.999	6.1
501.199	6.09
501.4	6.13
501.6	6.1
501.801	6.21
502.001	6.26
502.201	6.2
502.402	6.12
502.602	6.31
502.802	6.48
503.002	6.55
503.203	6.5
503.403	6.29
503.603	6.38
503.803	6.54
504.003	6.58
504.204	6.46
504.404	6.39
504.604	6.4
504.804	6.21
505.004	6.07
505.204	6.06
505.404	6.07
505.604	6.27
505.804	6.28
506.005	6.22
506.205	6.15
506.405	6.23
506.605	6.22
506.805	6.19
507.005	6.26
507.204	6.38
507.404	6.42
507.604	6.45
507.804	6.37
508.004	6.43
508.204	6.51
508.404	6.47
508.604	6.5
508.804	6.61
509.003	6.74
509.203	6.76
509.403	6.64
509.603	6.61
509.803	6.57
510.002	6.49
510.202	6.42
510.402	6.43
510.602	6.47
510.801	6.47
511.001	6.43
511.201	6.5
511.4	6.6
511.6	6.66
511.8	6.66
511.999	6.69
512.199	6.86
512.398	6.97
512.598	6.87
512.797	7.11
512.997	7.07
513.197	7.03
513.396	6.96
513.596	6.89
513.795	6.87
513.994	6.93
514.194	6.97
514.393	6.78
514.593	6.68
514.792	6.73
514.992	6.64
515.191	6.78
515.39	6.86
515.59	6.84
515.789	6.91
515.988	7.12
516.188	7.12
516.387	7.27
516.586	7.36
516.786	7.52
516.985	7.57
517.184	7.56
517.383	7.52
517.582	7.63
517.782	7.61
517.981	7.53
518.18	7.44
518.379	7.41
518.578	7.4
518.777	7.51
518.976	7.36
519.176	7.29
519.375	7.28
519.574	7.27
519.773	7.1
519.972	7.17
520.171	7.24
520.37	7.31
520.569	7.39
520.768	7.24
520.967	7.19
521.166	7.22
521.365	7.25
521.564	7.19
521.762	7.25
521.961	7.31
522.16	7.31
522.359	7.42
522.558	7.44
522.757	7.45
522.956	7.54
523.154	7.75
523.353	7.8
523.552	7.83
523.751	8.03
523.949	8.05
524.148	8.08
524.347	8.18
524.546	8.1
524.744	8.02
524.943	7.9
525.142	7.95
525.34	7.88
525.539	7.89
525.737	7.95
525.936	7.87
526.135	7.88
526.333	7.91
526.532	7.85
526.73	7.9
526.929	7.9
527.127	7.92
527.326	7.91
527.524	7.92
527.723	7.96
527.921	7.98
528.12	8.03
528.318	8.01
528.516	8.08
528.715	8.1
528.913	8.09
529.112	8.15
529.31	8.22
529.508	8.23
529.707	8.22
529.905	8.23
530.103	8.24
530.301	8.2
530.5	8.2
530.698	8.16
530.896	8.17
531.094	8.13
531.293	8.18
531.491	8.22
531.689	8.28
531.887	8.31
532.085	8.37
532.283	8.47
532.481	8.6
532.68	8.66
532.878	8.65
533.076	8.62
533.274	8.74
533.472	8.73
533.67	8.75
533.868	8.8
534.066	8.9
534.264	8.94
534.462	8.95
534.66	8.93
534.858	8.93
535.056	8.99
535.253	9.12
535.451	9.16
535.649	9.26
535.847	9.37
536.045	9.4
536.243	9.36
536.441	9.33
536.638	9.31
536.836	9.35
537.034	9.52
537.232	9.56
537.43	9.51
537.627	9.51
537.825	9.51
538.023	9.44
538.22	9.4
538.418	9.43
538.616	9.33
538.813	9.42
539.011	9.41
539.209	9.31
539.406	9.36
539.604	9.39
539.801	9.32
539.999	9.3
540.196	9.29
540.394	9.36
540.591	9.4
540.789	9.49
540.986	9.52
541.184	9.6
541.381	9.67
541.579	9.75
541.776	9.8
541.974	9.83
542.171	9.93
542.368	9.98
542.566	10.03
542.763	10.15
542.96	10.27
543.158	10.28
543.355	10.35
543.552	10.37
543.75	10.37
543.947	10.43
544.144	10.57
544.341	10.56
544.539	10.64
544.736	10.74
544.933	10.74
545.13	10.76
545.327	10.86
545.524	10.66
545.722	10.73
545.919	10.81
546.116	10.81
546.313	10.94
546.51	10.98
546.707	10.98
546.904	10.97
547.101	11.04
547.298	11.1
547.495	11.21
547.692	11.51
547.889	11.54
548.086	11.55
548.283	11.64
548.48	11.44
548.677	11.44
548.874	11.46
549.07	11.48
549.267	11.44
549.464	11.4
549.661	11.26
549.858	11.16
550.055	11.23
550.251	11.25
550.448	11.15
550.645	11.32
550.842	11.54
551.038	11.72
551.235	11.78
551.432	11.83
551.628	11.89
551.825	11.92
552.022	12.06
552.218	12.21
552.415	12.35
552.612	12.55
552.808	12.67
553.005	12.53
553.201	12.51
553.398	12.68
553.594	12.59
553.791	12.65
553.987	12.81
554.184	12.87
554.38	12.83
554.577	12.89
554.773	12.92
554.97	12.88
555.166	13.06
555.362	13.27
555.559	13.17
555.755	13.48
555.952	13.72
556.148	13.73
556.344	13.64
556.541	13.79
556.737	13.88
556.933	14
557.129	14.12
557.326	14.19
557.522	14.12
557.718	14.28
557.914	14.34
558.11	14.22
558.307	14.19
558.503	14.45
558.699	14.47
558.895	14.61
559.091	14.64
559.287	14.66
559.483	14.71
559.679	14.96
559.876	15
560.072	14.91
560.268	15.23
560.464	15.42
560.66	15.57
560.856	15.7
561.052	15.73
561.247	15.82
561.443	16.21
561.639	16.28
561.835	16.1
562.031	16.06
562.227	16.31
562.423	16.19
562.619	16.07
562.815	15.97
563.01	15.99
563.206	16.04
563.402	16.09
563.598	15.87
563.793	16.03
563.989	16.03
564.185	16.22
564.381	16.25
564.576	16.45
564.772	16.65
564.968	16.6
565.163	16.66
565.359	16.65
565.555	16.71
565.75	16.94
565.946	16.88
566.141	17.08
566.337	17.25
566.532	17.26
566.728	17.23
566.923	17.28
567.119	17.56
567.314	17.42
567.51	17.46
567.705	17.47
567.901	17.3
568.096	17.3
568.292	17.45
568.487	17.29
568.682	17.38
568.878	17.53
569.073	17.74
569.268	17.63
569.464	17.94
569.659	18.2
569.854	18.45
570.05	18.55
570.245	18.97
570.44	19.01
570.635	18.95
570.831	19.13
571.026	19.19
571.221	19.19
571.416	19.36
571.611	19.36
571.806	19.21
572.002	19.13
572.197	19.23
572.392	19.1
572.587	19.24
572.782	19.55
572.977	19.4
573.172	19.47
573.367	19.46
573.562	19.57
573.757	19.65
573.952	19.83
574.147	19.97
574.342	20
574.537	20.16
574.732	20.25
574.927	20.26
575.121	20.51
575.316	20.51
575.511	20.66
575.706	20.76
575.901	20.8
576.096	20.89
576.29	21
576.485	20.97
576.68	20.9
576.875	20.78
577.069	21
577.264	21.17
577.459	21.36
577.654	21.56
577.848	21.64
578.043	21.8
578.238	21.72
578.432	21.87
578.627	22.07
578.821	22.24
579.016	22.35
579.21	22.31
579.405	22.17
579.6	22.16
579.794	22.07
579.989	22.19
580.183	22.24
580.378	22.49
580.572	22.23
580.766	22.35
580.961	22.38
581.155	22.5
581.35	22.47
581.544	22.5
581.738	22.3
581.933	22.57
582.127	22.39
582.321	22.31
582.516	22.27
582.71	22.41
582.904	22.32
583.099	22.36
583.293	22.54
583.487	22.59
583.681	22.84
583.875	23.03
584.07	22.9
584.264	22.81
584.458	22.8
584.652	22.68
584.846	23.04
585.04	23.53
585.234	23.38
585.428	23.46
585.623	23.47
585.817	23.3
586.011	23.32
586.205	23.44
586.399	23.67
586.593	24.01
586.787	24.34
586.981	24.05
587.174	23.81
587.368	23.96
587.562	23.73
587.756	23.86
587.95	23.9
588.144	24.04
588.338	24.05
588.532	24.09
588.725	23.93
588.919	23.74
589.113	24.05
589.307	24.08
589.501	24.3
589.694	24.31
589.888	24.35
590.082	24.46
590.275	24.53
590.469	24.82
590.663	24.72
590.856	24.73
591.05	25.15
591.244	25.06
591.437	25.18
591.631	25.05
591.824	25.18
592.018	25.38
592.212	25.24
592.405	25.35
592.599	25.18
592.792	25.4
592.986	25.61
593.179	25.58
593.372	25.92
593.566	25.71
593.759	26.05
593.953	26.12
594.146	25.99
594.339	26.32
594.533	26.26
594.726	26.18
594.92	26.47
595.113	26.64
595.306	26.47
595.499	26.39
595.693	26.71
595.886	26.72
596.079	26.78
596.272	26.78
596.466	26.66
596.659	26.79
596.852	26.83
597.045	26.64
597.238	26.44
597.431	26.73
597.624	26.73
597.818	26.67
598.011	26.53
598.204	26.69
598.397	26.6
598.59	26.89
598.783	26.76
598.976	26.83
599.169	26.96
599.362	27.05
599.555	26.78
599.748	26.78
599.941	26.86
600.134	27.03
600.326	27
600.519	27.39
600.712	27.14
600.905	27.19
601.098	27.22
601.291	27.12
601.483	27.24
601.676	27.39
601.869	27.47
602.062	27.39
602.255	27.38
602.447	27.25
602.64	27.08
602.833	27.32
603.025	27.57
603.218	27.68
603.411	27.66
603.603	27.71
603.796	27.91
603.989	27.9
604.181	28.12
604.374	28.1
604.566	28.16
604.759	28.35
604.951	28.19
605.144	28.1
605.336	28.05
605.529	28.01
605.721	28.21
605.914	27.99
606.106	27.9
606.299	27.84
606.491	27.69
606.683	27.66
606.876	27.69
607.068	27.71
607.26	27.8
607.453	27.83
607.645	27.84
607.837	27.49
608.03	27.61
608.222	27.84
608.414	27.84
608.606	28.01
608.799	28.31
608.991	28.2
609.183	28.28
609.375	28.28
609.567	28.47
609.759	28.76
609.952	29
610.144	29.15
610.336	29.13
610.528	29.27
610.72	29.36
610.912	29.18
611.104	29.37
611.296	29.55
611.488	29.83
611.68	29.86
611.872	29.76
612.064	29.77
612.256	29.8
612.448	29.66
612.64	29.6
612.832	29.58
613.023	29.56
613.215	29.43
613.407	29.38
613.599	29.15
613.791	29.14
613.983	29.27
614.174	29.13
614.366	29.16
614.558	29.47
614.75	29.31
614.941	29.54
615.133	29.74
615.325	29.87
615.516	29.79
615.708	29.89
615.9	29.97
616.091	30.15
616.283	30.41
616.475	30.03
616.666	30.15
616.858	30.36
617.049	30.22
617.241	30.4
617.432	30.23
617.624	30.45
617.815	30.41
618.007	30.2
618.198	30.13
618.39	30.09
618.581	30.28
618.773	30.18
618.964	30.36
619.155	30.4
619.347	30.28
619.538	30.51
619.729	30.24
619.921	30.44
620.112	30.59
620.303	30.67
620.494	30.75
620.686	30.81
620.877	30.62
621.068	30.6
621.259	30.8
621.451	30.78
621.642	30.81
621.833	31.15
622.024	31.22
622.215	31.16
622.406	31
622.597	30.89
622.788	31.01
622.98	31.33
623.171	31.38
623.362	31.25
623.553	31.28
623.744	31.13
623.935	31.18
624.126	31.05
624.317	31.18
624.508	31.35
624.698	31.48
624.889	31.62
625.08	31.71
625.271	31.58
625.462	31.64
625.653	31.6
625.844	31.68
626.034	31.91
626.225	32.03
626.416	32.21
626.607	32.21
626.798	32.07
626.988	32.13
627.179	32.2
627.37	32.32
627.56	32.42
627.751	32.7
627.942	32.85
628.132	32.43
628.323	32.38
628.514	32.41
628.704	32.35
628.895	32.42
629.085	32.3
629.276	32.14
629.466	32.13
629.657	31.79
629.847	31.59
630.038	31.3
630.228	31.38
630.419	31.51
630.609	31.2
630.8	31.33
630.99	31.51
631.181	31.39
631.371	31.67
631.561	31.57
631.752	31.84
631.942	31.91
632.132	31.85
632.323	32.16
632.513	32.02
632.703	32.2
632.893	32.23
633.084	32.2
633.274	32.54
633.464	32
633.654	32.15
633.844	32.26
634.034	32.27
634.225	32.44
634.415	32.29
634.605	32.13
634.795	32.3
634.985	32.19
635.175	32.2
635.365	32.13
635.555	32.73
635.745	32.63
635.935	32.8
636.125	32.93
636.315	32.99
636.505	33.33
636.695	33.61
636.885	33.17
637.075	33.5
637.265	33.58
637.455	33.61
637.644	33.39
637.834	33.58
638.024	33.42
638.214	33.24
638.404	33.76
638.593	33.5
638.783	33.6
638.973	34.35
639.163	34.03
639.352	34.27
639.542	34.29
639.732	33.95
639.921	34.26
640.111	34.51
640.301	34.76
640.49	34.61
640.68	34.72
640.87	34.51
641.059	33.94
641.249	34.3
641.438	34.24
641.628	34.17
641.817	34.74
642.007	34.66
642.196	34.49
642.386	34.05
642.575	34.08
642.764	34.18
642.954	34.42
643.143	34.85
643.333	34.53
643.522	34.29
643.711	34.38
643.901	34.41
644.09	34.19
644.279	34.14
644.469	34.9
644.658	34.7
644.847	34.16
645.036	34.09
645.226	34.12
645.415	34.38
645.604	34.53
645.793	34.56
645.982	34.36
646.171	34.37
646.361	34.38
646.55	34.16
646.739	34.31
646.928	35
647.117	34.88
647.306	34.91
647.495	35.03
647.684	34.91
647.873	34.83
648.062	35.03
648.251	34.5
648.44	34.6
648.629	34.78
648.818	34.57
649.007	34.44
649.196	34.56
649.384	34.7
649.573	34.79
649.762	35.17
649.951	35.21
650.14	35.17
650.328	35.78
650.517	35.67
650.706	35.69
650.895	35.91
651.083	35.85
651.272	35.53
651.461	35.4
651.65	35.51
651.838	35.12
652.027	35.2
652.216	35.3
652.404	35.18
652.593	35.09
652.781	35.01
652.97	35.16
653.158	35.08
653.347	35.81
653.535	35.45
653.724	35.41
653.912	35.65
654.101	35.74
654.289	35.56
654.478	35.53
654.666	35.75
654.855	35.77
655.043	35.58
655.231	35.95
655.42	35.83
655.608	35.87
655.796	35.43
655.985	35.36
656.173	35.25
656.361	35.5
656.55	35.82
656.738	36.04
656.926	36.24
657.114	35.88
657.302	35.46
657.491	35.59
657.679	35.85
657.867	36.25
658.055	36.45
658.243	36.93
658.431	36.61
658.619	36.65
658.807	36.57
658.996	36.39
659.184	36.59
659.372	36.85
659.56	36.71
659.748	36.89
659.936	36.8
660.124	36.82
660.311	36.6
660.499	36.8
660.687	36.77
660.875	36.86
661.063	37
661.251	37.11
661.439	37.49
661.627	37.54
661.814	37.14
662.002	37.27
662.19	37.16
662.378	37.17
662.565	37.02
662.753	36.93
662.941	36.55
663.129	36.49
663.316	36.89
663.504	36.42
663.692	36.47
663.879	36.97
664.067	36.96
664.254	37.03
664.442	36.65
664.63	37.1
664.817	37.38
665.005	37.72
665.192	37.83
665.38	37.74
665.567	37.76
665.755	37.68
665.942	37.8
666.13	37.78
666.317	37.73
666.504	37.94
666.692	37.94
666.879	37.84
667.067	37.93
667.254	37.67
667.441	37.83
667.629	37.61
667.816	37.53
668.003	37.18
668.19	37.54
668.378	37.87
668.565	38.12
668.752	37.56
668.939	37.37
669.127	37.76
669.314	37.92
669.501	37.59
669.688	37.77
669.875	38.22
670.062	38.51
670.249	38.5
670.436	38.29
670.623	38.01
670.81	38.64
670.997	39.4
671.184	38.75
671.371	38.85
671.558	39.16
671.745	39.4
671.932	39.02
672.119	39.39
672.306	39.05
672.493	39.41
672.68	39.87
672.867	39.7
673.054	39.18
673.24	39.32
673.427	39.41
673.614	39.12
673.801	38.99
673.988	39.15
674.174	38.29
674.361	38.13
674.548	37.8
674.734	37.18
674.921	37.16
675.108	37.33
675.294	37.72
675.481	37.76
675.668	37.84
675.854	37.56
676.041	37.25
676.227	38.1
676.414	38.12
676.601	38.3
676.787	39.27
676.974	39.37
677.16	39.12
677.347	38.8
677.533	38.9
677.719	38.89
677.906	39.4
678.092	39.69
678.279	39.42
678.465	39.83
678.651	39.86
678.838	39.4
679.024	39.13
679.21	39.26
679.397	39.73
679.583	39.48
679.769	39.68
679.955	39.7
680.142	40.09
680.328	39.88
680.514	39.91
680.7	40.04
680.886	40.33
681.073	40.99
681.259	40.87
681.445	40.69
681.631	40.92
681.817	40.62
682.003	40.54
682.189	40.32
682.375	40.84
682.561	40.69
682.747	40.92
682.933	40.79
683.119	40.23
683.305	40.76
683.491	40.88
683.677	41.05
683.863	41.51
684.049	41.76
684.235	41.45
684.42	40.96
684.606	40.82
684.792	40.63
684.978	40.96
685.164	41.2
685.349	40.61
685.535	40.74
685.721	40.52
685.907	40.37
686.092	40.25
686.278	40.26
686.464	40.54
686.649	40.92
686.835	41
687.021	40.67
687.206	40.41
687.392	40.86
687.577	40.49
687.763	40.65
687.948	40.88
688.134	40.71
688.319	41.08
688.505	41.33
688.69	40.85
688.876	40.69
689.061	40.53
689.247	40.8
689.432	40.89
689.618	40.9
689.803	40.89
689.988	41.03
690.174	41.22
690.359	40.85
690.544	40.82
690.73	41.43
690.915	41.47
691.1	41.51
691.285	41.5
691.471	41.16
691.656	41.53
691.841	41.22
692.026	41.03
692.211	40.98
692.396	41.26
692.582	41.27
692.767	40.87
692.952	40.69
693.137	41.02
693.322	41.16
693.507	41.38
693.692	41.21
693.877	41.53
694.062	41.44
694.247	41.51
694.432	41.6
694.617	41.76
694.802	41.69
694.987	41.86
695.172	42.26
695.357	42.52
695.541	42.3
695.726	42.41
695.911	42.82
696.096	43.29
696.281	43.14
696.466	43.09
696.65	42.67
696.835	42.99
697.02	42.94
697.204	42.92
697.389	42.84
697.574	42.99
697.759	42.87
697.943	42.62
698.128	42.35
698.312	42.5
698.497	42.84
698.682	42.97
698.866	43.05
699.051	43
699.235	42.56
699.42	42.56
699.604	42.88
699.789	42.87
699.973	42.88
700.158	42.83
700.342	42.48
700.527	42.38
700.711	42.49
700.895	42.63
701.08	42.67
701.264	42.97
701.448	42.65
701.633	42.44
701.817	42.56
702.001	42.57
702.186	42.88
702.37	43.66
702.554	43.56
702.738	43.4
702.923	42.97
703.107	42.92
703.291	42.91
703.475	42.85
703.659	43.1
703.843	43.4
704.027	43.34
704.212	42.96
704.396	42.53
704.58	42.7
704.764	42.62
704.948	42.79
705.132	43.36
705.316	43.44
705.5	43.48
705.684	42.69
705.868	42.33
706.052	42.28
706.235	42.82
706.419	42.65
706.603	42.69
706.787	42.33
706.971	42.1
707.155	41.85
707.339	41.78
707.522	42.09
707.706	42.53
707.89	42.93
708.074	43.09
708.257	43.23
708.441	43.28
708.625	42.81
708.808	43.5
708.992	43.58
709.176	43.72
709.359	43.69
709.543	43.48
709.727	43.19
709.91	43.34
710.094	43.37
710.277	42.52
710.461	42.67
710.644	43.24
710.828	43.17
711.011	43.33
711.195	43.48
711.378	43.71
711.562	44.06
711.745	44.24
711.928	43.9
712.112	43.75
712.295	43.83
712.478	44.1
712.662	43.42
712.845	43.98
713.028	43.67
713.212	43.38
713.395	43.27
713.578	42.9
713.761	43.44
713.945	44.05
714.128	44.32
714.311	45.61
714.494	45.66
714.677	46.02
714.86	45.59
715.043	45.9
715.227	45.83
715.41	45.86
715.593	46.47
715.776	46.32
715.959	45.91
716.142	45.6
716.325	44.46
716.508	44.37
716.691	44.55
716.874	44.45
717.057	45.34
717.239	45.62
717.422	45.69
717.605	45.01
717.788	44.85
717.971	44.46
718.154	45.24
718.337	46
718.519	45.87
718.702	45.9
718.885	45.55
719.068	45.35
719.25	44.99
719.433	45.17
719.616	45.7
719.798	45.74
719.981	46.19
720.164	46.36
720.346	45.61
720.529	45.15
720.712	45.18
720.894	45.23
721.077	44.26
721.259	44.37
721.442	44.49
721.624	44.59
721.807	44.28
721.989	43.6
722.172	43.31
722.354	43.76
722.537	44.12
722.719	44.47
722.901	44.47
723.084	44.25
723.266	44
723.448	42.85
723.631	42.52
723.813	43.51
723.995	43.54
724.178	43.1
724.36	43.32
724.542	43.96
724.724	43.89
724.907	44.27
725.089	44.99
725.271	45.89
725.453	46.72
725.635	47.07
725.817	46.91
725.999	47.25
726.181	47.27
726.364	47.42
726.546	46.88
726.728	46.48
726.91	46.52
727.092	46.29
727.274	45.58
727.456	45.67
727.638	45.37
727.819	45.38
728.001	46
728.183	46.08
728.365	45.7
728.547	46.06
728.729	46.47
728.911	45.91
729.093	45.46
729.274	45.57
729.456	45.61
729.638	46.66
729.82	46.4
730.001	45.89
730.183	46.26
730.365	46.38
730.546	47.21
730.728	47.06
730.91	47.66
731.091	47.81
731.273	48.06
731.455	48.6
731.636	47.61
731.818	47.33
731.999	47.45
732.181	47.02
732.362	46.86
732.544	46.66
732.725	46.86
732.907	47.49
733.088	48.39
733.27	48.47
733.451	48.06
733.633	48.85
733.814	49.39
733.995	49.21
734.177	49.96
734.358	49.85
734.539	48.67
734.721	48.62
734.902	48.41
735.083	48.14
735.264	48.32
735.446	48.71
735.627	48.28
735.808	48.07
735.989	49.02
736.17	48.28
736.351	48.92
736.533	49.29
736.714	48.6
736.895	48.11
737.076	48.85
737.257	48.65
737.438	48.07
737.619	47.46
737.8	46.98
737.981	46.41
738.162	46.99
738.343	46.04
738.524	46.1
738.705	46.66
738.886	46.85
739.067	46.56
739.247	46.43
739.428	46.38
739.609	47.12
739.79	47.12
739.971	47.43
740.151	46.66
740.332	47.49
740.513	47.83
740.694	46.77
740.874	46.2
741.055	45.61
741.236	45.16
741.417	45.06
741.597	45.37
741.778	45.98
741.958	44.98
742.139	45.65
742.32	45.79
742.5	45.07
742.681	46.02
742.861	46.82
743.042	46.42
743.222	46.98
743.403	47.01
743.583	46.23
743.764	45.98
743.944	46.21
744.124	45.67
744.305	45.33
744.485	46.55
744.666	46.46
744.846	45.58
745.026	45.7
745.207	44.93
745.387	45.12
745.567	45.27
745.747	45.28
745.928	46.02
746.108	45.8
746.288	45.79
746.468	45.13
746.648	45.02
746.829	43.96
747.009	44.13
747.189	44.49
747.369	44.68
747.549	44.14
747.729	44.79
747.909	44.63
748.089	44.5
748.269	44.25
748.449	43.78
748.629	44.34
748.809	46
748.989	46.76
749.169	47.22
749.349	47.57
749.529	48.67
749.709	48.44
749.889	48.49
750.068	48.41
750.248	48.82
750.428	49.96
750.608	49.46
750.788	49.17
750.967	48.75
751.147	49.09
751.327	48.73
751.507	48.66
751.686	48.98
751.866	49.55
752.046	50.88
752.225	49.86
752.405	49.83
752.585	50.31
752.764	50.96
752.944	50.58
753.123	50.06
753.303	49.65
753.482	49.28
753.662	48.55
753.841	48.22
754.021	48.02
754.2	49.42
754.38	48.56
754.559	48.21
754.739	47.09
754.918	47.3
755.097	47.35
755.277	47.4
755.456	47.17
755.635	46.45
755.815	45.94
755.994	44.72
756.173	43.31
756.352	44.45
756.532	44.78
756.711	44.33
756.89	44.94
757.069	44.85
757.248	45.39
757.427	45.64
757.607	45.73
757.786	45.47
757.965	46.12
758.144	46.83
758.323	46.39
758.502	47.03
758.681	47.69
758.86	46.01
759.039	46.61
759.218	46.55
759.397	46.79
759.576	48.1
759.755	48.74
759.934	48.41
760.113	48.84
760.291	48.74
760.47	48.07
760.649	47.96
760.828	48.81
761.007	48.51
761.186	48.59
761.364	47.77
761.543	48.12
761.722	47.94
761.901	48.88
762.079	48.06
762.258	48.86
762.437	48.68
762.615	49.79
762.794	50.65
762.972	50.9
763.151	50.09
763.33	50.17
763.508	49.17
763.687	49.31
763.865	48.73
764.044	49.12
764.222	48.37
764.401	48.17
764.579	47.79
764.758	47
764.936	46.59
765.114	47.23
765.293	48.21
765.471	48.48
765.65	48.06
765.828	48.96
766.006	48.07
766.184	47.5
766.363	47.7
766.541	47.81
766.719	48.68
766.898	48.37
767.076	48.22
767.254	47.17
767.432	47.29
767.61	47.52
767.788	47.05
767.967	48.85
768.145	49.65
768.323	49.92
768.501	50.2
768.679	49.02
768.857	49.3
769.035	50.22
769.213	49.96
769.391	49.11
769.569	50.7
769.747	50.9
769.925	51.22
770.103	50.35
770.281	49.79
770.459	50.46
770.636	51.41
770.814	53.07
770.992	52.62
771.17	52.69
771.348	52.96
771.525	52.33
771.703	52.15
771.881	51.35
772.059	52.6
772.236	51.97
772.414	51.58
772.592	50.74
772.769	49.5
772.947	48.98
773.125	50.79
773.302	50.94
773.48	50.16
773.657	49.31
773.835	49.25
774.013	49.28
774.19	50.76
774.368	50.35
774.545	50.16
774.723	48.03
774.9	47.42
775.077	45.37
775.255	45.97
775.432	45.62
775.61	43.91
775.787	44.42
775.964	44.47
776.142	45.34
776.319	45.46
776.496	46.38
776.674	48.69
776.851	50.09
777.028	50.34
777.205	49.6
777.382	50.26
777.56	52.97
777.737	53.18
777.914	51.2
778.091	49.49
778.268	50.13
778.445	49.3
778.622	49.54
778.8	49.49
778.977	49.75
779.154	58.34
779.331	58.33
779.508	58.56
779.685	57.95
779.862	60.19
780.038	59.79
780.215	58.11
780.392	59.36
780.569	59.86
780.746	60.12
780.923	60.22
781.1	52.03
781.277	52.02
781.453	50.3
781.63	50.18
781.807	49.98
781.984	50.77
782.16	50.91
782.337	51.44
782.514	50.5
782.691	49.5
782.867	47.92
783.044	47.69
783.221	49.43
783.397	52.08
783.574	51.23
783.75	50.64
783.927	50.78
784.103	51.29
784.28	50.13
784.456	50.03
784.633	49.61
784.809	51.19
784.986	51.25
785.162	48.01
785.339	44.75
785.515	44.96
785.692	46.32
785.868	47.53
786.044	45.75
786.221	44.32
786.397	44.94
786.573	45.2
786.749	46.41
786.926	46.13
787.102	47.44
787.278	48.61
787.454	50.2
787.631	47.97
787.807	46.58
787.983	48.17
788.159	48.94
788.335	48.98
788.511	49.11
788.687	48.67
788.863	50.97
789.039	51.09
789.216	50.14
789.392	47.72
789.568	48.76
789.744	48.13
789.919	47.43
790.095	48.18
790.271	46.88
790.447	46.33
790.623	45.21
790.799	43.15
790.975	42.14
791.151	42.06
791.327	43.63
791.502	43.88
791.678	44.34
791.854	44.9
792.03	44.35
792.205	44.93
792.381	46.89
792.557	48.28
792.733	49.1
792.908	47.68
793.084	49.32
793.259	48.38
793.435	47.78
793.611	47.15
793.786	45.89
793.962	46
794.137	46.67
794.313	44.38
794.488	45.72
794.664	45.58
794.839	49.75
795.015	49.56
795.19	50.77
795.366	53.98
795.541	54.2
795.716	55.32
795.892	54.09
796.067	52.52
796.242	53.23
796.418	50.98
796.593	50.8
796.768	49.98
796.944	49.3
797.119	48.59
797.294	47.72
797.469	48.83
797.644	50.02
797.82	51.27
797.995	52.16
798.17	51.97
798.345	52.03
798.52	51.14
798.695	50.14
798.87	49.51
799.045	49.9
799.22	48.93
799.395	48.47
799.57	48.66
799.745	50.55
799.92	50.87
800.095	51.74
800.27	53.09
800.445	52.45
800.62	52.5
800.795	53.41
800.97	53.19
801.145	53.38
801.319	53.32
801.494	51.73
801.669	50.5
801.844	51.37
802.018	51.87
802.193	51.36
802.368	51.54
802.543	50.93
802.717	50.77
802.892	51.58
803.067	48.4
803.241	47.99
803.416	48.31
803.59	47.76
803.765	48.83
803.94	46.57
804.114	45.2
804.289	45.11
804.463	46.53
804.638	47.19
804.812	47.11
804.986	50.65
805.161	50.64
805.335	50.44
805.51	49.9
805.684	47.45
805.858	47.92
806.033	48.37
806.207	49.39
806.381	49.01
806.556	49.33
806.73	48.14
806.904	47.88
807.078	47.21
807.253	47.21
807.427	45.67
807.601	45.91
807.775	45.81
807.949	47.13
808.123	45.83
808.298	45.56
808.472	42.57
808.646	43.9
808.82	43.43
808.994	47.81
809.168	47.76
809.342	47.41
809.516	48.68
809.69	48.35
809.864	47.55
810.038	50.5
810.212	51.14
810.385	52.88
810.559	53
810.733	53.61
810.907	52.28
811.081	51.18
811.255	54.12
811.428	52.65
811.602	53
811.776	54.5
811.95	52.79
812.123	50.8
812.297	49.67
812.471	48.72
812.644	47.95
812.818	47.34
812.992	48.46
813.165	48.34
813.339	46.93
813.512	46.67
813.686	48.6
813.86	50.94
814.033	52.95
814.207	55.25
814.38	55.54
814.554	56.29
814.727	58.37
814.9	56.67
815.074	53.33
815.247	53.86
815.421	55.01
815.594	51.82
815.767	49.72
815.941	49.66
816.114	50.03
816.287	47.77
816.46	46.37
816.634	43.49
816.807	46.42
816.98	51.56
817.153	52.84
817.327	55.33
817.5	55.01
817.673	55.76
817.846	57.81
818.019	58.87
818.192	61.39
818.365	60.35
818.538	61.06
818.711	58.98
818.884	57.39
819.057	57.49
819.23	55.22
819.403	53.87
819.576	52.92
819.749	51.39
819.922	49.66
820.095	51.44
820.268	53.08
820.441	52.67
820.614	52.83
820.786	51.94
820.959	53.26
821.132	53.61
821.305	55.2
821.477	55.14
821.65	55.26
821.823	55.11
821.996	53.35
822.168	53.51
822.341	53.05
822.514	52.85
822.686	52.56
822.859	51.82
823.031	51.78
823.204	51.42
823.376	51.55
823.549	50.91
823.722	50.37
823.894	50.65
824.067	50.34
824.239	50.1
824.411	49.72
824.584	49.56
824.756	50
824.929	49.71
825.101	50
825.273	49.62
825.446	49.99
825.618	49.9
825.79	49.77
825.963	49.87
826.135	50.07
826.307	50.92
826.479	50.94
826.652	49.98
826.824	49.59
826.996	48.75
827.168	48.87
827.34	48.95
827.512	49.32
827.684	49.4
827.856	48.82
828.029	48.54
828.201	47.52
828.373	48.34
828.545	49.18
828.717	49.01
828.889	49.41
829.061	49.35
829.232	49.29
829.404	49.65
829.576	49.85
829.748	50.33
829.92	51.35
830.092	52.39
830.264	53.07
830.436	52.5
830.607	53.26
830.779	53.32
830.951	53.08
831.123	53.41
831.294	54.28
831.466	53.77
831.638	53.43
831.809	53.95
831.981	55.4
832.153	53.83
832.324	53.79
832.496	53.04
832.667	53.95
832.839	55.28
833.011	55.25
833.182	52.5
833.354	52.26
833.525	53.59
833.697	50.96
833.868	50.06
834.039	49.23
834.211	50.64
834.382	50.99
834.554	50.15
834.725	50.32
834.896	50.16
835.068	50.3
835.239	51.52
835.41	50.96
835.581	52.07
835.753	50.95
835.924	51.49
836.095	49.84
836.266	49.69
836.438	48.38
836.609	49.99
836.78	50.07
836.951	51.64
837.122	48.72
837.293	49.14
837.464	51.22
837.635	52.87
837.806	54.27
837.977	52.6
838.148	55.32
838.319	55.46
838.49	52.49
838.661	51.43
838.832	52.54
839.003	55.98
839.174	53.04
839.345	48.45
839.516	45.8
839.687	43.71
839.857	46.71
840.028	43.49
840.199	45.95
840.37	45.66
840.54	43.82
840.711	43.99
840.882	42.76
841.053	44.65
841.223	46.44
841.394	47.12
841.564	48.39
841.735	49.03
841.906	50.03
842.076	54.15
842.247	54.77
842.417	54.41
842.588	55.28
842.758	58.91
842.929	60.34
843.099	59.51
843.27	59.21
843.44	58.69
843.611	57.31
843.781	52.12
843.951	50.16
844.122	47.54
844.292	48.91
844.462	46.49
844.633	41.7
844.803	42.12
844.973	41.69
845.144	47.12
845.314	47.65
845.484	49.54
845.654	56.39
845.824	57.25
845.995	55.98
846.165	58.28
846.335	56.58
846.505	56.52
846.675	58.26
846.845	58.46
847.015	54.03
847.185	54.55
847.355	59.63
847.525	64
847.695	61.45
847.865	65.72
848.035	65.55
848.205	66.55
848.375	69.77
848.545	62.64
848.715	63.11
848.884	66.85
849.054	71.32
849.224	65.58
849.394	60.75
849.564	60.22
849.733	63.59
849.903	65.25
850.073	61.69
850.243	62.32
850.412	62.02
850.582	58.63
850.752	50.45
850.921	43.17
851.091	45.12
851.26	42.71
851.43	37.27
851.599	35.13
851.769	30.54
851.939	33.8
852.108	32.73
852.278	38.58
852.447	44.75
852.616	54.31
852.786	58.97
852.955	54.42
853.125	53.67
853.294	61.51
853.463	60.19
853.633	73.94
853.802	79.74
853.971	84.8
854.141	92.64
854.31	91.87
854.479	67.68
854.648	56.77
854.818	66.15
854.987	58.28
855.156	72.58
855.325	71.24
855.494	70.04
855.663	69.09
855.832	66.43
856.001	61.27
856.171	63.57
856.34	74.76
856.509	78.22
856.678	77.66
856.847	87.14
857.016	78.4
857.185	69.33
857.353	67.74
857.522	58.75
857.691	48.01
857.86	53.08
858.029	60.2
858.198	50.88
858.367	52.89
858.535	45.67
858.704	42.78
858.873	38.43
859.042	49.09
859.21	52.6
859.379	60.81
859.548	68.46
859.717	67.83
859.885	60.83
860.054	61.89
860.222	63.07
860.391	68.34
860.56	60.74
860.728	63.54
860.897	62.05
861.065	55.57
861.234	44.58
861.402	44.19
861.571	39.85
861.739	35.51
861.908	42.32
862.076	38.82
862.244	39.45
862.413	48.18
862.581	46.14
862.749	37.09
862.918	44.5
863.086	54.97
863.254	57.68
863.423	60.95
863.591	72.96
863.759	71.46
863.927	76.83
864.096	68.24
864.264	65.45
864.432	67.56
864.6	72.04
864.768	69.5
864.936	60.69
865.104	53.53
865.272	46.84
865.44	43.74
865.608	48.59
865.776	50.83
865.944	52.48
866.112	52.8
866.28	46.87
866.448	52.8
866.616	52.67
866.784	62.77
866.952	63.42
867.12	71.58
867.288	70.77
867.455	68.44
867.623	63.42
867.791	63.84
867.959	58.28
868.127	62.32
868.294	61.71
868.462	61.7
868.63	58.85
868.797	64.87
868.965	66.99
869.133	54.68
869.3	58.13
869.468	54.91
869.636	54.34
869.803	54.07
869.971	48.27
870.138	47.86
870.306	47.91
870.473	55
870.641	58.29
870.808	46.37
870.975	52.43
871.143	45.68
871.31	49.62
871.478	59.11
871.645	60.2
871.812	62.77
871.98	62.26
872.147	54.58
872.314	42.77
872.482	39.86
872.649	47.81
872.816	46.6
872.983	40.06
873.15	37.23
873.318	26.87
873.485	32.44
873.652	21.75
873.819	21.3
873.986	27.74
874.153	24.24
874.32	23.8
874.487	17.7
874.654	22.5
874.821	35.97
874.988	39.15
875.155	36.96
875.322	39.13
875.489	48.15
875.656	42.42
875.823	42.71
875.99	50.27
876.157	48.56
876.324	55.31
876.49	56.58
876.657	56.6
876.824	54.19
876.991	54.3
877.157	44.98
877.324	47.07
877.491	51
877.658	49.2
877.824	41.07
877.991	48.22
878.157	43.92
878.324	34.66
878.491	25.99
878.657	39.07
878.824	45.01
878.99	61.83
879.157	55.27
879.323	55.7
879.49	58.55
879.656	67.19
879.823	70.66
879.989	75.44
880.156	82.57
880.322	78.42
880.488	71.14
880.655	66.97
880.821	56.82
880.987	63.77
881.154	66.13
881.32	66.26
881.486	60.65
881.652	57.28
881.819	53.82
881.985	52.22
882.151	55.3
882.317	56.89
882.483	56.31
882.649	59.14
882.816	56.11
882.982	56.01
883.148	54.77
883.314	54.71
883.48	54.39
883.646	55.26
883.812	55.71
883.978	55.25
884.144	53.29
884.31	52.81
884.476	52.35
884.642	52.03
884.807	51.01
884.973	50.21
885.139	50.31
885.305	50.08
885.471	50.33
885.637	48.33
885.802	46.77
885.968	47.94
886.134	49.96
886.3	49.15
886.465	49.2
886.631	50.06
886.797	52.13
886.962	50.96
887.128	50.17
887.293	49.31
887.459	52.98
887.625	56.21
887.79	53.45
887.956	50.88
888.121	49.74
888.287	51.12
888.452	49.19
888.618	46.15
888.783	47.62
