Data from LC_273_Reflection_6.txt Node
Date: Sat Nov 21 12:22:52 EST 2015
User: robert
Spectrometer: USB4E03001
Autoset integration time: false
Trigger mode: 4
Integration Time (sec): 1.000000E-1
Scans to average: 15
Electric dark correction enabled: true
Nonlinearity correction enabled: false
Boxcar width: 5
Stray light correction enabled: false
XAxis mode: Wavelengths
Stop averaging: false
Number of Pixels in Spectrum: 3648
>>>>>Begin Spectral Data<<<<<
177.566	-180.02
177.785	-150
178.005	-353.98
178.225	95.96
178.445	165.03
178.665	377.65
178.885	841.75
179.105	493.43
179.324	191.7
179.544	290.13
179.764	1071.45
179.984	139.05
180.204	140.62
180.423	131.08
180.643	110.3
180.863	145.07
181.083	158.54
181.302	156.04
181.522	138.59
181.742	160.75
181.961	149.12
182.181	119.17
182.401	273.3
182.621	232.16
182.84	242.09
183.06	217.09
183.279	165.78
183.499	174.4
183.719	169.89
183.938	171.59
184.158	212.79
184.377	213.24
184.597	215.73
184.816	182.06
185.036	197.47
185.256	185.27
185.475	153.66
185.695	168.71
185.914	155.09
186.134	161.81
186.353	187.48
186.572	164.7
186.792	149.8
187.011	151.52
187.231	156.76
187.45	150.58
187.67	170.32
187.889	194.87
188.108	244.85
188.328	325.85
188.547	354.69
188.766	347.15
188.986	343.14
189.205	587.83
189.424	1261.98
189.644	854.32
189.863	-524.14
190.082	-1087.54
190.302	2188.36
190.521	345.61
190.74	284.8
190.959	354.08
191.178	341.37
191.398	210.8
191.617	250.2
191.836	242.89
192.055	253.03
192.274	185.62
192.494	167.14
192.713	137.47
192.932	142.35
193.151	141.87
193.37	126.3
193.589	116.46
193.808	145.85
194.027	127.92
194.246	117.86
194.465	105.8
194.685	112.47
194.904	113.12
195.123	126.62
195.342	139.96
195.561	156.78
195.78	116.32
195.999	124.81
196.218	127.4
196.436	142.31
196.655	142.04
196.874	137.58
197.093	164.6
197.312	160.07
197.531	199.13
197.75	172.67
197.969	144.77
198.188	173.84
198.407	167.75
198.625	156.18
198.844	154.43
199.063	160.43
199.282	173.13
199.501	176.3
199.719	181.26
199.938	170.37
200.157	166.25
200.376	158.13
200.594	134.6
200.813	136.49
201.032	161.83
201.251	142.87
201.469	156.85
201.688	215.23
201.907	216.38
202.125	176.4
202.344	181.43
202.563	218.61
202.781	269.74
203	292.83
203.218	269.21
203.437	461.16
203.656	860.82
203.874	823.61
204.093	384.61
204.311	310.53
204.53	480.13
204.748	424.9
204.967	450.6
205.185	294.2
205.404	285.62
205.622	689.02
205.841	432.01
206.059	336.68
206.278	351.18
206.496	379.12
206.715	725.56
206.933	418.16
207.151	396.39
207.37	271.42
207.588	388.26
207.806	383.86
208.025	216.46
208.243	210.97
208.461	189.23
208.68	196.24
208.898	237.77
209.116	160.61
209.335	166.26
209.553	155.78
209.771	203.94
209.989	243.25
210.208	242.85
210.426	282.94
210.644	295.21
210.862	534.33
211.081	378.63
211.299	234.13
211.517	291.43
211.735	272.65
211.953	249.79
212.171	179.72
212.39	123.59
212.608	100.73
212.826	114.72
213.044	100.07
213.262	91.5
213.48	105.03
213.698	95.44
213.916	107.64
214.134	119.78
214.352	129.7
214.57	125
214.788	135.19
215.006	157.01
215.224	158.5
215.442	183.25
215.66	197.9
215.878	186.79
216.096	225.98
216.314	197.29
216.532	191.12
216.75	173.9
216.968	203.48
217.185	182.39
217.403	219.35
217.621	220.41
217.839	197.55
218.057	199.67
218.275	184.63
218.492	159.86
218.71	167.11
218.928	194.53
219.146	201.46
219.363	206.96
219.581	392.62
219.799	258.12
220.017	190.87
220.234	199.68
220.452	179.13
220.67	169.99
220.887	194.35
221.105	171.32
221.323	169.42
221.54	151.73
221.758	115.57
221.976	91.61
222.193	108.08
222.411	102.56
222.629	105.35
222.846	116.45
223.064	108.49
223.281	92.05
223.499	102.03
223.716	94.5
223.934	92.96
224.151	95.4
224.369	98.37
224.586	87.37
224.804	91.26
225.021	84.81
225.239	76.88
225.456	78.36
225.674	74.76
225.891	66.76
226.108	62.59
226.326	68.1
226.543	65.81
226.76	60.65
226.978	56.6
227.195	51.82
227.413	48.06
227.63	47.62
227.847	46.12
228.064	38.67
228.282	37.4
228.499	37.27
228.716	33.37
228.934	30.39
229.151	30.79
229.368	30.32
229.585	28.75
229.802	28.61
230.02	25.13
230.237	23.2
230.454	28.75
230.671	27.31
230.888	25.63
231.105	24.75
231.323	28.54
231.54	27.88
231.757	26.15
231.974	30.23
232.191	31.08
232.408	37.82
232.625	39.66
232.842	34.72
233.059	41.3
233.276	46.29
233.493	51.99
233.71	50.56
233.927	51.17
234.144	53.96
234.361	50.4
234.578	50.1
234.795	48.07
235.012	47.7
235.229	47.26
235.446	43.46
235.663	39.03
235.879	34.46
236.096	34.5
236.313	34.43
236.53	30.76
236.747	30.03
236.964	30.99
237.181	29.03
237.397	28.51
237.614	28.38
237.831	26.57
238.048	28.78
238.264	28.33
238.481	27.09
238.698	24.61
238.915	25.75
239.131	19.45
239.348	15.89
239.565	19.95
239.781	22.66
239.998	21.95
240.215	23.85
240.431	19.46
240.648	22.62
240.865	20.77
241.081	17.73
241.298	15.87
241.514	18.28
241.731	17.83
241.947	16.61
242.164	15.28
242.38	13.81
242.597	12.98
242.814	13.69
243.03	13.03
243.246	13.76
243.463	14.65
243.679	16.36
243.896	17.52
244.112	19.36
244.329	21.02
244.545	22.22
244.762	25.24
244.978	25.08
245.194	25.1
245.411	25.59
245.627	24.7
245.843	22.95
246.06	20.7
246.276	19.03
246.492	16.99
246.709	15.29
246.925	15.72
247.141	14.73
247.357	14.55
247.574	14.31
247.79	12.86
248.006	12.81
248.222	12.6
248.439	13.08
248.655	14.06
248.871	14.65
249.087	15.75
249.303	15.39
249.519	15.95
249.736	16.88
249.952	17.86
250.168	20.48
250.384	21.89
250.6	23.53
250.816	23.35
251.032	20.78
251.248	20.52
251.464	20.09
251.68	19.04
251.896	18.76
252.112	17.77
252.328	15.8
252.544	15.25
252.76	15.6
252.976	17.28
253.192	17.56
253.408	19.58
253.624	21.75
253.84	21.74
254.056	21.85
254.272	20.93
254.487	23.11
254.703	26.09
254.919	27.35
255.135	26.5
255.351	24.33
255.567	24
255.782	21.79
255.998	19.95
256.214	18.2
256.43	21.42
256.646	22.33
256.861	17.46
257.077	18.4
257.293	19.4
257.508	18.3
257.724	18.54
257.94	17.99
258.155	17.56
258.371	16.68
258.587	15.09
258.802	13.43
259.018	13.02
259.234	14.61
259.449	13.56
259.665	12.55
259.88	13.01
260.096	12.11
260.312	12.35
260.527	12.83
260.743	12.28
260.958	12.7
261.174	11.79
261.389	12.25
261.605	12.27
261.82	12.73
262.036	13.86
262.251	13.23
262.466	14.71
262.682	13.6
262.897	12.8
263.113	14.27
263.328	15.51
263.543	16.82
263.759	16.63
263.974	16.32
264.189	17.57
264.405	17.23
264.62	20.3
264.835	21.47
265.051	23.29
265.266	24.77
265.481	23.29
265.696	23.69
265.912	23.22
266.127	22.65
266.342	22.72
266.557	20.62
266.773	19.61
266.988	16.37
267.203	14.13
267.418	13.43
267.633	11.92
267.848	12.16
268.064	10.56
268.279	11.24
268.494	11.25
268.709	11.64
268.924	11.81
269.139	11.52
269.354	11.73
269.569	12.74
269.784	13.25
269.999	12.46
270.214	13.17
270.429	14.27
270.644	13.47
270.859	13.54
271.074	12.17
271.289	11.91
271.504	12.37
271.719	11.9
271.934	12.54
272.149	11.65
272.363	12.52
272.578	11.12
272.793	10.12
273.008	12.34
273.223	12.78
273.438	14.23
273.653	15.63
273.867	15.52
274.082	17.56
274.297	16.55
274.512	17.56
274.726	17.34
274.941	19.18
275.156	21.39
275.371	19.94
275.585	21.35
275.8	19.92
276.015	18.03
276.229	16.57
276.444	15.35
276.659	15.08
276.873	14.61
277.088	15.53
277.302	14.67
277.517	13.19
277.732	12.91
277.946	11.11
278.161	11.86
278.375	11.98
278.59	13.83
278.804	12.66
279.019	12.74
279.233	13.35
279.448	12.92
279.662	11.8
279.877	10.82
280.091	11.3
280.306	9.9
280.52	9.62
280.735	10.93
280.949	10.69
281.163	11.13
281.378	10.22
281.592	9.12
281.806	9.18
282.021	10.3
282.235	10.88
282.449	10.94
282.664	11.17
282.878	11.21
283.092	10.86
283.307	10.7
283.521	10.81
283.735	11.71
283.949	12.65
284.164	10.82
284.378	10.51
284.592	10.13
284.806	9.53
285.02	9.71
285.234	9.66
285.449	8.76
285.663	9.33
285.877	9.82
286.091	10.74
286.305	10.61
286.519	12.19
286.733	11.97
286.947	12.67
287.161	13.03
287.375	14.15
287.589	14.98
287.803	15.93
288.017	15.62
288.231	14.99
288.445	14.06
288.659	14.05
288.873	13.95
289.087	14.47
289.301	14.44
289.515	14.73
289.729	14.52
289.943	13.63
290.157	13.33
290.371	13.7
290.584	14.08
290.798	14.16
291.012	13.79
291.226	13.41
291.44	12.79
291.654	12.78
291.867	12.42
292.081	11.95
292.295	12.08
292.509	12.59
292.722	12.78
292.936	13.31
293.15	12.32
293.364	12.65
293.577	12.53
293.791	13.5
294.005	12.43
294.218	12.27
294.432	12.34
294.645	13.76
294.859	13.49
295.073	12.52
295.286	12.26
295.5	14.06
295.713	14.1
295.927	14.14
296.14	13.81
296.354	14.15
296.568	14.93
296.781	15.05
296.994	13.77
297.208	13.36
297.421	14.19
297.635	14.26
297.848	13.32
298.062	13.23
298.275	13.55
298.489	12.95
298.702	13.56
298.915	12.68
299.129	11.83
299.342	12.4
299.555	12.66
299.769	12.13
299.982	12.06
300.195	12.67
300.409	13.5
300.622	13.83
300.835	14.89
301.048	15.06
301.262	15.65
301.475	16.55
301.688	16.23
301.901	17.23
302.115	17.12
302.328	17.22
302.541	16.98
302.754	16.2
302.967	16.3
303.18	16.32
303.393	15.96
303.607	15.53
303.82	15.6
304.033	15.16
304.246	15.07
304.459	15.64
304.672	16.42
304.885	17.44
305.098	18.39
305.311	18.26
305.524	18.29
305.737	18.58
305.95	18.13
306.163	17.99
306.376	18.65
306.589	17.74
306.802	16.77
307.015	15.76
307.228	15.52
307.44	14.44
307.653	15.63
307.866	16.18
308.079	16.01
308.292	15.79
308.505	16.05
308.718	16.65
308.93	17.06
309.143	16.9
309.356	16.6
309.569	14.96
309.781	15.84
309.994	14.18
310.207	13.79
310.42	12.72
310.632	13.08
310.845	13.52
311.058	13.07
311.27	13.24
311.483	14.25
311.696	14.25
311.908	15.03
312.121	14.14
312.333	15.73
312.546	15.67
312.759	16.88
312.971	17.72
313.184	18.07
313.396	18.49
313.609	17.96
313.821	17.43
314.034	18.41
314.246	18.63
314.459	18.79
314.671	16.93
314.884	17.23
315.096	17.21
315.309	15.89
315.521	15.5
315.733	15.67
315.946	16.47
316.158	15.75
316.371	15.55
316.583	16.61
316.795	16.64
317.008	17.65
317.22	17.37
317.432	17.82
317.644	19.07
317.857	19.07
318.069	17.25
318.281	17.58
318.494	19.07
318.706	19.01
318.918	17.93
319.13	18.39
319.342	18.25
319.555	18.08
319.767	18.03
319.979	18.2
320.191	18.45
320.403	20.22
320.615	18.72
320.827	18.54
321.039	17.95
321.252	17.9
321.464	17.63
321.676	17.2
321.888	17.26
322.1	17.3
322.312	16.5
322.524	15.9
322.736	15.62
322.948	17.57
323.16	17.39
323.372	18.49
323.584	20.38
323.796	21.71
324.007	23.12
324.219	23.73
324.431	23.95
324.643	24.86
324.855	25.3
325.067	26.63
325.279	26.86
325.491	27.89
325.702	28.14
325.914	26.84
326.126	26.48
326.338	26.33
326.55	27.35
326.761	27.57
326.973	28.2
327.185	29.71
327.396	28.9
327.608	28.78
327.82	29.38
328.032	30.06
328.243	31
328.455	31.75
328.666	32.31
328.878	33.43
329.09	33.63
329.301	34.7
329.513	33.98
329.725	35.07
329.936	35.18
330.148	34.83
330.359	35.2
330.571	36.46
330.782	37.5
330.994	37.57
331.205	36.77
331.417	38.32
331.628	38.07
331.84	39.32
332.051	40.02
332.262	41.53
332.474	42.62
332.685	42.35
332.897	42.51
333.108	41.7
333.319	42.55
333.531	42.89
333.742	42.36
333.953	43.04
334.165	42.82
334.376	42.85
334.587	43.85
334.799	44.5
335.01	45.22
335.221	45.34
335.432	46.56
335.644	46.91
335.855	47.9
336.066	49.42
336.277	50.32
336.488	50.1
336.7	49.98
336.911	49.35
337.122	49.59
337.333	49.83
337.544	49.88
337.755	49.28
337.966	49.21
338.177	48.01
338.388	46.96
338.599	46.18
338.811	47.16
339.022	47.18
339.233	47.22
339.444	46.24
339.655	46.8
339.866	47.35
340.076	48.01
340.287	48.5
340.498	49.1
340.709	49.12
340.92	49.74
341.131	49.33
341.342	48.93
341.553	48.88
341.764	49.23
341.975	48.01
342.185	46.9
342.396	46.72
342.607	46.64
342.818	47.25
343.029	47.38
343.239	46.97
343.45	45.69
343.661	46.16
343.872	45.91
344.082	46.39
344.293	46.71
344.504	47.03
344.714	47.08
344.925	47.01
345.136	46.71
345.346	47.01
345.557	46.25
345.768	47.08
345.978	47.44
346.189	47.57
346.399	46.66
346.61	47.36
346.821	47.07
347.031	46.71
347.242	46.16
347.452	46.82
347.663	46.36
347.873	46.95
348.084	47.25
348.294	47.08
348.504	46.94
348.715	47.77
348.925	46.72
349.136	47.08
349.346	47.56
349.557	47.3
349.767	46.77
349.977	46.33
350.188	46.19
350.398	46.52
350.608	45.76
350.819	45.79
351.029	45.26
351.239	45.99
351.449	46.41
351.66	46.52
351.87	46.68
352.08	46.62
352.29	47.42
352.501	47.18
352.711	46.76
352.921	47.33
353.131	47.6
353.341	47.49
353.552	46.96
353.762	45.62
353.972	45.09
354.182	45.74
354.392	45.7
354.602	45.16
354.812	45.79
355.022	46.1
355.232	46.21
355.442	45.9
355.652	45.66
355.862	45.9
356.072	46.27
356.282	46.28
356.492	45.5
356.702	45.02
356.912	45.12
357.122	45.39
357.332	44.78
357.542	44.41
357.752	44.45
357.962	44.66
358.171	44.53
358.381	44.97
358.591	44.71
358.801	45.03
359.011	45.23
359.221	44.75
359.43	44.44
359.64	44.32
359.85	44.52
360.06	44.28
360.269	44.84
360.479	44.27
360.689	43.51
360.899	43.81
361.108	43.24
361.318	43.14
361.528	43.29
361.737	43.51
361.947	43.74
362.156	43.82
362.366	43.89
362.576	43.12
362.785	43.52
362.995	44.19
363.204	43.75
363.414	44.2
363.623	44.74
363.833	44.31
364.042	43.86
364.252	43.94
364.461	43.18
364.671	42.85
364.88	43
365.09	42.91
365.299	42.95
365.509	42.99
365.718	42.94
365.927	42.27
366.137	42.28
366.346	41.78
366.555	41.23
366.765	41.97
366.974	41.88
367.183	41.76
367.393	42.01
367.602	41.72
367.811	42.16
368.021	41.75
368.23	41.54
368.439	41.62
368.648	41.71
368.857	41.52
369.067	40.83
369.276	40.97
369.485	41.2
369.694	40.81
369.903	40.47
370.112	39.7
370.321	39.78
370.531	39.42
370.74	39.52
370.949	39.73
371.158	39.78
371.367	40.63
371.576	40.44
371.785	40.41
371.994	40.21
372.203	40.08
372.412	40.41
372.621	40.48
372.83	40.27
373.039	40.02
373.248	39.21
373.457	39.69
373.666	38.91
373.874	38.64
374.083	37.91
374.292	37.72
374.501	37.72
374.71	37.77
374.919	37.13
375.128	37.62
375.336	37.95
375.545	38.52
375.754	38
375.963	37.7
376.171	37.68
376.38	37.43
376.589	37.25
376.798	36.99
377.006	36.33
377.215	36.41
377.424	36.49
377.632	36.31
377.841	35.84
378.05	35.55
378.258	35.4
378.467	34.97
378.675	35.45
378.884	34.84
379.093	34.63
379.301	34.73
379.51	34.87
379.718	34.54
379.927	34.67
380.135	34.39
380.344	34.55
380.552	34.23
380.761	34.6
380.969	34.14
381.177	34.84
381.386	35.12
381.594	35.08
381.803	34.68
382.011	34.65
382.219	34.21
382.428	34.49
382.636	34.36
382.845	34.74
383.053	34.65
383.261	34.78
383.469	34.22
383.678	33.91
383.886	33.81
384.094	33.7
384.302	33.21
384.511	33.11
384.719	32.7
384.927	32.56
385.135	32.24
385.343	31.78
385.552	31.63
385.76	31.78
385.968	31.55
386.176	31.46
386.384	31.62
386.592	31.5
386.8	31.18
387.008	31.35
387.216	31.38
387.424	31.64
387.633	31.56
387.841	31.48
388.049	31.31
388.257	31.49
388.465	31.34
388.672	31
388.88	30.95
389.088	31.04
389.296	30.65
389.504	30.11
389.712	29.87
389.92	30.26
390.128	30.12
390.336	30.24
390.544	30.03
390.751	29.97
390.959	29.92
391.167	29.92
391.375	29.69
391.583	29.73
391.79	29.81
391.998	29.79
392.206	29.53
392.414	29.08
392.621	28.69
392.829	28.62
393.037	28.64
393.244	28.55
393.452	28.47
393.66	28.68
393.867	28.88
394.075	29.09
394.283	28.69
394.49	28.66
394.698	29.08
394.905	29.15
395.113	29.2
395.32	29.02
395.528	28.9
395.735	28.82
395.943	28.61
396.15	28.48
396.358	28.35
396.565	28.42
396.773	28.57
396.98	28.47
397.188	28.55
397.395	28.32
397.602	28.46
397.81	28.34
398.017	28.24
398.225	28.18
398.432	27.99
398.639	27.73
398.847	27.7
399.054	27.36
399.261	27.4
399.468	27.5
399.676	27.88
399.883	27.53
400.09	27.86
400.297	28.02
400.505	27.91
400.712	27.87
400.919	27.96
401.126	28.29
401.333	28.41
401.54	28.23
401.748	27.88
401.955	27.65
402.162	27.94
402.369	27.54
402.576	27.35
402.783	26.98
402.99	26.71
403.197	26.7
403.404	26.45
403.611	26.39
403.818	26.3
404.025	26.27
404.232	25.89
404.439	25.67
404.646	25.74
404.853	26.06
405.06	26.54
405.267	27.02
405.474	26.94
405.681	26.75
405.887	26.58
406.094	26.6
406.301	26.88
406.508	27.14
406.715	27.13
406.922	27.01
407.128	26.9
407.335	26.7
407.542	26.41
407.749	26.41
407.955	26.5
408.162	26.6
408.369	26.62
408.575	26.41
408.782	26.28
408.989	26.53
409.195	26.73
409.402	26.73
409.609	26.77
409.815	26.53
410.022	26.6
410.228	26.67
410.435	26.7
410.642	26.53
410.848	26.6
411.055	26.52
411.261	26.33
411.468	26.22
411.674	26.19
411.881	25.99
412.087	26.22
412.294	26.03
412.5	25.74
412.706	25.46
412.913	25.73
413.119	25.72
413.326	25.98
413.532	26.03
413.738	26.18
413.945	26
414.151	26.22
414.357	26.2
414.564	26.45
414.77	26.79
414.976	27.04
415.182	26.87
415.389	27.04
415.595	26.77
415.801	26.91
416.007	26.83
416.214	26.88
416.42	26.82
416.626	27.08
416.832	26.85
417.038	26.59
417.244	26.61
417.45	26.65
417.657	26.36
417.863	26.46
418.069	26.44
418.275	26.35
418.481	26.32
418.687	26.22
418.893	25.88
419.099	25.81
419.305	25.84
419.511	25.69
419.717	25.62
419.923	25.54
420.129	25.55
420.335	25.43
420.541	25.4
420.746	25.33
420.952	25.31
421.158	25.28
421.364	25.47
421.57	25.39
421.776	25.44
421.982	25.34
422.187	25.33
422.393	25.28
422.599	25.16
422.805	25.21
423.01	25.18
423.216	25.21
423.422	25.29
423.628	25.16
423.833	25.25
424.039	25.33
424.245	25.36
424.45	25.53
424.656	25.41
424.862	25.48
425.067	25.51
425.273	25.48
425.478	25.52
425.684	25.57
425.889	25.49
426.095	25.55
426.301	25.49
426.506	25.59
426.712	25.36
426.917	25.49
427.123	25.46
427.328	25.26
427.533	25.34
427.739	25.32
427.944	25.25
428.15	25.35
428.355	25.3
428.561	25.29
428.766	25.15
428.971	25.37
429.177	25.44
429.382	25.53
429.587	25.66
429.793	25.9
429.998	25.97
430.203	25.84
430.408	25.77
430.614	25.73
430.819	25.68
431.024	25.67
431.229	25.42
431.434	25.44
431.64	25.39
431.845	25.48
432.05	25.36
432.255	25.11
432.46	25.25
432.665	25.19
432.87	25.04
433.076	25.03
433.281	25.15
433.486	25.28
433.691	25.25
433.896	25.29
434.101	25.15
434.306	24.92
434.511	25
434.716	25.06
434.921	24.98
435.126	25.18
435.331	25.25
435.535	25.28
435.74	25.23
435.945	25.16
436.15	25.02
436.355	25.14
436.56	25.48
436.765	25.49
436.97	25.42
437.174	25.74
437.379	25.61
437.584	25.53
437.789	25.5
437.993	25.54
438.198	25.58
438.403	25.52
438.608	25.61
438.812	25.33
439.017	25.36
439.222	25.38
439.426	25.19
439.631	25.37
439.836	25.34
440.04	25.37
440.245	25.38
440.45	25.42
440.654	25.39
440.859	25.17
441.063	25.17
441.268	25.22
441.472	25.19
441.677	25.31
441.881	25.28
442.086	25.2
442.29	25.18
442.495	25.16
442.699	25.12
442.904	25.23
443.108	25.22
443.312	25.26
443.517	25.33
443.721	25.39
443.925	25.04
444.13	24.73
444.334	24.8
444.538	24.62
444.743	24.59
444.947	24.48
445.151	24.37
445.356	24.29
445.56	24.33
445.764	24.15
445.968	24.1
446.173	24.33
446.377	24.33
446.581	24.39
446.785	24.41
446.989	24.42
447.193	24.45
447.398	24.57
447.602	24.65
447.806	24.63
448.01	24.7
448.214	24.7
448.418	24.53
448.622	24.66
448.826	24.49
449.03	24.48
449.234	24.37
449.438	24.29
449.642	24.2
449.846	24.33
450.05	24.29
450.254	24.16
450.458	23.96
450.662	24.22
450.866	24.14
451.069	24.2
451.273	24.26
451.477	24.3
451.681	24.23
451.885	24.34
452.089	24.12
452.292	24.31
452.496	24.33
452.7	24.36
452.904	24.13
453.107	24.06
453.311	23.99
453.515	23.99
453.719	23.96
453.922	24.12
454.126	23.91
454.33	24.12
454.533	23.8
454.737	23.82
454.94	23.96
455.144	24.07
455.348	24.19
455.551	24.22
455.755	24.27
455.958	24.34
456.162	24.37
456.365	24.41
456.569	24.18
456.772	24.18
456.976	24.07
457.179	23.97
457.383	23.95
457.586	23.91
457.79	23.97
457.993	23.87
458.196	23.91
458.4	23.93
458.603	23.98
458.807	24.04
459.01	24.17
459.213	24.23
459.417	24.3
459.62	24.18
459.823	24.16
460.026	24.2
460.23	24.25
460.433	24.13
460.636	23.98
460.839	24
461.042	24.16
461.246	24.11
461.449	24.22
461.652	24.14
461.855	24.39
462.058	24.61
462.261	24.51
462.464	24.45
462.668	24.62
462.871	25.04
463.074	25.03
463.277	24.92
463.48	24.92
463.683	24.81
463.886	24.83
464.089	24.87
464.292	24.65
464.495	24.71
464.698	24.83
464.901	25
465.104	24.75
465.306	24.85
465.509	25.04
465.712	25.42
465.915	25.48
466.118	25.57
466.321	25.5
466.524	25.67
466.726	25.73
466.929	25.98
467.132	25.83
467.335	25.91
467.538	26.01
467.74	25.88
467.943	25.72
468.146	25.81
468.348	25.89
468.551	25.97
468.754	25.97
468.956	26.02
469.159	25.95
469.362	26.02
469.564	26.04
469.767	26.14
469.969	26.32
470.172	26.36
470.375	26.26
470.577	26.47
470.78	26.29
470.982	26.3
471.185	26.38
471.387	26.3
471.59	26.46
471.792	26.59
471.995	26.62
472.197	26.55
472.399	26.43
472.602	26.52
472.804	26.29
473.007	26.46
473.209	26.48
473.411	26.53
473.614	26.63
473.816	26.58
474.018	26.46
474.22	26.35
474.423	26.35
474.625	26.45
474.827	26.51
475.03	26.67
475.232	26.75
475.434	26.84
475.636	26.8
475.838	26.81
476.04	26.83
476.243	26.88
476.445	26.91
476.647	26.89
476.849	26.81
477.051	26.69
477.253	26.71
477.455	26.65
477.657	26.57
477.859	26.57
478.061	26.48
478.263	26.48
478.465	26.34
478.667	26.2
478.869	26.18
479.071	26.28
479.273	26.39
479.475	26.21
479.677	26.04
479.879	26.16
480.081	26.2
480.283	26.18
480.485	26.09
480.686	26.12
480.888	26.18
481.09	26.11
481.292	26.03
481.494	26
481.695	26.05
481.897	26.07
482.099	25.87
482.301	25.81
482.502	25.81
482.704	25.81
482.906	25.76
483.107	25.75
483.309	25.72
483.511	25.7
483.712	25.61
483.914	25.61
484.115	25.54
484.317	25.53
484.519	25.53
484.72	25.46
484.922	25.41
485.123	25.45
485.325	25.49
485.526	25.54
485.728	25.56
485.929	25.63
486.131	25.65
486.332	25.83
486.534	25.85
486.735	25.84
486.936	25.96
487.138	26.05
487.339	26.06
487.541	26.04
487.742	26.09
487.943	26.18
488.144	26.22
488.346	26.21
488.547	26.23
488.748	26.25
488.95	26.3
489.151	26.34
489.352	26.33
489.553	26.41
489.755	26.48
489.956	26.46
490.157	26.48
490.358	26.52
490.559	26.64
490.76	26.67
490.961	26.83
491.163	26.94
491.364	26.99
491.565	27.09
491.766	27.08
491.967	27.12
492.168	27.16
492.369	27.11
492.57	27.22
492.771	27.25
492.972	27.26
493.173	27.34
493.374	27.44
493.575	27.47
493.776	27.57
493.976	27.84
494.177	28
494.378	28.24
494.579	28.63
494.78	28.68
494.981	28.95
495.182	29.23
495.382	29.33
495.583	29.44
495.784	29.66
495.985	29.83
496.185	29.81
496.386	29.8
496.587	29.85
496.788	29.85
496.988	30
497.189	30.04
497.39	30.23
497.59	30.26
497.791	30.41
497.992	30.55
498.192	30.6
498.393	30.76
498.593	31.04
498.794	31.22
498.994	31.43
499.195	31.56
499.395	31.78
499.596	31.94
499.796	32.22
499.997	32.3
500.197	32.31
500.398	32.41
500.598	32.64
500.799	32.66
500.999	32.77
501.199	32.93
501.4	33.15
501.6	33.21
501.801	33.29
502.001	33.41
502.201	33.69
502.402	33.95
502.602	34.26
502.802	34.34
503.002	34.61
503.203	35.03
503.403	35.15
503.603	35.38
503.803	35.59
504.003	35.88
504.204	36.07
504.404	36.25
504.604	36.43
504.804	36.66
505.004	36.74
505.204	36.95
505.404	36.81
505.604	36.93
505.804	37.01
506.005	37.28
506.205	37.32
506.405	37.53
506.605	37.61
506.805	37.84
507.005	37.94
507.204	38.19
507.404	38.29
507.604	38.61
507.804	38.73
508.004	38.92
508.204	38.99
508.404	39.12
508.604	39.2
508.804	39.44
509.003	39.64
509.203	39.81
509.403	40.06
509.603	40.31
509.803	40.59
510.002	40.81
510.202	41.06
510.402	41.32
510.602	41.46
510.801	41.65
511.001	41.86
511.201	41.95
511.4	42.16
511.6	42.21
511.8	42.32
511.999	42.35
512.199	42.5
512.398	42.61
512.598	42.77
512.797	43.09
512.997	43.21
513.197	43.3
513.396	43.65
513.596	43.76
513.795	44.05
513.994	44.23
514.194	44.56
514.393	44.78
514.593	44.99
514.792	45.06
514.992	45.25
515.191	45.67
515.39	45.92
515.59	46.07
515.789	46.37
515.988	46.43
516.188	46.68
516.387	46.87
516.586	47.12
516.786	47.37
516.985	47.72
517.184	47.82
517.383	47.95
517.582	48.06
517.782	48.14
517.981	48.34
518.18	48.57
518.379	48.7
518.578	48.77
518.777	49
518.976	49.04
519.176	49.14
519.375	49.23
519.574	49.26
519.773	49.44
519.972	49.51
520.171	49.65
520.37	49.81
520.569	50.04
520.768	50.27
520.967	50.33
521.166	50.57
521.365	50.68
521.564	50.91
521.762	51.12
521.961	51.26
522.16	51.42
522.359	51.4
522.558	51.43
522.757	51.37
522.956	51.42
523.154	51.58
523.353	51.84
523.552	52.1
523.751	52.17
523.949	52.33
524.148	52.4
524.347	52.82
524.546	53.1
524.744	53.22
524.943	53.41
525.142	53.46
525.34	53.5
525.539	53.52
525.737	53.58
525.936	53.74
526.135	53.88
526.333	54.09
526.532	54.17
526.73	54.14
526.929	54.38
527.127	54.6
527.326	54.72
527.524	54.79
527.723	54.88
527.921	54.89
528.12	54.94
528.318	54.93
528.516	54.89
528.715	54.87
528.913	54.95
529.112	55.02
529.31	54.93
529.508	55.02
529.707	55.15
529.905	55.19
530.103	55.26
530.301	55.36
530.5	55.53
530.698	55.68
530.896	55.83
531.094	55.92
531.293	55.94
531.491	56.1
531.689	56.13
531.887	56.26
532.085	56.25
532.283	56.4
532.481	56.34
532.68	56.44
532.878	56.58
533.076	56.57
533.274	56.7
533.472	56.74
533.67	56.77
533.868	56.82
534.066	56.75
534.264	56.89
534.462	56.88
534.66	57.03
534.858	57.01
535.056	57.06
535.253	57.1
535.451	57.13
535.649	57.19
535.847	57.32
536.045	57.45
536.243	57.61
536.441	57.49
536.638	57.6
536.836	57.54
537.034	57.54
537.232	57.49
537.43	57.64
537.627	57.69
537.825	57.77
538.023	57.81
538.22	57.84
538.418	57.82
538.616	57.98
538.813	58.02
539.011	58.24
539.209	58.29
539.406	58.46
539.604	58.42
539.801	58.51
539.999	58.6
540.196	58.66
540.394	58.59
540.591	58.54
540.789	58.59
540.986	58.58
541.184	58.56
541.381	58.44
541.579	58.39
541.776	58.32
541.974	58.27
542.171	58.27
542.368	58.26
542.566	58.3
542.763	58.25
542.96	58.28
543.158	58.35
543.355	58.45
543.552	58.6
543.75	58.7
543.947	58.96
544.144	59.04
544.341	59.09
544.539	59.11
544.736	59.19
544.933	59.33
545.13	59.42
545.327	59.39
545.524	59.17
545.722	59.21
545.919	59.09
546.116	58.92
546.313	58.93
546.51	58.94
546.707	58.95
546.904	59.02
547.101	59.14
547.298	59.16
547.495	59.16
547.692	59.25
547.889	59.31
548.086	59.41
548.283	59.43
548.48	59.35
548.677	59.19
548.874	59.28
549.07	59.19
549.267	59.08
549.464	59.13
549.661	59.04
549.858	59.21
550.055	59.18
550.251	59.25
550.448	59.31
550.645	59.56
550.842	59.5
551.038	59.62
551.235	59.69
551.432	59.63
551.628	59.44
551.825	59.57
552.022	59.59
552.218	59.67
552.415	59.73
552.612	59.77
552.808	59.67
553.005	59.78
553.201	59.74
553.398	59.66
553.594	59.91
553.791	60.13
553.987	60
554.184	59.95
554.38	59.84
554.577	59.76
554.773	59.63
554.97	59.71
555.166	59.74
555.362	59.62
555.559	59.43
555.755	59.44
555.952	59.43
556.148	59.64
556.344	59.83
556.541	59.81
556.737	59.81
556.933	60.01
557.129	59.9
557.326	59.95
557.522	59.93
557.718	60.11
557.914	60.05
558.11	60.04
558.307	59.75
558.503	59.46
558.699	59.85
558.895	59.55
559.091	59.71
559.287	60.09
559.483	60.15
559.679	60.32
559.876	60.44
560.072	60.36
560.268	60.28
560.464	60.69
560.66	60.91
560.856	60.85
561.052	61.44
561.247	61.35
561.443	61.24
561.639	61.25
561.835	61.37
562.031	61.32
562.227	61.25
562.423	61.34
562.619	61.34
562.815	61.44
563.01	61.33
563.206	60.98
563.402	60.74
563.598	60.47
563.793	60.49
563.989	60.36
564.185	60.58
564.381	60.81
564.576	60.77
564.772	60.81
564.968	60.67
565.163	60.76
565.359	60.72
565.555	60.72
565.75	61.09
565.946	61.06
566.141	60.99
566.337	60.75
566.532	60.76
566.728	60.82
566.923	60.59
567.119	60.5
567.314	60.35
567.51	60.49
567.705	60.66
567.901	60.28
568.096	60.29
568.292	60.28
568.487	60.33
568.682	60.36
568.878	60.24
569.073	60.43
569.268	60.44
569.464	60.24
569.659	60.21
569.854	60.07
570.05	60.29
570.245	60.31
570.44	60.45
570.635	60.49
570.831	60.43
571.026	60.38
571.221	60.51
571.416	60.66
571.611	61.01
571.806	61.1
572.002	61.32
572.197	61.31
572.392	61.33
572.587	61.24
572.782	61.29
572.977	61.35
573.172	61.57
573.367	61.23
573.562	61.24
573.757	61.11
573.952	61.06
574.147	60.92
574.342	60.87
574.537	60.84
574.732	60.8
574.927	60.99
575.121	60.82
575.316	60.69
575.511	60.95
575.706	60.94
575.901	60.86
576.096	60.77
576.29	60.74
576.485	60.9
576.68	61.16
576.875	61.03
577.069	60.78
577.264	60.95
577.459	60.9
577.654	60.72
577.848	60.7
578.043	60.92
578.238	60.82
578.432	60.76
578.627	60.55
578.821	60.17
579.016	60.4
579.21	60.6
579.405	60.34
579.6	60.31
579.794	60.67
579.989	60.78
580.183	61.23
580.378	61.41
580.572	61.49
580.766	61.49
580.961	61.76
581.155	61.77
581.35	61.8
581.544	61.96
581.738	62.07
581.933	61.96
582.127	61.9
582.321	61.31
582.516	61.63
582.71	61.4
582.904	61.56
583.099	61.46
583.293	61.42
583.487	61.43
583.681	61.67
583.875	61.65
584.07	61.45
584.264	61.35
584.458	61.41
584.652	61.12
584.846	61.24
585.04	61.28
585.234	61.52
585.428	61.51
585.623	61.41
585.817	61.38
586.011	61.37
586.205	61.55
586.399	61.54
586.593	61.45
586.787	61.75
586.981	61.73
587.174	61.58
587.368	61.3
587.562	61.26
587.756	61.26
587.95	61.25
588.144	61.26
588.338	61.19
588.532	61.08
588.725	61.11
588.919	60.98
589.113	61.25
589.307	61.32
589.501	61.44
589.694	61.67
589.888	61.54
590.082	61.39
590.275	61.27
590.469	61.18
590.663	61.35
590.856	61.5
591.05	61.46
591.244	61.38
591.437	61.52
591.631	61.48
591.824	61.22
592.018	61.54
592.212	61.43
592.405	61.54
592.599	61.52
592.792	61.51
592.986	61.53
593.179	61.62
593.372	61.58
593.566	61.31
593.759	61.3
593.953	61.52
594.146	61.26
594.339	61.37
594.533	61.62
594.726	61.81
594.92	61.61
595.113	61.71
595.306	61.68
595.499	61.69
595.693	61.91
595.886	61.81
596.079	61.64
596.272	61.62
596.466	61.75
596.659	61.64
596.852	61.51
597.045	61.75
597.238	61.33
597.431	61.15
597.624	61.25
597.818	61.07
598.011	61.18
598.204	61.09
598.397	61.38
598.59	61.25
598.783	60.94
598.976	60.93
599.169	60.86
599.362	61.14
599.555	61.32
599.748	61.02
599.941	61.1
600.134	61.04
600.326	61.06
600.519	60.83
600.712	60.8
600.905	61.16
601.098	60.97
601.291	60.87
601.483	60.8
601.676	60.52
601.869	60.77
602.062	60.55
602.255	60.58
602.447	60.69
602.64	60.64
602.833	60.55
603.025	60.36
603.218	60.52
603.411	60.5
603.603	60.58
603.796	60.83
603.989	60.79
604.181	60.85
604.374	60.8
604.566	60.8
604.759	60.72
604.951	60.72
605.144	60.74
605.336	60.89
605.529	60.84
605.721	60.85
605.914	60.74
606.106	60.63
606.299	60.75
606.491	60.64
606.683	60.84
606.876	60.78
607.068	60.96
607.26	60.98
607.453	60.89
607.645	61.01
607.837	60.97
608.03	60.87
608.222	60.93
608.414	60.93
608.606	60.99
608.799	60.93
608.991	60.92
609.183	60.83
609.375	60.78
609.567	60.46
609.759	60.5
609.952	60.3
610.144	60.3
610.336	60.32
610.528	60.01
610.72	59.71
610.912	59.53
611.104	59.62
611.296	59.75
611.488	59.85
611.68	59.75
611.872	59.46
612.064	59.54
612.256	59.69
612.448	59.47
612.64	59.91
612.832	60.34
613.023	60.39
613.215	60.29
613.407	60.1
613.599	59.65
613.791	60.17
613.983	60.05
614.174	60.1
614.366	59.95
614.558	60.24
614.75	59.84
614.941	59.85
615.133	59.58
615.325	59.77
615.516	59.59
615.708	60
615.9	59.8
616.091	59.82
616.283	59.6
616.475	59.38
616.666	59.03
616.858	59.06
617.049	58.79
617.241	58.98
617.432	58.62
617.624	58.8
617.815	58.52
618.007	58.37
618.198	58.5
618.39	58.6
618.581	58.94
618.773	59.34
618.964	59.29
619.155	59.12
619.347	58.61
619.538	58.49
619.729	58.34
619.921	58.63
620.112	58.66
620.303	58.6
620.494	58.57
620.686	58.54
620.877	58.24
621.068	58.03
621.259	58.19
621.451	58.43
621.642	58.44
621.833	58.32
622.024	58.13
622.215	58.06
622.406	57.83
622.597	57.53
622.788	57.3
622.98	57.19
623.171	57.28
623.362	57.3
623.553	57.42
623.744	57.58
623.935	57.5
624.126	57.35
624.317	57.43
624.508	57.66
624.698	57.94
624.889	57.65
625.08	57.84
625.271	58.08
625.462	57.98
625.653	57.8
625.844	57.59
626.034	57.3
626.225	57.36
626.416	57.21
626.607	57.16
626.798	57.11
626.988	57.48
627.179	57.35
627.37	57.07
627.56	57.05
627.751	57.14
627.942	56.99
628.132	57.22
628.323	57.13
628.514	57.05
628.704	56.86
628.895	56.81
629.085	56.36
629.276	56.23
629.466	56.17
629.657	56.2
629.847	55.92
630.038	55.93
630.228	55.9
630.419	55.88
630.609	55.59
630.8	55.65
630.99	55.43
631.181	55.67
631.371	55.44
631.561	55.78
631.752	55.6
631.942	55.63
632.132	55.76
632.323	55.49
632.513	55.53
632.703	56.06
632.893	56.07
633.084	56.34
633.274	56.15
633.464	56.33
633.654	55.72
633.844	55.87
634.034	55.95
634.225	55.89
634.415	56.05
634.605	56.05
634.795	55.64
634.985	55.55
635.175	55.37
635.365	55.4
635.555	55.11
635.745	55.37
635.935	55.27
636.125	54.95
636.315	55.07
636.505	54.64
636.695	54.21
636.885	53.98
637.075	53.65
637.265	53.53
637.455	53.25
637.644	53.52
637.834	53.45
638.024	53.27
638.214	53.36
638.404	52.77
638.593	53.53
638.783	53.69
638.973	53.84
639.163	54.14
639.352	53.88
639.542	54.04
639.732	53.96
639.921	53.75
640.111	53.74
640.301	53.7
640.49	54.11
640.68	53.53
640.87	53.66
641.059	53.84
641.249	53.91
641.438	53.75
641.628	53.62
641.817	53.36
642.007	53.2
642.196	52.89
642.386	52.93
642.575	52.57
642.764	52.51
642.954	52.46
643.143	52.37
643.333	52.02
643.522	52.26
643.711	52.1
643.901	52.33
644.09	52.94
644.279	53.24
644.469	53.28
644.658	53.63
644.847	54
645.036	53.86
645.226	53.5
645.415	53.46
645.604	53.2
645.793	53.44
645.982	53.05
646.171	52.52
646.361	52.25
646.55	52.28
646.739	52.14
646.928	51.62
647.117	51.7
647.306	51.67
647.495	51.71
647.684	51.95
647.873	51.76
648.062	52.03
648.251	51.97
648.44	51.92
648.629	51.44
648.818	51.29
649.007	51.58
649.196	51.34
649.384	51.23
649.573	51.17
649.762	51.2
649.951	51.21
650.14	50.98
650.328	51.3
650.517	51.09
650.706	51.07
650.895	51.01
651.083	50.94
651.272	50.91
651.461	51.53
651.65	51.9
651.838	51.83
652.027	51.66
652.216	51.41
652.404	51.11
652.593	51.31
652.781	51.4
652.97	51.44
653.158	51.15
653.347	50.71
653.535	50.33
653.724	50.08
653.912	50.31
654.101	50.3
654.289	50.49
654.478	50.14
654.666	50.1
654.855	50.12
655.043	50.18
655.231	50.46
655.42	50.93
655.608	50.76
655.796	50.51
655.985	50.07
656.173	50.34
656.361	50.55
656.55	50.74
656.738	50.87
656.926	51.09
657.114	51.3
657.302	51.11
657.491	50.93
657.679	51.07
657.867	51.39
658.055	51.72
658.243	51.19
658.431	51.25
658.619	51.41
658.807	51.16
658.996	51.08
659.184	50.86
659.372	51.02
659.56	50.96
659.748	51.01
659.936	50.79
660.124	50.66
660.311	50.88
660.499	50.68
660.687	50.46
660.875	50.67
661.063	50.43
661.251	50.22
661.439	50.25
661.627	50.34
661.814	50.12
662.002	49.78
662.19	49.48
662.378	49.07
662.565	49.17
662.753	49.26
662.941	49.55
663.129	49.74
663.316	49.77
663.504	49.08
663.692	48.57
663.879	48.53
664.067	49.13
664.254	49.15
664.442	49.32
664.63	49.37
664.817	49.24
665.005	48.48
665.192	48.44
665.38	48.52
665.567	48.59
665.755	49.14
665.942	49.37
666.13	48.77
666.317	48.79
666.504	48.9
666.692	48.63
666.879	48.48
667.067	48.75
667.254	48.13
667.441	48.13
667.629	48.22
667.816	48.18
668.003	47.88
668.19	47.91
668.378	47.82
668.565	47.96
668.752	47.96
668.939	47.75
669.127	47.38
669.314	47.84
669.501	47.8
669.688	47.63
669.875	47.52
670.062	47.72
670.249	47.61
670.436	47.75
670.623	47.6
670.81	47.21
670.997	47.37
671.184	47.35
671.371	47.2
671.558	47.01
671.745	47.15
671.932	46.9
672.119	46.88
672.306	47.46
672.493	47.1
672.68	47.25
672.867	47.35
673.054	47.25
673.24	47.46
673.427	47.59
673.614	47.97
673.801	47.86
673.988	48.05
674.174	47.71
674.361	47.48
674.548	47.38
674.734	47.34
674.921	47.53
675.108	47.48
675.294	47.43
675.481	47.1
675.668	46.92
675.854	47.08
676.041	46.87
676.227	46.87
676.414	46.54
676.601	46.76
676.787	47.04
676.974	46.94
677.16	46.92
677.347	46.82
677.533	47.29
677.719	47.1
677.906	46.95
678.092	47.1
678.279	46.99
678.465	47.06
678.651	47.02
678.838	46.72
679.024	46.69
679.21	46.88
679.397	46.93
679.583	46.47
679.769	46.68
679.955	46.77
680.142	46.51
680.328	46.72
680.514	46.59
680.7	46.33
680.886	46.36
681.073	46.36
681.259	46.32
681.445	45.97
681.631	45.84
681.817	45.32
682.003	45.37
682.189	45.52
682.375	45.36
682.561	45.18
682.747	45.6
682.933	45.12
683.119	44.73
683.305	44.38
683.491	44.5
683.677	44.89
683.863	44.9
684.049	44.95
684.235	45.05
684.42	44.56
684.606	44.69
684.792	44.4
684.978	44.41
685.164	44.13
685.349	44.21
685.535	44.04
685.721	43.81
685.907	43.36
686.092	42.98
686.278	42.58
686.464	43.24
686.649	43.57
686.835	43.8
687.021	43.98
687.206	44.74
687.392	45.01
687.577	45.32
687.763	45.42
687.948	46.42
688.134	46.38
688.319	46.32
688.505	46.18
688.69	45.44
688.876	44.94
689.061	44.89
689.247	44.93
689.432	44.66
689.618	44.5
689.803	43.89
689.988	43.64
690.174	43.33
690.359	43.6
690.544	43.4
690.73	43.72
690.915	43.74
691.1	43.75
691.285	43.67
691.471	43.74
691.656	44
691.841	44.29
692.026	43.87
692.211	44.02
692.396	44.06
692.582	44.15
692.767	44.3
692.952	44.3
693.137	43.92
693.322	43.59
693.507	43.59
693.692	43.35
693.877	43.29
694.062	43.43
694.247	43.82
694.432	44.07
694.617	43.94
694.802	44.39
694.987	44.61
695.172	44.87
695.357	45.17
695.541	45.28
695.726	45.13
695.911	45.62
696.096	45.78
696.281	45.35
696.466	45.43
696.65	45.35
696.835	44.94
697.02	44.64
697.204	44.74
697.389	44.79
697.574	44.81
697.759	44.54
697.943	44.32
698.128	43.98
698.312	43.98
698.497	43.07
698.682	42.89
698.866	42.51
699.051	42.61
699.235	42.15
699.42	42.01
699.604	42.09
699.789	41.96
699.973	41.76
700.158	41.57
700.342	41.46
700.527	41.93
700.711	42.21
700.895	42.41
701.08	41.89
701.264	42.32
701.448	42.09
701.633	41.4
701.817	41.55
702.001	41.69
702.186	42.35
702.37	41.98
702.554	41.74
702.738	41.86
702.923	42.17
703.107	42.85
703.291	43.1
703.475	43.42
703.659	43.66
703.843	43.87
704.027	44.07
704.212	43.81
704.396	44.55
704.58	44.89
704.764	44.67
704.948	44.15
705.132	43.89
705.316	44.19
705.5	43.91
705.684	44.66
705.868	44.65
706.052	44.25
706.235	44.39
706.419	43.78
706.603	43.46
706.787	43.43
706.971	43.49
707.155	43.58
707.339	43.01
707.522	42.88
707.706	42.35
707.89	42.2
708.074	41.97
708.257	41.13
708.441	41.51
708.625	41.85
708.808	41.66
708.992	41.58
709.176	41.16
709.359	41.07
709.543	40.69
709.727	40.55
709.91	40.77
710.094	41.02
710.277	41.63
710.461	41.87
710.644	42.22
710.828	41.93
711.011	42
711.195	42.27
711.378	42.42
711.562	42.48
711.745	42.41
711.928	41.93
712.112	42.06
712.295	41.58
712.478	41.68
712.662	41.14
712.845	41.51
713.028	41.48
713.212	42.1
713.395	41.69
713.578	42.27
713.761	42.58
713.945	43.01
714.128	42.93
714.311	43.23
714.494	42.68
714.677	43.02
714.86	42.79
715.043	43.14
715.227	42.3
715.41	41.9
715.593	41.76
715.776	41.31
715.959	41.64
716.142	41.66
716.325	41.52
716.508	41.37
716.691	41.46
716.874	42.3
717.057	42.35
717.239	42.84
717.422	43.69
717.605	43.75
717.788	43.66
717.971	43.32
718.154	42.92
718.337	42.85
718.519	43.14
718.702	42.67
718.885	41.78
719.068	41.67
719.25	41.39
719.433	42.05
719.616	41.01
719.798	41.63
719.981	41.98
720.164	41.57
720.346	42.14
720.529	42.41
720.712	42.34
720.894	42.04
721.077	42.33
721.259	42.09
721.442	41.35
721.624	41.9
721.807	42.1
721.989	41.27
722.172	42.34
722.354	42.98
722.537	41.95
722.719	42.34
722.901	42.72
723.084	41.96
723.266	42.28
723.448	42.16
723.631	42.24
723.813	41.67
723.995	42.49
724.178	42.45
724.36	41.77
724.542	42.46
724.724	42.43
724.907	42.84
725.089	42.16
725.271	42.05
725.453	42
725.635	42.54
725.817	43.02
725.999	42.6
726.181	42.24
726.364	42
726.546	42.7
726.728	42.2
726.91	42.06
727.092	42.82
727.274	42.7
727.456	43.48
727.638	44.05
727.819	43.69
728.001	43.12
728.183	43.23
728.365	43.17
728.547	42.49
728.729	43.21
728.911	43.04
729.093	43.17
729.274	43
729.456	42.24
729.638	41.37
729.82	41.36
730.001	41.64
730.183	41.76
730.365	41.68
730.546	41.49
730.728	40.75
730.91	40.06
731.091	40.35
731.273	41.23
731.455	40.65
731.636	40.55
731.818	40.53
731.999	40.15
732.181	40.15
732.362	39.93
732.544	40.5
732.725	40.21
732.907	40.58
733.088	39.9
733.27	38.57
733.451	38.73
733.633	38.11
733.814	37.65
733.995	37.9
734.177	37.55
734.358	37.82
734.539	37.58
734.721	37.58
734.902	38.59
735.083	38.79
735.264	39.98
735.446	40.66
735.627	41.68
735.808	41.77
735.989	41.68
736.17	42.09
736.351	42.17
736.533	41.46
736.714	41.15
736.895	40.45
737.076	39.66
737.257	39.32
737.438	38.91
737.619	39.01
737.8	38.98
737.981	39.33
738.162	39.21
738.343	40.04
738.524	40.2
738.705	40.95
738.886	39.98
739.067	40.74
739.247	40.42
739.428	40.12
739.609	39.91
739.79	39.98
739.971	39.98
740.151	38.91
740.332	37.74
740.513	38.29
740.694	38.03
740.874	39.18
741.055	38.69
741.236	39.3
741.417	39.3
741.597	38.73
741.778	39.2
741.958	38.66
742.139	40.43
742.32	40.22
742.5	40.5
742.681	40.13
742.861	38.96
743.042	39.17
743.222	39.13
743.403	38.58
743.583	38.87
743.764	38.27
743.944	39.08
744.124	37.75
744.305	39.03
744.485	39.11
744.666	39.71
744.846	40.56
745.026	41.14
745.207	40.55
745.387	41.99
745.567	43.15
745.747	44.03
745.928	43.86
746.108	44.7
746.288	43.35
746.468	42.61
746.648	43.37
746.829	43.11
747.009	42.54
747.189	42.51
747.369	42.37
747.549	40.78
747.729	39.96
747.909	39.74
748.089	39.53
748.269	39.84
748.449	40.5
748.629	39.67
748.809	39.77
748.989	40.36
749.169	40.3
749.349	39.44
749.529	39.83
749.709	39.8
749.889	38.68
750.068	38.55
750.248	38.84
750.428	38.84
750.608	37.8
750.788	38.48
750.967	38.14
751.147	38.44
751.327	39.3
751.507	39.95
751.686	39.77
751.866	40.46
752.046	40.43
752.225	40.77
752.405	40.7
752.585	40.66
752.764	40.31
752.944	40.67
753.123	40.85
753.303	40.37
753.482	39.98
753.662	40.49
753.841	40.5
754.021	40.32
754.2	39.91
754.38	40.01
754.559	41.02
754.739	41.25
754.918	41.06
755.097	40.37
755.277	40.49
755.456	40.37
755.635	40.29
755.815	41.45
755.994	41.46
756.173	41.16
756.352	41.55
756.532	41
756.711	40.36
756.89	40.13
757.069	40.52
757.248	40.92
757.427	41
757.607	40.98
757.786	40.62
757.965	40.6
758.144	40.71
758.323	38.97
758.502	39.87
758.681	39.3
758.86	39.48
759.039	39.27
759.218	38.89
759.397	37.53
759.576	37.48
759.755	37.06
759.934	36.97
760.113	37.73
760.291	38.22
760.47	37.56
760.649	37.67
760.828	36.76
761.007	36.16
761.186	35.81
761.364	37.16
761.543	36.76
761.722	36.96
761.901	36.84
762.079	35.79
762.258	36.24
762.437	36.06
762.615	36.64
762.794	37.38
762.972	37.55
763.151	37.7
763.33	37.23
763.508	37.47
763.687	37.68
763.865	37.44
764.044	37.34
764.222	37.24
764.401	37.75
764.579	38.1
764.758	37.68
764.936	38.7
765.114	38.53
765.293	38.74
765.471	39.2
765.65	38.21
765.828	38.65
766.006	38.75
766.184	39.27
766.363	39.52
766.541	38.96
766.719	39.76
766.898	38.57
767.076	39.17
767.254	39.54
767.432	38.78
767.61	39.56
767.788	39.49
767.967	39.49
768.145	39.08
768.323	38.38
768.501	38.19
768.679	37.46
768.857	37.86
769.035	37.7
769.213	37.98
769.391	38.64
769.569	39.62
769.747	39.85
769.925	40.4
770.103	39.92
770.281	39.86
770.459	41.19
770.636	39.56
770.814	39.54
770.992	39.04
771.17	39.4
771.348	39.31
771.525	38.51
771.703	39.12
771.881	38.76
772.059	39.67
772.236	38.93
772.414	37.45
772.592	40.02
772.769	40.9
772.947	42.27
773.125	41.04
773.302	41.89
773.48	41.09
773.657	41.67
773.835	42.57
774.013	42.21
774.19	43.18
774.368	43.61
774.545	42.17
774.723	41.52
774.9	40.27
775.077	41.61
775.255	39.28
775.432	39.7
775.61	38.12
775.787	36.44
775.964	37.6
776.142	37.6
776.319	37.08
776.496	38.43
776.674	38.53
776.851	38.62
777.028	37.91
777.205	38.57
777.382	39.22
777.56	40.28
777.737	43.49
777.914	42.54
778.091	43.34
778.268	43.66
778.445	43.93
778.622	44.42
778.8	45.86
778.977	44.66
779.154	53.18
779.331	52.46
779.508	51.58
779.685	50.08
779.862	48.84
780.038	48.2
780.215	49.45
780.392	49.12
780.569	50.39
780.746	48.26
780.923	49.84
781.1	41.77
781.277	43.14
781.453	43.98
781.63	42.95
781.807	43.05
781.984	41.52
782.16	40.16
782.337	39.57
782.514	37.15
782.691	38.56
782.867	38.34
783.044	39.8
783.221	39.05
783.397	39.09
783.574	38.25
783.75	39.68
783.927	43.08
784.103	42.87
784.28	44.78
784.456	44.64
784.633	43.32
784.809	41.8
784.986	40.46
785.162	41.54
785.339	40.86
785.515	44.1
785.692	43.65
785.868	43.2
786.044	43.9
786.221	44.11
786.397	46.2
786.573	46.67
786.749	46.91
786.926	46.41
787.102	46.02
787.278	47.04
787.454	46.06
787.631	45.95
787.807	45.74
787.983	45.19
788.159	44.01
788.335	43.31
788.511	43.24
788.687	44.04
788.863	44.2
789.039	43.19
789.216	42.27
789.392	41.38
789.568	43.04
789.744	41.16
789.919	42.72
790.095	41.29
790.271	40.13
790.447	40.66
790.623	41.31
790.799	41.46
790.975	41.95
791.151	42.05
791.327	41.88
791.502	40.6
791.678	41.71
791.854	41.97
792.03	43.18
792.205	43.72
792.381	42.63
792.557	41.4
792.733	40.66
792.908	41.18
793.084	42.34
793.259	42.6
793.435	43.05
793.611	45.06
793.786	43.51
793.962	44.34
794.137	44.06
794.313	45.4
794.488	44.49
794.664	45.32
794.839	44.67
795.015	43.14
795.19	44.3
795.366	43.29
795.541	40.47
795.716	40.6
795.892	40.15
796.067	41.83
796.242	41.37
796.418	42.35
796.593	42.82
796.768	43.28
796.944	44.95
797.119	43.97
797.294	46.46
797.469	48.11
797.644	48.12
797.82	47.78
797.995	48.05
798.17	47.28
798.345	46.68
798.52	45.69
798.695	46.22
798.87	44.6
799.045	44.33
799.22	42.61
799.395	41.11
799.57	41.08
799.745	42.01
799.92	41.25
800.095	44.1
800.27	44.34
800.445	45.95
800.62	45.3
800.795	44.84
800.97	45.26
801.145	45.72
801.319	45.77
801.494	45.43
801.669	45.87
801.844	45.13
802.018	42.76
802.193	42.82
802.368	41.27
802.543	41.75
802.717	45.04
802.892	46.64
803.067	45.74
803.241	44.1
803.416	44.62
803.59	44.75
803.765	46.17
803.94	46.17
804.114	48.01
804.289	50.36
804.463	49.18
804.638	47.31
804.812	45.44
804.986	45.65
805.161	48.72
805.335	49.07
805.51	47.36
805.684	47.36
805.858	47.27
806.033	44.47
806.207	42.31
806.381	42.83
806.556	40.56
806.73	43.19
806.904	43.26
807.078	42.95
807.253	42.66
807.427	42.91
807.601	41.59
807.775	42.38
807.949	42.92
808.123	43.88
808.298	43.53
808.472	45.72
808.646	44.27
808.82	44.9
808.994	43.41
809.168	44.22
809.342	46.97
809.516	46.07
809.69	46.27
809.864	49.44
810.038	49.68
810.212	49.99
810.385	49.58
810.559	49.13
810.733	48.12
810.907	48.59
811.081	46.29
811.255	43.25
811.428	45.48
811.602	44.57
811.776	44.31
811.95	43.96
812.123	44.71
812.297	44.43
812.471	44.65
812.644	44.92
812.818	45.35
812.992	47.45
813.165	46.62
813.339	44.91
813.512	47.17
813.686	44.48
813.86	43.66
814.033	43.68
814.207	44.67
814.38	44.73
814.554	44.17
814.727	44.78
814.9	43.02
815.074	44.79
815.247	45.89
815.421	44.11
815.594	44.14
815.767	43.97
815.941	43.99
816.114	44.79
816.287	43.53
816.46	43.2
816.634	44.42
816.807	44.49
816.98	42.14
817.153	43.84
817.327	45.04
817.5	46.65
817.673	48.32
817.846	47.65
818.019	48.57
818.192	48.85
818.365	48.37
818.538	47.43
818.711	48.76
818.884	51.92
819.057	51.31
819.23	52.94
819.403	51.48
819.576	51.13
819.749	51.42
819.922	48.26
820.095	47.18
820.268	48.2
820.441	48.38
820.614	46.76
820.786	46.4
820.959	46.29
821.132	43.52
821.305	41.97
821.477	39.58
821.65	39.26
821.823	39.29
821.996	39.33
822.168	38.42
822.341	37.06
822.514	36.57
822.686	35.68
822.859	34.76
823.031	34.69
823.204	34.98
823.376	35.04
823.549	34.05
823.722	33.63
823.894	33.74
824.067	33.53
824.239	33.68
824.411	34.26
824.584	33.85
824.756	34.18
824.929	34.15
825.101	33.99
825.273	34.28
825.446	35.09
825.618	35.05
825.79	34.33
825.963	34.71
826.135	34.64
826.307	34.29
826.479	35.35
826.652	35.31
826.824	35.51
826.996	36.15
827.168	36.1
827.34	35.6
827.512	36.37
827.684	37.33
827.856	36.71
828.029	37.1
828.201	37.05
828.373	37.15
828.545	36.63
828.717	36.61
828.889	35
829.061	35.49
829.232	35.38
829.404	34.84
829.576	34.32
829.748	34.71
829.92	33.44
830.092	34.89
830.264	35.33
830.436	36.01
830.607	35.71
830.779	38.15
830.951	38.45
831.123	38.96
831.294	38.62
831.466	39.2
831.638	41.56
831.809	43.75
831.981	43.17
832.153	42.08
832.324	43.12
832.496	43.41
832.667	44.83
832.839	45.38
833.011	45.48
833.182	47.86
833.354	46.65
833.525	44.22
833.697	44.07
833.868	44.51
834.039	44.58
834.211	41.24
834.382	40.46
834.554	38.72
834.725	37.1
834.896	38.78
835.068	38.08
835.239	39.35
835.41	39.64
835.581	39.16
835.753	37.64
835.924	38.64
836.095	42.43
836.266	42.53
836.438	42.96
836.609	44.18
836.78	43.24
836.951	41.86
837.122	42.23
837.293	42.39
837.464	42.63
837.635	42.97
837.806	43.81
837.977	43.89
838.148	45.96
838.319	46.39
838.49	47.62
838.661	48.52
838.832	51.6
839.003	51.88
839.174	51.52
839.345	54.73
839.516	53.37
839.687	50.03
839.857	46.12
840.028	45.36
840.199	46.9
840.37	45.73
840.54	48.93
840.711	50.36
840.882	49.05
841.053	50.92
841.223	48.07
841.394	51.67
841.564	53.32
841.735	55.05
841.906	52.35
842.076	47.86
842.247	47.92
842.417	45.26
842.588	47.78
842.758	52
842.929	53.23
843.099	56.9
843.27	57.72
843.44	59.95
843.611	61.05
843.781	68.5
843.951	73.18
844.122	74.55
844.292	77.51
844.462	73.14
844.633	69.03
844.803	70.7
844.973	68.62
845.144	66.43
845.314	64.07
845.484	69.09
845.654	62.13
845.824	66.73
845.995	67.78
846.165	66.8
846.335	65.3
846.505	61.59
846.675	64.64
846.845	64.33
847.015	66.6
847.185	69.17
847.355	63.44
847.525	70.14
847.695	71.42
847.865	72.33
848.035	72.85
848.205	74.19
848.375	79.33
848.545	71.8
848.715	75.35
848.884	72.57
849.054	70.57
849.224	74.68
849.394	73.61
849.564	70.01
849.733	69.67
849.903	71.78
850.073	75.64
850.243	80.64
850.412	83.9
850.582	84.29
850.752	88.31
850.921	85.81
851.091	83.06
851.26	83.09
851.43	84.47
851.599	85.41
851.769	86.59
851.939	81.38
852.108	76.61
852.278	72.31
852.447	70.73
852.616	71.89
852.786	70.38
852.955	70.56
853.125	66.92
853.294	61.07
853.463	65.22
853.633	61.97
853.802	60
853.971	59.23
854.141	69.85
854.31	70.47
854.479	64.6
854.648	70.74
854.818	70.21
854.987	78.17
855.156	83.14
855.325	74.96
855.494	72.67
855.663	75.04
855.832	73.88
856.001	76.81
856.171	76.95
856.34	76.57
856.509	82.27
856.678	84.43
856.847	77.95
857.016	74.89
857.185	79.63
857.353	86.18
857.522	88.87
857.691	94.26
857.86	93.06
858.029	88.89
858.198	92.44
858.367	87.51
858.535	85.96
858.704	90.22
858.873	97.46
859.042	90.64
859.21	91.57
859.379	90.77
859.548	89.53
859.717	88.54
859.885	96.29
860.054	100.15
860.222	96.34
860.391	101.1
860.56	107.63
860.728	99.23
860.897	101.41
861.065	96.08
861.234	91.76
861.402	94.5
861.571	95.62
861.739	86.86
861.908	85.91
862.076	92.14
862.244	85.95
862.413	80.2
862.581	74.16
862.749	77.56
862.918	75.81
863.086	75.58
863.254	70.72
863.423	70.64
863.591	80.67
863.759	73.93
863.927	78.58
864.096	81.07
864.264	83.25
864.432	90.2
864.6	93.84
864.768	88.8
864.936	94.11
865.104	88.83
865.272	88.53
865.44	84.6
865.608	85.82
865.776	72.26
865.944	69.34
866.112	64.4
866.28	61.61
866.448	54.86
866.616	60.37
866.784	60.24
866.952	61.99
867.12	60.04
867.288	58.21
867.455	60.8
867.623	68.25
867.791	75.99
867.959	72.72
868.127	78.77
868.294	79.71
868.462	74.78
868.63	73.02
868.797	75.95
868.965	75.46
869.133	75.5
869.3	77.71
869.468	80.81
869.636	72.4
869.803	81.41
869.971	83.44
870.138	86.24
870.306	89.81
870.473	89.72
870.641	84.53
870.808	87.13
870.975	96.89
871.143	96.6
871.31	95.77
871.478	102.55
871.645	98.79
871.812	101.01
871.98	100.11
872.147	104.79
872.314	106.34
872.482	111.05
872.649	113.81
872.816	103.73
872.983	115.75
873.15	109.19
873.318	106.26
873.485	101.42
873.652	91.27
873.819	85.44
873.986	88.6
874.153	87.53
874.32	85.49
874.487	79.95
874.654	82.37
874.821	75.05
874.988	76.28
875.155	71.02
875.322	80.05
875.489	77.17
875.656	83.64
875.823	75.64
875.99	67.61
876.157	63.09
876.324	63.76
876.49	57.33
876.657	47.79
876.824	48.03
876.991	48.01
877.157	46.19
877.324	57.77
877.491	60.86
877.658	61.31
877.824	61.62
877.991	68.68
878.157	68.47
878.324	71.45
878.491	79.67
878.657	82.9
878.824	86.48
878.99	85.79
879.157	85.72
879.323	82.17
879.49	75.31
879.656	79.7
879.823	78.52
879.989	77.69
880.156	72.63
880.322	62.8
880.488	63.29
880.655	59.51
880.821	57.87
880.987	52.29
881.154	48.36
881.32	51.17
881.486	48.95
881.652	47.92
881.819	46.23
881.985	47.9
882.151	48.67
882.317	45.57
882.483	46.12
882.649	45.87
882.816	45.19
882.982	44.16
883.148	44.65
883.314	42.66
883.48	41.73
883.646	40.81
883.812	39.81
883.978	39.8
884.144	40.63
884.31	39.81
884.476	40.3
884.642	41.59
884.807	42.01
884.973	41.96
885.139	41.93
885.305	43.04
885.471	44.13
885.637	44.66
885.802	44.88
885.968	46.23
886.134	47.09
886.3	45.06
886.465	45.89
886.631	47.13
886.797	47.41
886.962	49.9
887.128	51.82
887.293	53.86
887.459	55.83
887.625	60.99
887.79	62.29
887.956	63.16
888.121	68.57
888.287	68.41
888.452	71.01
888.618	73.62
888.783	77.6
