Data from LC_243_Reflection_3.txt Node
Date: Thu Nov 19 22:36:15 EST 2015
User: robert
Spectrometer: USB4E03001
Autoset integration time: false
Trigger mode: 4
Integration Time (sec): 1.000000E-1
Scans to average: 15
Electric dark correction enabled: true
Nonlinearity correction enabled: false
Boxcar width: 5
Stray light correction enabled: false
XAxis mode: Wavelengths
Stop averaging: false
Number of Pixels in Spectrum: 3648
>>>>>Begin Spectral Data<<<<<
177.566	18.57
177.785	22.43
178.005	37.61
178.225	25.81
178.445	45.25
178.665	7.67
178.885	12.58
179.105	-47.02
179.324	-42.12
179.544	-1.93
179.764	71.59
179.984	87.85
180.204	182.39
180.423	123.93
180.643	110.72
180.863	50.3
181.083	105.41
181.302	79.19
181.522	61.46
181.742	71.44
181.961	96.23
182.181	96.34
182.401	125.01
182.621	87.6
182.84	84.73
183.06	174.82
183.279	243.52
183.499	188.33
183.719	385.89
183.938	537.71
184.158	240.47
184.377	375.18
184.597	-220.62
184.816	2307.55
185.036	100
185.256	-708.89
185.475	-65.14
185.695	-25.07
185.914	-51.62
186.134	-106.03
186.353	42.82
186.572	53.45
186.792	52.5
187.011	167.87
187.231	695.74
187.45	534.95
187.67	64.25
187.889	63.37
188.108	80.21
188.328	83.66
188.547	70.2
188.766	161.07
188.986	133.63
189.205	-792.16
189.424	56.86
189.644	64.31
189.863	43.7
190.082	44.36
190.302	46.66
190.521	70.56
190.74	72.48
190.959	66.24
191.178	90.98
191.398	105.69
191.617	84.15
191.836	288.96
192.055	166.15
192.274	232.98
192.494	231.08
192.713	112.12
192.932	82.08
193.151	74.17
193.37	56.08
193.589	41.64
193.808	60.24
194.027	72.11
194.246	58.65
194.465	64.47
194.685	61.79
194.904	57.4
195.123	61.26
195.342	67.06
195.561	65.1
195.78	74.67
195.999	60.26
196.218	46.89
196.436	35.37
196.655	30.15
196.874	38.74
197.093	18.84
197.312	-18.6
197.531	6.14
197.75	53.76
197.969	92.69
198.188	-210.93
198.407	-107.21
198.625	-206.99
198.844	-162.86
199.063	-1678.69
199.282	-167.78
199.501	-186.97
199.719	-337.64
199.938	-95.1
200.157	-172.83
200.376	-154.29
200.594	-12.2
200.813	-674.83
201.032	-310.87
201.251	-414.9
201.469	-534.81
201.688	-101.05
201.907	-76.25
202.125	-192.54
202.344	12.76
202.563	-35.37
202.781	-85.79
203	-30.46
203.218	64.33
203.437	2.58
203.656	-1.02
203.874	35.96
204.093	-47.34
204.311	-34.27
204.53	-28.53
204.748	-57.48
204.967	-23.05
205.185	-49.37
205.404	-80.24
205.622	-165.68
205.841	-31.07
206.059	-37.41
206.278	-187.22
206.496	-117.39
206.715	-117.69
206.933	-127.49
207.151	-22.86
207.37	-95.25
207.588	-102.17
207.806	3.11
208.025	-6.32
208.243	-142.18
208.461	-221.22
208.68	-27.6
208.898	-72.07
209.116	-66.15
209.335	-156.06
209.553	-880.93
209.771	4513.45
209.989	-580.37
210.208	638.96
210.426	973.64
210.644	-180.44
210.862	-67.04
211.081	4.93
211.299	-6.13
211.517	43.53
211.735	61
211.953	54.97
212.171	51.36
212.39	72.29
212.608	63.43
212.826	82.22
213.044	67.21
213.262	38.37
213.48	33.2
213.698	54.61
213.916	35.71
214.134	22.46
214.352	33.83
214.57	60.59
214.788	217.76
215.006	117.01
215.224	10.65
215.442	148.78
215.66	107.47
215.878	77.21
216.096	-94.02
216.314	-185.86
216.532	-203.81
216.75	-517.28
216.968	147.85
217.185	752.23
217.403	1190.57
217.621	1775.9
217.839	-129.29
218.057	-45.26
218.275	14.18
218.492	3.81
218.71	21.47
218.928	21.01
219.146	17.25
219.363	22
219.581	13.2
219.799	22.19
220.017	19.8
220.234	27.78
220.452	27.12
220.67	19.55
220.887	36.84
221.105	27.48
221.323	30.79
221.54	36.8
221.758	32.01
221.976	22.03
222.193	8.75
222.411	-4.39
222.629	-16.79
222.846	-22.18
223.064	-23.87
223.281	-11.14
223.499	-22.53
223.716	-27.78
223.934	-36.27
224.151	-26
224.369	-20.3
224.586	-16.41
224.804	-4.4
225.021	4.42
225.239	-3.88
225.456	-5.33
225.674	-32.48
225.891	-26.92
226.108	-12.52
226.326	-20.39
226.543	-29.84
226.76	-31.72
226.978	-23.03
227.195	-29.51
227.413	-27
227.63	-23.16
227.847	-18.48
228.064	-8.18
228.282	-2.54
228.499	-4.36
228.716	-1.85
228.934	-1.79
229.151	-0.01
229.368	-0.03
229.585	3.08
229.802	2.66
230.02	2.64
230.237	3.69
230.454	3.08
230.671	-0.06
230.888	1.24
231.105	0.52
231.323	3.02
231.54	2.08
231.757	1.88
231.974	0.8
232.191	2.79
232.408	5.48
232.625	7.27
232.842	6.88
233.059	11.67
233.276	15.24
233.493	14.84
233.71	10.72
233.927	11.32
234.144	14.24
234.361	10.08
234.578	7.91
234.795	7.76
235.012	5.62
235.229	1.52
235.446	3.13
235.663	-4.6
235.879	-3.23
236.096	-4.61
236.313	-4.35
236.53	-4.93
236.747	-2.27
236.964	3.72
237.181	3.03
237.397	1.99
237.614	8.75
237.831	7.74
238.048	10.23
238.264	11.64
238.481	13.05
238.698	13.9
238.915	20.45
239.131	14.12
239.348	11.79
239.565	12.98
239.781	14.09
239.998	10.5
240.215	8.73
240.431	6.34
240.648	7.65
240.865	6.47
241.081	5.71
241.298	2.69
241.514	5.49
241.731	6.95
241.947	7.38
242.164	5.88
242.38	7.05
242.597	6.3
242.814	7.55
243.03	6.44
243.246	7.97
243.463	7.17
243.679	6.51
243.896	6.65
244.112	5.94
244.329	5.11
244.545	6.96
244.762	6.99
244.978	6.14
245.194	5.06
245.411	5.48
245.627	5.51
245.843	6.71
246.06	7.84
246.276	7.3
246.492	7.17
246.709	7.35
246.925	6.74
247.141	6.39
247.357	7.52
247.574	8.16
247.79	8.2
248.006	7.97
248.222	7.54
248.439	8.08
248.655	8.22
248.871	8.34
249.087	7.6
249.303	7.94
249.519	8.41
249.736	8.75
249.952	8.21
250.168	8.46
250.384	7.42
250.6	9.04
250.816	7.2
251.032	8.83
251.248	8.28
251.464	8.32
251.68	8.18
251.896	7.28
252.112	5.85
252.328	5.81
252.544	4.73
252.76	7.3
252.976	8.23
253.192	7.75
253.408	6.13
253.624	8.37
253.84	8.42
254.056	7.76
254.272	7.78
254.487	7.98
254.703	8.66
254.919	9.2
255.135	7.21
255.351	5.14
255.567	6.54
255.782	6.86
255.998	5.61
256.214	6.67
256.43	6.69
256.646	8.26
256.861	9.78
257.077	9.69
257.293	10.54
257.508	11.62
257.724	10.86
257.94	10.49
258.155	10.94
258.371	9.44
258.587	7.88
258.802	7.82
259.018	7.75
259.234	7.69
259.449	7.42
259.665	6.72
259.88	6.45
260.096	6.7
260.312	5.87
260.527	5.35
260.743	5.46
260.958	5.79
261.174	6.11
261.389	6.16
261.605	6.37
261.82	5.06
262.036	5.05
262.251	4.54
262.466	4.49
262.682	4.75
262.897	5.81
263.113	4.85
263.328	6.3
263.543	4.87
263.759	4.92
263.974	5.36
264.189	8.04
264.405	7.66
264.62	6.19
264.835	5.76
265.051	6.41
265.266	6.67
265.481	7.8
265.696	7.23
265.912	8.17
266.127	6.96
266.342	4.17
266.557	4.68
266.773	4.91
266.988	5.4
267.203	4.95
267.418	5.37
267.633	3.84
267.848	3.93
268.064	3.56
268.279	3.1
268.494	3.89
268.709	5.07
268.924	4.27
269.139	4.84
269.354	5.55
269.569	4.73
269.784	3.52
269.999	2.75
270.214	3.01
270.429	2.67
270.644	2.16
270.859	1.78
271.074	0.92
271.289	1.18
271.504	1.32
271.719	1.33
271.934	2.31
272.149	3.79
272.363	4.78
272.578	4.36
272.793	3.96
273.008	4.77
273.223	5.07
273.438	5.65
273.653	5.79
273.867	5.44
274.082	6.1
274.297	6.52
274.512	5.96
274.726	6.79
274.941	6.12
275.156	6.11
275.371	5.59
275.585	4.86
275.8	3.77
276.015	3.85
276.229	5.04
276.444	5.89
276.659	4.76
276.873	5.07
277.088	4.62
277.302	5.41
277.517	6.38
277.732	6.96
277.946	7.74
278.161	9.33
278.375	9.15
278.59	9.3
278.804	7.14
279.019	8.14
279.233	7.69
279.448	8.29
279.662	9.12
279.877	9.4
280.091	8.61
280.306	7.87
280.52	7.26
280.735	7.18
280.949	6.75
281.163	7.39
281.378	7.78
281.592	8.32
281.806	7.64
282.021	7.41
282.235	5.87
282.449	5.86
282.664	5.79
282.878	4.91
283.092	4.34
283.307	3.72
283.521	3.1
283.735	2.66
283.949	2.37
284.164	2.38
284.378	2
284.592	2.46
284.806	2.94
285.02	3.59
285.234	4.41
285.449	4.57
285.663	5.17
285.877	5.86
286.091	5.54
286.305	5.23
286.519	5.73
286.733	5.96
286.947	7.01
287.161	7.1
287.375	6.64
287.589	6.61
287.803	6.64
288.017	6.46
288.231	6.78
288.445	7.33
288.659	8.03
288.873	7.05
289.087	6.79
289.301	5.98
289.515	5.65
289.729	4.86
289.943	4.91
290.157	5.89
290.371	5.99
290.584	5.15
290.798	5.27
291.012	5.1
291.226	5.15
291.44	5.9
291.654	4.94
291.867	4.88
292.081	5.36
292.295	4.94
292.509	3.81
292.722	4.25
292.936	4.7
293.15	2.98
293.364	3.4
293.577	4.42
293.791	3.49
294.005	4.59
294.218	5.54
294.432	5.8
294.645	6.49
294.859	6.47
295.073	5.87
295.286	6.23
295.5	6.56
295.713	6.23
295.927	6.13
296.14	6.25
296.354	6.11
296.568	6.31
296.781	6.26
296.994	6.37
297.208	6.07
297.421	6.37
297.635	6.19
297.848	7.01
298.062	6.87
298.275	6.3
298.489	6.33
298.702	6.96
298.915	6.94
299.129	6.91
299.342	6.53
299.555	7.49
299.769	7.07
299.982	7.28
300.195	7.31
300.409	8.24
300.622	7.86
300.835	7.88
301.048	7.57
301.262	7.11
301.475	6.74
301.688	7.23
301.901	6.59
302.115	7.32
302.328	7.6
302.541	6.92
302.754	5.96
302.967	8.12
303.18	7.51
303.393	6.93
303.607	7.06
303.82	7.73
304.033	8.1
304.246	8.84
304.459	8.42
304.672	8.08
304.885	8.86
305.098	8.76
305.311	7.69
305.524	8.17
305.737	8.66
305.95	8.2
306.163	7.83
306.376	6.56
306.589	5.58
306.802	4.62
307.015	4.42
307.228	3.58
307.44	3.56
307.653	3.69
307.866	4.87
308.079	5.81
308.292	6.22
308.505	6.53
308.718	6.72
308.93	6.85
309.143	6.73
309.356	6.8
309.569	7.21
309.781	7.26
309.994	6.58
310.207	5.87
310.42	6.11
310.632	5.71
310.845	5.85
311.058	7.07
311.27	7.2
311.483	7.33
311.696	7.79
311.908	8.28
312.121	8.28
312.333	8.57
312.546	8.05
312.759	7.36
312.971	7.95
313.184	8.04
313.396	7.59
313.609	8.2
313.821	8.42
314.034	8.21
314.246	7.22
314.459	7.42
314.671	7.8
314.884	7.97
315.096	8.11
315.309	7.79
315.521	8.53
315.733	8.29
315.946	7.89
316.158	8.56
316.371	7.89
316.583	8.35
316.795	7.86
317.008	7.38
317.22	7.68
317.432	7.86
317.644	8.52
317.857	7.18
318.069	6.69
318.281	7.25
318.494	8.31
318.706	8.18
318.918	8.16
319.13	8.92
319.342	8.29
319.555	8.77
319.767	7.99
319.979	7.7
320.191	8.52
320.403	9.37
320.615	8.68
320.827	7.73
321.039	8.17
321.252	8.11
321.464	8.72
321.676	8.71
321.888	8.49
322.1	9.91
322.312	10.64
322.524	11.72
322.736	10.7
322.948	10.95
323.16	10.56
323.372	10.54
323.584	10.56
323.796	8.27
324.007	8.99
324.219	9.55
324.431	9.12
324.643	8.11
324.855	7.77
325.067	8.68
325.279	8.62
325.491	10.06
325.702	10.81
325.914	10.29
326.126	12.31
326.338	12.74
326.55	13.23
326.761	13.74
326.973	14.17
327.185	14.09
327.396	13.89
327.608	14.64
327.82	13.82
328.032	13.2
328.243	14.75
328.455	15.23
328.666	16.34
328.878	16.47
329.09	16.32
329.301	17.82
329.513	18.5
329.725	18.72
329.936	19.55
330.148	19.93
330.359	20.51
330.571	20.74
330.782	20.22
330.994	19.97
331.205	20.16
331.417	21.19
331.628	20.52
331.84	20.18
332.051	20.52
332.262	20.35
332.474	20.97
332.685	21.67
332.897	22.26
333.108	22.9
333.319	23.62
333.531	24.01
333.742	24.12
333.953	24.87
334.165	25.85
334.376	26.43
334.587	26.98
334.799	26.51
335.01	25.71
335.221	24.86
335.432	25.11
335.644	24
335.855	23.87
336.066	24.58
336.277	24.08
336.488	23.43
336.7	23.54
336.911	22.72
337.122	23.69
337.333	24.81
337.544	24.88
337.755	24.98
337.966	24.74
338.177	25.2
338.388	24.47
338.599	24.84
338.811	25.31
339.022	25.2
339.233	25.89
339.444	26.36
339.655	26.93
339.866	27.37
340.076	27.18
340.287	28.43
340.498	28.16
340.709	28.56
340.92	28.06
341.131	27.87
341.342	27.94
341.553	27.96
341.764	27.62
341.975	26.79
342.185	26.61
342.396	27.28
342.607	27.41
342.818	26.84
343.029	26.52
343.239	26.87
343.45	27.01
343.661	27.7
343.872	27.48
344.082	27.04
344.293	27.74
344.504	28.59
344.714	28.12
344.925	27.82
345.136	28.06
345.346	27.03
345.557	27.26
345.768	27.36
345.978	26.45
346.189	26.11
346.399	27.12
346.61	26.86
346.821	26.6
347.031	27.33
347.242	27.66
347.452	27.73
347.663	28.11
347.873	28.31
348.084	28.51
348.294	29.19
348.504	29.43
348.715	29.52
348.925	29.5
349.136	29.66
349.346	29.26
349.557	29.11
349.767	29.54
349.977	30.24
350.188	30.13
350.398	29.65
350.608	29.24
350.819	29.56
351.029	28.89
351.239	28.77
351.449	27.54
351.66	27.07
351.87	27.27
352.08	26.69
352.29	27.32
352.501	27.17
352.711	26.8
352.921	27.13
353.131	26.75
353.341	26.09
353.552	26.31
353.762	27.04
353.972	27.26
354.182	26.77
354.392	27.29
354.602	26.47
354.812	26.74
355.022	27.1
355.232	27.77
355.442	28.02
355.652	28.12
355.862	27.54
356.072	27.7
356.282	28.42
356.492	28.43
356.702	28.32
356.912	28.17
357.122	27.9
357.332	27.91
357.542	27.06
357.752	27.02
357.962	27.21
358.171	27.63
358.381	27.25
358.591	26.4
358.801	26.19
359.011	26.6
359.221	26.74
359.43	26.52
359.64	26.62
359.85	26.92
360.06	27.22
360.269	27.83
360.479	27.46
360.689	27.7
360.899	27.75
361.108	27.96
361.318	27.57
361.528	27.64
361.737	27.79
361.947	28.22
362.156	27.97
362.366	28.06
362.576	27.6
362.785	27.53
362.995	26.89
363.204	26.92
363.414	26.92
363.623	26.82
363.833	26.61
364.042	26.88
364.252	26.47
364.461	25.93
364.671	25.44
364.88	25.58
365.09	25.87
365.299	26.68
365.509	26.72
365.718	26.62
365.927	26.57
366.137	26.86
366.346	26.48
366.555	25.89
366.765	26.42
366.974	26.66
367.183	26.27
367.393	25.77
367.602	25.97
367.811	26.6
368.021	27.24
368.23	26.87
368.439	26.62
368.648	26.68
368.857	27.29
369.067	27.21
369.276	27.2
369.485	26.63
369.694	26.66
369.903	26.25
370.112	25.15
370.321	24.22
370.531	24.8
370.74	24.12
370.949	24.24
371.158	23.7
371.367	23.72
371.576	23.5
371.785	24.11
371.994	24.19
372.203	24.21
372.412	24.84
372.621	24.53
372.83	24.47
373.039	25.25
373.248	25.07
373.457	25.25
373.666	25.4
373.874	25.47
374.083	25.27
374.292	25.47
374.501	25.07
374.71	24.92
374.919	25.15
375.128	25.07
375.336	25.21
375.545	24.95
375.754	24.89
375.963	24.87
376.171	24.54
376.38	24.59
376.589	24.33
376.798	23.98
377.006	23.64
377.215	23.98
377.424	23.6
377.632	23.43
377.841	23.82
378.05	24.57
378.258	24.57
378.467	24.81
378.675	25.01
378.884	25.31
379.093	26.02
379.301	26.2
379.51	26.06
379.718	26.3
379.927	26.32
380.135	26.27
380.344	25.24
380.552	25.43
380.761	24.98
380.969	25.07
381.177	24.82
381.386	24.71
381.594	24.68
381.803	24.36
382.011	24.33
382.219	24.53
382.428	24.31
382.636	24.51
382.845	24.32
383.053	24.3
383.261	24.13
383.469	24.1
383.678	23.66
383.886	23.59
384.094	23.66
384.302	23.82
384.511	23.43
384.719	23.49
384.927	23.77
385.135	23.87
385.343	24.03
385.552	24.18
385.76	23.98
385.968	24.03
386.176	23.88
386.384	23.8
386.592	23.42
386.8	23.51
387.008	23.2
387.216	22.6
387.424	22.58
387.633	22.88
387.841	22.45
388.049	22.47
388.257	22.67
388.465	22.83
388.672	22.93
388.88	22.85
389.088	22.49
389.296	22.75
389.504	22.89
389.712	22.66
389.92	22.31
390.128	22.38
390.336	22.67
390.544	22.39
390.751	22.17
390.959	22.31
391.167	22.42
391.375	22.66
391.583	22.06
391.79	22.26
391.998	22.45
392.206	22.54
392.414	22.56
392.621	22.27
392.829	22.6
393.037	22.83
393.244	22.77
393.452	22.77
393.66	22.56
393.867	23.14
394.075	22.92
394.283	22.41
394.49	22.11
394.698	22.04
394.905	22.17
395.113	21.85
395.32	21.83
395.528	21.83
395.735	22.02
395.943	22.09
396.15	21.62
396.358	21.66
396.565	22.01
396.773	22.32
396.98	22.18
397.188	22.23
397.395	22.59
397.602	22.35
397.81	21.98
398.017	21.63
398.225	21.56
398.432	21.84
398.639	21.91
398.847	21.75
399.054	21.45
399.261	21.8
399.468	21.69
399.676	21.4
399.883	21.16
400.09	21.05
400.297	21.43
400.505	21.5
400.712	21.51
400.919	21.52
401.126	21.85
401.333	21.99
401.54	21.82
401.748	21.96
401.955	21.91
402.162	22.2
402.369	22.67
402.576	22.44
402.783	22.24
402.99	22.32
403.197	22.43
403.404	22.17
403.611	22.47
403.818	22.47
404.025	22.33
404.232	22.08
404.439	22.22
404.646	21.89
404.853	21.96
405.06	22.1
405.267	22.24
405.474	21.95
405.681	21.96
405.887	21.58
406.094	21.65
406.301	21.59
406.508	21.81
406.715	21.56
406.922	21.68
407.128	21.44
407.335	21.54
407.542	21.5
407.749	21.67
407.955	21.55
408.162	21.75
408.369	21.78
408.575	21.86
408.782	21.96
408.989	21.9
409.195	22.06
409.402	22.29
409.609	22.23
409.815	21.82
410.022	21.73
410.228	21.73
410.435	21.75
410.642	21.59
410.848	21.55
411.055	21.74
411.261	21.89
411.468	21.82
411.674	21.88
411.881	22
412.087	22.1
412.294	22.17
412.5	22.37
412.706	22.25
412.913	22.2
413.119	22.02
413.326	21.72
413.532	21.82
413.738	21.83
413.945	21.74
414.151	21.77
414.357	22.13
414.564	22.07
414.77	21.72
414.976	21.74
415.182	21.85
415.389	22.1
415.595	21.95
415.801	21.83
416.007	21.68
416.214	21.56
416.42	21.33
416.626	21.06
416.832	21.33
417.038	21.5
417.244	21.4
417.45	21.37
417.657	21.44
417.863	21.66
418.069	21.7
418.275	21.88
418.481	21.98
418.687	21.9
418.893	22.02
419.099	21.89
419.305	21.9
419.511	21.82
419.717	21.74
419.923	21.63
420.129	21.56
420.335	21.38
420.541	21.33
420.746	21.12
420.952	21.27
421.158	21.19
421.364	21.06
421.57	21.05
421.776	21.23
421.982	21.31
422.187	21.36
422.393	21.25
422.599	21.37
422.805	21.22
423.01	21.27
423.216	21.05
423.422	20.91
423.628	20.89
423.833	20.89
424.039	20.77
424.245	20.78
424.45	20.87
424.656	20.99
424.862	21.02
425.067	21.13
425.273	21.21
425.478	21.36
425.684	21.6
425.889	21.63
426.095	21.62
426.301	21.68
426.506	21.69
426.712	21.58
426.917	21.64
427.123	21.68
427.328	21.48
427.533	21.53
427.739	21.68
427.944	21.52
428.15	21.62
428.355	21.49
428.561	21.48
428.766	21.55
428.971	21.38
429.177	21.34
429.382	21.31
429.587	21.46
429.793	21.26
429.998	20.94
430.203	20.94
430.408	20.87
430.614	20.97
430.819	20.91
431.024	20.63
431.229	20.5
431.434	20.16
431.64	20.06
431.845	20.24
432.05	20.5
432.255	20.52
432.46	20.57
432.665	20.6
432.87	20.68
433.076	20.79
433.281	20.91
433.486	21.15
433.691	21.22
433.896	21.27
434.101	21.13
434.306	20.92
434.511	21.1
434.716	21.1
434.921	21.01
435.126	21.03
435.331	20.88
435.535	20.87
435.74	20.62
435.945	20.85
436.15	20.75
436.355	21.02
436.56	21.1
436.765	21.12
436.97	21.15
437.174	21.33
437.379	21.2
437.584	21.37
437.789	21.33
437.993	21.51
438.198	21.48
438.403	21.41
438.608	21.38
438.812	21.31
439.017	21.2
439.222	21.27
439.426	21.18
439.631	21.26
439.836	21.38
440.04	21.55
440.245	21.61
440.45	21.52
440.654	21.65
440.859	21.5
441.063	21.66
441.268	21.82
441.472	21.83
441.677	21.92
441.881	21.95
442.086	21.66
442.29	21.59
442.495	21.5
442.699	21.59
442.904	21.58
443.108	21.65
443.312	21.45
443.517	21.33
443.721	21.29
443.925	21.29
444.13	21.3
444.334	21.49
444.538	21.49
444.743	21.55
444.947	21.55
445.151	21.52
445.356	21.52
445.56	21.6
445.764	21.54
445.968	21.51
446.173	21.45
446.377	21.43
446.581	21.29
446.785	21.25
446.989	21.31
447.193	21.13
447.398	21.05
447.602	20.99
447.806	21.02
448.01	20.98
448.214	20.9
448.418	20.87
448.622	20.82
448.826	20.9
449.03	20.96
449.234	20.69
449.438	20.81
449.642	20.9
449.846	20.81
450.05	20.83
450.254	20.82
450.458	20.78
450.662	20.76
450.866	20.78
451.069	20.85
451.273	20.75
451.477	20.93
451.681	20.92
451.885	20.9
452.089	21.11
452.292	21.04
452.496	21.09
452.7	21.09
452.904	21.07
453.107	21.06
453.311	21.08
453.515	21.06
453.719	21.18
453.922	21.17
454.126	21.1
454.33	21.01
454.533	20.93
454.737	20.91
454.94	20.95
455.144	20.95
455.348	20.96
455.551	20.81
455.755	20.72
455.958	20.46
456.162	20.44
456.365	20.5
456.569	20.4
456.772	20.43
456.976	20.53
457.179	20.65
457.383	20.73
457.586	20.66
457.79	20.68
457.993	20.69
458.196	20.7
458.4	20.71
458.603	20.81
458.807	20.93
459.01	20.98
459.213	20.98
459.417	20.94
459.62	20.91
459.823	20.95
460.026	20.95
460.23	20.99
460.433	21.1
460.636	21.06
460.839	20.99
461.042	20.92
461.246	20.92
461.449	20.81
461.652	20.82
461.855	20.85
462.058	20.76
462.261	20.85
462.464	20.94
462.668	20.86
462.871	21.02
463.074	20.94
463.277	20.88
463.48	20.92
463.683	21.04
463.886	20.95
464.089	20.9
464.292	21.12
464.495	21.09
464.698	20.88
464.901	20.92
465.104	20.85
465.306	20.98
465.509	21.1
465.712	21.12
465.915	21.06
466.118	21.11
466.321	21.15
466.524	21.04
466.726	21.05
466.929	21.26
467.132	21.21
467.335	21.23
467.538	21.21
467.74	21.11
467.943	21.14
468.146	21.09
468.348	21.18
468.551	21.2
468.754	21.08
468.956	21.06
469.159	20.99
469.362	21.04
469.564	21.08
469.767	21.1
469.969	21.19
470.172	21.16
470.375	21.1
470.577	21.09
470.78	21.18
470.982	21.46
471.185	21.55
471.387	21.54
471.59	21.68
471.792	21.69
471.995	21.74
472.197	21.7
472.399	21.72
472.602	21.93
472.804	21.66
473.007	21.54
473.209	21.43
473.411	21.41
473.614	21.41
473.816	21.5
474.018	21.49
474.22	21.54
474.423	21.67
474.625	21.6
474.827	21.46
475.03	21.55
475.232	21.66
475.434	21.74
475.636	21.67
475.838	21.72
476.04	21.57
476.243	21.6
476.445	21.59
476.647	21.44
476.849	21.49
477.051	21.63
477.253	21.69
477.455	21.75
477.657	21.68
477.859	21.78
478.061	21.59
478.263	21.62
478.465	21.48
478.667	21.46
478.869	21.68
479.071	21.45
479.273	21.28
479.475	21.21
479.677	21.25
479.879	21.3
480.081	21.07
480.283	21.29
480.485	21.17
480.686	21.19
480.888	21.13
481.09	21
481.292	21.17
481.494	21.2
481.695	21.31
481.897	21.22
482.099	21.2
482.301	21.39
482.502	21.34
482.704	21.28
482.906	21.37
483.107	21.38
483.309	21.36
483.511	21.35
483.712	21.4
483.914	21.4
484.115	21.39
484.317	21.41
484.519	21.4
484.72	21.42
484.922	21.45
485.123	21.46
485.325	21.46
485.526	21.45
485.728	21.45
485.929	21.47
486.131	21.45
486.332	21.48
486.534	21.45
486.735	21.4
486.936	21.38
487.138	21.33
487.339	21.27
487.541	21.29
487.742	21.32
487.943	21.39
488.144	21.37
488.346	21.39
488.547	21.41
488.748	21.47
488.95	21.47
489.151	21.43
489.352	21.49
489.553	21.58
489.755	21.58
489.956	21.6
490.157	21.55
490.358	21.5
490.559	21.51
490.76	21.47
490.961	21.45
491.163	21.4
491.364	21.49
491.565	21.53
491.766	21.48
491.967	21.53
492.168	21.47
492.369	21.5
492.57	21.5
492.771	21.53
492.972	21.49
493.173	21.5
493.374	21.66
493.575	21.54
493.776	21.53
493.976	21.51
494.177	21.45
494.378	21.62
494.579	21.59
494.78	21.6
494.981	21.54
495.182	21.71
495.382	21.65
495.583	21.55
495.784	21.7
495.985	21.9
496.185	21.82
496.386	21.98
496.587	21.98
496.788	21.9
496.988	22.1
497.189	22.06
497.39	22.1
497.59	22.24
497.791	22.26
497.992	22.27
498.192	22.29
498.393	22.43
498.593	22.41
498.794	22.4
498.994	22.42
499.195	22.28
499.395	22.28
499.596	22.29
499.796	22.23
499.997	22.23
500.197	22.25
500.398	22.15
500.598	22.05
500.799	22.12
500.999	22.05
501.199	22.22
501.4	22.29
501.6	22.31
501.801	22.17
502.001	22.03
502.201	22.05
502.402	22.1
502.602	22.26
502.802	22.37
503.002	22.35
503.203	22.5
503.403	22.46
503.603	22.63
503.803	22.82
504.003	23.02
504.204	23.19
504.404	23.08
504.604	23.05
504.804	23.03
505.004	23.13
505.204	23.22
505.404	23.23
505.604	23.29
505.804	23.25
506.005	23.18
506.205	23.19
506.405	23.16
506.605	23.51
506.805	23.65
507.005	23.62
507.204	23.65
507.404	23.65
507.604	23.67
507.804	23.8
508.004	23.99
508.204	24.19
508.404	24.16
508.604	24.4
508.804	24.29
509.003	24.36
509.203	24.44
509.403	24.44
509.603	24.46
509.803	24.62
510.002	24.56
510.202	24.48
510.402	24.47
510.602	24.55
510.801	24.44
511.001	24.53
511.201	24.48
511.4	24.5
511.6	24.68
511.8	24.77
511.999	24.69
512.199	24.82
512.398	24.83
512.598	24.92
512.797	25.13
512.997	25.21
513.197	25.31
513.396	25.44
513.596	25.52
513.795	25.45
513.994	25.43
514.194	25.61
514.393	25.65
514.593	25.81
514.792	25.9
514.992	25.77
515.191	26
515.39	26.1
515.59	26.31
515.789	26.41
515.988	26.55
516.188	26.7
516.387	26.61
516.586	26.71
516.786	26.83
516.985	26.86
517.184	26.95
517.383	26.87
517.582	26.89
517.782	26.82
517.981	26.9
518.18	26.84
518.379	26.94
518.578	27.1
518.777	27.16
518.976	27.16
519.176	27.21
519.375	27.36
519.574	27.37
519.773	27.44
519.972	27.63
520.171	27.65
520.37	27.87
520.569	27.76
520.768	27.76
520.967	27.91
521.166	27.95
521.365	28.11
521.564	28.02
521.762	28.26
521.961	28.34
522.16	28.25
522.359	28.37
522.558	28.45
522.757	28.77
522.956	28.9
523.154	28.91
523.353	29.02
523.552	29.1
523.751	29.16
523.949	29.22
524.148	29.26
524.347	29.4
524.546	29.48
524.744	29.56
524.943	29.62
525.142	29.75
525.34	29.77
525.539	29.85
525.737	29.89
525.936	30.22
526.135	30.3
526.333	30.36
526.532	30.43
526.73	30.52
526.929	30.57
527.127	30.64
527.326	30.7
527.524	30.79
527.723	30.82
527.921	30.95
528.12	30.89
528.318	30.85
528.516	30.91
528.715	30.97
528.913	30.99
529.112	31.02
529.31	31.04
529.508	31.07
529.707	31.06
529.905	31.14
530.103	31.18
530.301	31.23
530.5	31.38
530.698	31.47
530.896	31.54
531.094	31.61
531.293	31.81
531.491	31.99
531.689	32.12
531.887	32.33
532.085	32.41
532.283	32.37
532.481	32.42
532.68	32.48
532.878	32.54
533.076	32.64
533.274	32.72
533.472	32.62
533.67	32.54
533.868	32.47
534.066	32.5
534.264	32.56
534.462	32.61
534.66	32.71
534.858	32.77
535.056	32.8
535.253	32.85
535.451	32.91
535.649	33.09
535.847	33.26
536.045	33.45
536.243	33.58
536.441	33.68
536.638	33.77
536.836	33.75
537.034	33.8
537.232	33.85
537.43	33.95
537.627	33.97
537.825	34.01
538.023	34
538.22	33.98
538.418	33.99
538.616	33.96
538.813	34.04
539.011	34.07
539.209	34.24
539.406	34.4
539.604	34.29
539.801	34.46
539.999	34.63
540.196	34.7
540.394	34.84
540.591	34.8
540.789	34.85
540.986	34.84
541.184	34.91
541.381	34.87
541.579	34.86
541.776	35.01
541.974	35
542.171	34.89
542.368	34.95
542.566	34.97
542.763	35.13
542.96	35.15
543.158	35.24
543.355	35.3
543.552	35.39
543.75	35.55
543.947	35.51
544.144	35.48
544.341	35.69
544.539	35.68
544.736	35.79
544.933	35.76
545.13	35.94
545.327	35.94
545.524	36.04
545.722	36.12
545.919	35.93
546.116	36.08
546.313	36.16
546.51	36.13
546.707	36.33
546.904	36.2
547.101	36.33
547.298	36.28
547.495	36.34
547.692	36.4
547.889	36.36
548.086	36.5
548.283	36.5
548.48	36.68
548.677	36.7
548.874	36.57
549.07	36.84
549.267	36.64
549.464	36.89
549.661	36.95
549.858	36.99
550.055	37.12
550.251	37.16
550.448	37.11
550.645	37.23
550.842	37.31
551.038	37.29
551.235	37.17
551.432	37.37
551.628	37.22
551.825	37.34
552.022	37.38
552.218	37.3
552.415	37.42
552.612	37.57
552.808	37.5
553.005	37.57
553.201	37.73
553.398	37.78
553.594	37.62
553.791	37.53
553.987	37.54
554.184	37.45
554.38	37.5
554.577	37.39
554.773	37.45
554.97	37.56
555.166	37.63
555.362	37.6
555.559	37.57
555.755	37.72
555.952	38.02
556.148	38.02
556.344	38.06
556.541	38.04
556.737	38.16
556.933	38.11
557.129	37.78
557.326	37.62
557.522	37.7
557.718	37.81
557.914	37.96
558.11	37.72
558.307	37.8
558.503	37.72
558.699	37.83
558.895	37.87
559.091	37.92
559.287	38.23
559.483	38.44
559.679	38.49
559.876	38.56
560.072	38.65
560.268	38.82
560.464	38.75
560.66	38.89
560.856	39.02
561.052	39.09
561.247	39.25
561.443	39.26
561.639	39.09
561.835	39.22
562.031	39.24
562.227	39.28
562.423	39.44
562.619	39.57
562.815	39.64
563.01	39.53
563.206	39.7
563.402	39.69
563.598	39.79
563.793	39.89
563.989	39.88
564.185	39.92
564.381	39.91
564.576	40
564.772	40.02
564.968	40.09
565.163	40.35
565.359	40.18
565.555	40.27
565.75	40.34
565.946	40.5
566.141	40.51
566.337	40.72
566.532	40.75
566.728	40.62
566.923	40.65
567.119	40.75
567.314	40.69
567.51	40.71
567.705	40.68
567.901	40.65
568.096	40.71
568.292	40.72
568.487	40.51
568.682	40.5
568.878	40.59
569.073	40.56
569.268	40.61
569.464	40.58
569.659	40.72
569.854	40.68
570.05	40.78
570.245	40.68
570.44	40.83
570.635	40.92
570.831	40.97
571.026	40.91
571.221	41.1
571.416	41
571.611	41.2
571.806	41.21
572.002	41.29
572.197	41.26
572.392	41.46
572.587	41.52
572.782	41.34
572.977	41.46
573.172	41.6
573.367	41.59
573.562	41.79
573.757	41.84
573.952	41.74
574.147	41.58
574.342	41.7
574.537	41.49
574.732	41.32
574.927	41.38
575.121	41.45
575.316	41.51
575.511	41.39
575.706	41.26
575.901	40.94
576.096	41.16
576.29	41.35
576.485	41.15
576.68	41.15
576.875	41.12
577.069	41.26
577.264	41
577.459	40.88
577.654	41.04
577.848	40.99
578.043	41.47
578.238	41.36
578.432	41.27
578.627	41.42
578.821	41.6
579.016	41.7
579.21	41.79
579.405	42.07
579.6	42.05
579.794	42.09
579.989	42.07
580.183	41.82
580.378	41.89
580.572	41.93
580.766	41.9
580.961	41.79
581.155	41.91
581.35	42.04
581.544	42.29
581.738	42.37
581.933	42.32
582.127	42.34
582.321	42.51
582.516	42.76
582.71	42.92
582.904	43
583.099	43.11
583.293	43.25
583.487	43
583.681	42.89
583.875	42.87
584.07	43.22
584.264	43.27
584.458	43.21
584.652	43.07
584.846	43.09
585.04	43.23
585.234	43.58
585.428	43.41
585.623	43.67
585.817	43.41
586.011	43.54
586.205	43.13
586.399	43.68
586.593	43.62
586.787	43.66
586.981	43.85
587.174	43.86
587.368	43.6
587.562	43.77
587.756	43.65
587.95	43.68
588.144	43.58
588.338	43.69
588.532	43.25
588.725	43.22
588.919	43.01
589.113	42.88
589.307	42.82
589.501	42.85
589.694	42.84
589.888	42.89
590.082	43.07
590.275	43.06
590.469	43.1
590.663	43.22
590.856	43.25
591.05	43.3
591.244	43.48
591.437	43.62
591.631	43.76
591.824	43.69
592.018	43.58
592.212	43.61
592.405	43.7
592.599	43.74
592.792	44
592.986	44.03
593.179	44.44
593.372	44.46
593.566	44.41
593.759	44.24
593.953	44.49
594.146	44.8
594.339	44.88
594.533	44.85
594.726	44.82
594.92	44.77
595.113	44.85
595.306	44.78
595.499	44.52
595.693	44.57
595.886	44.73
596.079	44.85
596.272	44.77
596.466	44.89
596.659	44.79
596.852	44.78
597.045	44.62
597.238	44.66
597.431	44.54
597.624	44.61
597.818	44.55
598.011	44.6
598.204	44.51
598.397	44.79
598.59	44.57
598.783	44.8
598.976	44.91
599.169	45.05
599.362	44.82
599.555	44.81
599.748	44.89
599.941	45
600.134	45.01
600.326	44.82
600.519	44.55
600.712	44.65
600.905	44.92
601.098	45.13
601.291	45.21
601.483	45.51
601.676	45.63
601.869	45.86
602.062	45.94
602.255	46.12
602.447	46.46
602.64	46.58
602.833	46.53
603.025	46.63
603.218	46.31
603.411	46.18
603.603	46.1
603.796	46.14
603.989	45.91
604.181	45.73
604.374	45.61
604.566	45.36
604.759	45.15
604.951	45.14
605.144	44.83
605.336	44.95
605.529	44.88
605.721	44.86
605.914	44.8
606.106	44.89
606.299	44.96
606.491	44.93
606.683	44.88
606.876	45.08
607.068	45.04
607.26	45.17
607.453	45.36
607.645	45.46
607.837	45.65
608.03	45.84
608.222	45.98
608.414	45.92
608.606	45.9
608.799	46.12
608.991	46.06
609.183	46.23
609.375	46.35
609.567	46.4
609.759	46.43
609.952	46.59
610.144	46.6
610.336	46.47
610.528	46.64
610.72	46.58
610.912	46.71
611.104	46.89
611.296	46.68
611.488	46.59
611.68	46.5
611.872	46.44
612.064	46.32
612.256	46.24
612.448	46.35
612.64	46.42
612.832	46.81
613.023	46.67
613.215	46.57
613.407	46.75
613.599	46.49
613.791	46.33
613.983	46.59
614.174	46.38
614.366	46.36
614.558	46.16
614.75	46.06
614.941	45.99
615.133	46.02
615.325	46.09
615.516	46.13
615.708	46.23
615.9	46.3
616.091	46.16
616.283	46.19
616.475	46.29
616.666	46.52
616.858	46.65
617.049	46.52
617.241	46.35
617.432	46.38
617.624	46.47
617.815	46.72
618.007	46.84
618.198	46.8
618.39	46.93
618.581	47.07
618.773	46.95
618.964	46.78
619.155	46.78
619.347	46.91
619.538	46.93
619.729	46.95
619.921	46.97
620.112	46.98
620.303	47.15
620.494	47.18
620.686	46.89
620.877	46.97
621.068	46.85
621.259	46.84
621.451	47
621.642	46.82
621.833	46.54
622.024	46.44
622.215	46.03
622.406	46.16
622.597	46.05
622.788	46.35
622.98	46.2
623.171	46.35
623.362	46.53
623.553	46.51
623.744	46.58
623.935	46.72
624.126	46.7
624.317	47.15
624.508	46.84
624.698	46.98
624.889	46.73
625.08	47
625.271	46.99
625.462	46.89
625.653	46.67
625.844	46.75
626.034	46.92
626.225	47.04
626.416	46.98
626.607	47.22
626.798	47.2
626.988	47.15
627.179	47.05
627.37	47.02
627.56	46.93
627.751	46.98
627.942	47.1
628.132	47.08
628.323	46.85
628.514	46.89
628.704	46.86
628.895	46.8
629.085	46.83
629.276	46.9
629.466	47.18
629.657	47.49
629.847	47.61
630.038	47.62
630.228	47.46
630.419	47.48
630.609	47.47
630.8	47.43
630.99	47.74
631.181	47.86
631.371	47.67
631.561	47.55
631.752	47.13
631.942	47.13
632.132	46.77
632.323	46.94
632.513	46.96
632.703	46.83
632.893	46.71
633.084	46.62
633.274	46.77
633.464	47.08
633.654	46.93
633.844	47.02
634.034	47.1
634.225	47.35
634.415	47.38
634.605	47.27
634.795	47.46
634.985	47.42
635.175	47.13
635.365	47.03
635.555	47.02
635.745	47.24
635.935	47.39
636.125	47.12
636.315	46.92
636.505	46.87
636.695	47.17
636.885	47.15
637.075	47.43
637.265	47.81
637.455	47.8
637.644	47.55
637.834	47.26
638.024	47.23
638.214	47.37
638.404	47.66
638.593	47.72
638.783	47.68
638.973	47.57
639.163	47.54
639.352	47.25
639.542	47.23
639.732	47.31
639.921	47.53
640.111	47.27
640.301	47.43
640.49	47.52
640.68	47.22
640.87	47.44
641.059	47.78
641.249	47.77
641.438	48.06
641.628	48.15
641.817	48.25
642.007	48.07
642.196	48.1
642.386	47.85
642.575	47.96
642.764	48.6
642.954	48.55
643.143	48.57
643.333	48.62
643.522	48.26
643.711	48.42
643.901	48.57
644.09	48.93
644.279	49.37
644.469	49.41
644.658	48.85
644.847	48.32
645.036	48.29
645.226	48.12
645.415	47.65
645.604	47.42
645.793	47.38
645.982	47.17
646.171	46.88
646.361	46.97
646.55	47.07
646.739	47.35
646.928	47.58
647.117	47.68
647.306	47.33
647.495	47.36
647.684	47.64
647.873	47.49
648.062	47.59
648.251	47.51
648.44	46.98
648.629	46.96
648.818	47.13
649.007	46.86
649.196	46.87
649.384	47.32
649.573	47.66
649.762	47.7
649.951	48.03
650.14	48.01
650.328	48.07
650.517	48.45
650.706	48.36
650.895	48.41
651.083	48.63
651.272	48.2
651.461	48.16
651.65	48.2
651.838	48.17
652.027	48.08
652.216	48.3
652.404	48.23
652.593	47.75
652.781	47.8
652.97	47.44
653.158	47.31
653.347	47.45
653.535	47.44
653.724	47.14
653.912	47.54
654.101	47.57
654.289	47.32
654.478	47.38
654.666	47.55
654.855	47.74
655.043	47.98
655.231	47.78
655.42	48.02
655.608	48.04
655.796	48.22
655.985	47.99
656.173	47.97
656.361	48.06
656.55	47.87
656.738	47.82
656.926	47.86
657.114	48
657.302	48.07
657.491	47.74
657.679	47.64
657.867	47.46
658.055	47.5
658.243	47.33
658.431	47.44
658.619	47.8
658.807	47.86
658.996	48.15
659.184	48.09
659.372	47.92
659.56	48.12
659.748	48.18
659.936	48.46
660.124	48.37
660.311	48.53
660.499	48.18
660.687	48.18
660.875	48.53
661.063	48.19
661.251	48.25
661.439	48.74
661.627	48.73
661.814	48.78
662.002	48.59
662.19	49.14
662.378	49.07
662.565	49.25
662.753	49.38
662.941	49.33
663.129	49.33
663.316	48.96
663.504	48.52
663.692	48.61
663.879	48.37
664.067	48.53
664.254	48.46
664.442	48.49
664.63	48.67
664.817	48.5
665.005	48.7
665.192	48.61
665.38	48.5
665.567	49.15
665.755	49.36
665.942	49.48
666.13	49.72
666.317	49.31
666.504	49.22
666.692	49.1
666.879	49.16
667.067	49.23
667.254	49.28
667.441	49.89
667.629	49.34
667.816	48.79
668.003	48.65
668.19	48.82
668.378	48.68
668.565	48.79
668.752	49.05
668.939	48.88
669.127	48.6
669.314	48.61
669.501	48.2
669.688	48.76
669.875	48.78
670.062	49.28
670.249	48.89
670.436	49.01
670.623	49.14
670.81	49.07
670.997	49.08
671.184	48.54
671.371	48.79
671.558	48.99
671.745	49
671.932	49.5
672.119	48.89
672.306	49.2
672.493	49.13
672.68	49.29
672.867	49.8
673.054	50.14
673.24	51.1
673.427	51.16
673.614	51.24
673.801	51.04
673.988	51
674.174	51.48
674.361	51.53
674.548	51.87
674.734	51.72
674.921	51.06
675.108	50.99
675.294	50.35
675.481	50.36
675.668	50.22
675.854	50.51
676.041	50.51
676.227	50.73
676.414	50.37
676.601	49.9
676.787	49.85
676.974	49.52
677.16	49.53
677.347	49.94
677.533	49.45
677.719	49.67
677.906	49.28
678.092	49.11
678.279	48.79
678.465	48.87
678.651	48.77
678.838	48.63
679.024	49.13
679.21	48.75
679.397	48.4
679.583	48.78
679.769	48.57
679.955	48.66
680.142	48.96
680.328	49.09
680.514	48.83
680.7	48.99
680.886	49.28
681.073	49.49
681.259	49.81
681.445	49.89
681.631	49.95
681.817	50.18
682.003	49.83
682.189	49.71
682.375	49.55
682.561	49.71
682.747	49.93
682.933	49.72
683.119	49.47
683.305	49.49
683.491	49.35
683.677	49.23
683.863	49.34
684.049	49.99
684.235	49.66
684.42	49.36
684.606	49.8
684.792	49.94
684.978	50.2
685.164	50.21
685.349	50.26
685.535	50.37
685.721	50.1
685.907	50.07
686.092	49.88
686.278	50.67
686.464	51.26
686.649	50.78
686.835	50.45
687.021	50.25
687.206	50.04
687.392	50.1
687.577	50
687.763	49.9
687.948	49.65
688.134	49.4
688.319	48.7
688.505	48.39
688.69	48.6
688.876	48.52
689.061	48
689.247	48.07
689.432	47.63
689.618	47.65
689.803	48.29
689.988	48.75
690.174	48.76
690.359	49
690.544	49.08
690.73	49.29
690.915	49.57
691.1	49.36
691.285	49.72
691.471	50.4
691.656	50.93
691.841	50.61
692.026	50.09
692.211	50.59
692.396	50.11
692.582	49.55
692.767	49.26
692.952	49.36
693.137	50.18
693.322	50.1
693.507	49.56
693.692	49.53
693.877	49.39
694.062	49.58
694.247	49.09
694.432	49.67
694.617	50.21
694.802	50.43
694.987	50.61
695.172	50.32
695.357	50.48
695.541	50.94
695.726	50.65
695.911	50.93
696.096	50.18
696.281	50.57
696.466	50.8
696.65	50.86
696.835	50.91
697.02	50.19
697.204	50.83
697.389	50.33
697.574	50.23
697.759	49.86
697.943	49.84
698.128	50.25
698.312	50.19
698.497	49.93
698.682	49.98
698.866	49.64
699.051	49.84
699.235	49.58
699.42	49.69
699.604	49.64
699.789	49.87
699.973	49.95
700.158	49.98
700.342	49.95
700.527	50.43
700.711	50.34
700.895	50.46
701.08	50.69
701.264	50.36
701.448	50.42
701.633	50.29
701.817	50.58
702.001	50.25
702.186	50.72
702.37	50.9
702.554	50.07
702.738	50.09
702.923	50.1
703.107	50.35
703.291	50.76
703.475	50.47
703.659	51.22
703.843	51.44
704.027	51.64
704.212	51.01
704.396	51.05
704.58	51.1
704.764	51.13
704.948	51.41
705.132	51.35
705.316	51.25
705.5	51.62
705.684	51.22
705.868	51.38
706.052	52.07
706.235	52.28
706.419	51.78
706.603	52.2
706.787	52.31
706.971	51.92
707.155	51.41
707.339	51.48
707.522	51.41
707.706	51.07
707.89	50.54
708.074	50.25
708.257	50.01
708.441	50.24
708.625	49.96
708.808	50.31
708.992	50.33
709.176	50.48
709.359	50.37
709.543	50.64
709.727	50.69
709.91	50.76
710.094	50.83
710.277	51.02
710.461	50.34
710.644	50.52
710.828	49.86
711.011	50.46
711.195	50.5
711.378	51.25
711.562	51.03
711.745	51.09
711.928	50.98
712.112	50.61
712.295	50.44
712.478	50.95
712.662	51.68
712.845	51.77
713.028	51.04
713.212	50.77
713.395	50.51
713.578	50.36
713.761	50.46
713.945	50.23
714.128	50.01
714.311	50.73
714.494	50.81
714.677	49.87
714.86	50.04
715.043	50.4
715.227	50.33
715.41	49.75
715.593	50.16
715.776	50.28
715.959	50.37
716.142	50.51
716.325	49.68
716.508	49.79
716.691	50.03
716.874	50.21
717.057	50.17
717.239	50.39
717.422	50.16
717.605	50.05
717.788	50
717.971	50.72
718.154	51.48
718.337	51.65
718.519	51.45
718.702	51.29
718.885	51.01
719.068	50.42
719.25	50.8
719.433	50.8
719.616	50.62
719.798	49.84
719.981	49.72
720.164	49.39
720.346	50.12
720.529	49.06
720.712	48.91
720.894	49.21
721.077	49.55
721.259	49.97
721.442	50.44
721.624	50.66
721.807	51.3
721.989	50.89
722.172	50.49
722.354	50.05
722.537	51.37
722.719	52.27
722.901	52.35
723.084	52.66
723.266	51.95
723.448	52.01
723.631	52.68
723.813	52.83
723.995	53.11
724.178	52.36
724.36	52.28
724.542	52.17
724.724	51.42
724.907	51.82
725.089	51.67
725.271	51.84
725.453	51.85
725.635	51.02
725.817	52.03
725.999	51.63
726.181	52.38
726.364	52.8
726.546	52.65
726.728	53.15
726.91	52.38
727.092	52.4
727.274	52.07
727.456	51.99
727.638	51.99
727.819	50.42
728.001	50.84
728.183	50.52
728.365	50.29
728.547	50.6
728.729	50.22
728.911	50.97
729.093	51.29
729.274	51.66
729.456	51.36
729.638	51.2
729.82	51.88
730.001	51.35
730.183	51.72
730.365	51.56
730.546	51.46
730.728	50.96
730.91	50.73
731.091	50.66
731.273	50.26
731.455	50.97
731.636	51.59
731.818	51.11
731.999	50.89
732.181	51
732.362	50.98
732.544	50.94
732.725	51.58
732.907	51.47
733.088	51.88
733.27	52.31
733.451	52.29
733.633	52.47
733.814	52.59
733.995	52.42
734.177	52.38
734.358	53.14
734.539	52.92
734.721	53.02
734.902	52.34
735.083	52.09
735.264	51.52
735.446	51.29
735.627	50.78
735.808	51.03
735.989	51.18
736.17	51.51
736.351	50.83
736.533	51.39
736.714	51.19
736.895	52.26
737.076	51.99
737.257	51.99
737.438	52.07
737.619	51.57
737.8	51.4
737.981	52.12
738.162	52.15
738.343	52.25
738.524	52.2
738.705	52.83
738.886	52.4
739.067	52.94
739.247	53.19
739.428	52.88
739.609	53.1
739.79	53.89
739.971	54.57
740.151	53.7
740.332	53.84
740.513	53.69
740.694	52.88
740.874	52.1
741.055	52.23
741.236	53.2
741.417	53.95
741.597	54.06
741.778	52.71
741.958	51.59
742.139	51.63
742.32	51.4
742.5	51.46
742.681	51.48
742.861	53.21
743.042	51.86
743.222	51.2
743.403	50.73
743.583	50.96
743.764	52.04
743.944	52.49
744.124	52.61
744.305	52.69
744.485	52.68
744.666	51.97
744.846	50.42
745.026	50.9
745.207	49.99
745.387	49.75
745.567	49.2
745.747	48.74
745.928	49.12
746.108	49.52
746.288	49.61
746.468	50.07
746.648	51.81
746.829	51.61
747.009	52.19
747.189	52.6
747.369	53.34
747.549	53.75
747.729	53.15
747.909	53.07
748.089	53.16
748.269	53.41
748.449	52.72
748.629	52.14
748.809	52.97
748.989	52.52
749.169	53.6
749.349	52.61
749.529	52.49
749.709	54
749.889	53.66
750.068	53.27
750.248	52.65
750.428	52.03
750.608	51.99
750.788	51.67
750.967	51.8
751.147	51.75
751.327	51.41
751.507	50.53
751.686	50.11
751.866	50.46
752.046	50.77
752.225	52.03
752.405	53.12
752.585	52.23
752.764	52.73
752.944	52.73
753.123	51.47
753.303	53.27
753.482	54.31
753.662	54.18
753.841	54.05
754.021	54.06
754.2	53.26
754.38	53.22
754.559	54.5
754.739	53.13
754.918	52.89
755.097	53.24
755.277	52.76
755.456	52.35
755.635	51.74
755.815	51.89
755.994	52.35
756.173	51.04
756.352	50.66
756.532	50.3
756.711	51.74
756.89	52.56
757.069	52.92
757.248	51.66
757.427	52.45
757.607	52.41
757.786	52.13
757.965	51.48
758.144	52.68
758.323	52.17
758.502	50.62
758.681	50.62
758.86	49.45
759.039	49.8
759.218	50.41
759.397	50.58
759.576	50.59
759.755	50.13
759.934	50.17
760.113	50.04
760.291	50.88
760.47	51.57
760.649	52.08
760.828	52.45
761.007	51.87
761.186	51.47
761.364	50.94
761.543	51.01
761.722	51.69
761.901	51.49
762.079	51.3
762.258	50.93
762.437	51.44
762.615	50.91
762.794	51.71
762.972	51.68
763.151	51.8
763.33	51.43
763.508	51.18
763.687	51.05
763.865	50.79
764.044	51.28
764.222	51.22
764.401	51.57
764.579	51.14
764.758	50.64
764.936	50.53
765.114	51.06
765.293	50.94
765.471	51.44
765.65	50.69
765.828	51.51
766.006	51.53
766.184	51.7
766.363	51.52
766.541	51.92
766.719	52.12
766.898	52.44
767.076	52.23
767.254	52.7
767.432	53.07
767.61	53.71
767.788	53
767.967	52.92
768.145	54.03
768.323	53.63
768.501	52.74
768.679	52.54
768.857	51.78
769.035	51.73
769.213	52.71
769.391	52.39
769.569	51.1
769.747	51.02
769.925	49.92
770.103	48.5
770.281	48.8
770.459	50.24
770.636	50.58
770.814	51.33
770.992	51.31
771.17	50.56
771.348	49.33
771.525	50.88
771.703	52.16
771.881	53.3
772.059	52.9
772.236	53.06
772.414	53.45
772.592	53.27
772.769	54.05
772.947	53.52
773.125	54.93
773.302	57.12
773.48	57.38
773.657	58.06
773.835	57.74
774.013	59.7
774.19	58.84
774.368	58.6
774.545	59.01
774.723	57.1
774.9	58.27
775.077	56.26
775.255	53.74
775.432	53.91
775.61	52.64
775.787	52.35
775.964	50.07
776.142	51.53
776.319	51.04
776.496	49.93
776.674	50.62
776.851	50.17
777.028	50.74
777.205	53.64
777.382	53.94
777.56	52.9
777.737	52.05
777.914	52.71
778.091	53.6
778.268	53.92
778.445	55.56
778.622	56.26
778.8	57.9
778.977	57.39
779.154	66.11
779.331	65.2
779.508	66.57
779.685	67.88
779.862	68.54
780.038	68.45
780.215	67.37
780.392	65.72
780.569	68.68
780.746	66.25
780.923	66.53
781.1	56.25
781.277	55.88
781.453	55.77
781.63	56.03
781.807	56.05
781.984	54.1
782.16	55.39
782.337	55.68
782.514	53.47
782.691	55.01
782.867	54.38
783.044	52.62
783.221	52.41
783.397	52.29
783.574	52.51
783.75	53.22
783.927	54.39
784.103	55.83
784.28	56.29
784.456	55.74
784.633	54.34
784.809	55.15
784.986	56.19
785.162	57.44
785.339	56.62
785.515	55.96
785.692	56.12
785.868	55.59
786.044	51.63
786.221	51.43
786.397	49.97
786.573	50.34
786.749	50.36
786.926	51.51
787.102	51.41
787.278	53.53
787.454	53.35
787.631	52.84
787.807	53.19
787.983	53.71
788.159	54.53
788.335	56.11
788.511	56.53
788.687	56.62
788.863	56.07
789.039	55.44
789.216	54.47
789.392	55.47
789.568	55.79
789.744	56.42
789.919	59.19
790.095	59.07
790.271	58.41
790.447	56.98
790.623	57.19
790.799	57.27
790.975	57.72
791.151	58.05
791.327	57.88
791.502	56.85
791.678	56.37
791.854	55.02
792.03	55.27
792.205	54.52
792.381	56.81
792.557	57.16
792.733	56.92
792.908	56.89
793.084	56.27
793.259	55.88
793.435	54.17
793.611	53.66
793.786	53.6
793.962	51.64
794.137	53.25
794.313	51.52
794.488	50.43
794.664	50.74
794.839	50.65
795.015	48.91
795.19	46.89
795.366	49.3
795.541	49
795.716	48.03
795.892	49.77
796.067	49.18
796.242	49.61
796.418	49.19
796.593	48.32
796.768	50.02
796.944	50.1
797.119	50
797.294	50.87
797.469	51.97
797.644	53.95
797.82	52.26
797.995	52.26
798.17	52.44
798.345	52.18
798.52	53.25
798.695	52.06
798.87	53.42
799.045	54.85
799.22	53.5
799.395	52.47
799.57	51.77
799.745	52.81
799.92	53.07
800.095	52.31
800.27	51.44
800.445	52.05
800.62	51.01
800.795	51.74
800.97	51.54
801.145	50.87
801.319	49.15
801.494	48.45
801.669	48.82
801.844	48.5
802.018	49.37
802.193	50.41
802.368	48.22
802.543	48.53
802.717	44.29
802.892	44.57
803.067	45.67
803.241	48.57
803.416	48.15
803.59	46.79
803.765	48.09
803.94	45.98
804.114	47.97
804.289	50.35
804.463	50.97
804.638	54.63
804.812	55.6
804.986	55.98
805.161	54.67
805.335	55.04
805.51	56.06
805.684	55.13
805.858	55.15
806.033	53.38
806.207	50.48
806.381	51.35
806.556	52.87
806.73	53.79
806.904	53.86
807.078	55.14
807.253	55.59
807.427	54.28
807.601	54.19
807.775	54.87
807.949	54.85
808.123	55.31
808.298	52.93
808.472	51.89
808.646	49.63
808.82	50.47
808.994	49.87
809.168	48.49
809.342	48.61
809.516	49.29
809.69	47.7
809.864	48.67
810.038	52.75
810.212	51.69
810.385	51.84
810.559	52.94
810.733	51.42
810.907	52.81
811.081	53.91
811.255	55.19
811.428	56.29
811.602	59.18
811.776	57.43
811.95	54.36
812.123	56.46
812.297	54.64
812.471	53.71
812.644	53.82
812.818	54.69
812.992	55.52
813.165	55.81
813.339	51.91
813.512	52.29
813.686	52.49
813.86	53.45
814.033	52.78
814.207	56.1
814.38	55.34
814.554	55.22
814.727	54.04
814.9	53.05
815.074	52.19
815.247	54.47
815.421	52.84
815.594	54.34
815.767	53.81
815.941	51.58
816.114	50.43
816.287	54.6
816.46	53.9
816.634	53.38
816.807	50.75
816.98	52.77
817.153	50.65
817.327	53.84
817.5	52.79
817.673	56.28
817.846	58.54
818.019	55.48
818.192	55.16
818.365	53.59
818.538	51.99
818.711	54.76
818.884	52.25
819.057	54.57
819.23	52.55
819.403	53.88
819.576	52.84
819.749	54.04
819.922	57.68
820.095	55.74
820.268	55.99
820.441	58.36
820.614	56.57
820.786	57.02
820.959	56.53
821.132	56.77
821.305	54.76
821.477	53.59
821.65	53.11
821.823	52.05
821.996	51.88
822.168	51.82
822.341	50.53
822.514	50.31
822.686	50.05
822.859	50
823.031	49.35
823.204	49.72
823.376	49.41
823.549	49.19
823.722	49.1
823.894	49.41
824.067	49.6
824.239	49.51
824.411	50.01
824.584	49.85
824.756	49.69
824.929	49.78
825.101	49.98
825.273	50.39
825.446	50.09
825.618	50.21
825.79	49.73
825.963	49.12
826.135	49.99
826.307	49.58
826.479	50.34
826.652	50.16
826.824	50.44
826.996	50.86
827.168	50.66
827.34	51.07
827.512	50.94
827.684	51.49
827.856	51.69
828.029	51.76
828.201	51.81
828.373	51.05
828.545	51.34
828.717	51.34
828.889	50.12
829.061	50.35
829.232	50.76
829.404	51.82
829.576	50.73
829.748	51.57
829.92	50.79
830.092	51.81
830.264	51.61
830.436	51.49
830.607	50.26
830.779	50.35
830.951	50.48
831.123	49.33
831.294	47.34
831.466	48.3
831.638	48.58
831.809	50.92
831.981	50.29
832.153	52.01
832.324	54.33
832.496	57.35
832.667	58.76
832.839	58.64
833.011	57.8
833.182	58.09
833.354	58.27
833.525	55.81
833.697	53.54
833.868	53.43
834.039	54.43
834.211	52.88
834.382	52.35
834.554	51.03
834.725	50.53
834.896	50.42
835.068	49.64
835.239	48.26
835.41	48.52
835.581	49.38
835.753	49.05
835.924	48.07
836.095	47.73
836.266	47.49
836.438	46.56
836.609	48.27
836.78	50.57
836.951	51.52
837.122	51.05
837.293	51.65
837.464	50.57
837.635	51.46
837.806	52.1
837.977	52.69
838.148	51.88
838.319	51.27
838.49	50.43
838.661	51.78
838.832	52.7
839.003	55.9
839.174	59.87
839.345	61.18
839.516	61.38
839.687	60.8
839.857	59.25
840.028	59.6
840.199	61.62
840.37	60.06
840.54	56.54
840.711	53.78
840.882	53.21
841.053	47.65
841.223	46.59
841.394	43.6
841.564	42.77
841.735	43.3
841.906	46.19
842.076	50.22
842.247	49.06
842.417	51.1
842.588	54.72
842.758	52.33
842.929	49.88
843.099	47.06
843.27	51.32
843.44	53.46
843.611	54.08
843.781	49.83
843.951	48.36
844.122	48.6
844.292	47.67
844.462	42.26
844.633	41.67
844.803	44.41
844.973	48.18
845.144	47.08
845.314	45.16
845.484	47.34
845.654	56.45
845.824	58.05
845.995	59.33
846.165	54.84
846.335	62.93
846.505	62.24
846.675	63.95
846.845	70.89
847.015	64.64
847.185	67.23
847.355	66.03
847.525	68.68
847.695	72.86
847.865	75.71
848.035	76.68
848.205	71.88
848.375	81.44
848.545	74.3
848.715	60.98
848.884	59.72
849.054	56.92
849.224	57.81
849.394	56.56
849.564	53.65
849.733	52.75
849.903	58.09
850.073	57.79
850.243	59.08
850.412	66.26
850.582	68.98
850.752	73.25
850.921	72.15
851.091	71.23
851.26	65.71
851.43	60.98
851.599	63.43
851.769	59.84
851.939	63.42
852.108	59.67
852.278	60.06
852.447	60.74
852.616	57.03
852.786	66.07
852.955	59.84
853.125	60.31
853.294	57.79
853.463	50.79
853.633	52.33
853.802	47.23
853.971	55.78
854.141	53.03
854.31	51.64
854.479	53.14
854.648	33.14
854.818	38.91
854.987	28.14
855.156	27.77
855.325	34.08
855.494	30.86
855.663	34.59
855.832	23.5
856.001	18.44
856.171	23.41
856.34	21.07
856.509	23.77
856.678	33.47
856.847	50.75
857.016	57.78
857.185	57.26
857.353	46.5
857.522	50.48
857.691	49.65
857.86	51.09
858.029	43.57
858.198	47.89
858.367	47.23
858.535	47.05
858.704	38.48
858.873	31.92
859.042	29.95
859.21	44.62
859.379	38.91
859.548	36.68
859.717	42.54
859.885	45.54
860.054	42.61
860.222	42.94
860.391	48.24
860.56	47.9
860.728	57.8
860.897	59.36
861.065	56.06
861.234	59.89
861.402	62.24
861.571	62.46
861.739	63.24
861.908	59.62
862.076	60.46
862.244	55.21
862.413	57.81
862.581	50.97
862.749	47.9
862.918	41.44
863.086	40.59
863.254	42.58
863.423	31.62
863.591	31.21
863.759	40.92
863.927	47.75
864.096	40.45
864.264	46.85
864.432	47.72
864.6	61.08
864.768	71.52
864.936	70.59
865.104	72.94
865.272	72.04
865.44	69.78
865.608	62.73
865.776	50.13
865.944	50.96
866.112	46.12
866.28	45.36
866.448	35.74
866.616	30.42
866.784	19.2
866.952	16.03
867.12	23.49
867.288	31.38
867.455	34.35
867.623	38.83
867.791	38.25
867.959	41.53
868.127	40.77
868.294	46.34
868.462	56.4
868.63	57.92
868.797	62.86
868.965	72.61
869.133	71.27
869.3	69.31
869.468	66.58
869.636	71.23
869.803	60.96
869.971	65.23
870.138	55.59
870.306	49.61
870.473	42.42
870.641	38.59
870.808	39.38
870.975	47.12
871.143	44.99
871.31	59.78
871.478	63.75
871.645	73.58
871.812	71.31
871.98	83.74
872.147	77.19
872.314	95.3
872.482	80.79
872.649	78.92
872.816	65.98
872.983	73.9
873.15	62.12
873.318	55.31
873.485	51.96
873.652	51.45
873.819	46.47
873.986	41.05
874.153	38.19
874.32	49.71
874.487	41.17
874.654	34.36
874.821	20.54
874.988	12.91
875.155	11.4
875.322	2.84
875.489	-5.59
875.656	-24.27
875.823	-8.5
875.99	-5.65
876.157	-8.99
876.324	-6.05
876.49	0.94
876.657	10.93
876.824	25.18
876.991	22.24
877.157	31.74
877.324	32.68
877.491	41.58
877.658	38.64
877.824	58.43
877.991	59.79
878.157	68.09
878.324	80.53
878.491	80.94
878.657	71.34
878.824	83.9
878.99	86.8
879.157	82.27
879.323	87.92
879.49	80.14
879.656	66.83
879.823	65.07
879.989	59.33
880.156	46.76
880.322	52.03
880.488	47.63
880.655	50.31
880.821	51.32
880.987	54.78
881.154	48.99
881.32	56.98
881.486	53.19
881.652	52.8
881.819	52.07
881.985	51.81
882.151	50.77
882.317	51.16
882.483	50.49
882.649	50.05
882.816	48.7
882.982	50.44
883.148	48.48
883.314	49.71
883.48	51.49
883.646	52.47
883.812	53.62
883.978	52.66
884.144	52.28
884.31	51.68
884.476	50.87
884.642	52.58
884.807	51.44
884.973	52.24
885.139	51.78
885.305	49.45
885.471	49.48
885.637	49.06
885.802	49.62
885.968	48.95
886.134	49.09
886.3	50.12
886.465	49.18
886.631	49.2
886.797	48.52
886.962	46.68
887.128	49.47
887.293	49.28
887.459	49.84
887.625	51.12
887.79	55.24
887.956	56.56
888.121	56.44
888.287	57.04
888.452	58.81
888.618	57.99
888.783	67.05
