Data from LC_216__Reflection_2.txt Node
Date: Thu Nov 19 13:06:05 EST 2015
User: robert
Spectrometer: USB4E03001
Autoset integration time: false
Trigger mode: 4
Integration Time (sec): 1.000000E-1
Scans to average: 15
Electric dark correction enabled: true
Nonlinearity correction enabled: false
Boxcar width: 5
Stray light correction enabled: false
XAxis mode: Wavelengths
Stop averaging: false
Number of Pixels in Spectrum: 3648
>>>>>Begin Spectral Data<<<<<
177.566	-134.16
177.785	-423.61
178.005	-375.47
178.225	-125.34
178.445	-523.05
178.665	259600
178.885	41.56
179.105	-297.95
179.324	274.79
179.544	655.86
179.764	180.59
179.984	192.48
180.204	172.84
180.423	256.25
180.643	622.26
180.863	243.74
181.083	87
181.302	-5.06
181.522	8.41
181.742	-463.36
181.961	1018.88
182.181	566.43
182.401	141.9
182.621	110.61
182.84	221.63
183.06	529.87
183.279	345.33
183.499	179.28
183.719	246.45
183.938	154.67
184.158	143.59
184.377	252.82
184.597	184.85
184.816	1274.1
185.036	6269.57
185.256	445.77
185.475	192.09
185.695	215.84
185.914	134.19
186.134	59.12
186.353	81.62
186.572	96.98
186.792	50.66
187.011	427.93
187.231	102.11
187.45	109.81
187.67	107.78
187.889	3677.27
188.108	116.89
188.328	-685.18
188.547	-48.13
188.766	33.57
188.986	86.72
189.205	-57.07
189.424	-0.27
189.644	-183.59
189.863	-14.67
190.082	6.87
190.302	-393.76
190.521	63.17
190.74	150.44
190.959	625.35
191.178	1990.68
191.398	-1034.04
191.617	-19.89
191.836	-157.29
192.055	59.21
192.274	-13.13
192.494	-102.39
192.713	-9.73
192.932	-11.3
193.151	-38.36
193.37	-111.79
193.589	-40.27
193.808	-10.19
194.027	-17.49
194.246	-125.3
194.465	-55.59
194.685	-1212.5
194.904	37.09
195.123	5.64
195.342	7.44
195.561	1.34
195.78	-16.14
195.999	-4.12
196.218	37.52
196.436	136.46
196.655	97.1
196.874	143.53
197.093	122.66
197.312	273.19
197.531	377.75
197.75	358.83
197.969	-63.47
198.188	-0.54
198.407	-640.93
198.625	80.81
198.844	129.09
199.063	442.57
199.282	273.26
199.501	-165.07
199.719	-225.49
199.938	-598.03
200.157	884.64
200.376	428.1
200.594	311.93
200.813	238.31
201.032	127.91
201.251	159.43
201.469	107.97
201.688	70.46
201.907	85.3
202.125	100.88
202.344	91.69
202.563	67.46
202.781	65.07
203	59.07
203.218	51.05
203.437	107.54
203.656	5.68
203.874	67.74
204.093	77.82
204.311	92.78
204.53	64.91
204.748	55.55
204.967	72.44
205.185	71.97
205.404	73.54
205.622	139.14
205.841	63.79
206.059	90.58
206.278	49.9
206.496	74.96
206.715	20.66
206.933	45.08
207.151	63.76
207.37	209.21
207.588	939.39
207.806	-115.55
208.025	116.76
208.243	-351.34
208.461	-410.01
208.68	-1244.4
208.898	1161.38
209.116	572.43
209.335	732.67
209.553	242.53
209.771	593.72
209.989	-391.06
210.208	-60.92
210.426	174.59
210.644	347.54
210.862	180.25
211.081	232.06
211.299	105.07
211.517	130.31
211.735	168.56
211.953	360.96
212.171	-36.37
212.39	-109.55
212.608	-267.05
212.826	-33.7
213.044	17.73
213.262	27.93
213.48	35.29
213.698	39.16
213.916	37.48
214.134	100.57
214.352	184.26
214.57	197.09
214.788	93.8
215.006	1104.01
215.224	-61.5
215.442	-15.65
215.66	-21.25
215.878	207.24
216.096	48.26
216.314	30.65
216.532	27.52
216.75	38.39
216.968	56.95
217.185	40.66
217.403	49.26
217.621	67.8
217.839	72.94
218.057	77.88
218.275	106.84
218.492	203.05
218.71	116.68
218.928	122.79
219.146	102.89
219.363	118.7
219.581	155.89
219.799	291.52
220.017	99.22
220.234	94.64
220.452	36.32
220.67	10.32
220.887	-18.88
221.105	-71.07
221.323	-73.83
221.54	19.25
221.758	64.5
221.976	46.16
222.193	47.11
222.411	52.53
222.629	20.05
222.846	38.78
223.064	67.77
223.281	71.12
223.499	85.93
223.716	86.11
223.934	60.01
224.151	44.5
224.369	54.23
224.586	49.81
224.804	48.94
225.021	77.28
225.239	73.06
225.456	51.81
225.674	52
225.891	55.07
226.108	44.07
226.326	39.22
226.543	24.94
226.76	26.11
226.978	25.89
227.195	25.59
227.413	17.3
227.63	10.3
227.847	15.4
228.064	13.45
228.282	11.93
228.499	15.05
228.716	15.16
228.934	16.33
229.151	16.22
229.368	14.73
229.585	14.58
229.802	13.78
230.02	14.14
230.237	12.69
230.454	13.01
230.671	11.62
230.888	9.04
231.105	9.54
231.323	7.71
231.54	1.29
231.757	2.8
231.974	4.23
232.191	8.92
232.408	10.41
232.625	9.47
232.842	10.15
233.059	7.4
233.276	8.94
233.493	8.4
233.71	14.99
233.927	19.29
234.144	20.82
234.361	15.35
234.578	12.59
234.795	11.48
235.012	14.53
235.229	13.46
235.446	14.4
235.663	18.08
235.879	15.46
236.096	12.82
236.313	11.49
236.53	9.73
236.747	15.52
236.964	15.83
237.181	16.36
237.397	17.52
237.614	15.59
237.831	15.01
238.048	11.48
238.264	13.18
238.481	16.22
238.698	12.09
238.915	8.62
239.131	-0.81
239.348	-1.64
239.565	2.04
239.781	0.11
239.998	0.96
240.215	2.49
240.431	3.94
240.648	6.42
240.865	9.26
241.081	12.31
241.298	12.01
241.514	14.31
241.731	14.78
241.947	12.47
242.164	11.45
242.38	13
242.597	14.26
242.814	13.63
243.03	13.59
243.246	14.71
243.463	15.24
243.679	15.91
243.896	16.35
244.112	16.15
244.329	17.27
244.545	19.18
244.762	17.4
244.978	15.86
245.194	15.93
245.411	14
245.627	9.63
245.843	9.14
246.06	8.01
246.276	8.39
246.492	9.07
246.709	10.27
246.925	10.03
247.141	9.73
247.357	9.59
247.574	10
247.79	11.59
248.006	12.42
248.222	11.41
248.439	11.39
248.655	9.69
248.871	9.88
249.087	9.05
249.303	9.73
249.519	10.02
249.736	8.39
249.952	5.94
250.168	3.58
250.384	4.74
250.6	6.52
250.816	8.96
251.032	11.84
251.248	9.27
251.464	9.62
251.68	8.85
251.896	7.79
252.112	9.6
252.328	11.29
252.544	11.97
252.76	9.98
252.976	7.66
253.192	6.08
253.408	4.15
253.624	5.01
253.84	5.15
254.056	5.84
254.272	7.59
254.487	6.86
254.703	7.47
254.919	8.31
255.135	12.92
255.351	14.98
255.567	17.78
255.782	17.19
255.998	15.48
256.214	15.82
256.43	15.03
256.646	13.88
256.861	12.84
257.077	14.77
257.293	11.05
257.508	5.04
257.724	4.2
257.94	3.99
258.155	6.93
258.371	9.49
258.587	9.27
258.802	8.35
259.018	8.66
259.234	9.55
259.449	7.89
259.665	8.87
259.88	9.39
260.096	9.58
260.312	9.7
260.527	9.42
260.743	8.63
260.958	8.16
261.174	8.53
261.389	8.58
261.605	8.92
261.82	9.38
262.036	9.18
262.251	9.41
262.466	8.72
262.682	7.19
262.897	5.8
263.113	5.31
263.328	5.73
263.543	6.4
263.759	4.96
263.974	2.54
264.189	1.79
264.405	1.23
264.62	1.75
264.835	3.1
265.051	6.41
265.266	6.64
265.481	6.23
265.696	6.36
265.912	5.53
266.127	7.35
266.342	7.79
266.557	8.26
266.773	7.54
266.988	6.31
267.203	6.14
267.418	5.13
267.633	6.03
267.848	7.28
268.064	7.84
268.279	6.82
268.494	6.42
268.709	7.01
268.924	8.08
269.139	8.3
269.354	10.33
269.569	11.04
269.784	9.83
269.999	10.19
270.214	9.78
270.429	9.83
270.644	12
270.859	11.92
271.074	12.53
271.289	12.13
271.504	12.07
271.719	12.19
271.934	12.02
272.149	12.64
272.363	12.24
272.578	12.03
272.793	11.06
273.008	9.92
273.223	10.76
273.438	10.39
273.653	9.58
273.867	9.31
274.082	7.79
274.297	9.1
274.512	9.57
274.726	10.92
274.941	10.9
275.156	11.33
275.371	11.52
275.585	11.16
275.8	11.64
276.015	10.58
276.229	11.36
276.444	10.17
276.659	9.64
276.873	9.19
277.088	7.01
277.302	7.35
277.517	8.84
277.732	8.21
277.946	10.29
278.161	8.97
278.375	13.03
278.59	11.81
278.804	13.79
279.019	11.66
279.233	11.24
279.448	11.79
279.662	11.37
279.877	8.59
280.091	9.02
280.306	7.34
280.52	6.93
280.735	4.1
280.949	5.64
281.163	5.88
281.378	6.91
281.592	8.57
281.806	9.69
282.021	11.13
282.235	12.09
282.449	12.28
282.664	11.84
282.878	12.26
283.092	12.61
283.307	12.06
283.521	11.54
283.735	12.29
283.949	11.05
284.164	9.89
284.378	8.84
284.592	8.47
284.806	7.89
285.02	7.35
285.234	7.56
285.449	8.96
285.663	9.24
285.877	9.93
286.091	10.38
286.305	10.91
286.519	10.24
286.733	9.08
286.947	9.93
287.161	10.1
287.375	11.27
287.589	11.84
287.803	9.31
288.017	10.61
288.231	10.09
288.445	8.79
288.659	8.22
288.873	8.72
289.087	11.12
289.301	10.34
289.515	10.19
289.729	8.5
289.943	8.26
290.157	9.71
290.371	7.57
290.584	6.79
290.798	6.45
291.012	6.74
291.226	7.35
291.44	6.36
291.654	6.02
291.867	5.6
292.081	6.13
292.295	5.83
292.509	4.77
292.722	5.99
292.936	6.64
293.15	9.1
293.364	9.06
293.577	7.88
293.791	7.8
294.005	8.83
294.218	8.69
294.432	8.91
294.645	8.6
294.859	9.79
295.073	9.61
295.286	10.86
295.5	10.31
295.713	10.13
295.927	11.18
296.14	11.36
296.354	10.32
296.568	11.14
296.781	10.99
296.994	10.76
297.208	10.13
297.421	10.89
297.635	10.63
297.848	10.19
298.062	10.15
298.275	9.72
298.489	9.5
298.702	10.08
298.915	9.06
299.129	9.72
299.342	10.45
299.555	11.44
299.769	10.76
299.982	11.54
300.195	12.15
300.409	11.94
300.622	12.13
300.835	12.87
301.048	13.09
301.262	13.55
301.475	12.65
301.688	12.96
301.901	11.37
302.115	11.09
302.328	8.57
302.541	7.27
302.754	8.42
302.967	8.64
303.18	7.71
303.393	7.88
303.607	8.01
303.82	8.82
304.033	9.58
304.246	11.02
304.459	10.87
304.672	11.33
304.885	11.68
305.098	10.59
305.311	10.65
305.524	11.56
305.737	11.85
305.95	12.84
306.163	12.88
306.376	11.41
306.589	12.14
306.802	12.85
307.015	12.89
307.228	13.83
307.44	13.54
307.653	13.99
307.866	13.23
308.079	12.28
308.292	11.11
308.505	11.15
308.718	10.94
308.93	9.3
309.143	9.13
309.356	9.64
309.569	9.38
309.781	9.68
309.994	9.21
310.207	9.35
310.42	10.45
310.632	10.33
310.845	9.3
311.058	9.78
311.27	10.19
311.483	10.37
311.696	10.47
311.908	10.51
312.121	10.8
312.333	11.62
312.546	11.57
312.759	10.24
312.971	10.82
313.184	12.4
313.396	13.13
313.609	12.14
313.821	11.71
314.034	12.17
314.246	12.53
314.459	12.1
314.671	11.45
314.884	11.07
315.096	12.09
315.309	12.46
315.521	11.83
315.733	10.44
315.946	11.54
316.158	12.34
316.371	11.39
316.583	10.76
316.795	11.24
317.008	10.39
317.22	10.86
317.432	10.2
317.644	11.42
317.857	10.87
318.069	12.6
318.281	12.73
318.494	11
318.706	12.66
318.918	13.62
319.13	13.82
319.342	13.01
319.555	13.22
319.767	14.18
319.979	11.64
320.191	11.72
320.403	9.4
320.615	8.51
320.827	11.16
321.039	11.08
321.252	10.02
321.464	9.88
321.676	12.86
321.888	12.21
322.1	11.4
322.312	11.84
322.524	11.62
322.736	11.2
322.948	11.63
323.16	10.89
323.372	9.66
323.584	8.97
323.796	8.76
324.007	7.56
324.219	8.8
324.431	8.98
324.643	9.07
324.855	9.09
325.067	9.37
325.279	8.8
325.491	7.84
325.702	8.79
325.914	8.64
326.126	7.4
326.338	7.32
326.55	6.15
326.761	7
326.973	7.24
327.185	7.53
327.396	8.32
327.608	8.5
327.82	8.25
328.032	7.56
328.243	8.64
328.455	10.34
328.666	9.76
328.878	10.53
329.09	9.41
329.301	9.07
329.513	8.4
329.725	8.92
329.936	9.04
330.148	9.14
330.359	9.49
330.571	8.93
330.782	9.67
330.994	10.93
331.205	9.02
331.417	8.33
331.628	7.87
331.84	7.72
332.051	6.99
332.262	7.35
332.474	7.58
332.685	7.1
332.897	7.06
333.108	6.41
333.319	6.02
333.531	8.15
333.742	8.22
333.953	8.14
334.165	9.06
334.376	8.55
334.587	8.3
334.799	7.97
335.01	7.94
335.221	8.23
335.432	7.37
335.644	7.29
335.855	6.18
336.066	7.14
336.277	7.5
336.488	6.85
336.7	7.6
336.911	7.85
337.122	7.59
337.333	7.18
337.544	7.88
337.755	9.31
337.966	9.67
338.177	9.52
338.388	9.35
338.599	9.92
338.811	10.04
339.022	10.59
339.233	10.44
339.444	10.42
339.655	10.06
339.866	9.74
340.076	7.95
340.287	7.06
340.498	7.91
340.709	7.26
340.92	6.06
341.131	6.32
341.342	5.63
341.553	6.29
341.764	6.82
341.975	7.38
342.185	7.16
342.396	8.63
342.607	8.74
342.818	8.79
343.029	9.03
343.239	10.43
343.45	10.21
343.661	10.43
343.872	9.82
344.082	9.86
344.293	9.6
344.504	9.08
344.714	9.26
344.925	10.16
345.136	9.8
345.346	9.37
345.557	8.94
345.768	8.71
345.978	8.63
346.189	8.66
346.399	8.59
346.61	9.11
346.821	9.02
347.031	8.42
347.242	7.3
347.452	7.73
347.663	8.24
347.873	8.26
348.084	8.81
348.294	8.93
348.504	8.85
348.715	8.77
348.925	8.7
349.136	7.86
349.346	7.51
349.557	7.79
349.767	7.31
349.977	7.79
350.188	7.26
350.398	7.44
350.608	7.76
350.819	7.7
351.029	8.2
351.239	7.98
351.449	8.56
351.66	8.66
351.87	8.55
352.08	7.56
352.29	7.09
352.501	6.87
352.711	6.53
352.921	5.99
353.131	6.72
353.341	6.52
353.552	5.83
353.762	5.83
353.972	5.92
354.182	6.65
354.392	7.48
354.602	7.71
354.812	8.65
355.022	8.43
355.232	8.2
355.442	7.48
355.652	7.05
355.862	8.08
356.072	8.1
356.282	7.12
356.492	6.81
356.702	6.44
356.912	6.27
357.122	6.3
357.332	6.13
357.542	6.36
357.752	6.38
357.962	6.56
358.171	6.43
358.381	6.51
358.591	6.95
358.801	6.88
359.011	7.24
359.221	7.67
359.43	7.71
359.64	7.91
359.85	7.74
360.06	7.82
360.269	7.33
360.479	7.45
360.689	7.58
360.899	7.47
361.108	7.39
361.318	7.71
361.528	7.23
361.737	6.58
361.947	6.72
362.156	6.52
362.366	6.83
362.576	6.82
362.785	6.76
362.995	7.3
363.204	7.64
363.414	7.87
363.623	7.26
363.833	7.29
364.042	7.6
364.252	7.45
364.461	8.11
364.671	7.43
364.88	8.05
365.09	7.77
365.299	7.35
365.509	7.35
365.718	7.15
365.927	7.34
366.137	8.02
366.346	7.24
366.555	6.89
366.765	6.4
366.974	6.74
367.183	6.1
367.393	6.35
367.602	5.54
367.811	5.72
368.021	5.4
368.23	5.63
368.439	4.81
368.648	5.82
368.857	5.87
369.067	5.92
369.276	5.58
369.485	6.2
369.694	5.51
369.903	5.86
370.112	5.75
370.321	5.52
370.531	5.35
370.74	5.11
370.949	4.86
371.158	5.1
371.367	4.7
371.576	5.22
371.785	4.85
371.994	5.33
372.203	5.7
372.412	5.85
372.621	6.36
372.83	6.21
373.039	6.66
373.248	6.98
373.457	6.73
373.666	6.8
373.874	6.35
374.083	6.12
374.292	5.6
374.501	5.56
374.71	5.07
374.919	4.18
375.128	4.61
375.336	4.61
375.545	4.3
375.754	4.54
375.963	5.03
376.171	5.6
376.38	6.26
376.589	6.65
376.798	6.46
377.006	6.19
377.215	7.33
377.424	7.02
377.632	7.14
377.841	6.77
378.05	7.28
378.258	7.14
378.467	6.87
378.675	6.63
378.884	6.45
379.093	6.72
379.301	6.84
379.51	6.05
379.718	5.77
379.927	5.78
380.135	6.25
380.344	6.01
380.552	5.97
380.761	6.15
380.969	6.2
381.177	6.27
381.386	6.19
381.594	6.49
381.803	7.03
382.011	7.45
382.219	7.43
382.428	6.86
382.636	6.35
382.845	6.37
383.053	6.24
383.261	5.88
383.469	5.83
383.678	5.62
383.886	5.38
384.094	5.13
384.302	4.92
384.511	4.66
384.719	5
384.927	5.24
385.135	4.82
385.343	4.54
385.552	4.65
385.76	4.58
385.968	4.91
386.176	4.81
386.384	4.3
386.592	4.5
386.8	4.17
387.008	4.14
387.216	4.18
387.424	4.18
387.633	4.1
387.841	3.9
388.049	4.41
388.257	3.51
388.465	3.6
388.672	4.19
388.88	4.03
389.088	4.49
389.296	4.42
389.504	3.97
389.712	4.32
389.92	4.32
390.128	4.75
390.336	4.11
390.544	4.43
390.751	4.95
390.959	4.64
391.167	4.8
391.375	4.57
391.583	4.52
391.79	4.55
391.998	4.7
392.206	4.85
392.414	4.67
392.621	4.66
392.829	4.81
393.037	4.53
393.244	4.64
393.452	4.26
393.66	4.31
393.867	4.44
394.075	4.63
394.283	4.26
394.49	4.15
394.698	4.18
394.905	4.2
395.113	4.3
395.32	4.17
395.528	4.27
395.735	4.62
395.943	4.63
396.15	4.47
396.358	4.55
396.565	4.7
396.773	4.7
396.98	4.23
397.188	4.19
397.395	4.07
397.602	3.83
397.81	3.65
398.017	3.6
398.225	3.35
398.432	3.59
398.639	3.41
398.847	3.5
399.054	3.54
399.261	3.83
399.468	3.82
399.676	3.88
399.883	4.03
400.09	4.04
400.297	4
400.505	4.11
400.712	3.9
400.919	4.16
401.126	3.7
401.333	3.72
401.54	3.97
401.748	4.03
401.955	4.35
402.162	4.34
402.369	4.25
402.576	4.07
402.783	3.95
402.99	4.09
403.197	3.84
403.404	4.04
403.611	4.19
403.818	4.16
404.025	4.32
404.232	3.86
404.439	4.05
404.646	4.12
404.853	4.05
405.06	4.12
405.267	3.85
405.474	3.99
405.681	3.95
405.887	3.68
406.094	3.61
406.301	3.63
406.508	3.87
406.715	3.66
406.922	3.73
407.128	3.84
407.335	3.76
407.542	3.99
407.749	3.63
407.955	3.68
408.162	3.6
408.369	3.5
408.575	3.43
408.782	3.03
408.989	2.97
409.195	2.86
409.402	2.89
409.609	3.37
409.815	3.5
410.022	3.59
410.228	3.68
410.435	4.09
410.642	4
410.848	4.14
411.055	4.25
411.261	4.33
411.468	4.5
411.674	4.51
411.881	4.21
412.087	4.05
412.294	4.07
412.5	4.03
412.706	3.93
412.913	4.22
413.119	3.93
413.326	4.43
413.532	4.67
413.738	4.7
413.945	4.48
414.151	4.38
414.357	4.37
414.564	4.56
414.77	4.44
414.976	4.11
415.182	4.18
415.389	4.24
415.595	4.01
415.801	3.7
416.007	3.56
416.214	3.89
416.42	3.92
416.626	3.95
416.832	3.77
417.038	3.87
417.244	4.02
417.45	3.88
417.657	3.78
417.863	3.61
418.069	3.7
418.275	3.71
418.481	3.58
418.687	3.64
418.893	3.52
419.099	3.58
419.305	3.46
419.511	3.56
419.717	3.55
419.923	3.68
420.129	3.77
420.335	3.78
420.541	3.76
420.746	3.73
420.952	3.57
421.158	3.64
421.364	3.67
421.57	3.75
421.776	3.64
421.982	3.69
422.187	3.53
422.393	3.49
422.599	3.42
422.805	3.35
423.01	3.4
423.216	3.54
423.422	3.56
423.628	3.6
423.833	3.59
424.039	3.68
424.245	3.64
424.45	3.68
424.656	3.61
424.862	3.49
425.067	3.53
425.273	3.32
425.478	3.31
425.684	3.26
425.889	3.15
426.095	3.12
426.301	2.94
426.506	2.86
426.712	2.82
426.917	2.88
427.123	2.96
427.328	2.96
427.533	3.16
427.739	3.15
427.944	3.22
428.15	3.14
428.355	3.04
428.561	3.03
428.766	2.97
428.971	3.07
429.177	3.06
429.382	3.07
429.587	3.13
429.793	3.11
429.998	3.19
430.203	3.22
430.408	3.49
430.614	3.49
430.819	3.47
431.024	3.63
431.229	3.79
431.434	3.81
431.64	3.98
431.845	3.97
432.05	3.97
432.255	3.87
432.46	3.92
432.665	3.62
432.87	3.73
433.076	3.85
433.281	3.7
433.486	3.56
433.691	3.57
433.896	3.43
434.101	3.29
434.306	3.15
434.511	2.93
434.716	2.61
434.921	2.73
435.126	2.63
435.331	2.5
435.535	2.49
435.74	2.63
435.945	2.5
436.15	2.62
436.355	2.75
436.56	2.98
436.765	3.16
436.97	3.23
437.174	3.24
437.379	3.35
437.584	3.39
437.789	3.29
437.993	3.06
438.198	3.22
438.403	3
438.608	3.02
438.812	2.93
439.017	2.89
439.222	3.13
439.426	3.2
439.631	3.13
439.836	3.18
440.04	3.44
440.245	3.43
440.45	3.29
440.654	3.4
440.859	3.38
441.063	3.39
441.268	3.53
441.472	3.26
441.677	3.21
441.881	3.24
442.086	3.37
442.29	3.32
442.495	3.42
442.699	3.52
442.904	3.44
443.108	3.48
443.312	3.47
443.517	3.38
443.721	3.51
443.925	3.4
444.13	3.42
444.334	3.27
444.538	3.21
444.743	3.23
444.947	3.2
445.151	3.17
445.356	3.18
445.56	3.26
445.764	3.2
445.968	3.25
446.173	3.29
446.377	3.15
446.581	3.1
446.785	3.01
446.989	2.97
447.193	3.07
447.398	3.12
447.602	3.14
447.806	3.08
448.01	3.14
448.214	3.17
448.418	3.24
448.622	3.36
448.826	3.43
449.03	3.5
449.234	3.45
449.438	3.24
449.642	3.29
449.846	3.23
450.05	3.16
450.254	3.1
450.458	3.01
450.662	3
450.866	2.92
451.069	2.88
451.273	2.89
451.477	3
451.681	3.07
451.885	3.13
452.089	3.06
452.292	3.08
452.496	2.91
452.7	3.01
452.904	2.96
453.107	3.04
453.311	3.15
453.515	3.31
453.719	3.3
453.922	3.3
454.126	3.29
454.33	3.33
454.533	3.4
454.737	3.53
454.94	3.49
455.144	3.43
455.348	3.47
455.551	3.32
455.755	3.04
455.958	3.01
456.162	2.95
456.365	2.87
456.569	3.03
456.772	3.03
456.976	2.95
457.179	2.91
457.383	3.02
457.586	2.91
457.79	2.87
457.993	2.97
458.196	2.92
458.4	3.01
458.603	3.04
458.807	2.87
459.01	2.85
459.213	3.01
459.417	3.01
459.62	2.97
459.823	2.95
460.026	3.08
460.23	3.15
460.433	3.19
460.636	3.07
460.839	3.06
461.042	3.03
461.246	3.03
461.449	2.95
461.652	3.02
461.855	3
462.058	3.01
462.261	2.83
462.464	2.73
462.668	2.74
462.871	2.8
463.074	2.77
463.277	2.87
463.48	2.92
463.683	2.95
463.886	2.81
464.089	2.98
464.292	3.02
464.495	3.1
464.698	3.1
464.901	3.1
465.104	3.33
465.306	3.36
465.509	3.32
465.712	3.17
465.915	3.13
466.118	3.15
466.321	3.08
466.524	3.14
466.726	3.28
466.929	3.3
467.132	3.11
467.335	2.85
467.538	2.76
467.74	2.88
467.943	2.9
468.146	3.09
468.348	3.2
468.551	2.93
468.754	2.81
468.956	2.78
469.159	2.76
469.362	2.93
469.564	3.12
469.767	3.21
469.969	3.12
470.172	3.11
470.375	2.77
470.577	2.67
470.78	2.88
470.982	2.96
471.185	2.85
471.387	2.69
471.59	2.66
471.792	2.48
471.995	2.34
472.197	2.27
472.399	2.39
472.602	2.67
472.804	2.67
473.007	2.57
473.209	2.62
473.411	2.72
473.614	2.78
473.816	2.85
474.018	2.93
474.22	3.12
474.423	3.29
474.625	3.21
474.827	3.11
475.03	3.01
475.232	3.11
475.434	3.14
475.636	3.08
475.838	3.14
476.04	3.09
476.243	3.29
476.445	3.03
476.647	2.95
476.849	2.97
477.051	3.06
477.253	3.12
477.455	3.05
477.657	3.02
477.859	3.1
478.061	3.01
478.263	2.94
478.465	2.81
478.667	2.87
478.869	2.9
479.071	2.92
479.273	2.95
479.475	2.99
479.677	3.09
479.879	3.04
480.081	2.96
480.283	2.94
480.485	3.08
480.686	3.05
480.888	3.12
481.09	3.11
481.292	3.01
481.494	3.02
481.695	3.13
481.897	3.09
482.099	3.02
482.301	3.01
482.502	3.11
482.704	3.08
482.906	3.1
483.107	3.08
483.309	3.04
483.511	3.04
483.712	3
483.914	2.9
484.115	2.89
484.317	2.91
484.519	2.89
484.72	2.88
484.922	2.86
485.123	2.85
485.325	2.85
485.526	2.81
485.728	2.85
485.929	2.85
486.131	2.91
486.332	2.92
486.534	2.92
486.735	2.94
486.936	2.94
487.138	2.95
487.339	2.91
487.541	2.9
487.742	2.98
487.943	2.99
488.144	2.99
488.346	3.02
488.547	3.03
488.748	3.02
488.95	2.99
489.151	2.98
489.352	2.97
489.553	3.02
489.755	3.08
489.956	3.11
490.157	3.1
490.358	3.1
490.559	3.01
490.76	2.97
490.961	2.99
491.163	3.05
491.364	3.03
491.565	2.96
491.766	2.96
491.967	2.96
492.168	2.85
492.369	2.77
492.57	2.78
492.771	2.73
492.972	2.76
493.173	2.79
493.374	2.84
493.575	2.79
493.776	2.88
493.976	2.83
494.177	2.86
494.378	2.92
494.579	3.01
494.78	2.98
494.981	2.92
495.182	2.99
495.382	3.01
495.583	3.07
495.784	3.2
495.985	3.29
496.185	3.43
496.386	3.32
496.587	3.42
496.788	3.39
496.988	3.4
497.189	3.62
497.39	3.61
497.59	3.57
497.791	3.5
497.992	3.37
498.192	3.4
498.393	3.35
498.593	3.36
498.794	3.31
498.994	3.35
499.195	3.41
499.395	3.37
499.596	3.4
499.796	3.28
499.997	3.31
500.197	3.36
500.398	3.31
500.598	3.36
500.799	3.29
500.999	3.38
501.199	3.5
501.4	3.45
501.6	3.38
501.801	3.28
502.001	3.36
502.201	3.37
502.402	3.56
502.602	3.45
502.802	3.35
503.002	3.59
503.203	3.51
503.403	3.32
503.603	3.3
503.803	3.44
504.003	3.45
504.204	3.48
504.404	3.47
504.604	3.3
504.804	3.34
505.004	3.38
505.204	3.29
505.404	3.25
505.604	3.27
505.804	3.27
506.005	3.36
506.205	3.46
506.405	3.5
506.605	3.46
506.805	3.47
507.005	3.62
507.204	3.66
507.404	3.54
507.604	3.75
507.804	3.98
508.004	4.07
508.204	3.97
508.404	3.95
508.604	3.98
508.804	4.08
509.003	4.2
509.203	4.03
509.403	3.92
509.603	3.87
509.803	3.82
510.002	3.67
510.202	3.66
510.402	3.65
510.602	3.69
510.801	3.73
511.001	3.61
511.201	3.5
511.4	3.55
511.6	3.73
511.8	3.73
511.999	3.8
512.199	3.85
512.398	3.76
512.598	3.85
512.797	3.71
512.997	3.7
513.197	3.67
513.396	3.67
513.596	3.77
513.795	3.72
513.994	3.88
514.194	3.79
514.393	3.87
514.593	4.01
514.792	4.04
514.992	4.19
515.191	4.11
515.39	4.21
515.59	4.4
515.789	4.41
515.988	4.47
516.188	4.43
516.387	4.55
516.586	4.48
516.786	4.46
516.985	4.42
517.184	4.42
517.383	4.43
517.582	4.48
517.782	4.41
517.981	4.33
518.18	4.3
518.379	4.32
518.578	4.26
518.777	4.3
518.976	4.28
519.176	4.29
519.375	4.25
519.574	4.29
519.773	4.2
519.972	4.21
520.171	4.24
520.37	4.3
520.569	4.36
520.768	4.33
520.967	4.27
521.166	4.34
521.365	4.29
521.564	4.42
521.762	4.52
521.961	4.6
522.16	4.5
522.359	4.43
522.558	4.34
522.757	4.38
522.956	4.42
523.154	4.55
523.353	4.5
523.552	4.66
523.751	4.73
523.949	4.65
524.148	4.74
524.347	4.78
524.546	4.79
524.744	4.79
524.943	4.88
525.142	4.88
525.34	4.81
525.539	4.84
525.737	4.72
525.936	4.75
526.135	4.87
526.333	4.88
526.532	4.93
526.73	5.01
526.929	5.08
527.127	5.01
527.326	5.04
527.524	5.04
527.723	5.12
527.921	5.19
528.12	5.08
528.318	5.02
528.516	5
528.715	5
528.913	5.05
529.112	5.05
529.31	5.09
529.508	5.04
529.707	5.12
529.905	5.07
530.103	5.07
530.301	5.17
530.5	5.2
530.698	5.21
530.896	5.35
531.094	5.33
531.293	5.46
531.491	5.4
531.689	5.53
531.887	5.5
532.085	5.67
532.283	5.68
532.481	5.6
532.68	5.71
532.878	5.79
533.076	5.72
533.274	5.75
533.472	5.67
533.67	5.68
533.868	5.75
534.066	5.76
534.264	5.73
534.462	5.8
534.66	5.88
534.858	5.93
535.056	5.93
535.253	5.9
535.451	6.01
535.649	6.06
535.847	6.13
536.045	6
536.243	6.14
536.441	6.18
536.638	6.27
536.836	6.21
537.034	6.21
537.232	6.21
537.43	6.27
537.627	6.21
537.825	6.25
538.023	6.35
538.22	6.58
538.418	6.5
538.616	6.45
538.813	6.35
539.011	6.46
539.209	6.45
539.406	6.61
539.604	6.72
539.801	6.76
539.999	6.82
540.196	6.84
540.394	6.9
540.591	7.03
540.789	7.18
540.986	7.24
541.184	7.31
541.381	7.33
541.579	7.31
541.776	7.36
541.974	7.36
542.171	7.4
542.368	7.49
542.566	7.48
542.763	7.41
542.96	7.34
543.158	7.39
543.355	7.39
543.552	7.49
543.75	7.55
543.947	7.56
544.144	7.72
544.341	7.71
544.539	7.68
544.736	7.67
544.933	7.76
545.13	7.95
545.327	7.86
545.524	7.95
545.722	8.03
545.919	8.05
546.116	8.09
546.313	7.98
546.51	8.07
546.707	8.21
546.904	8.25
547.101	8.4
547.298	8.37
547.495	8.54
547.692	8.6
547.889	8.52
548.086	8.51
548.283	8.58
548.48	8.74
548.677	8.76
548.874	8.77
549.07	8.99
549.267	9.03
549.464	9.18
549.661	9.19
549.858	9.12
550.055	9.22
550.251	9.45
550.448	9.53
550.645	9.66
550.842	9.91
551.038	9.94
551.235	10.11
551.432	10.1
551.628	10.19
551.825	10.47
552.022	10.51
552.218	10.63
552.415	10.88
552.612	10.98
552.808	10.89
553.005	10.81
553.201	10.79
553.398	10.71
553.594	10.76
553.791	10.83
553.987	10.71
554.184	10.78
554.38	10.89
554.577	10.69
554.773	10.79
554.97	11.02
555.166	11.19
555.362	11.38
555.559	11.54
555.755	11.8
555.952	11.83
556.148	12.02
556.344	12.27
556.541	12.18
556.737	12.21
556.933	12.25
557.129	12.13
557.326	12.37
557.522	12.44
557.718	12.46
557.914	12.54
558.11	12.7
558.307	12.66
558.503	12.65
558.699	12.88
558.895	13.04
559.091	13.2
559.287	13.41
559.483	13.41
559.679	13.51
559.876	13.62
560.072	13.57
560.268	13.63
560.464	13.78
560.66	13.92
560.856	13.87
561.052	13.87
561.247	13.77
561.443	13.84
561.639	13.79
561.835	13.74
562.031	13.87
562.227	14.1
562.423	14.11
562.619	14.15
562.815	14.23
563.01	14.44
563.206	14.7
563.402	14.94
563.598	15.01
563.793	15.06
563.989	15.14
564.185	15.05
564.381	14.97
564.576	15
564.772	15.4
564.968	15.43
565.163	15.48
565.359	15.68
565.555	15.75
565.75	15.88
565.946	16.03
566.141	16.19
566.337	16.38
566.532	16.55
566.728	16.69
566.923	16.55
567.119	16.56
567.314	16.72
567.51	16.72
567.705	16.69
567.901	16.73
568.096	16.92
568.292	16.98
568.487	17.01
568.682	17.02
568.878	17.17
569.073	17.19
569.268	17.35
569.464	17.28
569.659	17.36
569.854	17.54
570.05	17.62
570.245	17.58
570.44	17.79
570.635	17.69
570.831	17.76
571.026	17.86
571.221	17.98
571.416	18.08
571.611	18.16
571.806	18.15
572.002	18.26
572.197	18.3
572.392	18.26
572.587	18.11
572.782	18.28
572.977	18.38
573.172	18.34
573.367	18.37
573.562	18.52
573.757	18.64
573.952	18.81
574.147	18.95
574.342	19.1
574.537	19.28
574.732	19.41
574.927	19.39
575.121	19.4
575.316	19.49
575.511	19.71
575.706	19.73
575.901	19.83
576.096	19.93
576.29	19.79
576.485	19.85
576.68	19.96
576.875	20.11
577.069	20.28
577.264	20.57
577.459	20.62
577.654	20.42
577.848	20.39
578.043	20.3
578.238	20.25
578.432	20.31
578.627	20.41
578.821	20.2
579.016	20.28
579.21	20.44
579.405	20.1
579.6	19.99
579.794	20.27
579.989	20.57
580.183	20.8
580.378	20.79
580.572	20.89
580.766	20.78
580.961	20.99
581.155	20.98
581.35	21.1
581.544	21.34
581.738	21.47
581.933	21.47
582.127	21.35
582.321	21.43
582.516	21.5
582.71	21.43
582.904	21.62
583.099	21.74
583.293	21.95
583.487	22
583.681	21.9
583.875	21.96
584.07	22.05
584.264	22.09
584.458	22.22
584.652	22.2
584.846	22.52
585.04	22.44
585.234	22.48
585.428	22.51
585.623	22.64
585.817	22.8
586.011	22.88
586.205	22.88
586.399	22.69
586.593	22.68
586.787	22.84
586.981	22.84
587.174	22.85
587.368	22.89
587.562	22.93
587.756	22.78
587.95	23.09
588.144	23.06
588.338	23.24
588.532	23.27
588.725	23.43
588.919	23.63
589.113	23.6
589.307	23.6
589.501	23.66
589.694	23.63
589.888	23.54
590.082	23.35
590.275	23.43
590.469	23.62
590.663	23.88
590.856	23.67
591.05	23.6
591.244	23.8
591.437	24.11
591.631	24.3
591.824	24.25
592.018	24.62
592.212	24.81
592.405	24.75
592.599	24.5
592.792	24.54
592.986	24.42
593.179	24.42
593.372	24.31
593.566	24.2
593.759	24.19
593.953	24.12
594.146	24.03
594.339	23.99
594.533	24.11
594.726	24.15
594.92	24.3
595.113	24.54
595.306	24.68
595.499	24.68
595.693	24.66
595.886	24.69
596.079	24.77
596.272	24.89
596.466	24.75
596.659	24.81
596.852	24.89
597.045	24.94
597.238	24.95
597.431	25.01
597.624	25.1
597.818	25.23
598.011	25.34
598.204	25.48
598.397	25.3
598.59	25.54
598.783	25.79
598.976	25.53
599.169	25.55
599.362	25.62
599.555	25.73
599.748	25.73
599.941	25.79
600.134	25.68
600.326	25.88
600.519	26.26
600.712	26.4
600.905	26.27
601.098	26.53
601.291	26.44
601.483	26.36
601.676	26.22
601.869	26.32
602.062	26.33
602.255	26.3
602.447	26.1
602.64	26.06
602.833	25.96
603.025	25.81
603.218	25.93
603.411	25.85
603.603	25.87
603.796	25.86
603.989	25.87
604.181	25.92
604.374	25.87
604.566	26.03
604.759	26.12
604.951	26.13
605.144	26.41
605.336	26.54
605.529	26.82
605.721	26.81
605.914	26.69
606.106	26.65
606.299	26.85
606.491	26.82
606.683	26.75
606.876	26.74
607.068	26.97
607.26	26.75
607.453	26.72
607.645	26.65
607.837	26.68
608.03	26.89
608.222	27.04
608.414	26.77
608.606	27
608.799	26.82
608.991	26.59
609.183	26.48
609.375	26.62
609.567	26.77
609.759	26.7
609.952	26.91
610.144	27.04
610.336	26.92
610.528	26.9
610.72	27.01
610.912	27.24
611.104	27.4
611.296	27.46
611.488	27.54
611.68	27.33
611.872	27.6
612.064	27.73
612.256	27.66
612.448	27.86
612.64	27.97
612.832	27.98
613.023	27.98
613.215	27.96
613.407	27.9
613.599	27.92
613.791	28.13
613.983	28.01
614.174	27.66
614.366	27.78
614.558	27.9
614.75	28.01
614.941	28.21
615.133	28.47
615.325	28.31
615.516	28.37
615.708	28.25
615.9	28.2
616.091	28.2
616.283	28.43
616.475	28.47
616.666	28.44
616.858	28.55
617.049	28.47
617.241	28.44
617.432	28.56
617.624	28.24
617.815	28.36
618.007	28.64
618.198	28.51
618.39	28.62
618.581	28.8
618.773	28.69
618.964	28.74
619.155	28.81
619.347	28.75
619.538	29.24
619.729	29.56
619.921	29.54
620.112	29.44
620.303	29.53
620.494	29.42
620.686	29.04
620.877	29.03
621.068	29.01
621.259	29.09
621.451	29.15
621.642	28.92
621.833	28.99
622.024	29.01
622.215	28.9
622.406	29
622.597	28.88
622.788	28.85
622.98	28.99
623.171	28.9
623.362	28.71
623.553	28.82
623.744	28.72
623.935	28.68
624.126	28.58
624.317	28.82
624.508	28.92
624.698	28.94
624.889	29.09
625.08	28.81
625.271	29.1
625.462	28.94
625.653	28.89
625.844	28.89
626.034	29.02
626.225	29.1
626.416	28.99
626.607	28.8
626.798	28.96
626.988	28.97
627.179	29.21
627.37	29.08
627.56	29
627.751	28.67
627.942	28.6
628.132	28.47
628.323	28.47
628.514	28.59
628.704	28.57
628.895	28.55
629.085	28.36
629.276	28.45
629.466	28.54
629.657	28.63
629.847	29.09
630.038	29.18
630.228	29.46
630.419	29.72
630.609	29.45
630.8	29.86
630.99	29.98
631.181	30.43
631.371	30.38
631.561	30.14
631.752	30.38
631.942	30.32
632.132	30.33
632.323	30.07
632.513	30.03
632.703	29.94
632.893	29.9
633.084	30.05
633.274	29.97
633.464	29.8
633.654	29.86
633.844	29.93
634.034	29.92
634.225	29.85
634.415	29.95
634.605	30.14
634.795	30.21
634.985	30.21
635.175	30.02
635.365	29.73
635.555	29.98
635.745	30.22
635.935	30.06
636.125	29.88
636.315	30.03
636.505	30.28
636.695	30.02
636.885	30.2
637.075	30.18
637.265	30.29
637.455	30.87
637.644	31.06
637.834	31
638.024	31.1
638.214	31.64
638.404	31.82
638.593	31.71
638.783	31.83
638.973	31.87
639.163	31.68
639.352	31.47
639.542	31.45
639.732	31.44
639.921	31.51
640.111	31.67
640.301	31.37
640.49	31.51
640.68	31.35
640.87	31.11
641.059	31.15
641.249	31.39
641.438	31.65
641.628	31.35
641.817	31.3
642.007	31.54
642.196	31.74
642.386	31.78
642.575	31.45
642.764	31.56
642.954	31.76
643.143	31.73
643.333	31.67
643.522	31.55
643.711	31.81
643.901	31.68
644.09	31.37
644.279	31.13
644.469	31.35
644.658	31.36
644.847	31.31
645.036	31.11
645.226	31.2
645.415	31.48
645.604	31.65
645.793	31.75
645.982	31.74
646.171	31.62
646.361	31.48
646.55	31.3
646.739	31.32
646.928	31.44
647.117	31.69
647.306	31.76
647.495	31.47
647.684	31.36
647.873	31.33
648.062	31.37
648.251	31.84
648.44	31.94
648.629	31.9
648.818	32.02
649.007	32.22
649.196	32.39
649.384	32.36
649.573	32.1
649.762	32.32
649.951	32.2
650.14	32.4
650.328	31.99
650.517	31.99
650.706	32.16
650.895	32.19
651.083	32.42
651.272	32.41
651.461	32.47
651.65	32.61
651.838	33.02
652.027	32.91
652.216	32.91
652.404	33.04
652.593	33.08
652.781	32.81
652.97	32.86
653.158	32.46
653.347	32.29
653.535	32.15
653.724	32.52
653.912	31.99
654.101	32.41
654.289	32.29
654.478	32.29
654.666	32.2
654.855	32.42
655.043	32.62
655.231	32.98
655.42	33.08
655.608	33.15
655.796	33.12
655.985	33.26
656.173	32.71
656.361	32.74
656.55	32.6
656.738	32.74
656.926	33.08
657.114	32.96
657.302	32.69
657.491	32.48
657.679	32.31
657.867	32.17
658.055	32.48
658.243	32.35
658.431	32.6
658.619	32.96
658.807	32.98
658.996	32.77
659.184	32.46
659.372	32.58
659.56	32.86
659.748	33.1
659.936	33.44
660.124	32.87
660.311	33.21
660.499	32.86
660.687	32.68
660.875	32.86
661.063	32.82
661.251	33.48
661.439	33.49
661.627	33.41
661.814	33.45
662.002	33.03
662.19	33.24
662.378	33.58
662.565	33.89
662.753	34.25
662.941	33.88
663.129	33.85
663.316	33.75
663.504	33.59
663.692	33.74
663.879	33.52
664.067	33.78
664.254	33.91
664.442	33.83
664.63	33.87
664.817	33.4
665.005	33.27
665.192	32.93
665.38	32.75
665.567	32.71
665.755	32.58
665.942	32.81
666.13	32.75
666.317	32.64
666.504	32.31
666.692	32.41
666.879	32.5
667.067	32.58
667.254	33.24
667.441	33.02
667.629	33.23
667.816	33.5
668.003	33.81
668.19	33.83
668.378	33.87
668.565	34.11
668.752	33.9
668.939	33.88
669.127	33.99
669.314	33.73
669.501	33.74
669.688	33.98
669.875	33.69
670.062	33.33
670.249	33.51
670.436	33.8
670.623	33.52
670.81	33.72
670.997	33.41
671.184	33.79
671.371	33.89
671.558	34.22
671.745	34.12
671.932	34.21
672.119	34.37
672.306	34.12
672.493	34.35
672.68	34.36
672.867	33.93
673.054	34.53
673.24	34.42
673.427	34.16
673.614	33.99
673.801	33.85
673.988	33.6
674.174	33.77
674.361	33.96
674.548	33.66
674.734	33.69
674.921	33.89
675.108	33.79
675.294	33.75
675.481	34.06
675.668	34.26
675.854	34.33
676.041	34.57
676.227	34.23
676.414	34.12
676.601	33.95
676.787	34.04
676.974	34.43
677.16	34.46
677.347	34.62
677.533	34.55
677.719	34.35
677.906	33.73
678.092	33.82
678.279	34.03
678.465	34.11
678.651	34.17
678.838	34.24
679.024	34.13
679.21	34.13
679.397	34.09
679.583	34.46
679.769	34.23
679.955	34.88
680.142	34.57
680.328	34.7
680.514	34.71
680.7	34.91
680.886	34.79
681.073	34.73
681.259	34.74
681.445	34.76
681.631	34.43
681.817	34.36
682.003	34.27
682.189	34.4
682.375	34.62
682.561	34.75
682.747	34.66
682.933	34.87
683.119	34.63
683.305	34.64
683.491	34.32
683.677	34.49
683.863	35.03
684.049	34.98
684.235	35.11
684.42	34.93
684.606	34.52
684.792	34.5
684.978	34.61
685.164	35.04
685.349	35.34
685.535	35.47
685.721	35.73
685.907	35.69
686.092	36.11
686.278	36.3
686.464	35.97
686.649	36.41
686.835	36.6
687.021	36.87
687.206	36.99
687.392	36.51
687.577	36.32
687.763	36.05
687.948	35.74
688.134	35.29
688.319	35.14
688.505	35.47
688.69	35
688.876	34.96
689.061	34.4
689.247	34.21
689.432	34.31
689.618	34.51
689.803	34.46
689.988	34.8
690.174	35.4
690.359	35.81
690.544	35.75
690.73	36.62
690.915	36.66
691.1	36.94
691.285	36.76
691.471	36.76
691.656	36.81
691.841	37.05
692.026	36.84
692.211	36.82
692.396	36.89
692.582	36.68
692.767	36.38
692.952	36.4
693.137	36.13
693.322	36.52
693.507	36.51
693.692	36.92
693.877	36.87
694.062	37.28
694.247	36.83
694.432	36.78
694.617	36.8
694.802	36.96
694.987	36.95
695.172	37.29
695.357	37.21
695.541	38.04
695.726	38.18
695.911	37.62
696.096	36.99
696.281	37.07
696.466	37.11
696.65	36.89
696.835	36.8
697.02	36.54
697.204	36.54
697.389	36.36
697.574	35.95
697.759	35.83
697.943	35.94
698.128	36.3
698.312	36.28
698.497	36.13
698.682	36.29
698.866	35.96
699.051	36.12
699.235	36.25
699.42	36.1
699.604	36.05
699.789	35.8
699.973	35.91
700.158	35.84
700.342	35.89
700.527	35.61
700.711	36.02
700.895	36.7
701.08	36.71
701.264	36.44
701.448	37.2
701.633	37.16
701.817	37.52
702.001	37.54
702.186	37.39
702.37	37.32
702.554	37.23
702.738	36.54
702.923	35.66
703.107	35.7
703.291	35.93
703.475	35.11
703.659	34.77
703.843	34.88
704.027	34.95
704.212	34.57
704.396	34.81
704.58	35.87
704.764	36.33
704.948	36.73
705.132	36.82
705.316	36.59
705.5	36.62
705.684	36.63
705.868	36.53
706.052	36.86
706.235	38.31
706.419	38.04
706.603	37.69
706.787	37.19
706.971	37.07
707.155	36.86
707.339	36.76
707.522	37.7
707.706	38
707.89	37.65
708.074	37.71
708.257	36.67
708.441	36.76
708.625	36.12
708.808	36.28
708.992	36.09
709.176	36.22
709.359	37.08
709.543	36.17
709.727	36.55
709.91	36.88
710.094	36.71
710.277	36.57
710.461	36.12
710.644	36.78
710.828	36.8
711.011	37.49
711.195	37.31
711.378	36.68
711.562	36.83
711.745	36.35
711.928	36.49
712.112	36.29
712.295	36.36
712.478	36.89
712.662	36.9
712.845	37.28
713.028	36.96
713.212	37.08
713.395	37.5
713.578	37.29
713.761	37.39
713.945	37.16
714.128	37.13
714.311	37.42
714.494	37.23
714.677	36.97
714.86	36.77
715.043	36.35
715.227	36.43
715.41	35.69
715.593	36.05
715.776	36.62
715.959	36.26
716.142	36.62
716.325	36.33
716.508	36.7
716.691	36.7
716.874	36.03
717.057	36.47
717.239	36.14
717.422	36.87
717.605	37.52
717.788	37.67
717.971	38.51
718.154	37.95
718.337	37.97
718.519	37.85
718.702	37.45
718.885	38.25
719.068	38.21
719.25	38.31
719.433	36.97
719.616	36.27
719.798	35.27
719.981	35.52
720.164	35.97
720.346	35.75
720.529	35.25
720.712	35.47
720.894	35.26
721.077	35.34
721.259	34.74
721.442	35.6
721.624	35.21
721.807	35.36
721.989	33.81
722.172	34.17
722.354	34.79
722.537	35.5
722.719	35.77
722.901	36
723.084	35.79
723.266	36.99
723.448	37.28
723.631	37.96
723.813	38.33
723.995	39.44
724.178	39.36
724.36	39.79
724.542	39.14
724.724	39.57
724.907	39.73
725.089	39.73
725.271	39.8
725.453	39.77
725.635	39.5
725.817	39.57
725.999	39.35
726.181	39.49
726.364	39.35
726.546	38.51
726.728	38.26
726.91	37.8
727.092	37.37
727.274	36.77
727.456	36.18
727.638	35.69
727.819	36.03
728.001	35.27
728.183	34.67
728.365	35.08
728.547	36.08
728.729	36.03
728.911	36.18
729.093	36.92
729.274	37.33
729.456	37.32
729.638	38.13
729.82	38
730.001	38.47
730.183	39.45
730.365	38.81
730.546	38.64
730.728	38.76
730.91	38.81
731.091	38.74
731.273	38.11
731.455	38.71
731.636	38.82
731.818	38.87
731.999	39.54
732.181	39.08
732.362	39.19
732.544	39.5
732.725	39.73
732.907	39.58
733.088	39.41
733.27	40.38
733.451	40.14
733.633	39.75
733.814	39.2
733.995	38.26
734.177	38.21
734.358	38.85
734.539	38.64
734.721	38.13
734.902	37.81
735.083	37.74
735.264	37.44
735.446	38.48
735.627	38.22
735.808	38.33
735.989	38.99
736.17	39.16
736.351	38.13
736.533	38.16
736.714	38.61
736.895	39.73
737.076	39.45
737.257	39.23
737.438	38.33
737.619	37.89
737.8	37.75
737.981	38.02
738.162	37.65
738.343	38.38
738.524	38.77
738.705	38.26
738.886	37.3
739.067	37.37
739.247	37.05
739.428	37.43
739.609	37.84
739.79	38.22
739.971	38.25
740.151	38.2
740.332	37.64
740.513	37.32
740.694	37.76
740.874	38.84
741.055	39.25
741.236	39.06
741.417	38
741.597	37.98
741.778	37.52
741.958	36.46
742.139	36.99
742.32	37.42
742.5	38.6
742.681	37.87
742.861	37.82
743.042	36.4
743.222	36.77
743.403	37.36
743.583	37.04
743.764	37.44
743.944	37.87
744.124	37.4
744.305	36.89
744.485	36.05
744.666	36.48
744.846	35.4
745.026	36.5
745.207	37.81
745.387	38.37
745.567	39.15
745.747	38.1
745.928	38.45
746.108	38.52
746.288	39
746.468	38.61
746.648	38.8
746.829	38.84
747.009	39.63
747.189	38.2
747.369	37.86
747.549	37.8
747.729	39.15
747.909	38.91
748.089	38.66
748.269	37.78
748.449	37.71
748.629	37.25
748.809	36.87
748.989	37.28
749.169	36.86
749.349	37.35
749.529	37.38
749.709	36.95
749.889	36.89
750.068	37.35
750.248	37.89
750.428	38.56
750.608	39.76
750.788	40.52
750.967	39.74
751.147	40.13
751.327	39.2
751.507	38.31
751.686	37.97
751.866	38.82
752.046	39.43
752.225	40.03
752.405	39.46
752.585	38.84
752.764	38.86
752.944	38.54
753.123	38.95
753.303	39.53
753.482	40.1
753.662	40.58
753.841	40.24
754.021	40.1
754.2	40.08
754.38	40.56
754.559	39.81
754.739	39.81
754.918	39.66
755.097	40.1
755.277	40.24
755.456	39.91
755.635	40.2
755.815	39.65
755.994	39.2
756.173	38.85
756.352	37.94
756.532	38.1
756.711	38.15
756.89	38.98
757.069	38.44
757.248	37.55
757.427	38.11
757.607	37.93
757.786	38.64
757.965	38.02
758.144	38.18
758.323	38.45
758.502	38.99
758.681	38.8
758.86	38.62
759.039	37.52
759.218	37.7
759.397	38.17
759.576	37.87
759.755	37.12
759.934	38.17
760.113	38.42
760.291	38.43
760.47	38.52
760.649	38.37
760.828	38.74
761.007	40.06
761.186	41.05
761.364	40.39
761.543	40.3
761.722	41.35
761.901	40.63
762.079	40.41
762.258	41.53
762.437	42.25
762.615	42
762.794	41.15
762.972	40.9
763.151	41.32
763.33	41.4
763.508	42.19
763.687	41.54
763.865	41.33
764.044	41.68
764.222	40.77
764.401	39.78
764.579	40.37
764.758	40.39
764.936	40.46
765.114	39.72
765.293	39.69
765.471	40.2
765.65	40.01
765.828	40.42
766.006	39.62
766.184	39.58
766.363	39.65
766.541	39.45
766.719	39.29
766.898	39.54
767.076	39.55
767.254	40.32
767.432	38.66
767.61	37.67
767.788	37.64
767.967	38.29
768.145	38.46
768.323	40.35
768.501	40.97
768.679	42.2
768.857	42.38
769.035	42.54
769.213	40.78
769.391	40.56
769.569	43.88
769.747	42.91
769.925	42.75
770.103	43.53
770.281	41.64
770.459	40.71
770.636	39.5
770.814	39.51
770.992	39.9
771.17	41.15
771.348	41.73
771.525	39.88
771.703	40.04
771.881	40.38
772.059	40.28
772.236	40.13
772.414	41.03
772.592	42.18
772.769	41.7
772.947	41.79
773.125	42.09
773.302	41.09
773.48	40.52
773.657	41.63
773.835	40.85
774.013	39.74
774.19	39.65
774.368	38.78
774.545	37.73
774.723	38.06
774.9	37.12
775.077	37.5
775.255	37.55
775.432	38.66
775.61	37.94
775.787	37.41
775.964	37.98
776.142	38.5
776.319	38.76
776.496	39.33
776.674	39.01
776.851	38.61
777.028	38.79
777.205	39.78
777.382	39.6
777.56	41.55
777.737	43.71
777.914	42.8
778.091	41.58
778.268	41.31
778.445	41.77
778.622	42.05
778.8	44.1
778.977	43.6
779.154	43.61
779.331	44.54
779.508	42.34
779.685	40.97
779.862	42.78
780.038	44.16
780.215	43.82
780.392	42.71
780.569	41.57
780.746	40.07
780.923	40.41
781.1	41.35
781.277	39.29
781.453	40.05
781.63	38.84
781.807	37.77
781.984	36.25
782.16	36.26
782.337	36.11
782.514	39.24
782.691	40.05
782.867	37.86
783.044	35.77
783.221	35.9
783.397	36.53
783.574	37.71
783.75	38.95
783.927	40.21
784.103	41
784.28	43.22
784.456	42.8
784.633	42.22
784.809	43.09
784.986	43.46
785.162	41.7
785.339	42.42
785.515	43.55
785.692	42.32
785.868	41.82
786.044	42.4
786.221	41.81
786.397	39.25
786.573	37.78
786.749	38.47
786.926	38.78
787.102	41.15
787.278	38.71
787.454	37.61
787.631	38
787.807	37.57
787.983	36.51
788.159	35.3
788.335	36.24
788.511	38.8
788.687	37.97
788.863	38.56
789.039	38.44
789.216	38.82
789.392	38.24
789.568	38.99
789.744	40.55
789.919	40.66
790.095	41.28
790.271	41.79
790.447	39.86
790.623	39.4
790.799	40.03
790.975	39.6
791.151	39.71
791.327	40.26
791.502	38.46
791.678	37.09
791.854	38.1
792.03	37.42
792.205	36.1
792.381	39.2
792.557	39.68
792.733	39.47
792.908	40.67
793.084	41.48
793.259	41.69
793.435	42.77
793.611	45.57
793.786	43.7
793.962	44.14
794.137	44.21
794.313	41.56
794.488	43.19
794.664	42.65
794.839	41.45
795.015	42.1
795.19	39.88
795.366	38.84
795.541	34.51
795.716	35.14
795.892	36.37
796.067	35.84
796.242	37.08
796.418	36.54
796.593	39.22
796.768	40.61
796.944	37.27
797.119	40.58
797.294	43.65
797.469	46.81
797.644	48.4
797.82	47.98
797.995	49.28
798.17	50.23
798.345	49.2
798.52	47.51
798.695	47.74
798.87	50.91
799.045	47.32
799.22	45.12
799.395	42.73
799.57	41.88
799.745	41.79
799.92	42.57
800.095	42.58
800.27	43.38
800.445	43.83
800.62	43.32
800.795	43.05
800.97	44.83
801.145	43.55
801.319	42.75
801.494	41.86
801.669	42.56
801.844	41.79
802.018	39.66
802.193	40.79
802.368	36.14
802.543	37.78
802.717	37.28
802.892	36.8
803.067	38.22
803.241	41.16
803.416	41.65
803.59	42.04
803.765	41.28
803.94	40.81
804.114	39.2
804.289	41.78
804.463	40.05
804.638	39.46
804.812	41.79
804.986	41.8
805.161	41.19
805.335	41.78
805.51	40.13
805.684	42.13
805.858	43.75
806.033	44.49
806.207	48.08
806.381	45.77
806.556	46.39
806.73	44.05
806.904	43.19
807.078	43.07
807.253	42.97
807.427	41.82
807.601	41.39
807.775	39.74
807.949	40.17
808.123	37.96
808.298	40.36
808.472	42.15
808.646	45.35
808.82	46.85
808.994	46.26
809.168	45.96
809.342	46.43
809.516	46.61
809.69	50.56
809.864	50.42
810.038	51.36
810.212	52.94
810.385	51.4
810.559	50.44
810.733	50.26
810.907	50.57
811.081	49.44
811.255	50.31
811.428	47.91
811.602	48.2
811.776	47.74
811.95	48.41
812.123	46.03
812.297	46.97
812.471	45.14
812.644	42.19
812.818	41.93
812.992	42.59
813.165	43.29
813.339	45.19
813.512	41.66
813.686	43.77
813.86	42.1
814.033	42.73
814.207	40.75
814.38	38.76
814.554	42.15
814.727	40.06
814.9	37.18
815.074	34.21
815.247	31.92
815.421	33.27
815.594	28.79
815.767	28.1
815.941	25.9
816.114	25.91
816.287	26.36
816.46	24.13
816.634	28.09
816.807	30.67
816.98	31.74
817.153	35.54
817.327	32.77
817.5	34.08
817.673	35.49
817.846	37.72
818.019	38.94
818.192	40.83
818.365	42.11
818.538	40.22
818.711	41.48
818.884	41.9
819.057	38.88
819.23	38.92
819.403	38.71
819.576	38.3
819.749	38.43
819.922	39.76
820.095	40.01
820.268	39.42
820.441	41.86
820.614	41.36
820.786	41.3
820.959	42.27
821.132	44.46
821.305	44.92
821.477	43.65
821.65	41.93
821.823	41.83
821.996	42.21
822.168	42.06
822.341	41.06
822.514	41.56
822.686	41.63
822.859	42.06
823.031	41.43
823.204	41.68
823.376	41.86
823.549	42.58
823.722	41.9
823.894	41.66
824.067	41.75
824.239	41.91
824.411	42.33
824.584	42.38
824.756	41.73
824.929	42.21
825.101	41.54
825.273	41.3
825.446	41
825.618	41.4
825.79	40.71
825.963	40.06
826.135	40.63
826.307	40.14
826.479	40.47
826.652	41.15
826.824	40.82
826.996	41.24
827.168	42.02
827.34	42.67
827.512	42.8
827.684	43.64
827.856	45.44
828.029	45.33
828.201	44.73
828.373	44.57
828.545	43.66
828.717	42.31
828.889	42.69
829.061	42.16
829.232	41.74
829.404	42.18
829.576	43
829.748	41.53
829.92	40.79
830.092	41.28
830.264	41.03
830.436	41.91
830.607	43.68
830.779	43.13
830.951	44.72
831.123	44.36
831.294	44.6
831.466	43.2
831.638	43.27
831.809	44.6
831.981	44.63
832.153	45.38
832.324	44.06
832.496	42.68
832.667	41.27
832.839	40.51
833.011	40.55
833.182	39.33
833.354	38.47
833.525	38.78
833.697	38.5
833.868	37.75
834.039	36.57
834.211	37.61
834.382	39.42
834.554	40.59
834.725	39.57
834.896	39.26
835.068	40.83
835.239	41.68
835.41	42.12
835.581	41.93
835.753	42.87
835.924	43.01
836.095	42.71
836.266	42.09
836.438	42.01
836.609	42.12
836.78	42.38
836.951	40
837.122	39.99
837.293	39.18
837.464	39.24
837.635	40.12
837.806	41.31
837.977	43.25
838.148	41.18
838.319	41.43
838.49	40.4
838.661	40.74
838.832	41.14
839.003	41.94
839.174	40.82
839.345	41.73
839.516	39.75
839.687	38.27
839.857	35.52
840.028	37.44
840.199	34.42
840.37	36.62
840.54	34.62
840.711	32.93
840.882	35.14
841.053	38.3
841.223	33.74
841.394	29.3
841.564	34.13
841.735	34.46
841.906	38.58
842.076	41.13
842.247	38.94
842.417	40.59
842.588	43.74
842.758	46.05
842.929	46.03
843.099	50.54
843.27	53.76
843.44	49.61
843.611	53.13
843.781	47.69
843.951	48.01
844.122	51.53
844.292	52.71
844.462	50.08
844.633	39.92
844.803	36.55
844.973	32.92
845.144	37.61
845.314	33.76
845.484	29.52
845.654	34.55
845.824	36.5
845.995	28.97
846.165	33.62
846.335	36.25
846.505	40.36
846.675	46.8
846.845	59.22
847.015	58.27
847.185	62.06
847.355	64.93
847.525	67.31
847.695	63.51
847.865	69.37
848.035	62.1
848.205	68.28
848.375	69.4
848.545	63.37
848.715	53.23
848.884	53.12
849.054	57.45
849.224	55.8
849.394	45.47
849.564	50.65
849.733	47.29
849.903	52.11
850.073	53.04
850.243	51.96
850.412	46.72
850.582	45.97
850.752	37.31
850.921	28.34
851.091	35.16
851.26	47.92
851.43	45.41
851.599	45.15
851.769	44.33
851.939	33.55
852.108	35.39
852.278	36.76
852.447	38.43
852.616	46.66
852.786	51.71
852.955	48.26
853.125	47.19
853.294	41.77
853.463	39.38
853.633	36.02
853.802	44.38
853.971	38.27
854.141	45.16
854.31	43.63
854.479	40.24
854.648	46.54
854.818	50.17
854.987	41
855.156	50.19
855.325	57.21
855.494	60.54
855.663	59.82
855.832	60.71
856.001	53.92
856.171	51.14
856.34	46.32
856.509	39.03
856.678	38.59
856.847	44.15
857.016	41.2
857.185	38.63
857.353	34.5
857.522	34.31
857.691	33.21
857.86	38.39
858.029	43.11
858.198	40.77
858.367	40.25
858.535	35.02
858.704	26.66
858.873	24.99
859.042	18.55
859.21	24.29
859.379	19.9
859.548	14.45
859.717	15.74
859.885	15.03
860.054	17.55
860.222	13.88
860.391	20.43
860.56	27.28
860.728	28.02
860.897	33.16
861.065	27.14
861.234	30.34
861.402	37.43
861.571	37.4
861.739	34.22
861.908	37.56
862.076	49.18
862.244	48.49
862.413	52.38
862.581	54.74
862.749	64.08
862.918	66.14
863.086	74.69
863.254	65.86
863.423	69.04
863.591	64.98
863.759	59.11
863.927	50.49
864.096	59.64
864.264	65.38
864.432	71.36
864.6	58.34
864.768	66.22
864.936	52.34
865.104	53.6
865.272	51.81
865.44	52.55
865.608	63.81
865.776	55.29
865.944	45.06
866.112	37.36
866.28	31.89
866.448	31.15
866.616	17.3
866.784	31.86
866.952	23.3
867.12	24.42
867.288	38.79
867.455	37.97
867.623	45.26
867.791	43.87
867.959	42.21
868.127	42.28
868.294	43.49
868.462	45.8
868.63	43.27
868.797	48.34
868.965	52.45
869.133	46.18
869.3	47.04
869.468	43.83
869.636	38.96
869.803	38.46
869.971	41.52
870.138	39.89
870.306	53.87
870.473	50.53
870.641	45.6
870.808	44.23
870.975	46.55
871.143	45.64
871.31	37.58
871.478	45.52
871.645	40.25
871.812	25.66
871.98	32.42
872.147	15.31
872.314	16.66
872.482	14.38
872.649	14.33
872.816	14.01
872.983	10.98
873.15	27.12
873.318	31.22
873.485	39.81
873.652	41.6
873.819	34.81
873.986	38.83
874.153	43.67
874.32	50.17
874.487	43.36
874.654	33.56
874.821	28.63
874.988	26.87
875.155	22.91
875.322	23.58
875.489	27.42
875.656	39.17
875.823	41.61
875.99	45.36
876.157	48.37
876.324	53.72
876.49	60.78
876.657	65.86
876.824	65.4
876.991	74.36
877.157	82.06
877.324	87.02
877.491	75.58
877.658	73.12
877.824	63.76
877.991	56.29
878.157	51.76
878.324	48.62
878.491	48.49
878.657	55.32
878.824	54.9
878.99	46.25
879.157	37.87
879.323	38.78
879.49	41.37
879.656	46.29
879.823	50.46
879.989	56.96
880.156	60.63
880.322	54.67
880.488	51.84
880.655	49.35
880.821	51.9
880.987	52.94
881.154	53.48
881.32	52.63
881.486	54.57
881.652	49.8
881.819	45.11
881.985	44.99
882.151	46.75
882.317	46.16
882.483	45.76
882.649	46.28
882.816	47.83
882.982	48.05
883.148	46.75
883.314	45.38
883.48	46.71
883.646	47.33
883.812	46.71
883.978	47.46
884.144	47.29
884.31	47.86
884.476	47.81
884.642	47.21
884.807	47.54
884.973	46.52
885.139	47.32
885.305	46.81
885.471	47.97
885.637	46.97
885.802	46.5
885.968	44.45
886.134	44.29
886.3	42.77
886.465	42.91
886.631	41.63
886.797	42.54
886.962	42.02
887.128	37.84
887.293	38.17
887.459	39.07
887.625	38.65
887.79	42.17
887.956	40.86
888.121	42.37
888.287	40.57
888.452	39.54
888.618	40.71
888.783	37.8
