Data from LC_254_Reflection_2.txt Node
Date: Thu Nov 19 23:12:38 EST 2015
User: robert
Spectrometer: USB4E03001
Autoset integration time: false
Trigger mode: 4
Integration Time (sec): 1.000000E-1
Scans to average: 15
Electric dark correction enabled: true
Nonlinearity correction enabled: false
Boxcar width: 5
Stray light correction enabled: false
XAxis mode: Wavelengths
Stop averaging: false
Number of Pixels in Spectrum: 3648
>>>>>Begin Spectral Data<<<<<
177.566	38
177.785	21.48
178.005	19.51
178.225	-3.2
178.445	11.87
178.665	-8.51
178.885	18.31
179.105	-154.76
179.324	-61.33
179.544	38.45
179.764	64.65
179.984	101.13
180.204	264.88
180.423	264.09
180.643	262.64
180.863	171.66
181.083	273.79
181.302	180.31
181.522	138.95
181.742	133.82
181.961	168.98
182.181	214.14
182.401	237.46
182.621	201.46
182.84	399.22
183.06	336.02
183.279	314.38
183.499	201.9
183.719	521.13
183.938	2035.35
184.158	-939.88
184.377	-609.67
184.597	245.47
184.816	-2440.57
185.036	-11.17
185.256	28.89
185.475	28.72
185.695	28.1
185.914	82.49
186.134	99.39
186.353	14.7
186.572	70.37
186.792	112.54
187.011	-527.31
187.231	-108.52
187.45	-505.42
187.67	-12.65
187.889	2.07
188.108	7.77
188.328	19.5
188.547	-132.04
188.766	-190.98
188.986	-78.82
189.205	2803.92
189.424	188.51
189.644	180.13
189.863	115.21
190.082	94.39
190.302	137.06
190.521	124.48
190.74	142.6
190.959	126.93
191.178	133.26
191.398	136.12
191.617	120.41
191.836	193.09
192.055	105.65
192.274	171.67
192.494	204.68
192.713	111.22
192.932	90.65
193.151	95.58
193.37	91.57
193.589	115.59
193.808	113.23
194.027	116.73
194.246	111.08
194.465	122.64
194.685	108.69
194.904	108.93
195.123	102.46
195.342	149.1
195.561	117.84
195.78	87.3
195.999	78.05
196.218	94
196.436	92.66
196.655	102.16
196.874	95.3
197.093	127.19
197.312	110.88
197.531	142.81
197.75	224.67
197.969	228.36
198.188	-880.31
198.407	-185.22
198.625	-259.15
198.844	-122.61
199.063	-1022.99
199.282	-91.08
199.501	-104.75
199.719	-44.17
199.938	23.71
200.157	-23.55
200.376	-135.12
200.594	878.27
200.813	1021.63
201.032	898.99
201.251	934.64
201.469	550.39
201.688	189.97
201.907	283.98
202.125	1323.01
202.344	246.4
202.563	214.91
202.781	108.99
203	85.82
203.218	70.73
203.437	21.06
203.656	78.94
203.874	75.16
204.093	-26.79
204.311	23.27
204.53	29.03
204.748	50.32
204.967	68.05
205.185	88.23
205.404	80.47
205.622	59.83
205.841	60.82
206.059	8.23
206.278	1.4
206.496	105.95
206.715	65.92
206.933	-5.86
207.151	49.73
207.37	28.45
207.588	-38.22
207.806	53.34
208.025	59.44
208.243	-27.12
208.461	35.9
208.68	21.15
208.898	-49.81
209.116	-43.57
209.335	43.65
209.553	23.7
209.771	371.43
209.989	-129.09
210.208	339.35
210.426	511.63
210.644	27.83
210.862	77.91
211.081	73.42
211.299	98.98
211.517	131.68
211.735	85.22
211.953	71.68
212.171	62.57
212.39	71.05
212.608	60.07
212.826	70.52
213.044	44.82
213.262	-2.86
213.48	-16.97
213.698	-8.39
213.916	-52.54
214.134	-83.41
214.352	-162.6
214.57	-135.34
214.788	245.72
215.006	253.2
215.224	250.59
215.442	524.75
215.66	247.88
215.878	438.76
216.096	411.28
216.314	446.3
216.532	773.84
216.75	1454.87
216.968	-253.34
217.185	-98.28
217.403	-444.4
217.621	-720.48
217.839	68.06
218.057	36.63
218.275	68.51
218.492	75.48
218.71	42.85
218.928	18.11
219.146	1.88
219.363	15.31
219.581	13.22
219.799	3.96
220.017	1.85
220.234	9.06
220.452	29.9
220.67	30.82
220.887	46.3
221.105	72.07
221.323	73.44
221.54	78.74
221.758	81.52
221.976	68.81
222.193	56.5
222.411	57.84
222.629	62.66
222.846	58.27
223.064	53.31
223.281	40.61
223.499	42.3
223.716	36.96
223.934	19.15
224.151	17.73
224.369	24.1
224.586	30.97
224.804	33.5
225.021	37.79
225.239	30.1
225.456	13.62
225.674	10.47
225.891	18.28
226.108	29.36
226.326	30.89
226.543	22.33
226.76	23.16
226.978	20.55
227.195	19.12
227.413	6.78
227.63	6.53
227.847	14.42
228.064	17.87
228.282	14.8
228.499	18.18
228.716	18.28
228.934	17.76
229.151	18.53
229.368	16.96
229.585	16.59
229.802	16.65
230.02	17.33
230.237	15.03
230.454	12.77
230.671	10.89
230.888	5.83
231.105	3.42
231.323	4.13
231.54	-0.33
231.757	0.79
231.974	4.12
232.191	7.23
232.408	5.25
232.625	6.44
232.842	10.88
233.059	17.07
233.276	21.15
233.493	22.31
233.71	20.74
233.927	26.05
234.144	22.56
234.361	18.07
234.578	17
234.795	16.11
235.012	18.19
235.229	13.76
235.446	14.24
235.663	9.81
235.879	6.17
236.096	6.38
236.313	1.52
236.53	5.83
236.747	7.59
236.964	5.89
237.181	6.05
237.397	7.41
237.614	11.71
237.831	11.22
238.048	17.06
238.264	14.34
238.481	20.31
238.698	20.71
238.915	27.18
239.131	23.33
239.348	26.28
239.565	30.63
239.781	28.54
239.998	25.17
240.215	22.34
240.431	20.96
240.648	22.52
240.865	19
241.081	19.24
241.298	15.12
241.514	15.01
241.731	13.83
241.947	12.66
242.164	11.97
242.38	12.35
242.597	12.29
242.814	12.12
243.03	12.86
243.246	14.02
243.463	12.79
243.679	12.53
243.896	13.09
244.112	12.93
244.329	12.23
244.545	13.44
244.762	11.67
244.978	11.3
245.194	7.85
245.411	8.24
245.627	6.49
245.843	7.33
246.06	9.65
246.276	8.58
246.492	8.65
246.709	9.16
246.925	8.63
247.141	8.85
247.357	9.49
247.574	10.91
247.79	10.31
248.006	11.25
248.222	10.86
248.439	10.46
248.655	11.32
248.871	11.46
249.087	10.91
249.303	10.71
249.519	11.24
249.736	10.51
249.952	9.53
250.168	9.57
250.384	6.93
250.6	7.94
250.816	7.21
251.032	5.79
251.248	7.05
251.464	7.18
251.68	7.59
251.896	7.84
252.112	7.34
252.328	8.87
252.544	8.58
252.76	9.33
252.976	9.36
253.192	8.37
253.408	8.54
253.624	9.43
253.84	10.32
254.056	9.94
254.272	10.33
254.487	10.74
254.703	9.92
254.919	11.17
255.135	13.41
255.351	13.55
255.567	14.89
255.782	13.78
255.998	11.7
256.214	10.7
256.43	10.68
256.646	12.75
256.861	14.1
257.077	13.84
257.293	14.06
257.508	14.97
257.724	14.65
257.94	14.57
258.155	15.38
258.371	15.21
258.587	15.77
258.802	14.2
259.018	12.85
259.234	11.56
259.449	11.08
259.665	10.68
259.88	9.81
260.096	9.82
260.312	9.01
260.527	8.75
260.743	8.18
260.958	7.92
261.174	8.44
261.389	8.25
261.605	9.04
261.82	8.74
262.036	7.01
262.251	5.98
262.466	5.57
262.682	5.9
262.897	5.93
263.113	5.34
263.328	5.88
263.543	5.96
263.759	7.54
263.974	8
264.189	8.7
264.405	12.21
264.62	13.27
264.835	14.13
265.051	14.45
265.266	13.59
265.481	13.49
265.696	12.47
265.912	11.11
266.127	10.57
266.342	8.27
266.557	8.47
266.773	8.71
266.988	8.56
267.203	6.87
267.418	6.89
267.633	7.89
267.848	7.76
268.064	7.14
268.279	7.04
268.494	6.71
268.709	6.9
268.924	5.39
269.139	4.37
269.354	4.48
269.569	5.02
269.784	4.78
269.999	3.51
270.214	3.9
270.429	3.95
270.644	4.75
270.859	3.4
271.074	3.59
271.289	4.87
271.504	5.54
271.719	5.44
271.934	5.8
272.149	7.02
272.363	7.04
272.578	8.09
272.793	8.41
273.008	8.3
273.223	9.61
273.438	10.75
273.653	11.07
273.867	11.13
274.082	11.14
274.297	11.43
274.512	10.92
274.726	12.34
274.941	11.89
275.156	10.85
275.371	11.12
275.585	10.8
275.8	9.63
276.015	9.42
276.229	9.16
276.444	9.34
276.659	9.52
276.873	8.62
277.088	8.87
277.302	7.97
277.517	9.53
277.732	9.81
277.946	9.5
278.161	9.84
278.375	10.05
278.59	9.22
278.804	9.53
279.019	8.51
279.233	8.94
279.448	9.46
279.662	9.74
279.877	8.75
280.091	8.77
280.306	8.98
280.52	8.39
280.735	8.54
280.949	8.19
281.163	8.1
281.378	9.09
281.592	9.16
281.806	8.33
282.021	9.27
282.235	8.99
282.449	8.89
282.664	8.32
282.878	8.74
283.092	8.2
283.307	10.12
283.521	10.25
283.735	10.17
283.949	11.01
284.164	10.69
284.378	9.76
284.592	9.53
284.806	10.21
285.02	9.73
285.234	9.91
285.449	9.53
285.663	9.03
285.877	9.49
286.091	9.5
286.305	8.81
286.519	8.64
286.733	8.75
286.947	9.96
287.161	8.01
287.375	9.04
287.589	7.96
287.803	8.95
288.017	8.72
288.231	8.3
288.445	7.48
288.659	7.25
288.873	6.69
289.087	6.49
289.301	5.51
289.515	6.79
289.729	5.28
289.943	6.87
290.157	7.08
290.371	6.95
290.584	7.08
290.798	7.2
291.012	7.92
291.226	8.39
291.44	9.32
291.654	9.76
291.867	9.97
292.081	10.94
292.295	10.4
292.509	8.66
292.722	9.53
292.936	8.91
293.15	8.94
293.364	9.31
293.577	10.04
293.791	9.56
294.005	9.47
294.218	10.12
294.432	9.25
294.645	10
294.859	11.05
295.073	9.69
295.286	9.82
295.5	10.12
295.713	8.87
295.927	8.41
296.14	8.43
296.354	8.21
296.568	8.35
296.781	9.78
296.994	10.31
297.208	10.02
297.421	10.75
297.635	11.46
297.848	10.52
298.062	11.07
298.275	11.23
298.489	11.11
298.702	11.27
298.915	10.77
299.129	10.45
299.342	9.61
299.555	9.4
299.769	8.5
299.982	8.15
300.195	9.58
300.409	9.39
300.622	8.74
300.835	9.26
301.048	9.52
301.262	9.9
301.475	8.6
301.688	8.25
301.901	8.68
302.115	8.34
302.328	8.19
302.541	7.54
302.754	7.42
302.967	8.86
303.18	8.74
303.393	8.97
303.607	8.34
303.82	8.77
304.033	8.69
304.246	8.87
304.459	9.28
304.672	9.37
304.885	10.07
305.098	10.56
305.311	9.31
305.524	9.01
305.737	7.78
305.95	8.24
306.163	7.92
306.376	7.36
306.589	7.29
306.802	5.92
307.015	5.2
307.228	4.09
307.44	3.39
307.653	3.09
307.866	3.36
308.079	5.63
308.292	4.98
308.505	5.28
308.718	5.8
308.93	6.16
309.143	7.32
309.356	7.38
309.569	7.43
309.781	8.5
309.994	9.03
310.207	8.7
310.42	8.71
310.632	8.91
310.845	9.39
311.058	9.92
311.27	9.62
311.483	9.45
311.696	9.35
311.908	9.89
312.121	8.49
312.333	9
312.546	8.84
312.759	7.7
312.971	7.46
313.184	6.98
313.396	6.25
313.609	6.61
313.821	6.57
314.034	7.38
314.246	6.94
314.459	8.21
314.671	7.95
314.884	9.02
315.096	9.31
315.309	10.03
315.521	10.6
315.733	10.76
315.946	11.28
316.158	12.24
316.371	12.69
316.583	13.74
316.795	12.16
317.008	11.32
317.22	10.45
317.432	10.8
317.644	11.11
317.857	10.76
318.069	10.74
318.281	10.07
318.494	10.56
318.706	8.72
318.918	7.59
319.13	8.93
319.342	9.16
319.555	8.52
319.767	8.69
319.979	7.72
320.191	7.96
320.403	8.34
320.615	6.95
320.827	6.14
321.039	5.93
321.252	5.68
321.464	6.03
321.676	6.1
321.888	6.94
322.1	7.12
322.312	7.41
322.524	8.31
322.736	7.87
322.948	9.36
323.16	8.89
323.372	8.93
323.584	9.8
323.796	8.29
324.007	8.45
324.219	8.46
324.431	7.48
324.643	7.73
324.855	7.07
325.067	7.63
325.279	7.2
325.491	7.67
325.702	8.17
325.914	7.65
326.126	9.04
326.338	10.04
326.55	9.55
326.761	9.99
326.973	10.57
327.185	10.75
327.396	11.02
327.608	11.17
327.82	11.4
328.032	12.16
328.243	13.33
328.455	12.78
328.666	12.49
328.878	12.61
329.09	13.27
329.301	14.05
329.513	13.77
329.725	13.25
329.936	13.64
330.148	13.79
330.359	13.84
330.571	13.28
330.782	13.87
330.994	13.98
331.205	14.55
331.417	14.16
331.628	12.43
331.84	12.64
332.051	12.13
332.262	11.93
332.474	12.81
332.685	12.55
332.897	12.6
333.108	12.29
333.319	12.07
333.531	12.13
333.742	11.8
333.953	12.33
334.165	13.02
334.376	13.58
334.587	13.88
334.799	11.81
335.01	11.06
335.221	10.9
335.432	11.13
335.644	11.07
335.855	10.45
336.066	11.14
336.277	10.25
336.488	9.72
336.7	9.77
336.911	9.12
337.122	9.84
337.333	10.09
337.544	9.57
337.755	9.77
337.966	8.87
338.177	9.54
338.388	9.54
338.599	10.5
338.811	10.85
339.022	9.67
339.233	10.23
339.444	10.87
339.655	11.36
339.866	11.7
340.076	11.1
340.287	11.66
340.498	11.83
340.709	11.3
340.92	10.13
341.131	9.92
341.342	11
341.553	10.98
341.764	9.98
341.975	10.02
342.185	10.07
342.396	10.49
342.607	10.41
342.818	9.92
343.029	10.38
343.239	11.36
343.45	10.73
343.661	10.14
343.872	9.89
344.082	10.08
344.293	10.34
344.504	11.14
344.714	10.96
344.925	10.83
345.136	10.62
345.346	9.44
345.557	9.01
345.768	9.02
345.978	8.73
346.189	8.2
346.399	8.32
346.61	7.17
346.821	6.23
347.031	6.14
347.242	6.13
347.452	6.1
347.663	6.75
347.873	7.45
348.084	8.15
348.294	8.57
348.504	9.6
348.715	9.76
348.925	10.28
349.136	10.52
349.346	10.5
349.557	10.6
349.767	11.09
349.977	11.19
350.188	10.3
350.398	10.11
350.608	10.33
350.819	9.78
351.029	9.39
351.239	9.57
351.449	9.28
351.66	9.34
351.87	9.64
352.08	8.76
352.29	9.35
352.501	9.38
352.711	9.4
352.921	8.91
353.131	8.17
353.341	8.17
353.552	8.04
353.762	8.08
353.972	7.54
354.182	7.37
354.392	7.83
354.602	6.83
354.812	7.36
355.022	6.86
355.232	7.73
355.442	8.05
355.652	7.52
355.862	7.28
356.072	6.99
356.282	8.44
356.492	8.38
356.702	8.25
356.912	8.72
357.122	8.3
357.332	8.32
357.542	7.76
357.752	7.68
357.962	8.4
358.171	8.36
358.381	8.48
358.591	7.26
358.801	7.35
359.011	8.07
359.221	7.75
359.43	7.4
359.64	7.57
359.85	8.1
360.06	8.48
360.269	8.56
360.479	8.72
360.689	8.73
360.899	8.53
361.108	8.71
361.318	8.19
361.528	8.36
361.737	8.74
361.947	8.6
362.156	7.97
362.366	8.16
362.576	8.21
362.785	8.21
362.995	7.96
363.204	8.53
363.414	7.97
363.623	7.68
363.833	7.67
364.042	7.67
364.252	8.04
364.461	8.26
364.671	7.75
364.88	8.25
365.09	8.3
365.299	8.62
365.509	8.51
365.718	8.43
365.927	8.89
366.137	8.92
366.346	8.67
366.555	8.57
366.765	8.66
366.974	8.93
367.183	7.96
367.393	7.69
367.602	8
367.811	8.64
368.021	9.12
368.23	8.69
368.439	8.68
368.648	9.42
368.857	9.59
369.067	9.46
369.276	10.13
369.485	9.94
369.694	9.86
369.903	9.71
370.112	8.54
370.321	8.27
370.531	8.5
370.74	8.22
370.949	7.7
371.158	7.34
371.367	7.43
371.576	6.28
371.785	6.36
371.994	6.91
372.203	6.61
372.412	7.02
372.621	6.88
372.83	6.98
373.039	7.15
373.248	7.24
373.457	7.28
373.666	7.48
373.874	7.92
374.083	7.97
374.292	7.52
374.501	7.37
374.71	7.72
374.919	7.92
375.128	7.88
375.336	7.56
375.545	7.66
375.754	7.29
375.963	7.31
376.171	6.97
376.38	6.95
376.589	6.79
376.798	6.53
377.006	6.22
377.215	6.34
377.424	6.12
377.632	6.41
377.841	6.23
378.05	6.82
378.258	6.74
378.467	7.03
378.675	6.95
378.884	7.63
379.093	8.2
379.301	8.25
379.51	8.51
379.718	8.77
379.927	8.66
380.135	8.89
380.344	8.59
380.552	8.52
380.761	8.59
380.969	8.85
381.177	8.12
381.386	7.85
381.594	7.94
381.803	7.49
382.011	7.34
382.219	7.31
382.428	6.99
382.636	6.84
382.845	6.92
383.053	6.45
383.261	6.48
383.469	6.78
383.678	7.02
383.886	6.64
384.094	6.69
384.302	6.78
384.511	6.46
384.719	6.29
384.927	6.15
385.135	6.19
385.343	6.45
385.552	6.4
385.76	6.35
385.968	5.97
386.176	6.12
386.384	5.97
386.592	6.15
386.8	6.49
387.008	6.44
387.216	6.39
387.424	6.21
387.633	6.25
387.841	6.38
388.049	6.47
388.257	6.64
388.465	6.64
388.672	6.63
388.88	6.18
389.088	6.39
389.296	6.81
389.504	7.01
389.712	6.93
389.92	6.91
390.128	6.73
390.336	6.63
390.544	6.16
390.751	5.76
390.959	5.7
391.167	6.04
391.375	5.99
391.583	5.35
391.79	5.19
391.998	5.35
392.206	5.35
392.414	5.44
392.621	5.51
392.829	5.68
393.037	6.19
393.244	6.43
393.452	6.29
393.66	6.02
393.867	6.42
394.075	6.78
394.283	6.45
394.49	6.28
394.698	6.18
394.905	5.87
395.113	6.09
395.32	6.06
395.528	6.03
395.735	6.13
395.943	6.21
396.15	5.89
396.358	5.63
396.565	5.83
396.773	5.67
396.98	5.71
397.188	5.87
397.395	5.75
397.602	5.56
397.81	5.29
398.017	5.09
398.225	4.96
398.432	5.11
398.639	5.15
398.847	5.1
399.054	5.24
399.261	5.28
399.468	5.23
399.676	5.44
399.883	5.3
400.09	5.5
400.297	5.47
400.505	5.62
400.712	5.76
400.919	5.73
401.126	6.08
401.333	6.34
401.54	6.08
401.748	6.39
401.955	6.29
402.162	6.45
402.369	6.3
402.576	6.51
402.783	6.43
402.99	6.53
403.197	6.52
403.404	6.09
403.611	6.01
403.818	6.14
404.025	5.97
404.232	5.75
404.439	5.87
404.646	5.79
404.853	5.61
405.06	5.79
405.267	5.95
405.474	5.91
405.681	6.06
405.887	6.08
406.094	6.16
406.301	6.23
406.508	6.43
406.715	6.28
406.922	6.27
407.128	6.28
407.335	6.17
407.542	5.87
407.749	5.9
407.955	5.87
408.162	6.03
408.369	6
408.575	6.02
408.782	5.91
408.989	5.95
409.195	5.9
409.402	5.91
409.609	5.76
409.815	5.73
410.022	5.6
410.228	5.68
410.435	5.52
410.642	5.49
410.848	5.4
411.055	5.42
411.261	5.55
411.468	5.57
411.674	5.75
411.881	6.07
412.087	6.03
412.294	6.2
412.5	6.01
412.706	6.03
412.913	5.96
413.119	5.81
413.326	5.74
413.532	5.52
413.738	5.52
413.945	5.25
414.151	5.24
414.357	5.6
414.564	5.62
414.77	5.79
414.976	5.93
415.182	5.93
415.389	6.01
415.595	6.15
415.801	6.14
416.007	6.32
416.214	6.33
416.42	6.05
416.626	5.77
416.832	5.88
417.038	5.89
417.244	5.74
417.45	5.81
417.657	5.87
417.863	6.01
418.069	6.15
418.275	6.28
418.481	6.44
418.687	6.49
418.893	6.56
419.099	6.36
419.305	6.37
419.511	6.32
419.717	6.14
419.923	6.08
420.129	5.95
420.335	5.85
420.541	5.82
420.746	5.67
420.952	5.6
421.158	5.53
421.364	5.54
421.57	5.51
421.776	5.63
421.982	5.61
422.187	5.61
422.393	5.48
422.599	5.43
422.805	5.31
423.01	5.31
423.216	5.22
423.422	5.19
423.628	5.32
423.833	5.26
424.039	5.18
424.245	5.32
424.45	5.32
424.656	5.52
424.862	5.52
425.067	5.51
425.273	5.64
425.478	5.77
425.684	5.97
425.889	5.9
426.095	5.95
426.301	5.97
426.506	6.03
426.712	6.09
426.917	6.09
427.123	6.26
427.328	6.32
427.533	6.34
427.739	6.48
427.944	6.24
428.15	6.1
428.355	5.94
428.561	5.91
428.766	5.94
428.971	5.97
429.177	5.91
429.382	5.88
429.587	5.92
429.793	5.75
429.998	5.51
430.203	5.55
430.408	5.64
430.614	5.96
430.819	5.81
431.024	5.74
431.229	5.58
431.434	5.38
431.64	5.25
431.845	5.36
432.05	5.49
432.255	5.65
432.46	5.72
432.665	5.8
432.87	5.68
433.076	5.7
433.281	5.66
433.486	5.89
433.691	5.92
433.896	5.93
434.101	5.74
434.306	5.48
434.511	5.43
434.716	5.44
434.921	5.44
435.126	5.47
435.331	5.59
435.535	5.52
435.74	5.27
435.945	5.56
436.15	5.51
436.355	5.7
436.56	5.76
436.765	5.74
436.97	5.64
437.174	5.66
437.379	5.62
437.584	5.61
437.789	5.64
437.993	5.67
438.198	5.48
438.403	5.31
438.608	5.48
438.812	5.49
439.017	5.52
439.222	5.61
439.426	5.52
439.631	5.53
439.836	5.69
440.04	5.74
440.245	5.78
440.45	5.79
440.654	6
440.859	5.8
441.063	6.07
441.268	6.16
441.472	6.06
441.677	6.08
441.881	6.12
442.086	5.86
442.29	5.77
442.495	5.79
442.699	5.79
442.904	5.81
443.108	5.72
443.312	5.47
443.517	5.24
443.721	5.36
443.925	5.41
444.13	5.4
444.334	5.59
444.538	5.71
444.743	5.75
444.947	5.76
445.151	5.64
445.356	5.75
445.56	5.81
445.764	5.92
445.968	5.87
446.173	5.85
446.377	5.76
446.581	5.65
446.785	5.6
446.989	5.59
447.193	5.52
447.398	5.52
447.602	5.45
447.806	5.43
448.01	5.4
448.214	5.37
448.418	5.31
448.622	5.2
448.826	5.23
449.03	5.35
449.234	5.21
449.438	5.28
449.642	5.36
449.846	5.43
450.05	5.54
450.254	5.58
450.458	5.5
450.662	5.43
450.866	5.6
451.069	5.56
451.273	5.47
451.477	5.44
451.681	5.47
451.885	5.51
452.089	5.5
452.292	5.36
452.496	5.31
452.7	5.43
452.904	5.5
453.107	5.51
453.311	5.61
453.515	5.62
453.719	5.83
453.922	5.72
454.126	5.61
454.33	5.53
454.533	5.36
454.737	5.29
454.94	5.35
455.144	5.33
455.348	5.37
455.551	5.32
455.755	5.15
455.958	5.04
456.162	5.22
456.365	5.31
456.569	5.33
456.772	5.61
456.976	5.66
457.179	5.63
457.383	5.74
457.586	5.62
457.79	5.68
457.993	5.76
458.196	5.73
458.4	5.7
458.603	5.69
458.807	5.82
459.01	5.65
459.213	5.59
459.417	5.64
459.62	5.56
459.823	5.55
460.026	5.39
460.23	5.4
460.433	5.34
460.636	5.21
460.839	5.12
461.042	5.04
461.246	5.04
461.449	4.99
461.652	4.86
461.855	4.93
462.058	4.93
462.261	5.13
462.464	5.04
462.668	5.15
462.871	5.24
463.074	5.33
463.277	5.07
463.48	5.2
463.683	5.29
463.886	5.35
464.089	5.22
464.292	5.26
464.495	5.33
464.698	5.26
464.901	5.26
465.104	5.29
465.306	5.28
465.509	5.45
465.712	5.32
465.915	5.29
466.118	5.3
466.321	5.53
466.524	5.48
466.726	5.32
466.929	5.45
467.132	5.4
467.335	5.37
467.538	5.25
467.74	5.21
467.943	5.31
468.146	5.36
468.348	5.37
468.551	5.1
468.754	5.14
468.956	5.22
469.159	5.17
469.362	5.21
469.564	5.08
469.767	5.34
469.969	5.37
470.172	5.44
470.375	5.35
470.577	5.34
470.78	5.53
470.982	5.58
471.185	5.62
471.387	5.47
471.59	5.44
471.792	5.58
471.995	5.46
472.197	5.49
472.399	5.45
472.602	5.54
472.804	5.41
473.007	5.28
473.209	5.16
473.411	5.11
473.614	5.41
473.816	5.46
474.018	5.54
474.22	5.61
474.423	5.63
474.625	5.47
474.827	5.49
475.03	5.63
475.232	5.75
475.434	5.96
475.636	5.78
475.838	5.71
476.04	5.71
476.243	5.56
476.445	5.45
476.647	5.42
476.849	5.52
477.051	5.38
477.253	5.22
477.455	5.26
477.657	5.07
477.859	5.21
478.061	5.17
478.263	5.18
478.465	5.16
478.667	5.27
478.869	5.34
479.071	5.27
479.273	5.3
479.475	5.29
479.677	5.23
479.879	5.36
480.081	5.33
480.283	5.35
480.485	5.23
480.686	5.21
480.888	5.17
481.09	5.09
481.292	5.15
481.494	5.25
481.695	5.35
481.897	5.38
482.099	5.34
482.301	5.37
482.502	5.3
482.704	5.3
482.906	5.33
483.107	5.36
483.309	5.36
483.511	5.38
483.712	5.31
483.914	5.3
484.115	5.27
484.317	5.24
484.519	5.24
484.72	5.27
484.922	5.27
485.123	5.28
485.325	5.23
485.526	5.23
485.728	5.22
485.929	5.24
486.131	5.19
486.332	5.19
486.534	5.19
486.735	5.19
486.936	5.26
487.138	5.3
487.339	5.24
487.541	5.31
487.742	5.28
487.943	5.28
488.144	5.31
488.346	5.34
488.547	5.39
488.748	5.45
488.95	5.43
489.151	5.36
489.352	5.32
489.553	5.45
489.755	5.41
489.956	5.48
490.157	5.5
490.358	5.47
490.559	5.54
490.76	5.52
490.961	5.48
491.163	5.5
491.364	5.52
491.565	5.55
491.766	5.46
491.967	5.49
492.168	5.47
492.369	5.51
492.57	5.57
492.771	5.53
492.972	5.5
493.173	5.51
493.374	5.56
493.575	5.53
493.776	5.46
493.976	5.43
494.177	5.4
494.378	5.5
494.579	5.32
494.78	5.21
494.981	5.3
495.182	5.32
495.382	5.24
495.583	5.14
495.784	5.23
495.985	5.45
496.185	5.42
496.386	5.4
496.587	5.34
496.788	5.45
496.988	5.66
497.189	5.62
497.39	5.78
497.59	5.93
497.791	5.94
497.992	5.95
498.192	5.88
498.393	6.02
498.593	6.13
498.794	6.2
498.994	6.18
499.195	6.08
499.395	6.06
499.596	5.93
499.796	5.82
499.997	5.79
500.197	5.74
500.398	5.93
500.598	5.87
500.799	5.84
500.999	5.72
501.199	5.79
501.4	5.86
501.6	5.9
501.801	5.86
502.001	5.95
502.201	6
502.402	6.17
502.602	6.12
502.802	6.23
503.002	6.32
503.203	6.58
503.403	6.45
503.603	6.4
503.803	6.39
504.003	6.5
504.204	6.57
504.404	6.52
504.604	6.41
504.804	6.44
505.004	6.49
505.204	6.43
505.404	6.32
505.604	6.61
505.804	6.72
506.005	6.76
506.205	6.8
506.405	6.78
506.605	7.02
506.805	7.03
507.005	7.03
507.204	7.01
507.404	6.98
507.604	6.93
507.804	6.88
508.004	6.91
508.204	7.09
508.404	7.07
508.604	7.14
508.804	7
509.003	7.09
509.203	6.95
509.403	6.91
509.603	7
509.803	7
510.002	7
510.202	6.96
510.402	6.88
510.602	6.89
510.801	6.91
511.001	7.01
511.201	7.01
511.4	7.16
511.6	7.33
511.8	7.46
511.999	7.56
512.199	7.7
512.398	7.71
512.598	7.79
512.797	7.97
512.997	8.01
513.197	8.01
513.396	8.11
513.596	8.03
513.795	7.93
513.994	8
514.194	8.18
514.393	8.07
514.593	8.22
514.792	8.24
514.992	8.08
515.191	8.14
515.39	8.25
515.59	8.33
515.789	8.55
515.988	8.59
516.188	8.57
516.387	8.4
516.586	8.56
516.786	8.49
516.985	8.55
517.184	8.58
517.383	8.5
517.582	8.44
517.782	8.32
517.981	8.27
518.18	8.26
518.379	8.17
518.578	8.31
518.777	8.21
518.976	8.22
519.176	8.36
519.375	8.4
519.574	8.49
519.773	8.61
519.972	8.71
520.171	8.77
520.37	8.85
520.569	9.06
520.768	9.13
520.967	9.27
521.166	9.37
521.365	9.29
521.564	9.23
521.762	9.21
521.961	9.25
522.16	9.27
522.359	9.44
522.558	9.6
522.757	9.5
522.956	9.39
523.154	9.26
523.353	9.28
523.552	9.3
523.751	9.45
523.949	9.52
524.148	9.44
524.347	9.56
524.546	9.51
524.744	9.46
524.943	9.56
525.142	9.61
525.34	9.78
525.539	9.85
525.737	9.91
525.936	10.03
526.135	10.19
526.333	10.33
526.532	10.28
526.73	10.31
526.929	10.38
527.127	10.33
527.326	10.3
527.524	10.38
527.723	10.38
527.921	10.41
528.12	10.37
528.318	10.3
528.516	10.27
528.715	10.28
528.913	10.28
529.112	10.26
529.31	10.26
529.508	10.34
529.707	10.3
529.905	10.31
530.103	10.33
530.301	10.32
530.5	10.38
530.698	10.4
530.896	10.5
531.094	10.53
531.293	10.59
531.491	10.74
531.689	10.77
531.887	10.89
532.085	10.98
532.283	10.97
532.481	11.11
532.68	11.16
532.878	11.22
533.076	11.25
533.274	11.29
533.472	11.31
533.67	11.25
533.868	11.19
534.066	11.17
534.264	11.14
534.462	11.19
534.66	11.19
534.858	11.08
535.056	11.01
535.253	10.97
535.451	10.98
535.649	11.11
535.847	11.19
536.045	11.33
536.243	11.38
536.441	11.5
536.638	11.48
536.836	11.51
537.034	11.65
537.232	11.82
537.43	11.93
537.627	11.98
537.825	11.96
538.023	11.98
538.22	12.05
538.418	11.93
538.616	11.86
538.813	11.92
539.011	11.92
539.209	11.99
539.406	11.95
539.604	12.05
539.801	12.24
539.999	12.31
540.196	12.37
540.394	12.41
540.591	12.55
540.789	12.61
540.986	12.59
541.184	12.59
541.381	12.55
541.579	12.64
541.776	12.62
541.974	12.52
542.171	12.46
542.368	12.48
542.566	12.49
542.763	12.5
542.96	12.55
543.158	12.66
543.355	12.74
543.552	12.86
543.75	12.85
543.947	12.86
544.144	12.89
544.341	13.1
544.539	13.2
544.736	13.31
544.933	13.3
545.13	13.3
545.327	13.21
545.524	13.27
545.722	13.33
545.919	13.34
546.116	13.34
546.313	13.51
546.51	13.38
546.707	13.36
546.904	13.42
547.101	13.54
547.298	13.66
547.495	13.72
547.692	13.84
547.889	13.77
548.086	13.8
548.283	13.95
548.48	14.02
548.677	14.16
548.874	14.31
549.07	14.39
549.267	14.35
549.464	14.52
549.661	14.58
549.858	14.69
550.055	14.76
550.251	14.95
550.448	14.82
550.645	15.04
550.842	15.12
551.038	15.08
551.235	15
551.432	15.09
551.628	14.96
551.825	15.1
552.022	14.97
552.218	15.03
552.415	15.19
552.612	15.31
552.808	15.17
553.005	15.14
553.201	15.32
553.398	15.41
553.594	15.47
553.791	15.52
553.987	15.67
554.184	15.76
554.38	15.91
554.577	15.89
554.773	16.3
554.97	16.44
555.166	16.57
555.362	16.33
555.559	16.46
555.755	16.61
555.952	16.78
556.148	16.68
556.344	16.9
556.541	16.93
556.737	16.76
556.933	16.49
557.129	16.38
557.326	16.34
557.522	16.68
557.718	16.59
557.914	16.74
558.11	16.37
558.307	16.73
558.503	16.49
558.699	16.38
558.895	16.56
559.091	16.67
559.287	16.88
559.483	17.19
559.679	17.28
559.876	17.36
560.072	17.24
560.268	17.48
560.464	17.18
560.66	17.37
560.856	17.65
561.052	17.77
561.247	17.89
561.443	17.79
561.639	17.56
561.835	17.63
562.031	17.75
562.227	17.79
562.423	17.97
562.619	18.17
562.815	18.25
563.01	18.25
563.206	18.3
563.402	18.42
563.598	18.56
563.793	18.87
563.989	18.94
564.185	18.8
564.381	19.18
564.576	19.25
564.772	19.34
564.968	19.43
565.163	19.59
565.359	19.56
565.555	19.44
565.75	19.47
565.946	19.45
566.141	19.53
566.337	19.64
566.532	19.73
566.728	19.84
566.923	19.84
567.119	19.94
567.314	19.91
567.51	20.08
567.705	20.21
567.901	20.3
568.096	20.41
568.292	20.34
568.487	20.47
568.682	20.26
568.878	20.31
569.073	20.4
569.268	20.41
569.464	20.61
569.659	20.73
569.854	20.65
570.05	20.68
570.245	20.6
570.44	20.69
570.635	20.79
570.831	20.99
571.026	20.98
571.221	21.1
571.416	21.18
571.611	21.18
571.806	21.16
572.002	21.36
572.197	21.42
572.392	21.75
572.587	21.94
572.782	21.93
572.977	22.05
573.172	22.28
573.367	22.23
573.562	22.34
573.757	22.37
573.952	22.38
574.147	22.51
574.342	22.8
574.537	22.59
574.732	22.48
574.927	22.6
575.121	22.59
575.316	22.54
575.511	22.64
575.706	22.53
575.901	22.44
576.096	22.61
576.29	22.62
576.485	22.56
576.68	22.57
576.875	22.77
577.069	22.8
577.264	22.88
577.459	23.03
577.654	23.08
577.848	23.15
578.043	23.63
578.238	23.57
578.432	23.41
578.627	23.44
578.821	23.73
579.016	23.45
579.21	23.5
579.405	23.36
579.6	23.19
579.794	23.25
579.989	23.36
580.183	22.91
580.378	22.86
580.572	22.97
580.766	23.13
580.961	22.93
581.155	23.26
581.35	23.22
581.544	23.26
581.738	23.47
581.933	23.56
582.127	23.68
582.321	24.08
582.516	24.58
582.71	24.8
582.904	24.58
583.099	24.81
583.293	24.87
583.487	24.89
583.681	25.15
583.875	25.01
584.07	25.13
584.264	25.02
584.458	24.85
584.652	24.64
584.846	24.69
585.04	24.95
585.234	25.01
585.428	25.01
585.623	25.25
585.817	25.18
586.011	25.36
586.205	25.39
586.399	25.49
586.593	25.52
586.787	25.45
586.981	25.35
587.174	25.47
587.368	25.55
587.562	25.41
587.756	25.31
587.95	25.34
588.144	25.3
588.338	25.38
588.532	25.52
588.725	25.49
588.919	25.65
589.113	25.88
589.307	25.77
589.501	25.68
589.694	25.83
589.888	26.13
590.082	26.21
590.275	26.24
590.469	26.11
590.663	26.38
590.856	26.51
591.05	26.54
591.244	26.46
591.437	26.45
591.631	26.67
591.824	26.64
592.018	26.41
592.212	26.52
592.405	26.57
592.599	26.68
592.792	26.57
592.986	26.77
593.179	26.88
593.372	27.11
593.566	27.23
593.759	27.25
593.953	27.64
594.146	28.02
594.339	28.12
594.533	28.07
594.726	28.11
594.92	28.03
595.113	28.07
595.306	27.92
595.499	27.68
595.693	27.82
595.886	27.9
596.079	27.8
596.272	27.8
596.466	27.9
596.659	27.97
596.852	27.85
597.045	27.86
597.238	27.68
597.431	27.82
597.624	27.91
597.818	27.89
598.011	27.8
598.204	27.78
598.397	27.66
598.59	27.5
598.783	27.67
598.976	27.66
599.169	27.8
599.362	27.91
599.555	27.91
599.748	28.02
599.941	28.02
600.134	28.02
600.326	28
600.519	28.06
600.712	27.83
600.905	27.86
601.098	28.38
601.291	28.31
601.483	28.45
601.676	28.68
601.869	28.73
602.062	28.82
602.255	28.97
602.447	29
602.64	29.06
602.833	29.2
603.025	29.41
603.218	29.09
603.411	29.22
603.603	29.15
603.796	29.17
603.989	29.06
604.181	29.02
604.374	29.07
604.566	29.27
604.759	29.27
604.951	29.34
605.144	29.28
605.336	29.58
605.529	29.41
605.721	29.47
605.914	29.51
606.106	29.57
606.299	29.72
606.491	29.77
606.683	29.63
606.876	29.85
607.068	29.9
607.26	29.81
607.453	29.61
607.645	29.84
607.837	29.94
608.03	29.93
608.222	30.04
608.414	29.65
608.606	29.62
608.799	29.67
608.991	29.66
609.183	29.97
609.375	29.96
609.567	29.99
609.759	29.93
609.952	29.95
610.144	29.89
610.336	29.94
610.528	30.24
610.72	30.16
610.912	30.01
611.104	30.07
611.296	29.9
611.488	29.99
611.68	30.11
611.872	30.22
612.064	30.34
612.256	30.23
612.448	30.32
612.64	30.2
612.832	30.42
613.023	30.62
613.215	30.46
613.407	30.55
613.599	30.41
613.791	30.29
613.983	30.35
614.174	29.94
614.366	29.94
614.558	29.75
614.75	30.01
614.941	30.16
615.133	30.25
615.325	30.41
615.516	30.59
615.708	30.85
615.9	31.08
616.091	31.01
616.283	31.37
616.475	31.65
616.666	32
616.858	32.12
617.049	31.97
617.241	32.03
617.432	31.87
617.624	31.63
617.815	31.64
618.007	31.39
618.198	31.51
618.39	31.58
618.581	31.79
618.773	31.8
618.964	31.62
619.155	31.65
619.347	31.47
619.538	31.69
619.729	31.99
619.921	32.24
620.112	32.43
620.303	32.52
620.494	32.44
620.686	32.35
620.877	32.28
621.068	32.17
621.259	32.31
621.451	32.53
621.642	32.38
621.833	32.26
622.024	31.96
622.215	31.82
622.406	31.82
622.597	31.75
622.788	31.53
622.98	31.32
623.171	31.67
623.362	31.54
623.553	31.5
623.744	32
623.935	31.97
624.126	32.18
624.317	32.29
624.508	32.31
624.698	32.37
624.889	32.44
625.08	32.87
625.271	32.86
625.462	33.01
625.653	32.93
625.844	32.78
626.034	32.78
626.225	32.71
626.416	32.9
626.607	33.07
626.798	33.24
626.988	33.38
627.179	33.25
627.37	33.16
627.56	33.04
627.751	33.18
627.942	33.3
628.132	33.39
628.323	33.44
628.514	33.57
628.704	33.45
628.895	33.43
629.085	33.37
629.276	33.53
629.466	33.7
629.657	33.93
629.847	34.04
630.038	33.77
630.228	33.99
630.419	34.01
630.609	33.96
630.8	34.11
630.99	34.1
631.181	34.28
631.371	34.13
631.561	33.85
631.752	33.7
631.942	33.6
632.132	33.46
632.323	33.34
632.513	33.47
632.703	33.38
632.893	33.04
633.084	33.14
633.274	33.04
633.464	33.22
633.654	33.42
633.844	33.67
634.034	33.92
634.225	34.33
634.415	34.13
634.605	33.69
634.795	33.68
634.985	33.8
635.175	33.73
635.365	33.86
635.555	33.81
635.745	33.81
635.935	33.66
636.125	33.34
636.315	33.11
636.505	33.28
636.695	33.79
636.885	34.04
637.075	34.22
637.265	34.35
637.455	34.64
637.644	34.49
637.834	34.51
638.024	34.53
638.214	34.93
638.404	34.98
638.593	35.03
638.783	34.78
638.973	34.6
639.163	34.83
639.352	34.97
639.542	34.87
639.732	35.16
639.921	35.11
640.111	35.25
640.301	35.04
640.49	35.17
640.68	34.97
640.87	35.15
641.059	35.28
641.249	35.38
641.438	35.29
641.628	34.8
641.817	34.72
642.007	35
642.196	35.09
642.386	35.24
642.575	35.25
642.764	35.92
642.954	35.92
643.143	35.99
643.333	35.84
643.522	35.97
643.711	36.38
643.901	36.45
644.09	36.42
644.279	36.4
644.469	36.35
644.658	36.33
644.847	35.92
645.036	35.92
645.226	35.95
645.415	35.46
645.604	35.35
645.793	35.44
645.982	35.24
646.171	35.14
646.361	35.34
646.55	35.56
646.739	35.82
646.928	36.24
647.117	36.32
647.306	36.41
647.495	36.8
647.684	37.02
647.873	37.37
648.062	37.45
648.251	37.68
648.44	37.14
648.629	37.14
648.818	37.16
649.007	36.8
649.196	37.1
649.384	37.2
649.573	37.28
649.762	37.71
649.951	37.53
650.14	38.09
650.328	37.96
650.517	38.12
650.706	38.08
650.895	37.95
651.083	37.96
651.272	37.36
651.461	37.3
651.65	37.46
651.838	36.91
652.027	36.7
652.216	36.28
652.404	36.35
652.593	36.66
652.781	36.51
652.97	36.09
653.158	36.04
653.347	36.44
653.535	36.2
653.724	36.12
653.912	36.37
654.101	36.8
654.289	36.79
654.478	37.29
654.666	37.26
654.855	37.32
655.043	37.62
655.231	37.61
655.42	37.4
655.608	37.48
655.796	37.28
655.985	37.22
656.173	37.09
656.361	37.26
656.55	36.84
656.738	36.85
656.926	37.09
657.114	37.01
657.302	36.94
657.491	37.17
657.679	37.03
657.867	37.34
658.055	37.45
658.243	37.56
658.431	37.59
658.619	37.62
658.807	37.63
658.996	37.45
659.184	37.58
659.372	37.84
659.56	37.89
659.748	37.95
659.936	37.84
660.124	37.84
660.311	37.85
660.499	37.55
660.687	37.6
660.875	37.88
661.063	37.85
661.251	38.15
661.439	38.02
661.627	38.4
661.814	38.56
662.002	38.54
662.19	38.71
662.378	38.28
662.565	38.44
662.753	38.17
662.941	38.08
663.129	38.2
663.316	38.18
663.504	37.94
663.692	37.42
663.879	37.68
664.067	37.81
664.254	37.47
664.442	38.03
664.63	38.27
664.817	38.67
665.005	38.4
665.192	38.45
665.38	38.07
665.567	38.58
665.755	38.97
665.942	39.13
666.13	39.49
666.317	39.4
666.504	38.85
666.692	38.62
666.879	38.55
667.067	38.58
667.254	38.78
667.441	39.46
667.629	39.37
667.816	39.11
668.003	38.68
668.19	39.08
668.378	39.24
668.565	39.44
668.752	39.88
668.939	39.74
669.127	39.68
669.314	39.82
669.501	39.56
669.688	39.55
669.875	39.57
670.062	39.78
670.249	38.97
670.436	38.81
670.623	38.98
670.81	38.79
670.997	38.8
671.184	38.81
671.371	39.03
671.558	39.12
671.745	39.24
671.932	39.31
672.119	38.64
672.306	39.32
672.493	39.46
672.68	39.55
672.867	39.89
673.054	40.53
673.24	40.59
673.427	40.33
673.614	40.13
673.801	40.42
673.988	40.63
674.174	41.92
674.361	41.47
674.548	41.97
674.734	42.13
674.921	42.15
675.108	41.76
675.294	41.88
675.481	42.05
675.668	41.88
675.854	41.76
676.041	41.6
676.227	40.98
676.414	41.02
676.601	40.62
676.787	40.04
676.974	39.57
677.16	39.64
677.347	39.68
677.533	39.19
677.719	39.37
677.906	38.94
678.092	38.91
678.279	39.21
678.465	39.48
678.651	39.49
678.838	39.59
679.024	39.91
679.21	40.06
679.397	40.37
679.583	40.79
679.769	40.68
679.955	40.82
680.142	41.12
680.328	40.92
680.514	40.49
680.7	40.54
680.886	40.66
681.073	40.64
681.259	40.71
681.445	40.34
681.631	40.23
681.817	40.56
682.003	40.61
682.189	40.69
682.375	40.86
682.561	41.23
682.747	41.39
682.933	41.34
683.119	41.23
683.305	41.21
683.491	41.5
683.677	41.79
683.863	41.51
684.049	41.84
684.235	41.99
684.42	41.84
684.606	42.06
684.792	42.27
684.978	42.58
685.164	42.63
685.349	42.81
685.535	42.75
685.721	42.37
685.907	42.7
686.092	42.29
686.278	42.05
686.464	42.59
686.649	42.17
686.835	41.78
687.021	41.8
687.206	41.98
687.392	41.68
687.577	41.91
687.763	41.9
687.948	41.84
688.134	42.22
688.319	42.18
688.505	41.77
688.69	41.98
688.876	42.43
689.061	42.25
689.247	42.11
689.432	42.25
689.618	41.73
689.803	41.71
689.988	41.52
690.174	41.23
690.359	40.97
690.544	41
690.73	40.92
690.915	40.5
691.1	40.93
691.285	41.31
691.471	41.7
691.656	42.08
691.841	42.51
692.026	42.72
692.211	43.08
692.396	43.19
692.582	43.27
692.767	43.75
692.952	43.69
693.137	43.5
693.322	43.1
693.507	42.63
693.692	42.56
693.877	42.46
694.062	42.54
694.247	42.5
694.432	42.72
694.617	42.86
694.802	42.8
694.987	43.33
695.172	43.24
695.357	43.49
695.541	43.43
695.726	43.55
695.911	44.08
696.096	43.85
696.281	44.04
696.466	43.86
696.65	43.81
696.835	43.74
697.02	43.48
697.204	43.53
697.389	43.42
697.574	43.5
697.759	43.34
697.943	43.05
698.128	43.02
698.312	42.66
698.497	42.79
698.682	42.92
698.866	42.93
699.051	43.09
699.235	43.31
699.42	43.29
699.604	43.28
699.789	43.34
699.973	43.32
700.158	43.3
700.342	43.32
700.527	43.68
700.711	43.53
700.895	43.49
701.08	43.16
701.264	42.82
701.448	43.16
701.633	42.94
701.817	42.86
702.001	42.7
702.186	42.88
702.37	43.16
702.554	42.66
702.738	42.35
702.923	42.05
703.107	42.82
703.291	43.12
703.475	42.71
703.659	43.23
703.843	44
704.027	44.04
704.212	43.82
704.396	44.44
704.58	44.24
704.764	44
704.948	43.97
705.132	43.17
705.316	43.52
705.5	44.14
705.684	44.02
705.868	44.02
706.052	44.36
706.235	44.76
706.419	43.68
706.603	43.77
706.787	44.27
706.971	44.48
707.155	45.17
707.339	45
707.522	44.42
707.706	44.26
707.89	43.58
708.074	43.29
708.257	43.01
708.441	43.4
708.625	43.95
708.808	44.01
708.992	43.85
709.176	43.31
709.359	42.94
709.543	43.24
709.727	43.24
709.91	43.38
710.094	43.29
710.277	43.84
710.461	43.62
710.644	43.16
710.828	43.07
711.011	43.64
711.195	43.9
711.378	44.67
711.562	44.71
711.745	44.54
711.928	44.54
712.112	44.26
712.295	43.97
712.478	43.68
712.662	44.17
712.845	44.33
713.028	44.1
713.212	44.21
713.395	44.21
713.578	44
713.761	44.61
713.945	43.91
714.128	44.26
714.311	44.71
714.494	45.18
714.677	44.8
714.86	44.78
715.043	44.83
715.227	44.6
715.41	44.45
715.593	44.85
715.776	44.47
715.959	45.43
716.142	45.45
716.325	45.26
716.508	45.35
716.691	45.9
716.874	45.81
717.057	45.87
717.239	45.72
717.422	45.31
717.605	45.15
717.788	45.55
717.971	45.61
718.154	46.03
718.337	46.01
718.519	46.08
718.702	45.4
718.885	45.29
719.068	45.17
719.25	45.34
719.433	45.94
719.616	45.05
719.798	44.58
719.981	45.12
720.164	44.63
720.346	44.44
720.529	44.11
720.712	44.26
720.894	44.04
721.077	44.04
721.259	44.36
721.442	44.16
721.624	45.83
721.807	46.34
721.989	45.7
722.172	45.46
722.354	45.08
722.537	46.19
722.719	46.43
722.901	47.19
723.084	47.92
723.266	47.37
723.448	46.8
723.631	46.99
723.813	47.05
723.995	46.71
724.178	46.54
724.36	47.2
724.542	46.72
724.724	46.79
724.907	47
725.089	45.92
725.271	46.03
725.453	45.8
725.635	44.91
725.817	45.31
725.999	45.11
726.181	46.49
726.364	45.46
726.546	45.03
726.728	45.38
726.91	45.49
727.092	45.87
727.274	46.14
727.456	46.71
727.638	46.45
727.819	46.33
728.001	46.84
728.183	45.93
728.365	47.01
728.547	47.76
728.729	47.72
728.911	48.41
729.093	48.5
729.274	48.61
729.456	48.62
729.638	48.57
729.82	48.1
730.001	47.97
730.183	48.15
730.365	47.82
730.546	47.25
730.728	46.51
730.91	45.62
731.091	45.82
731.273	45.27
731.455	45.16
731.636	45.77
731.818	46.02
731.999	45.87
732.181	45.88
732.362	45.83
732.544	45.48
732.725	45.92
732.907	46.57
733.088	46.75
733.27	47.52
733.451	47.28
733.633	47.44
733.814	47.38
733.995	47.52
734.177	47.82
734.358	48.41
734.539	49.53
734.721	49.46
734.902	48.5
735.083	47.74
735.264	47.46
735.446	47.65
735.627	46.82
735.808	46.98
735.989	46.98
736.17	46.56
736.351	46.52
736.533	45.95
736.714	46.69
736.895	46.56
737.076	47.27
737.257	47.26
737.438	47.56
737.619	47.18
737.8	46.66
737.981	47.03
738.162	47.25
738.343	46.26
738.524	46.54
738.705	46.48
738.886	46.8
739.067	46.59
739.247	46.22
739.428	45.2
739.609	46.04
739.79	46.61
739.971	46.69
740.151	46.22
740.332	47.22
740.513	47.28
740.694	46.62
740.874	45.96
741.055	45.89
741.236	46.46
741.417	48.24
741.597	47.53
741.778	46.46
741.958	45.41
742.139	45.55
742.32	45.06
742.5	44.32
742.681	44.15
742.861	45.28
743.042	45.41
743.222	45.03
743.403	44.1
743.583	44.99
743.764	46.39
743.944	47.71
744.124	46.83
744.305	47.34
744.485	47.44
744.666	46.85
744.846	47.43
745.026	47.37
745.207	48.05
745.387	48.09
745.567	47.71
745.747	46.83
745.928	46.98
746.108	48.54
746.288	48.06
746.468	48.31
746.648	48.97
746.829	47.67
747.009	47.95
747.189	48.23
747.369	48.58
747.549	48.69
747.729	49.16
747.909	49.35
748.089	49.63
748.269	48.97
748.449	49.17
748.629	50.08
748.809	50.45
748.989	50.2
749.169	50.26
749.349	50.2
749.529	50.61
749.709	51.44
749.889	51.1
750.068	50.55
750.248	51.83
750.428	52.1
750.608	51.46
750.788	51.43
750.967	51.23
751.147	51.18
751.327	50.39
751.507	49.93
751.686	48.7
751.866	48.44
752.046	48.45
752.225	48.96
752.405	48.77
752.585	47.86
752.764	48.01
752.944	47.83
753.123	47.29
753.303	48.42
753.482	48.6
753.662	48.38
753.841	48.11
754.021	47.73
754.2	47.68
754.38	47.29
754.559	48.08
754.739	47.72
754.918	48.05
755.097	47.27
755.277	46.8
755.456	46.97
755.635	47.15
755.815	46.85
755.994	47.24
756.173	47.03
756.352	47.86
756.532	48.19
756.711	50.17
756.89	50.78
757.069	51.01
757.248	50.54
757.427	50.38
757.607	49.71
757.786	50.72
757.965	51.44
758.144	50.79
758.323	50.56
758.502	49.28
758.681	47.05
758.86	46.76
759.039	46.56
759.218	47.31
759.397	47.14
759.576	48.46
759.755	47.41
759.934	46.35
760.113	45.9
760.291	45.98
760.47	47.3
760.649	48.56
760.828	48.69
761.007	49.48
761.186	49.28
761.364	49.56
761.543	49.87
761.722	50.12
761.901	50.37
762.079	50.85
762.258	50.47
762.437	50.56
762.615	49.03
762.794	48.9
762.972	48.4
763.151	48.34
763.33	48.36
763.508	47.52
763.687	47.83
763.865	47.93
764.044	47.95
764.222	47.87
764.401	47.87
764.579	48.01
764.758	47.68
764.936	48.12
765.114	48.23
765.293	47.84
765.471	47.87
765.65	47.65
765.828	47.32
766.006	47.27
766.184	47.24
766.363	46.57
766.541	46.79
766.719	46.34
766.898	46.37
767.076	46.41
767.254	46.4
767.432	47.01
767.61	46.93
767.788	46.99
767.967	47.57
768.145	48.8
768.323	49.29
768.501	50.07
768.679	50.61
768.857	50.98
769.035	50.38
769.213	50.27
769.391	50.41
769.569	50.44
769.747	51.06
769.925	50.48
770.103	48.78
770.281	48.03
770.459	47.3
770.636	47.74
770.814	47.69
770.992	46.68
771.17	46.59
771.348	45.05
771.525	44.96
771.703	44.65
771.881	44.54
772.059	44.56
772.236	44.44
772.414	46.12
772.592	46.55
772.769	45.36
772.947	47.33
773.125	49.22
773.302	50.81
773.48	51.43
773.657	51.83
773.835	53.2
774.013	53.72
774.19	54.74
774.368	54.27
774.545	53.9
774.723	54.82
774.9	54.33
775.077	53.9
775.255	52.33
775.432	51.96
775.61	51.82
775.787	50.02
775.964	48.75
776.142	49.41
776.319	48.78
776.496	47.11
776.674	46.64
776.851	46.33
777.028	46.2
777.205	47.14
777.382	44.89
777.56	45.8
777.737	45.21
777.914	46.2
778.091	45.78
778.268	45.8
778.445	48.3
778.622	49.23
778.8	51.9
778.977	50.75
779.154	60.88
779.331	62.47
779.508	60.32
779.685	60.72
779.862	62.15
780.038	62.46
780.215	63.94
780.392	62.36
780.569	62.38
780.746	57.76
780.923	57.31
781.1	47.02
781.277	47.87
781.453	48.28
781.63	48.21
781.807	49.15
781.984	48.97
782.16	48.62
782.337	48.96
782.514	48.09
782.691	51.01
782.867	50.32
783.044	49.59
783.221	49.04
783.397	50.91
783.574	52.45
783.75	51.06
783.927	50.82
784.103	50.65
784.28	49.11
784.456	49.01
784.633	49.24
784.809	50.19
784.986	52.02
785.162	53.09
785.339	50.66
785.515	50.07
785.692	49.74
785.868	49.75
786.044	47.82
786.221	50.24
786.397	51.04
786.573	50.5
786.749	51.24
786.926	49.13
787.102	47.91
787.278	48.68
787.454	48.52
787.631	48.83
787.807	49.3
787.983	50.84
788.159	50.86
788.335	51.77
788.511	51.38
788.687	52.54
788.863	53.21
789.039	53.94
789.216	54.5
789.392	54.11
789.568	53.55
789.744	53.68
789.919	54.51
790.095	53.45
790.271	51.89
790.447	51.8
790.623	51.09
790.799	49.53
790.975	48.69
791.151	48.71
791.327	49.75
791.502	49.09
791.678	49.22
791.854	48.38
792.03	49.07
792.205	50.05
792.381	50.23
792.557	50.56
792.733	54.11
792.908	55.79
793.084	55.74
793.259	53.97
793.435	56.12
793.611	55.68
793.786	56.58
793.962	55.72
794.137	54.91
794.313	54.46
794.488	54.43
794.664	54.35
794.839	54.01
795.015	54.64
795.19	55.74
795.366	55
795.541	53.82
795.716	52.69
795.892	52.63
796.067	53.66
796.242	52.55
796.418	53.78
796.593	52.15
796.768	51.06
796.944	50.21
797.119	48.7
797.294	50.06
797.469	50.61
797.644	50.5
797.82	51.03
797.995	50.43
798.17	52.7
798.345	50.27
798.52	49.41
798.695	48.67
798.87	47.92
799.045	51.27
799.22	49.97
799.395	49.78
799.57	50.9
799.745	50.74
799.92	50.65
800.095	51.22
800.27	50.55
800.445	51.25
800.62	52.49
800.795	55.24
800.97	53.36
801.145	53.43
801.319	52.47
801.494	50.71
801.669	50.57
801.844	49.8
802.018	48.38
802.193	51.19
802.368	50.75
802.543	50.6
802.717	47.67
802.892	46.94
803.067	45.78
803.241	45.73
803.416	47.34
803.59	47.09
803.765	49.5
803.94	47.55
804.114	45.97
804.289	46.69
804.463	45.37
804.638	44.3
804.812	45.16
804.986	46.27
805.161	47.99
805.335	46.81
805.51	47.55
805.684	45.12
805.858	47.58
806.033	46.91
806.207	46.32
806.381	48.86
806.556	51.01
806.73	51.37
806.904	50.91
807.078	50.94
807.253	51.9
807.427	49.47
807.601	51.32
807.775	52.02
807.949	51.52
808.123	50.09
808.298	48.9
808.472	49.87
808.646	48.82
808.82	48.8
808.994	47.66
809.168	47.18
809.342	47.18
809.516	44.59
809.69	41.97
809.864	41.81
810.038	45.45
810.212	45.3
810.385	44.44
810.559	46.26
810.733	44.46
810.907	45.13
811.081	45.06
811.255	47.49
811.428	50.57
811.602	54.2
811.776	54.35
811.95	54.51
812.123	53.85
812.297	52.33
812.471	51.48
812.644	52.4
812.818	54.9
812.992	55.12
813.165	57.06
813.339	54.37
813.512	52.62
813.686	50.7
813.86	49.06
814.033	48.85
814.207	50.45
814.38	49.32
814.554	47.68
814.727	46.16
814.9	46.11
815.074	45.73
815.247	47.42
815.421	45.06
815.594	46.08
815.767	47.51
815.941	44.44
816.114	43.91
816.287	46.3
816.46	48.81
816.634	46.99
816.807	42.75
816.98	41.89
817.153	42.59
817.327	44.42
817.5	46.56
817.673	44.51
817.846	46.65
818.019	48.59
818.192	47.64
818.365	48.8
818.538	49.64
818.711	52.67
818.884	51.57
819.057	50.31
819.23	52.18
819.403	50.83
819.576	50.71
819.749	52.15
819.922	50.61
820.095	49.73
820.268	49.91
820.441	49.94
820.614	50.51
820.786	50.24
820.959	48.76
821.132	48.86
821.305	49.1
821.477	49.36
821.65	50.65
821.823	50.27
821.996	49.9
822.168	49.34
822.341	49.07
822.514	48.37
822.686	48.56
822.859	48.86
823.031	48.81
823.204	48.82
823.376	48.14
823.549	47.21
823.722	47.66
823.894	47.9
824.067	47.69
824.239	47.9
824.411	48.47
824.584	48.71
824.756	48.91
824.929	48.25
825.101	48.12
825.273	48.7
825.446	48.93
825.618	48.31
825.79	48.19
825.963	48.87
826.135	48.85
826.307	48.74
826.479	48.42
826.652	48.22
826.824	48.6
826.996	48.98
827.168	49.02
827.34	48.68
827.512	49.39
827.684	49.56
827.856	49.8
828.029	49.92
828.201	49.26
828.373	49.03
828.545	49.32
828.717	48.93
828.889	48.57
829.061	50.04
829.232	50.62
829.404	51.25
829.576	50.95
829.748	50.93
829.92	50.34
830.092	51.56
830.264	51.74
830.436	50.95
830.607	52.59
830.779	52.87
830.951	51.55
831.123	51.04
831.294	48.31
831.466	49.19
831.638	48.66
831.809	48.57
831.981	48.54
832.153	47.41
832.324	49.84
832.496	49.86
832.667	51.4
832.839	50.03
833.011	51.43
833.182	51.47
833.354	52.1
833.525	51.22
833.697	53.76
833.868	55.34
834.039	57.41
834.211	54.9
834.382	52.68
834.554	52.39
834.725	52.6
834.896	51.55
835.068	50.99
835.239	49.15
835.41	49.21
835.581	48.34
835.753	46.68
835.924	45.81
836.095	45.67
836.266	45.62
836.438	43.81
836.609	42.96
836.78	45.14
836.951	45.79
837.122	44.34
837.293	45.48
837.464	44.24
837.635	44.18
837.806	44.05
837.977	45.1
838.148	46.42
838.319	47.56
838.49	48.35
838.661	47.69
838.832	49.11
839.003	53.94
839.174	53.54
839.345	57.99
839.516	58.83
839.687	59.03
839.857	59
840.028	55.5
840.199	53.19
840.37	54.01
840.54	50.61
840.711	50.26
840.882	48.31
841.053	50.11
841.223	46.74
841.394	41.52
841.564	40.23
841.735	42.34
841.906	47.69
842.076	52.65
842.247	52.05
842.417	53.06
842.588	54.08
842.758	51.56
842.929	48.03
843.099	44.58
843.27	53.22
843.44	54.46
843.611	55.55
843.781	47.43
843.951	47.42
844.122	46.2
844.292	45.86
844.462	42.14
844.633	45.87
844.803	48.74
844.973	48.5
845.144	37.76
845.314	41.19
845.484	41.75
845.654	52.78
845.824	47.67
845.995	48.84
846.165	49.48
846.335	55.64
846.505	54.45
846.675	50.18
846.845	55.39
847.015	56.7
847.185	55.72
847.355	51.58
847.525	52.52
847.695	54.71
847.865	62.24
848.035	59.53
848.205	51.65
848.375	52.39
848.545	54.63
848.715	55.46
848.884	58.18
849.054	59.57
849.224	56.68
849.394	56.31
849.564	54.9
849.733	51.5
849.903	55.97
850.073	59.8
850.243	59.77
850.412	57.95
850.582	60.11
850.752	59.99
850.921	57.9
851.091	58.36
851.26	53.26
851.43	56.82
851.599	59.69
851.769	59.21
851.939	57.34
852.108	55.28
852.278	59.4
852.447	64.22
852.616	65.79
852.786	68.74
852.955	67.95
853.125	63.06
853.294	67.33
853.463	59.01
853.633	55.23
853.802	61.94
853.971	64.07
854.141	51.07
854.31	33.24
854.479	34.03
854.648	27.26
854.818	31.08
854.987	44.17
855.156	33.92
855.325	37.56
855.494	36.23
855.663	28.92
855.832	30.43
856.001	34.03
856.171	34.89
856.34	32.51
856.509	37.43
856.678	37.98
856.847	44.81
857.016	51.69
857.185	52.27
857.353	54.45
857.522	67.03
857.691	64.02
857.86	63.87
858.029	68.59
858.198	67.18
858.367	62.35
858.535	59.96
858.704	56.22
858.873	56.16
859.042	54.56
859.21	49.41
859.379	35.59
859.548	29.95
859.717	35.6
859.885	32.66
860.054	29.22
860.222	26.48
860.391	34.05
860.56	29.73
860.728	24.9
860.897	26.08
861.065	31.59
861.234	35.73
861.402	34.42
861.571	32.33
861.739	36.51
861.908	40.62
862.076	40.43
862.244	42.31
862.413	53.38
862.581	52.68
862.749	54.07
862.918	51.37
863.086	59.69
863.254	59.98
863.423	63.11
863.591	54.66
863.759	60.19
863.927	72.18
864.096	67.44
864.264	59.96
864.432	67.06
864.6	73.19
864.768	77.23
864.936	65.87
865.104	69.28
865.272	73
865.44	82.29
865.608	73.2
865.776	66.79
865.944	67.44
866.112	65.09
866.28	65.7
866.448	59.87
866.616	64.67
866.784	60.52
866.952	57.97
867.12	52.24
867.288	45.41
867.455	51
867.623	49.21
867.791	53.96
867.959	56.73
868.127	64.21
868.294	68.26
868.462	68.82
868.63	74.08
868.797	78.66
868.965	89.4
869.133	84.95
869.3	89.81
869.468	83.68
869.636	88.46
869.803	76.72
869.971	61.24
870.138	50.35
870.306	46.51
870.473	43.58
870.641	42.37
870.808	29.16
870.975	35.54
871.143	26.53
871.31	32.81
871.478	24.28
871.645	28.84
871.812	36.84
871.98	42.87
872.147	58.01
872.314	67.33
872.482	62.58
872.649	74.37
872.816	77
872.983	75.71
873.15	70.01
873.318	62.02
873.485	63.82
873.652	63.81
873.819	69.02
873.986	62.29
874.153	53.2
874.32	62.72
874.487	62.4
874.654	51.8
874.821	44.01
874.988	32.66
875.155	38.6
875.322	36.37
875.489	35
875.656	30.98
875.823	27.82
875.99	44.51
876.157	42.08
876.324	43.71
876.49	44.82
876.657	54.49
876.824	68.15
876.991	68.45
877.157	69.95
877.324	70.88
877.491	70.71
877.658	73.88
877.824	65.31
877.991	69.57
878.157	68.3
878.324	87.18
878.491	81.83
878.657	77.92
878.824	79.42
878.99	73.79
879.157	72.58
879.323	65.67
879.49	67.05
879.656	70.98
879.823	65.43
879.989	59.81
880.156	50.21
880.322	51.43
880.488	49.14
880.655	44.16
880.821	50.76
880.987	54.87
881.154	54.77
881.32	57.48
881.486	53.07
881.652	49.25
881.819	50.93
881.985	50.2
882.151	50.58
882.317	52.63
882.483	53.61
882.649	52.14
882.816	49.11
882.982	48.32
883.148	47.77
883.314	48.66
883.48	49.54
883.646	49.72
883.812	49.85
883.978	50.3
884.144	49.31
884.31	48.98
884.476	48.54
884.642	49.2
884.807	49.1
884.973	50.23
885.139	50.88
885.305	49.1
885.471	49.18
885.637	49.6
885.802	48.1
885.968	48.3
886.134	50.12
886.3	51.69
886.465	52.2
886.631	53.04
886.797	52.65
886.962	50.79
887.128	54.86
887.293	56.6
887.459	59.12
887.625	62.33
887.79	67.63
887.956	63.71
888.121	63.23
888.287	63.16
888.452	66.17
888.618	62.99
888.783	68.13
