Data from LC_215__Reflection_2.txt Node
Date: Thu Nov 19 12:59:22 EST 2015
User: robert
Spectrometer: USB4E03001
Autoset integration time: false
Trigger mode: 4
Integration Time (sec): 1.000000E-1
Scans to average: 15
Electric dark correction enabled: true
Nonlinearity correction enabled: false
Boxcar width: 5
Stray light correction enabled: false
XAxis mode: Wavelengths
Stop averaging: false
Number of Pixels in Spectrum: 3648
>>>>>Begin Spectral Data<<<<<
177.566	236.86
177.785	414.19
178.005	166.04
178.225	198.73
178.445	-80.66
178.665	63400
178.885	45.35
179.105	276.79
179.324	-122.81
179.544	-579.61
179.764	-133.64
179.984	-185.76
180.204	-87.47
180.423	115.68
180.643	-103.26
180.863	549.13
181.083	144.6
181.302	63.46
181.522	21.19
181.742	192.61
181.961	-1005.6
182.181	-745.8
182.401	-6.09
182.621	-18
182.84	145.65
183.06	155.28
183.279	168
183.499	21.38
183.719	24.75
183.938	-40.74
184.158	-120.86
184.377	-19.33
184.597	22
184.816	-259.47
185.036	-596.74
185.256	-121.03
185.475	-49.13
185.695	6.31
185.914	44.47
186.134	46.03
186.353	62.74
186.572	82.33
186.792	98.69
187.011	333.66
187.231	52.31
187.45	7.03
187.67	-305.88
187.889	-7016.67
188.108	-169.9
188.328	1269.76
188.547	204.47
188.766	209.85
188.986	252.61
189.205	252.27
189.424	-414.97
189.644	-381.72
189.863	-103.39
190.082	-99.4
190.302	-658.51
190.521	98.75
190.74	162.87
190.959	533.1
191.178	1341.53
191.398	-578.25
191.617	185.91
191.836	1059.85
192.055	-295.32
192.274	-111.71
192.494	-292.4
192.713	-195.8
192.932	-119.74
193.151	-126.04
193.37	-223
193.589	-145.66
193.808	-60.1
194.027	-12.33
194.246	-86.35
194.465	-3.15
194.685	1292.5
194.904	91.03
195.123	56.87
195.342	20.13
195.561	36.84
195.78	21.21
195.999	61.55
196.218	116.27
196.436	405.48
196.655	181.65
196.874	166.27
197.093	165.77
197.312	326.01
197.531	265.84
197.75	518.46
197.969	-110.29
198.188	-64.98
198.407	-761.78
198.625	101.44
198.844	24.62
199.063	387.46
199.282	355.47
199.501	-98.78
199.719	-343.29
199.938	-1092.11
200.157	951.99
200.376	323.95
200.594	227.42
200.813	146.28
201.032	105.83
201.251	131.36
201.469	125.64
201.688	115.09
201.907	136.22
202.125	139.48
202.344	138.89
202.563	109.07
202.781	136.33
203	93.58
203.218	87.45
203.437	155.39
203.656	132.33
203.874	90.64
204.093	80.78
204.311	59.67
204.53	37.2
204.748	-28.15
204.967	-78.95
205.185	7.33
205.404	50.43
205.622	101.68
205.841	84.24
206.059	45.39
206.278	46.34
206.496	16.64
206.715	32.16
206.933	37.22
207.151	-36.47
207.37	-135.73
207.588	419.83
207.806	-122.84
208.025	-9.21
208.243	-53.9
208.461	142.93
208.68	-249.91
208.898	466.93
209.116	-12.09
209.335	-399.75
209.553	0.72
209.771	-143.46
209.989	222.15
210.208	400.67
210.426	355.52
210.644	642.63
210.862	251.89
211.081	291.83
211.299	190.54
211.517	235.57
211.735	230.07
211.953	588.45
212.171	-288.65
212.39	-390.57
212.608	-322.59
212.826	-92.64
213.044	1.08
213.262	34.49
213.48	22.02
213.698	18.74
213.916	54.07
214.134	59.62
214.352	120.59
214.57	-5.23
214.788	97.22
215.006	250.36
215.224	147.82
215.442	83.87
215.66	145.94
215.878	-201.03
216.096	17.48
216.314	-6.4
216.532	10.23
216.75	15.65
216.968	21.42
217.185	7.65
217.403	19.95
217.621	38.18
217.839	65.98
218.057	73.7
218.275	98.82
218.492	98.82
218.71	90
218.928	86
219.146	76.51
219.363	92.15
219.581	80.52
219.799	54.21
220.017	30.43
220.234	-7.87
220.452	-100.6
220.67	-50.54
220.887	-42.28
221.105	-153.67
221.323	-114.62
221.54	-51.62
221.758	2.54
221.976	51.09
222.193	52.28
222.411	42.68
222.629	25.58
222.846	47.45
223.064	44.57
223.281	49.41
223.499	63.32
223.716	46.46
223.934	35.71
224.151	33.94
224.369	26.79
224.586	34.36
224.804	63.29
225.021	58.04
225.239	57.44
225.456	60.97
225.674	57.29
225.891	56.95
226.108	52.07
226.326	50.98
226.543	48.06
226.76	43.36
226.978	36.56
227.195	31.63
227.413	31.71
227.63	31.25
227.847	26.59
228.064	23.67
228.282	20.98
228.499	22.81
228.716	19.97
228.934	19.02
229.151	17.18
229.368	18.48
229.585	16.92
229.802	15.23
230.02	14.7
230.237	16.21
230.454	16.82
230.671	14.54
230.888	16.39
231.105	19.17
231.323	14.29
231.54	15.56
231.757	16.73
231.974	20.04
232.191	24.65
232.408	25.53
232.625	25.17
232.842	21.23
233.059	18.19
233.276	12.37
233.493	8.02
233.71	19.23
233.927	21.6
234.144	23.4
234.361	21.2
234.578	19.69
234.795	19.41
235.012	22.04
235.229	24.55
235.446	28.19
235.663	31.54
235.879	33.27
236.096	32.78
236.313	32.59
236.53	26.67
236.747	27.08
236.964	28.06
237.181	23.91
237.397	20.5
237.614	17.75
237.831	15.11
238.048	7.23
238.264	8.11
238.481	7.74
238.698	7.57
238.915	3.02
239.131	-2.7
239.348	1.35
239.565	-1.77
239.781	4.32
239.998	7.54
240.215	13.2
240.431	14.01
240.648	13.68
240.865	12.77
241.081	12.16
241.298	13.9
241.514	13.54
241.731	11.99
241.947	14
242.164	12.47
242.38	12.5
242.597	11.73
242.814	12.48
243.03	13.36
243.246	12.79
243.463	13.07
243.679	14.78
243.896	15.81
244.112	15.18
244.329	16.36
244.545	15.55
244.762	15.92
244.978	15.9
245.194	15.27
245.411	13.32
245.627	12.34
245.843	11
246.06	9.59
246.276	10.04
246.492	10.89
246.709	9.94
246.925	9.91
247.141	9.45
247.357	8.69
247.574	9.7
247.79	10.24
248.006	10.4
248.222	10.8
248.439	11.34
248.655	11.22
248.871	9.99
249.087	10.36
249.303	10.45
249.519	10.29
249.736	10.9
249.952	7.98
250.168	7.66
250.384	10.42
250.6	10.11
250.816	10.77
251.032	11.6
251.248	15.08
251.464	15.55
251.68	14.85
251.896	13.86
252.112	14.04
252.328	14.24
252.544	14.2
252.76	12.57
252.976	13.05
253.192	12.66
253.408	11.16
253.624	10.82
253.84	10.53
254.056	12.91
254.272	14.76
254.487	15.38
254.703	15.74
254.919	15.96
255.135	15.79
255.351	14.22
255.567	12.24
255.782	13.45
255.998	11.41
256.214	9.74
256.43	10.47
256.646	10.1
256.861	7.67
257.077	10.06
257.293	9.64
257.508	9.09
257.724	9.78
257.94	9.7
258.155	9.58
258.371	10.56
258.587	11.96
258.802	10.77
259.018	10.77
259.234	11.27
259.449	10.18
259.665	10.51
259.88	10.7
260.096	10.27
260.312	10.61
260.527	11.15
260.743	10.38
260.958	9.93
261.174	9.66
261.389	9.55
261.605	9.71
261.82	9.27
262.036	9.11
262.251	9.36
262.466	10.38
262.682	10.06
262.897	10.14
263.113	10.73
263.328	10.49
263.543	11.96
263.759	12.62
263.974	11.97
264.189	14.53
264.405	14.15
264.62	12.84
264.835	11.07
265.051	13.4
265.266	11.57
265.481	11.61
265.696	12.79
265.912	10.73
266.127	9.98
266.342	9.89
266.557	9.58
266.773	8.35
266.988	9.22
267.203	9.81
267.418	7.83
267.633	8.83
267.848	9.51
268.064	9.4
268.279	10.27
268.494	9.77
268.709	10.36
268.924	11.38
269.139	13.25
269.354	14.07
269.569	14.41
269.784	15.98
269.999	14.74
270.214	14.23
270.429	14.35
270.644	14.43
270.859	15.38
271.074	15.88
271.289	15.42
271.504	12.98
271.719	12.02
271.934	10.54
272.149	9.12
272.363	8.75
272.578	9.88
272.793	8.52
273.008	7.54
273.223	7.72
273.438	7.01
273.653	6.64
273.867	7.9
274.082	7.41
274.297	9.6
274.512	10.11
274.726	11.35
274.941	10.74
275.156	13.44
275.371	14.26
275.585	13.82
275.8	13.13
276.015	12.36
276.229	12.83
276.444	12.55
276.659	12.51
276.873	12.98
277.088	11.62
277.302	11.22
277.517	10.09
277.732	9.76
277.946	9.98
278.161	10.22
278.375	13.03
278.59	11.75
278.804	11.84
279.019	11.68
279.233	11.51
279.448	12.56
279.662	12.01
279.877	10.09
280.091	10.57
280.306	10.98
280.52	12.01
280.735	9.83
280.949	10.74
281.163	12.37
281.378	10.82
281.592	11.14
281.806	10.81
282.021	11.79
282.235	12.56
282.449	11.77
282.664	10.54
282.878	9.33
283.092	8.9
283.307	8.26
283.521	6.18
283.735	7.86
283.949	7.23
284.164	6.64
284.378	5.65
284.592	5.58
284.806	6.04
285.02	5.6
285.234	4.9
285.449	6.24
285.663	7.19
285.877	8.81
286.091	9.28
286.305	10.25
286.519	11.36
286.733	10.57
286.947	11.53
287.161	11.88
287.375	13.33
287.589	14.72
287.803	14.05
288.017	15.18
288.231	14.25
288.445	12.57
288.659	11.94
288.873	11.37
289.087	13.5
289.301	13.21
289.515	13.17
289.729	13.62
289.943	13.29
290.157	13.6
290.371	11.61
290.584	11.12
290.798	11.53
291.012	11.19
291.226	10.74
291.44	10.17
291.654	9.21
291.867	8.44
292.081	7.57
292.295	8.4
292.509	6.77
292.722	8.17
292.936	9.61
293.15	11.39
293.364	11.95
293.577	11.29
293.791	10.91
294.005	10.74
294.218	10.85
294.432	9.79
294.645	8.59
294.859	9.59
295.073	9.48
295.286	9.8
295.5	8.01
295.713	8.59
295.927	10.04
296.14	10.15
296.354	11.18
296.568	11.23
296.781	11.44
296.994	11.19
297.208	10.86
297.421	10.46
297.635	9.61
297.848	10.23
298.062	9.42
298.275	9.61
298.489	10.08
298.702	10.08
298.915	10.76
299.129	11.59
299.342	13.59
299.555	14.38
299.769	14.58
299.982	16.99
300.195	16.91
300.409	17.27
300.622	16.39
300.835	16.3
301.048	15.2
301.262	15.23
301.475	14.83
301.688	13.99
301.901	12.72
302.115	12.71
302.328	11.05
302.541	10
302.754	10.71
302.967	10.68
303.18	9.57
303.393	11.23
303.607	11
303.82	10.45
304.033	10.51
304.246	12.2
304.459	12.83
304.672	12.19
304.885	12.57
305.098	12.45
305.311	13.19
305.524	14.16
305.737	13.54
305.95	13.46
306.163	13.42
306.376	12.46
306.589	11.77
306.802	11.72
307.015	12.36
307.228	12.87
307.44	11
307.653	10.08
307.866	9.61
308.079	9.92
308.292	9.14
308.505	10.76
308.718	11.17
308.93	11.6
309.143	10.12
309.356	9.98
309.569	9.66
309.781	10.95
309.994	11.21
310.207	11.25
310.42	11.28
310.632	11.21
310.845	9.51
311.058	8.96
311.27	8.85
311.483	10.75
311.696	10.14
311.908	10.83
312.121	11.07
312.333	11.28
312.546	11.67
312.759	10.82
312.971	11.29
313.184	13.08
313.396	14.28
313.609	13.6
313.821	13.39
314.034	14.56
314.246	14.99
314.459	13.75
314.671	13.42
314.884	13.05
315.096	13.48
315.309	13.7
315.521	12.79
315.733	11.63
315.946	11.38
316.158	10.91
316.371	10.55
316.583	9.83
316.795	11.45
317.008	11.13
317.22	10.64
317.432	9.77
317.644	10.89
317.857	10.65
318.069	11.76
318.281	12.68
318.494	11.99
318.706	12.81
318.918	12.98
319.13	12.47
319.342	12.72
319.555	12.37
319.767	13.61
319.979	12.02
320.191	11.5
320.403	10.82
320.615	9.98
320.827	9.25
321.039	8.6
321.252	8.26
321.464	6.71
321.676	7.2
321.888	8.13
322.1	6.81
322.312	7.08
322.524	8.6
322.736	7.62
322.948	9.13
323.16	10.04
323.372	9.3
323.584	9.09
323.796	10.57
324.007	10.33
324.219	10.37
324.431	11.4
324.643	11.91
324.855	12.12
325.067	12.64
325.279	12.06
325.491	11.98
325.702	12.89
325.914	11.99
326.126	11.38
326.338	10.75
326.55	10.41
326.761	10.83
326.973	10.18
327.185	9.29
327.396	10.58
327.608	11.68
327.82	10.89
328.032	9.9
328.243	10.17
328.455	10.5
328.666	11.07
328.878	11.76
329.09	10.99
329.301	11.61
329.513	11.91
329.725	10.67
329.936	9.42
330.148	8.95
330.359	11.07
330.571	11.39
330.782	11.94
330.994	12.92
331.205	11.32
331.417	11.17
331.628	10.79
331.84	10.44
332.051	10.32
332.262	9.97
332.474	11.29
332.685	9.88
332.897	10.34
333.108	9.27
333.319	8.61
333.531	10.27
333.742	10.57
333.953	9.78
334.165	10.24
334.376	10.29
334.587	10
334.799	10.06
335.01	10.94
335.221	10.88
335.432	10.47
335.644	11.18
335.855	10.69
336.066	11.24
336.277	12.19
336.488	12.41
336.7	12.05
336.911	12.91
337.122	11.93
337.333	11.26
337.544	10.87
337.755	12.06
337.966	11.49
338.177	11.66
338.388	11.21
338.599	11.19
338.811	11.04
339.022	11.71
339.233	11.44
339.444	11.73
339.655	11.28
339.866	12
340.076	11.2
340.287	10.85
340.498	10.91
340.709	10.31
340.92	9.48
341.131	9.12
341.342	9
341.553	8.72
341.764	9.35
341.975	9.77
342.185	10.5
342.396	9.94
342.607	10.53
342.818	10.42
343.029	9.94
343.239	10.65
343.45	11.25
343.661	10.77
343.872	10.85
344.082	10.21
344.293	9.66
344.504	8.69
344.714	9.56
344.925	9.94
345.136	9.87
345.346	9.86
345.557	9.25
345.768	8.87
345.978	8.64
346.189	8.8
346.399	9.73
346.61	9.84
346.821	10.37
347.031	10.38
347.242	9.2
347.452	9.85
347.663	10.68
347.873	11.47
348.084	10.98
348.294	11.9
348.504	11.97
348.715	11.44
348.925	11.64
349.136	11.39
349.346	11.15
349.557	11.66
349.767	10.85
349.977	11.13
350.188	10.51
350.398	11.02
350.608	10.84
350.819	10.67
351.029	11.07
351.239	11.45
351.449	11.24
351.66	11.08
351.87	10.97
352.08	10.7
352.29	10.08
352.501	9.95
352.711	10.29
352.921	10.06
353.131	10.2
353.341	10.25
353.552	9.97
353.762	10.3
353.972	11.4
354.182	11.82
354.392	12.18
354.602	13.03
354.812	13.69
355.022	13.56
355.232	13.34
355.442	12.83
355.652	12.6
355.862	12.64
356.072	12.57
356.282	11.23
356.492	10.99
356.702	10.58
356.912	10.21
357.122	9.9
357.332	9.67
357.542	9.77
357.752	10.03
357.962	10.21
358.171	10.31
358.381	9.86
358.591	9.79
358.801	10.07
359.011	10.45
359.221	10.38
359.43	10.97
359.64	11.01
359.85	10.94
360.06	10.64
360.269	10.31
360.479	9.81
360.689	9.88
360.899	10.08
361.108	9.82
361.318	9.49
361.528	9.07
361.737	8.37
361.947	8.21
362.156	7.95
362.366	7.8
362.576	7.94
362.785	8.3
362.995	8.57
363.204	8.78
363.414	8.72
363.623	8.19
363.833	8.45
364.042	8.35
364.252	8.6
364.461	8.74
364.671	8.71
364.88	8.74
365.09	8.52
365.299	7.98
365.509	7.83
365.718	7.88
365.927	8.26
366.137	8.68
366.346	8.32
366.555	7.77
366.765	8.16
366.974	8.73
367.183	8.34
367.393	8.11
367.602	7.85
367.811	8.23
368.021	8.35
368.23	8.77
368.439	8.23
368.648	8.77
368.857	8.91
369.067	8.93
369.276	8.29
369.485	8.26
369.694	7.94
369.903	8.07
370.112	8.21
370.321	7.46
370.531	7.27
370.74	7.12
370.949	7.26
371.158	7.16
371.367	6.19
371.576	7.15
371.785	7.64
371.994	8.48
372.203	8.89
372.412	8.67
372.621	9.38
372.83	9.74
373.039	9.74
373.248	9.69
373.457	9.83
373.666	10.36
373.874	9.77
374.083	9.48
374.292	8.79
374.501	8.26
374.71	7.37
374.919	6.91
375.128	6.62
375.336	7.29
375.545	7.08
375.754	7.09
375.963	7.28
376.171	7.68
376.38	7.72
376.589	8.07
376.798	8.37
377.006	9.14
377.215	9.49
377.424	9.53
377.632	9.15
377.841	9.08
378.05	9.75
378.258	9.79
378.467	9.66
378.675	9.42
378.884	9.38
379.093	9.28
379.301	8.91
379.51	8.54
379.718	8.28
379.927	8.1
380.135	8.12
380.344	7.72
380.552	7.76
380.761	7.82
380.969	7.93
381.177	7.65
381.386	7.64
381.594	7.95
381.803	8.29
382.011	8.63
382.219	8.82
382.428	8.91
382.636	8.94
382.845	8.56
383.053	8.68
383.261	8.15
383.469	8.45
383.678	8.57
383.886	8.17
384.094	8.08
384.302	7.95
384.511	7.82
384.719	7.96
384.927	7.55
385.135	7.55
385.343	7.02
385.552	7.44
385.76	7.22
385.968	7.48
386.176	7.72
386.384	7.29
386.592	7.45
386.8	7.35
387.008	7.22
387.216	7.31
387.424	7.62
387.633	7.79
387.841	7.54
388.049	7.69
388.257	7.08
388.465	7.04
388.672	7.4
388.88	7.37
389.088	7.49
389.296	7.5
389.504	7.4
389.712	7.22
389.92	6.76
390.128	7.01
390.336	6.58
390.544	6.7
390.751	7.03
390.959	6.82
391.167	6.77
391.375	6.84
391.583	6.96
391.79	7.08
391.998	7.11
392.206	7.81
392.414	7.8
392.621	7.89
392.829	8
393.037	7.3
393.244	7.46
393.452	7.14
393.66	6.98
393.867	6.97
394.075	6.86
394.283	7.06
394.49	6.48
394.698	6.87
394.905	7.14
395.113	7
395.32	7.25
395.528	7.32
395.735	7.51
395.943	7.66
396.15	7.2
396.358	7.27
396.565	7.08
396.773	6.96
396.98	6.5
397.188	5.84
397.395	5.99
397.602	6.03
397.81	5.93
398.017	6.09
398.225	5.64
398.432	6.14
398.639	5.94
398.847	5.88
399.054	6.24
399.261	6.19
399.468	6.48
399.676	6.64
399.883	6.75
400.09	6.58
400.297	6.29
400.505	6.58
400.712	6.56
400.919	6.64
401.126	6.75
401.333	6.57
401.54	6.78
401.748	6.91
401.955	6.71
402.162	6.31
402.369	6.42
402.576	6.66
402.783	6.24
402.99	6.08
403.197	6.28
403.404	6.02
403.611	6.1
403.818	6.02
404.025	6.05
404.232	5.82
404.439	6.11
404.646	5.87
404.853	5.66
405.06	5.93
405.267	5.91
405.474	5.6
405.681	5.96
405.887	5.97
406.094	6.05
406.301	6.02
406.508	6.31
406.715	6.16
406.922	6.43
407.128	6.55
407.335	6.57
407.542	6.8
407.749	6.97
407.955	6.74
408.162	6.75
408.369	6.73
408.575	6.75
408.782	6.45
408.989	6.39
409.195	6.19
409.402	6.28
409.609	6.34
409.815	6.15
410.022	5.94
410.228	6.01
410.435	6.04
410.642	5.69
410.848	5.76
411.055	5.82
411.261	6
411.468	6.08
411.674	5.87
411.881	5.88
412.087	5.63
412.294	5.98
412.5	5.81
412.706	5.93
412.913	6.44
413.119	6.34
413.326	6.63
413.532	6.6
413.738	6.83
413.945	6.84
414.151	6.88
414.357	7.07
414.564	7
414.77	7.07
414.976	6.68
415.182	6.8
415.389	6.74
415.595	6.47
415.801	6.49
416.007	6.25
416.214	6.26
416.42	6.16
416.626	6.29
416.832	6.1
417.038	6.19
417.244	6.38
417.45	6.07
417.657	6.12
417.863	6.2
418.069	6.14
418.275	6.2
418.481	6.3
418.687	6.42
418.893	6.34
419.099	6.53
419.305	6.44
419.511	6.39
419.717	6.44
419.923	6.49
420.129	6.4
420.335	6.4
420.541	6.41
420.746	6.46
420.952	6.3
421.158	6.32
421.364	6.27
421.57	6.16
421.776	6.21
421.982	6.24
422.187	6.15
422.393	6.21
422.599	6.3
422.805	6.28
423.01	6.19
423.216	6.32
423.422	6.37
423.628	6.3
423.833	6.44
424.039	6.36
424.245	6.4
424.45	6.43
424.656	6.35
424.862	6.24
425.067	6.24
425.273	6.22
425.478	6.2
425.684	6.23
425.889	6.21
426.095	6.16
426.301	6.15
426.506	6.1
426.712	6.02
426.917	6.14
427.123	6.08
427.328	6.05
427.533	6.22
427.739	6.1
427.944	6.26
428.15	6.33
428.355	6.32
428.561	6.33
428.766	6.13
428.971	6.3
429.177	6.37
429.382	6.6
429.587	6.6
429.793	6.49
429.998	6.67
430.203	6.37
430.408	6.37
430.614	6.34
430.819	6.65
431.024	6.81
431.229	6.91
431.434	6.79
431.64	6.59
431.845	6.73
432.05	6.65
432.255	6.61
432.46	6.68
432.665	6.43
432.87	6.54
433.076	6.34
433.281	6.36
433.486	6.04
433.691	6.06
433.896	6.17
434.101	5.97
434.306	5.93
434.511	5.74
434.716	5.49
434.921	5.69
435.126	5.7
435.331	5.48
435.535	5.43
435.74	5.74
435.945	5.82
436.15	5.93
436.355	6.15
436.56	6.23
436.765	6.41
436.97	6.34
437.174	6.42
437.379	6.44
437.584	6.53
437.789	6.57
437.993	6.48
438.198	6.43
438.403	6.27
438.608	6.1
438.812	6.02
439.017	6.06
439.222	6.28
439.426	6.26
439.631	6.23
439.836	6.24
440.04	6.26
440.245	6.25
440.45	6.21
440.654	6.28
440.859	6.3
441.063	6.39
441.268	6.47
441.472	6.39
441.677	6.36
441.881	6.45
442.086	6.57
442.29	6.62
442.495	6.8
442.699	6.76
442.904	6.63
443.108	6.6
443.312	6.57
443.517	6.53
443.721	6.61
443.925	6.53
444.13	6.39
444.334	6.32
444.538	6.3
444.743	6.19
444.947	6.32
445.151	6.51
445.356	6.65
445.56	6.77
445.764	6.67
445.968	6.51
446.173	6.51
446.377	6.38
446.581	6.35
446.785	6.27
446.989	6.31
447.193	6.29
447.398	6.21
447.602	6.1
447.806	6.02
448.01	6.03
448.214	6.17
448.418	6.34
448.622	6.51
448.826	6.53
449.03	6.58
449.234	6.35
449.438	6.24
449.642	6.2
449.846	6.31
450.05	6.3
450.254	6.29
450.458	6.22
450.662	6.08
450.866	5.92
451.069	5.98
451.273	5.97
451.477	6.15
451.681	6.22
451.885	6.21
452.089	6.06
452.292	6.04
452.496	5.97
452.7	6.1
452.904	6.13
453.107	6.26
453.311	6.38
453.515	6.44
453.719	6.42
453.922	6.41
454.126	6.36
454.33	6.52
454.533	6.66
454.737	6.68
454.94	6.46
455.144	6.41
455.348	6.39
455.551	6.3
455.755	6.24
455.958	6.16
456.162	6.16
456.365	6.27
456.569	6.14
456.772	6.05
456.976	5.84
457.179	5.95
457.383	5.91
457.586	5.77
457.79	5.79
457.993	5.86
458.196	5.98
458.4	6.06
458.603	6.07
458.807	6.09
459.01	6.02
459.213	6.21
459.417	6.17
459.62	6.22
459.823	6.28
460.026	6.2
460.23	6.12
460.433	6.14
460.636	6.07
460.839	6.1
461.042	6.01
461.246	6.03
461.449	6.05
461.652	6.13
461.855	6.18
462.058	6.1
462.261	6.06
462.464	6.15
462.668	6.08
462.871	6.1
463.074	5.96
463.277	6.12
463.48	6.15
463.683	6.15
463.886	6.09
464.089	6.14
464.292	6.19
464.495	6.17
464.698	6.03
464.901	6.15
465.104	6.23
465.306	6.43
465.509	6.49
465.712	6.21
465.915	6.1
466.118	6.05
466.321	5.94
466.524	6.12
466.726	6.09
466.929	6.2
467.132	6
467.335	5.76
467.538	5.74
467.74	5.69
467.943	6
468.146	6.07
468.348	6.22
468.551	6.12
468.754	5.96
468.956	6.21
469.159	6.3
469.362	6.4
469.564	6.6
469.767	6.49
469.969	6.39
470.172	6.37
470.375	6.43
470.577	6.29
470.78	6.36
470.982	6.51
471.185	6.27
471.387	5.9
471.59	5.82
471.792	5.76
471.995	5.61
472.197	5.63
472.399	5.47
472.602	5.45
472.804	5.48
473.007	5.61
473.209	5.45
473.411	5.61
473.614	5.82
473.816	5.77
474.018	5.82
474.22	5.93
474.423	6.06
474.625	6.33
474.827	6.25
475.03	6.29
475.232	6.31
475.434	6.46
475.636	6.4
475.838	6.5
476.04	6.59
476.243	6.52
476.445	6.37
476.647	6.27
476.849	6.18
477.051	6.23
477.253	6.24
477.455	6.09
477.657	6.04
477.859	5.97
478.061	5.86
478.263	5.82
478.465	5.88
478.667	6.01
478.869	6.09
479.071	5.97
479.273	5.88
479.475	5.92
479.677	5.94
479.879	5.98
480.081	6.1
480.283	6.04
480.485	5.99
480.686	6.1
480.888	6.09
481.09	5.95
481.292	5.96
481.494	6.02
481.695	5.97
481.897	6.01
482.099	5.95
482.301	5.88
482.502	5.9
482.704	6
482.906	5.98
483.107	5.98
483.309	6.02
483.511	5.99
483.712	6
483.914	5.92
484.115	5.94
484.317	5.95
484.519	5.98
484.72	6.01
484.922	6
485.123	5.91
485.325	5.93
485.526	5.9
485.728	5.97
485.929	5.98
486.131	6.05
486.332	6.04
486.534	6.03
486.735	6.04
486.936	6.02
487.138	6.03
487.339	6.05
487.541	6.07
487.742	6.04
487.943	6.07
488.144	6.1
488.346	6.15
488.547	6.14
488.748	6.13
488.95	6.05
489.151	6.05
489.352	6
489.553	6.05
489.755	6.04
489.956	6.16
490.157	6.11
490.358	6.07
490.559	6
490.76	6.01
490.961	6.04
491.163	6.12
491.364	6.19
491.565	6.23
491.766	6.22
491.967	6.24
492.168	6.21
492.369	6.12
492.57	6.07
492.771	6.07
492.972	6.01
493.173	6.07
493.374	6.13
493.575	6.08
493.776	6.1
493.976	6.06
494.177	6.04
494.378	6.03
494.579	6.1
494.78	6.1
494.981	6.03
495.182	6.07
495.382	6.15
495.583	6.08
495.784	6.17
495.985	6.16
496.185	6.37
496.386	6.28
496.587	6.32
496.788	6.37
496.988	6.52
497.189	6.62
497.39	6.73
497.59	6.63
497.791	6.68
497.992	6.53
498.192	6.59
498.393	6.51
498.593	6.58
498.794	6.54
498.994	6.46
499.195	6.5
499.395	6.59
499.596	6.66
499.796	6.61
499.997	6.61
500.197	6.63
500.398	6.57
500.598	6.65
500.799	6.59
500.999	6.64
501.199	6.85
501.4	6.73
501.6	6.69
501.801	6.66
502.001	6.7
502.201	6.77
502.402	6.94
502.602	6.87
502.802	6.64
503.002	6.84
503.203	6.81
503.403	6.67
503.603	6.77
503.803	6.79
504.003	6.78
504.204	6.87
504.404	6.83
504.604	6.76
504.804	6.86
505.004	7.03
505.204	7.04
505.404	7.14
505.604	7.23
505.804	7.17
506.005	7.23
506.205	7.21
506.405	7.39
506.605	7.5
506.805	7.52
507.005	7.71
507.204	7.69
507.404	7.55
507.604	7.54
507.804	7.61
508.004	7.66
508.204	7.71
508.404	7.73
508.604	7.58
508.804	7.5
509.003	7.54
509.203	7.39
509.403	7.38
509.603	7.38
509.803	7.48
510.002	7.39
510.202	7.39
510.402	7.4
510.602	7.39
510.801	7.47
511.001	7.43
511.201	7.46
511.4	7.5
511.6	7.66
511.8	7.6
511.999	7.53
512.199	7.73
512.398	7.8
512.598	7.82
512.797	7.95
512.997	7.9
513.197	7.97
513.396	8.02
513.596	8.11
513.795	8
513.994	8.26
514.194	8.31
514.393	8.21
514.593	8.34
514.792	8.39
514.992	8.45
515.191	8.39
515.39	8.5
515.59	8.57
515.789	8.65
515.988	8.86
516.188	8.87
516.387	8.87
516.586	8.94
516.786	8.92
516.985	8.95
517.184	8.98
517.383	9.08
517.582	9.05
517.782	8.95
517.981	8.89
518.18	8.77
518.379	8.77
518.578	8.77
518.777	8.75
518.976	8.76
519.176	8.75
519.375	8.63
519.574	8.62
519.773	8.64
519.972	8.74
520.171	8.69
520.37	8.77
520.569	8.8
520.768	8.77
520.967	8.8
521.166	8.73
521.365	8.78
521.564	8.95
521.762	9.02
521.961	9.01
522.16	8.95
522.359	9.12
522.558	8.99
522.757	9
522.956	9.08
523.154	9.22
523.353	9.19
523.552	9.26
523.751	9.28
523.949	9.2
524.148	9.42
524.347	9.41
524.546	9.41
524.744	9.58
524.943	9.64
525.142	9.67
525.34	9.6
525.539	9.67
525.737	9.68
525.936	9.58
526.135	9.75
526.333	9.66
526.532	9.69
526.73	9.76
526.929	9.77
527.127	9.79
527.326	9.82
527.524	9.89
527.723	9.96
527.921	9.95
528.12	10.02
528.318	10.01
528.516	9.99
528.715	10
528.913	10.03
529.112	10.04
529.31	10.05
529.508	10.06
529.707	10.13
529.905	10.13
530.103	10.17
530.301	10.2
530.5	10.27
530.698	10.38
530.896	10.45
531.094	10.45
531.293	10.52
531.491	10.52
531.689	10.52
531.887	10.5
532.085	10.51
532.283	10.5
532.481	10.52
532.68	10.57
532.878	10.52
533.076	10.5
533.274	10.52
533.472	10.54
533.67	10.6
533.868	10.71
534.066	10.73
534.264	10.79
534.462	10.84
534.66	10.87
534.858	10.78
535.056	10.89
535.253	10.93
535.451	11.03
535.649	10.99
535.847	11.08
536.045	11.07
536.243	11.19
536.441	11.24
536.638	11.35
536.836	11.36
537.034	11.53
537.232	11.5
537.43	11.59
537.627	11.55
537.825	11.68
538.023	11.71
538.22	11.8
538.418	11.72
538.616	11.7
538.813	11.72
539.011	11.66
539.209	11.57
539.406	11.61
539.604	11.66
539.801	11.69
539.999	11.73
540.196	11.8
540.394	11.87
540.591	11.91
540.789	11.98
540.986	12.04
541.184	12.2
541.381	12.32
541.579	12.41
541.776	12.46
541.974	12.51
542.171	12.53
542.368	12.63
542.566	12.59
542.763	12.59
542.96	12.62
543.158	12.58
543.355	12.54
543.552	12.48
543.75	12.49
543.947	12.58
544.144	12.67
544.341	12.71
544.539	12.64
544.736	12.68
544.933	12.78
545.13	12.9
545.327	12.86
545.524	13.02
545.722	13.2
545.919	13.15
546.116	13.09
546.313	12.97
546.51	13.01
546.707	13.02
546.904	13.09
547.101	13.08
547.298	13.13
547.495	13.24
547.692	13.27
547.889	13.1
548.086	13.15
548.283	13.24
548.48	13.44
548.677	13.55
548.874	13.79
549.07	13.91
549.267	13.97
549.464	13.94
549.661	14.05
549.858	14.05
550.055	14.23
550.251	14.41
550.448	14.53
550.645	14.72
550.842	14.87
551.038	14.77
551.235	14.94
551.432	14.98
551.628	15.24
551.825	15.54
552.022	15.67
552.218	15.8
552.415	15.99
552.612	16.03
552.808	15.88
553.005	15.63
553.201	15.63
553.398	15.61
553.594	15.73
553.791	15.64
553.987	15.41
554.184	15.32
554.38	15.36
554.577	15.22
554.773	15.19
554.97	15.47
555.166	15.84
555.362	15.93
555.559	16.03
555.755	16.05
555.952	16.09
556.148	16.35
556.344	16.59
556.541	16.71
556.737	16.79
556.933	17.03
557.129	16.88
557.326	16.98
557.522	17.11
557.718	17.27
557.914	17.58
558.11	17.7
558.307	17.8
558.503	17.81
558.699	17.89
558.895	18.17
559.091	18.13
559.287	18.34
559.483	18.17
559.679	18.07
559.876	18.07
560.072	17.9
560.268	18.02
560.464	18.19
560.66	18.33
560.856	18.3
561.052	18.19
561.247	18.18
561.443	18.13
561.639	18.12
561.835	18.26
562.031	18.49
562.227	18.57
562.423	18.45
562.619	18.25
562.815	18.25
563.01	18.51
563.206	18.55
563.402	18.64
563.598	18.84
563.793	19.16
563.989	19.26
564.185	19.15
564.381	19.39
564.576	19.64
564.772	20.15
564.968	20.27
565.163	20.24
565.359	20.35
565.555	20.69
565.75	20.81
565.946	20.85
566.141	20.92
566.337	21.02
566.532	20.99
566.728	21.13
566.923	20.96
567.119	20.95
567.314	21.09
567.51	21.18
567.705	21.04
567.901	21
568.096	20.92
568.292	20.96
568.487	20.99
568.682	21.19
568.878	21.29
569.073	21.42
569.268	21.47
569.464	21.45
569.659	21.61
569.854	21.71
570.05	21.92
570.245	22.07
570.44	22.31
570.635	22.46
570.831	22.43
571.026	22.32
571.221	22.32
571.416	22.56
571.611	22.53
571.806	22.53
572.002	22.64
572.197	22.66
572.392	22.77
572.587	22.68
572.782	22.59
572.977	22.66
573.172	22.7
573.367	22.81
573.562	22.76
573.757	22.94
573.952	23.11
574.147	23.25
574.342	23.34
574.537	23.55
574.732	23.89
574.927	23.98
575.121	24.11
575.316	24.38
575.511	24.54
575.706	24.7
575.901	24.82
576.096	24.76
576.29	24.7
576.485	24.79
576.68	24.55
576.875	24.43
577.069	24.67
577.264	24.75
577.459	24.77
577.654	24.65
577.848	24.83
578.043	24.88
578.238	25.03
578.432	25.13
578.627	25.13
578.821	25.35
579.016	25.43
579.21	25.57
579.405	25.55
579.6	25.49
579.794	25.53
579.989	25.54
580.183	25.41
580.378	25.39
580.572	25.52
580.766	25.91
580.961	26.01
581.155	25.9
581.35	25.94
581.544	26.15
581.738	26.45
581.933	26.3
582.127	26.29
582.321	26.5
582.516	26.7
582.71	26.42
582.904	26.2
583.099	26.46
583.293	26.86
583.487	26.81
583.681	26.65
583.875	26.47
584.07	26.8
584.264	26.81
584.458	26.99
584.652	27.04
584.846	27.26
585.04	27.19
585.234	27.21
585.428	27.13
585.623	27.15
585.817	27.19
586.011	27.26
586.205	27.25
586.399	27.35
586.593	27.34
586.787	27.38
586.981	27.6
587.174	27.7
587.368	27.45
587.562	27.35
587.756	27.59
587.95	28.02
588.144	28.02
588.338	28.24
588.532	28.39
588.725	28.59
588.919	28.85
589.113	28.84
589.307	28.8
589.501	28.96
589.694	29.05
589.888	28.96
590.082	28.77
590.275	28.88
590.469	29.11
590.663	28.96
590.856	28.99
591.05	28.92
591.244	29.19
591.437	29.34
591.631	29.47
591.824	29.68
592.018	29.86
592.212	30.15
592.405	30.21
592.599	29.97
592.792	30.17
592.986	30.17
593.179	29.91
593.372	29.76
593.566	29.84
593.759	30.07
593.953	30
594.146	29.97
594.339	29.93
594.533	30.03
594.726	30.16
594.92	30.15
595.113	30.1
595.306	30.44
595.499	30.38
595.693	30.46
595.886	30.3
596.079	30.3
596.272	30.31
596.466	30.13
596.659	30.13
596.852	30.3
597.045	30.46
597.238	30.57
597.431	30.57
597.624	30.64
597.818	30.87
598.011	30.95
598.204	31.18
598.397	31.04
598.59	31.22
598.783	31.28
598.976	31.2
599.169	31.27
599.362	31.13
599.555	31.24
599.748	31.44
599.941	31.18
600.134	31.27
600.326	31.29
600.519	31.84
600.712	31.89
600.905	31.94
601.098	31.97
601.291	31.99
601.483	32.1
601.676	32.11
601.869	32.23
602.062	32.44
602.255	32.48
602.447	32.5
602.64	32.35
602.833	32.51
603.025	32.64
603.218	32.76
603.411	32.64
603.603	32.66
603.796	32.56
603.989	32.31
604.181	32.07
604.374	32.07
604.566	32.12
604.759	32.14
604.951	32.17
605.144	32.3
605.336	32.44
605.529	32.6
605.721	32.65
605.914	32.58
606.106	32.81
606.299	33.17
606.491	33.01
606.683	32.88
606.876	32.86
607.068	32.74
607.26	32.54
607.453	32.26
607.645	32.28
607.837	32.26
608.03	32.6
608.222	32.7
608.414	32.59
608.606	32.75
608.799	33.02
608.991	33.27
609.183	33.46
609.375	33.33
609.567	33.59
609.759	33.6
609.952	33.81
610.144	33.82
610.336	33.88
610.528	33.88
610.72	33.97
610.912	33.91
611.104	33.74
611.296	33.84
611.488	34.09
611.68	34.14
611.872	34.17
612.064	34.08
612.256	34.17
612.448	34.2
612.64	34.27
612.832	34.48
613.023	34.39
613.215	34.45
613.407	34.18
613.599	34.45
613.791	34.38
613.983	34.2
614.174	34.12
614.366	34.18
614.558	34
614.75	34
614.941	33.8
615.133	33.98
615.325	33.96
615.516	33.98
615.708	33.62
615.9	33.4
616.091	33.53
616.283	33.72
616.475	33.57
616.666	33.89
616.858	34.3
617.049	34.33
617.241	34.28
617.432	34.14
617.624	34.23
617.815	34.37
618.007	34.69
618.198	34.62
618.39	34.71
618.581	34.93
618.773	34.47
618.964	34.22
619.155	34.42
619.347	34.4
619.538	34.59
619.729	34.77
619.921	34.65
620.112	34.84
620.303	34.79
620.494	34.7
620.686	34.74
620.877	34.88
621.068	35.02
621.259	34.91
621.451	35.1
621.642	35.32
621.833	35.39
622.024	35.72
622.215	35.67
622.406	35.73
622.597	35.69
622.788	35.53
622.98	35.52
623.171	35.55
623.362	35.81
623.553	35.94
623.744	35.65
623.935	35.42
624.126	35.24
624.317	35.38
624.508	35.84
624.698	36.1
624.889	36.24
625.08	36.45
625.271	36.46
625.462	36.39
625.653	36.42
625.844	36.39
626.034	36.58
626.225	36.84
626.416	36.59
626.607	36.36
626.798	36.33
626.988	36.18
627.179	36.21
627.37	36.21
627.56	36.13
627.751	35.9
627.942	36.14
628.132	36.03
628.323	35.91
628.514	36.01
628.704	35.81
628.895	35.87
629.085	36.02
629.276	36.26
629.466	36.34
629.657	36.39
629.847	36.57
630.038	36.65
630.228	36.85
630.419	36.98
630.609	37.05
630.8	37.42
630.99	37.5
631.181	37.59
631.371	37.59
631.561	37.55
631.752	37.48
631.942	37.43
632.132	37.58
632.323	37.52
632.513	37.55
632.703	37.24
632.893	37.18
633.084	37.18
633.274	37.16
633.464	36.74
633.654	36.85
633.844	36.96
634.034	37.04
634.225	36.62
634.415	36.65
634.605	36.66
634.795	37.03
634.985	37.13
635.175	37
635.365	36.77
635.555	37.08
635.745	36.87
635.935	36.89
636.125	36.64
636.315	36.91
636.505	37.07
636.695	37.08
636.885	37.08
637.075	37.22
637.265	37.47
637.455	37.85
637.644	38.15
637.834	38.08
638.024	38.15
638.214	38.52
638.404	38.59
638.593	38.72
638.783	38.57
638.973	38.56
639.163	38.64
639.352	38.6
639.542	38.54
639.732	38.47
639.921	38.79
640.111	38.87
640.301	38.8
640.49	38.89
640.68	38.65
640.87	38.72
641.059	38.82
641.249	38.94
641.438	38.65
641.628	39.11
641.817	38.85
642.007	38.99
642.196	39.17
642.386	39.59
642.575	39.7
642.764	40.02
642.954	39.81
643.143	39.73
643.333	39.47
643.522	39.5
643.711	38.79
643.901	38.78
644.09	38.77
644.279	38.57
644.469	38.47
644.658	37.93
644.847	37.33
645.036	37.56
645.226	37.96
645.415	37.91
645.604	38.12
645.793	38.61
645.982	38.71
646.171	38.59
646.361	38.44
646.55	38.34
646.739	39.08
646.928	39.49
647.117	39.67
647.306	39.47
647.495	39.43
647.684	39.39
647.873	39.42
648.062	39.67
648.251	39.84
648.44	39.92
648.629	39.88
648.818	39.43
649.007	39.6
649.196	39.68
649.384	39.57
649.573	39.99
649.762	40.37
649.951	40.18
650.14	40.34
650.328	40.1
650.517	40.26
650.706	40.54
650.895	40.66
651.083	40.87
651.272	40.91
651.461	40.6
651.65	40.46
651.838	40.61
652.027	40.73
652.216	40.46
652.404	40.71
652.593	40.53
652.781	40.39
652.97	40.78
653.158	40.32
653.347	40.17
653.535	40.34
653.724	40.3
653.912	40.18
654.101	40.01
654.289	40.09
654.478	39.9
654.666	40.07
654.855	39.97
655.043	39.81
655.231	40.1
655.42	40.22
655.608	40.07
655.796	40.14
655.985	40.16
656.173	40.08
656.361	39.82
656.55	39.94
656.738	40
656.926	39.95
657.114	39.84
657.302	39.81
657.491	39.8
657.679	40.47
657.867	40.56
658.055	40.47
658.243	40.55
658.431	40.89
658.619	41.11
658.807	41.29
658.996	41.35
659.184	41.77
659.372	41.83
659.56	41.87
659.748	41.51
659.936	41.69
660.124	41.53
660.311	41.68
660.499	41.65
660.687	41.64
660.875	41.69
661.063	41.61
661.251	41.57
661.439	41.84
661.627	41.73
661.814	42.1
662.002	41.89
662.19	42.01
662.378	42.27
662.565	42.21
662.753	42.21
662.941	41.81
663.129	41.77
663.316	41.46
663.504	41.06
663.692	41.24
663.879	41.21
664.067	41.48
664.254	41.79
664.442	41.45
664.63	41.51
664.817	40.92
665.005	41.38
665.192	41.55
665.38	41.52
665.567	41.59
665.755	41.76
665.942	41.64
666.13	40.97
666.317	40.53
666.504	40.81
666.692	41.07
666.879	41.5
667.067	41.34
667.254	41.4
667.441	41.35
667.629	41.74
667.816	41.43
668.003	41.5
668.19	42
668.378	42
668.565	41.9
668.752	41.69
668.939	42.02
669.127	42.32
669.314	42.71
669.501	42.99
669.688	42.85
669.875	43.21
670.062	43.04
670.249	42.88
670.436	43.11
670.623	43.13
670.81	43.42
670.997	43.03
671.184	42.81
671.371	42.41
671.558	42.38
671.745	42.14
671.932	41.8
672.119	42
672.306	42.27
672.493	42.41
672.68	42.37
672.867	42.34
673.054	42.59
673.24	42.81
673.427	42.87
673.614	42.43
673.801	42.67
673.988	42.74
674.174	42.57
674.361	42.65
674.548	42.42
674.734	42.29
674.921	42.28
675.108	42.57
675.294	42.56
675.481	42.68
675.668	43.62
675.854	43.31
676.041	43.45
676.227	43.41
676.414	43.09
676.601	43.25
676.787	43.63
676.974	44.02
677.16	43.67
677.347	43.75
677.533	44.16
677.719	43.47
677.906	43.24
678.092	43.44
678.279	43.68
678.465	43.48
678.651	43.58
678.838	43.64
679.024	43.24
679.21	42.89
679.397	42.75
679.583	42.63
679.769	42.85
679.955	43.55
680.142	43.09
680.328	43.4
680.514	44.02
680.7	43.95
680.886	44.05
681.073	44.24
681.259	44.91
681.445	45.11
681.631	45.21
681.817	45.07
682.003	44.95
682.189	45.24
682.375	45.06
682.561	44.83
682.747	45.31
682.933	45.09
683.119	44.8
683.305	44.46
683.491	44.58
683.677	44.35
683.863	44.33
684.049	44.42
684.235	44.23
684.42	44.68
684.606	44.2
684.792	43.63
684.978	43.62
685.164	43.53
685.349	43.6
685.535	43.7
685.721	44.02
685.907	44.07
686.092	44
686.278	44.4
686.464	43.66
686.649	44.39
686.835	44.24
687.021	44.76
687.206	45
687.392	45.12
687.577	44.94
687.763	44.51
687.948	44.24
688.134	44.08
688.319	44.42
688.505	44.86
688.69	44.72
688.876	45.1
689.061	44.7
689.247	44.9
689.432	44.91
689.618	44.33
689.803	44.55
689.988	44.84
690.174	45.21
690.359	44.99
690.544	44.96
690.73	44.87
690.915	44.53
691.1	44.75
691.285	44.87
691.471	44.93
691.656	45.53
691.841	45.57
692.026	45.91
692.211	45.67
692.396	45.94
692.582	46.11
692.767	46.07
692.952	46.39
693.137	46.15
693.322	46.23
693.507	45.92
693.692	46.11
693.877	45.86
694.062	45.86
694.247	46.11
694.432	45.8
694.617	45.41
694.802	45.76
694.987	46.1
695.172	46.24
695.357	45.54
695.541	45.99
695.726	45.71
695.911	45.74
696.096	45.82
696.281	45.47
696.466	45.54
696.65	45.71
696.835	45.79
697.02	45.31
697.204	45.57
697.389	46.31
697.574	46.25
697.759	46.22
697.943	46.71
698.128	46.73
698.312	46.78
698.497	46.48
698.682	46.53
698.866	46.18
699.051	46.4
699.235	46.13
699.42	45.82
699.604	45.71
699.789	45.73
699.973	45.49
700.158	45.21
700.342	45.24
700.527	45.72
700.711	45.64
700.895	46.03
701.08	45.91
701.264	46.07
701.448	46.07
701.633	46.09
701.817	46.22
702.001	46.17
702.186	46.21
702.37	46.51
702.554	45.85
702.738	45.05
702.923	44.71
703.107	44.47
703.291	43.88
703.475	43.75
703.659	43.76
703.843	43.87
704.027	43.81
704.212	43.99
704.396	43.76
704.58	44.27
704.764	45.12
704.948	45.21
705.132	45.25
705.316	45.64
705.5	45.23
705.684	44.82
705.868	44.68
706.052	44.91
706.235	45.17
706.419	44.71
706.603	44.71
706.787	44.64
706.971	44.42
707.155	44.53
707.339	44.65
707.522	45.29
707.706	46.18
707.89	46.5
708.074	46.48
708.257	46.13
708.441	46.19
708.625	45.4
708.808	45.34
708.992	46.07
709.176	46.62
709.359	46.87
709.543	47.45
709.727	47.16
709.91	47
710.094	46.65
710.277	47.29
710.461	47.52
710.644	48
710.828	48.07
711.011	48.47
711.195	48.22
711.378	48.27
711.562	47.11
711.745	47.25
711.928	46.98
712.112	47.38
712.295	46.66
712.478	46.9
712.662	47.01
712.845	47.77
713.028	47.31
713.212	46.95
713.395	46.71
713.578	46.67
713.761	45.9
713.945	46.22
714.128	45.94
714.311	46.38
714.494	46.11
714.677	45.91
714.86	45.31
715.043	44.85
715.227	45.39
715.41	45.25
715.593	46.18
715.776	47.16
715.959	46.73
716.142	46.69
716.325	46.84
716.508	47.2
716.691	47.62
716.874	47.63
717.057	47.4
717.239	46.64
717.422	46.71
717.605	47.07
717.788	46.88
717.971	46.97
718.154	47.29
718.337	46.88
718.519	46.86
718.702	47.03
718.885	47
719.068	47.4
719.25	47.98
719.433	47.73
719.616	47.32
719.798	47.51
719.981	47.96
720.164	47.44
720.346	47.54
720.529	47
720.712	46.29
720.894	46.18
721.077	46.29
721.259	46.2
721.442	47.31
721.624	46.54
721.807	46.66
721.989	46.38
722.172	46.85
722.354	46.73
722.537	47.03
722.719	47.19
722.901	47.39
723.084	47.19
723.266	47.37
723.448	46.67
723.631	47.13
723.813	46.93
723.995	47.26
724.178	47.4
724.36	48.21
724.542	47.92
724.724	47.77
724.907	47.07
725.089	47.13
725.271	47.81
725.453	48.16
725.635	48.23
725.817	48.31
725.999	48.01
726.181	47.84
726.364	48.21
726.546	48.05
726.728	47.87
726.91	48.05
727.092	48.04
727.274	46.84
727.456	46.48
727.638	45.83
727.819	45.17
728.001	44.92
728.183	45.19
728.365	43.78
728.547	44.41
728.729	45.29
728.911	45.21
729.093	45.26
729.274	46.38
729.456	46.44
729.638	47.34
729.82	47.99
730.001	47.59
730.183	46.99
730.365	47.21
730.546	47.4
730.728	46.94
730.91	47.45
731.091	47.86
731.273	47.35
731.455	47.78
731.636	47.17
731.818	46.96
731.999	47.55
732.181	47.9
732.362	48.74
732.544	47.97
732.725	47.82
732.907	47.22
733.088	47
733.27	47.02
733.451	46.29
733.633	46.44
733.814	46.17
733.995	46.04
734.177	46.39
734.358	46.2
734.539	46.3
734.721	46.62
734.902	47.29
735.083	47.64
735.264	47.8
735.446	48.84
735.627	48.61
735.808	48.56
735.989	47.99
736.17	47.74
736.351	47.37
736.533	47.6
736.714	47.79
736.895	47.41
737.076	46.7
737.257	46.99
737.438	47.03
737.619	47.12
737.8	47.7
737.981	48.24
738.162	48.46
738.343	47.98
738.524	48.48
738.705	48.02
738.886	48.48
739.067	48.64
739.247	47.71
739.428	46.98
739.609	47.49
739.79	46.73
739.971	45.96
740.151	46.2
740.332	46.81
740.513	46.95
740.694	47.33
740.874	47.83
741.055	47.77
741.236	48.03
741.417	47.73
741.597	47.73
741.778	48.42
741.958	48.95
742.139	48.91
742.32	49.05
742.5	48.88
742.681	48.1
742.861	47.79
743.042	48.07
743.222	48.95
743.403	48.93
743.583	48.67
743.764	48.4
743.944	48.69
744.124	48.61
744.305	47.67
744.485	47.54
744.666	48.23
744.846	47.81
745.026	48.01
745.207	47.2
745.387	47.32
745.567	47.5
745.747	46.93
745.928	46.98
746.108	46.61
746.288	47.31
746.468	47.12
746.648	47.33
746.829	47.65
747.009	47.65
747.189	46.71
747.369	47.41
747.549	46.44
747.729	46.7
747.909	47.25
748.089	47.18
748.269	47.09
748.449	47.35
748.629	46.8
748.809	46.83
748.989	47.05
749.169	46.82
749.349	46.04
749.529	46.76
749.709	46.72
749.889	46.34
750.068	45.64
750.248	45.77
750.428	45.58
750.608	45.86
750.788	45.35
750.967	45.84
751.147	47.07
751.327	46.92
751.507	46.88
751.686	47.22
751.866	47.11
752.046	48.71
752.225	48.9
752.405	49.09
752.585	49.59
752.764	50
752.944	48.38
753.123	48.72
753.303	48.57
753.482	48.95
753.662	49.53
753.841	49.38
754.021	49.32
754.2	49.03
754.38	48.81
754.559	48.81
754.739	48.39
754.918	48.27
755.097	48.33
755.277	48.57
755.456	48.48
755.635	47.86
755.815	49.04
755.994	48.03
756.173	48.71
756.352	49.53
756.532	48.65
756.711	48.68
756.89	49.69
757.069	49.34
757.248	50.27
757.427	50.54
757.607	49.88
757.786	49.19
757.965	49.35
758.144	49.04
758.323	49.33
758.502	49.38
758.681	49.47
758.86	49.32
759.039	48.72
759.218	47.93
759.397	47.52
759.576	48.4
759.755	48.42
759.934	48.66
760.113	49.78
760.291	49.21
760.47	49.62
760.649	49.49
760.828	50.67
761.007	51.1
761.186	52.11
761.364	52.37
761.543	52.05
761.722	52.24
761.901	52.01
762.079	50.91
762.258	50.85
762.437	51.35
762.615	51.98
762.794	50.86
762.972	50.52
763.151	49.99
763.33	50.03
763.508	49.76
763.687	49.64
763.865	49.71
764.044	49.87
764.222	49.76
764.401	49.38
764.579	48.89
764.758	49.11
764.936	49.34
765.114	49.57
765.293	49.82
765.471	51.14
765.65	50.98
765.828	51.1
766.006	50.8
766.184	50.58
766.363	49.98
766.541	50.35
766.719	50.05
766.898	50.03
767.076	49.43
767.254	48.56
767.432	47.22
767.61	46.36
767.788	46.97
767.967	47.28
768.145	46.63
768.323	47.71
768.501	47.52
768.679	47.83
768.857	48.23
769.035	48.68
769.213	48.26
769.391	48.48
769.569	51.91
769.747	50.13
769.925	49.68
770.103	51.13
770.281	50.81
770.459	50.29
770.636	50.14
770.814	50.45
770.992	50.57
771.17	52.47
771.348	52.64
771.525	49.97
771.703	50.65
771.881	51.25
772.059	50.79
772.236	50.17
772.414	49.82
772.592	50.27
772.769	50.24
772.947	49.27
773.125	47.38
773.302	47.3
773.48	47
773.657	46.71
773.835	45.75
774.013	44.63
774.19	45.76
774.368	46.72
774.545	46.73
774.723	45.86
774.9	45.98
775.077	47.5
775.255	47.59
775.432	47.99
775.61	48.57
775.787	49.1
775.964	50.58
776.142	50.21
776.319	50.39
776.496	50.63
776.674	50.57
776.851	50.67
777.028	50.65
777.205	51.27
777.382	52.21
777.56	52.11
777.737	52.16
777.914	52.19
778.091	50.12
778.268	49.56
778.445	49.55
778.622	50.05
778.8	51.14
778.977	50.89
779.154	47.63
779.331	47.03
779.508	45.68
779.685	45.33
779.862	45.23
780.038	46.02
780.215	45.05
780.392	44.25
780.569	43.38
780.746	42.58
780.923	42.79
781.1	45.74
781.277	43.64
781.453	45.45
781.63	44.12
781.807	44.22
781.984	44.28
782.16	45.37
782.337	45.42
782.514	47.56
782.691	48.59
782.867	46.19
783.044	45.57
783.221	48.25
783.397	48.87
783.574	49.59
783.75	50.12
783.927	50.75
784.103	52.62
784.28	52.88
784.456	53.86
784.633	55.13
784.809	57.6
784.986	57.68
785.162	56.42
785.339	54.48
785.515	54.9
785.692	52.04
785.868	51.86
786.044	51.04
786.221	50.87
786.397	48.05
786.573	44.8
786.749	45.12
786.926	45.77
787.102	46.82
787.278	47.02
787.454	48.57
787.631	49.09
787.807	48.86
787.983	48.68
788.159	48.55
788.335	49.05
788.511	50.09
788.687	49.42
788.863	50.14
789.039	48.64
789.216	49.34
789.392	48.35
789.568	50.74
789.744	51.73
789.919	51.2
790.095	49.49
790.271	49.25
790.447	48.05
790.623	47.97
790.799	48.91
790.975	51.99
791.151	51.92
791.327	53.34
791.502	50.81
791.678	51.18
791.854	50.96
792.03	51.5
792.205	51.81
792.381	53.83
792.557	52.03
792.733	51.98
792.908	49.68
793.084	49.84
793.259	46.44
793.435	47.96
793.611	48.27
793.786	48.31
793.962	49.39
794.137	49.03
794.313	48.65
794.488	51.26
794.664	50.37
794.839	52.11
795.015	52.04
795.19	54.17
795.366	54.72
795.541	54.09
795.716	52.98
795.892	53.78
796.067	51.61
796.242	50.65
796.418	49.67
796.593	49.41
796.768	47.64
796.944	46.47
797.119	49.06
797.294	48.87
797.469	49.27
797.644	50.93
797.82	49.68
797.995	50.65
798.17	53.09
798.345	52.03
798.52	51.63
798.695	52.15
798.87	52.14
799.045	48.1
799.22	47.3
799.395	46.85
799.57	45.34
799.745	46.76
799.92	48.31
800.095	47.4
800.27	48.43
800.445	49.31
800.62	50.19
800.795	51.27
800.97	52.32
801.145	51.54
801.319	50.83
801.494	50.15
801.669	49.34
801.844	49.14
802.018	48.25
802.193	48.46
802.368	46.22
802.543	46.21
802.717	44.85
802.892	44.23
803.067	46.85
803.241	47.62
803.416	48.69
803.59	50.33
803.765	51.64
803.94	52.18
804.114	50.48
804.289	52.12
804.463	51.54
804.638	50.95
804.812	52.74
804.986	52.52
805.161	50.92
805.335	52.07
805.51	49.93
805.684	48.1
805.858	47.71
806.033	48.53
806.207	47.96
806.381	47.46
806.556	49.05
806.73	50.29
806.904	48.18
807.078	49.71
807.253	49.73
807.427	51.09
807.601	51.23
807.775	52.26
807.949	51.31
808.123	50.29
808.298	49.8
808.472	51.49
808.646	51.25
808.82	53.98
808.994	52.67
809.168	50.75
809.342	49.45
809.516	48.15
809.69	48.86
809.864	48.86
810.038	50.42
810.212	51.87
810.385	50.8
810.559	48.23
810.733	47.49
810.907	47.52
811.081	48.86
811.255	49.92
811.428	52.25
811.602	52.02
811.776	53.97
811.95	52.5
812.123	51.38
812.297	49.59
812.471	51.29
812.644	50.08
812.818	50.5
812.992	52
813.165	53.19
813.339	54.1
813.512	52.47
813.686	53.75
813.86	52.95
814.033	54.42
814.207	56.06
814.38	52.88
814.554	55.75
814.727	58.47
814.9	55.85
815.074	49.4
815.247	48.33
815.421	45.02
815.594	43.61
815.767	47.12
815.941	46.41
816.114	43.62
816.287	45.42
816.46	40.01
816.634	37.57
816.807	41.2
816.98	48.15
817.153	43.28
817.327	44.91
817.5	42.9
817.673	39.72
817.846	40.32
818.019	41.02
818.192	42.49
818.365	43.47
818.538	45.7
818.711	43.13
818.884	41.67
819.057	44.39
819.23	44.78
819.403	45.05
819.576	45.34
819.749	44.49
819.922	44.99
820.095	44.42
820.268	46.31
820.441	46.02
820.614	47.69
820.786	46.94
820.959	46.75
821.132	48.52
821.305	50.15
821.477	50.03
821.65	50.01
821.823	50.71
821.996	51.35
822.168	51
822.341	50.26
822.514	49.63
822.686	50.16
822.859	50.61
823.031	50.21
823.204	49.27
823.376	49.4
823.549	49.5
823.722	49.21
823.894	48.62
824.067	48.57
824.239	48.37
824.411	48.86
824.584	49.18
824.756	48.89
824.929	48.8
825.101	49.79
825.273	49.89
825.446	50.02
825.618	50.21
825.79	50.21
825.963	50.08
826.135	50.11
826.307	50.39
826.479	49.53
826.652	49.79
826.824	49.74
826.996	49.35
827.168	49.54
827.34	49.77
827.512	48.91
827.684	49.05
827.856	48.84
828.029	49.01
828.201	47.76
828.373	48.16
828.545	48.19
828.717	47.93
828.889	48.45
829.061	48.5
829.232	47.9
829.404	48.27
829.576	49.47
829.748	50.08
829.92	50.71
830.092	51.83
830.264	52.45
830.436	53.54
830.607	54.07
830.779	54.39
830.951	54.1
831.123	55.82
831.294	56.53
831.466	55.85
831.638	56.54
831.809	57.29
831.981	56.76
832.153	54.81
832.324	53.12
832.496	52.85
832.667	51.36
832.839	52.46
833.011	50.76
833.182	51.3
833.354	51.05
833.525	49.5
833.697	50.34
833.868	50.23
834.039	50.18
834.211	48.24
834.382	48.44
834.554	47.82
834.725	47.24
834.896	47.54
835.068	46.95
835.239	46.1
835.41	47.16
835.581	47.16
835.753	47.42
835.924	48.11
836.095	49.05
836.266	49.94
836.438	51.45
836.609	50.06
836.78	49.98
836.951	50.39
837.122	52.52
837.293	52.06
837.464	49.64
837.635	49.74
837.806	48.22
837.977	49.83
838.148	48.35
838.319	47.14
838.49	48.9
838.661	46.6
838.832	46.2
839.003	45.28
839.174	47.4
839.345	50.34
839.516	48.62
839.687	51.6
839.857	48.51
840.028	47.2
840.199	47.47
840.37	46.35
840.54	44.23
840.711	43.66
840.882	41.02
841.053	41.07
841.223	38.51
841.394	37.86
841.564	38.18
841.735	39.44
841.906	45.87
842.076	45.59
842.247	46.28
842.417	48.17
842.588	50.22
842.758	54.35
842.929	52.85
843.099	56.58
843.27	58.78
843.44	56.52
843.611	56.47
843.781	48.59
843.951	48.88
844.122	49.87
844.292	50.83
844.462	50.82
844.633	41.49
844.803	36.53
844.973	32.66
845.144	34.86
845.314	30.95
845.484	31.87
845.654	40.73
845.824	46.72
845.995	44.74
846.165	48.56
846.335	47.98
846.505	52.04
846.675	66.34
846.845	83.91
847.015	80.2
847.185	88.66
847.355	88.49
847.525	83.77
847.695	68.32
847.865	70.95
848.035	62.15
848.205	64.32
848.375	63.24
848.545	53.23
848.715	38.49
848.884	40.74
849.054	40.51
849.224	39.51
849.394	36.08
849.564	38.01
849.733	39.57
849.903	46.39
850.073	45.12
850.243	49.87
850.412	47.42
850.582	48.47
850.752	51.68
850.921	46.48
851.091	54.64
851.26	54.51
851.43	55.86
851.599	56.04
851.769	53.52
851.939	52.36
852.108	59.04
852.278	63.74
852.447	66.01
852.616	65.19
852.786	71.95
852.955	68.92
853.125	71.6
853.294	72.13
853.463	65.53
853.633	65.25
853.802	65.93
853.971	58.91
854.141	61.67
854.31	59.5
854.479	60.73
854.648	58.3
854.818	62.98
854.987	60.07
855.156	59.93
855.325	58.65
855.494	63.12
855.663	66.14
855.832	63.48
856.001	60.67
856.171	63.12
856.34	60.28
856.509	59.28
856.678	55.63
856.847	56.27
857.016	54.29
857.185	59.46
857.353	60.12
857.522	57.7
857.691	61.91
857.86	57.21
858.029	67.17
858.198	65.1
858.367	63.73
858.535	68.16
858.704	73.27
858.873	67.44
859.042	63.55
859.21	61.08
859.379	59.86
859.548	60.08
859.717	57.45
859.885	48.78
860.054	50.15
860.222	36.56
860.391	32.1
860.56	25.06
860.728	28.11
860.897	32.73
861.065	32.7
861.234	34.77
861.402	34.18
861.571	47.22
861.739	38.67
861.908	37.89
862.076	54.78
862.244	50.85
862.413	60.64
862.581	68.53
862.749	69.17
862.918	68.06
863.086	80.17
863.254	70.51
863.423	61.59
863.591	63.65
863.759	63.29
863.927	55.57
864.096	70.74
864.264	63.23
864.432	61.87
864.6	63.13
864.768	70.44
864.936	62.77
865.104	51.67
865.272	53.09
865.44	47.78
865.608	53.25
865.776	45.9
865.944	31.6
866.112	34.74
866.28	28.56
866.448	29.87
866.616	27.49
866.784	26.46
866.952	30.99
867.12	27.92
867.288	35.92
867.455	38.6
867.623	45.99
867.791	46.38
867.959	39.3
868.127	44.79
868.294	41.86
868.462	39.97
868.63	46.59
868.797	44.64
868.965	46.19
869.133	42.38
869.3	39.51
869.468	36.33
869.636	33.24
869.803	38.06
869.971	39.16
870.138	38.75
870.306	41.76
870.473	34.57
870.641	31.63
870.808	29.8
870.975	31.2
871.143	32.31
871.31	31.73
871.478	41.66
871.645	38.86
871.812	26.25
871.98	34.38
872.147	29.73
872.314	33.81
872.482	47.24
872.649	53.29
872.816	56.87
872.983	46.08
873.15	50.81
873.318	50.12
873.485	62.3
873.652	65.9
873.819	54.08
873.986	54.45
874.153	53.95
874.32	49.06
874.487	45.78
874.654	43.94
874.821	45.27
874.988	46.66
875.155	44.24
875.322	42.49
875.489	47.55
875.656	53.48
875.823	53.34
875.99	60.45
876.157	61.15
876.324	62.55
876.49	67.7
876.657	73.58
876.824	77.97
876.991	82.73
877.157	79.29
877.324	72.74
877.491	69.23
877.658	73.54
877.824	66.09
877.991	63.67
878.157	60.03
878.324	53.67
878.491	44.01
878.657	46.69
878.824	49.2
878.99	44.3
879.157	44.48
879.323	42.17
879.49	38.53
879.656	44.29
879.823	45.08
879.989	46.09
880.156	55.27
880.322	54.64
880.488	46.72
880.655	47.15
880.821	55.69
880.987	55.25
881.154	54.21
881.32	52
881.486	52
881.652	48.76
881.819	50.13
881.985	45.95
882.151	50.12
882.317	51.78
882.483	48.19
882.649	46.83
882.816	47.71
882.982	48.93
883.148	48.23
883.314	48.7
883.48	50.32
883.646	50.51
883.812	51.22
883.978	51.28
884.144	50.71
884.31	51.54
884.476	51.73
884.642	50.9
884.807	51.6
884.973	52.39
885.139	52.77
885.305	52.33
885.471	53.28
885.637	50.58
885.802	49.57
885.968	50.29
886.134	51.56
886.3	49.92
886.465	53.14
886.631	51.87
886.797	52.28
886.962	51.22
887.128	52.68
887.293	50.26
887.459	53.72
887.625	53.26
887.79	51.82
887.956	47.86
888.121	49.86
888.287	43.62
888.452	45.58
888.618	46.02
888.783	43.83
