Data from LC_246_Reflection_3.txt Node
Date: Thu Nov 19 22:49:51 EST 2015
User: robert
Spectrometer: USB4E03001
Autoset integration time: false
Trigger mode: 4
Integration Time (sec): 1.000000E-1
Scans to average: 15
Electric dark correction enabled: true
Nonlinearity correction enabled: false
Boxcar width: 5
Stray light correction enabled: false
XAxis mode: Wavelengths
Stop averaging: false
Number of Pixels in Spectrum: 3648
>>>>>Begin Spectral Data<<<<<
177.566	-88.31
177.785	-20.13
178.005	8.64
178.225	-6.83
178.445	27.03
178.665	15.74
178.885	55.91
179.105	341.07
179.324	196.2
179.544	138.72
179.764	155.72
179.984	175.15
180.204	302.82
180.423	191.5
180.643	170.51
180.863	110.09
181.083	177.17
181.302	103.68
181.522	77.89
181.742	98.54
181.961	109.05
182.181	126.21
182.401	164.84
182.621	129.3
182.84	281.12
183.06	183.23
183.279	128.95
183.499	73.65
183.719	250.04
183.938	797.31
184.158	106.88
184.377	-178.28
184.597	96.63
184.816	96.23
185.036	-20.07
185.256	593.33
185.475	213.67
185.695	232.37
185.914	265.1
186.134	367.91
186.353	261.86
186.572	280.43
186.792	506.52
187.011	-2658.23
187.231	-1008.01
187.45	-948.04
187.67	-49.65
187.889	-15.14
188.108	34.28
188.328	25.1
188.547	-107.6
188.766	-119.39
188.986	-109.46
189.205	4335.29
189.424	236.42
189.644	245.09
189.863	156.04
190.082	117.76
190.302	149.9
190.521	176.49
190.74	191.43
190.959	192.86
191.178	165.51
191.398	171.26
191.617	157.08
191.836	480.3
192.055	80.35
192.274	141.94
192.494	141.48
192.713	67.68
192.932	49.85
193.151	48.15
193.37	44.35
193.589	61.63
193.808	67.96
194.027	66.62
194.246	67.75
194.465	68.33
194.685	57.66
194.904	58.99
195.123	75.19
195.342	63.68
195.561	59.45
195.78	56.8
195.999	57.35
196.218	57.76
196.436	45.92
196.655	31.97
196.874	40.42
197.093	31.74
197.312	11.61
197.531	-4
197.75	54.6
197.969	66.2
198.188	117.52
198.407	68.63
198.625	125.24
198.844	33.95
199.063	-568.97
199.282	-63.5
199.501	-102.01
199.719	-284.16
199.938	-106.41
200.157	-277.01
200.376	-411.36
200.594	2445.83
200.813	1997.79
201.032	1418.58
201.251	1257.78
201.469	404.24
201.688	167.22
201.907	270.08
202.125	782.55
202.344	215.83
202.563	257.66
202.781	141.27
203	33.93
203.218	15.16
203.437	-41.7
203.656	-44.13
203.874	143.72
204.093	88.94
204.311	15.48
204.53	15.94
204.748	-0.17
204.967	16.74
205.185	19.76
205.404	13.63
205.622	46.02
205.841	97.13
206.059	152.97
206.278	63.02
206.496	116.6
206.715	164.65
206.933	132.37
207.151	102.72
207.37	54.04
207.588	18.18
207.806	101.36
208.025	67.41
208.243	-127.12
208.461	-352.25
208.68	-197.29
208.898	-85.51
209.116	-107.02
209.335	-95.21
209.553	-761.85
209.771	478.99
209.989	132.36
210.208	88.39
210.426	150.99
210.644	112.47
210.862	113.67
211.081	143.68
211.299	61.97
211.517	89.85
211.735	59.61
211.953	71.83
212.171	53.76
212.39	35.08
212.608	56.82
212.826	72.78
213.044	85.91
213.262	69.07
213.48	35.22
213.698	76.59
213.916	83.76
214.134	82.95
214.352	139.26
214.57	129.72
214.788	603.78
215.006	422.75
215.224	243.98
215.442	531.54
215.66	199.78
215.878	242.71
216.096	176.27
216.314	267.54
216.532	254.45
216.75	656.88
216.968	-5.7
217.185	230.58
217.403	857.76
217.621	354.22
217.839	-110.94
218.057	-28
218.275	31.05
218.492	27.94
218.71	-0.75
218.928	-22.55
219.146	-52.58
219.363	4.45
219.581	-23.96
219.799	-13.79
220.017	-34.98
220.234	-11.56
220.452	-4.06
220.67	-12.61
220.887	9.33
221.105	46.59
221.323	48.18
221.54	54.79
221.758	62.21
221.976	57.13
222.193	56.59
222.411	53.02
222.629	33.79
222.846	32.75
223.064	36.07
223.281	23.97
223.499	9.4
223.716	26.72
223.934	15.93
224.151	6.76
224.369	20.42
224.586	11.01
224.804	20.05
225.021	36.26
225.239	37.78
225.456	21.22
225.674	34.79
225.891	47.84
226.108	53.74
226.326	36.01
226.543	35.74
226.76	21.68
226.978	23.41
227.195	27.11
227.413	16.94
227.63	6.42
227.847	12.01
228.064	11.53
228.282	9.46
228.499	7.92
228.716	13.77
228.934	12.42
229.151	12.83
229.368	10.99
229.585	10.74
229.802	9.99
230.02	10.4
230.237	11.86
230.454	9.76
230.671	6.12
230.888	4.97
231.105	1.3
231.323	6.44
231.54	3.67
231.757	5.62
231.974	5.85
232.191	7.95
232.408	10.53
232.625	11.13
232.842	13.05
233.059	20.75
233.276	22.86
233.493	24.85
233.71	21.02
233.927	25.02
234.144	26.71
234.361	20.89
234.578	21.55
234.795	20.66
235.012	19.21
235.229	14.21
235.446	12.32
235.663	8.16
235.879	10.37
236.096	4.27
236.313	1.04
236.53	0.58
236.747	0.68
236.964	2.14
237.181	2.34
237.397	-2.48
237.614	2.13
237.831	4.49
238.048	9.1
238.264	6.82
238.481	9.94
238.698	11.91
238.915	15.41
239.131	14.31
239.348	12.9
239.565	16.36
239.781	20.15
239.998	22.86
240.215	19.03
240.431	16.29
240.648	15.93
240.865	15.93
241.081	16.12
241.298	14.36
241.514	16.56
241.731	16.01
241.947	14.41
242.164	13.08
242.38	12.41
242.597	12.53
242.814	12.99
243.03	12.89
243.246	14.74
243.463	14
243.679	12.57
243.896	11.55
244.112	10.26
244.329	9.5
244.545	10.64
244.762	9.67
244.978	10.34
245.194	10.94
245.411	11.24
245.627	8.76
245.843	8.6
246.06	10.55
246.276	10.73
246.492	11.24
246.709	12.09
246.925	11.74
247.141	11.3
247.357	11.4
247.574	10.92
247.79	11.21
248.006	11.37
248.222	10.94
248.439	10.82
248.655	10.61
248.871	10.33
249.087	9.17
249.303	8.57
249.519	9.12
249.736	7.87
249.952	7.42
250.168	5.24
250.384	4.67
250.6	6.78
250.816	6.39
251.032	6.45
251.248	8.39
251.464	9.9
251.68	10.58
251.896	10.7
252.112	10.63
252.328	11.47
252.544	11.91
252.76	11.7
252.976	11.73
253.192	11.09
253.408	11.27
253.624	10.51
253.84	8.83
254.056	8
254.272	6.91
254.487	7.09
254.703	5.11
254.919	5.26
255.135	6.89
255.351	7.14
255.567	8.5
255.782	7.41
255.998	8.65
256.214	11.72
256.43	10.33
256.646	12.36
256.861	13.21
257.077	14.26
257.293	15.19
257.508	14.99
257.724	13.53
257.94	13.84
258.155	14.16
258.371	13.71
258.587	12.03
258.802	11.47
259.018	11.15
259.234	11.19
259.449	10.94
259.665	9.83
259.88	9.24
260.096	8.81
260.312	7.76
260.527	7.54
260.743	7.42
260.958	7.26
261.174	7.65
261.389	7.04
261.605	6.83
261.82	6.21
262.036	6.34
262.251	5.78
262.466	5.99
262.682	6.88
262.897	7.65
263.113	6.69
263.328	8.21
263.543	8.17
263.759	7.24
263.974	7.52
264.189	8.78
264.405	8.82
264.62	10.51
264.835	11.31
265.051	11.25
265.266	10.41
265.481	12.27
265.696	10.08
265.912	9.41
266.127	11.1
266.342	10.46
266.557	10.6
266.773	10.82
266.988	9.32
267.203	7.95
267.418	7.76
267.633	7.84
267.848	6.16
268.064	7.55
268.279	7.3
268.494	6.76
268.709	6.56
268.924	5.69
269.139	6.24
269.354	6
269.569	5.73
269.784	5.8
269.999	5.41
270.214	6.61
270.429	6.2
270.644	6.31
270.859	6.14
271.074	4.73
271.289	5.93
271.504	5.98
271.719	6.4
271.934	7.18
272.149	7.11
272.363	7.92
272.578	8.09
272.793	8.41
273.008	8.42
273.223	8.75
273.438	10.3
273.653	8.78
273.867	8.44
274.082	8.23
274.297	9.1
274.512	8.76
274.726	8.67
274.941	7.06
275.156	5.74
275.371	5.81
275.585	5.72
275.8	4.76
276.015	5.94
276.229	6.08
276.444	6.93
276.659	5.29
276.873	6.05
277.088	6.93
277.302	7.72
277.517	8.82
277.732	9.62
277.946	9.59
278.161	9.58
278.375	9.47
278.59	8.87
278.804	8.64
279.019	9.25
279.233	9.31
279.448	8.31
279.662	9.13
279.877	7.76
280.091	7.54
280.306	7.31
280.52	7.23
280.735	7.92
280.949	8.61
281.163	8.36
281.378	8.98
281.592	9.06
281.806	9.4
282.021	9.83
282.235	9.7
282.449	9.49
282.664	9.82
282.878	9.84
283.092	8.81
283.307	9.01
283.521	8.79
283.735	7.96
283.949	7.23
284.164	6.59
284.378	5.53
284.592	5.43
284.806	5.04
285.02	5.25
285.234	5.79
285.449	6.09
285.663	5.95
285.877	7.03
286.091	7.61
286.305	8.01
286.519	8.15
286.733	8.68
286.947	10.07
287.161	9.8
287.375	9.79
287.589	9.03
287.803	8.18
288.017	8.52
288.231	7.83
288.445	7.52
288.659	7.74
288.873	6.84
289.087	5.91
289.301	5.69
289.515	5.81
289.729	5.57
289.943	5.76
290.157	7.39
290.371	7.62
290.584	7.35
290.798	7.12
291.012	7.22
291.226	7.76
291.44	8.97
291.654	8.84
291.867	10.17
292.081	10.02
292.295	11.33
292.509	10.86
292.722	10.81
292.936	10.22
293.15	10.33
293.364	10.78
293.577	11.79
293.791	11.28
294.005	10.89
294.218	9.93
294.432	10.1
294.645	9.77
294.859	9.95
295.073	9.03
295.286	9.55
295.5	9.66
295.713	9.43
295.927	8.62
296.14	8.53
296.354	8.35
296.568	9.34
296.781	9.03
296.994	9.25
297.208	8.47
297.421	9.37
297.635	10.29
297.848	10.21
298.062	10.58
298.275	11.03
298.489	11.39
298.702	12.54
298.915	12.4
299.129	12.67
299.342	12.49
299.555	13.13
299.769	12.82
299.982	12.3
300.195	12.81
300.409	12.2
300.622	11.4
300.835	11.15
301.048	10.51
301.262	10
301.475	10.16
301.688	10.19
301.901	10.29
302.115	10.09
302.328	10.15
302.541	9.66
302.754	10.57
302.967	12.43
303.18	12.01
303.393	11.68
303.607	12
303.82	11.91
304.033	11.46
304.246	12.34
304.459	12.69
304.672	12.96
304.885	13.61
305.098	12.69
305.311	11.42
305.524	11.85
305.737	11.79
305.95	12.24
306.163	11.69
306.376	12.39
306.589	12.46
306.802	11.37
307.015	10.05
307.228	10.13
307.44	10.49
307.653	10.9
307.866	11.61
308.079	12.49
308.292	12.32
308.505	13.22
308.718	12.35
308.93	11.36
309.143	12.12
309.356	12.28
309.569	12.17
309.781	11.84
309.994	11.32
310.207	10.42
310.42	10.47
310.632	10.08
310.845	10.37
311.058	11.34
311.27	11.62
311.483	11.52
311.696	11.96
311.908	12.23
312.121	12.45
312.333	12.28
312.546	12.66
312.759	11.98
312.971	12.16
313.184	11.62
313.396	10.87
313.609	10.84
313.821	11.19
314.034	11.78
314.246	10.76
314.459	11.42
314.671	12.22
314.884	12.9
315.096	13.58
315.309	13.45
315.521	13.19
315.733	12.66
315.946	12.84
316.158	13.06
316.371	11.78
316.583	12.73
316.795	11.46
317.008	10.44
317.22	9.35
317.432	9.04
317.644	9.94
317.857	9.2
318.069	9.29
318.281	9.09
318.494	9.86
318.706	10.58
318.918	9.7
319.13	10.95
319.342	11.34
319.555	11.82
319.767	12.43
319.979	11.6
320.191	13.71
320.403	14.93
320.615	15.06
320.827	14.42
321.039	13.7
321.252	13.85
321.464	13.13
321.676	13.53
321.888	12.98
322.1	12.57
322.312	12.99
322.524	13.47
322.736	13.03
322.948	13.62
323.16	13.12
323.372	13.55
323.584	13.5
323.796	12.93
324.007	13.38
324.219	14.3
324.431	13.84
324.643	13.92
324.855	13.09
325.067	13.39
325.279	13.2
325.491	14.19
325.702	15.04
325.914	14.72
326.126	16.76
326.338	17.44
326.55	17.6
326.761	18.09
326.973	18.63
327.185	18.89
327.396	18.42
327.608	19.07
327.82	18.45
328.032	18.5
328.243	20.71
328.455	20.17
328.666	19.47
328.878	19.8
329.09	20.49
329.301	21.32
329.513	22.31
329.725	23.61
329.936	23.74
330.148	24.85
330.359	25.75
330.571	25.23
330.782	24.66
330.994	25.38
331.205	25.67
331.417	26.05
331.628	25.82
331.84	25.26
332.051	25.9
332.262	26.41
332.474	26.69
332.685	27.19
332.897	27.43
333.108	27.94
333.319	28.9
333.531	29.13
333.742	29.5
333.953	30.08
334.165	30.85
334.376	30.41
334.587	30.21
334.799	30.24
335.01	29.85
335.221	30.87
335.432	31.75
335.644	31.54
335.855	31.11
336.066	30.7
336.277	30.15
336.488	29.88
336.7	29.58
336.911	28.54
337.122	28.8
337.333	29.42
337.544	28.58
337.755	28.18
337.966	27.7
338.177	28.1
338.388	28.44
338.599	28.6
338.811	28.83
339.022	29.35
339.233	29.99
339.444	30.86
339.655	30.62
339.866	31.22
340.076	31.03
340.287	31.35
340.498	31.25
340.709	31.3
340.92	31.04
341.131	31.37
341.342	31.71
341.553	32.7
341.764	31.46
341.975	31.32
342.185	31.2
342.396	31.49
342.607	31.57
342.818	30.92
343.029	31.19
343.239	30.87
343.45	30.21
343.661	30.05
343.872	29.52
344.082	29.59
344.293	29.37
344.504	29.01
344.714	29.29
344.925	29.55
345.136	30.13
345.346	29.22
345.557	29.66
345.768	30.36
345.978	30.29
346.189	30.08
346.399	30.53
346.61	30.27
346.821	30.38
347.031	30.19
347.242	30.44
347.452	30.89
347.663	31.19
347.873	31.8
348.084	31.33
348.294	31.39
348.504	31.95
348.715	32.2
348.925	32.66
349.136	32.7
349.346	32.2
349.557	32.16
349.767	31.77
349.977	32.17
350.188	31.35
350.398	30.72
350.608	30.62
350.819	30.54
351.029	30.08
351.239	30.48
351.449	29.94
351.66	30.25
351.87	29.75
352.08	29.48
352.29	29.55
352.501	29.53
352.711	30.17
352.921	30.55
353.131	29.93
353.341	29.51
353.552	28.79
353.762	28.85
353.972	29.29
354.182	29.64
354.392	30.25
354.602	29.77
354.812	29.72
355.022	29.2
355.232	29.06
355.442	29.8
355.652	29.55
355.862	28.99
356.072	29.2
356.282	29.25
356.492	28.71
356.702	29.06
356.912	29.07
357.122	29.35
357.332	29.47
357.542	29.61
357.752	28.8
357.962	29.1
358.171	29.53
358.381	29.61
358.591	29.12
358.801	29.28
359.011	29.18
359.221	29.48
359.43	29.13
359.64	29.23
359.85	28.99
360.06	29.31
360.269	29.5
360.479	29.83
360.689	29.83
360.899	29.88
361.108	30.1
361.318	29.47
361.528	29.24
361.737	29.66
361.947	29.44
362.156	29.19
362.366	29.04
362.576	29.01
362.785	28.72
362.995	28.58
363.204	28.33
363.414	28.04
363.623	28.06
363.833	28.4
364.042	28.24
364.252	28.64
364.461	28.19
364.671	28.02
364.88	28.07
365.09	28.25
365.299	27.96
365.509	28.64
365.718	28.31
365.927	28.64
366.137	28.12
366.346	28
366.555	27.78
366.765	28.26
366.974	28.7
367.183	28.56
367.393	27.9
367.602	28.19
367.811	28.07
368.021	28.58
368.23	27.82
368.439	27.84
368.648	27.47
368.857	27.54
369.067	27.3
369.276	27.82
369.485	27.58
369.694	27.6
369.903	27.55
370.112	26.81
370.321	26.23
370.531	26.16
370.74	25.69
370.949	25.83
371.158	25.88
371.367	26.15
371.576	24.97
371.785	25.14
371.994	24.91
372.203	24.78
372.412	25.34
372.621	25.47
372.83	25.54
373.039	26.07
373.248	26.12
373.457	25.77
373.666	25.61
373.874	25.68
374.083	25.42
374.292	26.03
374.501	25.92
374.71	25.68
374.919	25.59
375.128	25.8
375.336	24.98
375.545	24.83
375.754	24.8
375.963	24.57
376.171	24.52
376.38	24.7
376.589	24.25
376.798	23.94
377.006	23.32
377.215	23.28
377.424	22.53
377.632	22.96
377.841	22.93
378.05	23.27
378.258	23.34
378.467	23.39
378.675	23.09
378.884	23.51
379.093	23.76
379.301	24.06
379.51	24.13
379.718	24.74
379.927	24.91
380.135	24.84
380.344	24.32
380.552	24.38
380.761	24.58
380.969	24.52
381.177	24.16
381.386	23.78
381.594	23.76
381.803	23.12
382.011	23.05
382.219	22.97
382.428	22.72
382.636	22.69
382.845	22.45
383.053	21.9
383.261	21.41
383.469	21.6
383.678	21.7
383.886	21.68
384.094	22.35
384.302	22.37
384.511	21.78
384.719	21.77
384.927	21.46
385.135	21.36
385.343	21.42
385.552	21.51
385.76	20.84
385.968	20.7
386.176	20.61
386.384	20.09
386.592	20.06
386.8	20.21
387.008	19.75
387.216	20.09
387.424	19.9
387.633	20.09
387.841	20.18
388.049	20.4
388.257	20.28
388.465	19.97
388.672	19.97
388.88	19.72
389.088	19.64
389.296	19.97
389.504	19.75
389.712	19.79
389.92	19.6
390.128	19.46
390.336	19.34
390.544	19.44
390.751	19.44
390.959	19.31
391.167	19.3
391.375	19.33
391.583	19.09
391.79	18.9
391.998	18.94
392.206	18.79
392.414	18.77
392.621	18.69
392.829	18.61
393.037	18.68
393.244	18.9
393.452	18.87
393.66	18.72
393.867	18.92
394.075	19.17
394.283	18.85
394.49	18.97
394.698	18.84
394.905	18.64
395.113	18.52
395.32	18.59
395.528	18.4
395.735	18.5
395.943	18.51
396.15	18.37
396.358	18.02
396.565	18.37
396.773	18.18
396.98	18.32
397.188	18.54
397.395	18.4
397.602	18.15
397.81	17.91
398.017	17.59
398.225	17.59
398.432	17.5
398.639	17.39
398.847	17.14
399.054	16.92
399.261	16.53
399.468	16.62
399.676	16.74
399.883	16.64
400.09	16.78
400.297	16.94
400.505	17.05
400.712	16.98
400.919	17.07
401.126	17.09
401.333	17.31
401.54	17.59
401.748	17.62
401.955	17.56
402.162	17.71
402.369	17.61
402.576	17.38
402.783	17.53
402.99	17.5
403.197	17.42
403.404	17.29
403.611	17.22
403.818	17.09
404.025	16.85
404.232	16.75
404.439	16.85
404.646	16.81
404.853	16.86
405.06	16.31
405.267	16.49
405.474	16.61
405.681	16.37
405.887	16.47
406.094	16.54
406.301	16.77
406.508	16.88
406.715	16.49
406.922	16.25
407.128	15.95
407.335	16.19
407.542	15.99
407.749	15.92
407.955	16.02
408.162	15.96
408.369	15.89
408.575	15.56
408.782	15.32
408.989	15.27
409.195	15.39
409.402	15.52
409.609	15.37
409.815	15.23
410.022	15.14
410.228	15.35
410.435	15.24
410.642	14.99
410.848	14.88
411.055	15.01
411.261	15.13
411.468	15.21
411.674	15.24
411.881	15.51
412.087	15.44
412.294	15.21
412.5	15.08
412.706	14.85
412.913	15.23
413.119	15.18
413.326	15.08
413.532	15.06
413.738	14.78
413.945	14.69
414.151	14.65
414.357	14.7
414.564	14.91
414.77	14.56
414.976	14.64
415.182	14.48
415.389	14.45
415.595	14.37
415.801	14.36
416.007	14.48
416.214	14.47
416.42	14.32
416.626	14.21
416.832	14.3
417.038	14.54
417.244	14.43
417.45	14.49
417.657	14.68
417.863	14.81
418.069	14.71
418.275	14.74
418.481	14.79
418.687	14.77
418.893	14.91
419.099	14.85
419.305	14.86
419.511	14.99
419.717	14.92
419.923	14.8
420.129	14.59
420.335	14.52
420.541	14.44
420.746	14.37
420.952	14.31
421.158	14.28
421.364	14.19
421.57	13.98
421.776	13.88
421.982	13.75
422.187	13.77
422.393	13.75
422.599	13.82
422.805	13.76
423.01	13.62
423.216	13.53
423.422	13.36
423.628	13.28
423.833	13.32
424.039	13.25
424.245	13.2
424.45	13.19
424.656	13.29
424.862	13.25
425.067	13.12
425.273	13.23
425.478	13.28
425.684	13.33
425.889	13.46
426.095	13.55
426.301	13.51
426.506	13.68
426.712	13.55
426.917	13.55
427.123	13.52
427.328	13.64
427.533	13.7
427.739	13.88
427.944	13.81
428.15	13.63
428.355	13.32
428.561	13.38
428.766	13.2
428.971	13.22
429.177	13.19
429.382	13.26
429.587	13.45
429.793	13.42
429.998	13.09
430.203	13.11
430.408	13.14
430.614	13.47
430.819	13.29
431.024	13.26
431.229	13.09
431.434	12.89
431.64	12.65
431.845	12.54
432.05	12.48
432.255	12.42
432.46	12.38
432.665	12.48
432.87	12.44
433.076	12.58
433.281	12.66
433.486	12.86
433.691	12.93
433.896	13.04
434.101	12.85
434.306	12.74
434.511	12.72
434.716	12.84
434.921	12.74
435.126	12.85
435.331	12.86
435.535	12.8
435.74	12.64
435.945	12.61
436.15	12.55
436.355	12.91
436.56	12.96
436.765	13.21
436.97	13.16
437.174	13.23
437.379	13.04
437.584	13.02
437.789	13.03
437.993	13.15
438.198	13.13
438.403	12.99
438.608	12.87
438.812	12.92
439.017	12.74
439.222	12.76
439.426	12.68
439.631	12.68
439.836	12.68
440.04	12.63
440.245	12.55
440.45	12.63
440.654	12.83
440.859	12.75
441.063	12.76
441.268	12.91
441.472	12.81
441.677	12.78
441.881	12.9
442.086	12.84
442.29	12.88
442.495	12.97
442.699	13.03
442.904	12.99
443.108	13.04
443.312	12.85
443.517	12.66
443.721	12.85
443.925	12.92
444.13	12.84
444.334	13
444.538	13.02
444.743	13.04
444.947	12.97
445.151	12.9
445.356	12.98
445.56	13.01
445.764	13.09
445.968	13.08
446.173	13.06
446.377	12.95
446.581	12.85
446.785	12.86
446.989	12.75
447.193	12.67
447.398	12.56
447.602	12.44
447.806	12.45
448.01	12.28
448.214	12.24
448.418	12.1
448.622	12.02
448.826	12.18
449.03	12.21
449.234	12.14
449.438	12.2
449.642	12.23
449.846	12.18
450.05	12.35
450.254	12.56
450.458	12.34
450.662	12.45
450.866	12.48
451.069	12.21
451.273	11.94
451.477	11.99
451.681	11.91
451.885	12.14
452.089	12.24
452.292	12.12
452.496	12.04
452.7	12.12
452.904	11.99
453.107	12.09
453.311	12.37
453.515	12.5
453.719	12.59
453.922	12.64
454.126	12.44
454.33	12.49
454.533	12.43
454.737	12.4
454.94	12.36
455.144	12.5
455.348	12.42
455.551	12.11
455.755	12.01
455.958	12.06
456.162	11.96
456.365	12
456.569	11.91
456.772	11.97
456.976	12.11
457.179	12.24
457.383	12.26
457.586	12.4
457.79	12.56
457.993	12.53
458.196	12.29
458.4	12.43
458.603	12.37
458.807	12.4
459.01	12.41
459.213	12.32
459.417	12.31
459.62	12.22
459.823	12.21
460.026	12.15
460.23	12.27
460.433	12.31
460.636	12.19
460.839	12.2
461.042	12.13
461.246	12.1
461.449	12
461.652	11.86
461.855	11.89
462.058	11.82
462.261	11.94
462.464	12.01
462.668	11.93
462.871	12.14
463.074	12.09
463.277	12.04
463.48	12.01
463.683	12.12
463.886	12.4
464.089	12.37
464.292	12.4
464.495	12.38
464.698	12.25
464.901	12.35
465.104	12.26
465.306	12.17
465.509	12.19
465.712	12.18
465.915	12.14
466.118	12.1
466.321	12.15
466.524	12.06
466.726	11.9
466.929	11.88
467.132	11.89
467.335	11.85
467.538	11.96
467.74	11.89
467.943	12.04
468.146	12.1
468.348	11.98
468.551	11.94
468.754	11.93
468.956	12.04
469.159	11.94
469.362	11.87
469.564	11.86
469.767	12.06
469.969	12.14
470.172	12.02
470.375	11.94
470.577	12.07
470.78	12.19
470.982	12.31
471.185	12.24
471.387	12.31
471.59	12.45
471.792	12.42
471.995	12.33
472.197	12.39
472.399	12.5
472.602	12.63
472.804	12.47
473.007	12.36
473.209	12.22
473.411	12.24
473.614	12.29
473.816	12.32
474.018	12.47
474.22	12.43
474.423	12.29
474.625	12.25
474.827	12.07
475.03	12.1
475.232	12.12
475.434	12.4
475.636	12.31
475.838	12.34
476.04	12.2
476.243	12.06
476.445	12.05
476.647	12.21
476.849	12.2
477.051	12.32
477.253	12.36
477.455	12.52
477.657	12.3
477.859	12.3
478.061	12.13
478.263	12.19
478.465	12.17
478.667	12.18
478.869	12.27
479.071	12.21
479.273	12.07
479.475	11.9
479.677	11.79
479.879	11.86
480.081	11.86
480.283	12.12
480.485	12.09
480.686	12.15
480.888	12.15
481.09	11.99
481.292	12.13
481.494	12.23
481.695	12.43
481.897	12.38
482.099	12.32
482.301	12.32
482.502	12.16
482.704	12.18
482.906	12.16
483.107	12.17
483.309	12.2
483.511	12.15
483.712	12.17
483.914	12.17
484.115	12.11
484.317	12.14
484.519	12.11
484.72	12.13
484.922	12.1
485.123	12.13
485.325	12.11
485.526	12.08
485.728	12.1
485.929	12.06
486.131	11.98
486.332	12.08
486.534	12.07
486.735	12.08
486.936	12.13
487.138	12.14
487.339	12.06
487.541	12.13
487.742	12.14
487.943	12.11
488.144	12.11
488.346	12.15
488.547	12.18
488.748	12.21
488.95	12.25
489.151	12.25
489.352	12.25
489.553	12.41
489.755	12.34
489.956	12.37
490.157	12.37
490.358	12.4
490.559	12.4
490.76	12.37
490.961	12.35
491.163	12.39
491.364	12.35
491.565	12.37
491.766	12.27
491.967	12.33
492.168	12.32
492.369	12.37
492.57	12.33
492.771	12.35
492.972	12.28
493.173	12.27
493.374	12.26
493.575	12.25
493.776	12.19
493.976	12.06
494.177	12.1
494.378	12.15
494.579	12.08
494.78	12.08
494.981	12.02
495.182	12.21
495.382	12.14
495.583	11.99
495.784	11.98
495.985	12.14
496.185	12.21
496.386	12.13
496.587	12.09
496.788	12.13
496.988	12.28
497.189	12.36
497.39	12.39
497.59	12.49
497.791	12.66
497.992	12.7
498.192	12.68
498.393	12.93
498.593	13.09
498.794	13.15
498.994	13.15
499.195	13.01
499.395	13
499.596	12.88
499.796	12.9
499.997	12.93
500.197	13.01
500.398	13.04
500.598	12.76
500.799	12.64
500.999	12.46
501.199	12.61
501.4	12.72
501.6	12.65
501.801	12.6
502.001	12.54
502.201	12.63
502.402	12.69
502.602	12.68
502.802	12.88
503.002	13.02
503.203	13.14
503.403	13.14
503.603	13.21
503.803	13.38
504.003	13.56
504.204	13.78
504.404	13.78
504.604	13.71
504.804	13.92
505.004	14
505.204	13.99
505.404	14.11
505.604	14.18
505.804	14.27
506.005	14.25
506.205	14.28
506.405	14.21
506.605	14.31
506.805	14.31
507.005	14.22
507.204	14.15
507.404	14.16
507.604	14.16
507.804	14.14
508.004	14.27
508.204	14.42
508.404	14.54
508.604	14.74
508.804	14.66
509.003	14.84
509.203	14.88
509.403	15.02
509.603	15.16
509.803	15.34
510.002	15.41
510.202	15.35
510.402	15.45
510.602	15.48
510.801	15.4
511.001	15.33
511.201	15.39
511.4	15.52
511.6	15.64
511.8	15.72
511.999	15.7
512.199	15.9
512.398	15.9
512.598	15.92
512.797	16.06
512.997	16.06
513.197	16.28
513.396	16.36
513.596	16.34
513.795	16.29
513.994	16.39
514.194	16.59
514.393	16.42
514.593	16.65
514.792	16.71
514.992	16.7
515.191	17.07
515.39	17.18
515.59	17.38
515.789	17.55
515.988	17.66
516.188	17.63
516.387	17.63
516.586	17.97
516.786	18
516.985	18.16
517.184	18.3
517.383	18.28
517.582	18.4
517.782	18.41
517.981	18.52
518.18	18.57
518.379	18.64
518.578	18.82
518.777	18.91
518.976	18.92
519.176	19.06
519.375	19.08
519.574	19.12
519.773	19.12
519.972	19.31
520.171	19.45
520.37	19.67
520.569	19.82
520.768	19.93
520.967	19.93
521.166	20.21
521.365	20.36
521.564	20.43
521.762	20.58
521.961	20.88
522.16	20.84
522.359	20.93
522.558	21.16
522.757	21.27
522.956	21.38
523.154	21.42
523.353	21.58
523.552	21.56
523.751	21.68
523.949	21.76
524.148	21.82
524.347	22.01
524.546	22.16
524.744	22.18
524.943	22.53
525.142	22.57
525.34	22.7
525.539	22.71
525.737	22.88
525.936	23.07
526.135	23.27
526.333	23.36
526.532	23.45
526.73	23.61
526.929	23.72
527.127	23.66
527.326	23.77
527.524	23.97
527.723	24.07
527.921	24.15
528.12	24.21
528.318	24.26
528.516	24.31
528.715	24.41
528.913	24.41
529.112	24.43
529.31	24.47
529.508	24.5
529.707	24.48
529.905	24.53
530.103	24.6
530.301	24.68
530.5	24.71
530.698	24.79
530.896	24.8
531.094	24.88
531.293	25.01
531.491	25.15
531.689	25.34
531.887	25.58
532.085	25.71
532.283	25.74
532.481	25.83
532.68	25.98
532.878	26.1
533.076	26.2
533.274	26.31
533.472	26.33
533.67	26.43
533.868	26.39
534.066	26.33
534.264	26.36
534.462	26.43
534.66	26.53
534.858	26.49
535.056	26.53
535.253	26.52
535.451	26.63
535.649	26.82
535.847	26.73
536.045	26.91
536.243	27.11
536.441	27.27
536.638	27.37
536.836	27.36
537.034	27.53
537.232	27.7
537.43	27.89
537.627	28
537.825	28.05
538.023	28.23
538.22	28.4
538.418	28.41
538.616	28.43
538.813	28.45
539.011	28.64
539.209	28.81
539.406	28.87
539.604	28.89
539.801	28.99
539.999	29.11
540.196	29.23
540.394	29.26
540.591	29.31
540.789	29.34
540.986	29.4
541.184	29.37
541.381	29.34
541.579	29.33
541.776	29.42
541.974	29.45
542.171	29.43
542.368	29.45
542.566	29.46
542.763	29.49
542.96	29.59
543.158	29.72
543.355	29.77
543.552	29.9
543.75	30.03
543.947	30.07
544.144	29.99
544.341	30.07
544.539	30.14
544.736	30.3
544.933	30.37
545.13	30.42
545.327	30.44
545.524	30.55
545.722	30.55
545.919	30.49
546.116	30.5
546.313	30.59
546.51	30.63
546.707	30.81
546.904	30.8
547.101	30.9
547.298	30.98
547.495	30.97
547.692	31.11
547.889	31.14
548.086	31.39
548.283	31.51
548.48	31.7
548.677	31.73
548.874	31.72
549.07	31.75
549.267	31.72
549.464	31.84
549.661	32.04
549.858	32.15
550.055	32.28
550.251	32.33
550.448	32.39
550.645	32.61
550.842	32.86
551.038	32.84
551.235	33.03
551.432	33.35
551.628	33.3
551.825	33.35
552.022	33.31
552.218	33.43
552.415	33.48
552.612	33.59
552.808	33.45
553.005	33.43
553.201	33.69
553.398	33.78
553.594	33.74
553.791	33.75
553.987	33.92
554.184	33.97
554.38	33.93
554.577	33.75
554.773	33.95
554.97	34.1
555.166	34.19
555.362	34.08
555.559	33.99
555.755	34.07
555.952	34.24
556.148	34.2
556.344	34.39
556.541	34.34
556.737	34.53
556.933	34.35
557.129	34.28
557.326	34.32
557.522	34.38
557.718	34.43
557.914	34.53
558.11	34.38
558.307	34.59
558.503	34.44
558.699	34.69
558.895	34.73
559.091	34.98
559.287	35.21
559.483	35.3
559.679	35.37
559.876	35.47
560.072	35.54
560.268	35.73
560.464	35.67
560.66	35.9
560.856	36.14
561.052	36.3
561.247	36.17
561.443	36.11
561.639	36.14
561.835	36.15
562.031	36.35
562.227	36.44
562.423	36.55
562.619	36.65
562.815	36.67
563.01	36.67
563.206	36.69
563.402	36.8
563.598	37
563.793	37.08
563.989	37.24
564.185	37.25
564.381	37.49
564.576	37.52
564.772	37.69
564.968	37.63
565.163	37.71
565.359	37.74
565.555	37.89
565.75	37.91
565.946	38.18
566.141	38.27
566.337	38.22
566.532	38.12
566.728	38.18
566.923	38.12
567.119	38.36
567.314	38.32
567.51	38.44
567.705	38.42
567.901	38.42
568.096	38.28
568.292	38.22
568.487	38.32
568.682	38.44
568.878	38.65
569.073	38.67
569.268	38.72
569.464	38.86
569.659	38.98
569.854	39.08
570.05	39
570.245	39.22
570.44	39.42
570.635	39.52
570.831	39.45
571.026	39.42
571.221	39.46
571.416	39.43
571.611	39.51
571.806	39.52
572.002	39.66
572.197	39.83
572.392	39.83
572.587	39.87
572.782	39.83
572.977	39.96
573.172	40.13
573.367	40.16
573.562	40.3
573.757	40.32
573.952	40.34
574.147	40.38
574.342	40.62
574.537	40.65
574.732	40.56
574.927	40.76
575.121	40.83
575.316	40.81
575.511	40.75
575.706	40.77
575.901	40.85
576.096	40.93
576.29	40.85
576.485	40.66
576.68	40.58
576.875	40.77
577.069	40.8
577.264	40.74
577.459	40.83
577.654	40.99
577.848	41.01
578.043	41.19
578.238	41.08
578.432	41.25
578.627	41.34
578.821	41.62
579.016	41.55
579.21	41.51
579.405	41.85
579.6	41.66
579.794	41.94
579.989	42.03
580.183	41.83
580.378	41.98
580.572	42.03
580.766	42.18
580.961	41.81
581.155	42.01
581.35	42.04
581.544	41.82
581.738	41.9
581.933	41.73
582.127	41.66
582.321	41.77
582.516	42.14
582.71	42.15
582.904	42.26
583.099	42.52
583.293	42.42
583.487	42.31
583.681	42.57
583.875	42.69
584.07	42.89
584.264	42.99
584.458	43.06
584.652	42.72
584.846	42.8
585.04	42.67
585.234	43.03
585.428	42.93
585.623	43.11
585.817	42.86
586.011	42.87
586.205	42.87
586.399	43.04
586.593	42.94
586.787	43.16
586.981	43.04
587.174	43.05
587.368	42.96
587.562	43.3
587.756	43.56
587.95	43.73
588.144	43.96
588.338	43.86
588.532	43.69
588.725	43.77
588.919	43.71
589.113	44.05
589.307	44.16
589.501	44.25
589.694	44.19
589.888	44.38
590.082	44.36
590.275	44.12
590.469	44.24
590.663	44.3
590.856	44.2
591.05	44.33
591.244	44.4
591.437	44.3
591.631	44.24
591.824	44.16
592.018	43.83
592.212	43.7
592.405	44.09
592.599	44.05
592.792	44.38
592.986	44.52
593.179	44.56
593.372	44.48
593.566	44.65
593.759	44.51
593.953	44.57
594.146	44.73
594.339	45.13
594.533	44.9
594.726	45.05
594.92	44.72
595.113	44.85
595.306	44.93
595.499	44.9
595.693	45.04
595.886	45.36
596.079	45.66
596.272	45.55
596.466	45.53
596.659	45.48
596.852	45.51
597.045	45.88
597.238	46.04
597.431	45.94
597.624	45.94
597.818	45.97
598.011	45.99
598.204	45.8
598.397	46.1
598.59	45.81
598.783	45.91
598.976	45.85
599.169	45.69
599.362	45.51
599.555	45.57
599.748	45.68
599.941	45.42
600.134	45.4
600.326	45.5
600.519	45.31
600.712	45.39
600.905	45.67
601.098	45.86
601.291	45.71
601.483	45.8
601.676	45.84
601.869	45.67
602.062	45.76
602.255	45.8
602.447	45.88
602.64	45.99
602.833	46.07
603.025	45.95
603.218	45.74
603.411	45.71
603.603	45.66
603.796	45.79
603.989	45.84
604.181	46
604.374	46.06
604.566	46.09
604.759	45.93
604.951	46.05
605.144	46.06
605.336	46.09
605.529	46.34
605.721	46.39
605.914	46.17
606.106	46.38
606.299	46.37
606.491	46.23
606.683	45.99
606.876	46.2
607.068	46.04
607.26	45.93
607.453	46.06
607.645	46
607.837	46.05
608.03	46.21
608.222	46.1
608.414	46.08
608.606	46.18
608.799	46.45
608.991	46.62
609.183	46.96
609.375	47.08
609.567	47.19
609.759	47.13
609.952	47.22
610.144	47.41
610.336	47.52
610.528	47.49
610.72	47.48
610.912	47.47
611.104	47.28
611.296	47.15
611.488	47.25
611.68	47.05
611.872	47.11
612.064	47.12
612.256	46.82
612.448	46.66
612.64	47.01
612.832	47.23
613.023	47.25
613.215	47.11
613.407	47.27
613.599	47.19
613.791	47.48
613.983	47.41
614.174	47.07
614.366	47.08
614.558	47.14
614.75	46.81
614.941	46.69
615.133	46.8
615.325	46.88
615.516	46.91
615.708	46.8
615.9	46.63
616.091	46.63
616.283	46.92
616.475	47.32
616.666	47.41
616.858	47.62
617.049	47.72
617.241	47.6
617.432	47.78
617.624	47.88
617.815	48.24
618.007	48.18
618.198	48.25
618.39	48.4
618.581	48.27
618.773	48.3
618.964	48.36
619.155	48.13
619.347	48.03
619.538	48.14
619.729	48.1
619.921	48.18
620.112	48.51
620.303	48.48
620.494	48.3
620.686	48.35
620.877	48.29
621.068	48.1
621.259	48.33
621.451	48.42
621.642	48.27
621.833	48.17
622.024	48.03
622.215	47.82
622.406	47.9
622.597	47.65
622.788	47.55
622.98	47.18
623.171	47.42
623.362	47.28
623.553	47.26
623.744	47.51
623.935	47.54
624.126	47.7
624.317	47.63
624.508	47.65
624.698	48.29
624.889	48.41
625.08	48.72
625.271	48.75
625.462	48.77
625.653	48.84
625.844	48.6
626.034	48.61
626.225	48.48
626.416	48.83
626.607	48.86
626.798	48.55
626.988	48.4
627.179	48.55
627.37	48.39
627.56	48.34
627.751	48.38
627.942	48.48
628.132	48.21
628.323	47.93
628.514	47.67
628.704	47.96
628.895	48.07
629.085	48.07
629.276	48.09
629.466	47.93
629.657	48.06
629.847	48.06
630.038	48.14
630.228	48.41
630.419	48.58
630.609	48.88
630.8	48.7
630.99	48.86
631.181	49.05
631.371	48.85
631.561	48.9
631.752	48.7
631.942	48.83
632.132	48.7
632.323	48.52
632.513	48.62
632.703	48.44
632.893	48.21
633.084	48.14
633.274	48.33
633.464	48.54
633.654	48.77
633.844	48.72
634.034	48.37
634.225	48.29
634.415	48.51
634.605	48.21
634.795	48.37
634.985	48.36
635.175	48.15
635.365	48.09
635.555	47.97
635.745	47.73
635.935	48.04
636.125	48.4
636.315	48.59
636.505	48.82
636.695	49.2
636.885	48.91
637.075	49.11
637.265	49.36
637.455	49.1
637.644	49.27
637.834	49.28
638.024	49.04
638.214	49.17
638.404	49.13
638.593	49.06
638.783	49.08
638.973	49.21
639.163	49.21
639.352	49.14
639.542	49.54
639.732	49.57
639.921	49.8
640.111	50.18
640.301	49.73
640.49	49.91
640.68	49.4
640.87	49.42
641.059	49.62
641.249	49.93
641.438	49.5
641.628	49.34
641.817	49.14
642.007	49.33
642.196	49.1
642.386	49.49
642.575	49.7
642.764	50.42
642.954	50.37
643.143	50.49
643.333	50.33
643.522	50.52
643.711	50.18
643.901	50.13
644.09	49.85
644.279	50.1
644.469	49.84
644.658	49.57
644.847	49.09
645.036	49.17
645.226	49.1
645.415	48.36
645.604	48.48
645.793	48.74
645.982	48.71
646.171	48.85
646.361	49.02
646.55	48.99
646.739	49.12
646.928	49.29
647.117	49.6
647.306	49.48
647.495	50.02
647.684	50.22
647.873	50.41
648.062	50.79
648.251	50.81
648.44	50.45
648.629	50.52
648.818	50.4
649.007	50.44
649.196	50.12
649.384	50.24
649.573	50.03
649.762	49.89
649.951	49.76
650.14	49.45
650.328	49.25
650.517	49.18
650.706	49.42
650.895	49.28
651.083	48.86
651.272	48.35
651.461	48.3
651.65	48.7
651.838	48.6
652.027	48.6
652.216	48.74
652.404	48.57
652.593	48.51
652.781	48.3
652.97	48.04
653.158	48.16
653.347	48.86
653.535	48.5
653.724	48.34
653.912	48.48
654.101	48.61
654.289	48.27
654.478	48.43
654.666	48.51
654.855	48.41
655.043	48.77
655.231	49.01
655.42	48.91
655.608	49.07
655.796	49.01
655.985	49.22
656.173	49.3
656.361	49.73
656.55	49.86
656.738	49.84
656.926	49.82
657.114	49.85
657.302	49.74
657.491	49.56
657.679	49.8
657.867	50
658.055	49.95
658.243	49.81
658.431	49.72
658.619	50
658.807	50.02
658.996	50.42
659.184	50.27
659.372	50.31
659.56	50.4
659.748	50.37
659.936	50.31
660.124	50.47
660.311	50.44
660.499	50.54
660.687	50.46
660.875	50.69
661.063	50.37
661.251	50.45
661.439	50.65
661.627	50.96
661.814	50.82
662.002	50.66
662.19	50.71
662.378	50.6
662.565	50.49
662.753	50.5
662.941	50.6
663.129	50.4
663.316	50.45
663.504	49.99
663.692	49.55
663.879	49.7
664.067	49.88
664.254	49.48
664.442	49.68
664.63	49.51
664.817	49.33
665.005	49.09
665.192	49.93
665.38	49.66
665.567	50.58
665.755	50.57
665.942	50.8
666.13	50.91
666.317	51.19
666.504	50.92
666.692	50.86
666.879	50.8
667.067	51.12
667.254	50.83
667.441	51.1
667.629	50.38
667.816	50.56
668.003	49.98
668.19	50.13
668.378	49.83
668.565	50.06
668.752	50.62
668.939	50.52
669.127	50.15
669.314	50.49
669.501	50.29
669.688	50.24
669.875	50.17
670.062	50.61
670.249	50.08
670.436	49.89
670.623	50.17
670.81	49.96
670.997	49.97
671.184	49.92
671.371	49.81
671.558	50.33
671.745	50.5
671.932	50.7
672.119	50.44
672.306	51.02
672.493	51.41
672.68	51.18
672.867	51.05
673.054	51.61
673.24	51.86
673.427	51.72
673.614	51.31
673.801	51.46
673.988	51.2
674.174	51.59
674.361	51.66
674.548	51.61
674.734	51.34
674.921	51.95
675.108	51.72
675.294	51.58
675.481	51.61
675.668	51.89
675.854	52.08
676.041	52.1
676.227	52.15
676.414	52.14
676.601	52.02
676.787	52.41
676.974	51.76
677.16	51.58
677.347	51.6
677.533	51.67
677.719	51.43
677.906	51.09
678.092	51.07
678.279	50.8
678.465	50.41
678.651	50.58
678.838	50.4
679.024	50.65
679.21	50.61
679.397	50.72
679.583	50.41
679.769	50.15
679.955	50.15
680.142	50.53
680.328	50.67
680.514	50.52
680.7	50.23
680.886	50.33
681.073	50.37
681.259	50.35
681.445	50.11
681.631	50.08
681.817	50.63
682.003	50.83
682.189	50.51
682.375	50.16
682.561	50.66
682.747	50.94
682.933	50.95
683.119	50.91
683.305	51.44
683.491	51.68
683.677	52.04
683.863	51.95
684.049	51.89
684.235	51.81
684.42	52
684.606	52.12
684.792	52.4
684.978	52.34
685.164	52.19
685.349	52.2
685.535	52.27
685.721	52.14
685.907	51.8
686.092	51.81
686.278	51.82
686.464	52.06
686.649	51.73
686.835	51.54
687.021	51.44
687.206	51.62
687.392	51.13
687.577	51.05
687.763	51.01
687.948	51.24
688.134	51.2
688.319	51.22
688.505	51.29
688.69	51.51
688.876	51.31
689.061	51.05
689.247	50.88
689.432	50.91
689.618	50.92
689.803	50.67
689.988	50.43
690.174	50.07
690.359	50.1
690.544	49.91
690.73	49.82
690.915	50.08
691.1	50.23
691.285	50.47
691.471	50.86
691.656	50.85
691.841	51
692.026	51.21
692.211	51.31
692.396	51.11
692.582	50.93
692.767	50.73
692.952	50.57
693.137	51.04
693.322	50.63
693.507	50.43
693.692	50.56
693.877	50.32
694.062	50.59
694.247	50.55
694.432	51.27
694.617	51.62
694.802	52.22
694.987	52.12
695.172	51.91
695.357	52.08
695.541	51.65
695.726	51.65
695.911	52.17
696.096	51.85
696.281	52.33
696.466	51.84
696.65	51.71
696.835	51.41
697.02	51.45
697.204	51.22
697.389	51.36
697.574	51.6
697.759	51.29
697.943	51.24
698.128	51.26
698.312	51.11
698.497	51.34
698.682	51.37
698.866	51.51
699.051	51.72
699.235	51.76
699.42	51.77
699.604	51.75
699.789	51.79
699.973	51.66
700.158	51.58
700.342	51.6
700.527	51.38
700.711	51.1
700.895	50.67
701.08	50.51
701.264	50.65
701.448	50.42
701.633	50.45
701.817	50.7
702.001	50.82
702.186	51.05
702.37	51.08
702.554	51.24
702.738	51.51
702.923	51.71
703.107	51.79
703.291	51.5
703.475	51.34
703.659	51.81
703.843	52.01
704.027	51.75
704.212	51.71
704.396	51.57
704.58	51.62
704.764	51.35
704.948	51.34
705.132	51.28
705.316	51.15
705.5	51.89
705.684	51.5
705.868	51.03
706.052	50.74
706.235	51.4
706.419	51.53
706.603	51.85
706.787	52.17
706.971	52.29
707.155	52.28
707.339	52.71
707.522	52.13
707.706	52.07
707.89	52.29
708.074	53.13
708.257	51.94
708.441	51.82
708.625	51.4
708.808	51.39
708.992	51.28
709.176	51.3
709.359	51.42
709.543	51.46
709.727	50.9
709.91	50.92
710.094	50.39
710.277	51.28
710.461	50.93
710.644	50.98
710.828	50.94
711.011	51.18
711.195	51.16
711.378	51.08
711.562	51.19
711.745	51.38
711.928	51.03
712.112	50.99
712.295	50.62
712.478	50.45
712.662	50.76
712.845	51.04
713.028	50.36
713.212	50.21
713.395	50.43
713.578	50.6
713.761	50.9
713.945	51.08
714.128	51.45
714.311	51.93
714.494	52.41
714.677	51.7
714.86	52.08
715.043	52.53
715.227	52.46
715.41	52.49
715.593	52.88
715.776	52.94
715.959	53.31
716.142	53.21
716.325	52.79
716.508	52.58
716.691	53.34
716.874	52.81
717.057	52.82
717.239	52.96
717.422	52.01
717.605	51.78
717.788	51.8
717.971	51.87
718.154	52.37
718.337	52.05
718.519	52.21
718.702	51.91
718.885	51.49
719.068	51.63
719.25	52.01
719.433	53.71
719.616	53.2
719.798	53.09
719.981	53.15
720.164	52.56
720.346	52.8
720.529	52.43
720.712	52.16
720.894	52.45
721.077	52.56
721.259	52.56
721.442	52.23
721.624	52.76
721.807	52.75
721.989	52.36
722.172	52.45
722.354	52.47
722.537	53.44
722.719	53.73
722.901	54.83
723.084	54.47
723.266	54.45
723.448	53.69
723.631	54.65
723.813	54.72
723.995	54.51
724.178	54.08
724.36	54.49
724.542	53.93
724.724	53.84
724.907	53.55
725.089	53.15
725.271	53.79
725.453	54.14
725.635	52.72
725.817	53.82
725.999	54.01
726.181	55.1
726.364	55.5
726.546	55.44
726.728	55.47
726.91	54.91
727.092	55.18
727.274	53.95
727.456	53.73
727.638	53.72
727.819	52.68
728.001	52.82
728.183	51.93
728.365	52.18
728.547	52.66
728.729	52.63
728.911	52.37
729.093	52.42
729.274	53.43
729.456	53.17
729.638	53.09
729.82	52.78
730.001	52.85
730.183	52.92
730.365	52.1
730.546	51.97
730.728	51.72
730.91	52.2
731.091	52.14
731.273	51.56
731.455	51.9
731.636	52.27
731.818	52.53
731.999	51.86
732.181	51.87
732.362	51.86
732.544	51.78
732.725	51.89
732.907	51.55
733.088	51.6
733.27	51.35
733.451	51.72
733.633	51.81
733.814	51.79
733.995	51.45
734.177	51.18
734.358	51.59
734.539	51.89
734.721	51.57
734.902	51.14
735.083	50.78
735.264	50.94
735.446	50.2
735.627	50.31
735.808	49.75
735.989	50.82
736.17	51.44
736.351	50.23
736.533	49.85
736.714	50.51
736.895	51.22
737.076	51.96
737.257	52.04
737.438	52.56
737.619	51.9
737.8	51.85
737.981	50.93
738.162	50.87
738.343	52.12
738.524	52.43
738.705	52.75
738.886	52.38
739.067	52.06
739.247	52.33
739.428	51.06
739.609	51.25
739.79	52.87
739.971	54.03
740.151	55.02
740.332	54.92
740.513	54.63
740.694	53.63
740.874	53.99
741.055	54.28
741.236	54.18
741.417	55.21
741.597	54.68
741.778	53.21
741.958	52.68
742.139	50.89
742.32	50.97
742.5	50.92
742.681	51.49
742.861	51.7
743.042	51.54
743.222	50.65
743.403	49.86
743.583	50.62
743.764	51.48
743.944	51.7
744.124	52.43
744.305	52.24
744.485	51.86
744.666	51.89
744.846	51.91
745.026	52.32
745.207	53.2
745.387	53.29
745.567	53.6
745.747	52
745.928	52.11
746.108	51.52
746.288	51.03
746.468	51.57
746.648	52.14
746.829	51.81
747.009	52.1
747.189	51.6
747.369	53.15
747.549	52.5
747.729	53.6
747.909	53.59
748.089	54.42
748.269	54.5
748.449	55.78
748.629	54.98
748.809	55.45
748.989	55.19
749.169	55.72
749.349	55.05
749.529	55.38
749.709	55.49
749.889	55.29
750.068	54.67
750.248	54.76
750.428	52.88
750.608	53.42
750.788	52.98
750.967	52.33
751.147	52.38
751.327	51.8
751.507	51.49
751.686	51.57
751.866	51.24
752.046	51.9
752.225	52.6
752.405	53.07
752.585	52.3
752.764	52.07
752.944	52.17
753.123	51.8
753.303	52.56
753.482	52.14
753.662	52.24
753.841	51.41
754.021	49.99
754.2	50.01
754.38	50.49
754.559	50.66
754.739	50.28
754.918	50.08
755.097	50.04
755.277	49.69
755.456	49.52
755.635	49.77
755.815	50.77
755.994	52.47
756.173	51.49
756.352	51.01
756.532	51.71
756.711	52.36
756.89	53.32
757.069	53.02
757.248	52.56
757.427	52.65
757.607	52.01
757.786	52.02
757.965	52.21
758.144	52.06
758.323	52.51
758.502	51.42
758.681	50.88
758.86	50.43
759.039	51.02
759.218	52.42
759.397	53.02
759.576	53.34
759.755	53.27
759.934	52.12
760.113	52.56
760.291	53.04
760.47	52.95
760.649	53.64
760.828	52.82
761.007	52.42
761.186	51.38
761.364	51.04
761.543	51.07
761.722	51.24
761.901	51.76
762.079	51.75
762.258	50.68
762.437	51.11
762.615	50.8
762.794	52.11
762.972	52.4
763.151	52.55
763.33	52.67
763.508	52.22
763.687	52.68
763.865	52.73
764.044	53.03
764.222	53.44
764.401	53.35
764.579	53.16
764.758	52.24
764.936	52.52
765.114	52.21
765.293	52.49
765.471	53.07
765.65	52.91
765.828	52.68
766.006	52.35
766.184	51.86
766.363	51.67
766.541	51.9
766.719	52.34
766.898	51.62
767.076	51.61
767.254	50.84
767.432	50.64
767.61	49.68
767.788	48.97
767.967	49.35
768.145	49.22
768.323	50.22
768.501	50.85
768.679	50.83
768.857	51.58
769.035	52.42
769.213	54.4
769.391	54.86
769.569	54.85
769.747	54.78
769.925	53.52
770.103	53.95
770.281	53.95
770.459	52.49
770.636	52.37
770.814	52.17
770.992	51.71
771.17	50.13
771.348	48.33
771.525	48.51
771.703	49.88
771.881	50.7
772.059	51.25
772.236	49.58
772.414	51
772.592	50.93
772.769	49.53
772.947	49.97
773.125	51.07
773.302	51.96
773.48	52.48
773.657	52.65
773.835	52.97
774.013	53.29
774.19	52.85
774.368	52.03
774.545	52.11
774.723	53.44
774.9	53.34
775.077	53.15
775.255	52.77
775.432	53.94
775.61	53.7
775.787	53.14
775.964	52.13
776.142	54.15
776.319	55.67
776.496	55.87
776.674	56.58
776.851	55.26
777.028	54.27
777.205	54.94
777.382	53
777.56	53.97
777.737	53.78
777.914	54.43
778.091	54.73
778.268	54.33
778.445	54.87
778.622	53.3
778.8	56.13
778.977	56.43
779.154	57.85
779.331	59.2
779.508	59.16
779.685	59.25
779.862	59.71
780.038	59.29
780.215	59
780.392	57.15
780.569	58.24
780.746	55.36
780.923	55.32
781.1	52.62
781.277	51.43
781.453	49.14
781.63	50.18
781.807	49.37
781.984	49.21
782.16	49.26
782.337	50.81
782.514	51.07
782.691	52.87
782.867	52.58
783.044	53.36
783.221	53.51
783.397	54.4
783.574	54.15
783.75	55.09
783.927	54.45
784.103	54.23
784.28	52.81
784.456	52.29
784.633	51.71
784.809	51.51
784.986	51.97
785.162	51.98
785.339	50.97
785.515	51.95
785.692	52.22
785.868	52.3
786.044	50.75
786.221	50.09
786.397	48.58
786.573	47.76
786.749	47.28
786.926	47.49
787.102	47.85
787.278	50.17
787.454	50.54
787.631	49.87
787.807	51.33
787.983	52.2
788.159	54.44
788.335	56.26
788.511	57.24
788.687	57.93
788.863	57.79
789.039	57.96
789.216	58.61
789.392	57.13
789.568	56.32
789.744	57.31
789.919	59.07
790.095	56.85
790.271	56.24
790.447	54.92
790.623	55.61
790.799	56.14
790.975	56.54
791.151	55.42
791.327	54.36
791.502	55.2
791.678	52.86
791.854	52.79
792.03	56.06
792.205	56.74
792.381	57.99
792.557	57.4
792.733	56.02
792.908	56.98
793.084	56.98
793.259	57.85
793.435	56.97
793.611	58.22
793.786	56.03
793.962	55.91
794.137	54.75
794.313	54.21
794.488	54.38
794.664	56.12
794.839	54.59
795.015	55.41
795.19	54.21
795.366	55.71
795.541	55.69
795.716	55.49
795.892	54.59
796.067	54.29
796.242	52.28
796.418	51.87
796.593	50.57
796.768	51.64
796.944	49.29
797.119	50.93
797.294	50.48
797.469	49.91
797.644	51.71
797.82	50.74
797.995	51.3
798.17	55.38
798.345	55.85
798.52	57.3
798.695	57.45
798.87	58.95
799.045	59.52
799.22	58.62
799.395	59.84
799.57	59.37
799.745	59.57
799.92	58.61
800.095	55.97
800.27	53.87
800.445	52.57
800.62	51.38
800.795	51.4
800.97	50.8
801.145	49.33
801.319	45.94
801.494	45.05
801.669	45.44
801.844	46.85
802.018	46.79
802.193	49.57
802.368	49.17
802.543	48.98
802.717	45.97
802.892	44.3
803.067	47.27
803.241	47.76
803.416	46.16
803.59	45.62
803.765	44.27
803.94	44.33
804.114	45.72
804.289	45.71
804.463	46.01
804.638	48.05
804.812	50.57
804.986	50.4
805.161	52.87
805.335	54.21
805.51	57.12
805.684	57.46
805.858	58.31
806.033	55.13
806.207	54.22
806.381	54.34
806.556	55.8
806.73	54.48
806.904	55.35
807.078	54.25
807.253	55.09
807.427	52.45
807.601	53.77
807.775	52.74
807.949	54.04
808.123	57.08
808.298	57.95
808.472	57.56
808.646	56.49
808.82	56.17
808.994	56.1
809.168	55.73
809.342	55.06
809.516	53.52
809.69	53.86
809.864	53.39
810.038	54.92
810.212	53.32
810.385	52.71
810.559	54.09
810.733	53.25
810.907	52.5
811.081	52.75
811.255	54.34
811.428	55.23
811.602	55.84
811.776	56.56
811.95	54.52
812.123	53.68
812.297	52.5
812.471	53.73
812.644	53.65
812.818	57.54
812.992	58.59
813.165	58.72
813.339	58.32
813.512	60.33
813.686	55.39
813.86	52.98
814.033	54.74
814.207	57
814.38	55.92
814.554	54.7
814.727	53.88
814.9	52.64
815.074	52.84
815.247	51.74
815.421	46.11
815.594	46.91
815.767	46.69
815.941	43.46
816.114	42.22
816.287	41.17
816.46	43.06
816.634	40.7
816.807	39.12
816.98	39.1
817.153	40.59
817.327	44.52
817.5	48
817.673	48.91
817.846	52.03
818.019	52.55
818.192	55.32
818.365	52.66
818.538	50.15
818.711	50.71
818.884	48.15
819.057	48.58
819.23	46.9
819.403	45.03
819.576	46.98
819.749	46.55
819.922	48.55
820.095	47.76
820.268	47.75
820.441	49.32
820.614	48.35
820.786	48.98
820.959	47.37
821.132	47.95
821.305	48.98
821.477	48.23
821.65	48.88
821.823	47.98
821.996	47.72
822.168	48.24
822.341	48.47
822.514	48.58
822.686	48.69
822.859	49.39
823.031	49.91
823.204	50.28
823.376	50.03
823.549	49.86
823.722	50.25
823.894	50.28
824.067	50.61
824.239	50.93
824.411	51.49
824.584	51.91
824.756	51.57
824.929	51.4
825.101	51.46
825.273	51.93
825.446	51.54
825.618	51.1
825.79	51.23
825.963	51.17
826.135	51.03
826.307	50.64
826.479	50.5
826.652	51.11
826.824	51.05
826.996	49.93
827.168	49.76
827.34	49.77
827.512	50.35
827.684	51.16
827.856	51.04
828.029	52.21
828.201	52.31
828.373	52.91
828.545	51.98
828.717	52.3
828.889	52.26
829.061	52.03
829.232	53.01
829.404	53.36
829.576	52.34
829.748	52.28
829.92	50.81
830.092	52.42
830.264	51.41
830.436	52.78
830.607	52.74
830.779	53.96
830.951	56.15
831.123	54.74
831.294	51.99
831.466	54.17
831.638	55.45
831.809	57.05
831.981	55.66
832.153	55.4
832.324	56.95
832.496	57.16
832.667	58.25
832.839	57.18
833.011	55.82
833.182	57.2
833.354	55.49
833.525	52.62
833.697	50.58
833.868	50.14
834.039	51.53
834.211	49.9
834.382	48.41
834.554	47.54
834.725	46.17
834.896	48.78
835.068	48.53
835.239	47.86
835.41	49.21
835.581	50.06
835.753	49.8
835.924	49.86
836.095	50.23
836.266	51.34
836.438	50.41
836.609	51.68
836.78	51.08
836.951	51.21
837.122	50.62
837.293	49.16
837.464	46.81
837.635	49.54
837.806	49.9
837.977	49.42
838.148	50.33
838.319	51.29
838.49	50.57
838.661	51.84
838.832	53.81
839.003	56.69
839.174	61.1
839.345	66.22
839.516	65.17
839.687	66.59
839.857	66.21
840.028	64.53
840.199	66.16
840.37	65.81
840.54	62.27
840.711	61.62
840.882	61.44
841.053	59.29
841.223	56.23
841.394	52.31
841.564	50.04
841.735	50.26
841.906	49.57
842.076	48.25
842.247	49.74
842.417	49.77
842.588	50.06
842.758	45.85
842.929	45.55
843.099	44.3
843.27	48.11
843.44	50.27
843.611	53.32
843.781	50.71
843.951	51.01
844.122	50.03
844.292	51.22
844.462	49.49
844.633	51.96
844.803	49.93
844.973	48.1
845.144	45.56
845.314	41.86
845.484	42.2
845.654	50.42
845.824	48.21
845.995	49.84
846.165	47.49
846.335	50.48
846.505	51.87
846.675	53.04
846.845	65.26
847.015	63.34
847.185	60.04
847.355	59.66
847.525	62.3
847.695	71.56
847.865	78.86
848.035	80.18
848.205	76.69
848.375	78.41
848.545	78.76
848.715	68.03
848.884	73.17
849.054	72.09
849.224	71.96
849.394	74.9
849.564	70.96
849.733	63.94
849.903	68.86
850.073	66.29
850.243	65.66
850.412	66.13
850.582	67.65
850.752	62.69
850.921	58.26
851.091	58.41
851.26	55.53
851.43	56.1
851.599	52.53
851.769	47.17
851.939	45.83
852.108	43.04
852.278	42.88
852.447	46.75
852.616	48.21
852.786	66.82
852.955	61.65
853.125	55.9
853.294	56.24
853.463	57.98
853.633	67.06
853.802	73.32
853.971	79.14
854.141	84.74
854.31	72.76
854.479	76.23
854.648	53.59
854.818	47.54
854.987	47.02
855.156	38.42
855.325	30.08
855.494	19.32
855.663	18.73
855.832	14.64
856.001	8.54
856.171	9.24
856.34	4.6
856.509	-6.31
856.678	1.2
856.847	15.14
857.016	23.01
857.185	31.19
857.353	37.04
857.522	40.05
857.691	43.3
857.86	42.95
858.029	46.53
858.198	55.04
858.367	63.76
858.535	60.95
858.704	59.76
858.873	55.1
859.042	53.18
859.21	49.59
859.379	44.21
859.548	48
859.717	43.01
859.885	46.12
860.054	41.29
860.222	35.21
860.391	47
860.56	41.36
860.728	44.65
860.897	46.49
861.065	43.72
861.234	50.99
861.402	50.55
861.571	60.78
861.739	62.4
861.908	59.64
862.076	58.91
862.244	51.44
862.413	58.46
862.581	53.18
862.749	52.95
862.918	56.84
863.086	56.89
863.254	51.27
863.423	41.19
863.591	42.13
863.759	39.73
863.927	42.49
864.096	46.3
864.264	53.61
864.432	54.32
864.6	62.9
864.768	66.79
864.936	67.71
865.104	72.55
865.272	81.68
865.44	71.35
865.608	80.29
865.776	81.12
865.944	73.04
866.112	56.49
866.28	63.86
866.448	60.92
866.616	60.92
866.784	42.73
866.952	46.16
867.12	43.37
867.288	48.96
867.455	46.87
867.623	40.9
867.791	51.52
867.959	64.24
868.127	65.95
868.294	67.13
868.462	64.86
868.63	71.29
868.797	72.99
868.965	80.79
869.133	74.59
869.3	74.06
869.468	70.73
869.636	68.88
869.803	62.89
869.971	57.65
870.138	50.5
870.306	57.69
870.473	55.53
870.641	44.88
870.808	38.72
870.975	44.5
871.143	40.58
871.31	42.16
871.478	42.36
871.645	47.04
871.812	45.44
871.98	48.58
872.147	45.8
872.314	57.06
872.482	62.24
872.649	61.01
872.816	64.62
872.983	58.77
873.15	57.3
873.318	51.8
873.485	47.72
873.652	40.44
873.819	42.1
873.986	44.26
874.153	41.18
874.32	37.64
874.487	41.31
874.654	44.32
874.821	47.64
874.988	41.92
875.155	47.35
875.322	41.39
875.489	53.92
875.656	39.87
875.823	29.1
875.99	31.39
876.157	29.55
876.324	27.7
876.49	22.11
876.657	29.28
876.824	40.13
876.991	42.27
877.157	50.71
877.324	46.68
877.491	55.43
877.658	59.71
877.824	70
877.991	74.26
878.157	75.99
878.324	87.13
878.491	90.34
878.657	78.38
878.824	83.24
878.99	77.85
879.157	82.16
879.323	82.57
879.49	74.26
879.656	66.19
879.823	61.35
879.989	62.3
880.156	49.94
880.322	46.35
880.488	51.37
880.655	45.47
880.821	45.33
880.987	44.34
881.154	41.4
881.32	50.67
881.486	47.63
881.652	46.88
881.819	48.42
881.985	53.18
882.151	53.16
882.317	50.63
882.483	51.18
882.649	51.03
882.816	50.59
882.982	52.58
883.148	52.21
883.314	53.19
883.48	53.91
883.646	52.91
883.812	52.36
883.978	51.54
884.144	52.31
884.31	53.27
884.476	51.89
884.642	51.56
884.807	50.59
884.973	49.28
885.139	48.37
885.305	47.56
885.471	48.45
885.637	47.96
885.802	48
885.968	47.9
886.134	47.97
886.3	49.87
886.465	51.75
886.631	51.52
886.797	53.27
886.962	53.25
887.128	54.77
887.293	55.94
887.459	58.32
887.625	58.13
887.79	61.74
887.956	64.79
888.121	67.15
888.287	66.11
888.452	68.53
888.618	67.52
888.783	74.06
