Data from LC_215__Reflection_3.txt Node
Date: Thu Nov 19 13:00:03 EST 2015
User: robert
Spectrometer: USB4E03001
Autoset integration time: false
Trigger mode: 4
Integration Time (sec): 1.000000E-1
Scans to average: 15
Electric dark correction enabled: true
Nonlinearity correction enabled: false
Boxcar width: 5
Stray light correction enabled: false
XAxis mode: Wavelengths
Stop averaging: false
Number of Pixels in Spectrum: 3648
>>>>>Begin Spectral Data<<<<<
177.566	206.23
177.785	29.4
178.005	-92.67
178.225	-91.26
178.445	-164.61
178.665	214100
178.885	213
179.105	363.14
179.324	-167.73
179.544	-704.65
179.764	-202.72
179.984	-154.97
180.204	28.97
180.423	162.82
180.643	552.82
180.863	321.39
181.083	109.53
181.302	6.9
181.522	-51.12
181.742	-663.68
181.961	1022.71
182.181	1006
182.401	223.51
182.621	238.89
182.84	471.01
183.06	1091.88
183.279	1105.96
183.499	494.66
183.719	464.13
183.938	267.15
184.158	371.02
184.377	430.15
184.597	306.16
184.816	1769.78
185.036	6990.22
185.256	344.03
185.475	168.06
185.695	180.07
185.914	173.12
186.134	103.3
186.353	94.81
186.572	122.25
186.792	124.24
187.011	627.65
187.231	161.84
187.45	102.2
187.67	4.34
187.889	-3650
188.108	-96.6
188.328	1208.3
188.547	122.9
188.766	135.76
188.986	182.91
189.205	69.57
189.424	-58.64
189.644	-83.7
189.863	195.09
190.082	411.61
190.302	1604.56
190.521	-111.45
190.74	-772.17
190.959	-5535.92
191.178	8490.68
191.398	-3264.56
191.617	549.28
191.836	1970.59
192.055	-501.94
192.274	-152.87
192.494	-273.36
192.713	-170.77
192.932	-94.49
193.151	-26.45
193.37	-47.74
193.589	25.02
193.808	31.11
194.027	56.3
194.246	-61.43
194.465	17.12
194.685	-5860
194.904	-88.35
195.123	-31.68
195.342	-4.52
195.561	14.6
195.78	40.6
195.999	39.06
196.218	30.76
196.436	173.21
196.655	-43.76
196.874	40.31
197.093	108.62
197.312	260.39
197.531	251.5
197.75	510.89
197.969	-118.04
198.188	-50.95
198.407	-696.14
198.625	113.11
198.844	146.25
199.063	708.09
199.282	649.58
199.501	-288.33
199.719	-451.4
199.938	-1289.96
200.157	1189.96
200.376	478.38
200.594	339.86
200.813	349.43
201.032	220.74
201.251	234.41
201.469	311.97
201.688	217.89
201.907	198.07
202.125	194.55
202.344	138.52
202.563	111.44
202.781	151.07
203	120.54
203.218	112.12
203.437	246.62
203.656	169.66
203.874	113.17
204.093	132.33
204.311	136.82
204.53	109.63
204.748	103.34
204.967	119.83
205.185	111.96
205.404	113.33
205.622	77.73
205.841	59.49
206.059	75.99
206.278	96.86
206.496	122.16
206.715	115.42
206.933	252.16
207.151	-223.33
207.37	80.84
207.588	935.81
207.806	-350.1
208.025	95.15
208.243	-133.05
208.461	-3.37
208.68	-488.26
208.898	459.79
209.116	68.59
209.335	-400
209.553	124.86
209.771	843.28
209.989	-594.91
210.208	-425.02
210.426	-244.03
210.644	-181.37
210.862	-117.54
211.081	-113.69
211.299	-57.64
211.517	-123.21
211.735	-156.19
211.953	-345.13
212.171	206.23
212.39	300.36
212.608	227.41
212.826	85.79
213.044	62.11
213.262	27.93
213.48	-11.39
213.698	-29.89
213.916	-38.67
214.134	-52.39
214.352	-157.17
214.57	514.53
214.788	-120.35
215.006	-684.67
215.224	454.81
215.442	210.27
215.66	150.46
215.878	-11.83
216.096	33.57
216.314	-16.66
216.532	2.45
216.75	7.92
216.968	33.74
217.185	40.78
217.403	58.38
217.621	91
217.839	124.57
218.057	108.71
218.275	116
218.492	180.91
218.71	120.17
218.928	113.13
219.146	111.27
219.363	91.63
219.581	51.27
219.799	-50.93
220.017	-10.69
220.234	-3.78
220.452	-52.74
220.67	-45.76
220.887	-69.2
221.105	-174.26
221.323	-140.47
221.54	-95.05
221.758	-11.94
221.976	20.33
222.193	34.39
222.411	34.9
222.629	4.04
222.846	8.98
223.064	37.76
223.281	45.22
223.499	65.3
223.716	63.17
223.934	67.1
224.151	79.45
224.369	72.16
224.586	84.05
224.804	81.98
225.021	63.54
225.239	56.56
225.456	54.63
225.674	61.91
225.891	55.72
226.108	51.04
226.326	46.8
226.543	37.12
226.76	38.18
226.978	34.89
227.195	39.25
227.413	40.84
227.63	39.86
227.847	32.64
228.064	28.86
228.282	26.34
228.499	23.07
228.716	19.41
228.934	16.09
229.151	14.63
229.368	12.69
229.585	8.15
229.802	7.26
230.02	7.77
230.237	7.61
230.454	9.76
230.671	13.61
230.888	13.16
231.105	15
231.323	18.56
231.54	16.94
231.757	20.74
231.974	26.5
232.191	32.33
232.408	28.45
232.625	32
232.842	28.55
233.059	12.7
233.276	17.78
233.493	24.54
233.71	24.63
233.927	22.98
234.144	24.48
234.361	22.62
234.578	19.69
234.795	21.73
235.012	20.44
235.229	21.87
235.446	25.76
235.663	21.77
235.879	17.16
236.096	21.35
236.313	26.59
236.53	19.32
236.747	21.49
236.964	22.18
237.181	21.37
237.397	19.53
237.614	12.06
237.831	11.8
238.048	7.78
238.264	5.34
238.481	7.71
238.698	3.93
238.915	3.43
239.131	-0.63
239.348	-6.47
239.565	-12.26
239.781	-9.67
239.998	-0.78
240.215	5.08
240.431	10.36
240.648	12.09
240.865	8.76
241.081	8.87
241.298	11.83
241.514	11.97
241.731	14.01
241.947	15.77
242.164	12.61
242.38	12.23
242.597	10.56
242.814	9.76
243.03	9.31
243.246	10.47
243.463	11.2
243.679	12.37
243.896	11.75
244.112	11.27
244.329	11.59
244.545	13.6
244.762	15.03
244.978	17.01
245.194	16.16
245.411	15.13
245.627	13.61
245.843	13.13
246.06	10.08
246.276	11.25
246.492	11.18
246.709	11.97
246.925	12.51
247.141	11.53
247.357	10.41
247.574	11.39
247.79	11.79
248.006	11.14
248.222	10.29
248.439	11.28
248.655	10.94
248.871	11.63
249.087	10.77
249.303	9.12
249.519	7.75
249.736	7.51
249.952	5.69
250.168	4.32
250.384	6.24
250.6	9.35
250.816	8.33
251.032	10.76
251.248	9.31
251.464	9.44
251.68	10.07
251.896	8.95
252.112	7.93
252.328	6.35
252.544	6.7
252.76	5.91
252.976	4.08
253.192	3.82
253.408	2.62
253.624	2.38
253.84	0.91
254.056	3.7
254.272	6.1
254.487	6.21
254.703	10.06
254.919	12.53
255.135	15.6
255.351	14.2
255.567	14.63
255.782	10.93
255.998	9.73
256.214	12.87
256.43	11.7
256.646	11.52
256.861	11.89
257.077	11.48
257.293	10.37
257.508	5.41
257.724	5.92
257.94	5.51
258.155	5.97
258.371	7.23
258.587	8.63
258.802	6.83
259.018	7.01
259.234	7.01
259.449	6.78
259.665	6.95
259.88	7.53
260.096	7.77
260.312	7.7
260.527	8.07
260.743	7.67
260.958	5.97
261.174	6.56
261.389	5.96
261.605	5.58
261.82	5.2
262.036	4.19
262.251	3.78
262.466	2.4
262.682	0.79
262.897	0.11
263.113	-0.83
263.328	0.37
263.543	0.35
263.759	0.67
263.974	1.92
264.189	-0.4
264.405	0.5
264.62	2.04
264.835	2.55
265.051	4.82
265.266	4.83
265.481	4.62
265.696	4.11
265.912	3.19
266.127	4.39
266.342	4.64
266.557	8.14
266.773	9.15
266.988	9.29
267.203	10.01
267.418	9.58
267.633	8.99
267.848	9.74
268.064	9.67
268.279	10.98
268.494	11.13
268.709	11.54
268.924	10.51
269.139	10.02
269.354	10.93
269.569	11.84
269.784	11.07
269.999	11.73
270.214	11.52
270.429	11.93
270.644	12.73
270.859	12.04
271.074	12.05
271.289	12.45
271.504	12.08
271.719	10.56
271.934	9.85
272.149	10.2
272.363	9.79
272.578	9.72
272.793	8.36
273.008	7.37
273.223	6.2
273.438	5.4
273.653	4.22
273.867	2.96
274.082	2.74
274.297	3.62
274.512	4.28
274.726	5.18
274.941	5.18
275.156	5.73
275.371	4.52
275.585	6.08
275.8	7.35
276.015	8.46
276.229	9.88
276.444	9.12
276.659	9.01
276.873	7.89
277.088	6.48
277.302	6.47
277.517	7.52
277.732	9.16
277.946	10.3
278.161	9
278.375	9.18
278.59	7.55
278.804	8.18
279.019	6.68
279.233	6.53
279.448	7.38
279.662	7.47
279.877	5.72
280.091	5.32
280.306	5.33
280.52	5.68
280.735	4.82
280.949	5.42
281.163	7.01
281.378	7.16
281.592	9.08
281.806	9.06
282.021	9.75
282.235	10.94
282.449	10.86
282.664	10.05
282.878	10.2
283.092	9.93
283.307	10.05
283.521	8.34
283.735	8.19
283.949	6.72
284.164	7.61
284.378	6.35
284.592	6.65
284.806	5.73
285.02	5.36
285.234	4.69
285.449	5.65
285.663	7.31
285.877	8.33
286.091	9.29
286.305	10.31
286.519	9.85
286.733	8.53
286.947	8.92
287.161	9.64
287.375	9.24
287.589	9.54
287.803	9.17
288.017	9.3
288.231	8.65
288.445	6.8
288.659	6.12
288.873	5.5
289.087	7.58
289.301	8
289.515	7.5
289.729	8.33
289.943	8.97
290.157	8.64
290.371	7.07
290.584	5.94
290.798	7.14
291.012	7.56
291.226	7.49
291.44	7.47
291.654	6.89
291.867	7.24
292.081	6.97
292.295	6.73
292.509	6.33
292.722	6.57
292.936	7.76
293.15	7.62
293.364	6.87
293.577	6.64
293.791	6.92
294.005	6.83
294.218	6.21
294.432	6.17
294.645	6.15
294.859	6.79
295.073	8.21
295.286	8.33
295.5	7.55
295.713	6.45
295.927	7.45
296.14	7.1
296.354	7.13
296.568	7.45
296.781	7.02
296.994	6.35
297.208	6.31
297.421	5.87
297.635	5.52
297.848	6.05
298.062	7.29
298.275	6.62
298.489	6.68
298.702	6.46
298.915	7.34
299.129	8.72
299.342	9.44
299.555	10
299.769	9.21
299.982	11.12
300.195	11.24
300.409	10.21
300.622	10.82
300.835	11.33
301.048	11.47
301.262	10.33
301.475	9.54
301.688	9.74
301.901	8.36
302.115	8.45
302.328	6.77
302.541	5.79
302.754	5.93
302.967	4.94
303.18	4.41
303.393	4.94
303.607	5.39
303.82	5.17
304.033	5.78
304.246	8.39
304.459	9
304.672	9.26
304.885	9.97
305.098	10.23
305.311	10.72
305.524	10.53
305.737	9.85
305.95	10.33
306.163	9.66
306.376	9.27
306.589	7.6
306.802	8.68
307.015	9.34
307.228	10.11
307.44	10.23
307.653	11.08
307.866	12.51
308.079	13.91
308.292	13.23
308.505	14.37
308.718	14.21
308.93	14.72
309.143	14.5
309.356	14.2
309.569	14.71
309.781	16.01
309.994	15.57
310.207	13.6
310.42	13.48
310.632	13.36
310.845	12.46
311.058	12.23
311.27	11.58
311.483	11.17
311.696	11.92
311.908	11.66
312.121	10.96
312.333	11.13
312.546	12.43
312.759	11.48
312.971	11.84
313.184	12.8
313.396	13.04
313.609	13.69
313.821	13.71
314.034	13.13
314.246	13.64
314.459	12.71
314.671	12.35
314.884	12.65
315.096	14.39
315.309	13.71
315.521	13.2
315.733	12.94
315.946	12.98
316.158	13.33
316.371	13.02
316.583	12.35
316.795	13.42
317.008	11.98
317.22	10.85
317.432	8.21
317.644	9.7
317.857	8.85
318.069	10.32
318.281	10.58
318.494	9.23
318.706	10.08
318.918	10.2
319.13	10.1
319.342	11.31
319.555	11.32
319.767	13.1
319.979	12.82
320.191	13.49
320.403	11.35
320.615	9.95
320.827	12.24
321.039	10.5
321.252	10.47
321.464	10.35
321.676	11.87
321.888	12.62
322.1	11.33
322.312	11.17
322.524	12.6
322.736	12.9
322.948	13.08
323.16	11.37
323.372	11.95
323.584	11.86
323.796	12.52
324.007	12.37
324.219	13.52
324.431	14.02
324.643	13.77
324.855	13.16
325.067	13.32
325.279	13.52
325.491	13.83
325.702	14.48
325.914	14
326.126	13.77
326.338	13.32
326.55	12.64
326.761	14.1
326.973	13.78
327.185	13.67
327.396	14.68
327.608	15.39
327.82	15.54
328.032	15.34
328.243	16.76
328.455	15.95
328.666	16.28
328.878	16.78
329.09	15.34
329.301	15.49
329.513	16.01
329.725	16.28
329.936	16.46
330.148	16.69
330.359	18.34
330.571	17.85
330.782	20
330.994	20.48
331.205	19.47
331.417	20.27
331.628	19.91
331.84	19.78
332.051	19.24
332.262	19.09
332.474	19.12
332.685	17.69
332.897	17.51
333.108	16.39
333.319	16.65
333.531	17.61
333.742	17.39
333.953	18.73
334.165	20.04
334.376	19.64
334.587	19.49
334.799	20.37
335.01	20.81
335.221	21.51
335.432	21.34
335.644	21.94
335.855	22.24
336.066	23.12
336.277	23.39
336.488	22.94
336.7	23.47
336.911	23.76
337.122	23.41
337.333	23.83
337.544	24.31
337.755	25.18
337.966	25.12
338.177	24.77
338.388	24.06
338.599	24.22
338.811	24.71
339.022	25.45
339.233	26.26
339.444	26.61
339.655	25.95
339.866	25.2
340.076	25.01
340.287	24.89
340.498	25.23
340.709	26.23
340.92	25.66
341.131	25.73
341.342	25.43
341.553	24.5
341.764	24.71
341.975	24.77
342.185	24.49
342.396	24.43
342.607	24.78
342.818	25.85
343.029	24.61
343.239	25.25
343.45	24.53
343.661	25.09
343.872	25.28
344.082	25.6
344.293	25.34
344.504	26.12
344.714	26.44
344.925	26.06
345.136	24.74
345.346	25.22
345.557	25.64
345.768	25.86
345.978	24.64
346.189	24.92
346.399	24.62
346.61	25.05
346.821	24.26
347.031	24.88
347.242	24.66
347.452	25.38
347.663	25.48
347.873	25.03
348.084	25.05
348.294	25.54
348.504	25.12
348.715	24.62
348.925	24.57
349.136	24.48
349.346	23.93
349.557	24.06
349.767	23.05
349.977	23.08
350.188	23.28
350.398	23.26
350.608	24.16
350.819	24.83
351.029	25.92
351.239	26.46
351.449	27.29
351.66	27.17
351.87	26.44
352.08	25.7
352.29	25.88
352.501	25.08
352.711	25.23
352.921	24.84
353.131	24.87
353.341	23.26
353.552	23.27
353.762	22.83
353.972	22.81
354.182	24.17
354.392	25.51
354.602	25.31
354.812	26.1
355.022	25.73
355.232	25.24
355.442	24.81
355.652	24.87
355.862	24.46
356.072	25.43
356.282	24.97
356.492	24.07
356.702	24.24
356.912	24.49
357.122	23.97
357.332	23.68
357.542	24.11
357.752	24
357.962	24.38
358.171	24.42
358.381	23.65
358.591	23.8
358.801	24.27
359.011	23.83
359.221	23.52
359.43	24.22
359.64	24.72
359.85	24.46
360.06	24.21
360.269	24.01
360.479	24.2
360.689	23.86
360.899	23.66
361.108	23.71
361.318	23.82
361.528	23.72
361.737	22.97
361.947	22.88
362.156	22.97
362.366	23.1
362.576	23.22
362.785	23.42
362.995	23.94
363.204	24.58
363.414	24.49
363.623	24.42
363.833	24.47
364.042	24.76
364.252	25.11
364.461	25.1
364.671	24.94
364.88	25.52
365.09	24.95
365.299	24.5
365.509	24.04
365.718	23.78
365.927	23.45
366.137	23.59
366.346	23.51
366.555	22.82
366.765	22.87
366.974	23.41
367.183	22.45
367.393	22.4
367.602	22.43
367.811	22.44
368.021	22.27
368.23	22.41
368.439	22.29
368.648	22.21
368.857	21.88
369.067	21.5
369.276	20.85
369.485	20.89
369.694	20.47
369.903	20.13
370.112	19.88
370.321	20.15
370.531	20.47
370.74	20.19
370.949	20.41
371.158	20.86
371.367	20.45
371.576	20.95
371.785	21.2
371.994	21.63
372.203	21.65
372.412	21.95
372.621	21.87
372.83	21.53
373.039	21.6
373.248	21.5
373.457	21.3
373.666	21.89
373.874	21.32
374.083	21.4
374.292	20.79
374.501	20.75
374.71	20.22
374.919	20.21
375.128	20.38
375.336	20.33
375.545	20.08
375.754	20.19
375.963	20.32
376.171	20.87
376.38	21.23
376.589	21.77
376.798	21.74
377.006	22.58
377.215	22.9
377.424	22.72
377.632	22.94
377.841	22.77
378.05	23.04
378.258	22.62
378.467	22.16
378.675	21.57
378.884	21.17
379.093	21.42
379.301	20.85
379.51	20.21
379.718	20.19
379.927	20.04
380.135	19.77
380.344	19.53
380.552	19.86
380.761	20.32
380.969	20.36
381.177	20.44
381.386	19.97
381.594	19.78
381.803	20.23
382.011	20.47
382.219	20.34
382.428	20.7
382.636	20.52
382.845	20.38
383.053	20.12
383.261	20.04
383.469	20.15
383.678	20.26
383.886	19.98
384.094	19.64
384.302	19.13
384.511	18.92
384.719	18.55
384.927	18.61
385.135	18.06
385.343	17.88
385.552	17.8
385.76	17.83
385.968	17.97
386.176	17.96
386.384	17.74
386.592	17.82
386.8	18.1
387.008	18.25
387.216	18.18
387.424	18.19
387.633	18.48
387.841	18.39
388.049	18.39
388.257	17.92
388.465	17.84
388.672	18.05
388.88	18.18
389.088	18.04
389.296	18.23
389.504	17.99
389.712	18.53
389.92	18.23
390.128	18.31
390.336	17.92
390.544	17.98
390.751	18.18
390.959	17.7
391.167	17.44
391.375	17.28
391.583	17.03
391.79	17
391.998	16.81
392.206	17.04
392.414	16.91
392.621	16.74
392.829	16.86
393.037	17.09
393.244	17.34
393.452	17.35
393.66	17.28
393.867	17.32
394.075	17.39
394.283	17.38
394.49	16.85
394.698	16.99
394.905	17.3
395.113	17.52
395.32	17.27
395.528	17.26
395.735	17.23
395.943	17.45
396.15	17.26
396.358	17.15
396.565	17.15
396.773	17.24
396.98	16.97
397.188	16.51
397.395	16.43
397.602	16.49
397.81	16.73
398.017	16.94
398.225	16.48
398.432	16.64
398.639	16.74
398.847	16.75
399.054	16.94
399.261	16.94
399.468	17.15
399.676	16.98
399.883	16.99
400.09	16.57
400.297	16.63
400.505	16.98
400.712	16.83
400.919	16.88
401.126	16.48
401.333	16.49
401.54	16.95
401.748	16.88
401.955	17.06
402.162	16.83
402.369	17.16
402.576	16.75
402.783	16.57
402.99	16.82
403.197	16.8
403.404	16.97
403.611	16.98
403.818	16.81
404.025	16.97
404.232	16.72
404.439	16.88
404.646	16.49
404.853	16.62
405.06	16.85
405.267	16.78
405.474	16.82
405.681	17
405.887	16.88
406.094	16.83
406.301	16.77
406.508	16.96
406.715	16.85
406.922	17.23
407.128	17.31
407.335	17.41
407.542	17.48
407.749	17.23
407.955	17.25
408.162	17.17
408.369	17.09
408.575	17.01
408.782	16.85
408.989	16.81
409.195	16.55
409.402	16.68
409.609	16.53
409.815	16.71
410.022	16.87
410.228	16.63
410.435	16.86
410.642	16.69
410.848	16.56
411.055	16.81
411.261	16.88
411.468	17.07
411.674	16.89
411.881	16.67
412.087	16.47
412.294	16.38
412.5	16.5
412.706	16.61
412.913	16.95
413.119	17.09
413.326	17.14
413.532	17.39
413.738	17.15
413.945	16.95
414.151	17.24
414.357	17.07
414.564	17.31
414.77	17.24
414.976	16.97
415.182	17.07
415.389	17.02
415.595	16.7
415.801	16.11
416.007	16.2
416.214	16.34
416.42	16.15
416.626	16.4
416.832	16.34
417.038	16.46
417.244	16.37
417.45	16.22
417.657	16.1
417.863	16.16
418.069	16.2
418.275	16.21
418.481	16.24
418.687	16.26
418.893	15.94
419.099	15.87
419.305	15.72
419.511	15.74
419.717	15.58
419.923	15.53
420.129	15.47
420.335	15.46
420.541	15.34
420.746	15.25
420.952	15.04
421.158	15.14
421.364	15
421.57	14.96
421.776	14.92
421.982	15.01
422.187	15.13
422.393	15.11
422.599	15.13
422.805	15.19
423.01	15.2
423.216	15.43
423.422	15.41
423.628	15.58
423.833	15.6
424.039	15.68
424.245	15.59
424.45	15.52
424.656	15.52
424.862	15.43
425.067	15.46
425.273	15.35
425.478	15.22
425.684	15.32
425.889	15.31
426.095	15.36
426.301	15.36
426.506	15.39
426.712	15.4
426.917	15.45
427.123	15.56
427.328	15.44
427.533	15.65
427.739	15.74
427.944	15.78
428.15	15.6
428.355	15.41
428.561	15.26
428.766	15.17
428.971	15.04
429.177	14.96
429.382	15.07
429.587	15.17
429.793	15.11
429.998	14.96
430.203	14.84
430.408	14.97
430.614	15.04
430.819	15.07
431.024	15.01
431.229	15.29
431.434	15.33
431.64	15.23
431.845	15.18
432.05	15.14
432.255	15.29
432.46	15.36
432.665	15.12
432.87	15.29
433.076	15.31
433.281	15.4
433.486	15.29
433.691	15.05
433.896	15.16
434.101	15.11
434.306	15.06
434.511	14.92
434.716	14.71
434.921	14.77
435.126	14.66
435.331	14.43
435.535	14.37
435.74	14.52
435.945	14.69
436.15	14.68
436.355	14.86
436.56	14.98
436.765	15.18
436.97	15.16
437.174	15.32
437.379	15.31
437.584	15.51
437.789	15.62
437.993	15.63
438.198	15.77
438.403	15.62
438.608	15.55
438.812	15.4
439.017	15.21
439.222	15.45
439.426	15.42
439.631	15.29
439.836	15.4
440.04	15.48
440.245	15.43
440.45	15.26
440.654	15.34
440.859	15.29
441.063	15.36
441.268	15.49
441.472	15.38
441.677	15.39
441.881	15.57
442.086	15.55
442.29	15.6
442.495	15.54
442.699	15.53
442.904	15.4
443.108	15.46
443.312	15.45
443.517	15.48
443.721	15.48
443.925	15.33
444.13	15.24
444.334	15.24
444.538	15.12
444.743	15.27
444.947	15.39
445.151	15.44
445.356	15.42
445.56	15.39
445.764	15.25
445.968	15.21
446.173	15.28
446.377	15.16
446.581	15.18
446.785	15.09
446.989	15
447.193	14.96
447.398	14.97
447.602	14.97
447.806	14.99
448.01	15.01
448.214	15.14
448.418	15.25
448.622	15.42
448.826	15.26
449.03	15.26
449.234	15.26
449.438	15.18
449.642	15.19
449.846	15.21
450.05	15.13
450.254	15.29
450.458	15.08
450.662	15
450.866	14.92
451.069	14.91
451.273	15.01
451.477	14.97
451.681	15.2
451.885	15.34
452.089	15.3
452.292	15.29
452.496	15.16
452.7	15.17
452.904	15.07
453.107	15.06
453.311	15.11
453.515	15.17
453.719	15.02
453.922	14.89
454.126	14.67
454.33	14.67
454.533	14.77
454.737	14.69
454.94	14.72
455.144	14.64
455.348	14.62
455.551	14.57
455.755	14.4
455.958	14.61
456.162	14.58
456.365	14.57
456.569	14.55
456.772	14.45
456.976	14.47
457.179	14.54
457.383	14.56
457.586	14.58
457.79	14.66
457.993	14.79
458.196	14.72
458.4	14.74
458.603	14.86
458.807	14.87
459.01	14.81
459.213	14.78
459.417	14.72
459.62	14.68
459.823	14.62
460.026	14.55
460.23	14.61
460.433	14.67
460.636	14.63
460.839	14.54
461.042	14.41
461.246	14.42
461.449	14.46
461.652	14.41
461.855	14.5
462.058	14.46
462.261	14.46
462.464	14.27
462.668	14.22
462.871	14.26
463.074	14.25
463.277	14.39
463.48	14.41
463.683	14.38
463.886	14.45
464.089	14.66
464.292	14.81
464.495	14.93
464.698	14.9
464.901	14.88
465.104	14.92
465.306	15.09
465.509	15.08
465.712	15.01
465.915	15.02
466.118	15.06
466.321	14.72
466.524	14.7
466.726	14.71
466.929	14.79
467.132	14.71
467.335	14.55
467.538	14.35
467.74	14.42
467.943	14.65
468.146	14.65
468.348	14.63
468.551	14.79
468.754	14.76
468.956	14.81
469.159	14.97
469.362	14.94
469.564	15.09
469.767	15.12
469.969	15.04
470.172	15.07
470.375	15.04
470.577	15.05
470.78	15.03
470.982	15.13
471.185	15.07
471.387	14.93
471.59	14.91
471.792	14.72
471.995	14.85
472.197	14.91
472.399	14.83
472.602	14.98
472.804	14.9
473.007	14.76
473.209	14.65
473.411	14.68
473.614	14.6
473.816	14.66
474.018	14.94
474.22	15.06
474.423	15.17
474.625	15.17
474.827	15.12
475.03	15.23
475.232	15.56
475.434	15.63
475.636	15.54
475.838	15.73
476.04	15.84
476.243	15.78
476.445	15.57
476.647	15.52
476.849	15.47
477.051	15.51
477.253	15.4
477.455	15.26
477.657	15.24
477.859	15.24
478.061	15.16
478.263	15.03
478.465	15.01
478.667	15.03
478.869	15.09
479.071	15.05
479.273	14.99
479.475	15.1
479.677	15.08
479.879	15.05
480.081	15.13
480.283	15.22
480.485	15.15
480.686	15.19
480.888	15.17
481.09	15.17
481.292	15.12
481.494	15.12
481.695	15.1
481.897	15.11
482.099	15.15
482.301	15.05
482.502	14.91
482.704	14.92
482.906	14.96
483.107	14.93
483.309	14.8
483.511	14.83
483.712	14.74
483.914	14.62
484.115	14.56
484.317	14.51
484.519	14.49
484.72	14.5
484.922	14.49
485.123	14.39
485.325	14.39
485.526	14.4
485.728	14.4
485.929	14.45
486.131	14.52
486.332	14.56
486.534	14.55
486.735	14.61
486.936	14.65
487.138	14.68
487.339	14.7
487.541	14.72
487.742	14.71
487.943	14.7
488.144	14.72
488.346	14.76
488.547	14.76
488.748	14.78
488.95	14.73
489.151	14.72
489.352	14.67
489.553	14.71
489.755	14.66
489.956	14.77
490.157	14.76
490.358	14.76
490.559	14.75
490.76	14.78
490.961	14.75
491.163	14.78
491.364	14.79
491.565	14.8
491.766	14.77
491.967	14.87
492.168	14.74
492.369	14.74
492.57	14.66
492.771	14.6
492.972	14.57
493.173	14.65
493.374	14.63
493.575	14.67
493.776	14.77
493.976	14.73
494.177	14.68
494.378	14.88
494.579	14.91
494.78	14.95
494.981	14.96
495.182	15.16
495.382	15.22
495.583	15.29
495.784	15.27
495.985	15.34
496.185	15.46
496.386	15.43
496.587	15.44
496.788	15.46
496.988	15.64
497.189	15.71
497.39	15.62
497.59	15.53
497.791	15.64
497.992	15.62
498.192	15.64
498.393	15.49
498.593	15.45
498.794	15.53
498.994	15.68
499.195	15.6
499.395	15.72
499.596	15.81
499.796	15.83
499.997	15.78
500.197	15.8
500.398	15.72
500.598	16.02
500.799	16.08
500.999	16.05
501.199	16.02
501.4	16.04
501.6	15.93
501.801	15.86
502.001	15.91
502.201	16.03
502.402	16.11
502.602	16.21
502.802	16.07
503.002	16.24
503.203	16.2
503.403	15.96
503.603	16.2
503.803	16.21
504.003	16.28
504.204	16.45
504.404	16.36
504.604	16.26
504.804	16.2
505.004	16.26
505.204	16.23
505.404	16.42
505.604	16.55
505.804	16.43
506.005	16.62
506.205	16.81
506.405	16.82
506.605	16.99
506.805	17.16
507.005	17.4
507.204	17.61
507.404	17.57
507.604	17.43
507.804	17.55
508.004	17.6
508.204	17.6
508.404	17.49
508.604	17.46
508.804	17.29
509.003	17.26
509.203	17.09
509.403	17.04
509.603	17.03
509.803	17.08
510.002	17.1
510.202	17.18
510.402	17.3
510.602	17.32
510.801	17.4
511.001	17.47
511.201	17.47
511.4	17.63
511.6	17.62
511.8	17.66
511.999	17.83
512.199	17.87
512.398	17.88
512.598	17.86
512.797	17.89
512.997	17.88
513.197	17.97
513.396	18.16
513.596	18.21
513.795	18.25
513.994	18.28
514.194	18.38
514.393	18.5
514.593	18.68
514.792	18.79
514.992	18.96
515.191	19.01
515.39	19.14
515.59	19.2
515.789	19.14
515.988	19.29
516.188	19.49
516.387	19.44
516.586	19.51
516.786	19.43
516.985	19.38
517.184	19.42
517.383	19.53
517.582	19.57
517.782	19.68
517.981	19.69
518.18	19.55
518.379	19.65
518.578	19.69
518.777	19.69
518.976	19.77
519.176	19.81
519.375	19.84
519.574	19.87
519.773	19.91
519.972	19.99
520.171	20.15
520.37	20.42
520.569	20.48
520.768	20.43
520.967	20.56
521.166	20.69
521.365	20.71
521.564	20.81
521.762	20.94
521.961	21
522.16	21.03
522.359	21.08
522.558	21.09
522.757	21.02
522.956	21.13
523.154	21.23
523.353	21.34
523.552	21.55
523.751	21.64
523.949	21.68
524.148	21.78
524.347	21.64
524.546	21.67
524.744	21.74
524.943	21.8
525.142	21.82
525.34	21.83
525.539	21.81
525.737	21.73
525.936	21.84
526.135	21.93
526.333	21.94
526.532	22.01
526.73	22.12
526.929	22.21
527.127	22.26
527.326	22.27
527.524	22.33
527.723	22.34
527.921	22.46
528.12	22.39
528.318	22.34
528.516	22.3
528.715	22.33
528.913	22.4
529.112	22.41
529.31	22.42
529.508	22.47
529.707	22.49
529.905	22.5
530.103	22.53
530.301	22.61
530.5	22.73
530.698	22.9
530.896	23.03
531.094	23.06
531.293	23.2
531.491	23.3
531.689	23.5
531.887	23.6
532.085	23.72
532.283	23.81
532.481	23.9
532.68	24.06
532.878	24.12
533.076	24.09
533.274	24.09
533.472	24.15
533.67	24.19
533.868	24.25
534.066	24.26
534.264	24.37
534.462	24.45
534.66	24.51
534.858	24.47
535.056	24.49
535.253	24.62
535.451	24.73
535.649	24.71
535.847	24.86
536.045	24.83
536.243	24.91
536.441	24.97
536.638	25.01
536.836	25.04
537.034	25.11
537.232	25.19
537.43	25.27
537.627	25.3
537.825	25.37
538.023	25.41
538.22	25.53
538.418	25.59
538.616	25.6
538.813	25.67
539.011	25.74
539.209	25.88
539.406	25.86
539.604	25.85
539.801	25.85
539.999	25.82
540.196	25.88
540.394	25.96
540.591	25.97
540.789	26.07
540.986	26.12
541.184	26.18
541.381	26.13
541.579	26.21
541.776	26.29
541.974	26.34
542.171	26.4
542.368	26.45
542.566	26.52
542.763	26.58
542.96	26.55
543.158	26.56
543.355	26.59
543.552	26.66
543.75	26.8
543.947	26.97
544.144	27.14
544.341	27.25
544.539	27.27
544.736	27.32
544.933	27.41
545.13	27.61
545.327	27.78
545.524	27.86
545.722	28.01
545.919	27.94
546.116	27.8
546.313	27.77
546.51	27.88
546.707	28.07
546.904	28.08
547.101	28.21
547.298	28.3
547.495	28.38
547.692	28.52
547.889	28.6
548.086	28.72
548.283	28.96
548.48	29.15
548.677	29.35
548.874	29.42
549.07	29.66
549.267	29.91
549.464	29.96
549.661	30
549.858	30.09
550.055	30.26
550.251	30.54
550.448	30.62
550.645	30.77
550.842	30.7
551.038	30.84
551.235	30.9
551.432	30.9
551.628	31.05
551.825	31.12
552.022	31.17
552.218	31.2
552.415	31.32
552.612	31.33
552.808	31.28
553.005	31.21
553.201	31.25
553.398	31.25
553.594	31.35
553.791	31.34
553.987	31.49
554.184	31.49
554.38	31.53
554.577	31.49
554.773	31.55
554.97	31.85
555.166	32.14
555.362	32.13
555.559	32.43
555.755	32.52
555.952	32.52
556.148	32.64
556.344	32.89
556.541	32.99
556.737	32.82
556.933	33.05
557.129	32.72
557.326	32.92
557.522	33.09
557.718	33.04
557.914	33.13
558.11	33.34
558.307	33.42
558.503	33.2
558.699	33.17
558.895	33.45
559.091	33.36
559.287	33.86
559.483	33.74
559.679	33.75
559.876	33.68
560.072	33.7
560.268	33.67
560.464	33.5
560.66	33.74
560.856	33.76
561.052	33.77
561.247	33.78
561.443	33.59
561.639	33.73
561.835	33.73
562.031	34.03
562.227	33.9
562.423	34.01
562.619	34.15
562.815	34.26
563.01	34.52
563.206	34.78
563.402	34.92
563.598	35.16
563.793	35.13
563.989	35.15
564.185	35.12
564.381	35.25
564.576	35.24
564.772	35.4
564.968	35.31
565.163	35.2
565.359	35.19
565.555	35.36
565.75	35.3
565.946	35.3
566.141	35.38
566.337	35.31
566.532	35.35
566.728	35.47
566.923	35.46
567.119	35.37
567.314	35.57
567.51	35.61
567.705	35.49
567.901	35.52
568.096	35.82
568.292	35.77
568.487	35.91
568.682	36.06
568.878	35.98
569.073	36.06
569.268	36.49
569.464	36.57
569.659	36.64
569.854	36.82
570.05	37.02
570.245	36.88
570.44	37.19
570.635	37.24
570.831	37.29
571.026	37.39
571.221	37.47
571.416	37.41
571.611	37.4
571.806	37.21
572.002	37.29
572.197	37.16
572.392	37.11
572.587	37.02
572.782	37.05
572.977	36.98
573.172	36.96
573.367	36.97
573.562	37.08
573.757	37.13
573.952	37.32
574.147	37.39
574.342	37.39
574.537	37.53
574.732	37.7
574.927	37.81
575.121	37.9
575.316	38.04
575.511	38.09
575.706	38.03
575.901	38.14
576.096	38.32
576.29	38.39
576.485	38.49
576.68	38.53
576.875	38.58
577.069	38.51
577.264	38.49
577.459	38.65
577.654	38.62
577.848	38.68
578.043	38.56
578.238	38.58
578.432	38.6
578.627	38.62
578.821	38.94
579.016	38.84
579.21	39.15
579.405	39.39
579.6	39.31
579.794	39.36
579.989	39.64
580.183	39.82
580.378	39.82
580.572	39.95
580.766	40.19
580.961	40.24
581.155	40.37
581.35	40.52
581.544	40.67
581.738	40.96
581.933	41.21
582.127	41.16
582.321	41.19
582.516	41.25
582.71	41.25
582.904	41.31
583.099	41.33
583.293	41.42
583.487	41.36
583.681	41.1
583.875	40.86
584.07	41
584.264	40.91
584.458	41.02
584.652	41.26
584.846	41.18
585.04	41.14
585.234	41.22
585.428	41.24
585.623	41.14
585.817	41.43
586.011	41.59
586.205	41.49
586.399	41.51
586.593	41.54
586.787	41.32
586.981	41.52
587.174	41.55
587.368	41.26
587.562	41.31
587.756	41.27
587.95	41.31
588.144	41.12
588.338	41.15
588.532	41.07
588.725	41.1
588.919	41.22
589.113	40.95
589.307	40.88
589.501	40.99
589.694	40.96
589.888	41.01
590.082	40.89
590.275	40.97
590.469	40.88
590.663	41.27
590.856	41.31
591.05	41.11
591.244	41.45
591.437	41.66
591.631	41.86
591.824	41.78
592.018	42.15
592.212	42.37
592.405	42.58
592.599	42.56
592.792	42.36
592.986	42.37
593.179	42.53
593.372	42.45
593.566	42.28
593.759	42.13
593.953	42.11
594.146	41.91
594.339	41.82
594.533	41.81
594.726	41.93
594.92	42.06
595.113	42.08
595.306	42.1
595.499	42.11
595.693	42.18
595.886	42.17
596.079	42.2
596.272	42.09
596.466	42.02
596.659	41.97
596.852	42.05
597.045	42.06
597.238	42
597.431	42.03
597.624	41.96
597.818	42.03
598.011	42.2
598.204	42.22
598.397	42.26
598.59	42.46
598.783	42.68
598.976	42.5
599.169	42.5
599.362	42.65
599.555	42.97
599.748	43.11
599.941	43.22
600.134	43.07
600.326	43.29
600.519	43.59
600.712	43.64
600.905	43.47
601.098	43.8
601.291	43.74
601.483	43.66
601.676	43.78
601.869	43.87
602.062	43.9
602.255	43.91
602.447	43.78
602.64	43.62
602.833	43.6
603.025	43.44
603.218	43.31
603.411	43.37
603.603	43.36
603.796	43.22
603.989	43.1
604.181	43.08
604.374	43.13
604.566	43.2
604.759	43.25
604.951	43.25
605.144	43.51
605.336	43.7
605.529	43.89
605.721	43.96
605.914	43.89
606.106	43.82
606.299	43.96
606.491	44.02
606.683	44.13
606.876	44.24
607.068	44.26
607.26	44.29
607.453	44.28
607.645	44.11
607.837	44.13
608.03	44.2
608.222	44.65
608.414	44.43
608.606	44.13
608.799	44.14
608.991	44.01
609.183	44.04
609.375	43.89
609.567	43.63
609.759	43.58
609.952	43.7
610.144	43.66
610.336	43.62
610.528	43.58
610.72	44.01
610.912	43.75
611.104	43.79
611.296	43.95
611.488	44.26
611.68	44.58
611.872	44.82
612.064	44.84
612.256	45.02
612.448	44.96
612.64	45.22
612.832	45.38
613.023	45.92
613.215	45.99
613.407	45.92
613.599	45.86
613.791	46.08
613.983	46.12
614.174	45.85
614.366	45.98
614.558	46.02
614.75	46.22
614.941	46.09
615.133	46.09
615.325	46.32
615.516	46.28
615.708	46.32
615.9	45.97
616.091	46.02
616.283	46.07
616.475	45.93
616.666	46.27
616.858	46.27
617.049	46.36
617.241	46.18
617.432	45.9
617.624	46.17
617.815	45.96
618.007	46.18
618.198	46.04
618.39	46.21
618.581	46.33
618.773	45.86
618.964	45.96
619.155	45.98
619.347	46.12
619.538	46.26
619.729	46.2
619.921	46.35
620.112	46.79
620.303	46.72
620.494	46.9
620.686	47.01
620.877	47.12
621.068	46.78
621.259	46.68
621.451	46.8
621.642	47.05
621.833	47.24
622.024	47.28
622.215	47.01
622.406	47.57
622.597	47.56
622.788	47.22
622.98	47.19
623.171	47.32
623.362	47.49
623.553	47.38
623.744	47.18
623.935	46.75
624.126	46.52
624.317	46.59
624.508	46.23
624.698	45.96
624.889	46.26
625.08	46.62
625.271	46.58
625.462	46.37
625.653	46.29
625.844	46.06
626.034	46.12
626.225	46.42
626.416	46.4
626.607	46.21
626.798	46.46
626.988	46.23
627.179	46.09
627.37	46.31
627.56	46.22
627.751	46.03
627.942	46.11
628.132	46.19
628.323	46.32
628.514	46.23
628.704	46.35
628.895	46.24
629.085	46.38
629.276	46.44
629.466	46.23
629.657	46.26
629.847	46.58
630.038	46.77
630.228	47
630.419	46.75
630.609	46.63
630.8	47
630.99	47.32
631.181	47.39
631.371	47.6
631.561	47.78
631.752	48.08
631.942	48.11
632.132	48.23
632.323	47.95
632.513	48.32
632.703	48.14
632.893	47.98
633.084	47.85
633.274	47.89
633.464	47.56
633.654	47.48
633.844	47.3
634.034	47.41
634.225	47.26
634.415	47.36
634.605	47.13
634.795	47.51
634.985	47.51
635.175	47.53
635.365	47.16
635.555	47.19
635.745	47.49
635.935	47.51
636.125	47.28
636.315	47.37
636.505	47.48
636.695	47.58
636.885	47.72
637.075	47.94
637.265	47.96
637.455	48.54
637.644	48.83
637.834	48.7
638.024	48.79
638.214	49.2
638.404	49.34
638.593	49.42
638.783	49.21
638.973	49.2
639.163	48.83
639.352	49
639.542	49.05
639.732	49.25
639.921	49.11
640.111	49.51
640.301	49.59
640.49	50.04
640.68	49.91
640.87	49.94
641.059	50.13
641.249	50.61
641.438	50.38
641.628	50.36
641.817	50.16
642.007	50.34
642.196	50.29
642.386	50.04
642.575	49.84
642.764	49.88
642.954	50.08
643.143	49.95
643.333	49.92
643.522	49.91
643.711	49.93
643.901	49.68
644.09	49.78
644.279	49.74
644.469	49.93
644.658	49.36
644.847	49.68
645.036	49.39
645.226	49.66
645.415	49.61
645.604	49.59
645.793	49.54
645.982	49.55
646.171	49.12
646.361	48.88
646.55	48.48
646.739	48.97
646.928	48.56
647.117	48.93
647.306	48.83
647.495	48.56
647.684	48.41
647.873	48.11
648.062	48.25
648.251	48.96
648.44	49.13
648.629	49.47
648.818	49.41
649.007	49.7
649.196	49.68
649.384	49.61
649.573	49.49
649.762	50
649.951	50
650.14	50.36
650.328	50.35
650.517	50.34
650.706	50.56
650.895	50.3
651.083	49.97
651.272	49.93
651.461	49.44
651.65	49.43
651.838	49.45
652.027	49.23
652.216	49.08
652.404	48.86
652.593	48.73
652.781	48.43
652.97	48.74
653.158	49.14
653.347	49.22
653.535	49.72
653.724	50.16
653.912	49.89
654.101	50.45
654.289	50.48
654.478	50.59
654.666	50.67
654.855	50.59
655.043	50.49
655.231	50.09
655.42	50.07
655.608	49.52
655.796	49.39
655.985	49.5
656.173	49.28
656.361	49.37
656.55	49.33
656.738	49.25
656.926	49.82
657.114	49.69
657.302	50.02
657.491	49.66
657.679	49.49
657.867	49.19
658.055	49.33
658.243	49.07
658.431	48.95
658.619	48.69
658.807	48.76
658.996	48.4
659.184	48.64
659.372	48.45
659.56	48.68
659.748	49.33
659.936	49.79
660.124	49.4
660.311	49.95
660.499	49.63
660.687	49.58
660.875	49.86
661.063	49.86
661.251	50.12
661.439	50.37
661.627	50.69
661.814	50.52
662.002	50.47
662.19	50.73
662.378	50.6
662.565	50.85
662.753	51.12
662.941	50.69
663.129	50.59
663.316	50.34
663.504	50.35
663.692	50.11
663.879	50.2
664.067	50.17
664.254	50.48
664.442	50.69
664.63	51.09
664.817	51.03
665.005	51.28
665.192	51.15
665.38	51.35
665.567	50.97
665.755	51.32
665.942	51.57
666.13	51.21
666.317	51.09
666.504	50.43
666.692	50.44
666.879	50.93
667.067	51.17
667.254	51.83
667.441	51.41
667.629	51.82
667.816	51.75
668.003	51.51
668.19	51.82
668.378	51.85
668.565	52.23
668.752	52.23
668.939	52.08
669.127	52.05
669.314	52
669.501	52.14
669.688	52.17
669.875	51.82
670.062	52.03
670.249	52.34
670.436	52.34
670.623	52.13
670.81	52.35
670.997	52.19
671.184	52.05
671.371	51.87
671.558	51.76
671.745	51.57
671.932	51.77
672.119	51.54
672.306	51.35
672.493	51.74
672.68	52.12
672.867	51.58
673.054	51.7
673.24	51.8
673.427	51.63
673.614	51.73
673.801	52.01
673.988	51.69
674.174	51.79
674.361	51.81
674.548	51.24
674.734	50.97
674.921	51.15
675.108	51.06
675.294	51.06
675.481	51.35
675.668	52.01
675.854	51.72
676.041	51.93
676.227	51.83
676.414	51.97
676.601	52.12
676.787	52.26
676.974	52.35
677.16	52.43
677.347	52.43
677.533	52.56
677.719	52.35
677.906	51.98
678.092	52.62
678.279	52.41
678.465	51.78
678.651	51.97
678.838	51.89
679.024	51.55
679.21	51.46
679.397	51.16
679.583	50.91
679.769	50.58
679.955	51
680.142	50.68
680.328	51.04
680.514	51.27
680.7	51.3
680.886	51.26
681.073	51.48
681.259	51.62
681.445	51.8
681.631	51.95
681.817	51.91
682.003	51.95
682.189	51.71
682.375	51.51
682.561	51.42
682.747	51.66
682.933	51.87
683.119	51.82
683.305	51.76
683.491	51.8
683.677	51.84
683.863	51.99
684.049	51.98
684.235	52.09
684.42	52.3
684.606	52.33
684.792	51.92
684.978	52.01
685.164	52
685.349	51.96
685.535	51.91
685.721	51.88
685.907	51.81
686.092	51.72
686.278	51.67
686.464	51.55
686.649	51.85
686.835	51.83
687.021	52.03
687.206	51.49
687.392	51.46
687.577	51.7
687.763	51.93
687.948	52.08
688.134	51.74
688.319	51.83
688.505	51.98
688.69	51.83
688.876	51.83
689.061	51.38
689.247	52.1
689.432	52.05
689.618	51.72
689.803	51.52
689.988	51.29
690.174	51.86
690.359	51.8
690.544	51.54
690.73	51.82
690.915	51.77
691.1	52.3
691.285	52.22
691.471	52.25
691.656	52.74
691.841	52.81
692.026	52.32
692.211	52.27
692.396	52.61
692.582	52.66
692.767	52.48
692.952	52.44
693.137	51.63
693.322	51.8
693.507	51.86
693.692	51.85
693.877	52.01
694.062	52.68
694.247	52.69
694.432	52.57
694.617	52.33
694.802	52.28
694.987	52.97
695.172	53.62
695.357	53.37
695.541	53.65
695.726	53.5
695.911	53.31
696.096	53.44
696.281	53.33
696.466	53.19
696.65	53.37
696.835	53.37
697.02	52.96
697.204	52.99
697.389	53.11
697.574	52.6
697.759	52.44
697.943	51.94
698.128	51.69
698.312	51.54
698.497	51.21
698.682	51.24
698.866	51.17
699.051	51.13
699.235	50.95
699.42	50.9
699.604	50.98
699.789	50.75
699.973	50.92
700.158	51.02
700.342	51.3
700.527	51.77
700.711	52.04
700.895	52.38
701.08	52.12
701.264	52.49
701.448	52.49
701.633	52.54
701.817	53.27
702.001	53.5
702.186	53.99
702.37	53.96
702.554	53.89
702.738	53.54
702.923	53.64
703.107	53.85
703.291	53.5
703.475	53.16
703.659	53.06
703.843	52.67
704.027	52.6
704.212	51.95
704.396	52.23
704.58	52.67
704.764	52.72
704.948	52.29
705.132	52.64
705.316	53.12
705.5	53.51
705.684	53.46
705.868	53.89
706.052	54.2
706.235	54.82
706.419	54.66
706.603	54.66
706.787	54.9
706.971	55.1
707.155	54.97
707.339	54.8
707.522	54.49
707.706	54.76
707.89	54.29
708.074	54.34
708.257	54.11
708.441	54.51
708.625	53.87
708.808	53.93
708.992	53.93
709.176	54.11
709.359	54.3
709.543	54.97
709.727	54.96
709.91	54.54
710.094	54.32
710.277	54.19
710.461	53.57
710.644	53.87
710.828	53.84
711.011	53.86
711.195	53.33
711.378	53.44
711.562	53.07
711.745	53.15
711.928	53.87
712.112	54.24
712.295	54.47
712.478	54.72
712.662	54.84
712.845	54.99
713.028	54.81
713.212	55.01
713.395	54.57
713.578	54.04
713.761	54.26
713.945	54.06
714.128	53.76
714.311	54.11
714.494	54.06
714.677	53.74
714.86	52.91
715.043	52.65
715.227	53.08
715.41	52.93
715.593	53.35
715.776	52.81
715.959	52.52
716.142	51.96
716.325	51.46
716.508	51.22
716.691	51.45
716.874	51.89
717.057	52.13
717.239	51.57
717.422	51.78
717.605	51.63
717.788	52.36
717.971	52.8
718.154	53.5
718.337	53.07
718.519	54.07
718.702	53.86
718.885	53.71
719.068	54.03
719.25	54.49
719.433	53.93
719.616	54.74
719.798	54.61
719.981	55.5
720.164	55.45
720.346	55.89
720.529	54.78
720.712	54.91
720.894	55.07
721.077	54.86
721.259	54.98
721.442	55.54
721.624	54.54
721.807	54.4
721.989	53.61
722.172	53.49
722.354	53.57
722.537	54.17
722.719	54.65
722.901	55.29
723.084	55.26
723.266	55.58
723.448	55.85
723.631	56.66
723.813	56.93
723.995	56.46
724.178	56.36
724.36	56.44
724.542	56.02
724.724	55.21
724.907	54.61
725.089	54.62
725.271	54.56
725.453	53.49
725.635	53.66
725.817	53.74
725.999	54.6
726.181	54.93
726.364	55.31
726.546	54.91
726.728	55.71
726.91	55.85
727.092	55.5
727.274	55.02
727.456	55.21
727.638	54.16
727.819	54.17
728.001	53.65
728.183	53.65
728.365	53.53
728.547	54.25
728.729	54.38
728.911	54.22
729.093	55.04
729.274	55.05
729.456	55.34
729.638	56.33
729.82	55.63
730.001	55.28
730.183	54.74
730.365	54
730.546	54.12
730.728	53.36
730.91	53.16
731.091	52.98
731.273	53.03
731.455	53.28
731.636	52.58
731.818	53.44
731.999	54.14
732.181	54.3
732.362	55.34
732.544	55.29
732.725	55.7
732.907	55.43
733.088	55.88
733.27	56.37
733.451	55.98
733.633	56.36
733.814	55.89
733.995	55.2
734.177	55.37
734.358	54.79
734.539	54.84
734.721	54.72
734.902	54.72
735.083	53.63
735.264	53.54
735.446	54.62
735.627	54.4
735.808	54.89
735.989	55.4
736.17	55.84
736.351	56.12
736.533	56.28
736.714	57.14
736.895	58.15
737.076	58.78
737.257	58.75
737.438	58.4
737.619	58.33
737.8	57.43
737.981	57.47
738.162	57.63
738.343	56.66
738.524	56.27
738.705	55.95
738.886	56.93
739.067	57.13
739.247	56.56
739.428	56.52
739.609	57.04
739.79	57.51
739.971	57.94
740.151	58.19
740.332	58.91
740.513	59.38
740.694	59
740.874	57.98
741.055	57.76
741.236	58.26
741.417	58.43
741.597	58.75
741.778	59.88
741.958	59.6
742.139	59.95
742.32	60.61
742.5	60.59
742.681	60.18
742.861	60.27
743.042	59.94
743.222	60.59
743.403	60.26
743.583	59.52
743.764	58.43
743.944	59.15
744.124	58.15
744.305	58.17
744.485	58.16
744.666	58.55
744.846	58.91
745.026	60
745.207	59.58
745.387	60.75
745.567	61.19
745.747	60.54
745.928	59.66
746.108	60.35
746.288	60.91
746.468	60.62
746.648	60.79
746.829	61.19
747.009	61.08
747.189	60.88
747.369	59.93
747.549	60.88
747.729	62.06
747.909	61.94
748.089	61.26
748.269	59.45
748.449	59.34
748.629	59.64
748.809	58.41
748.989	57.87
749.169	57.38
749.349	57.51
749.529	57.54
749.709	57.35
749.889	57.78
750.068	58.07
750.248	57.73
750.428	57.45
750.608	57.3
750.788	58.34
750.967	57.83
751.147	58.22
751.327	57.92
751.507	57.02
751.686	56.82
751.866	58.27
752.046	58.9
752.225	60.34
752.405	60.66
752.585	61.02
752.764	61.34
752.944	61.25
753.123	61.31
753.303	61.95
753.482	61.3
753.662	62.25
753.841	61.48
754.021	62.09
754.2	61.5
754.38	61.89
754.559	61.71
754.739	61.52
754.918	61.77
755.097	61.83
755.277	61.45
755.456	62.37
755.635	61.92
755.815	62.43
755.994	61.81
756.173	61.57
756.352	61.8
756.532	61.71
756.711	60.94
756.89	61.35
757.069	61.6
757.248	61.76
757.427	61.34
757.607	60.65
757.786	59.75
757.965	59.08
758.144	59.53
758.323	59.2
758.502	58.69
758.681	58.32
758.86	58.25
759.039	57.14
759.218	56.13
759.397	56.36
759.576	56.05
759.755	55.22
759.934	55.41
760.113	55.64
760.291	55.07
760.47	55.43
760.649	55.95
760.828	55.69
761.007	55.9
761.186	56.08
761.364	56.01
761.543	56.35
761.722	56.24
761.901	55.1
762.079	54.22
762.258	54.62
762.437	55.09
762.615	54.86
762.794	54.69
762.972	54.83
763.151	55.02
763.33	54.39
763.508	54.43
763.687	54.41
763.865	54.44
764.044	54.78
764.222	55
764.401	54.13
764.579	54.05
764.758	54.51
764.936	54.36
765.114	54.59
765.293	55.5
765.471	56.23
765.65	56.53
765.828	57.67
766.006	57.99
766.184	57.49
766.363	57.7
766.541	57.92
766.719	57.9
766.898	58.45
767.076	58.52
767.254	58.82
767.432	57.39
767.61	57.61
767.788	57.97
767.967	58.6
768.145	59.03
768.323	59.88
768.501	59.72
768.679	60.49
768.857	60.16
769.035	60.65
769.213	59.22
769.391	59.81
769.569	61.93
769.747	60.28
769.925	59.91
770.103	61
770.281	60.46
770.459	61.27
770.636	60.28
770.814	61.2
770.992	60.82
771.17	62.63
771.348	65.15
771.525	63.29
771.703	65.01
771.881	65.66
772.059	65.85
772.236	65.58
772.414	66.38
772.592	68.14
772.769	69.07
772.947	70.38
773.125	69.96
773.302	66.87
773.48	66.85
773.657	65.25
773.835	64.59
774.013	63.35
774.19	64.19
774.368	61.16
774.545	59.29
774.723	58.77
774.9	56.53
775.077	56.82
775.255	57.66
775.432	57.83
775.61	58.64
775.787	58.53
775.964	59.54
776.142	58.21
776.319	60.53
776.496	62
776.674	62.07
776.851	62.11
777.028	63
777.205	63.63
777.382	64.63
777.56	64.05
777.737	64.9
777.914	63.25
778.091	66.18
778.268	64.46
778.445	63.67
778.622	62.23
778.8	63.95
778.977	62.54
779.154	59.83
779.331	60.06
779.508	60.39
779.685	58.57
779.862	59.85
780.038	58.47
780.215	58.8
780.392	59.66
780.569	60.94
780.746	60.28
780.923	59.01
781.1	60.71
781.277	59.77
781.453	59.57
781.63	59.43
781.807	60.22
781.984	58.99
782.16	58.51
782.337	57.35
782.514	57.5
782.691	58.64
782.867	59.7
783.044	60.82
783.221	59.54
783.397	61.88
783.574	62.49
783.75	62.8
783.927	64.34
784.103	65.1
784.28	66.27
784.456	66.43
784.633	65.44
784.809	65.48
784.986	63.88
785.162	63.82
785.339	61.83
785.515	63.41
785.692	59.64
785.868	58.02
786.044	59.79
786.221	59.41
786.397	59.18
786.573	57.93
786.749	58.58
786.926	59.55
787.102	61
787.278	59.02
787.454	58.04
787.631	59.08
787.807	61.43
787.983	61.16
788.159	59.47
788.335	57.96
788.511	60.36
788.687	60.52
788.863	60.44
789.039	59.58
789.216	60.06
789.392	60.22
789.568	60.62
789.744	59.15
789.919	58.43
790.095	58.87
790.271	59.66
790.447	57.28
790.623	56.5
790.799	57.92
790.975	58.35
791.151	61.28
791.327	61.24
791.502	61.67
791.678	61.97
791.854	61.96
792.03	60.99
792.205	62.27
792.381	61.71
792.557	58.49
792.733	57.82
792.908	56.55
793.084	55.85
793.259	54.5
793.435	56.63
793.611	58.31
793.786	58.3
793.962	58.98
794.137	58.82
794.313	61.24
794.488	64.27
794.664	64.21
794.839	64.15
795.015	62.56
795.19	61.35
795.366	61.57
795.541	59.81
795.716	59.42
795.892	60.31
796.067	57.96
796.242	55.99
796.418	56.38
796.593	56.96
796.768	60.1
796.944	60.72
797.119	61.74
797.294	60.12
797.469	61.14
797.644	61.67
797.82	60.66
797.995	64.06
798.17	66.34
798.345	66.48
798.52	65.32
798.695	63.59
798.87	63.91
799.045	64.45
799.22	63.63
799.395	64.18
799.57	61.81
799.745	62.27
799.92	60.73
800.095	61.77
800.27	60.02
800.445	60.9
800.62	61.86
800.795	61.72
800.97	62.54
801.145	61.64
801.319	58.69
801.494	60.77
801.669	62.28
801.844	60.37
802.018	56.46
802.193	57.51
802.368	52.75
802.543	53.36
802.717	52.04
802.892	50.91
803.067	53.17
803.241	55.43
803.416	54.72
803.59	54.59
803.765	60.23
803.94	60.72
804.114	58.49
804.289	63.13
804.463	61.43
804.638	61.96
804.812	62.64
804.986	62.3
805.161	64.49
805.335	65.62
805.51	62.97
805.684	59.1
805.858	60.78
806.033	65.57
806.207	66.31
806.381	66.04
806.556	66.19
806.73	64.76
806.904	63.44
807.078	61.71
807.253	61.93
807.427	64.24
807.601	63.53
807.775	62.11
807.949	59.77
808.123	57.29
808.298	57.36
808.472	59.28
808.646	61.69
808.82	62.04
808.994	60.46
809.168	59.31
809.342	57.94
809.516	59.25
809.69	59.32
809.864	58.91
810.038	59.99
810.212	60.51
810.385	59.68
810.559	57.8
810.733	58.28
810.907	59.58
811.081	59.8
811.255	58.79
811.428	58.34
811.602	62.61
811.776	61.06
811.95	61.93
812.123	63.89
812.297	62.76
812.471	65.63
812.644	65.24
812.818	61.88
812.992	62.09
813.165	63
813.339	64.18
813.512	60.07
813.686	62.16
813.86	61.62
814.033	59.66
814.207	60.87
814.38	57.7
814.554	58.38
814.727	60.99
814.9	59.32
815.074	57.12
815.247	54.18
815.421	53.59
815.594	54.47
815.767	56.11
815.941	55.7
816.114	51.12
816.287	52.37
816.46	51.41
816.634	51.87
816.807	53.37
816.98	54.93
817.153	57.49
817.327	59.1
817.5	56.13
817.673	54.71
817.846	54.53
818.019	57.28
818.192	56.85
818.365	55.68
818.538	55.46
818.711	53.6
818.884	53.84
819.057	51.88
819.23	51.56
819.403	51.77
819.576	50.65
819.749	50.28
819.922	49.64
820.095	48.06
820.268	48.82
820.441	49.95
820.614	50
820.786	50.46
820.959	50.94
821.132	50.94
821.305	53.06
821.477	53.26
821.65	53.62
821.823	53.6
821.996	54.04
822.168	53.7
822.341	52.41
822.514	52.39
822.686	52.61
822.859	53.07
823.031	52.77
823.204	52.16
823.376	51.7
823.549	51.62
823.722	51.33
823.894	51.01
824.067	51.16
824.239	51.42
824.411	52.04
824.584	52.01
824.756	51.3
824.929	51.52
825.101	51.99
825.273	52.14
825.446	52.42
825.618	52.54
825.79	53.08
825.963	53.03
826.135	53.5
826.307	53.54
826.479	53.37
826.652	53.84
826.824	54.21
826.996	52.69
827.168	53.08
827.34	53.67
827.512	53.19
827.684	53.98
827.856	54.32
828.029	53.9
828.201	53.61
828.373	53.85
828.545	54.37
828.717	52.97
828.889	54.86
829.061	55.59
829.232	55.43
829.404	57.02
829.576	56.53
829.748	55.88
829.92	56.52
830.092	56.03
830.264	56.37
830.436	54.71
830.607	55.22
830.779	54.87
830.951	55.15
831.123	53.88
831.294	53.02
831.466	52.59
831.638	53.76
831.809	53.47
831.981	54.89
832.153	54.38
832.324	55.07
832.496	56.25
832.667	55.33
832.839	54.99
833.011	55.01
833.182	57.23
833.354	54.67
833.525	52.8
833.697	54.16
833.868	51.95
834.039	51.16
834.211	51.43
834.382	52.22
834.554	53.23
834.725	51.69
834.896	53.19
835.068	52.76
835.239	53.72
835.41	55.43
835.581	53.47
835.753	56.07
835.924	55.92
836.095	55.84
836.266	54.85
836.438	53.33
836.609	54.62
836.78	52.77
836.951	51.86
837.122	52.42
837.293	51.49
837.464	54.35
837.635	52.12
837.806	53.36
837.977	54.67
838.148	54.99
838.319	56.89
838.49	54.97
838.661	53.81
838.832	54.22
839.003	53.15
839.174	53.09
839.345	51.27
839.516	51.04
839.687	50.82
839.857	52.44
840.028	51.31
840.199	48.55
840.37	52.13
840.54	56.84
840.711	53.96
840.882	57.05
841.053	60.67
841.223	59.42
841.394	61.51
841.564	63.48
841.735	59.61
841.906	66.83
842.076	68.36
842.247	65.08
842.417	62.58
842.588	63.28
842.758	66.2
842.929	65.52
843.099	67.79
843.27	65.87
843.44	66.29
843.611	67.34
843.781	61.86
843.951	63.5
844.122	65.11
844.292	64.9
844.462	67.72
844.633	61.74
844.803	55.3
844.973	51.28
845.144	53.41
845.314	47.55
845.484	47.65
845.654	48.17
845.824	53.67
845.995	50.32
846.165	54.66
846.335	55.81
846.505	56.95
846.675	64.67
846.845	73.88
847.015	72.42
847.185	87.49
847.355	90.24
847.525	91.46
847.695	84.73
847.865	97.9
848.035	87.06
848.205	90.5
848.375	90.05
848.545	84.85
848.715	81.34
848.884	83.88
849.054	75.05
849.224	77.38
849.394	69.39
849.564	66.16
849.733	65.54
849.903	73.99
850.073	67.45
850.243	70.71
850.412	60.08
850.582	62.46
850.752	58.08
850.921	53.99
851.091	61.75
851.26	79.63
851.43	77.3
851.599	67.48
851.769	66.27
851.939	59.78
852.108	60.14
852.278	72.66
852.447	69.46
852.616	62.04
852.786	68.43
852.955	63.72
853.125	59.26
853.294	59.61
853.463	56.92
853.633	56.01
853.802	65.52
853.971	59.31
854.141	59.74
854.31	62.66
854.479	78.58
854.648	83.46
854.818	86.2
854.987	80.62
855.156	89.66
855.325	90.67
855.494	93.87
855.663	86.27
855.832	86.56
856.001	86.06
856.171	84.1
856.34	73.95
856.509	71.49
856.678	66.79
856.847	63
857.016	61.79
857.185	58.15
857.353	58.78
857.522	59.94
857.691	59.23
857.86	57.99
858.029	60.91
858.198	62.93
858.367	56.45
858.535	54.69
858.704	56.48
858.873	51.66
859.042	47.39
859.21	51.79
859.379	48.49
859.548	45.43
859.717	51.63
859.885	51.37
860.054	47.43
860.222	55.29
860.391	59.89
860.56	65
860.728	65.98
860.897	70.98
861.065	60.43
861.234	65.95
861.402	69.5
861.571	67.4
861.739	61.26
861.908	61
862.076	66.17
862.244	62.45
862.413	60.1
862.581	58.49
862.749	66.21
862.918	70.74
863.086	67.85
863.254	69.03
863.423	58.82
863.591	62.95
863.759	61.89
863.927	55.7
864.096	64.6
864.264	71.52
864.432	84.55
864.6	76.3
864.768	84.15
864.936	88.6
865.104	83.66
865.272	105.99
865.44	94.11
865.608	91.52
865.776	75.94
865.944	67.81
866.112	64
866.28	51.47
866.448	53.28
866.616	47.08
866.784	46.47
866.952	39.5
867.12	29.95
867.288	42.27
867.455	51.03
867.623	55.42
867.791	57.18
867.959	45.6
868.127	51.91
868.294	58.92
868.462	63.18
868.63	62.02
868.797	66.31
868.965	76.58
869.133	65.4
869.3	62.89
869.468	64.41
869.636	55.92
869.803	61.15
869.971	65.11
870.138	54.62
870.306	51.59
870.473	51.46
870.641	45.86
870.808	44.89
870.975	50.65
871.143	45.84
871.31	42.6
871.478	51.23
871.645	47.78
871.812	34.75
871.98	47.04
872.147	46.25
872.314	43.14
872.482	47.11
872.649	31.27
872.816	30.46
872.983	32.16
873.15	37.82
873.318	46.27
873.485	58.23
873.652	52.54
873.819	52.66
873.986	57.73
874.153	59.93
874.32	53.34
874.487	51.19
874.654	49.79
874.821	49.63
874.988	47.42
875.155	47.67
875.322	45.21
875.489	53.92
875.656	59.55
875.823	62.86
875.99	74.81
876.157	84.26
876.324	82.75
876.49	96.67
876.657	104.98
876.824	112.86
876.991	112.67
877.157	114.93
877.324	107.84
877.491	98.93
877.658	82.14
877.824	68.29
877.991	65.45
878.157	67.79
878.324	62.14
878.491	47.82
878.657	53.76
878.824	57.8
878.99	55.58
879.157	58.76
879.323	57.73
879.49	62.52
879.656	66.59
879.823	70.16
879.989	70.78
880.156	67.98
880.322	68.77
880.488	66.72
880.655	63.62
880.821	66.37
880.987	62.27
881.154	62.17
881.32	59.24
881.486	60.68
881.652	53.55
881.819	54.78
881.985	56.4
882.151	59.27
882.317	60.25
882.483	58.16
882.649	56.25
882.816	57.42
882.982	55.49
883.148	54.63
883.314	53
883.48	53.16
883.646	53.31
883.812	53.25
883.978	53.24
884.144	51.09
884.31	51.62
884.476	52.27
884.642	51.06
884.807	52.23
884.973	52.36
885.139	53.06
885.305	54.22
885.471	55.64
885.637	53.79
885.802	52.04
885.968	54.01
886.134	54.27
886.3	52.59
886.465	53.65
886.631	51.63
886.797	53.77
886.962	53.54
887.128	51.96
887.293	51.21
887.459	55.95
887.625	54.16
887.79	54.59
887.956	54.66
888.121	57.17
888.287	57.5
888.452	60.33
888.618	59.07
888.783	58.88
