Data from LC_266_Reflection_1.txt Node
Date: Sat Nov 21 11:54:05 EST 2015
User: robert
Spectrometer: USB4E03001
Autoset integration time: false
Trigger mode: 4
Integration Time (sec): 1.000000E-1
Scans to average: 15
Electric dark correction enabled: true
Nonlinearity correction enabled: false
Boxcar width: 5
Stray light correction enabled: false
XAxis mode: Wavelengths
Stop averaging: false
Number of Pixels in Spectrum: 3648
>>>>>Begin Spectral Data<<<<<
177.566	185.39
177.785	149.54
178.005	252.85
178.225	85.1
178.445	250.51
178.665	115.88
178.885	-517.01
179.105	-79.04
179.324	54.06
179.544	128.77
179.764	510.76
179.984	65.26
180.204	68.85
180.423	83.68
180.643	101.21
180.863	135.58
181.083	123.06
181.302	136.32
181.522	150.57
181.742	136.16
181.961	106.59
182.181	81.41
182.401	138.25
182.621	116.79
182.84	126.58
183.06	108.98
183.279	87.74
183.499	93.17
183.719	87.76
183.938	70.28
184.158	80.18
184.377	69.03
184.597	72.13
184.816	77.19
185.036	75.93
185.256	73.16
185.475	65.74
185.695	58.33
185.914	56.15
186.134	55.38
186.353	53.7
186.572	67.44
186.792	65.26
187.011	72.96
187.231	74.29
187.45	76.97
187.67	68.55
187.889	80.24
188.108	100.78
188.328	106.82
188.547	109.87
188.766	86.64
188.986	39.24
189.205	-62.91
189.424	-351.78
189.644	-310.98
189.863	350.59
190.082	714.15
190.302	-1165.41
190.521	-155.94
190.74	-128.52
190.959	-123.81
191.178	-88.34
191.398	-35.75
191.617	-25.37
191.836	-43.26
192.055	-31.93
192.274	-28.39
192.494	-19.31
192.713	-20.11
192.932	-9.54
193.151	-11.13
193.37	-3.07
193.589	-0.41
193.808	-17.18
194.027	8.11
194.246	18.1
194.465	11.55
194.685	32.03
194.904	38.95
195.123	30.05
195.342	20.78
195.561	33.47
195.78	3.28
195.999	6.89
196.218	26.94
196.436	7.03
196.655	-4.42
196.874	26.14
197.093	45.77
197.312	29.51
197.531	91.65
197.75	80.72
197.969	71.74
198.188	92.05
198.407	88.92
198.625	72.17
198.844	92.4
199.063	91.5
199.282	88.74
199.501	84.53
199.719	96.12
199.938	81.76
200.157	63.72
200.376	40.67
200.594	26.33
200.813	15.88
201.032	17.3
201.251	-2.21
201.469	-18.99
201.688	-23.89
201.907	-49.49
202.125	-17.88
202.344	-30.02
202.563	-39.63
202.781	-31.02
203	-13.74
203.218	-0.4
203.437	-15.08
203.656	27.66
203.874	89.45
204.093	2.67
204.311	40.11
204.53	71.05
204.748	6.42
204.967	63.69
205.185	44.85
205.404	36.59
205.622	182.41
205.841	102.92
206.059	50.6
206.278	3.19
206.496	0.81
206.715	-132.88
206.933	-38.71
207.151	10.11
207.37	-24.41
207.588	-81.4
207.806	-58.67
208.025	-78.51
208.243	-43.3
208.461	-33.55
208.68	29.93
208.898	72.27
209.116	70.79
209.335	46.28
209.553	40.8
209.771	32.99
209.989	42.77
210.208	35.03
210.426	43.16
210.644	28.74
210.862	43.57
211.081	-91.66
211.299	-46.37
211.517	-6.91
211.735	-4.65
211.953	20.29
212.171	23.42
212.39	41.33
212.608	36.34
212.826	33.8
213.044	42.2
213.262	32.22
213.48	51.12
213.698	48.95
213.916	34.88
214.134	44.96
214.352	45.07
214.57	53.93
214.788	50.84
215.006	54
215.224	55.62
215.442	33.21
215.66	30.63
215.878	17.32
216.096	22.08
216.314	43.61
216.532	34.11
216.75	35.82
216.968	20.92
217.185	35.75
217.403	23.34
217.621	19.51
217.839	31.7
218.057	34.08
218.275	4.6
218.492	-2.62
218.71	-21.89
218.928	-6.76
219.146	-27.01
219.363	-1.2
219.581	-30.25
219.799	5.35
220.017	25.27
220.234	37.54
220.452	18.73
220.67	43.35
220.887	44.14
221.105	52.95
221.323	36.02
221.54	47.59
221.758	32.87
221.976	29.57
222.193	26.23
222.411	30.09
222.629	21.48
222.846	37.79
223.064	38.25
223.281	42.41
223.499	35.22
223.716	38.18
223.934	34.02
224.151	38.83
224.369	16
224.586	12.09
224.804	11.92
225.021	10.54
225.239	2.39
225.456	13.14
225.674	9.47
225.891	20.89
226.108	26.59
226.326	31.25
226.543	22.36
226.76	24.39
226.978	25.52
227.195	16.39
227.413	15.86
227.63	22.78
227.847	16.89
228.064	16.26
228.282	9.13
228.499	9
228.716	7.98
228.934	9.38
229.151	11.22
229.368	10.64
229.585	13.56
229.802	16.21
230.02	11.3
230.237	10.63
230.454	10.24
230.671	12.42
230.888	11.11
231.105	9.14
231.323	8.7
231.54	7.61
231.757	6.75
231.974	5.81
232.191	-0.26
232.408	7.27
232.625	6.97
232.842	7.74
233.059	10.68
233.276	12.54
233.493	20.18
233.71	24.23
233.927	20.94
234.144	23.99
234.361	25.11
234.578	27.09
234.795	24.44
235.012	24.22
235.229	26.18
235.446	23.55
235.663	20.5
235.879	14.63
236.096	10.86
236.313	17.18
236.53	12.47
236.747	6.85
236.964	1.67
237.181	1.24
237.397	2.16
237.614	-0.91
237.831	-1.26
238.048	0.26
238.264	3.74
238.481	7.04
238.698	4.11
238.915	9.22
239.131	9.1
239.348	11.07
239.565	11.19
239.781	9.84
239.998	11.35
240.215	11.25
240.431	6.27
240.648	3.8
240.865	4.2
241.081	2.39
241.298	4.38
241.514	9.02
241.731	11.38
241.947	11.18
242.164	13.62
242.38	11.94
242.597	12.08
242.814	13.03
243.03	13.26
243.246	12.04
243.463	11.57
243.679	11.87
243.896	10.04
244.112	8.89
244.329	10.38
244.545	8.84
244.762	10.61
244.978	10.72
245.194	10.48
245.411	11.78
245.627	12.24
245.843	11.62
246.06	10.01
246.276	11.25
246.492	11.13
246.709	10.92
246.925	11
247.141	11.03
247.357	10.89
247.574	11.18
247.79	10.85
248.006	10.75
248.222	10.41
248.439	10.91
248.655	10.96
248.871	11.54
249.087	10.55
249.303	10.45
249.519	9.59
249.736	10.91
249.952	10.87
250.168	10
250.384	10.33
250.6	13.06
250.816	11.77
251.032	10.43
251.248	9.46
251.464	9.26
251.68	9.11
251.896	9.66
252.112	8.57
252.328	7.65
252.544	9.21
252.76	9.24
252.976	10
253.192	10.06
253.408	11.16
253.624	11.31
253.84	11.85
254.056	10.61
254.272	9.02
254.487	9.07
254.703	11.13
254.919	11.21
255.135	10.67
255.351	8.57
255.567	8.63
255.782	5.17
255.998	4.49
256.214	3.34
256.43	7.2
256.646	8.11
256.861	5.21
257.077	6.24
257.293	6.2
257.508	7.01
257.724	8.2
257.94	9.46
258.155	10.76
258.371	10.19
258.587	10.07
258.802	9.38
259.018	9.42
259.234	10.63
259.449	10.2
259.665	9.58
259.88	9.76
260.096	9.6
260.312	9.32
260.527	9.02
260.743	9.23
260.958	9.08
261.174	8.01
261.389	8.02
261.605	7.52
261.82	7
262.036	7.68
262.251	6.07
262.466	5.68
262.682	5.59
262.897	4.56
263.113	4.44
263.328	5.17
263.543	6.66
263.759	5.62
263.974	7.04
264.189	8.86
264.405	9.47
264.62	10.44
264.835	9.81
265.051	8.13
265.266	10.93
265.481	11.17
265.696	10.98
265.912	10.81
266.127	12.24
266.342	10.73
266.557	9.52
266.773	7.27
266.988	6.78
267.203	7.2
267.418	7.46
267.633	6.4
267.848	6.14
268.064	6.04
268.279	6.8
268.494	6.34
268.709	6.27
268.924	5.63
269.139	6.09
269.354	6.21
269.569	5.95
269.784	6.72
269.999	6.09
270.214	6.34
270.429	7.09
270.644	5.61
270.859	5.76
271.074	5.74
271.289	6.24
271.504	6.39
271.719	5.74
271.934	6.32
272.149	5.47
272.363	5.81
272.578	5.57
272.793	5.14
273.008	6.44
273.223	6.79
273.438	7.36
273.653	8.12
273.867	9.27
274.082	10.9
274.297	10.19
274.512	11.11
274.726	12.07
274.941	12.33
275.156	13.46
275.371	12.48
275.585	12.37
275.8	11.6
276.015	10.98
276.229	10.1
276.444	10.34
276.659	10.15
276.873	10.51
277.088	10.57
277.302	10.36
277.517	10.42
277.732	11.16
277.946	10.95
278.161	10.97
278.375	10.7
278.59	11.16
278.804	9.61
279.019	9.64
279.233	9.52
279.448	7.2
279.662	7.54
279.877	5.16
280.091	5.17
280.306	4.48
280.52	4.21
280.735	5.1
280.949	3.98
281.163	3.85
281.378	3.62
281.592	3.12
281.806	5.43
282.021	6.42
282.235	7.15
282.449	6.25
282.664	6.13
282.878	6.87
283.092	6.68
283.307	7.36
283.521	8.2
283.735	8.37
283.949	8.62
284.164	6.82
284.378	5.69
284.592	5.78
284.806	7.03
285.02	7.15
285.234	6.72
285.449	5.78
285.663	6.03
285.877	5.97
286.091	7.09
286.305	7.34
286.519	7.63
286.733	7.54
286.947	7.54
287.161	7.52
287.375	8.13
287.589	8.45
287.803	9.08
288.017	8.53
288.231	8.34
288.445	7.95
288.659	7.73
288.873	8.41
289.087	8.96
289.301	9.61
289.515	9.09
289.729	10
289.943	10.01
290.157	9.78
290.371	10.39
290.584	10.59
290.798	10.41
291.012	9.95
291.226	9.64
291.44	9.55
291.654	9.61
291.867	9.28
292.081	8.81
292.295	9.65
292.509	10.56
292.722	10.07
292.936	9.8
293.15	9.45
293.364	9.21
293.577	9.36
293.791	9.68
294.005	9.24
294.218	9.27
294.432	8.41
294.645	8.35
294.859	7.76
295.073	6.78
295.286	7.76
295.5	8.57
295.713	8.79
295.927	8.51
296.14	8.96
296.354	8.86
296.568	9.88
296.781	9.93
296.994	10.02
297.208	9.89
297.421	10.9
297.635	10.58
297.848	9.64
298.062	10.23
298.275	10.87
298.489	10.47
298.702	10.26
298.915	9.35
299.129	9.93
299.342	9.07
299.555	9.29
299.769	9.34
299.982	9.61
300.195	10.76
300.409	10.24
300.622	9.18
300.835	9.12
301.048	10.15
301.262	9.93
301.475	10.22
301.688	10.95
301.901	11.31
302.115	10.37
302.328	10.21
302.541	9.54
302.754	10.09
302.967	10.66
303.18	11.27
303.393	11.12
303.607	11.94
303.82	10.9
304.033	10.72
304.246	11.39
304.459	12.9
304.672	12.98
304.885	13.93
305.098	14.41
305.311	14.23
305.524	13.67
305.737	13.45
305.95	12.97
306.163	13.25
306.376	13.72
306.589	11.97
306.802	11.01
307.015	10.04
307.228	9.45
307.44	8.47
307.653	10.43
307.866	10.9
308.079	9.6
308.292	9.52
308.505	11.21
308.718	10.67
308.93	11.94
309.143	10.83
309.356	11.27
309.569	10.64
309.781	11.26
309.994	10.07
310.207	9.59
310.42	10.37
310.632	10.74
310.845	9.09
311.058	8.74
311.27	9.37
311.483	11.1
311.696	11.11
311.908	11.67
312.121	11.23
312.333	11.49
312.546	11.7
312.759	12.16
312.971	11.94
313.184	13.04
313.396	13.08
313.609	11.24
313.821	10.72
314.034	11.68
314.246	12.31
314.459	12.85
314.671	13.13
314.884	13.27
315.096	13.79
315.309	13.15
315.521	12.62
315.733	13.02
315.946	13.42
316.158	11.97
316.371	12.27
316.583	12.3
316.795	11.89
317.008	12.29
317.22	11.75
317.432	11.11
317.644	12.87
317.857	12.28
318.069	12.03
318.281	12.43
318.494	13.34
318.706	12.39
318.918	11.54
319.13	10.84
319.342	10.58
319.555	11.04
319.767	11.14
319.979	9.91
320.191	10.67
320.403	10.93
320.615	10.99
320.827	10.8
321.039	10.19
321.252	10.45
321.464	9.67
321.676	8.14
321.888	7.49
322.1	7.71
322.312	7.8
322.524	7.42
322.736	7.26
322.948	8.27
323.16	9.12
323.372	9.45
323.584	9.65
323.796	11.32
324.007	12.05
324.219	11.58
324.431	11.22
324.643	11.83
324.855	12.02
325.067	12.37
325.279	11.87
325.491	11.2
325.702	11.35
325.914	11.69
326.126	11.53
326.338	10.41
326.55	11.37
326.761	11.25
326.973	11.48
327.185	10.66
327.396	10.29
327.608	9.09
327.82	9.56
328.032	9.41
328.243	8.2
328.455	8.71
328.666	9.91
328.878	10.16
329.09	10.53
329.301	10.56
329.513	11.25
329.725	12
329.936	13.93
330.148	14
330.359	14.71
330.571	14.89
330.782	14.43
330.994	14.48
331.205	14.83
331.417	14.89
331.628	14.87
331.84	14.67
332.051	14.01
332.262	13.62
332.474	14.37
332.685	14.47
332.897	15.11
333.108	14.55
333.319	14.56
333.531	13.28
333.742	13.11
333.953	12.86
334.165	13.48
334.376	13.41
334.587	13.55
334.799	13.34
335.01	12.8
335.221	13.01
335.432	13.15
335.644	13.69
335.855	15.02
336.066	15.59
336.277	15.85
336.488	15.25
336.7	15.19
336.911	15.11
337.122	15.31
337.333	15.87
337.544	16.05
337.755	16.83
337.966	16.53
338.177	16.12
338.388	15.43
338.599	14.57
338.811	15.13
339.022	15.18
339.233	14.88
339.444	14.04
339.655	13.28
339.866	12.85
340.076	12.38
340.287	12.46
340.498	12.41
340.709	12.24
340.92	13.34
341.131	13.04
341.342	13.03
341.553	13.65
341.764	13.13
341.975	12.68
342.185	11.38
342.396	11.67
342.607	11.84
342.818	11.88
343.029	12.19
343.239	12.86
343.45	12.94
343.661	13.09
343.872	11.97
344.082	12.61
344.293	12.83
344.504	14.13
344.714	13.67
344.925	13.27
345.136	13.19
345.346	13.19
345.557	12.54
345.768	12.49
345.978	12.3
346.189	12.42
346.399	12.28
346.61	13.11
346.821	12.75
347.031	12.18
347.242	12.15
347.452	12.08
347.663	12.65
347.873	12.49
348.084	13.25
348.294	12.75
348.504	12.87
348.715	13.17
348.925	12.49
349.136	13.28
349.346	13.63
349.557	13.2
349.767	13.81
349.977	12.78
350.188	12.38
350.398	11.53
350.608	11.61
350.819	12.2
351.029	12.08
351.239	12.39
351.449	12.17
351.66	12.55
351.87	13.47
352.08	13.31
352.29	14.01
352.501	13.65
352.711	13.83
352.921	14.33
353.131	13.86
353.341	13.9
353.552	13.89
353.762	13.16
353.972	13.59
354.182	14.13
354.392	13.47
354.602	13.03
354.812	13.9
355.022	13.6
355.232	13.91
355.442	13.31
355.652	13.51
355.862	13.4
356.072	13.65
356.282	13.19
356.492	12.06
356.702	12.25
356.912	11.99
357.122	11.47
357.332	11.21
357.542	10.69
357.752	11.21
357.962	11.04
358.171	11.11
358.381	11.54
358.591	11.53
358.801	11.93
359.011	12.24
359.221	12.33
359.43	12.61
359.64	13.16
359.85	13.11
360.06	12.82
360.269	13.26
360.479	13.38
360.689	12.3
360.899	12.19
361.108	12.08
361.318	11.64
361.528	11.87
361.737	11.5
361.947	11.64
362.156	12.01
362.366	12.24
362.576	11.36
362.785	11.29
362.995	12.09
363.204	11.7
363.414	11.49
363.623	11.84
363.833	11.43
364.042	11.77
364.252	11.28
364.461	11.13
364.671	10.68
364.88	11.06
365.09	10.53
365.299	10.19
365.509	10.35
365.718	10.61
365.927	11.14
366.137	10.69
366.346	10.85
366.555	10.79
366.765	11.02
366.974	11.33
367.183	11.34
367.393	11.78
367.602	12.33
367.811	12.27
368.021	11.92
368.23	11.33
368.439	12.16
368.648	11.88
368.857	11.87
369.067	11.22
369.276	11.31
369.485	11.36
369.694	11.06
369.903	9.86
370.112	10.07
370.321	10.07
370.531	9.09
370.74	8.98
370.949	8.75
371.158	8.98
371.367	9.06
371.576	8.94
371.785	8.83
371.994	8.96
372.203	9.22
372.412	9.34
372.621	9.5
372.83	10.19
373.039	9.86
373.248	9.59
373.457	9.49
373.666	9.5
373.874	9.26
374.083	9.64
374.292	9.45
374.501	9.5
374.71	9.04
374.919	8.64
375.128	8.81
375.336	9.32
375.545	9.86
375.754	10.11
375.963	10.43
376.171	10.75
376.38	9.98
376.589	9.82
376.798	9.95
377.006	10.32
377.215	10.66
377.424	10.46
377.632	10.29
377.841	10.16
378.05	9.94
378.258	9.52
378.467	9.28
378.675	9.79
378.884	9.72
379.093	9.66
379.301	9.64
379.51	9.75
379.718	10.09
379.927	10.14
380.135	10.05
380.344	10.41
380.552	9.99
380.761	10.23
380.969	10.39
381.177	10.57
381.386	9.92
381.594	9.72
381.803	9.46
382.011	9.18
382.219	9.16
382.428	9.14
382.636	8.44
382.845	8.96
383.053	9.06
383.261	8.61
383.469	8.59
383.678	9.51
383.886	9.8
384.094	9.74
384.302	9.65
384.511	9.7
384.719	9.43
384.927	9.83
385.135	10.05
385.343	9.7
385.552	9.67
385.76	9.91
385.968	9.86
386.176	9.68
386.384	9.52
386.592	9.39
386.8	9.11
387.008	9.39
387.216	9.17
387.424	8.72
387.633	8.54
387.841	8.55
388.049	8.17
388.257	8.14
388.465	7.86
388.672	8
388.88	7.78
389.088	7.68
389.296	7.62
389.504	7.42
389.712	7.44
389.92	7.52
390.128	7.43
390.336	7.46
390.544	7.29
390.751	7.65
390.959	7.64
391.167	7.93
391.375	8.12
391.583	8
391.79	8.12
391.998	8.11
392.206	8.44
392.414	8.27
392.621	8.32
392.829	8.12
393.037	7.89
393.244	7.92
393.452	7.81
393.66	8.1
393.867	8.25
394.075	8.61
394.283	8.57
394.49	8.35
394.698	8.8
394.905	8.87
395.113	8.93
395.32	9.02
395.528	8.94
395.735	8.82
395.943	8.43
396.15	8.44
396.358	7.94
396.565	8.05
396.773	8.16
396.98	8.1
397.188	8.12
397.395	8.21
397.602	8.19
397.81	8.29
398.017	8.18
398.225	8.3
398.432	8.09
398.639	8.17
398.847	8.27
399.054	8.2
399.261	8.09
399.468	7.94
399.676	8
399.883	7.98
400.09	7.78
400.297	7.79
400.505	7.56
400.712	7.37
400.919	7.42
401.126	7.51
401.333	7.41
401.54	7.31
401.748	7.13
401.955	7.02
402.162	7.1
402.369	7.15
402.576	6.92
402.783	6.97
402.99	7.13
403.197	6.92
403.404	6.89
403.611	7.17
403.818	7.2
404.025	7.35
404.232	7.4
404.439	7.38
404.646	7.32
404.853	7.82
405.06	7.88
405.267	8.24
405.474	8.53
405.681	8.49
405.887	8.25
406.094	8.27
406.301	8.24
406.508	7.94
406.715	7.66
406.922	7.66
407.128	7.5
407.335	7.4
407.542	7.39
407.749	7.4
407.955	7.44
408.162	7.28
408.369	7.37
408.575	7.59
408.782	7.56
408.989	7.83
409.195	7.91
409.402	7.99
409.609	8.1
409.815	7.64
410.022	7.57
410.228	7.51
410.435	7.74
410.642	7.67
410.848	7.84
411.055	8.13
411.261	7.86
411.468	8
411.674	7.85
411.881	7.57
412.087	8.05
412.294	8.31
412.5	8.22
412.706	8.05
412.913	7.93
413.119	7.74
413.326	7.84
413.532	7.97
413.738	7.89
413.945	8.01
414.151	8.16
414.357	7.78
414.564	7.72
414.77	7.99
414.976	7.89
415.182	8.1
415.389	8.12
415.595	8.18
415.801	8.14
416.007	8.09
416.214	8.06
416.42	8.28
416.626	8.49
416.832	8.32
417.038	8.11
417.244	8.39
417.45	8.28
417.657	8.09
417.863	7.97
418.069	8.12
418.275	8.21
418.481	8.18
418.687	8.02
418.893	7.83
419.099	7.79
419.305	7.83
419.511	7.82
419.717	7.82
419.923	7.87
420.129	7.97
420.335	7.8
420.541	7.66
420.746	7.6
420.952	7.63
421.158	7.68
421.364	7.8
421.57	7.7
421.776	7.74
421.982	7.67
422.187	7.62
422.393	7.48
422.599	7.55
422.805	7.73
423.01	7.86
423.216	7.85
423.422	7.84
423.628	7.8
423.833	7.83
424.039	7.78
424.245	7.89
424.45	8.08
424.656	8.12
424.862	8.17
425.067	8
425.273	7.84
425.478	7.9
425.684	7.95
425.889	7.96
426.095	7.9
426.301	7.88
426.506	7.82
426.712	7.51
426.917	7.42
427.123	7.34
427.328	7.45
427.533	7.57
427.739	7.53
427.944	7.56
428.15	7.44
428.355	7.67
428.561	7.71
428.766	7.68
428.971	7.99
429.177	8.2
429.382	8.49
429.587	8.36
429.793	8.43
429.998	8.46
430.203	8.4
430.408	8.56
430.614	8.35
430.819	8.32
431.024	8.35
431.229	8.18
431.434	7.87
431.64	7.6
431.845	7.67
432.05	7.69
432.255	7.66
432.46	7.61
432.665	7.32
432.87	7.35
433.076	7.3
433.281	7.24
433.486	7.22
433.691	7.51
433.896	7.47
434.101	7.46
434.306	7.37
434.511	7.2
434.716	7.13
434.921	7.05
435.126	7.15
435.331	7.19
435.535	7.13
435.74	6.96
435.945	6.77
436.15	6.63
436.355	6.67
436.56	6.7
436.765	6.84
436.97	6.91
437.174	7.23
437.379	7.23
437.584	7.09
437.789	7.2
437.993	7.43
438.198	7.46
438.403	7.6
438.608	7.59
438.812	7.44
439.017	7.45
439.222	7.63
439.426	7.57
439.631	7.58
439.836	7.67
440.04	7.63
440.245	7.63
440.45	7.72
440.654	7.64
440.859	7.58
441.063	7.68
441.268	7.71
441.472	7.52
441.677	7.55
441.881	7.57
442.086	7.44
442.29	7.56
442.495	7.57
442.699	7.52
442.904	7.56
443.108	7.52
443.312	7.52
443.517	7.59
443.721	7.73
443.925	7.53
444.13	7.41
444.334	7.49
444.538	7.26
444.743	7.23
444.947	7.19
445.151	7.28
445.356	7.3
445.56	7.37
445.764	7.23
445.968	7.1
446.173	7.22
446.377	7.2
446.581	7.21
446.785	7.22
446.989	7.12
447.193	7.12
447.398	7.15
447.602	7.08
447.806	6.96
448.01	6.93
448.214	6.95
448.418	6.88
448.622	6.89
448.826	6.85
449.03	6.91
449.234	6.92
449.438	6.84
449.642	6.71
449.846	6.79
450.05	6.85
450.254	6.94
450.458	6.84
450.662	6.92
450.866	6.88
451.069	7.02
451.273	6.97
451.477	6.97
451.681	6.96
451.885	7.06
452.089	7.12
452.292	7.22
452.496	7.29
452.7	7.39
452.904	7.28
453.107	7.28
453.311	7.17
453.515	7.14
453.719	7.17
453.922	7.37
454.126	7.11
454.33	7.13
454.533	6.92
454.737	6.8
454.94	6.76
455.144	6.93
455.348	6.82
455.551	6.83
455.755	7.08
455.958	7.15
456.162	7.15
456.365	7.33
456.569	7.36
456.772	7.34
456.976	7.32
457.179	7.38
457.383	7.24
457.586	7.24
457.79	7.21
457.993	7.18
458.196	7.21
458.4	7.14
458.603	7.21
458.807	7.12
459.01	7.22
459.213	7.24
459.417	7.22
459.62	7.19
459.823	7.22
460.026	7.32
460.23	7.16
460.433	7.06
460.636	6.95
460.839	6.88
461.042	6.99
461.246	6.87
461.449	6.92
461.652	6.87
461.855	6.88
462.058	7.02
462.261	6.94
462.464	7.11
462.668	7.05
462.871	7.13
463.074	7.17
463.277	7.14
463.48	7.25
463.683	7.18
463.886	7.17
464.089	7.14
464.292	6.92
464.495	6.77
464.698	6.74
464.901	6.92
465.104	7.15
465.306	7.19
465.509	7.09
465.712	7.11
465.915	7.14
466.118	7.17
466.321	7.27
466.524	7.39
466.726	7.47
466.929	7.43
467.132	7.26
467.335	7.12
467.538	7.11
467.74	7.13
467.943	7.18
468.146	7.08
468.348	7.2
468.551	7.27
468.754	7.33
468.956	7.63
469.159	7.7
469.362	7.8
469.564	7.79
469.767	7.78
469.969	7.92
470.172	7.69
470.375	7.82
470.577	7.85
470.78	7.68
470.982	7.52
471.185	7.21
471.387	7.16
471.59	7.13
471.792	7.24
471.995	7.26
472.197	7.24
472.399	7.48
472.602	7.35
472.804	7.1
473.007	7.15
473.209	7.25
473.411	7.33
473.614	7.37
473.816	7.39
474.018	7.15
474.22	7.07
474.423	7.03
474.625	6.87
474.827	6.97
475.03	7.21
475.232	7.34
475.434	7.23
475.636	7.17
475.838	7.16
476.04	7.06
476.243	7.06
476.445	7.08
476.647	6.99
476.849	6.98
477.051	6.99
477.253	7.12
477.455	6.86
477.657	6.83
477.859	6.8
478.061	6.64
478.263	6.78
478.465	6.89
478.667	6.84
478.869	6.88
479.071	6.94
479.273	6.88
479.475	6.7
479.677	6.89
479.879	6.96
480.081	7.08
480.283	7.13
480.485	7.12
480.686	7.16
480.888	7.18
481.09	7.14
481.292	7.19
481.494	7.19
481.695	7.12
481.897	7.04
482.099	7.07
482.301	6.99
482.502	7.06
482.704	7.07
482.906	7
483.107	6.99
483.309	7.02
483.511	6.93
483.712	6.9
483.914	6.92
484.115	6.89
484.317	6.89
484.519	6.93
484.72	6.89
484.922	6.89
485.123	6.91
485.325	6.94
485.526	6.91
485.728	6.96
485.929	6.98
486.131	6.96
486.332	6.98
486.534	6.94
486.735	6.88
486.936	6.9
487.138	6.82
487.339	6.86
487.541	6.82
487.742	6.83
487.943	6.87
488.144	6.84
488.346	6.87
488.547	6.84
488.748	6.84
488.95	6.83
489.151	6.83
489.352	6.81
489.553	6.73
489.755	6.73
489.956	6.73
490.157	6.71
490.358	6.73
490.559	6.75
490.76	6.79
490.961	6.81
491.163	6.81
491.364	6.86
491.565	6.92
491.766	6.92
491.967	6.98
492.168	6.95
492.369	6.94
492.57	6.99
492.771	6.89
492.972	6.91
493.173	6.93
493.374	6.97
493.575	6.93
493.776	6.86
493.976	6.93
494.177	6.92
494.378	6.88
494.579	6.84
494.78	6.75
494.981	7
495.182	7.07
495.382	7.14
495.583	7.23
495.784	7.19
495.985	7.31
496.185	7.26
496.386	7.09
496.587	7.09
496.788	7.09
496.988	7.02
497.189	7
497.39	6.95
497.59	6.9
497.791	6.84
497.992	6.78
498.192	6.87
498.393	6.91
498.593	7.02
498.794	7.11
498.994	7.22
499.195	7.29
499.395	7.21
499.596	7.29
499.796	7.34
499.997	7.51
500.197	7.68
500.398	7.38
500.598	7.39
500.799	7.4
500.999	7.38
501.199	7.42
501.4	7.62
501.6	7.82
501.801	7.97
502.001	8.05
502.201	8.05
502.402	8.06
502.602	8.26
502.802	8.34
503.002	8.34
503.203	8.43
503.403	8.32
503.603	8.3
503.803	8.19
504.003	7.99
504.204	7.77
504.404	7.67
504.604	7.56
504.804	7.59
505.004	7.53
505.204	7.64
505.404	7.7
505.604	7.63
505.804	7.58
506.005	7.61
506.205	7.74
506.405	7.77
506.605	7.78
506.805	7.81
507.005	7.77
507.204	7.78
507.404	7.75
507.604	7.75
507.804	7.79
508.004	7.82
508.204	7.88
508.404	7.7
508.604	7.77
508.804	7.81
509.003	7.93
509.203	8.08
509.403	8.21
509.603	8.18
509.803	8.19
510.002	8.24
510.202	8.31
510.402	8.2
510.602	8.26
510.801	8.35
511.001	8.43
511.201	8.47
511.4	8.42
511.6	8.31
511.8	8.4
511.999	8.38
512.199	8.4
512.398	8.47
512.598	8.67
512.797	8.81
512.997	8.65
513.197	8.64
513.396	8.69
513.596	8.81
513.795	8.82
513.994	8.74
514.194	8.79
514.393	8.87
514.593	8.83
514.792	8.76
514.992	8.87
515.191	9.17
515.39	9.23
515.59	9.22
515.789	9.11
515.988	9.21
516.188	9.43
516.387	9.51
516.586	9.61
516.786	9.65
516.985	9.7
517.184	9.6
517.383	9.59
517.582	9.66
517.782	9.73
517.981	9.86
518.18	9.84
518.379	9.74
518.578	9.65
518.777	9.66
518.976	9.71
519.176	9.81
519.375	9.94
519.574	9.91
519.773	9.83
519.972	9.79
520.171	9.82
520.37	9.93
520.569	10.06
520.768	10.24
520.967	10.27
521.166	10.36
521.365	10.38
521.564	10.33
521.762	10.37
521.961	10.55
522.16	10.58
522.359	10.63
522.558	10.69
522.757	10.65
522.956	10.75
523.154	10.85
523.353	10.88
523.552	10.86
523.751	11.06
523.949	11.15
524.148	11.11
524.347	11.26
524.546	11.27
524.744	11.29
524.943	11.37
525.142	11.37
525.34	11.43
525.539	11.39
525.737	11.48
525.936	11.48
526.135	11.64
526.333	11.66
526.532	11.71
526.73	11.72
526.929	11.78
527.127	11.83
527.326	11.86
527.524	11.88
527.723	12.02
527.921	12.01
528.12	11.98
528.318	11.84
528.516	11.89
528.715	11.9
528.913	11.97
529.112	11.99
529.31	12.02
529.508	12.08
529.707	12.11
529.905	12.11
530.103	12.14
530.301	12.22
530.5	12.38
530.698	12.43
530.896	12.55
531.094	12.57
531.293	12.61
531.491	12.66
531.689	12.69
531.887	12.79
532.085	12.8
532.283	12.88
532.481	12.86
532.68	12.88
532.878	13.02
533.076	12.97
533.274	13.07
533.472	13.18
533.67	13.16
533.868	13.18
534.066	13.17
534.264	13.25
534.462	13.31
534.66	13.36
534.858	13.39
535.056	13.3
535.253	13.4
535.451	13.35
535.649	13.27
535.847	13.44
536.045	13.57
536.243	13.65
536.441	13.6
536.638	13.65
536.836	13.72
537.034	13.76
537.232	13.81
537.43	13.83
537.627	13.93
537.825	13.97
538.023	14.01
538.22	13.98
538.418	13.94
538.616	14.12
538.813	14.25
539.011	14.29
539.209	14.46
539.406	14.57
539.604	14.69
539.801	14.85
539.999	15.09
540.196	15.1
540.394	15.13
540.591	15.29
540.789	15.33
540.986	15.32
541.184	15.34
541.381	15.33
541.579	15.39
541.776	15.39
541.974	15.4
542.171	15.37
542.368	15.43
542.566	15.55
542.763	15.52
542.96	15.59
543.158	15.62
543.355	15.79
543.552	15.91
543.75	16.05
543.947	16.14
544.144	16.21
544.341	16.27
544.539	16.4
544.736	16.38
544.933	16.5
545.13	16.49
545.327	16.59
545.524	16.56
545.722	16.66
545.919	16.66
546.116	16.7
546.313	16.83
546.51	16.92
546.707	16.91
546.904	17.07
547.101	17.21
547.298	17.29
547.495	17.27
547.692	17.33
547.889	17.39
548.086	17.33
548.283	17.5
548.48	17.46
548.677	17.43
548.874	17.48
549.07	17.43
549.267	17.38
549.464	17.67
549.661	17.7
549.858	17.8
550.055	17.87
550.251	18.04
550.448	17.83
550.645	18.03
550.842	18.18
551.038	18.15
551.235	18.31
551.432	18.39
551.628	18.22
551.825	18.46
552.022	18.46
552.218	18.48
552.415	18.62
552.612	18.77
552.808	18.81
553.005	18.86
553.201	18.98
553.398	18.99
553.594	19.15
553.791	19.42
553.987	19.52
554.184	19.52
554.38	19.66
554.577	19.73
554.773	19.68
554.97	19.74
555.166	20.02
555.362	20.19
555.559	20.31
555.755	20.37
555.952	20.17
556.148	20.16
556.344	20.37
556.541	20.33
556.737	20.31
556.933	20.64
557.129	20.69
557.326	20.54
557.522	20.68
557.718	20.73
557.914	20.69
558.11	20.92
558.307	20.97
558.503	21.1
558.699	21.2
558.895	21.2
559.091	21.13
559.287	21.1
559.483	21.07
559.679	21.21
559.876	21.44
560.072	21.47
560.268	21.37
560.464	21.72
560.66	21.73
560.856	21.98
561.052	22.22
561.247	22.65
561.443	22.7
561.639	22.93
561.835	22.84
562.031	22.81
562.227	23.01
562.423	23.28
562.619	23.23
562.815	23.4
563.01	23.3
563.206	23.43
563.402	23.18
563.598	23.28
563.793	23.44
563.989	23.58
564.185	23.57
564.381	23.61
564.576	23.7
564.772	23.89
564.968	23.89
565.163	23.92
565.359	24.02
565.555	24
565.75	24.12
565.946	24.07
566.141	24.04
566.337	24.17
566.532	24.18
566.728	24.05
566.923	23.85
567.119	23.96
567.314	24.01
567.51	24.05
567.705	24.3
567.901	24.41
568.096	24.52
568.292	24.69
568.487	24.63
568.682	24.82
568.878	25.1
569.073	25.25
569.268	25.35
569.464	25.31
569.659	25.41
569.854	25.51
570.05	25.68
570.245	25.82
570.44	25.85
570.635	25.86
570.831	25.9
571.026	25.97
571.221	25.97
571.416	26.1
571.611	26.38
571.806	26.41
572.002	26.5
572.197	26.48
572.392	26.29
572.587	26.34
572.782	26.52
572.977	26.66
573.172	26.65
573.367	26.79
573.562	26.67
573.757	26.66
573.952	26.61
574.147	26.61
574.342	26.75
574.537	27.14
574.732	27.21
574.927	27.25
575.121	27.15
575.316	27.13
575.511	27.22
575.706	27.24
575.901	27.27
576.096	27.39
576.29	27.54
576.485	27.29
576.68	27.19
576.875	27.09
577.069	27.15
577.264	27.15
577.459	27.31
577.654	27.45
577.848	27.62
578.043	27.73
578.238	27.74
578.432	27.71
578.627	28.03
578.821	28.05
579.016	28.24
579.21	28.19
579.405	28.42
579.6	28.35
579.794	28.42
579.989	28.19
580.183	28.23
580.378	28.29
580.572	28.29
580.766	28.18
580.961	28.3
581.155	28.28
581.35	28.7
581.544	28.75
581.738	28.87
581.933	28.85
582.127	29.06
582.321	29.16
582.516	29.16
582.71	29.18
582.904	29.3
583.099	29.32
583.293	29.45
583.487	29.33
583.681	29.35
583.875	29.47
584.07	29.46
584.264	29.4
584.458	29.41
584.652	29.44
584.846	29.39
585.04	29.49
585.234	29.58
585.428	29.63
585.623	29.66
585.817	29.58
586.011	29.46
586.205	29.57
586.399	29.78
586.593	29.88
586.787	30.13
586.981	30.35
587.174	30.41
587.368	30.45
587.562	30.41
587.756	30.39
587.95	30.67
588.144	30.76
588.338	30.67
588.532	30.56
588.725	30.61
588.919	30.56
589.113	30.75
589.307	30.71
589.501	30.45
589.694	30.65
589.888	30.89
590.082	30.74
590.275	30.84
590.469	31.06
590.663	31.29
590.856	31.23
591.05	31.22
591.244	31.07
591.437	31.23
591.631	31.49
591.824	31.53
592.018	31.56
592.212	31.65
592.405	31.61
592.599	31.57
592.792	31.53
592.986	31.69
593.179	31.81
593.372	31.8
593.566	31.74
593.759	32.1
593.953	31.85
594.146	31.87
594.339	31.96
594.533	31.93
594.726	31.93
594.92	31.96
595.113	32.07
595.306	31.97
595.499	32.13
595.693	32.03
595.886	31.7
596.079	31.93
596.272	32.03
596.466	32.01
596.659	32.16
596.852	32.23
597.045	32.32
597.238	32.22
597.431	32.43
597.624	32.45
597.818	32.68
598.011	32.88
598.204	32.94
598.397	32.8
598.59	32.72
598.783	32.82
598.976	32.79
599.169	32.78
599.362	32.81
599.555	32.9
599.748	33.03
599.941	33.03
600.134	33.14
600.326	33.12
600.519	33.22
600.712	33.48
600.905	33.39
601.098	33.38
601.291	33.44
601.483	33.37
601.676	33.23
601.869	33.05
602.062	33.11
602.255	32.95
602.447	32.97
602.64	33.15
602.833	33.14
603.025	33.24
603.218	33.39
603.411	33.52
603.603	33.63
603.796	33.64
603.989	33.66
604.181	33.64
604.374	33.74
604.566	33.92
604.759	33.73
604.951	33.54
605.144	33.59
605.336	33.7
605.529	33.64
605.721	33.66
605.914	33.72
606.106	33.77
606.299	33.83
606.491	33.79
606.683	33.81
606.876	34.07
607.068	34.44
607.26	34.24
607.453	34.31
607.645	34.37
607.837	34.46
608.03	34.37
608.222	34.58
608.414	34.72
608.606	34.96
608.799	34.93
608.991	34.84
609.183	34.79
609.375	34.98
609.567	34.93
609.759	35
609.952	35.06
610.144	35.26
610.336	35.08
610.528	34.92
610.72	34.77
610.912	34.89
611.104	34.86
611.296	34.95
611.488	35.04
611.68	34.92
611.872	34.82
612.064	34.71
612.256	34.65
612.448	34.76
612.64	35.02
612.832	35.12
613.023	35
613.215	34.99
613.407	35.02
613.599	34.91
613.791	35.16
613.983	35.38
614.174	35.6
614.366	35.78
614.558	35.86
614.75	35.7
614.941	35.89
615.133	35.65
615.325	35.88
615.516	35.81
615.708	35.92
615.9	35.82
616.091	35.83
616.283	35.75
616.475	35.76
616.666	35.76
616.858	35.87
617.049	35.69
617.241	36.02
617.432	35.87
617.624	36.24
617.815	36.34
618.007	36.4
618.198	36.43
618.39	36.5
618.581	36.67
618.773	36.69
618.964	36.8
619.155	36.93
619.347	36.85
619.538	36.9
619.729	36.55
619.921	36.73
620.112	37
620.303	36.89
620.494	36.86
620.686	36.84
620.877	37.07
621.068	36.99
621.259	36.94
621.451	37.1
621.642	37.16
621.833	37.5
622.024	37.34
622.215	37.13
622.406	36.87
622.597	36.77
622.788	36.54
622.98	36.57
623.171	36.65
623.362	36.67
623.553	36.74
623.744	36.8
623.935	36.32
624.126	36.67
624.317	36.6
624.508	37.11
624.698	37.51
624.889	37.44
625.08	37.32
625.271	37.65
625.462	37.56
625.653	37.46
625.844	37.3
626.034	37.28
626.225	37.25
626.416	37.56
626.607	37.69
626.798	37.68
626.988	38.04
627.179	38.15
627.37	37.94
627.56	37.99
627.751	38.17
627.942	38.32
628.132	38.65
628.323	38.69
628.514	38.5
628.704	38.38
628.895	38.43
629.085	38.39
629.276	38.22
629.466	37.97
629.657	38.18
629.847	37.96
630.038	38.1
630.228	37.98
630.419	37.5
630.609	37.44
630.8	37.47
630.99	37.38
631.181	37.11
631.371	37.04
631.561	37.69
631.752	37.63
631.942	37.59
632.132	37.87
632.323	37.97
632.513	38.3
632.703	38.49
632.893	38.34
633.084	38.46
633.274	38.53
633.464	38.82
633.654	38.2
633.844	38.31
634.034	38.62
634.225	38.22
634.415	38.11
634.605	38.25
634.795	38.21
634.985	38.27
635.175	38.05
635.365	38.21
635.555	38.18
635.745	38.41
635.935	38.35
636.125	38.03
636.315	38.32
636.505	38.53
636.695	38.58
636.885	38.21
637.075	38.17
637.265	38.19
637.455	38.13
637.644	38.36
637.834	38.42
638.024	38.36
638.214	38.75
638.404	38.33
638.593	38.19
638.783	38.08
638.973	38.66
639.163	38.82
639.352	38.94
639.542	38.9
639.732	38.63
639.921	38.89
640.111	39.05
640.301	39.07
640.49	39.6
640.68	40.27
640.87	40.27
641.059	39.91
641.249	40.18
641.438	39.9
641.628	39.65
641.817	39.8
642.007	39.42
642.196	39.31
642.386	39.11
642.575	38.92
642.764	38.45
642.954	38.47
643.143	38.91
643.333	38.76
643.522	39.03
643.711	39.54
643.901	39.83
644.09	40.39
644.279	40.73
644.469	40.97
644.658	41.28
644.847	41.55
645.036	41.51
645.226	41.53
645.415	41.61
645.604	41.86
645.793	41.75
645.982	41.39
646.171	41.04
646.361	40.55
646.55	40.58
646.739	40.5
646.928	40.42
647.117	40.56
647.306	40.58
647.495	40.29
647.684	40.51
647.873	40.33
648.062	40.47
648.251	40.51
648.44	40.64
648.629	40.54
648.818	40.23
649.007	40.26
649.196	40.23
649.384	40.18
649.573	40.39
649.762	40.03
649.951	40.19
650.14	40.07
650.328	40.23
650.517	40.5
650.706	40.58
650.895	41.01
651.083	40.99
651.272	41.19
651.461	41.37
651.65	41.53
651.838	41.52
652.027	41.77
652.216	41.76
652.404	41.72
652.593	41.73
652.781	41.82
652.97	41.4
653.158	41.46
653.347	41.16
653.535	41.32
653.724	41.13
653.912	41.25
654.101	40.9
654.289	41.08
654.478	40.99
654.666	41.03
654.855	41.02
655.043	41.28
655.231	41.35
655.42	41.32
655.608	40.97
655.796	40.92
655.985	41.02
656.173	41.44
656.361	41.72
656.55	41.62
656.738	41.64
656.926	41.63
657.114	41.72
657.302	41.84
657.491	41.97
657.679	41.87
657.867	41.73
658.055	41.9
658.243	41.8
658.431	41.61
658.619	41.86
658.807	41.74
658.996	41.94
659.184	41.97
659.372	41.98
659.56	42.04
659.748	41.92
659.936	42.26
660.124	42.19
660.311	42.31
660.499	42.46
660.687	42.28
660.875	42.43
661.063	42.18
661.251	42.21
661.439	42.42
661.627	42.37
661.814	42.53
662.002	42.12
662.19	41.99
662.378	42.01
662.565	42.08
662.753	42.16
662.941	42.31
663.129	42.5
663.316	42.37
663.504	41.85
663.692	41.88
663.879	42.25
664.067	42.62
664.254	43.1
664.442	42.86
664.63	42.52
664.817	42.46
665.005	42.17
665.192	42.38
665.38	42.71
665.567	42.66
665.755	42.85
665.942	42.91
666.13	42.71
666.317	42.56
666.504	42.58
666.692	42.64
666.879	43.01
667.067	43.16
667.254	42.61
667.441	42.17
667.629	42.03
667.816	41.95
668.003	41.73
668.19	41.88
668.378	41.95
668.565	41.98
668.752	42.13
668.939	41.88
669.127	42.01
669.314	42.18
669.501	42.48
669.688	42.56
669.875	42.61
670.062	43.06
670.249	43.07
670.436	43.09
670.623	43.09
670.81	42.98
670.997	42.79
671.184	42.56
671.371	42.66
671.558	42.51
671.745	42.9
671.932	42.96
672.119	42.77
672.306	43.09
672.493	42.79
672.68	42.66
672.867	42.75
673.054	43.14
673.24	43.27
673.427	43.23
673.614	43.43
673.801	43.62
673.988	43.89
674.174	43.88
674.361	43.42
674.548	43.52
674.734	44
674.921	44.28
675.108	44.49
675.294	44.63
675.481	44.84
675.668	44.95
675.854	45.01
676.041	44.8
676.227	44.16
676.414	44.5
676.601	44.75
676.787	44.85
676.974	44.68
677.16	44.62
677.347	44.26
677.533	43.95
677.719	43.76
677.906	43.32
678.092	43.27
678.279	43.9
678.465	43.78
678.651	43.72
678.838	43.61
679.024	43.28
679.21	42.99
679.397	43.52
679.583	43.39
679.769	43.57
679.955	43.81
680.142	43.61
680.328	43.79
680.514	44.12
680.7	43.74
680.886	43.78
681.073	43.71
681.259	43.89
681.445	43.28
681.631	43.63
681.817	43.56
682.003	43.31
682.189	43.57
682.375	43.25
682.561	43.13
682.747	43.66
682.933	43.26
683.119	43.62
683.305	43.61
683.491	43.82
683.677	43.7
683.863	43.67
684.049	43.89
684.235	44.13
684.42	43.81
684.606	43.63
684.792	43.57
684.978	44.21
685.164	44.28
685.349	44.16
685.535	44.48
685.721	44.42
685.907	44.16
686.092	44.24
686.278	43.86
686.464	44.3
686.649	44.43
686.835	44.23
687.021	44.16
687.206	44.43
687.392	44.41
687.577	44.68
687.763	44.64
687.948	44.96
688.134	44.89
688.319	44.86
688.505	45.34
688.69	45.23
688.876	45.19
689.061	44.5
689.247	43.99
689.432	44.29
689.618	43.89
689.803	44.02
689.988	44.16
690.174	43.89
690.359	44.18
690.544	43.86
690.73	43.61
690.915	43.67
691.1	44.24
691.285	44.91
691.471	44.75
691.656	44.99
691.841	45.12
692.026	45.26
692.211	45.2
692.396	45.06
692.582	45.24
692.767	46
692.952	46.06
693.137	46.34
693.322	45.77
693.507	46.12
693.692	46.11
693.877	46.11
694.062	45.63
694.247	46.27
694.432	46.4
694.617	46.07
694.802	46.32
694.987	46.18
695.172	46.15
695.357	46.44
695.541	46.16
695.726	46.01
695.911	46.09
696.096	46.45
696.281	46.18
696.466	46.52
696.65	46.1
696.835	45.72
697.02	45.81
697.204	45.73
697.389	45.82
697.574	45.61
697.759	45.42
697.943	45.54
698.128	45.48
698.312	45.75
698.497	45.52
698.682	45.99
698.866	46.02
699.051	46
699.235	45.83
699.42	45.99
699.604	46.45
699.789	46.51
699.973	46.16
700.158	46.2
700.342	46.02
700.527	46.01
700.711	46.05
700.895	45.75
701.08	45.64
701.264	45.96
701.448	45.76
701.633	44.72
701.817	44.94
702.001	45.44
702.186	45.73
702.37	45.55
702.554	45.3
702.738	45.3
702.923	45.48
703.107	45.99
703.291	46.32
703.475	45.78
703.659	46.96
703.843	46.89
704.027	47.08
704.212	46.56
704.396	46.82
704.58	46.99
704.764	46.83
704.948	47.05
705.132	46.61
705.316	46.35
705.5	47.52
705.684	48.01
705.868	48.3
706.052	47.91
706.235	48.19
706.419	48.39
706.603	48.43
706.787	48.05
706.971	47.98
707.155	48.99
707.339	48.52
707.522	47.46
707.706	47
707.89	47.03
708.074	46.85
708.257	46.33
708.441	46.21
708.625	46.19
708.808	46.34
708.992	46.36
709.176	45.73
709.359	46.09
709.543	46.42
709.727	45.96
709.91	45.91
710.094	46.08
710.277	46.74
710.461	46.29
710.644	46.38
710.828	46.44
711.011	46.56
711.195	46.63
711.378	46.57
711.562	46.69
711.745	46.94
711.928	46.53
712.112	46.98
712.295	46.78
712.478	47.02
712.662	47.47
712.845	47.39
713.028	47.27
713.212	47.27
713.395	47.19
713.578	47.24
713.761	47.02
713.945	47.4
714.128	47.1
714.311	47.28
714.494	47.55
714.677	46.9
714.86	46.87
715.043	46.82
715.227	46.58
715.41	46.27
715.593	46.24
715.776	46.42
715.959	46.77
716.142	46.74
716.325	47.32
716.508	47.18
716.691	48.08
716.874	48.14
717.057	48.49
717.239	48.3
717.422	48.61
717.605	48.55
717.788	48.62
717.971	48.94
718.154	48.97
718.337	48.01
718.519	48.33
718.702	48.02
718.885	48.13
719.068	47.22
719.25	48.02
719.433	48.6
719.616	48.58
719.798	48.59
719.981	47.53
720.164	47.04
720.346	47.2
720.529	46.5
720.712	45.72
720.894	45.56
721.077	46.05
721.259	45.13
721.442	44.55
721.624	45.31
721.807	46.45
721.989	46.84
722.172	47.65
722.354	47.1
722.537	46.8
722.719	47.42
722.901	47.95
723.084	47.96
723.266	48.75
723.448	48.84
723.631	47.93
723.813	47.16
723.995	47.28
724.178	47.05
724.36	48.02
724.542	48.25
724.724	48.38
724.907	48.55
725.089	48.95
725.271	48.48
725.453	48.58
725.635	49.18
725.817	48.79
725.999	47.92
726.181	48.19
726.364	47.62
726.546	48.09
726.728	48.27
726.91	47.91
727.092	47.86
727.274	47.91
727.456	48.1
727.638	47.7
727.819	48.07
728.001	48.89
728.183	48.35
728.365	48.54
728.547	48.02
728.729	47.46
728.911	47.96
729.093	48.04
729.274	48.44
729.456	48.07
729.638	47.67
729.82	47.28
730.001	46.61
730.183	46.69
730.365	47.02
730.546	47.5
730.728	48.24
730.91	47.8
731.091	47.41
731.273	47.39
731.455	47.21
731.636	48.35
731.818	48.32
731.999	49.18
732.181	49.57
732.362	49.25
732.544	49.39
732.725	48.65
732.907	48.93
733.088	49.21
733.27	48.32
733.451	48.76
733.633	48.51
733.814	48.11
733.995	47.15
734.177	46.63
734.358	46.54
734.539	46.33
734.721	46.62
734.902	47.33
735.083	47.45
735.264	48.81
735.446	48.88
735.627	47.88
735.808	48.59
735.989	49.39
736.17	49.47
736.351	50.08
736.533	50.14
736.714	49.68
736.895	48.48
737.076	47.97
737.257	47.78
737.438	47.31
737.619	48.18
737.8	47.77
737.981	47.75
738.162	48.61
738.343	48.53
738.524	48.02
738.705	49.04
738.886	49.19
739.067	49.31
739.247	49.78
739.428	49.56
739.609	48.76
739.79	49.14
739.971	49.7
740.151	49.05
740.332	49.13
740.513	49.54
740.694	48.26
740.874	48.58
741.055	49.5
741.236	49.04
741.417	49.28
741.597	49.76
741.778	49.91
741.958	48.71
742.139	48.82
742.32	47.96
742.5	48.22
742.681	48.42
742.861	48.23
743.042	47.16
743.222	46.43
743.403	47.06
743.583	47.42
743.764	47.41
743.944	48.47
744.124	48.38
744.305	48.03
744.485	47.89
744.666	48.07
744.846	48.02
745.026	48.28
745.207	48.56
745.387	48.47
745.567	48.49
745.747	47.87
745.928	47.1
746.108	47.28
746.288	48.76
746.468	48.16
746.648	48.54
746.829	48.07
747.009	48.41
747.189	48.21
747.369	47.17
747.549	46.9
747.729	46.77
747.909	47.16
748.089	47.48
748.269	46.51
748.449	46.92
748.629	46.18
748.809	46.53
748.989	46.18
749.169	45.64
749.349	45.77
749.529	45.31
749.709	46.04
749.889	46.49
750.068	46.41
750.248	46.33
750.428	47.68
750.608	47.09
750.788	48.01
750.967	48.49
751.147	51.02
751.327	51.64
751.507	52.86
751.686	52.45
751.866	52.6
752.046	51.57
752.225	52.5
752.405	51.53
752.585	52.64
752.764	52.51
752.944	52.5
753.123	50.63
753.303	50.77
753.482	50.37
753.662	50.68
753.841	49.88
754.021	50.56
754.2	49.9
754.38	50.66
754.559	51.47
754.739	50.5
754.918	49.15
755.097	49.1
755.277	49.73
755.456	49.03
755.635	48.71
755.815	48.85
755.994	49.1
756.173	48.53
756.352	48.6
756.532	47.55
756.711	47.44
756.89	48.58
757.069	49.27
757.248	49.33
757.427	49.81
757.607	49.97
757.786	49.49
757.965	48.87
758.144	49.11
758.323	48.06
758.502	48.21
758.681	48.14
758.86	47.76
759.039	47.49
759.218	45.93
759.397	45.29
759.576	45.5
759.755	46.2
759.934	46.68
760.113	47.17
760.291	46.75
760.47	46.14
760.649	46.12
760.828	45.4
761.007	45.96
761.186	46.08
761.364	46.84
761.543	46.95
761.722	46.54
761.901	46.72
762.079	46.63
762.258	47.79
762.437	48
762.615	48.19
762.794	48.65
762.972	47.79
763.151	49.09
763.33	49.33
763.508	49.02
763.687	49.29
763.865	49.32
764.044	49.18
764.222	49.25
764.401	49.68
764.579	49.8
764.758	49.85
764.936	50.65
765.114	49.95
765.293	50.21
765.471	50.42
765.65	50.32
765.828	50.53
766.006	50.36
766.184	49.64
766.363	49.52
766.541	49.14
766.719	49.91
766.898	49.12
767.076	48.73
767.254	48.2
767.432	47.88
767.61	48.45
767.788	47.38
767.967	47.77
768.145	47.71
768.323	48.23
768.501	48.9
768.679	47.89
768.857	48.53
769.035	49.11
769.213	48.97
769.391	49.28
769.569	48.66
769.747	49.53
769.925	49.95
770.103	50.64
770.281	49.43
770.459	49.9
770.636	49.18
770.814	48.08
770.992	48.56
771.17	48.05
771.348	48.69
771.525	49.7
771.703	50.15
771.881	49.93
772.059	49.76
772.236	50.69
772.414	49.8
772.592	50.84
772.769	52.43
772.947	51.99
773.125	52.77
773.302	51.7
773.48	50.98
773.657	50.17
773.835	50.94
774.013	50.45
774.19	50.17
774.368	50.23
774.545	50.39
774.723	48.32
774.9	47.93
775.077	47.76
775.255	46.81
775.432	46.23
775.61	46.24
775.787	45.29
775.964	46.29
776.142	46.18
776.319	45.82
776.496	45.12
776.674	46.14
776.851	45.83
777.028	46.38
777.205	47.98
777.382	47.26
777.56	48.33
777.737	48.53
777.914	48.64
778.091	49.35
778.268	49.77
778.445	50.1
778.622	50.08
778.8	51.25
778.977	49.78
779.154	49.97
779.331	50.8
779.508	50.4
779.685	51.23
779.862	50.87
780.038	49.82
780.215	50.69
780.392	52.02
780.569	52.35
780.746	51.76
780.923	51.58
781.1	50.94
781.277	52.45
781.453	51.38
781.63	48.68
781.807	48.94
781.984	49.3
782.16	48.61
782.337	48.28
782.514	47.53
782.691	47.83
782.867	50.05
783.044	49.88
783.221	48.73
783.397	49.03
783.574	49.03
783.75	48.16
783.927	49.24
784.103	50.33
784.28	50.03
784.456	50.7
784.633	49.62
784.809	46.85
784.986	47.13
785.162	47.6
785.339	49.22
785.515	50.95
785.692	52.51
785.868	51.3
786.044	48.32
786.221	48.82
786.397	49.45
786.573	50.75
786.749	52.7
786.926	53.71
787.102	55.02
787.278	54.38
787.454	54.23
787.631	52.19
787.807	50.16
787.983	51.2
788.159	50.21
788.335	50.56
788.511	50.34
788.687	50.37
788.863	49.76
789.039	48.41
789.216	47.47
789.392	47.06
789.568	49.9
789.744	52.23
789.919	54.54
790.095	55.25
790.271	53.61
790.447	52.27
790.623	50.05
790.799	49.24
790.975	49.27
791.151	49.84
791.327	50.81
791.502	48.38
791.678	48.55
791.854	46.29
792.03	44.86
792.205	45.01
792.381	46.3
792.557	48.14
792.733	48.16
792.908	47.78
793.084	47.96
793.259	47.12
793.435	47.74
793.611	46.83
793.786	48.59
793.962	50.56
794.137	51.22
794.313	52.44
794.488	53.15
794.664	54.41
794.839	54.26
795.015	54.23
795.19	53.95
795.366	53.41
795.541	52.82
795.716	51.53
795.892	51.21
796.067	51.74
796.242	51.3
796.418	51.48
796.593	50.98
796.768	50.47
796.944	50.74
797.119	49.91
797.294	51.16
797.469	52.49
797.644	53.76
797.82	53.53
797.995	51.88
798.17	51.23
798.345	49.75
798.52	50.67
798.695	51.14
798.87	49.07
799.045	50.36
799.22	48.82
799.395	47.65
799.57	45.29
799.745	45.01
799.92	47.66
800.095	46.67
800.27	46.62
800.445	46.14
800.62	45.56
800.795	49.56
800.97	48.79
801.145	49.31
801.319	50.84
801.494	51.94
801.669	52.82
801.844	50.11
802.018	50.19
802.193	49.99
802.368	47.93
802.543	48.83
802.717	46.84
802.892	45.69
803.067	45.11
803.241	45.2
803.416	46.01
803.59	45.11
803.765	46.8
803.94	46.76
804.114	47.13
804.289	49.78
804.463	50.15
804.638	50.83
804.812	54.27
804.986	53.86
805.161	52.04
805.335	50.69
805.51	51.84
805.684	50.69
805.858	50.74
806.033	51.21
806.207	49.13
806.381	49.58
806.556	46.41
806.73	45.4
806.904	47.91
807.078	49.33
807.253	47.9
807.427	47.83
807.601	46.56
807.775	47.06
807.949	45.59
808.123	46.71
808.298	46.1
808.472	46.64
808.646	48.48
808.82	46.92
808.994	45.96
809.168	48.33
809.342	47.43
809.516	50.57
809.69	50.85
809.864	54.53
810.038	53.34
810.212	52.87
810.385	53.65
810.559	52.06
810.733	52.48
810.907	52.31
811.081	50.76
811.255	49.66
811.428	47.95
811.602	47.83
811.776	45.68
811.95	47.16
812.123	47.2
812.297	46.39
812.471	46.35
812.644	47.09
812.818	46.29
812.992	47.18
813.165	47.14
813.339	47.99
813.512	47.94
813.686	48.29
813.86	50.22
814.033	52.22
814.207	52.96
814.38	53.58
814.554	48.13
814.727	47.3
814.9	47.85
815.074	50.02
815.247	48.5
815.421	46.11
815.594	45.57
815.767	44.03
815.941	41.58
816.114	42.71
816.287	41.29
816.46	42.15
816.634	44.23
816.807	44.67
816.98	45.14
817.153	48.42
817.327	51.47
817.5	51.86
817.673	52.73
817.846	51.6
818.019	51.77
818.192	53.37
818.365	52.59
818.538	51.63
818.711	48.4
818.884	45.41
819.057	43.22
819.23	42.04
819.403	39.88
819.576	39.46
819.749	41.98
819.922	41.57
820.095	41.82
820.268	44.74
820.441	46.62
820.614	47.07
820.786	48.81
820.959	49.73
821.132	49.37
821.305	50.68
821.477	50.61
821.65	49.56
821.823	50.49
821.996	50.36
822.168	50.55
822.341	50.19
822.514	50.5
822.686	50.43
822.859	49.48
823.031	50.32
823.204	50.23
823.376	50.41
823.549	50.59
823.722	50.4
823.894	50.62
824.067	50.55
824.239	50.53
824.411	50.59
824.584	50.85
824.756	51.93
824.929	51.55
825.101	51.89
825.273	51.47
825.446	51.89
825.618	51.6
825.79	51.29
825.963	51.76
826.135	51.6
826.307	51.49
826.479	51.49
826.652	51.61
826.824	51.12
826.996	51.08
827.168	50.98
827.34	50.54
827.512	50.28
827.684	50.47
827.856	49.37
828.029	49.44
828.201	48.83
828.373	47.92
828.545	46.91
828.717	47.65
828.889	47.04
829.061	46.79
829.232	45.84
829.404	45.96
829.576	45.6
829.748	45.79
829.92	45
830.092	46.17
830.264	46.76
830.436	47.41
830.607	45.65
830.779	46.27
830.951	46.51
831.123	47.42
831.294	47.86
831.466	48.51
831.638	48.66
831.809	47.7
831.981	47.86
832.153	44.59
832.324	45.33
832.496	47.9
832.667	47.56
832.839	47.23
833.011	46.22
833.182	47.85
833.354	47.26
833.525	46.74
833.697	46.77
833.868	46.02
834.039	47.29
834.211	45.04
834.382	43.67
834.554	42.86
834.725	42.84
834.896	44.8
835.068	44.26
835.239	43.4
835.41	44.38
835.581	46.88
835.753	46.31
835.924	47.51
836.095	49.95
836.266	51.13
836.438	52.14
836.609	53.59
836.78	52.95
836.951	50.38
837.122	52.07
837.293	51.27
837.464	50.08
837.635	51
837.806	51.6
837.977	49.52
838.148	47.8
838.319	49.28
838.49	49.51
838.661	49.76
838.832	53.5
839.003	50.57
839.174	51.57
839.345	53.32
839.516	53.03
839.687	53.47
839.857	51.31
840.028	53.99
840.199	54.69
840.37	54.3
840.54	53.69
840.711	52.48
840.882	56.91
841.053	56.8
841.223	50.79
841.394	54.58
841.564	54.91
841.735	54.69
841.906	50.57
842.076	48.96
842.247	50.25
842.417	49.27
842.588	50.85
842.758	53.12
842.929	56.2
843.099	61.39
843.27	57.94
843.44	58.34
843.611	60.99
843.781	65.27
843.951	64.91
844.122	63.01
844.292	65.89
844.462	63.89
844.633	59.1
844.803	51.73
844.973	53.11
845.144	54.99
845.314	54.05
845.484	55.19
845.654	53.75
845.824	59.87
845.995	59.13
846.165	61.02
846.335	63
846.505	61.88
846.675	71.29
846.845	64.22
847.015	59.45
847.185	56.84
847.355	52.15
847.525	51.53
847.695	45.71
847.865	50.51
848.035	45.84
848.205	44.66
848.375	45.55
848.545	38.31
848.715	43.6
848.884	48.83
849.054	51.75
849.224	58.65
849.394	58.6
849.564	62.07
849.733	54.75
849.903	67.2
850.073	69.18
850.243	67.72
850.412	71.35
850.582	70.44
850.752	61.61
850.921	59.18
851.091	56.44
851.26	60.62
851.43	57.79
851.599	59.25
851.769	45.5
851.939	43.39
852.108	48.13
852.278	43.35
852.447	48.36
852.616	54.93
852.786	51.82
852.955	53.93
853.125	52.31
853.294	49.07
853.463	52.25
853.633	60.3
853.802	61.39
853.971	50.81
854.141	50.82
854.31	48.56
854.479	48.19
854.648	51.54
854.818	46.95
854.987	41.5
855.156	46.27
855.325	38.16
855.494	36.53
855.663	31.46
855.832	34.82
856.001	44.19
856.171	41.38
856.34	40.22
856.509	39.47
856.678	41.53
856.847	48.76
857.016	47.57
857.185	57.37
857.353	55.35
857.522	60.08
857.691	71.21
857.86	69.52
858.029	68
858.198	67.18
858.367	68.88
858.535	68.74
858.704	60.71
858.873	56.58
859.042	54.75
859.21	55.24
859.379	57.97
859.548	50.2
859.717	48.37
859.885	45.97
860.054	44.96
860.222	39.69
860.391	42.52
860.56	53.54
860.728	57.5
860.897	59.49
861.065	59.94
861.234	56.32
861.402	63.42
861.571	61.15
861.739	62.53
861.908	65.75
862.076	72
862.244	68.34
862.413	62.78
862.581	60.78
862.749	61.26
862.918	59.36
863.086	63.22
863.254	58.98
863.423	66.17
863.591	67.2
863.759	70.66
863.927	70.27
864.096	69.89
864.264	72.08
864.432	72.72
864.6	68.08
864.768	65.78
864.936	58.02
865.104	61.12
865.272	55.75
865.44	52.51
865.608	50.4
865.776	47.62
865.944	42.97
866.112	40.09
866.28	32.7
866.448	30.86
866.616	34.83
866.784	47.74
866.952	46.9
867.12	55.66
867.288	60.06
867.455	54.4
867.623	57.33
867.791	63.25
867.959	68.17
868.127	79.24
868.294	80.67
868.462	77.93
868.63	68.4
868.797	71.14
868.965	62.99
869.133	62.75
869.3	66.9
869.468	69.09
869.636	67.03
869.803	68.6
869.971	69.79
870.138	73.1
870.306	80.23
870.473	79.78
870.641	70.95
870.808	72.96
870.975	74.82
871.143	72.79
871.31	65.34
871.478	70.73
871.645	73.4
871.812	77.05
871.98	72.21
872.147	64.75
872.314	60.27
872.482	68.72
872.649	62.15
872.816	60.45
872.983	60.62
873.15	63.65
873.318	58.2
873.485	46.03
873.652	45.69
873.819	46.01
873.986	53.54
874.153	61.14
874.32	50.77
874.487	54.22
874.654	54.98
874.821	51.06
874.988	48.25
875.155	44.59
875.322	48.77
875.489	46.31
875.656	39.21
875.823	23.74
875.99	22.67
876.157	34.24
876.324	31.72
876.49	35.24
876.657	42.43
876.824	39.27
876.991	38.75
877.157	47.24
877.324	48.94
877.491	51.69
877.658	62.03
877.824	59.18
877.991	58.27
878.157	57.27
878.324	56.83
878.491	58.96
878.657	72.27
878.824	76.94
878.99	74.67
879.157	73.96
879.323	78.33
879.49	71.89
879.656	71.6
879.823	68.64
879.989	67.21
880.156	60.55
880.322	53.73
880.488	40.17
880.655	39.9
880.821	43.18
880.987	39.55
881.154	33.73
881.32	35.68
881.486	36.78
881.652	33.95
881.819	36.13
881.985	38.66
882.151	41.19
882.317	42.52
882.483	39.41
882.649	37.81
882.816	38.74
882.982	40.59
883.148	40.46
883.314	40.15
883.48	41.44
883.646	41.88
883.812	40.76
883.978	41.45
884.144	41.7
884.31	43.2
884.476	44.87
884.642	46.9
884.807	47.55
884.973	47.88
885.139	47.98
885.305	50.68
885.471	51.36
885.637	52.7
885.802	53.28
885.968	54.47
886.134	54.27
886.3	52.42
886.465	51.22
886.631	50.84
886.797	51.14
886.962	51.62
887.128	49.64
887.293	48.34
887.459	47.94
887.625	45.32
887.79	48.56
887.956	53.24
888.121	55.89
888.287	55.82
888.452	56.75
888.618	56.93
888.783	58.8
