Data from LC_265_Reflection_1.txt Node
Date: Sat Nov 21 11:51:15 EST 2015
User: robert
Spectrometer: USB4E03001
Autoset integration time: false
Trigger mode: 4
Integration Time (sec): 1.000000E-1
Scans to average: 15
Electric dark correction enabled: true
Nonlinearity correction enabled: false
Boxcar width: 5
Stray light correction enabled: false
XAxis mode: Wavelengths
Stop averaging: false
Number of Pixels in Spectrum: 3648
>>>>>Begin Spectral Data<<<<<
177.566	89.39
177.785	99.32
178.005	229.43
178.225	2.08
178.445	85.28
178.665	102.35
178.885	-123.2
179.105	60.1
179.324	93.91
179.544	132.46
179.764	909.16
179.984	125.85
180.204	170.04
180.423	138.59
180.643	121.72
180.863	151.64
181.083	172.79
181.302	189.17
181.522	196.48
181.742	204.31
181.961	174.68
182.181	144.6
182.401	287.56
182.621	212.56
182.84	210.59
183.06	191.83
183.279	182.61
183.499	145.2
183.719	122.59
183.938	107.8
184.158	120.1
184.377	116.8
184.597	110.47
184.816	97.67
185.036	102.58
185.256	118.91
185.475	103.17
185.695	94.05
185.914	108.45
186.134	126.48
186.353	139.82
186.572	128.3
186.792	120.96
187.011	123.78
187.231	130.52
187.45	120.34
187.67	116.48
187.889	128
188.108	167.2
188.328	190.01
188.547	207.07
188.766	194.56
188.986	211.92
189.205	328.99
189.424	294.8
189.644	89.91
189.863	126.86
190.082	-86.04
190.302	318.08
190.521	56.95
190.74	52.04
190.959	35.65
191.178	43.4
191.398	23.23
191.617	28.04
191.836	66.31
192.055	99.12
192.274	85.17
192.494	73.42
192.713	77.06
192.932	117.35
193.151	109.38
193.37	113.38
193.589	107.53
193.808	146.13
194.027	145.41
194.246	127.26
194.465	108.92
194.685	106.42
194.904	97.42
195.123	98.58
195.342	85.42
195.561	99.95
195.78	41.99
195.999	52.09
196.218	71.7
196.436	71.69
196.655	93.79
196.874	112.13
197.093	157.64
197.312	167.25
197.531	182.96
197.75	135.19
197.969	128.22
198.188	146.39
198.407	141.28
198.625	132.5
198.844	128.69
199.063	128.28
199.282	112.52
199.501	104.19
199.719	105.64
199.938	105.87
200.157	119.22
200.376	111.71
200.594	111.6
200.813	102.07
201.032	118.85
201.251	107.92
201.469	111.51
201.688	144.99
201.907	169.3
202.125	127.43
202.344	136.06
202.563	140.71
202.781	156.98
203	175.63
203.218	166.99
203.437	228.86
203.656	345.73
203.874	301.76
204.093	130.94
204.311	68.7
204.53	105.12
204.748	13.15
204.967	79.47
205.185	65.1
205.404	41.68
205.622	99.85
205.841	67.54
206.059	84.98
206.278	79.7
206.496	84.48
206.715	193.8
206.933	233.63
207.151	191.57
207.37	140.57
207.588	200.24
207.806	213.27
208.025	125.3
208.243	133.68
208.461	137.55
208.68	139.04
208.898	183.1
209.116	120.93
209.335	110.33
209.553	126.75
209.771	146.44
209.989	157.83
210.208	179.12
210.426	191.3
210.644	158.68
210.862	155.26
211.081	141.21
211.299	72.63
211.517	141.4
211.735	126.62
211.953	105.68
212.171	90.94
212.39	67.81
212.608	53.35
212.826	80.81
213.044	91.69
213.262	88.44
213.48	86.03
213.698	98.61
213.916	104.88
214.134	84.65
214.352	91.32
214.57	98.79
214.788	114.8
215.006	135.2
215.224	110.14
215.442	117.13
215.66	168.63
215.878	154.07
216.096	182.76
216.314	160.49
216.532	167.38
216.75	157.57
216.968	162.91
217.185	128.24
217.403	107.18
217.621	129.03
217.839	112.1
218.057	81.02
218.275	78.51
218.492	75.67
218.71	71.3
218.928	96.42
219.146	96.85
219.363	88.11
219.581	165.16
219.799	154.46
220.017	105.4
220.234	112.05
220.452	90.59
220.67	91.67
220.887	84.48
221.105	85.74
221.323	59.74
221.54	50.84
221.758	52.32
221.976	46.2
222.193	58.94
222.411	58.64
222.629	57.76
222.846	67.28
223.064	72.41
223.281	76.66
223.499	74.17
223.716	83.54
223.934	82.53
224.151	84.19
224.369	64.66
224.586	63.52
224.804	74.71
225.021	82.77
225.239	70.23
225.456	76.41
225.674	68.38
225.891	69.41
226.108	66.64
226.326	70.68
226.543	66.4
226.76	70.04
226.978	61.52
227.195	50.7
227.413	47.17
227.63	47.05
227.847	41.84
228.064	38.45
228.282	30.84
228.499	27.99
228.716	26.74
228.934	25.42
229.151	25.02
229.368	24
229.585	25.68
229.802	25.01
230.02	23.75
230.237	23.46
230.454	22.53
230.671	24.24
230.888	25.14
231.105	20.9
231.323	22.84
231.54	21.57
231.757	25.61
231.974	25.67
232.191	26.42
232.408	30.75
232.625	28.87
232.842	27.27
233.059	30.02
233.276	31.94
233.493	44.2
233.71	44.1
233.927	42.38
234.144	39.68
234.361	35.94
234.578	34.96
234.795	33.7
235.012	34.89
235.229	40.92
235.446	36.87
235.663	34.67
235.879	27.58
236.096	26.71
236.313	29.78
236.53	29.85
236.747	33.29
236.964	31.76
237.181	32.1
237.397	27.14
237.614	21.69
237.831	23.77
238.048	23.85
238.264	27.61
238.481	22.98
238.698	21.72
238.915	20.03
239.131	16.08
239.348	18.15
239.565	16.93
239.781	25.33
239.998	27.72
240.215	27.51
240.431	21.49
240.648	16.6
240.865	17.04
241.081	15.1
241.298	15.48
241.514	17.71
241.731	17.64
241.947	18.16
242.164	16.7
242.38	15.15
242.597	15.66
242.814	15.83
243.03	16.72
243.246	18.35
243.463	18.38
243.679	17.57
243.896	16.65
244.112	16.02
244.329	15.81
244.545	16.98
244.762	18.8
244.978	16.55
245.194	18.77
245.411	20.78
245.627	18.38
245.843	16.88
246.06	15.87
246.276	15.19
246.492	15.6
246.709	14.77
246.925	13.87
247.141	12.87
247.357	13.22
247.574	12.9
247.79	11.68
248.006	11.53
248.222	11.53
248.439	12.27
248.655	13.49
248.871	13.2
249.087	13.74
249.303	13.01
249.519	13.12
249.736	14.69
249.952	15.02
250.168	16.14
250.384	17
250.6	19.09
250.816	20.61
251.032	19.85
251.248	20.16
251.464	19.73
251.68	19.32
251.896	20.89
252.112	19.98
252.328	18.69
252.544	18.24
252.76	18.16
252.976	19.07
253.192	18.17
253.408	18.57
253.624	19.71
253.84	19.69
254.056	21.75
254.272	20.32
254.487	20.34
254.703	23.4
254.919	22.46
255.135	23.4
255.351	18.77
255.567	18.47
255.782	16.98
255.998	15.74
256.214	14.22
256.43	15.07
256.646	14.75
256.861	12.02
257.077	12.05
257.293	12.97
257.508	13.17
257.724	14.04
257.94	14.62
258.155	13.85
258.371	12.76
258.587	13.43
258.802	11.86
259.018	11.5
259.234	13.29
259.449	12.29
259.665	12.17
259.88	12.65
260.096	13.34
260.312	13.61
260.527	13.82
260.743	14.26
260.958	14.32
261.174	14.4
261.389	15.24
261.605	14.27
261.82	15.15
262.036	16.13
262.251	15.34
262.466	15.5
262.682	13.8
262.897	13.95
263.113	14.07
263.328	15.55
263.543	15.41
263.759	13.16
263.974	14.79
264.189	15.04
264.405	16.17
264.62	17.19
264.835	17.21
265.051	19.17
265.266	19.63
265.481	17.73
265.696	17.47
265.912	19.18
266.127	20.22
266.342	19.4
266.557	18.31
266.773	16.14
266.988	16.04
267.203	14.82
267.418	14.01
267.633	13.07
267.848	13.46
268.064	11.71
268.279	11.78
268.494	11.94
268.709	11.74
268.924	11.15
269.139	11.02
269.354	10.09
269.569	10
269.784	11.23
269.999	9.95
270.214	11.31
270.429	11.52
270.644	9.35
270.859	9.48
271.074	8.58
271.289	8.8
271.504	9.07
271.719	8.45
271.934	8.13
272.149	7.26
272.363	8.28
272.578	7.03
272.793	6.54
273.008	8.67
273.223	9.04
273.438	10.15
273.653	11.6
273.867	11.42
274.082	13.08
274.297	13.46
274.512	13.96
274.726	14.68
274.941	15.56
275.156	17.4
275.371	15.34
275.585	14.95
275.8	13.46
276.015	11.48
276.229	10.51
276.444	9.99
276.659	10.65
276.873	10.77
277.088	10.29
277.302	9.84
277.517	8.91
277.732	10.21
277.946	9.51
278.161	11.07
278.375	10.8
278.59	13.6
278.804	12.95
279.019	13.68
279.233	13.57
279.448	14.17
279.662	14.66
279.877	13.98
280.091	14.33
280.306	15.12
280.52	15.04
280.735	15.89
280.949	13.37
281.163	13.74
281.378	12.65
281.592	11.32
281.806	11.19
282.021	11.19
282.235	11.77
282.449	10.86
282.664	10.62
282.878	10.02
283.092	10.77
283.307	11.87
283.521	11.22
283.735	11.38
283.949	12.23
284.164	10.84
284.378	11.06
284.592	10.09
284.806	10.43
285.02	10.41
285.234	10.3
285.449	8.9
285.663	8.79
285.877	9.03
286.091	10.24
286.305	9.57
286.519	10.52
286.733	10.47
286.947	10.95
287.161	11.05
287.375	10.71
287.589	10.97
287.803	11.71
288.017	11.96
288.231	12.17
288.445	11.35
288.659	12
288.873	11.86
289.087	11.57
289.301	11.56
289.515	11.43
289.729	12.47
289.943	12.02
290.157	12.1
290.371	12.71
290.584	13.25
290.798	12.8
291.012	13.04
291.226	12.49
291.44	12.26
291.654	12.42
291.867	12.94
292.081	12.97
292.295	13.61
292.509	13.38
292.722	12.54
292.936	12.3
293.15	11.33
293.364	11.65
293.577	11.71
293.791	12.36
294.005	13.51
294.218	12.41
294.432	11.64
294.645	11.67
294.859	11.84
295.073	11.28
295.286	11.27
295.5	12.62
295.713	11.93
295.927	12.22
296.14	12.15
296.354	11.43
296.568	12.15
296.781	12.23
296.994	12.89
297.208	13.12
297.421	13.83
297.635	13.48
297.848	13.39
298.062	13.88
298.275	14.4
298.489	14.09
298.702	14.04
298.915	13.55
299.129	13.99
299.342	12.84
299.555	12.65
299.769	12.44
299.982	12.76
300.195	12.46
300.409	12.15
300.622	10.92
300.835	10.91
301.048	11.9
301.262	12.08
301.475	11.96
301.688	12.66
301.901	12.45
302.115	11.74
302.328	11.19
302.541	10.65
302.754	11.17
302.967	12.01
303.18	12.88
303.393	12.15
303.607	12.23
303.82	12.02
304.033	11.25
304.246	11.87
304.459	12.77
304.672	13.65
304.885	14.31
305.098	14.16
305.311	13.77
305.524	12.74
305.737	11.92
305.95	10.99
306.163	10.6
306.376	11.26
306.589	10.4
306.802	9.87
307.015	8.8
307.228	8.47
307.44	7.27
307.653	8.88
307.866	8.9
308.079	9.2
308.292	8.95
308.505	9.72
308.718	10.24
308.93	10.77
309.143	9.88
309.356	10.58
309.569	10.28
309.781	11.18
309.994	10.74
310.207	10.7
310.42	10.57
310.632	11.08
310.845	10.73
311.058	10.84
311.27	11.63
311.483	12.42
311.696	12.25
311.908	12.97
312.121	12.73
312.333	12.65
312.546	13.63
312.759	14.07
312.971	14.39
313.184	15.24
313.396	14.47
313.609	12.71
313.821	12.57
314.034	13.27
314.246	12.98
314.459	13.04
314.671	11.91
314.884	10.36
315.096	10.45
315.309	9.79
315.521	9.13
315.733	9.8
315.946	10.5
316.158	10.45
316.371	10.73
316.583	10.23
316.795	10.23
317.008	11.85
317.22	12.67
317.432	12.69
317.644	13.43
317.857	13.62
318.069	12.35
318.281	13.08
318.494	13.8
318.706	13.14
318.918	12.52
319.13	11.75
319.342	11.13
319.555	11.32
319.767	11.37
319.979	12.08
320.191	11.85
320.403	13.4
320.615	13.43
320.827	12.72
321.039	11.73
321.252	12.04
321.464	11.72
321.676	9.86
321.888	10.27
322.1	9.81
322.312	9.84
322.524	9.09
322.736	8.8
322.948	9.35
323.16	9
323.372	9.91
323.584	11.08
323.796	11.96
324.007	12.98
324.219	12.32
324.431	12.64
324.643	12.17
324.855	12.12
325.067	12.88
325.279	12.57
325.491	12.8
325.702	12.92
325.914	12.87
326.126	12.95
326.338	12.9
326.55	13.41
326.761	13.38
326.973	13.46
327.185	13.98
327.396	12.57
327.608	11.39
327.82	11.93
328.032	11.18
328.243	10.01
328.455	10.47
328.666	11.16
328.878	11.61
329.09	11.2
329.301	12.25
329.513	12.34
329.725	13.49
329.936	14.54
330.148	13.48
330.359	14.35
330.571	14.99
330.782	14.41
330.994	13.81
331.205	13.11
331.417	14.8
331.628	14.01
331.84	14.92
332.051	15
332.262	14.86
332.474	16.02
332.685	16.69
332.897	17.29
333.108	17.62
333.319	17.19
333.531	17.05
333.742	15.88
333.953	16.24
334.165	15.96
334.376	15.1
334.587	16.17
334.799	16.07
335.01	14.86
335.221	15.47
335.432	15.13
335.644	15.86
335.855	16.94
336.066	17.19
336.277	16.59
336.488	15.79
336.7	15.94
336.911	15.41
337.122	16.07
337.333	16.95
337.544	16.55
337.755	17.33
337.966	17.56
338.177	16.57
338.388	16.53
338.599	16.35
338.811	17.07
339.022	16.94
339.233	16.43
339.444	15.72
339.655	15.65
339.866	15.79
340.076	15.1
340.287	14.81
340.498	15.79
340.709	16
340.92	16.48
341.131	16.48
341.342	17.21
341.553	18.05
341.764	18.11
341.975	17.81
342.185	17
342.396	17.14
342.607	17.67
342.818	16.96
343.029	17.11
343.239	17.81
343.45	17.05
343.661	17.13
343.872	16.13
344.082	16.31
344.293	16.54
344.504	17.06
344.714	16.99
344.925	16.6
345.136	16.94
345.346	16.74
345.557	16.27
345.768	16.5
345.978	15.82
346.189	16.1
346.399	15.55
346.61	15.7
346.821	15.37
347.031	15.27
347.242	15.15
347.452	14.51
347.663	14.8
347.873	14.96
348.084	15.33
348.294	15.84
348.504	15.36
348.715	15.53
348.925	14.91
349.136	15.55
349.346	15.79
349.557	15.34
349.767	15.72
349.977	15.08
350.188	14.61
350.398	14.37
350.608	14.35
350.819	14.94
351.029	14.62
351.239	14.47
351.449	13.82
351.66	14.39
351.87	14.73
352.08	15.59
352.29	16.25
352.501	16.07
352.711	16.11
352.921	15.97
353.131	15.82
353.341	16.6
353.552	16.19
353.762	15.82
353.972	15.15
354.182	15.47
354.392	14.82
354.602	14.46
354.812	14.99
355.022	15.16
355.232	15.06
355.442	15.44
355.652	15.53
355.862	16.22
356.072	16.61
356.282	16.34
356.492	15.58
356.702	15.07
356.912	15.25
357.122	15.25
357.332	14.83
357.542	14.17
357.752	13.98
357.962	13.58
358.171	13.28
358.381	13.28
358.591	13.1
358.801	13.77
359.011	14.12
359.221	13.79
359.43	13.43
359.64	13.64
359.85	14.44
360.06	14.23
360.269	14.42
360.479	14.37
360.689	13.46
360.899	13.81
361.108	13.68
361.318	13.36
361.528	13.49
361.737	13.4
361.947	13.43
362.156	12.78
362.366	12.63
362.576	12.47
362.785	12.4
362.995	13.59
363.204	13.13
363.414	12.87
363.623	13.54
363.833	13.1
364.042	13.06
364.252	12.91
364.461	13.48
364.671	13.66
364.88	13.57
365.09	13.44
365.299	12.57
365.509	12.82
365.718	13.27
365.927	13.06
366.137	12.35
366.346	12.06
366.555	11.94
366.765	12.2
366.974	11.85
367.183	11.43
367.393	11.68
367.602	11.8
367.811	11.77
368.021	11.15
368.23	10.81
368.439	11.93
368.648	12.4
368.857	12.38
369.067	11.57
369.276	11.99
369.485	12.47
369.694	12.81
369.903	12.77
370.112	13
370.321	13.34
370.531	12.68
370.74	12.5
370.949	12.23
371.158	12.44
371.367	12.77
371.576	12.48
371.785	12.71
371.994	12.34
372.203	12.2
372.412	12.3
372.621	12.3
372.83	12.62
373.039	12.49
373.248	12.22
373.457	12.33
373.666	12.13
373.874	11.68
374.083	11.7
374.292	11.71
374.501	11.72
374.71	10.85
374.919	10.68
375.128	11.2
375.336	11.64
375.545	12.07
375.754	11.72
375.963	11.74
376.171	12.35
376.38	12.02
376.589	11.81
376.798	11.72
377.006	12.23
377.215	12.39
377.424	12.08
377.632	12.16
377.841	11.71
378.05	12
378.258	12.3
378.467	12.36
378.675	12.36
378.884	12.13
379.093	12.11
379.301	12.15
379.51	12.01
379.718	12.28
379.927	12.06
380.135	12.47
380.344	12.34
380.552	11.85
380.761	11.59
380.969	11.72
381.177	11.65
381.386	11.49
381.594	11.47
381.803	11.2
382.011	10.99
382.219	10.82
382.428	10.7
382.636	10.33
382.845	10.9
383.053	11.02
383.261	10.87
383.469	11.22
383.678	11.42
383.886	11.13
384.094	10.93
384.302	10.68
384.511	10.67
384.719	10.59
384.927	10.89
385.135	10.54
385.343	10.41
385.552	10.42
385.76	10.74
385.968	10.92
386.176	10.86
386.384	10.97
386.592	10.74
386.8	10.68
387.008	10.89
387.216	10.94
387.424	10.98
387.633	10.83
387.841	10.48
388.049	9.96
388.257	9.89
388.465	10.04
388.672	10.11
388.88	10.24
389.088	9.93
389.296	9.69
389.504	9.33
389.712	9.17
389.92	9.17
390.128	9.48
390.336	9.7
390.544	9.62
390.751	9.62
390.959	9.59
391.167	9.77
391.375	9.84
391.583	9.73
391.79	9.58
391.998	9.9
392.206	9.97
392.414	9.6
392.621	9.41
392.829	9.36
393.037	9.38
393.244	9.5
393.452	9.28
393.66	9.36
393.867	9.41
394.075	10.02
394.283	9.76
394.49	9.85
394.698	10.09
394.905	10.34
395.113	10.13
395.32	10.23
395.528	10.43
395.735	10.62
395.943	10.83
396.15	11.04
396.358	10.36
396.565	10.21
396.773	10.16
396.98	10.35
397.188	10.1
397.395	10.22
397.602	10.16
397.81	9.85
398.017	9.66
398.225	9.43
398.432	9.27
398.639	9.47
398.847	9.59
399.054	9.34
399.261	9.31
399.468	9.46
399.676	9.99
399.883	10.2
400.09	10.43
400.297	10.76
400.505	10.62
400.712	10.54
400.919	10.32
401.126	10.51
401.333	10.79
401.54	10.79
401.748	10.52
401.955	10.27
402.162	10.02
402.369	9.77
402.576	9.53
402.783	9.59
402.99	9.44
403.197	9.62
403.404	9.53
403.611	9.58
403.818	9.57
404.025	9.6
404.232	9.44
404.439	9.37
404.646	9.36
404.853	9.52
405.06	9.48
405.267	9.64
405.474	9.71
405.681	9.69
405.887	9.47
406.094	9.32
406.301	9.45
406.508	9.21
406.715	9.22
406.922	8.97
407.128	8.92
407.335	8.69
407.542	8.85
407.749	8.73
407.955	8.58
408.162	8.73
408.369	8.78
408.575	8.66
408.782	8.8
408.989	8.81
409.195	9.14
409.402	8.93
409.609	9.14
409.815	8.62
410.022	8.88
410.228	8.83
410.435	8.6
410.642	8.5
410.848	8.73
411.055	8.6
411.261	8.24
411.468	8.13
411.674	8.16
411.881	8.09
412.087	8.39
412.294	8.35
412.5	8.12
412.706	8.33
412.913	8.12
413.119	7.99
413.326	8.25
413.532	8.48
413.738	8.51
413.945	8.6
414.151	8.76
414.357	8.76
414.564	8.77
414.77	9.24
414.976	9.14
415.182	9.37
415.389	9.41
415.595	9.35
415.801	9.49
416.007	9.41
416.214	9.23
416.42	9.14
416.626	9.24
416.832	9.04
417.038	8.87
417.244	9.01
417.45	9.05
417.657	8.99
417.863	8.97
418.069	8.93
418.275	8.94
418.481	9.1
418.687	9.12
418.893	8.81
419.099	8.66
419.305	8.63
419.511	8.52
419.717	8.38
419.923	8.38
420.129	8.42
420.335	8.37
420.541	8.36
420.746	8.16
420.952	8.01
421.158	8.07
421.364	8.24
421.57	8.26
421.776	8.31
421.982	8.35
422.187	8.33
422.393	8.27
422.599	8.1
422.805	8.12
423.01	8.24
423.216	8.41
423.422	8.46
423.628	8.43
423.833	8.36
424.039	8.31
424.245	8.24
424.45	8.27
424.656	8.18
424.862	8.37
425.067	8.36
425.273	8.28
425.478	8.26
425.684	8.29
425.889	8.26
426.095	8.23
426.301	8.32
426.506	8.35
426.712	8.21
426.917	8.13
427.123	8.14
427.328	8.27
427.533	8.41
427.739	8.4
427.944	8.4
428.15	8.46
428.355	8.62
428.561	8.43
428.766	8.45
428.971	8.55
429.177	8.96
429.382	9.09
429.587	8.82
429.793	8.84
429.998	9.06
430.203	8.97
430.408	8.97
430.614	8.69
430.819	8.62
431.024	8.52
431.229	8.73
431.434	8.45
431.64	8.04
431.845	8.12
432.05	7.99
432.255	7.65
432.46	7.81
432.665	7.66
432.87	7.79
433.076	7.9
433.281	7.94
433.486	7.76
433.691	7.89
433.896	7.98
434.101	7.95
434.306	7.92
434.511	7.98
434.716	7.79
434.921	7.66
435.126	7.68
435.331	7.9
435.535	7.96
435.74	7.91
435.945	7.71
436.15	7.7
436.355	7.65
436.56	7.69
436.765	7.76
436.97	7.77
437.174	8.16
437.379	8.27
437.584	8.03
437.789	7.94
437.993	8
438.198	8.03
438.403	8.13
438.608	8.29
438.812	8.24
439.017	8.12
439.222	8.27
439.426	8.11
439.631	8.16
439.836	8.2
440.04	8.23
440.245	8.16
440.45	8.2
440.654	8.11
440.859	8.06
441.063	8.04
441.268	8.05
441.472	7.92
441.677	7.9
441.881	7.82
442.086	7.75
442.29	7.8
442.495	7.82
442.699	7.89
442.904	7.93
443.108	7.77
443.312	7.83
443.517	8.02
443.721	8.09
443.925	7.97
444.13	7.88
444.334	7.89
444.538	7.79
444.743	7.72
444.947	7.67
445.151	7.72
445.356	7.74
445.56	7.77
445.764	7.58
445.968	7.53
446.173	7.63
446.377	7.65
446.581	7.63
446.785	7.55
446.989	7.46
447.193	7.46
447.398	7.35
447.602	7.29
447.806	7.22
448.01	7.19
448.214	7.17
448.418	7.05
448.622	7.02
448.826	6.92
449.03	6.97
449.234	7.16
449.438	7.1
449.642	7.06
449.846	7.15
450.05	7.11
450.254	7.13
450.458	7.01
450.662	7.23
450.866	7.08
451.069	7.12
451.273	7.22
451.477	7.06
451.681	6.86
451.885	7.03
452.089	7
452.292	7.09
452.496	7.22
452.7	7.27
452.904	7.14
453.107	7.21
453.311	7.25
453.515	7.23
453.719	7.33
453.922	7.56
454.126	7.44
454.33	7.57
454.533	7.46
454.737	7.5
454.94	7.54
455.144	7.69
455.348	7.63
455.551	7.63
455.755	7.56
455.958	7.55
456.162	7.62
456.365	7.56
456.569	7.6
456.772	7.62
456.976	7.47
457.179	7.57
457.383	7.38
457.586	7.42
457.79	7.51
457.993	7.56
458.196	7.6
458.4	7.44
458.603	7.55
458.807	7.34
459.01	7.41
459.213	7.44
459.417	7.29
459.62	7.27
459.823	7.2
460.026	7.14
460.23	7.07
460.433	6.94
460.636	6.93
460.839	6.85
461.042	7.04
461.246	6.86
461.449	6.94
461.652	6.99
461.855	7.04
462.058	7.34
462.261	7.32
462.464	7.35
462.668	7.5
462.871	7.64
463.074	7.74
463.277	7.66
463.48	7.83
463.683	7.66
463.886	7.74
464.089	7.88
464.292	7.53
464.495	7.63
464.698	7.7
464.901	7.69
465.104	7.67
465.306	7.76
465.509	7.64
465.712	7.6
465.915	7.63
466.118	7.64
466.321	7.48
466.524	7.67
466.726	7.73
466.929	7.65
467.132	7.61
467.335	7.47
467.538	7.37
467.74	7.37
467.943	7.47
468.146	7.45
468.348	7.46
468.551	7.44
468.754	7.39
468.956	7.28
469.159	7.26
469.362	7.23
469.564	7.25
469.767	7.27
469.969	7.39
470.172	7.31
470.375	7.36
470.577	7.48
470.78	7.44
470.982	7.43
471.185	7.43
471.387	7.49
471.59	7.5
471.792	7.65
471.995	7.66
472.197	7.67
472.399	7.68
472.602	7.63
472.804	7.44
473.007	7.57
473.209	7.74
473.411	7.79
473.614	7.81
473.816	7.76
474.018	7.58
474.22	7.55
474.423	7.5
474.625	7.47
474.827	7.65
475.03	7.76
475.232	7.84
475.434	7.57
475.636	7.52
475.838	7.52
476.04	7.53
476.243	7.55
476.445	7.45
476.647	7.46
476.849	7.47
477.051	7.34
477.253	7.28
477.455	7.28
477.657	7.15
477.859	7.25
478.061	7.24
478.263	7.35
478.465	7.46
478.667	7.53
478.869	7.38
479.071	7.36
479.273	7.33
479.475	7.29
479.677	7.19
479.879	7.49
480.081	7.48
480.283	7.49
480.485	7.39
480.686	7.32
480.888	7.36
481.09	7.45
481.292	7.45
481.494	7.44
481.695	7.31
481.897	7.28
482.099	7.11
482.301	6.98
482.502	6.98
482.704	7
482.906	6.98
483.107	6.98
483.309	6.99
483.511	6.96
483.712	6.97
483.914	7
484.115	6.97
484.317	7
484.519	7.01
484.72	6.96
484.922	6.9
485.123	6.91
485.325	6.92
485.526	6.88
485.728	6.87
485.929	6.88
486.131	6.89
486.332	6.9
486.534	6.87
486.735	6.86
486.936	6.89
487.138	6.92
487.339	6.95
487.541	6.91
487.742	6.96
487.943	7.05
488.144	6.98
488.346	6.99
488.547	6.96
488.748	6.95
488.95	6.96
489.151	6.98
489.352	6.96
489.553	6.93
489.755	6.91
489.956	6.79
490.157	6.68
490.358	6.72
490.559	6.68
490.76	6.78
490.961	6.84
491.163	6.84
491.364	6.83
491.565	6.88
491.766	6.91
491.967	6.97
492.168	7.03
492.369	7.04
492.57	7.08
492.771	7.11
492.972	7.05
493.173	7.05
493.374	7.06
493.575	7.06
493.776	7.05
493.976	7.08
494.177	7.08
494.378	7.13
494.579	7.22
494.78	7.36
494.981	7.5
495.182	7.6
495.382	7.56
495.583	7.6
495.784	7.6
495.985	7.61
496.185	7.56
496.386	7.48
496.587	7.44
496.788	7.49
496.988	7.27
497.189	7.25
497.39	7.22
497.59	7.26
497.791	7.25
497.992	7.24
498.192	7.37
498.393	7.41
498.593	7.62
498.794	7.61
498.994	7.64
499.195	7.67
499.395	7.67
499.596	7.8
499.796	7.86
499.997	7.89
500.197	8.03
500.398	7.94
500.598	7.91
500.799	7.7
500.999	7.79
501.199	7.62
501.4	7.71
501.6	7.66
501.801	7.6
502.001	7.65
502.201	7.71
502.402	7.67
502.602	7.71
502.802	7.83
503.002	7.96
503.203	7.92
503.403	8.02
503.603	8.05
503.803	8.11
504.003	8.12
504.204	8.02
504.404	8.13
504.604	8.05
504.804	8.08
505.004	8.05
505.204	8.07
505.404	8.01
505.604	8.02
505.804	8
506.005	7.91
506.205	7.97
506.405	7.98
506.605	7.86
506.805	7.97
507.005	7.96
507.204	7.89
507.404	7.86
507.604	7.98
507.804	7.88
508.004	7.91
508.204	8.04
508.404	7.93
508.604	7.94
508.804	8.01
509.003	8
509.203	8.01
509.403	8.12
509.603	8.11
509.803	8.15
510.002	8.27
510.202	8.2
510.402	8.08
510.602	8.06
510.801	8.09
511.001	8.05
511.201	8.01
511.4	8.07
511.6	7.99
511.8	8.05
511.999	7.97
512.199	7.93
512.398	7.98
512.598	8.09
512.797	8.18
512.997	8.09
513.197	8.09
513.396	8.16
513.596	8.15
513.795	8.22
513.994	8.17
514.194	8.25
514.393	8.33
514.593	8.35
514.792	8.29
514.992	8.4
515.191	8.59
515.39	8.72
515.59	8.77
515.789	8.85
515.988	8.81
516.188	8.93
516.387	8.96
516.586	9.05
516.786	9.19
516.985	9.28
517.184	9.28
517.383	9.33
517.582	9.26
517.782	9.33
517.981	9.36
518.18	9.34
518.379	9.3
518.578	9.23
518.777	9.17
518.976	9.13
519.176	9.17
519.375	9.12
519.574	9.08
519.773	9.17
519.972	9.02
520.171	9.03
520.37	9.17
520.569	9.22
520.768	9.37
520.967	9.41
521.166	9.45
521.365	9.49
521.564	9.56
521.762	9.59
521.961	9.56
522.16	9.71
522.359	9.63
522.558	9.6
522.757	9.65
522.956	9.67
523.154	9.82
523.353	9.88
523.552	9.91
523.751	10
523.949	10.04
524.148	10.1
524.347	10.2
524.546	10.25
524.744	10.27
524.943	10.3
525.142	10.44
525.34	10.29
525.539	10.29
525.737	10.28
525.936	10.3
526.135	10.32
526.333	10.28
526.532	10.34
526.73	10.41
526.929	10.5
527.127	10.51
527.326	10.44
527.524	10.44
527.723	10.54
527.921	10.52
528.12	10.51
528.318	10.5
528.516	10.5
528.715	10.49
528.913	10.49
529.112	10.51
529.31	10.52
529.508	10.52
529.707	10.64
529.905	10.59
530.103	10.7
530.301	10.77
530.5	10.87
530.698	10.96
530.896	11.06
531.094	11.08
531.293	11.11
531.491	11.22
531.689	11.26
531.887	11.3
532.085	11.34
532.283	11.33
532.481	11.38
532.68	11.4
532.878	11.51
533.076	11.53
533.274	11.66
533.472	11.75
533.67	11.7
533.868	11.78
534.066	11.87
534.264	11.92
534.462	11.96
534.66	11.97
534.858	12
535.056	12.02
535.253	12.1
535.451	12.14
535.649	12.11
535.847	12.26
536.045	12.33
536.243	12.31
536.441	12.35
536.638	12.36
536.836	12.44
537.034	12.48
537.232	12.45
537.43	12.31
537.627	12.3
537.825	12.31
538.023	12.27
538.22	12.31
538.418	12.25
538.616	12.39
538.813	12.5
539.011	12.52
539.209	12.57
539.406	12.67
539.604	12.89
539.801	12.97
539.999	13.13
540.196	13.19
540.394	13.2
540.591	13.25
540.789	13.19
540.986	13.21
541.184	13.24
541.381	13.24
541.579	13.33
541.776	13.34
541.974	13.4
542.171	13.41
542.368	13.49
542.566	13.57
542.763	13.63
542.96	13.79
543.158	13.75
543.355	13.9
543.552	14.06
543.75	14.08
543.947	14.18
544.144	14.35
544.341	14.49
544.539	14.51
544.736	14.55
544.933	14.6
545.13	14.59
545.327	14.75
545.524	14.79
545.722	14.74
545.919	14.64
546.116	14.74
546.313	14.62
546.51	14.55
546.707	14.61
546.904	14.68
547.101	14.87
547.298	14.95
547.495	14.99
547.692	14.94
547.889	15.07
548.086	15.16
548.283	15.11
548.48	15.18
548.677	15.3
548.874	15.47
549.07	15.52
549.267	15.56
549.464	15.59
549.661	15.59
549.858	15.71
550.055	15.68
550.251	15.8
550.448	15.92
550.645	16.21
550.842	16.2
551.038	16.19
551.235	16.31
551.432	16.29
551.628	16.26
551.825	16.43
552.022	16.56
552.218	16.69
552.415	16.92
552.612	16.99
552.808	16.9
553.005	16.81
553.201	16.87
553.398	16.75
553.594	16.73
553.791	17.03
553.987	17.15
554.184	17.12
554.38	17.24
554.577	17.21
554.773	17.29
554.97	17.41
555.166	17.73
555.362	17.87
555.559	17.95
555.755	18.08
555.952	17.98
556.148	18.2
556.344	18.3
556.541	18.26
556.737	18.3
556.933	18.22
557.129	18.16
557.326	18.16
557.522	18.27
557.718	18.38
557.914	18.37
558.11	18.44
558.307	18.22
558.503	18.38
558.699	18.52
558.895	18.46
559.091	18.64
559.287	18.9
559.483	18.72
559.679	18.88
559.876	19.21
560.072	19.5
560.268	19.49
560.464	19.81
560.66	19.95
560.856	20.02
561.052	20.36
561.247	20.49
561.443	20.47
561.639	20.77
561.835	20.77
562.031	20.72
562.227	20.66
562.423	20.78
562.619	20.81
562.815	20.84
563.01	20.83
563.206	20.85
563.402	20.89
563.598	21.2
563.793	21.27
563.989	21.29
564.185	21.39
564.381	21.55
564.576	21.79
564.772	21.87
564.968	21.9
565.163	21.95
565.359	22.05
565.555	21.91
565.75	21.71
565.946	21.83
566.141	21.87
566.337	21.93
566.532	21.97
566.728	21.77
566.923	21.7
567.119	21.68
567.314	21.84
567.51	21.78
567.705	22.21
567.901	22.53
568.096	22.73
568.292	22.91
568.487	22.84
568.682	22.83
568.878	22.95
569.073	23.17
569.268	23.25
569.464	23.22
569.659	23.52
569.854	23.42
570.05	23.33
570.245	23.2
570.44	23.17
570.635	23.27
570.831	23.51
571.026	23.67
571.221	23.68
571.416	23.83
571.611	23.98
571.806	23.91
572.002	23.91
572.197	24
572.392	24.03
572.587	24.09
572.782	24.38
572.977	24.34
573.172	24.28
573.367	24.35
573.562	24.49
573.757	24.44
573.952	24.55
574.147	24.51
574.342	24.61
574.537	24.74
574.732	24.84
574.927	24.86
575.121	24.96
575.316	25.19
575.511	25.15
575.706	25.12
575.901	25.18
576.096	25.2
576.29	25.54
576.485	25.33
576.68	25.36
576.875	25.31
577.069	25.11
577.264	25.27
577.459	25.18
577.654	25.27
577.848	25.36
578.043	25.39
578.238	25.4
578.432	25.34
578.627	25.59
578.821	25.59
579.016	25.56
579.21	25.76
579.405	25.67
579.6	25.81
579.794	25.94
579.989	25.87
580.183	26.24
580.378	26.34
580.572	26.39
580.766	26.54
580.961	26.6
581.155	26.87
581.35	27.08
581.544	27.3
581.738	27.56
581.933	27.59
582.127	27.87
582.321	27.72
582.516	27.89
582.71	27.91
582.904	28.05
583.099	28.15
583.293	28.12
583.487	28.03
583.681	27.78
583.875	27.59
584.07	27.91
584.264	27.77
584.458	27.82
584.652	27.82
584.846	27.84
585.04	27.77
585.234	27.8
585.428	27.91
585.623	28.16
585.817	28.42
586.011	28.58
586.205	28.43
586.399	28.75
586.593	28.91
586.787	29.03
586.981	29
587.174	29.05
587.368	29.03
587.562	28.94
587.756	28.83
587.95	28.92
588.144	29.09
588.338	28.92
588.532	28.75
588.725	28.73
588.919	28.49
589.113	28.59
589.307	28.69
589.501	28.85
589.694	29.2
589.888	29.26
590.082	29.3
590.275	29.22
590.469	29.61
590.663	29.63
590.856	29.66
591.05	29.9
591.244	30
591.437	29.99
591.631	29.93
591.824	29.87
592.018	29.79
592.212	29.76
592.405	29.75
592.599	29.51
592.792	29.55
592.986	29.59
593.179	29.71
593.372	29.48
593.566	29.45
593.759	29.71
593.953	29.58
594.146	29.7
594.339	29.75
594.533	29.96
594.726	30.05
594.92	30.19
595.113	30.18
595.306	30.29
595.499	30.61
595.693	30.59
595.886	30.4
596.079	30.52
596.272	30.59
596.466	30.56
596.659	30.67
596.852	30.78
597.045	30.84
597.238	30.76
597.431	30.73
597.624	30.78
597.818	30.62
598.011	30.71
598.204	30.66
598.397	30.79
598.59	30.75
598.783	30.48
598.976	30.46
599.169	30.5
599.362	30.75
599.555	30.86
599.748	30.78
599.941	31.25
600.134	31.35
600.326	31.5
600.519	31.66
600.712	31.78
600.905	31.99
601.098	31.96
601.291	31.74
601.483	31.64
601.676	31.56
601.869	31.52
602.062	31.56
602.255	31.56
602.447	31.58
602.64	31.24
602.833	31.26
603.025	31.39
603.218	31.52
603.411	31.63
603.603	31.68
603.796	31.63
603.989	31.69
604.181	31.79
604.374	31.8
604.566	31.84
604.759	31.69
604.951	31.76
605.144	31.63
605.336	31.67
605.529	31.73
605.721	31.74
605.914	31.78
606.106	31.8
606.299	31.57
606.491	31.44
606.683	31.4
606.876	31.64
607.068	31.76
607.26	31.72
607.453	31.7
607.645	31.76
607.837	31.9
608.03	31.67
608.222	31.77
608.414	32
608.606	32.25
608.799	32.32
608.991	32.31
609.183	32.35
609.375	32.43
609.567	32.29
609.759	32.24
609.952	32.38
610.144	32.52
610.336	32.56
610.528	32.59
610.72	32.65
610.912	32.57
611.104	32.87
611.296	32.92
611.488	33.07
611.68	33.23
611.872	33.36
612.064	33.12
612.256	33.28
612.448	33.44
612.64	33.57
612.832	33.65
613.023	34.05
613.215	33.7
613.407	33.96
613.599	33.89
613.791	34.21
613.983	34.1
614.174	34.47
614.366	34.49
614.558	34.41
614.75	34.29
614.941	34.35
615.133	34.06
615.325	34.44
615.516	33.82
615.708	33.71
615.9	33.51
616.091	33.8
616.283	33.55
616.475	33.71
616.666	33.62
616.858	33.5
617.049	33.39
617.241	33.52
617.432	33.36
617.624	33.89
617.815	33.99
618.007	34.02
618.198	33.95
618.39	34.17
618.581	34.31
618.773	34.35
618.964	34.58
619.155	34.51
619.347	34.44
619.538	34.39
619.729	34.15
619.921	34.27
620.112	34.54
620.303	34.61
620.494	34.65
620.686	34.61
620.877	34.55
621.068	34.43
621.259	34.74
621.451	34.81
621.642	34.92
621.833	35.12
622.024	35.53
622.215	35.25
622.406	35.08
622.597	35.12
622.788	35
622.98	35.34
623.171	35.42
623.362	35.45
623.553	35.66
623.744	35.82
623.935	35.71
624.126	35.64
624.317	35.65
624.508	35.46
624.698	35.45
624.889	35.48
625.08	35.35
625.271	35.62
625.462	35.5
625.653	35.57
625.844	35.43
626.034	35.34
626.225	35.35
626.416	35.55
626.607	35.89
626.798	36.04
626.988	36.25
627.179	36.29
627.37	36.03
627.56	35.87
627.751	35.91
627.942	36.15
628.132	36.35
628.323	36.28
628.514	36.19
628.704	36.12
628.895	36
629.085	35.79
629.276	35.77
629.466	35.72
629.657	35.95
629.847	35.69
630.038	35.53
630.228	35.5
630.419	35.35
630.609	35.38
630.8	35.65
630.99	35.87
631.181	36.1
631.371	36.01
631.561	36.5
631.752	36.66
631.942	36.75
632.132	36.83
632.323	36.94
632.513	37.31
632.703	37.57
632.893	37.52
633.084	37.44
633.274	37.52
633.464	37.56
633.654	37.3
633.844	37.45
634.034	37.62
634.225	37.59
634.415	37.65
634.605	37.47
634.795	37.3
634.985	37.19
635.175	37.1
635.365	36.93
635.555	37.04
635.745	37.39
635.935	37.34
636.125	36.98
636.315	37
636.505	36.8
636.695	36.92
636.885	36.86
637.075	36.61
637.265	36.59
637.455	36.74
637.644	36.98
637.834	36.83
638.024	36.41
638.214	36.81
638.404	36.77
638.593	36.74
638.783	36.93
638.973	37.1
639.163	37.57
639.352	37.58
639.542	37.5
639.732	37.09
639.921	36.98
640.111	37.42
640.301	37.49
640.49	37.62
640.68	38.11
640.87	38.06
641.059	38.08
641.249	38.16
641.438	37.84
641.628	37.78
641.817	38.12
642.007	38.14
642.196	38.05
642.386	37.76
642.575	37.44
642.764	37.55
642.954	37.19
643.143	37.27
643.333	36.98
643.522	37.32
643.711	37.26
643.901	37.68
644.09	37.96
644.279	37.74
644.469	37.8
644.658	38.26
644.847	38.21
645.036	38.64
645.226	38.53
645.415	38.66
645.604	38.73
645.793	38.92
645.982	38.69
646.171	38.46
646.361	38.76
646.55	39.19
646.739	39.36
646.928	39.29
647.117	39.35
647.306	39.41
647.495	39.26
647.684	39.26
647.873	39.6
648.062	39.36
648.251	39.23
648.44	39.01
648.629	38.67
648.818	38.36
649.007	38.49
649.196	38.33
649.384	38.34
649.573	38.7
649.762	38.85
649.951	38.5
650.14	38.63
650.328	39.07
650.517	39.3
650.706	39.52
650.895	39.61
651.083	39.39
651.272	39.53
651.461	39.65
651.65	39.75
651.838	39.62
652.027	39.67
652.216	39.6
652.404	39.31
652.593	39.61
652.781	39.42
652.97	39.37
653.158	39.61
653.347	39.33
653.535	39.47
653.724	39.12
653.912	39.45
654.101	39.38
654.289	39.62
654.478	39.89
654.666	39.71
654.855	39.97
655.043	40.23
655.231	40.45
655.42	40.69
655.608	40.55
655.796	40.78
655.985	40.47
656.173	40.56
656.361	40.4
656.55	40.27
656.738	40.38
656.926	40.3
657.114	40.09
657.302	39.91
657.491	39.94
657.679	40.04
657.867	40
658.055	40.52
658.243	40.41
658.431	40.35
658.619	40.58
658.807	40.49
658.996	40.5
659.184	40.73
659.372	40.55
659.56	40.46
659.748	40.55
659.936	40.46
660.124	40.34
660.311	40.38
660.499	40.45
660.687	40.22
660.875	40.4
661.063	40.4
661.251	40.17
661.439	40.46
661.627	40.53
661.814	40.35
662.002	40.66
662.19	40.49
662.378	40.67
662.565	40.63
662.753	40.47
662.941	40.2
663.129	40.38
663.316	40.26
663.504	40.04
663.692	39.98
663.879	40.07
664.067	40.27
664.254	40.22
664.442	40.39
664.63	40.48
664.817	40.31
665.005	39.84
665.192	39.73
665.38	40.67
665.567	40.45
665.755	40.67
665.942	40.71
666.13	40.37
666.317	40.43
666.504	40.33
666.692	40.89
666.879	41.09
667.067	41.7
667.254	41.22
667.441	40.77
667.629	40.94
667.816	40.82
668.003	40.65
668.19	40.77
668.378	40.79
668.565	40.5
668.752	40.32
668.939	40.7
669.127	40.74
669.314	41.2
669.501	41.18
669.688	41.49
669.875	41.3
670.062	41.31
670.249	41.13
670.436	41.37
670.623	41.6
670.81	41.38
670.997	40.98
671.184	40.72
671.371	40.95
671.558	40.7
671.745	40.38
671.932	40.53
672.119	40.77
672.306	41.02
672.493	40.89
672.68	40.93
672.867	40.94
673.054	41.1
673.24	41.19
673.427	41.25
673.614	41.67
673.801	42.08
673.988	42.2
674.174	42.07
674.361	42.27
674.548	42.33
674.734	42.24
674.921	42.49
675.108	42.78
675.294	43.25
675.481	42.87
675.668	43.16
675.854	42.71
676.041	42.73
676.227	42.96
676.414	42.57
676.601	42.68
676.787	43.43
676.974	43.2
677.16	43.43
677.347	43.26
677.533	43.49
677.719	43.02
677.906	42.97
678.092	42.82
678.279	42.94
678.465	43.26
678.651	42.89
678.838	42.47
679.024	42.91
679.21	42.72
679.397	42.59
679.583	42.16
679.769	42.38
679.955	42.54
680.142	42.63
680.328	42.56
680.514	42.67
680.7	42.39
680.886	42.58
681.073	42.16
681.259	42.36
681.445	42.57
681.631	43.06
681.817	42.71
682.003	42.88
682.189	42.89
682.375	42.79
682.561	42.45
682.747	42.54
682.933	42
683.119	42.03
683.305	41.65
683.491	41.58
683.677	41.39
683.863	41.9
684.049	41.91
684.235	42
684.42	41.96
684.606	41.96
684.792	42.73
684.978	43.66
685.164	43.76
685.349	43.98
685.535	44.03
685.721	43.93
685.907	43.57
686.092	43.51
686.278	43.68
686.464	43.68
686.649	44.1
686.835	43.62
687.021	43.46
687.206	43.57
687.392	43.68
687.577	43.26
687.763	43.21
687.948	43.06
688.134	43.1
688.319	42.95
688.505	43.37
688.69	42.89
688.876	43.24
689.061	42.91
689.247	42.73
689.432	42.45
689.618	42.19
689.803	42.14
689.988	42.17
690.174	42.23
690.359	42.2
690.544	41.63
690.73	41.55
690.915	41.46
691.1	41.53
691.285	41.46
691.471	41.71
691.656	42.55
691.841	42.82
692.026	43.03
692.211	42.88
692.396	42.7
692.582	42.71
692.767	43.1
692.952	43.01
693.137	42.75
693.322	42.93
693.507	43.23
693.692	42.87
693.877	43.13
694.062	43.24
694.247	43.1
694.432	43.3
694.617	43.5
694.802	43.73
694.987	43.82
695.172	44.04
695.357	44.26
695.541	43.48
695.726	43.63
695.911	43.52
696.096	43.28
696.281	42.99
696.466	43.04
696.65	43.19
696.835	43.06
697.02	43.1
697.204	43.16
697.389	43.17
697.574	43.37
697.759	43.37
697.943	43.11
698.128	43.21
698.312	43.48
698.497	43.16
698.682	43.35
698.866	43.22
699.051	43.33
699.235	43.06
699.42	42.93
699.604	43.37
699.789	43.34
699.973	43.79
700.158	44.04
700.342	44.06
700.527	44.85
700.711	45
700.895	45.26
701.08	45.23
701.264	45.5
701.448	45.57
701.633	44.86
701.817	45.05
702.001	44.91
702.186	44.9
702.37	44.27
702.554	43.7
702.738	43.15
702.923	43.14
703.107	42.9
703.291	43.08
703.475	42.8
703.659	42.84
703.843	42.67
704.027	42.58
704.212	42.75
704.396	43.66
704.58	44.17
704.764	44.01
704.948	43.58
705.132	43.31
705.316	43.88
705.5	44.11
705.684	45.39
705.868	45.68
706.052	45.41
706.235	44.7
706.419	44.25
706.603	43.24
706.787	43.8
706.971	44.31
707.155	44.89
707.339	44.38
707.522	44.32
707.706	43.42
707.89	43.24
708.074	44.14
708.257	44.42
708.441	44.98
708.625	45.36
708.808	44.53
708.992	43.76
709.176	43.34
709.359	43.43
709.543	43.49
709.727	43.78
709.91	43.8
710.094	43.33
710.277	43.76
710.461	44.15
710.644	44.45
710.828	44.89
711.011	45.13
711.195	45.3
711.378	45.42
711.562	45.86
711.745	45.87
711.928	45.93
712.112	46.08
712.295	45.35
712.478	45.48
712.662	45.46
712.845	45.39
713.028	45.69
713.212	46.05
713.395	45.9
713.578	45.55
713.761	45.71
713.945	45.9
714.128	45.99
714.311	46.42
714.494	46.41
714.677	46.36
714.86	46.4
715.043	46.26
715.227	46.04
715.41	46.02
715.593	46.5
715.776	46.41
715.959	46.78
716.142	46.7
716.325	46.89
716.508	46.49
716.691	46.84
716.874	47.15
717.057	47.65
717.239	47.93
717.422	48.18
717.605	47.86
717.788	47.34
717.971	47.19
718.154	47.1
718.337	47.14
718.519	47.25
718.702	46.79
718.885	47.59
719.068	47.64
719.25	47.49
719.433	47.84
719.616	47.85
719.798	47.66
719.981	47.26
720.164	46.93
720.346	46.67
720.529	46.48
720.712	46.99
720.894	46.07
721.077	45.88
721.259	45.43
721.442	44.9
721.624	45.27
721.807	46.11
721.989	46.26
722.172	47.27
722.354	46.99
722.537	46.86
722.719	47.04
722.901	47.25
723.084	46.84
723.266	47.28
723.448	47.22
723.631	47.32
723.813	47.25
723.995	47.16
724.178	45.95
724.36	45.99
724.542	46.28
724.724	46.6
724.907	46.7
725.089	46.97
725.271	47.55
725.453	47.93
725.635	47.92
725.817	48.47
725.999	48.56
726.181	49.58
726.364	49.99
726.546	50.52
726.728	50.39
726.91	50.55
727.092	50.36
727.274	49.64
727.456	49.57
727.638	49.8
727.819	49.59
728.001	49.73
728.183	49.56
728.365	49.74
728.547	49.17
728.729	48.59
728.911	48.24
729.093	48.59
729.274	48.49
729.456	47.97
729.638	47.44
729.82	47.06
730.001	46.17
730.183	45.92
730.365	46
730.546	45.69
730.728	46.23
730.91	45.94
731.091	45.36
731.273	46.27
731.455	46.44
731.636	47.34
731.818	47.13
731.999	47.67
732.181	47.25
732.362	47.31
732.544	47.91
732.725	47.46
732.907	47.59
733.088	48.45
733.27	47.33
733.451	47.24
733.633	46.73
733.814	47.15
733.995	46.96
734.177	47.46
734.358	46.89
734.539	46.54
734.721	46.77
734.902	46.95
735.083	46.36
735.264	47.55
735.446	47.78
735.627	48
735.808	47.52
735.989	47.71
736.17	47.59
736.351	48.4
736.533	48.41
736.714	48.24
736.895	47.94
737.076	47.91
737.257	46.84
737.438	47
737.619	46.62
737.8	46.53
737.981	47.26
738.162	47.49
738.343	47.34
738.524	47.05
738.705	47
738.886	47.4
739.067	47.36
739.247	48.5
739.428	48.02
739.609	47.86
739.79	48.07
739.971	47.79
740.151	47.13
740.332	47.47
740.513	48.07
740.694	47.97
740.874	47.58
741.055	47.82
741.236	47.79
741.417	47.66
741.597	47.66
741.778	47.32
741.958	47.65
742.139	47.81
742.32	47.45
742.5	47.19
742.681	47.26
742.861	47.33
743.042	47.08
743.222	46.93
743.403	46.87
743.583	47.85
743.764	48.16
743.944	47.61
744.124	47.64
744.305	47.76
744.485	47.94
744.666	47.77
744.846	48.93
745.026	49.13
745.207	48.4
745.387	49.14
745.567	47.97
745.747	47.7
745.928	47.73
746.108	48.54
746.288	48
746.468	46.64
746.648	46.29
746.829	45.07
747.009	45.62
747.189	45.13
747.369	45.17
747.549	45.97
747.729	46.65
747.909	45.87
748.089	46.02
748.269	46.28
748.449	48.01
748.629	48.28
748.809	48.1
748.989	47.29
749.169	48.43
749.349	48.24
749.529	47.86
749.709	47.35
749.889	47.83
750.068	46.97
750.248	47.05
750.428	47.74
750.608	47.69
750.788	49.34
750.967	49.84
751.147	50.13
751.327	50.11
751.507	50.59
751.686	50.79
751.866	51.68
752.046	51.51
752.225	50.6
752.405	49.93
752.585	49.19
752.764	47.96
752.944	48.48
753.123	48.43
753.303	48.13
753.482	47.5
753.662	48.14
753.841	47.3
754.021	48.05
754.2	48.3
754.38	48.08
754.559	49.6
754.739	49.52
754.918	48.15
755.097	47.38
755.277	47.6
755.456	47.36
755.635	47.06
755.815	47.88
755.994	47.57
756.173	48.2
756.352	48.46
756.532	48.15
756.711	47.9
756.89	48.67
757.069	48.52
757.248	49.15
757.427	50.27
757.607	49.96
757.786	48.96
757.965	48.19
758.144	47.74
758.323	46.84
758.502	46.84
758.681	47.01
758.86	46.72
759.039	47.11
759.218	46.22
759.397	45.06
759.576	44.92
759.755	45.33
759.934	46.39
760.113	47.54
760.291	47.32
760.47	47.84
760.649	48.07
760.828	48.24
761.007	48.48
761.186	48.74
761.364	48.44
761.543	48.64
761.722	48.52
761.901	48.3
762.079	46.91
762.258	47.88
762.437	47.03
762.615	46.96
762.794	46.93
762.972	46.31
763.151	47
763.33	47.75
763.508	47.3
763.687	47.66
763.865	47.54
764.044	47.78
764.222	47.4
764.401	47.88
764.579	47.72
764.758	46.57
764.936	46.91
765.114	46.13
765.293	46
765.471	45.89
765.65	45.62
765.828	45.87
766.006	45.31
766.184	45.82
766.363	45.11
766.541	45.71
766.719	47.44
766.898	47.73
767.076	48.17
767.254	48.5
767.432	48.71
767.61	48.87
767.788	48.27
767.967	48.92
768.145	47.92
768.323	48.62
768.501	48.75
768.679	47.91
768.857	47.15
769.035	47.48
769.213	47.26
769.391	47.87
769.569	47.91
769.747	48.83
769.925	50.03
770.103	50.22
770.281	49.17
770.459	49.03
770.636	49.13
770.814	48.66
770.992	48.16
771.17	47.49
771.348	47.83
771.525	48.03
771.703	46.82
771.881	45.41
772.059	45.69
772.236	47.17
772.414	45.86
772.592	47.04
772.769	49.23
772.947	50.53
773.125	51.21
773.302	51.38
773.48	51.19
773.657	50.96
773.835	51.69
774.013	51.82
774.19	50.93
774.368	52.53
774.545	50.75
774.723	49.09
774.9	48.46
775.077	48.82
775.255	47.75
775.432	48.1
775.61	49.85
775.787	49.92
775.964	50.31
776.142	50.26
776.319	49.54
776.496	50.51
776.674	50.3
776.851	49.64
777.028	50.18
777.205	50.65
777.382	49.31
777.56	49.02
777.737	49.42
777.914	49.56
778.091	50.12
778.268	50.24
778.445	51.15
778.622	51.12
778.8	51.26
778.977	49.88
779.154	56.95
779.331	57.65
779.508	58.11
779.685	57.98
779.862	56.49
780.038	57.22
780.215	57.29
780.392	57.28
780.569	57.99
780.746	57.3
780.923	57.11
781.1	50.52
781.277	50.46
781.453	49.48
781.63	49.34
781.807	49.85
781.984	49.07
782.16	49.35
782.337	49.22
782.514	49.32
782.691	52.03
782.867	52.09
783.044	51.88
783.221	52.18
783.397	51.39
783.574	49.47
783.75	51.66
783.927	52.04
784.103	51.95
784.28	52.44
784.456	53.1
784.633	50.36
784.809	48.96
784.986	49.27
785.162	49.74
785.339	49.95
785.515	50.9
785.692	50.67
785.868	51.69
786.044	50.81
786.221	49.69
786.397	49.53
786.573	49.89
786.749	52.8
786.926	52.17
787.102	53.67
787.278	54.66
787.454	55.61
787.631	54.52
787.807	52.85
787.983	54.41
788.159	54.11
788.335	54.02
788.511	55.6
788.687	55.71
788.863	56.25
789.039	53.15
789.216	52.85
789.392	52.61
789.568	53.72
789.744	53.32
789.919	52.26
790.095	52.88
790.271	51.15
790.447	48.65
790.623	46.69
790.799	46.92
790.975	46.97
791.151	48.28
791.327	48.29
791.502	48.16
791.678	48.59
791.854	49.77
792.03	49.1
792.205	51.17
792.381	52.85
792.557	53.26
792.733	52.79
792.908	55.83
793.084	54.18
793.259	53.07
793.435	52.8
793.611	53.72
793.786	52.72
793.962	53.64
794.137	53.08
794.313	54.13
794.488	53.57
794.664	54.38
794.839	52.9
795.015	52.77
795.19	54.86
795.366	54.16
795.541	52.6
795.716	52.83
795.892	52.41
796.067	51.6
796.242	49.63
796.418	51.4
796.593	49.9
796.768	49.44
796.944	50.49
797.119	48.92
797.294	49.67
797.469	50.69
797.644	49.95
797.82	50.07
797.995	51.33
798.17	51.2
798.345	50.73
798.52	51.12
798.695	51.22
798.87	50.54
799.045	51.78
799.22	49.85
799.395	48.67
799.57	48.46
799.745	49.26
799.92	48.82
800.095	49.27
800.27	48.88
800.445	47.62
800.62	49.56
800.795	50.76
800.97	48.82
801.145	49.37
801.319	51.74
801.494	52.25
801.669	51.92
801.844	51.45
802.018	51.81
802.193	51.18
802.368	52.81
802.543	49.17
802.717	47.73
802.892	48.55
803.067	49.98
803.241	49.19
803.416	50.16
803.59	50.22
803.765	51.86
803.94	53.18
804.114	53.63
804.289	55.2
804.463	57.37
804.638	58.41
804.812	58.01
804.986	58
805.161	57.16
805.335	55.22
805.51	53.83
805.684	53.62
805.858	52.55
806.033	53.6
806.207	50.6
806.381	49.35
806.556	46.76
806.73	49.56
806.904	48.9
807.078	49.24
807.253	50.45
807.427	51.49
807.601	49.17
807.775	51.07
807.949	49.45
808.123	50.31
808.298	53.8
808.472	56.12
808.646	55.88
808.82	56.86
808.994	56.68
809.168	56.05
809.342	56.9
809.516	57.18
809.69	54.28
809.864	56.13
810.038	55.46
810.212	52.84
810.385	53.01
810.559	50.99
810.733	51.17
810.907	51.6
811.081	49.89
811.255	50.2
811.428	51.6
811.602	52.89
811.776	52.99
811.95	56.39
812.123	59.27
812.297	58.42
812.471	59.01
812.644	57.13
812.818	57.92
812.992	61.2
813.165	58.92
813.339	57.55
813.512	57.96
813.686	56.95
813.86	56.81
814.033	55.81
814.207	58.7
814.38	59.84
814.554	60.98
814.727	58.42
814.9	56.32
815.074	58.36
815.247	60.76
815.421	59.4
815.594	57.8
815.767	57.3
815.941	54.77
816.114	52.29
816.287	54.49
816.46	54.33
816.634	55.04
816.807	55.83
816.98	55.41
817.153	54.51
817.327	56.97
817.5	58.1
817.673	55.57
817.846	56
818.019	56.02
818.192	51.91
818.365	49.86
818.538	51.2
818.711	51.33
818.884	52.13
819.057	52.31
819.23	50.8
819.403	48.74
819.576	50.39
819.749	50.12
819.922	50.47
820.095	50.58
820.268	53.69
820.441	53.3
820.614	51.66
820.786	50.93
820.959	50.74
821.132	49.71
821.305	50.54
821.477	49.62
821.65	50.23
821.823	50.33
821.996	50.54
822.168	49.91
822.341	48.89
822.514	48.9
822.686	48.35
822.859	48.01
823.031	48.4
823.204	48.68
823.376	48.83
823.549	47.99
823.722	47.67
823.894	47.33
824.067	47.62
824.239	48.19
824.411	48.27
824.584	48.68
824.756	49.28
824.929	49.12
825.101	49.12
825.273	48.88
825.446	49.51
825.618	49.71
825.79	50
825.963	49.71
826.135	49.68
826.307	50.2
826.479	49.39
826.652	48.76
826.824	49.02
826.996	49.13
827.168	49.27
827.34	49.49
827.512	49.41
827.684	49.76
827.856	49.31
828.029	49.16
828.201	48.93
828.373	49.2
828.545	49.36
828.717	48.86
828.889	48.81
829.061	48.76
829.232	48.55
829.404	47.96
829.576	48
829.748	47.73
829.92	46.87
830.092	46.4
830.264	47.25
830.436	46.61
830.607	45.71
830.779	44.65
830.951	44.69
831.123	44.16
831.294	44.8
831.466	45.04
831.638	45.92
831.809	46.12
831.981	45.98
832.153	45.86
832.324	47.49
832.496	50.24
832.667	52.07
832.839	52.97
833.011	52.63
833.182	53.95
833.354	53.76
833.525	54.14
833.697	56.2
833.868	54.66
834.039	54.39
834.211	53.04
834.382	51.71
834.554	50.25
834.725	50.63
834.896	53.32
835.068	53.43
835.239	51.73
835.41	51.16
835.581	50.46
835.753	51.19
835.924	52.2
836.095	53.36
836.266	52.91
836.438	54.32
836.609	54.34
836.78	52.53
836.951	51.14
837.122	53.16
837.293	55.76
837.464	55.7
837.635	56.46
837.806	57.36
837.977	57.77
838.148	60.23
838.319	59.04
838.49	59.35
838.661	59.67
838.832	62.05
839.003	61.47
839.174	56.21
839.345	57.3
839.516	55.27
839.687	50.9
839.857	49.78
840.028	44.38
840.199	46.06
840.37	41.57
840.54	40.9
840.711	40.44
840.882	41.49
841.053	45.24
841.223	42.6
841.394	45.87
841.564	48.31
841.735	47.62
841.906	51.62
842.076	53.72
842.247	59.16
842.417	62.13
842.588	64.58
842.758	66.88
842.929	66.9
843.099	65.75
843.27	68.7
843.44	67.44
843.611	67.26
843.781	70.36
843.951	72.82
844.122	71.48
844.292	70.64
844.462	70.14
844.633	64.8
844.803	62.69
844.973	65.4
845.144	62.78
845.314	63.93
845.484	65.78
845.654	63.81
845.824	65.13
845.995	65.92
846.165	67.39
846.335	66.29
846.505	63.72
846.675	68.51
846.845	69.99
847.015	71.35
847.185	70.4
847.355	64.71
847.525	67.21
847.695	62.78
847.865	64.05
848.035	58.28
848.205	61.31
848.375	67.02
848.545	60.97
848.715	58.39
848.884	54.6
849.054	58.63
849.224	64.89
849.394	66.1
849.564	66.68
849.733	60.95
849.903	71.03
850.073	72.29
850.243	71.48
850.412	81.7
850.582	86.23
850.752	89.17
850.921	93.3
851.091	94.4
851.26	92.07
851.43	84.94
851.599	89.68
851.769	86.89
851.939	75.04
852.108	81.31
852.278	76.26
852.447	74.06
852.616	72.28
852.786	72.75
852.955	71.04
853.125	76.39
853.294	79.03
853.463	82.45
853.633	87.22
853.802	94.56
853.971	86.53
854.141	85.13
854.31	91.22
854.479	90.69
854.648	82.08
854.818	75.17
854.987	66.75
855.156	65.42
855.325	56.2
855.494	52.98
855.663	58.21
855.832	53.23
856.001	57.11
856.171	54.38
856.34	56.95
856.509	57.87
856.678	65.8
856.847	59.71
857.016	60.05
857.185	67.81
857.353	72.2
857.522	70.77
857.691	81.52
857.86	88.19
858.029	90.58
858.198	93.88
858.367	95.02
858.535	96.02
858.704	97.13
858.873	99.71
859.042	92.6
859.21	86.1
859.379	77.73
859.548	72.12
859.717	67.5
859.885	69.3
860.054	72.49
860.222	66.23
860.391	66.83
860.56	72.59
860.728	66.22
860.897	71.41
861.065	68.45
861.234	71.29
861.402	78.28
861.571	83.28
861.739	71.24
861.908	67.43
862.076	69.3
862.244	63.68
862.413	66.16
862.581	68.1
862.749	78.77
862.918	77.92
863.086	75.69
863.254	70.89
863.423	70.02
863.591	74.16
863.759	77.77
863.927	82.63
864.096	86.61
864.264	91.83
864.432	91.39
864.6	84.55
864.768	93.3
864.936	88.63
865.104	86.79
865.272	83.65
865.44	83.35
865.608	81.71
865.776	74.41
865.944	74.75
866.112	68.51
866.28	67.43
866.448	59.89
866.616	59.69
866.784	71.22
866.952	73.78
867.12	78
867.288	82.98
867.455	88.99
867.623	97.62
867.791	96.55
867.959	104.23
868.127	104.82
868.294	105.68
868.462	99.51
868.63	101.18
868.797	100.99
868.965	91.73
869.133	85.97
869.3	86.08
869.468	80.3
869.636	82.9
869.803	80.36
869.971	82.28
870.138	82.09
870.306	78.65
870.473	76.62
870.641	74.35
870.808	78.7
870.975	82.57
871.143	75.6
871.31	78.63
871.478	78.52
871.645	77.08
871.812	79.6
871.98	76.1
872.147	85.21
872.314	85.47
872.482	91.18
872.649	91.86
872.816	88.76
872.983	94.53
873.15	89.95
873.318	85.65
873.485	84.36
873.652	82.48
873.819	80.9
873.986	80.68
874.153	74.36
874.32	69.86
874.487	62.79
874.654	65.29
874.821	63.69
874.988	68.2
875.155	66.65
875.322	69.62
875.489	68.58
875.656	73.97
875.823	67.19
875.99	68.54
876.157	70.32
876.324	73.34
876.49	70.21
876.657	67.1
876.824	60.44
876.991	60.49
877.157	61.72
877.324	61.68
877.491	61.88
877.658	64.02
877.824	65.78
877.991	68.76
878.157	72.25
878.324	75.83
878.491	77.62
878.657	88.18
878.824	84.44
878.99	86.24
879.157	89.27
879.323	87.49
879.49	83.25
879.656	83.03
879.823	79.12
879.989	71.41
880.156	68.59
880.322	58.53
880.488	51.87
880.655	47.15
880.821	48.79
880.987	46.57
881.154	48
881.32	52.41
881.486	47.04
881.652	42.64
881.819	43.86
881.985	39.73
882.151	43.88
882.317	41.67
882.483	45.16
882.649	44.45
882.816	43.99
882.982	44.3
883.148	42.98
883.314	44.64
883.48	45.2
883.646	46.12
883.812	47.16
883.978	46.72
884.144	49.54
884.31	49.46
884.476	50.08
884.642	51.65
884.807	50.63
884.973	51.89
885.139	50.47
885.305	52.37
885.471	52.7
885.637	52.96
885.802	54.55
885.968	53.39
886.134	53.97
886.3	52.78
886.465	51.97
886.631	52.83
886.797	53.55
886.962	55.8
887.128	56.03
887.293	57.44
887.459	59.93
887.625	60.55
887.79	64.13
887.956	66.73
888.121	68.41
888.287	70.68
888.452	74.23
888.618	75.31
888.783	78.63
