Data from LC_241_Reflection_3.txt Node
Date: Thu Nov 19 22:29:53 EST 2015
User: robert
Spectrometer: USB4E03001
Autoset integration time: false
Trigger mode: 4
Integration Time (sec): 1.000000E-1
Scans to average: 15
Electric dark correction enabled: true
Nonlinearity correction enabled: false
Boxcar width: 5
Stray light correction enabled: false
XAxis mode: Wavelengths
Stop averaging: false
Number of Pixels in Spectrum: 3648
>>>>>Begin Spectral Data<<<<<
177.566	-58.27
177.785	4.07
178.005	35.76
178.225	7.57
178.445	-6
178.665	-13.08
178.885	12.26
179.105	432.74
179.324	137.4
179.544	150.96
179.764	80.65
179.984	47.47
180.204	29.81
180.423	-3.55
180.643	16.38
180.863	40.48
181.083	44.9
181.302	15.68
181.522	18.2
181.742	33.4
181.961	34.09
182.181	64.71
182.401	87.36
182.621	72.16
182.84	69.46
183.06	55.01
183.279	-0.08
183.499	-12.66
183.719	-176.88
183.938	-1344.44
184.158	863.65
184.377	372.81
184.597	-330.83
184.816	3092.45
185.036	251.63
185.256	-2391.67
185.475	-59.3
185.695	20.51
185.914	37.75
186.134	143.53
186.353	149.42
186.572	104.4
186.792	10.85
187.011	-855.42
187.231	51.28
187.45	-560.93
187.67	-28.18
187.889	-52.75
188.108	-3.79
188.328	-17.72
188.547	-154.16
188.766	-214.09
188.986	-232.09
189.205	3350
189.424	75.71
189.644	124.45
189.863	51.22
190.082	47.13
190.302	43.34
190.521	49.04
190.74	24.72
190.959	-1.11
191.178	-3.53
191.398	-55.93
191.617	-58.9
191.836	-315.09
192.055	-136.96
192.274	-113.92
192.494	-79.87
192.713	-23.5
192.932	-4.88
193.151	12.16
193.37	-4.59
193.589	-20.13
193.808	50.43
194.027	57.87
194.246	59.02
194.465	67.75
194.685	79.14
194.904	92.43
195.123	90.38
195.342	103.09
195.561	95.47
195.78	89.45
195.999	95.14
196.218	80.79
196.436	76.63
196.655	53.67
196.874	65.75
197.093	58.2
197.312	5.03
197.531	66.26
197.75	150.21
197.969	182.77
198.188	-596.06
198.407	-140.78
198.625	-278.44
198.844	-177.55
199.063	-1404.11
199.282	-186.54
199.501	-174.53
199.719	-171.14
199.938	-6.36
200.157	7.43
200.376	64.75
200.594	-182.44
200.813	-554.3
201.032	-148.17
201.251	-129.41
201.469	-188.14
201.688	-26.96
201.907	45.91
202.125	303.79
202.344	47.66
202.563	21.52
202.781	45.01
203	28.42
203.218	61.92
203.437	36.81
203.656	24.96
203.874	43.52
204.093	-68.49
204.311	-59.79
204.53	-49.69
204.748	-56.26
204.967	-28.77
205.185	-80.13
205.404	-154.73
205.622	-236.66
205.841	-95.24
206.059	-111.5
206.278	-129.14
206.496	-93.45
206.715	-50.82
206.933	-65.98
207.151	-3.56
207.37	-94.75
207.588	-66.96
207.806	13.84
208.025	55.09
208.243	-58.87
208.461	-253.34
208.68	-206.67
208.898	-87.46
209.116	-87.93
209.335	-63.43
209.553	-530.86
209.771	1236.13
209.989	-206.78
210.208	446.83
210.426	844.93
210.644	-167.6
210.862	-49.92
211.081	-57.97
211.299	-23.33
211.517	6.29
211.735	19.65
211.953	34.14
212.171	14.66
212.39	25.85
212.608	44.14
212.826	66.69
213.044	65.41
213.262	38.03
213.48	58.74
213.698	19.16
213.916	22.51
214.134	47.17
214.352	81.44
214.57	201.64
214.788	529.32
215.006	423.86
215.224	345.89
215.442	574.65
215.66	260.68
215.878	419.1
216.096	432.6
216.314	244.88
216.532	249.7
216.75	383.56
216.968	40.42
217.185	408.25
217.403	1039.88
217.621	1728.92
217.839	-124.43
218.057	-23.53
218.275	17.65
218.492	8.72
218.71	5.1
218.928	-26.49
219.146	-32.53
219.363	9.05
219.581	6.53
219.799	23.28
220.017	18.41
220.234	37.85
220.452	37.92
220.67	27.87
220.887	40.99
221.105	60.97
221.323	60.73
221.54	49.39
221.758	54.36
221.976	49.28
222.193	50.57
222.411	44.61
222.629	41.5
222.846	21.21
223.064	28.9
223.281	14.87
223.499	2.45
223.716	10.85
223.934	9.76
224.151	-3.91
224.369	2.95
224.586	-26.4
224.804	-14.63
225.021	-16.55
225.239	-14.32
225.456	-31.43
225.674	-31.05
225.891	-26.92
226.108	-19.04
226.326	-20.18
226.543	-14.53
226.76	-28.48
226.978	-0.39
227.195	-9.98
227.413	-5.13
227.63	-8.71
227.847	-1.32
228.064	6.16
228.282	10.83
228.499	6.54
228.716	8.47
228.934	7.73
229.151	10.72
229.368	8.49
229.585	9.48
229.802	8.48
230.02	10.99
230.237	11.18
230.454	7.94
230.671	6.16
230.888	7.1
231.105	2.32
231.323	3.67
231.54	-0.02
231.757	0.79
231.974	-0.96
232.191	3.4
232.408	1.78
232.625	0.39
232.842	5.76
233.059	8.81
233.276	13.22
233.493	19.04
233.71	13.98
233.927	16.5
234.144	18.57
234.361	16.68
234.578	11.83
234.795	14.25
235.012	14.1
235.229	6.59
235.446	7.63
235.663	1.15
235.879	-0.18
236.096	1.56
236.313	-5.28
236.53	-4.5
236.747	-3.18
236.964	-2.45
237.181	-8
237.397	-7.21
237.614	3.18
237.831	1.18
238.048	1.9
238.264	-0.33
238.481	-0.7
238.698	4.67
238.915	6.55
239.131	3.89
239.348	5.36
239.565	11.1
239.781	11.95
239.998	5.42
240.215	3.84
240.431	4.79
240.648	6.36
240.865	7.11
241.081	7
241.298	7.7
241.514	9.51
241.731	9.54
241.947	8.22
242.164	8.17
242.38	10.03
242.597	9.79
242.814	10.3
243.03	9.73
243.246	8.75
243.463	7.68
243.679	5.83
243.896	5.74
244.112	5.66
244.329	5.11
244.545	5.25
244.762	4.8
244.978	4.75
245.194	5.47
245.411	6.53
245.627	8.34
245.843	9.53
246.06	10.38
246.276	9.8
246.492	10.08
246.709	10.66
246.925	10.18
247.141	10.06
247.357	9.96
247.574	9.34
247.79	8.96
248.006	8.61
248.222	8.25
248.439	7.82
248.655	7.81
248.871	6.87
249.087	5.81
249.303	4.63
249.519	3.57
249.736	4.14
249.952	3.58
250.168	3.47
250.384	4
250.6	4.22
250.816	6.24
251.032	5.74
251.248	6.69
251.464	8.04
251.68	8.22
251.896	8.78
252.112	7.25
252.328	8.48
252.544	8.28
252.76	8.76
252.976	10.61
253.192	9.12
253.408	10.06
253.624	11.87
253.84	11.44
254.056	13.13
254.272	12.44
254.487	11.95
254.703	11.51
254.919	12.85
255.135	13.02
255.351	10.67
255.567	12.07
255.782	10.9
255.998	9.08
256.214	8.05
256.43	6.87
256.646	9.66
256.861	11.93
257.077	11.37
257.293	10.52
257.508	9.98
257.724	9.05
257.94	7.85
258.155	8.67
258.371	7.31
258.587	6.76
258.802	6.66
259.018	7.55
259.234	6.89
259.449	7.54
259.665	7.57
259.88	7.55
260.096	7.91
260.312	7.51
260.527	7.07
260.743	7.59
260.958	7.91
261.174	8.3
261.389	8.01
261.605	8.78
261.82	7.57
262.036	7.07
262.251	6.12
262.466	5.47
262.682	5.79
262.897	7.21
263.113	6.17
263.328	6.96
263.543	6.45
263.759	4.83
263.974	4.55
264.189	6.51
264.405	7.13
264.62	8.93
264.835	9.85
265.051	10
265.266	8.29
265.481	8.76
265.696	8.11
265.912	6.97
266.127	8.03
266.342	7.1
266.557	7.28
266.773	7.09
266.988	6.05
267.203	5.72
267.418	6.92
267.633	6.45
267.848	6.38
268.064	7.38
268.279	7.89
268.494	8.13
268.709	7.94
268.924	6.25
269.139	7.54
269.354	7.62
269.569	7.09
269.784	6.32
269.999	5.76
270.214	6.39
270.429	5.88
270.644	6.26
270.859	5.32
271.074	4.35
271.289	5.09
271.504	4.12
271.719	3.87
271.934	3.99
272.149	3.87
272.363	5.03
272.578	5.25
272.793	4.46
273.008	4.82
273.223	4.9
273.438	6.14
273.653	5.54
273.867	5.58
274.082	5.74
274.297	5.55
274.512	5.09
274.726	5.09
274.941	4.29
275.156	4.32
275.371	3.41
275.585	3.9
275.8	3.66
276.015	3.66
276.229	4.57
276.444	4.66
276.659	4.59
276.873	5.18
277.088	4.9
277.302	4.47
277.517	4.71
277.732	6.15
277.946	6.29
278.161	6.59
278.375	8.09
278.59	6.99
278.804	7.18
279.019	6.94
279.233	6.46
279.448	7.16
279.662	8.51
279.877	8.67
280.091	8.63
280.306	8
280.52	6.79
280.735	6.35
280.949	6.45
281.163	6.2
281.378	6.51
281.592	7.5
281.806	7.15
282.021	7.11
282.235	6.24
282.449	5.91
282.664	6.35
282.878	6.9
283.092	7.25
283.307	8.51
283.521	9.16
283.735	9.12
283.949	8.21
284.164	7.84
284.378	7.49
284.592	7.8
284.806	8.12
285.02	7.79
285.234	8.08
285.449	8.27
285.663	6.89
285.877	6.69
286.091	7.25
286.305	7.5
286.519	7.63
286.733	7.79
286.947	8.7
287.161	7.54
287.375	8.45
287.589	7.71
287.803	7.37
288.017	8.23
288.231	8.72
288.445	7.79
288.659	7.76
288.873	7.96
289.087	6.58
289.301	6.38
289.515	6.76
289.729	5.33
289.943	6.35
290.157	6.17
290.371	6.16
290.584	5.12
290.798	6.1
291.012	6.11
291.226	5.79
291.44	7.09
291.654	6.87
291.867	6.71
292.081	7.63
292.295	8.09
292.509	8.38
292.722	8.42
292.936	8.94
293.15	7.56
293.364	8.67
293.577	8.98
293.791	8.39
294.005	7.25
294.218	7.64
294.432	6.64
294.645	6.5
294.859	6.82
295.073	5.87
295.286	6.43
295.5	6.93
295.713	5.72
295.927	5.84
296.14	6.34
296.354	6.07
296.568	6.86
296.781	6.83
296.994	6.87
297.208	6.31
297.421	7.4
297.635	7.68
297.848	7.42
298.062	8.22
298.275	8.12
298.489	8.15
298.702	9.37
298.915	8.72
299.129	9.31
299.342	8.91
299.555	8.92
299.769	8.17
299.982	7.85
300.195	8.45
300.409	8.87
300.622	8.26
300.835	8.01
301.048	8.59
301.262	8.41
301.475	7.81
301.688	7.27
301.901	6.94
302.115	7.2
302.328	7.11
302.541	5.63
302.754	5.44
302.967	6.6
303.18	6.56
303.393	4.98
303.607	5.42
303.82	5.49
304.033	6.32
304.246	6.98
304.459	6.6
304.672	7.13
304.885	9.05
305.098	7.98
305.311	7.33
305.524	7.84
305.737	7.95
305.95	7.88
306.163	7.42
306.376	7.38
306.589	8.39
306.802	8.35
307.015	7.65
307.228	7.9
307.44	7.56
307.653	8.67
307.866	8.4
308.079	9.27
308.292	8.85
308.505	9.5
308.718	8.47
308.93	6.58
309.143	7.02
309.356	6.07
309.569	5.51
309.781	6.27
309.994	5.17
310.207	4.9
310.42	5.85
310.632	6.05
310.845	6.17
311.058	7.6
311.27	7.92
311.483	7.14
311.696	7.13
311.908	7.59
312.121	6.71
312.333	7.27
312.546	6.87
312.759	6.34
312.971	6.37
313.184	5.82
313.396	5.42
313.609	6.24
313.821	7.64
314.034	9.02
314.246	7.96
314.459	8.52
314.671	9.26
314.884	9.83
315.096	9.64
315.309	9.97
315.521	9.9
315.733	9.18
315.946	9.31
316.158	8.9
316.371	8.18
316.583	8.72
316.795	7.54
317.008	6.55
317.22	6.17
317.432	4.78
317.644	5.65
317.857	4.81
318.069	4.26
318.281	3.66
318.494	4.23
318.706	4.36
318.918	4.62
319.13	5.86
319.342	4.78
319.555	5.53
319.767	5.95
319.979	4.1
320.191	5.84
320.403	6.34
320.615	6.62
320.827	5.88
321.039	4.71
321.252	4.6
321.464	5.62
321.676	6.99
321.888	4.99
322.1	6.11
322.312	6.37
322.524	6.3
322.736	5.99
322.948	6.57
323.16	6.08
323.372	7.15
323.584	6.28
323.796	4.36
324.007	4.34
324.219	6.49
324.431	6.4
324.643	6.53
324.855	6.69
325.067	7.15
325.279	6.86
325.491	8.12
325.702	8.53
325.914	8.82
326.126	10.39
326.338	10.53
326.55	9.58
326.761	9.03
326.973	9.39
327.185	9.45
327.396	10.57
327.608	10.55
327.82	10.1
328.032	9.95
328.243	11.03
328.455	10.76
328.666	10.86
328.878	11.59
329.09	12.18
329.301	13.19
329.513	14.17
329.725	13.71
329.936	13.8
330.148	13.43
330.359	14.23
330.571	14.23
330.782	15.11
330.994	15.75
331.205	15.33
331.417	16.21
331.628	15.26
331.84	14.73
332.051	14.87
332.262	15.3
332.474	16.17
332.685	16.1
332.897	16.53
333.108	16.72
333.319	16.87
333.531	17.51
333.742	16.92
333.953	17.18
334.165	18.01
334.376	18.02
334.587	17.9
334.799	17.9
335.01	17.48
335.221	17.12
335.432	17.72
335.644	16.56
335.855	16.13
336.066	16.85
336.277	17.11
336.488	16.08
336.7	15.58
336.911	15.66
337.122	16.05
337.333	16.84
337.544	16.81
337.755	15.08
337.966	14.96
338.177	15.55
338.388	15.77
338.599	15.47
338.811	16.21
339.022	15.89
339.233	15.26
339.444	15.64
339.655	15.15
339.866	15.07
340.076	16.12
340.287	17.13
340.498	16.94
340.709	17.07
340.92	17.15
341.131	16.38
341.342	17.18
341.553	18.25
341.764	17.07
341.975	16.77
342.185	17.12
342.396	16.99
342.607	17.13
342.818	17.21
343.029	16.83
343.239	17.32
343.45	17.56
343.661	17.74
343.872	17.66
344.082	18.25
344.293	18.09
344.504	17.99
344.714	18.33
344.925	19.16
345.136	19.38
345.346	19.14
345.557	18.75
345.768	18.66
345.978	18.16
346.189	17.64
346.399	17.46
346.61	17.98
346.821	18.29
347.031	18.46
347.242	17.9
347.452	18.38
347.663	18.41
347.873	18.84
348.084	19.93
348.294	19.69
348.504	20.08
348.715	20.07
348.925	20.54
349.136	20.35
349.346	19.89
349.557	20.15
349.767	19.63
349.977	19.82
350.188	19.52
350.398	19.14
350.608	19.99
350.819	19.91
351.029	19.83
351.239	19.38
351.449	18.67
351.66	18.41
351.87	17.86
352.08	17.42
352.29	17.59
352.501	17.32
352.711	16.77
352.921	16.53
353.131	15.9
353.341	15.2
353.552	15.34
353.762	15.57
353.972	15.62
354.182	15.43
354.392	15.46
354.602	14.96
354.812	15.13
355.022	15.04
355.232	15.22
355.442	15.42
355.652	15.39
355.862	15.24
356.072	15.6
356.282	16.19
356.492	16.5
356.702	17.24
356.912	17.01
357.122	17.28
357.332	17.68
357.542	17.53
357.752	17.55
357.962	18.27
358.171	18.26
358.381	18.67
358.591	17.88
358.801	17.96
359.011	17.6
359.221	18.17
359.43	18.05
359.64	18.04
359.85	18.14
360.06	18.43
360.269	18.37
360.479	18.07
360.689	17.66
360.899	18.16
361.108	18.09
361.318	18.02
361.528	18.12
361.737	18.24
361.947	17.88
362.156	18.14
362.366	18.41
362.576	18.31
362.785	18.32
362.995	18.24
363.204	18.26
363.414	18.13
363.623	17.82
363.833	17.39
364.042	17.09
364.252	17.45
364.461	16.52
364.671	16.3
364.88	16.63
365.09	17.02
365.299	17.52
365.509	17.62
365.718	17.95
365.927	18.4
366.137	18.39
366.346	18.38
366.555	18.03
366.765	18.41
366.974	18.01
367.183	17.57
367.393	17.11
367.602	17.14
367.811	17.31
368.021	16.98
368.23	16.38
368.439	16.16
368.648	16.15
368.857	16.63
369.067	17.12
369.276	17.59
369.485	17.49
369.694	17.63
369.903	17.51
370.112	16.42
370.321	16.06
370.531	16.36
370.74	16.37
370.949	16.47
371.158	16.13
371.367	15.86
371.576	15.36
371.785	15.63
371.994	15.83
372.203	15.77
372.412	16.25
372.621	16.11
372.83	16.29
373.039	16.64
373.248	16.71
373.457	16.75
373.666	16.62
373.874	16.99
374.083	16.97
374.292	16.87
374.501	16.77
374.71	16.73
374.919	16.66
375.128	16.5
375.336	16.37
375.545	16.25
375.754	16.07
375.963	16.01
376.171	15.48
376.38	15.7
376.589	15.39
376.798	15.03
377.006	15.06
377.215	15.35
377.424	15.16
377.632	15.39
377.841	15.44
378.05	15.56
378.258	15.5
378.467	15.82
378.675	15.29
378.884	15.61
379.093	15.8
379.301	15.71
379.51	15.73
379.718	15.74
379.927	15.25
380.135	15.13
380.344	14.85
380.552	15.07
380.761	14.75
380.969	14.98
381.177	14.59
381.386	14.7
381.594	14.72
381.803	14.57
382.011	14.76
382.219	14.98
382.428	15.23
382.636	15.52
382.845	15.53
383.053	15.66
383.261	15.42
383.469	15.59
383.678	15.27
383.886	14.82
384.094	15.03
384.302	15.35
384.511	15.06
384.719	14.53
384.927	14.32
385.135	14.18
385.343	14.12
385.552	14.2
385.76	14.07
385.968	14.23
386.176	14.66
386.384	14.26
386.592	13.76
386.8	13.87
387.008	14.29
387.216	14.07
387.424	13.87
387.633	13.98
387.841	13.92
388.049	14.08
388.257	13.86
388.465	13.58
388.672	13.64
388.88	13.5
389.088	13.52
389.296	13.4
389.504	13.76
389.712	13.75
389.92	13.88
390.128	13.78
390.336	13.66
390.544	13.89
390.751	13.87
390.959	13.79
391.167	14.06
391.375	14.13
391.583	13.78
391.79	13.55
391.998	13.82
392.206	13.66
392.414	13.85
392.621	13.76
392.829	13.48
393.037	13.82
393.244	14.01
393.452	13.71
393.66	13.52
393.867	13.79
394.075	13.84
394.283	13.4
394.49	13.04
394.698	12.84
394.905	12.55
395.113	12.75
395.32	12.54
395.528	12.5
395.735	12.86
395.943	12.95
396.15	12.66
396.358	12.58
396.565	12.65
396.773	12.7
396.98	12.62
397.188	13.23
397.395	13.21
397.602	12.98
397.81	12.68
398.017	12.34
398.225	12.35
398.432	12.28
398.639	12.03
398.847	12.05
399.054	12.11
399.261	12.3
399.468	11.91
399.676	11.79
399.883	11.71
400.09	11.95
400.297	12.2
400.505	12.25
400.712	12.41
400.919	12.56
401.126	12.4
401.333	12.92
401.54	12.87
401.748	13.16
401.955	13.17
402.162	13.44
402.369	13.44
402.576	13.33
402.783	13.16
402.99	13.02
403.197	13.07
403.404	12.91
403.611	12.69
403.818	12.55
404.025	12.42
404.232	11.95
404.439	12.17
404.646	11.94
404.853	11.98
405.06	12.01
405.267	12.49
405.474	12.28
405.681	12.43
405.887	12.57
406.094	12.86
406.301	12.8
406.508	13.18
406.715	12.96
406.922	12.87
407.128	12.69
407.335	12.63
407.542	12.31
407.749	12.44
407.955	12.7
408.162	12.4
408.369	12.34
408.575	12.42
408.782	12.41
408.989	12.24
409.195	12.27
409.402	12.48
409.609	12.33
409.815	12.26
410.022	12.36
410.228	12.3
410.435	12.3
410.642	12.2
410.848	12.23
411.055	12.21
411.261	12.43
411.468	12.72
411.674	12.58
411.881	12.8
412.087	12.98
412.294	12.86
412.5	12.77
412.706	12.7
412.913	12.69
413.119	12.7
413.326	12.79
413.532	12.75
413.738	12.51
413.945	12.39
414.151	12.37
414.357	12.43
414.564	12.52
414.77	12.4
414.976	12.4
415.182	12.21
415.389	12.05
415.595	11.77
415.801	11.68
416.007	11.9
416.214	12.02
416.42	11.93
416.626	11.77
416.832	11.73
417.038	11.93
417.244	11.91
417.45	12.06
417.657	11.94
417.863	12.19
418.069	12.21
418.275	12.14
418.481	12.1
418.687	12.09
418.893	12.08
419.099	11.89
419.305	11.88
419.511	11.87
419.717	11.71
419.923	11.78
420.129	11.68
420.335	11.57
420.541	11.54
420.746	11.44
420.952	11.44
421.158	11.4
421.364	11.48
421.57	11.36
421.776	11.48
421.982	11.58
422.187	11.6
422.393	11.52
422.599	11.54
422.805	11.51
423.01	11.5
423.216	11.45
423.422	11.31
423.628	11.3
423.833	11.21
424.039	10.99
424.245	10.85
424.45	10.88
424.656	11.02
424.862	11.01
425.067	10.9
425.273	11.05
425.478	11.1
425.684	11.25
425.889	11.4
426.095	11.53
426.301	11.59
426.506	11.71
426.712	11.55
426.917	11.5
427.123	11.63
427.328	11.7
427.533	11.65
427.739	11.65
427.944	11.57
428.15	11.42
428.355	11.28
428.561	11.4
428.766	11.38
428.971	11.62
429.177	11.6
429.382	11.44
429.587	11.61
429.793	11.54
429.998	11.42
430.203	11.41
430.408	11.43
430.614	11.59
430.819	11.57
431.024	11.53
431.229	11.51
431.434	11.36
431.64	11.26
431.845	11.36
432.05	11.34
432.255	11.35
432.46	11.21
432.665	11.27
432.87	11.29
433.076	11.3
433.281	11.28
433.486	11.34
433.691	11.39
433.896	11.47
434.101	11.22
434.306	11.13
434.511	11.13
434.716	11.27
434.921	11.16
435.126	11.23
435.331	11.09
435.535	11.06
435.74	10.88
435.945	10.95
436.15	10.82
436.355	11.19
436.56	11.2
436.765	11.28
436.97	11.29
437.174	11.38
437.379	11.29
437.584	11.34
437.789	11.45
437.993	11.33
438.198	11.18
438.403	11.18
438.608	11.03
438.812	10.94
439.017	10.92
439.222	10.83
439.426	10.68
439.631	10.63
439.836	10.83
440.04	10.78
440.245	10.91
440.45	10.97
440.654	11.07
440.859	11.01
441.063	11.17
441.268	11.16
441.472	11.17
441.677	11.16
441.881	11.26
442.086	11
442.29	10.85
442.495	10.68
442.699	10.66
442.904	10.63
443.108	10.55
443.312	10.43
443.517	10.38
443.721	10.44
443.925	10.66
444.13	10.58
444.334	10.8
444.538	10.98
444.743	11.12
444.947	11.1
445.151	11.1
445.356	11.15
445.56	11.24
445.764	11.33
445.968	11.32
446.173	11.31
446.377	11.24
446.581	11.14
446.785	11.09
446.989	11.03
447.193	11.05
447.398	10.9
447.602	10.86
447.806	10.79
448.01	10.7
448.214	10.67
448.418	10.45
448.622	10.43
448.826	10.52
449.03	10.58
449.234	10.59
449.438	10.52
449.642	10.72
449.846	10.74
450.05	10.75
450.254	10.87
450.458	10.77
450.662	10.8
450.866	10.82
451.069	10.75
451.273	10.71
451.477	10.73
451.681	10.73
451.885	10.72
452.089	10.73
452.292	10.67
452.496	10.51
452.7	10.58
452.904	10.61
453.107	10.55
453.311	10.66
453.515	10.53
453.719	10.68
453.922	10.84
454.126	10.68
454.33	10.7
454.533	10.55
454.737	10.6
454.94	10.54
455.144	10.53
455.348	10.61
455.551	10.54
455.755	10.49
455.958	10.33
456.162	10.04
456.365	10.21
456.569	10.13
456.772	10.25
456.976	10.31
457.179	10.4
457.383	10.44
457.586	10.55
457.79	10.62
457.993	10.69
458.196	10.68
458.4	10.88
458.603	10.91
458.807	11
459.01	11.04
459.213	11.08
459.417	11.15
459.62	11.17
459.823	11.11
460.026	11.02
460.23	11.03
460.433	10.93
460.636	10.81
460.839	10.71
461.042	10.68
461.246	10.68
461.449	10.56
461.652	10.46
461.855	10.39
462.058	10.24
462.261	10.37
462.464	10.33
462.668	10.47
462.871	10.57
463.074	10.54
463.277	10.39
463.48	10.3
463.683	10.38
463.886	10.41
464.089	10.4
464.292	10.53
464.495	10.39
464.698	10.31
464.901	10.23
465.104	10.31
465.306	10.29
465.509	10.48
465.712	10.62
465.915	10.59
466.118	10.53
466.321	10.73
466.524	10.67
466.726	10.53
466.929	10.66
467.132	10.72
467.335	10.63
467.538	10.64
467.74	10.6
467.943	10.5
468.146	10.47
468.348	10.51
468.551	10.34
468.754	10.36
468.956	10.38
469.159	10.36
469.362	10.36
469.564	10.33
469.767	10.54
469.969	10.48
470.172	10.68
470.375	10.51
470.577	10.57
470.78	10.62
470.982	10.69
471.185	10.84
471.387	10.69
471.59	10.71
471.792	10.67
471.995	10.52
472.197	10.61
472.399	10.63
472.602	10.86
472.804	10.67
473.007	10.7
473.209	10.58
473.411	10.43
473.614	10.59
473.816	10.63
474.018	10.68
474.22	10.76
474.423	10.57
474.625	10.42
474.827	10.44
475.03	10.53
475.232	10.46
475.434	10.6
475.636	10.58
475.838	10.7
476.04	10.58
476.243	10.47
476.445	10.48
476.647	10.61
476.849	10.66
477.051	10.53
477.253	10.53
477.455	10.7
477.657	10.53
477.859	10.62
478.061	10.41
478.263	10.52
478.465	10.47
478.667	10.51
478.869	10.57
479.071	10.48
479.273	10.52
479.475	10.48
479.677	10.37
479.879	10.52
480.081	10.42
480.283	10.45
480.485	10.4
480.686	10.69
480.888	10.69
481.09	10.63
481.292	10.67
481.494	10.7
481.695	10.88
481.897	10.91
482.099	10.81
482.301	10.87
482.502	10.86
482.704	10.84
482.906	10.77
483.107	10.77
483.309	10.74
483.511	10.78
483.712	10.76
483.914	10.71
484.115	10.69
484.317	10.69
484.519	10.72
484.72	10.78
484.922	10.83
485.123	10.85
485.325	10.82
485.526	10.85
485.728	10.82
485.929	10.87
486.131	10.83
486.332	10.88
486.534	10.94
486.735	10.88
486.936	10.83
487.138	10.75
487.339	10.67
487.541	10.73
487.742	10.69
487.943	10.71
488.144	10.67
488.346	10.75
488.547	10.73
488.748	10.74
488.95	10.69
489.151	10.69
489.352	10.7
489.553	10.78
489.755	10.69
489.956	10.77
490.157	10.73
490.358	10.72
490.559	10.69
490.76	10.68
490.961	10.71
491.163	10.81
491.364	10.83
491.565	10.85
491.766	10.82
491.967	10.89
492.168	10.86
492.369	10.87
492.57	10.85
492.771	10.86
492.972	10.83
493.173	10.73
493.374	10.79
493.575	10.72
493.776	10.66
493.976	10.64
494.177	10.54
494.378	10.56
494.579	10.57
494.78	10.67
494.981	10.66
495.182	10.8
495.382	10.8
495.583	10.7
495.784	10.76
495.985	10.9
496.185	10.93
496.386	10.91
496.587	11
496.788	10.99
496.988	10.91
497.189	10.89
497.39	11
497.59	10.98
497.791	10.98
497.992	10.97
498.192	11.05
498.393	11.13
498.593	11.21
498.794	11.12
498.994	11.07
499.195	11.11
499.395	11.07
499.596	10.83
499.796	10.86
499.997	10.85
500.197	10.86
500.398	10.78
500.598	10.63
500.799	10.64
500.999	10.57
501.199	10.61
501.4	10.67
501.6	10.69
501.801	10.7
502.001	10.69
502.201	10.8
502.402	10.91
502.602	10.98
502.802	11.07
503.002	11.17
503.203	11.25
503.403	11.27
503.603	11.26
503.803	11.42
504.003	11.5
504.204	11.59
504.404	11.44
504.604	11.36
504.804	11.38
505.004	11.4
505.204	11.29
505.404	11.27
505.604	11.37
505.804	11.45
506.005	11.37
506.205	11.25
506.405	11.19
506.605	11.43
506.805	11.4
507.005	11.33
507.204	11.29
507.404	11.34
507.604	11.38
507.804	11.37
508.004	11.46
508.204	11.57
508.404	11.74
508.604	11.94
508.804	11.92
509.003	12.04
509.203	11.99
509.403	12.11
509.603	12.17
509.803	12.2
510.002	12.17
510.202	12.01
510.402	11.94
510.602	11.86
510.801	11.75
511.001	11.67
511.201	11.61
511.4	11.68
511.6	11.81
511.8	11.7
511.999	11.68
512.199	11.72
512.398	11.72
512.598	11.8
512.797	11.93
512.997	11.89
513.197	11.96
513.396	12.06
513.596	12.07
513.795	11.92
513.994	12
514.194	12.09
514.393	12.07
514.593	12.28
514.792	12.31
514.992	12.26
515.191	12.41
515.39	12.45
515.59	12.57
515.789	12.68
515.988	12.63
516.188	12.78
516.387	12.77
516.586	12.9
516.786	12.82
516.985	12.78
517.184	12.88
517.383	12.98
517.582	12.92
517.782	12.86
517.981	12.92
518.18	13.03
518.379	13.1
518.578	13.17
518.777	13.17
518.976	13.2
519.176	13.33
519.375	13.36
519.574	13.35
519.773	13.49
519.972	13.6
520.171	13.55
520.37	13.57
520.569	13.58
520.768	13.7
520.967	13.78
521.166	13.84
521.365	13.88
521.564	13.84
521.762	13.87
521.961	13.94
522.16	13.95
522.359	14.01
522.558	14.11
522.757	14.12
522.956	14.04
523.154	13.97
523.353	14.03
523.552	13.99
523.751	14.13
523.949	14.17
524.148	14.07
524.347	14.15
524.546	14.22
524.744	14.31
524.943	14.39
525.142	14.41
525.34	14.54
525.539	14.48
525.737	14.52
525.936	14.57
526.135	14.62
526.333	14.67
526.532	14.69
526.73	14.72
526.929	14.73
527.127	14.73
527.326	14.78
527.524	14.8
527.723	14.91
527.921	14.97
528.12	14.96
528.318	14.97
528.516	14.95
528.715	15.03
528.913	15.08
529.112	15.11
529.31	15.12
529.508	15.14
529.707	15.16
529.905	15.22
530.103	15.25
530.301	15.26
530.5	15.32
530.698	15.43
530.896	15.4
531.094	15.4
531.293	15.39
531.491	15.5
531.689	15.54
531.887	15.59
532.085	15.65
532.283	15.6
532.481	15.66
532.68	15.71
532.878	15.74
533.076	15.76
533.274	15.75
533.472	15.75
533.67	15.7
533.868	15.73
534.066	15.72
534.264	15.61
534.462	15.68
534.66	15.82
534.858	15.78
535.056	15.82
535.253	15.88
535.451	15.98
535.649	16.09
535.847	16.15
536.045	16.23
536.243	16.32
536.441	16.51
536.638	16.58
536.836	16.55
537.034	16.66
537.232	16.72
537.43	16.76
537.627	16.77
537.825	16.74
538.023	16.79
538.22	16.82
538.418	16.84
538.616	16.73
538.813	16.82
539.011	16.8
539.209	16.91
539.406	16.92
539.604	16.93
539.801	17.1
539.999	17.23
540.196	17.34
540.394	17.38
540.591	17.37
540.789	17.45
540.986	17.39
541.184	17.42
541.381	17.35
541.579	17.41
541.776	17.36
541.974	17.36
542.171	17.29
542.368	17.33
542.566	17.36
542.763	17.38
542.96	17.41
543.158	17.52
543.355	17.52
543.552	17.61
543.75	17.62
543.947	17.76
544.144	17.78
544.341	17.98
544.539	17.99
544.736	18.12
544.933	18.2
545.13	18.3
545.327	18.26
545.524	18.36
545.722	18.41
545.919	18.41
546.116	18.46
546.313	18.44
546.51	18.37
546.707	18.33
546.904	18.2
547.101	18.33
547.298	18.32
547.495	18.36
547.692	18.45
547.889	18.38
548.086	18.48
548.283	18.56
548.48	18.72
548.677	18.75
548.874	18.87
549.07	19.1
549.267	19.06
549.464	19.28
549.661	19.24
549.858	19.42
550.055	19.55
550.251	19.53
550.448	19.47
550.645	19.68
550.842	19.73
551.038	19.8
551.235	19.87
551.432	19.97
551.628	19.77
551.825	20.12
552.022	19.83
552.218	19.96
552.415	20.11
552.612	20.11
552.808	19.96
553.005	20.19
553.201	20.14
553.398	20.28
553.594	20.16
553.791	20.35
553.987	20.34
554.184	20.44
554.38	20.39
554.577	20.37
554.773	20.57
554.97	20.64
555.166	20.6
555.362	20.54
555.559	20.55
555.755	20.54
555.952	20.56
556.148	20.48
556.344	20.61
556.541	20.78
556.737	20.76
556.933	20.69
557.129	20.6
557.326	20.39
557.522	20.61
557.718	20.4
557.914	20.67
558.11	20.65
558.307	20.79
558.503	20.79
558.699	20.72
558.895	20.82
559.091	20.96
559.287	21.11
559.483	21.34
559.679	21.53
559.876	21.69
560.072	21.71
560.268	21.84
560.464	21.7
560.66	21.95
560.856	22.13
561.052	22.09
561.247	22.18
561.443	22.24
561.639	22.19
561.835	22.19
562.031	22.27
562.227	22.19
562.423	22.28
562.619	22.6
562.815	22.58
563.01	22.61
563.206	22.74
563.402	22.72
563.598	22.92
563.793	23.25
563.989	23.32
564.185	23.45
564.381	23.86
564.576	23.97
564.772	23.96
564.968	24.06
565.163	24.08
565.359	24.11
565.555	24.29
565.75	24.38
565.946	24.33
566.141	24.37
566.337	24.4
566.532	24.37
566.728	24.44
566.923	24.4
567.119	24.5
567.314	24.56
567.51	24.64
567.705	24.57
567.901	24.5
568.096	24.63
568.292	24.54
568.487	24.47
568.682	24.44
568.878	24.49
569.073	24.69
569.268	24.7
569.464	24.64
569.659	24.76
569.854	24.98
570.05	24.9
570.245	24.85
570.44	25.12
570.635	25.29
570.831	25.43
571.026	25.44
571.221	25.37
571.416	25.39
571.611	25.64
571.806	25.69
572.002	25.67
572.197	25.91
572.392	25.97
572.587	26
572.782	26.02
572.977	26.07
573.172	26.14
573.367	26.22
573.562	26.29
573.757	26.35
573.952	26.41
574.147	26.31
574.342	26.3
574.537	26.4
574.732	26.43
574.927	26.34
575.121	26.33
575.316	26.35
575.511	26.41
575.706	26.4
575.901	26.32
576.096	26.51
576.29	26.78
576.485	26.79
576.68	26.58
576.875	26.55
577.069	26.72
577.264	26.66
577.459	26.74
577.654	26.89
577.848	26.86
578.043	27.03
578.238	27.04
578.432	26.96
578.627	27.05
578.821	27.48
579.016	27.47
579.21	27.54
579.405	27.58
579.6	27.59
579.794	27.49
579.989	27.47
580.183	27.31
580.378	27.31
580.572	27.37
580.766	27.35
580.961	27.15
581.155	27.29
581.35	27.3
581.544	27.48
581.738	27.39
581.933	27.61
582.127	27.83
582.321	27.95
582.516	28.06
582.71	28.2
582.904	28.31
583.099	28.45
583.293	28.42
583.487	28.36
583.681	28.64
583.875	28.85
584.07	28.73
584.264	28.61
584.458	28.67
584.652	28.37
584.846	28.45
585.04	28.38
585.234	28.42
585.428	28.55
585.623	28.59
585.817	28.16
586.011	28.07
586.205	28.24
586.399	28.55
586.593	28.66
586.787	28.71
586.981	28.54
587.174	28.78
587.368	28.62
587.562	28.62
587.756	28.77
587.95	28.82
588.144	28.7
588.338	28.56
588.532	28.45
588.725	28.26
588.919	28.29
589.113	28.58
589.307	28.37
589.501	28.67
589.694	28.66
589.888	28.9
590.082	29.13
590.275	29.21
590.469	29.2
590.663	29.45
590.856	29.57
591.05	29.7
591.244	29.64
591.437	29.76
591.631	29.78
591.824	29.92
592.018	29.5
592.212	29.47
592.405	29.47
592.599	29.7
592.792	29.7
592.986	29.95
593.179	30.04
593.372	30.17
593.566	30.43
593.759	30.3
593.953	30.33
594.146	30.62
594.339	30.77
594.533	30.89
594.726	30.91
594.92	30.73
595.113	30.64
595.306	30.76
595.499	30.65
595.693	30.78
595.886	31.03
596.079	31.02
596.272	31.09
596.466	31.19
596.659	31.22
596.852	31.03
597.045	31.12
597.238	31.11
597.431	31.04
597.624	31.07
597.818	31.01
598.011	30.9
598.204	30.95
598.397	31.04
598.59	30.84
598.783	30.87
598.976	30.97
599.169	31.01
599.362	31.07
599.555	31.08
599.748	31.15
599.941	30.99
600.134	30.91
600.326	30.92
600.519	30.77
600.712	30.79
600.905	30.97
601.098	31.27
601.291	31.4
601.483	31.4
601.676	31.51
601.869	31.53
602.062	31.5
602.255	31.77
602.447	31.86
602.64	32.04
602.833	32.01
603.025	32
603.218	31.99
603.411	31.92
603.603	32.01
603.796	32.02
603.989	31.87
604.181	31.9
604.374	32.06
604.566	32.09
604.759	31.97
604.951	32.13
605.144	32.12
605.336	32.09
605.529	32.04
605.721	32.15
605.914	32.14
606.106	32.36
606.299	32.41
606.491	32.16
606.683	32.13
606.876	32.28
607.068	32.27
607.26	32.15
607.453	32.08
607.645	32.14
607.837	32.02
608.03	32.19
608.222	32.15
608.414	32.13
608.606	32.22
608.799	32.25
608.991	32.44
609.183	32.49
609.375	32.6
609.567	32.82
609.759	32.87
609.952	33.05
610.144	33.13
610.336	33.16
610.528	33.38
610.72	33.43
610.912	33.54
611.104	33.46
611.296	33.41
611.488	33.44
611.68	33.26
611.872	33.12
612.064	32.94
612.256	32.77
612.448	32.89
612.64	32.72
612.832	33.01
613.023	33.07
613.215	32.98
613.407	33.21
613.599	33.19
613.791	33.3
613.983	33.63
614.174	33.48
614.366	33.35
614.558	33.21
614.75	33.33
614.941	33.22
615.133	33.08
615.325	33.1
615.516	33.07
615.708	33.2
615.9	32.96
616.091	32.86
616.283	33.12
616.475	33.27
616.666	33.34
616.858	33.39
617.049	33.41
617.241	33.21
617.432	33.28
617.624	33.08
617.815	33.27
618.007	33.43
618.198	33.47
618.39	33.57
618.581	33.58
618.773	33.28
618.964	33.42
619.155	33.27
619.347	33.22
619.538	33.41
619.729	33.75
619.921	33.92
620.112	34.15
620.303	34.12
620.494	34.14
620.686	34.14
620.877	34.31
621.068	34.15
621.259	34.16
621.451	34.64
621.642	34.45
621.833	34.39
622.024	34.09
622.215	33.99
622.406	34.36
622.597	34.25
622.788	34.45
622.98	34.53
623.171	34.69
623.362	34.77
623.553	34.81
623.744	35.15
623.935	34.96
624.126	35.15
624.317	35.3
624.508	35.19
624.698	35.27
624.889	35.24
625.08	35.61
625.271	35.59
625.462	35.65
625.653	35.4
625.844	34.98
626.034	35.06
626.225	34.93
626.416	35.09
626.607	35.08
626.798	35.14
626.988	35.26
627.179	35.07
627.37	34.84
627.56	34.72
627.751	34.96
627.942	35.31
628.132	35.37
628.323	35.25
628.514	35.08
628.704	35.18
628.895	35.14
629.085	35.04
629.276	35.03
629.466	35.55
629.657	35.7
629.847	35.75
630.038	35.68
630.228	35.78
630.419	35.88
630.609	35.99
630.8	36.04
630.99	36.15
631.181	36.2
631.371	36.22
631.561	36.17
631.752	36.03
631.942	35.8
632.132	35.64
632.323	35.45
632.513	35.68
632.703	35.44
632.893	35.26
633.084	35.14
633.274	35.18
633.464	35.41
633.654	35.38
633.844	35.52
634.034	35.43
634.225	35.52
634.415	36
634.605	35.68
634.795	35.9
634.985	36
635.175	36.07
635.365	36.13
635.555	36.09
635.745	36.08
635.935	36.27
636.125	36.45
636.315	36.44
636.505	36.02
636.695	36.35
636.885	36.34
637.075	36.29
637.265	36.48
637.455	36.35
637.644	36.29
637.834	36.19
638.024	35.91
638.214	35.86
638.404	35.98
638.593	36.29
638.783	36.37
638.973	36.26
639.163	36.14
639.352	36.31
639.542	36.01
639.732	36.06
639.921	36.23
640.111	36.17
640.301	36.33
640.49	36.33
640.68	36.13
640.87	36.3
641.059	36.53
641.249	36.91
641.438	36.34
641.628	36.45
641.817	36.54
642.007	36.42
642.196	36.62
642.386	36.68
642.575	37.1
642.764	37.27
642.954	36.99
643.143	37.35
643.333	37.07
643.522	37.51
643.711	37.78
643.901	37.89
644.09	37.92
644.279	38.04
644.469	37.81
644.658	37.48
644.847	36.99
645.036	36.86
645.226	36.65
645.415	36.25
645.604	36.2
645.793	36.34
645.982	35.86
646.171	35.87
646.361	35.68
646.55	35.7
646.739	35.94
646.928	36.28
647.117	36.69
647.306	36.58
647.495	37.06
647.684	37.28
647.873	37.26
648.062	37.83
648.251	37.76
648.44	37.74
648.629	37.97
648.818	37.73
649.007	37.67
649.196	37.69
649.384	37.71
649.573	37.6
649.762	37.44
649.951	37.56
650.14	37.44
650.328	37.34
650.517	37.48
650.706	37.68
650.895	37.85
651.083	37.98
651.272	37.38
651.461	37.59
651.65	37.67
651.838	37.61
652.027	37.44
652.216	37.35
652.404	37.29
652.593	37.46
652.781	37.23
652.97	36.9
653.158	36.85
653.347	37.44
653.535	37.24
653.724	37.43
653.912	37.69
654.101	37.89
654.289	38.09
654.478	38.5
654.666	38.16
654.855	38.28
655.043	38.47
655.231	38.45
655.42	38.13
655.608	38.28
655.796	38.15
655.985	38.09
656.173	38.01
656.361	37.81
656.55	37.54
656.738	37.98
656.926	37.65
657.114	37.86
657.302	38.31
657.491	38.46
657.679	38.21
657.867	37.88
658.055	38.05
658.243	38.33
658.431	38.47
658.619	38.7
658.807	38.32
658.996	38.73
659.184	38.54
659.372	38.45
659.56	38.45
659.748	38.47
659.936	39
660.124	39
660.311	38.73
660.499	38.58
660.687	38.47
660.875	38.93
661.063	38.82
661.251	38.92
661.439	38.76
661.627	38.93
661.814	38.95
662.002	38.64
662.19	38.62
662.378	38.71
662.565	39
662.753	39.15
662.941	38.96
663.129	38.55
663.316	38.52
663.504	38.61
663.692	38.61
663.879	39.15
664.067	39.3
664.254	39.2
664.442	38.86
664.63	38.65
664.817	38.69
665.005	38.98
665.192	39.43
665.38	39.43
665.567	39.9
665.755	40.13
665.942	39.95
666.13	40.31
666.317	40.17
666.504	40.37
666.692	40.5
666.879	40.3
667.067	40.37
667.254	40.33
667.441	40.65
667.629	40.03
667.816	39.89
668.003	39.9
668.19	39.93
668.378	40.2
668.565	40.34
668.752	40.71
668.939	40.82
669.127	40.19
669.314	40.33
669.501	40.02
669.688	40.08
669.875	40.11
670.062	39.79
670.249	39.28
670.436	39
670.623	39.48
670.81	39.13
670.997	39.26
671.184	39.5
671.371	39.88
671.558	40.23
671.745	40.55
671.932	40.37
672.119	40.22
672.306	40.44
672.493	40.41
672.68	39.9
672.867	40.16
673.054	40.33
673.24	40.6
673.427	40.45
673.614	40.13
673.801	40.19
673.988	40.14
674.174	40.45
674.361	40.72
674.548	40.93
674.734	41.07
674.921	40.97
675.108	41.01
675.294	40.84
675.481	40.97
675.668	40.98
675.854	40.95
676.041	41
676.227	41.14
676.414	41.29
676.601	41.46
676.787	41.4
676.974	41.37
677.16	40.9
677.347	41.33
677.533	40.84
677.719	41
677.906	40.66
678.092	41
678.279	40.92
678.465	40.67
678.651	40.25
678.838	40.12
679.024	40.15
679.21	40.37
679.397	39.83
679.583	40.28
679.769	40.22
679.955	40.62
680.142	40.61
680.328	41.05
680.514	40.9
680.7	40.94
680.886	41.09
681.073	41.08
681.259	41.27
681.445	41.45
681.631	41.35
681.817	41.57
682.003	41.36
682.189	41.38
682.375	40.82
682.561	40.92
682.747	41.26
682.933	41.12
683.119	40.99
683.305	40.9
683.491	40.93
683.677	40.75
683.863	40.57
684.049	41.04
684.235	41.06
684.42	41.55
684.606	41.72
684.792	42.2
684.978	42.77
685.164	42.86
685.349	43.01
685.535	43.06
685.721	43.12
685.907	43.35
686.092	42.9
686.278	42.45
686.464	42.68
686.649	42.51
686.835	42.15
687.021	41.79
687.206	41.84
687.392	41.83
687.577	41.66
687.763	41.59
687.948	41.55
688.134	41.59
688.319	42.05
688.505	41.74
688.69	41.61
688.876	41.48
689.061	41.39
689.247	41.72
689.432	41.44
689.618	41.85
689.803	41.85
689.988	42.29
690.174	42.58
690.359	42.06
690.544	42.36
690.73	42.45
690.915	42.42
691.1	42.67
691.285	42.66
691.471	43.01
691.656	43.03
691.841	43.04
692.026	42.65
692.211	42.4
692.396	42.85
692.582	41.93
692.767	42.25
692.952	42.23
693.137	42.28
693.322	41.97
693.507	41.67
693.692	41.68
693.877	41.94
694.062	41.75
694.247	41.61
694.432	41.71
694.617	42.56
694.802	42.14
694.987	41.7
695.172	41.73
695.357	41.78
695.541	41.9
695.726	41.78
695.911	41.71
696.096	41.27
696.281	41.32
696.466	41.12
696.65	40.94
696.835	41.59
697.02	41.94
697.204	41.63
697.389	41.77
697.574	41.89
697.759	41.5
697.943	41.74
698.128	42.14
698.312	42.02
698.497	42.16
698.682	42.38
698.866	42.17
699.051	42.1
699.235	42.4
699.42	42.27
699.604	42.14
699.789	42.41
699.973	42.31
700.158	42.3
700.342	42.21
700.527	42.34
700.711	41.89
700.895	42.04
701.08	42.35
701.264	42.15
701.448	42.47
701.633	42.92
701.817	43.28
702.001	42.9
702.186	43.14
702.37	43.52
702.554	43.67
702.738	43.82
702.923	43.5
703.107	43.77
703.291	43.43
703.475	42.93
703.659	42.5
703.843	42.12
704.027	42.59
704.212	42.29
704.396	43.07
704.58	42.76
704.764	42.65
704.948	42.57
705.132	42.94
705.316	42.93
705.5	43.4
705.684	44.11
705.868	44.27
706.052	44.53
706.235	44.64
706.419	43.68
706.603	43.68
706.787	44.06
706.971	44.44
707.155	43.92
707.339	44.75
707.522	44.22
707.706	43.85
707.89	43.56
708.074	43.37
708.257	43.57
708.441	44.58
708.625	44.56
708.808	44.23
708.992	43.85
709.176	43.6
709.359	43.2
709.543	43.51
709.727	43.18
709.91	43.44
710.094	43.44
710.277	43.69
710.461	42.57
710.644	42.8
710.828	42.85
711.011	43.4
711.195	43.48
711.378	44.03
711.562	44.45
711.745	44.37
711.928	44.61
712.112	44.63
712.295	44.35
712.478	44.63
712.662	45.17
712.845	44.95
713.028	44.79
713.212	44.16
713.395	43.7
713.578	43.37
713.761	43.59
713.945	43.08
714.128	42.86
714.311	43.32
714.494	43.35
714.677	42.59
714.86	43.12
715.043	42.95
715.227	43.58
715.41	43.36
715.593	43.49
715.776	43.59
715.959	43.82
716.142	43.75
716.325	43.3
716.508	43.6
716.691	43.69
716.874	43.35
717.057	43.58
717.239	43.63
717.422	43.28
717.605	43.64
717.788	43.86
717.971	44.42
718.154	45.19
718.337	45.39
718.519	44.93
718.702	45.11
718.885	45.6
719.068	45.16
719.25	45.34
719.433	46.02
719.616	45.2
719.798	44.5
719.981	43.94
720.164	42.82
720.346	42.55
720.529	41.83
720.712	40.45
720.894	40.18
721.077	40.1
721.259	40.24
721.442	39.53
721.624	39.67
721.807	39.91
721.989	39.79
722.172	40.46
722.354	40.13
722.537	41.51
722.719	42.56
722.901	42.41
723.084	43.06
723.266	42.48
723.448	42.66
723.631	44.21
723.813	44.36
723.995	44.86
724.178	45.06
724.36	44.97
724.542	44.74
724.724	44.5
724.907	45.34
725.089	45.6
725.271	45.5
725.453	46.13
725.635	45.08
725.817	45.98
725.999	45.95
726.181	45.67
726.364	45.92
726.546	45.66
726.728	46.93
726.91	46.55
727.092	46.13
727.274	46.18
727.456	45.94
727.638	45.58
727.819	44.19
728.001	44.4
728.183	44.7
728.365	45.58
728.547	45.86
728.729	45.33
728.911	45.41
729.093	45.15
729.274	45.88
729.456	45.63
729.638	45.89
729.82	46.58
730.001	46.16
730.183	45.9
730.365	44.88
730.546	44.89
730.728	44.23
730.91	44.03
731.091	44.28
731.273	43.59
731.455	43.33
731.636	43.49
731.818	43.22
731.999	43.1
732.181	42.72
732.362	42.87
732.544	42.68
732.725	42.83
732.907	43.25
733.088	43.24
733.27	43.67
733.451	44.28
733.633	44.36
733.814	44.49
733.995	44.08
734.177	44.2
734.358	44.61
734.539	45.02
734.721	45.39
734.902	45.26
735.083	44.85
735.264	44.68
735.446	44.17
735.627	43.99
735.808	44.28
735.989	44.52
736.17	45.45
736.351	45.12
736.533	44.71
736.714	44.88
736.895	44.51
737.076	45.02
737.257	44.53
737.438	45.52
737.619	44.49
737.8	43.63
737.981	44.02
738.162	43.68
738.343	43.67
738.524	43.97
738.705	44.03
738.886	43.99
739.067	44.22
739.247	45.19
739.428	44.09
739.609	44.84
739.79	45.61
739.971	45.45
740.151	44.64
740.332	45.15
740.513	45.19
740.694	44.24
740.874	44.26
741.055	44.76
741.236	44.1
741.417	44.81
741.597	44.89
741.778	45.26
741.958	45.25
742.139	45.58
742.32	45.45
742.5	45.14
742.681	45.5
742.861	45.72
743.042	44.69
743.222	45.01
743.403	45.05
743.583	45.36
743.764	45.26
743.944	45.93
744.124	45.64
744.305	46.12
744.485	46.04
744.666	45.58
744.846	45.05
745.026	45.72
745.207	45.29
745.387	45.23
745.567	44.65
745.747	43.75
745.928	42.98
746.108	43.93
746.288	43.38
746.468	44.07
746.648	43.64
746.829	44.1
747.009	42.92
747.189	42.17
747.369	42.91
747.549	43.29
747.729	43.87
747.909	43.86
748.089	44.14
748.269	43.49
748.449	43.28
748.629	44.66
748.809	45.22
748.989	45.95
749.169	47.34
749.349	46.53
749.529	46.73
749.709	46.2
749.889	46.81
750.068	46.1
750.248	47.28
750.428	46.74
750.608	46.84
750.788	46.52
750.967	46.82
751.147	47.4
751.327	47.18
751.507	47.06
751.686	47.19
751.866	47.41
752.046	47.28
752.225	46.77
752.405	46.55
752.585	45.88
752.764	44.78
752.944	44.31
753.123	43.06
753.303	44.46
753.482	44.42
753.662	45.07
753.841	44.71
754.021	44.11
754.2	45.03
754.38	45.4
754.559	45.51
754.739	45.66
754.918	45.94
755.097	45.5
755.277	45.38
755.456	45.01
755.635	44.37
755.815	44.91
755.994	45.42
756.173	44.63
756.352	44.84
756.532	45.22
756.711	45.92
756.89	46.47
757.069	47.16
757.248	45.72
757.427	46.18
757.607	46.02
757.786	45.16
757.965	45.79
758.144	45.04
758.323	44.98
758.502	44.32
758.681	44.34
758.86	43.69
759.039	43.63
759.218	44.5
759.397	44.38
759.576	45.28
759.755	45.32
759.934	45.23
760.113	45.66
760.291	46.38
760.47	47.46
760.649	48.37
760.828	48.4
761.007	48.21
761.186	49.05
761.364	48.8
761.543	47.96
761.722	47.75
761.901	47.97
762.079	47.86
762.258	46.85
762.437	47
762.615	46.92
762.794	47.49
762.972	47.87
763.151	46.86
763.33	46.45
763.508	46.45
763.687	46.71
763.865	46.76
764.044	47.27
764.222	47.44
764.401	46.63
764.579	45.82
764.758	44.87
764.936	44.54
765.114	44.92
765.293	45.42
765.471	45.79
765.65	45.59
765.828	45.06
766.006	44.34
766.184	44.22
766.363	44.33
766.541	44.51
766.719	45.45
766.898	45.22
767.076	44.89
767.254	44.97
767.432	44.94
767.61	45.03
767.788	44.86
767.967	45.13
768.145	45.89
768.323	46.17
768.501	46.23
768.679	46.52
768.857	46.4
769.035	46.49
769.213	46.23
769.391	46.38
769.569	46.7
769.747	46.69
769.925	45.5
770.103	44.07
770.281	43.88
770.459	43.26
770.636	42.57
770.814	43.73
770.992	42.48
771.17	42.35
771.348	40.22
771.525	39.96
771.703	40.43
771.881	41.89
772.059	41.81
772.236	41.84
772.414	43.09
772.592	42.01
772.769	40.61
772.947	42.23
773.125	42.05
773.302	43.61
773.48	43.52
773.657	42.92
773.835	43.02
774.013	44.78
774.19	44.49
774.368	44.5
774.545	44.92
774.723	44.83
774.9	44.34
775.077	44.27
775.255	44.34
775.432	45.86
775.61	46.96
775.787	45.25
775.964	45.15
776.142	45.74
776.319	45.95
776.496	45.84
776.674	47.7
776.851	48.63
777.028	50.78
777.205	51.4
777.382	48.51
777.56	48.19
777.737	48.51
777.914	46.21
778.091	46.78
778.268	45.64
778.445	47.99
778.622	46.23
778.8	47.58
778.977	44.05
779.154	53.83
779.331	53.88
779.508	53.22
779.685	54.6
779.862	55.6
780.038	55.48
780.215	55.98
780.392	53.93
780.569	54.71
780.746	51.32
780.923	53.55
781.1	42.61
781.277	44.89
781.453	44.42
781.63	45.16
781.807	46.87
781.984	47.2
782.16	47.76
782.337	46.98
782.514	48.23
782.691	48.89
782.867	48.13
783.044	48.05
783.221	46.41
783.397	47.9
783.574	47.44
783.75	46.85
783.927	46.6
784.103	47.34
784.28	48.04
784.456	47.38
784.633	47.87
784.809	47.47
784.986	48.31
785.162	49.45
785.339	48.69
785.515	49.22
785.692	49.66
785.868	49
786.044	45.28
786.221	46.51
786.397	46.52
786.573	46.56
786.749	47.21
786.926	46
787.102	45.84
787.278	45.86
787.454	45.31
787.631	43.28
787.807	43.05
787.983	44.17
788.159	44.04
788.335	45.2
788.511	45.31
788.687	46.39
788.863	46.22
789.039	46.95
789.216	46.74
789.392	47.1
789.568	47.03
789.744	48.67
789.919	50.62
790.095	48.98
790.271	48.12
790.447	47.45
790.623	46.26
790.799	45.6
790.975	46.33
791.151	45.2
791.327	42.72
791.502	43.71
791.678	41.76
791.854	40.9
792.03	43.61
792.205	42.54
792.381	43.48
792.557	43.85
792.733	44.64
792.908	43.86
793.084	45.57
793.259	47.01
793.435	47.76
793.611	49.51
793.786	50.03
793.962	48.44
794.137	48.41
794.313	46.67
794.488	47.67
794.664	48.44
794.839	46.73
795.015	45.85
795.19	45.48
795.366	45
795.541	43.21
795.716	41.58
795.892	41.41
796.067	43.09
796.242	44.7
796.418	43.68
796.593	44.65
796.768	45.8
796.944	45.74
797.119	45.29
797.294	46.15
797.469	48
797.644	49.02
797.82	48.61
797.995	47.69
798.17	48.28
798.345	48.58
798.52	47.13
798.695	46.09
798.87	47.82
799.045	49.22
799.22	48.48
799.395	46.71
799.57	47.35
799.745	46.62
799.92	45.51
800.095	45.05
800.27	44.28
800.445	44.52
800.62	44.05
800.795	43.01
800.97	41.54
801.145	41.09
801.319	42.4
801.494	41.06
801.669	42.24
801.844	43.64
802.018	41.96
802.193	43.98
802.368	42.71
802.543	44.11
802.717	42.9
802.892	44.92
803.067	45.19
803.241	42.7
803.416	43.08
803.59	45.65
803.765	42.76
803.94	42.06
804.114	41.52
804.289	43.35
804.463	43.27
804.638	43.42
804.812	41.98
804.986	44.57
805.161	46.13
805.335	45.89
805.51	43.49
805.684	43.87
805.858	45.15
806.033	42.56
806.207	42.34
806.381	42.88
806.556	44.8
806.73	45.96
806.904	44.59
807.078	46.54
807.253	48.24
807.427	48.68
807.601	49.61
807.775	49.82
807.949	49.35
808.123	48.84
808.298	48.74
808.472	46.22
808.646	45.88
808.82	45.93
808.994	45.6
809.168	42.58
809.342	42.43
809.516	44.25
809.69	44.25
809.864	44.68
810.038	46.09
810.212	45.11
810.385	46.44
810.559	43.13
810.733	40.08
810.907	38.54
811.081	42.55
811.255	41.86
811.428	41.99
811.602	43.38
811.776	45.89
811.95	45.13
812.123	45.84
812.297	44.83
812.471	48.08
812.644	50.25
812.818	52.35
812.992	50.33
813.165	50.49
813.339	50.39
813.512	53.24
813.686	50.04
813.86	49.55
814.033	47.01
814.207	48.68
814.38	50.56
814.554	48.61
814.727	46.99
814.9	47.75
815.074	46.16
815.247	45.15
815.421	41.1
815.594	43
815.767	44.26
815.941	45.19
816.114	46.52
816.287	44.42
816.46	47.84
816.634	46.59
816.807	43.58
816.98	44.42
817.153	43.22
817.327	41.52
817.5	42.25
817.673	39.06
817.846	40.89
818.019	39.63
818.192	40.66
818.365	38.2
818.538	39
818.711	39.26
818.884	40.7
819.057	39.91
819.23	42.66
819.403	42.37
819.576	45.25
819.749	45.02
819.922	42.88
820.095	42.39
820.268	42.67
820.441	42.88
820.614	43.19
820.786	43.1
820.959	45.15
821.132	44.4
821.305	43.22
821.477	42.89
821.65	43.56
821.823	45.12
821.996	44.55
822.168	44.27
822.341	44.05
822.514	43.66
822.686	43.65
822.859	43.36
823.031	43.35
823.204	43.76
823.376	43.81
823.549	43.34
823.722	42.91
823.894	42.97
824.067	43.06
824.239	43.07
824.411	43.09
824.584	43.12
824.756	42.77
824.929	42.78
825.101	42.71
825.273	43.12
825.446	43
825.618	42.38
825.79	42.5
825.963	42.98
826.135	43.04
826.307	43.65
826.479	43.59
826.652	44.58
826.824	44.26
826.996	44.29
827.168	44.1
827.34	43.95
827.512	45.02
827.684	44.77
827.856	44.11
828.029	44.74
828.201	44.7
828.373	46
828.545	45.34
828.717	45.41
828.889	45.33
829.061	45.06
829.232	46.81
829.404	47.2
829.576	47.55
829.748	48.48
829.92	49.05
830.092	50.92
830.264	49.75
830.436	49.72
830.607	49.62
830.779	49.96
830.951	50.68
831.123	49.12
831.294	45.44
831.466	44.31
831.638	44.14
831.809	42.31
831.981	39.74
832.153	38
832.324	38.11
832.496	38.53
832.667	39.21
832.839	35.51
833.011	34.98
833.182	38.65
833.354	39.66
833.525	38.89
833.697	40.02
833.868	40.6
834.039	42.98
834.211	44.13
834.382	43.35
834.554	44.21
834.725	45.57
834.896	46.59
835.068	45.49
835.239	45.94
835.41	45.49
835.581	46.04
835.753	45.48
835.924	44.13
836.095	42.75
836.266	44.29
836.438	42.1
836.609	42.1
836.78	41.35
836.951	42.22
837.122	41.85
837.293	42.53
837.464	39.3
837.635	40.42
837.806	41.38
837.977	41.29
838.148	42.25
838.319	43.87
838.49	43.18
838.661	45.32
838.832	44.86
839.003	45.68
839.174	48.57
839.345	52.71
839.516	50.8
839.687	50.37
839.857	48.18
840.028	45.28
840.199	43.34
840.37	41.55
840.54	37.51
840.711	38.46
840.882	37.04
841.053	34.13
841.223	35.31
841.394	33.83
841.564	32.57
841.735	35.79
841.906	38.84
842.076	42.68
842.247	46.93
842.417	46.58
842.588	47.43
842.758	45.01
842.929	44.02
843.099	41.29
843.27	43.94
843.44	46.3
843.611	44.15
843.781	41.77
843.951	39.35
844.122	32
844.292	31.79
844.462	28.43
844.633	27.2
844.803	27.12
844.973	22.81
845.144	21.42
845.314	21.73
845.484	25.27
845.654	20.52
845.824	24.04
845.995	30
846.165	29.68
846.335	31.75
846.505	40.67
846.675	38.76
846.845	37.51
847.015	29.35
847.185	23.23
847.355	22.49
847.525	26.84
847.695	28.93
847.865	30.74
848.035	30.89
848.205	31.2
848.375	28.51
848.545	29.16
848.715	40.27
848.884	46.41
849.054	52.11
849.224	55.09
849.394	58.29
849.564	50.3
849.733	43.47
849.903	46.8
850.073	49.94
850.243	55.85
850.412	60.84
850.582	64.19
850.752	62.61
850.921	60.18
851.091	58.28
851.26	56.31
851.43	55.55
851.599	58.32
851.769	60.73
851.939	58.39
852.108	44
852.278	42.62
852.447	39.17
852.616	44.22
852.786	54.17
852.955	51.9
853.125	47.23
853.294	50.5
853.463	52.2
853.633	46.02
853.802	42.82
853.971	49.4
854.141	43.81
854.31	43.93
854.479	38.68
854.648	17.93
854.818	17.11
854.987	13.46
855.156	13.91
855.325	19.65
855.494	27.12
855.663	29.81
855.832	25.69
856.001	23.75
856.171	26.7
856.34	32.4
856.509	38.33
856.678	34.67
856.847	44.02
857.016	50.05
857.185	43.45
857.353	37.97
857.522	40.08
857.691	45.13
857.86	44.64
858.029	44.34
858.198	41.8
858.367	41.29
858.535	42.25
858.704	39.69
858.873	34.61
859.042	33.25
859.21	36.84
859.379	39.58
859.548	32.32
859.717	25.12
859.885	26.2
860.054	32.07
860.222	31.82
860.391	45.82
860.56	45.06
860.728	46.1
860.897	46.47
861.065	42.54
861.234	43.31
861.402	43.02
861.571	50.58
861.739	47.38
861.908	40.62
862.076	41.44
862.244	32.53
862.413	35.02
862.581	29.72
862.749	35.81
862.918	42.54
863.086	36.83
863.254	34.05
863.423	26.69
863.591	17.34
863.759	22.32
863.927	18.65
864.096	19.49
864.264	14.87
864.432	24.9
864.6	26.47
864.768	23.19
864.936	25.54
865.104	36.08
865.272	43.78
865.44	59.11
865.608	46.86
865.776	47.18
865.944	43.67
866.112	46.32
866.28	50.63
866.448	46.83
866.616	47.7
866.784	36.2
866.952	37.92
867.12	29.34
867.288	30.43
867.455	41.55
867.623	31.85
867.791	38.92
867.959	26.62
868.127	25.34
868.294	33.97
868.462	31.04
868.63	43.27
868.797	43.17
868.965	61.5
869.133	61.94
869.3	63.18
869.468	68.13
869.636	66.99
869.803	67.79
869.971	73.18
870.138	62.7
870.306	66.63
870.473	66.36
870.641	59.75
870.808	50.58
870.975	46.56
871.143	41.85
871.31	48.44
871.478	47.24
871.645	61.2
871.812	67.52
871.98	70.65
872.147	73.46
872.314	76.31
872.482	69.62
872.649	73.75
872.816	70.24
872.983	69.25
873.15	61.19
873.318	56.34
873.485	56.54
873.652	51.31
873.819	50.04
873.986	39.41
874.153	37.5
874.32	39.66
874.487	30.23
874.654	27.35
874.821	32.59
874.988	33.52
875.155	39.53
875.322	41.37
875.489	25.21
875.656	23.17
875.823	25.85
875.99	31.43
876.157	39.49
876.324	45.11
876.49	47.51
876.657	47.21
876.824	49.25
876.991	46.24
877.157	44.71
877.324	54.78
877.491	50.89
877.658	55.31
877.824	59.63
877.991	51.4
878.157	51.84
878.324	57.21
878.491	51.96
878.657	51.31
878.824	48.18
878.99	50.62
879.157	42.02
879.323	45.68
879.49	51.88
879.656	48.54
879.823	54.28
879.989	51.26
880.156	41.73
880.322	42.42
880.488	45.41
880.655	42.44
880.821	40.1
880.987	36.73
881.154	34.68
881.32	37.7
881.486	38.59
881.652	36.89
881.819	38.39
881.985	38.84
882.151	40.97
882.317	40.99
882.483	43.67
882.649	43.37
882.816	42.17
882.982	43.95
883.148	41.11
883.314	41.12
883.48	42.09
883.646	41.71
883.812	42.1
883.978	42
884.144	42.07
884.31	42.26
884.476	42.03
884.642	43.49
884.807	41.52
884.973	42.1
885.139	42.41
885.305	42.02
885.471	42.57
885.637	42.51
885.802	41.3
885.968	41.89
886.134	41.59
886.3	41.31
886.465	42.01
886.631	43.67
886.797	45.04
886.962	46.79
887.128	47.39
887.293	47.18
887.459	51.51
887.625	56.22
887.79	55.08
887.956	54.17
888.121	56.59
888.287	57.42
888.452	61.91
888.618	58.64
888.783	51.39
