Data from LC_276_Reflection_2.txt Node
Date: Sat Nov 21 12:26:11 EST 2015
User: robert
Spectrometer: USB4E03001
Autoset integration time: false
Trigger mode: 4
Integration Time (sec): 1.000000E-1
Scans to average: 15
Electric dark correction enabled: true
Nonlinearity correction enabled: false
Boxcar width: 5
Stray light correction enabled: false
XAxis mode: Wavelengths
Stop averaging: false
Number of Pixels in Spectrum: 3648
>>>>>Begin Spectral Data<<<<<
177.566	-303.25
177.785	-222.83
178.005	-621.3
178.225	209.19
178.445	425.77
178.665	-192.94
178.885	443.81
179.105	320.45
179.324	141.17
179.544	244.25
179.764	939.58
179.984	148.5
180.204	123.12
180.423	105.55
180.643	96.39
180.863	131.08
181.083	119.08
181.302	141.19
181.522	129.08
181.742	145.14
181.961	143.59
182.181	125.98
182.401	257.37
182.621	253.89
182.84	282.22
183.06	251.11
183.279	217.68
183.499	208.57
183.719	204.7
183.938	201.67
184.158	216.62
184.377	222.59
184.597	258.38
184.816	234.14
185.036	243.98
185.256	218.4
185.475	196.48
185.695	184.26
185.914	171.39
186.134	164.17
186.353	166.64
186.572	160.73
186.792	132.08
187.011	113.58
187.231	105.87
187.45	97.19
187.67	130.53
187.889	139.08
188.108	189.51
188.328	225.34
188.547	264.24
188.766	314.99
188.986	373.68
189.205	698.7
189.424	1559.29
189.644	1085.3
189.863	-799.74
190.082	-1417.24
190.302	2543.24
190.521	375.83
190.74	370.08
190.959	416.31
191.178	404.83
191.398	207.08
191.617	228.46
191.836	211.32
192.055	209.49
192.274	132.16
192.494	128.18
192.713	118.85
192.932	141.67
193.151	110.18
193.37	112.06
193.589	96.4
193.808	138.68
194.027	135.39
194.246	132.49
194.465	135.14
194.685	162.14
194.904	146.06
195.123	159.31
195.342	185.92
195.561	228.16
195.78	160.86
195.999	167.54
196.218	137.61
196.436	149.88
196.655	200.08
196.874	164.94
197.093	170.58
197.312	218.02
197.531	206.4
197.75	134.67
197.969	108.75
198.188	142.82
198.407	162.83
198.625	164.18
198.844	160.14
199.063	142.95
199.282	155.77
199.501	148.11
199.719	134.88
199.938	145.85
200.157	164.92
200.376	211.23
200.594	221.6
200.813	193.59
201.032	218.33
201.251	185.74
201.469	218.28
201.688	312.11
201.907	317.42
202.125	240.63
202.344	243.59
202.563	316.08
202.781	321.95
203	340.25
203.218	303.58
203.437	545.66
203.656	1015.49
203.874	981.47
204.093	399.26
204.311	335.33
204.53	432.25
204.748	314.72
204.967	330.33
205.185	215.9
205.404	215.5
205.622	525.44
205.841	350.82
206.059	294.8
206.278	310.37
206.496	345.28
206.715	676.82
206.933	457.42
207.151	463.46
207.37	329.68
207.588	480.57
207.806	408.21
208.025	244.86
208.243	211.92
208.461	208.33
208.68	206.48
208.898	290.58
209.116	215.23
209.335	238.94
209.553	266.96
209.771	307.3
209.989	290.13
210.208	347.53
210.426	432.87
210.644	451.8
210.862	636.63
211.081	518.06
211.299	215.69
211.517	267.88
211.735	236.22
211.953	199.72
212.171	194.37
212.39	192.77
212.608	153.75
212.826	146.96
213.044	152.01
213.262	158.46
213.48	165.62
213.698	171.2
213.916	184.1
214.134	170.57
214.352	174.85
214.57	159.05
214.788	168.32
215.006	175.01
215.224	185.78
215.442	201.93
215.66	202.12
215.878	183.74
216.096	248.73
216.314	240.99
216.532	254.24
216.75	237.82
216.968	276.65
217.185	218.42
217.403	257.31
217.621	252.94
217.839	228.46
218.057	241.13
218.275	238.24
218.492	180.36
218.71	173.96
218.928	192.48
219.146	188.85
219.363	187.25
219.581	389.73
219.799	291.45
220.017	217.37
220.234	246.01
220.452	223.6
220.67	209.51
220.887	263.01
221.105	229.19
221.323	265.68
221.54	272.4
221.758	204.65
221.976	155.54
222.193	172.94
222.411	176.64
222.629	134.76
222.846	145.4
223.064	136.93
223.281	116.11
223.499	111.43
223.716	103.95
223.934	100.69
224.151	121.11
224.369	115.63
224.586	94.69
224.804	89.82
225.021	101.28
225.239	93.99
225.456	100.09
225.674	91.55
225.891	88.51
226.108	82.14
226.326	80.11
226.543	74.16
226.76	70.53
226.978	68.85
227.195	61.95
227.413	52.08
227.63	45.96
227.847	40.81
228.064	37.81
228.282	32.72
228.499	29.97
228.716	27.9
228.934	23.53
229.151	23.48
229.368	23.4
229.585	25.15
229.802	29.34
230.02	28.49
230.237	27.58
230.454	29.77
230.671	33.23
230.888	33.76
231.105	34.35
231.323	38.4
231.54	41.47
231.757	41.58
231.974	40.46
232.191	35.87
232.408	39.34
232.625	39.6
232.842	38.08
233.059	37.89
233.276	41.84
233.493	43.44
233.71	43.99
233.927	40.92
234.144	41.77
234.361	44.07
234.578	47.09
234.795	48.43
235.012	50.32
235.229	51.59
235.446	49.76
235.663	45.42
235.879	46.05
236.096	47.6
236.313	51.95
236.53	50.82
236.747	55
236.964	51.24
237.181	49.8
237.397	46.6
237.614	44.29
237.831	41.99
238.048	41.54
238.264	35.39
238.481	29.94
238.698	28.86
238.915	30.28
239.131	23.29
239.348	26.24
239.565	28.95
239.781	31.6
239.998	29.9
240.215	29.81
240.431	25.82
240.648	28.54
240.865	28.77
241.081	24.54
241.298	22.09
241.514	22.68
241.731	22.37
241.947	21.37
242.164	20.3
242.38	19.7
242.597	20.64
242.814	22.11
243.03	21.99
243.246	22.96
243.463	24.59
243.679	26.42
243.896	26.59
244.112	26.83
244.329	27.34
244.545	26.77
244.762	28.71
244.978	27.94
245.194	27.22
245.411	26
245.627	23.52
245.843	20.53
246.06	18.66
246.276	17.64
246.492	16.83
246.709	15.35
246.925	15.17
247.141	15.46
247.357	14.91
247.574	14.15
247.79	13.39
248.006	14.11
248.222	14.24
248.439	14.35
248.655	14.33
248.871	14.67
249.087	14.92
249.303	15.07
249.519	13.68
249.736	15.3
249.952	16.84
250.168	19.61
250.384	18.58
250.6	20.61
250.816	20.06
251.032	21.89
251.248	21.3
251.464	21.81
251.68	22.06
251.896	23
252.112	22.4
252.328	20.94
252.544	21.46
252.76	21.33
252.976	20.77
253.192	20.49
253.408	19.48
253.624	21.95
253.84	22.72
254.056	21.95
254.272	21.05
254.487	20.91
254.703	22.21
254.919	21.47
255.135	22.87
255.351	22.38
255.567	22.91
255.782	20.65
255.998	19.18
256.214	18.26
256.43	20.5
256.646	21.47
256.861	18.74
257.077	20.62
257.293	20.57
257.508	20.92
257.724	20.99
257.94	21.72
258.155	21.67
258.371	19.99
258.587	18.89
258.802	17.94
259.018	16.51
259.234	16.77
259.449	15.23
259.665	14.03
259.88	13.13
260.096	13.23
260.312	12.94
260.527	13.23
260.743	12.67
260.958	12.63
261.174	11.86
261.389	12.66
261.605	12.81
261.82	12.98
262.036	13.49
262.251	13.85
262.466	13.8
262.682	13.51
262.897	12.45
263.113	13.88
263.328	14.7
263.543	16.8
263.759	16.39
263.974	17.2
264.189	19.58
264.405	20.95
264.62	22.17
264.835	23.81
265.051	24.27
265.266	24.68
265.481	22.89
265.696	22.36
265.912	21.01
266.127	20.76
266.342	18.84
266.557	16.25
266.773	14.81
266.988	14.78
267.203	13.1
267.418	12.72
267.633	13.16
267.848	14.28
268.064	14.41
268.279	15.46
268.494	15.33
268.709	15.64
268.924	15.63
269.139	15.93
269.354	15.06
269.569	15.21
269.784	14.18
269.999	14.13
270.214	13.88
270.429	14.56
270.644	13.11
270.859	13.76
271.074	12.28
271.289	12.3
271.504	11.73
271.719	10.74
271.934	11.65
272.149	12.62
272.363	13.08
272.578	12.22
272.793	10.99
273.008	11.72
273.223	11.56
273.438	13.4
273.653	15.13
273.867	16.48
274.082	17.87
274.297	17.09
274.512	17.19
274.726	16.71
274.941	17.92
275.156	19.33
275.371	18.58
275.585	18.58
275.8	18.08
276.015	16.84
276.229	16.12
276.444	16.31
276.659	16.48
276.873	17.12
277.088	17.25
277.302	16.77
277.517	16.3
277.732	17.68
277.946	16.66
278.161	17.49
278.375	17.17
278.59	17.43
278.804	15.78
279.019	15.55
279.233	14.1
279.448	13.17
279.662	13.03
279.877	12.12
280.091	11.7
280.306	12.03
280.52	11.55
280.735	12.82
280.949	11.01
281.163	12.18
281.378	12.38
281.592	12.78
281.806	13.42
282.021	13.78
282.235	14.25
282.449	14.23
282.664	14.09
282.878	13.72
283.092	13.21
283.307	13.85
283.521	13.65
283.735	13.97
283.949	14.02
284.164	13.14
284.378	13.04
284.592	12.11
284.806	12.74
285.02	12.77
285.234	12.47
285.449	11.53
285.663	12.23
285.877	11.87
286.091	11.62
286.305	11.75
286.519	12.68
286.733	12.12
286.947	12.85
287.161	12.34
287.375	12.13
287.589	12.76
287.803	13.65
288.017	13.69
288.231	13.73
288.445	13.47
288.659	13.21
288.873	12.96
289.087	13.57
289.301	13.9
289.515	14.13
289.729	15.42
289.943	15.11
290.157	15.33
290.371	16.27
290.584	17.17
290.798	17.47
291.012	17.51
291.226	17.19
291.44	16.9
291.654	17.07
291.867	17.09
292.081	17.27
292.295	18.13
292.509	18.8
292.722	18.18
292.936	17.58
293.15	17.81
293.364	18.01
293.577	18.41
293.791	18.72
294.005	18.2
294.218	17.85
294.432	17.06
294.645	17.68
294.859	16.65
295.073	15.16
295.286	15.42
295.5	15.75
295.713	15.95
295.927	15.72
296.14	16.25
296.354	15.88
296.568	16.08
296.781	16.56
296.994	16.43
297.208	15.91
297.421	17.18
297.635	16.97
297.848	15.97
298.062	15.41
298.275	16
298.489	15.67
298.702	16.05
298.915	15.4
299.129	14.75
299.342	13.58
299.555	14
299.769	13.57
299.982	13.9
300.195	14.2
300.409	14.65
300.622	14.44
300.835	14.6
301.048	15.11
301.262	15.36
301.475	15.99
301.688	15.54
301.901	16.2
302.115	15.85
302.328	16.2
302.541	16.75
302.754	17.37
302.967	17.27
303.18	17.58
303.393	17.6
303.607	17.99
303.82	17.3
304.033	18.21
304.246	18.37
304.459	18.83
304.672	18.94
304.885	19.81
305.098	20.28
305.311	20.84
305.524	20.34
305.737	20
305.95	19.34
306.163	19.94
306.376	19.24
306.589	18.6
306.802	18.42
307.015	17.57
307.228	17.06
307.44	16.12
307.653	16.46
307.866	17.05
308.079	16.72
308.292	17.16
308.505	16.94
308.718	18.33
308.93	18.58
309.143	17.65
309.356	17.65
309.569	16.81
309.781	17.7
309.994	16.45
310.207	15.8
310.42	16.13
310.632	16.44
310.845	16.47
311.058	16.11
311.27	16.16
311.483	16.9
311.696	16.69
311.908	17.39
312.121	17.38
312.333	18.4
312.546	19
312.759	18.97
312.971	20.21
313.184	20.84
313.396	20.7
313.609	20.09
313.821	20.33
314.034	21.07
314.246	20.91
314.459	20.01
314.671	19.11
314.884	19.01
315.096	20.19
315.309	18.7
315.521	18.16
315.733	18.88
315.946	20.03
316.158	19.31
316.371	19.72
316.583	20.19
316.795	20.8
317.008	21.02
317.22	20.89
317.432	20.46
317.644	21.15
317.857	20.97
318.069	20.19
318.281	20.45
318.494	21.53
318.706	20.86
318.918	21.06
319.13	20.99
319.342	21.79
319.555	22.18
319.767	21.96
319.979	20.95
320.191	21.23
320.403	22.24
320.615	21.37
320.827	21.29
321.039	21.57
321.252	21.15
321.464	20.84
321.676	18.7
321.888	19.36
322.1	19.57
322.312	20.18
322.524	20.05
322.736	20.34
322.948	21.91
323.16	22.49
323.372	23.3
323.584	24.01
323.796	24.16
324.007	25.48
324.219	24.51
324.431	24.42
324.643	25.23
324.855	25.54
325.067	25.98
325.279	25.47
325.491	25.62
325.702	24.67
325.914	24.71
326.126	24.77
326.338	25.32
326.55	25.99
326.761	26.68
326.973	27.12
327.185	28.6
327.396	28.54
327.608	28.67
327.82	29.41
328.032	30.56
328.243	30.44
328.455	30.97
328.666	31.52
328.878	33.07
329.09	33.66
329.301	35.08
329.513	34.44
329.725	35.02
329.936	36.62
330.148	36.99
330.359	38.43
330.571	39.45
330.782	40.91
330.994	41.05
331.205	40.8
331.417	40.47
331.628	40.34
331.84	41.08
332.051	40.94
332.262	40.62
332.474	40.96
332.685	40.86
332.897	41.01
333.108	40.08
333.319	40.76
333.531	41.14
333.742	42.21
333.953	41.49
334.165	41.81
334.376	42.51
334.587	43.81
334.799	44.1
335.01	44.71
335.221	45.42
335.432	46.67
335.644	47.52
335.855	48.73
336.066	49.24
336.277	49.85
336.488	50.03
336.7	49.33
336.911	48.85
337.122	48.51
337.333	48.35
337.544	48.51
337.755	48.35
337.966	47.63
338.177	47.25
338.388	46.64
338.599	47.5
338.811	47.63
339.022	48.33
339.233	47.57
339.444	47.67
339.655	47.85
339.866	48.15
340.076	48.65
340.287	49.27
340.498	49.02
340.709	48.91
340.92	48.12
341.131	48.41
341.342	48.58
341.553	48.93
341.764	49.31
341.975	48.9
342.185	47.58
342.396	47.13
342.607	46.78
342.818	46.85
343.029	47.22
343.239	47.51
343.45	46.21
343.661	46.31
343.872	45.92
344.082	46.16
344.293	45.98
344.504	46.88
344.714	46.68
344.925	46.71
345.136	46.69
345.346	46.29
345.557	46.04
345.768	46.15
345.978	45.64
346.189	45.89
346.399	44.71
346.61	45.24
346.821	45
347.031	44.78
347.242	45.39
347.452	45.66
347.663	46.58
347.873	46.99
348.084	47.49
348.294	47.84
348.504	47.47
348.715	47.58
348.925	47.08
349.136	46.8
349.346	47.55
349.557	46.64
349.767	46.43
349.977	45.89
350.188	45.02
350.398	44.9
350.608	44.79
350.819	45.52
351.029	45.78
351.239	46.01
351.449	46.87
351.66	46.97
351.87	46.86
352.08	46.67
352.29	46.39
352.501	45.99
352.711	45.83
352.921	45.48
353.131	45.56
353.341	45.39
353.552	44.87
353.762	43.89
353.972	43.23
354.182	43.59
354.392	43.51
354.602	43.26
354.812	44.08
355.022	44.11
355.232	44.23
355.442	43.69
355.652	43.54
355.862	43.9
356.072	44.41
356.282	44.91
356.492	44.4
356.702	44.1
356.912	44.01
357.122	44.15
357.332	43.88
357.542	43.48
357.752	43.76
357.962	43.79
358.171	43.39
358.381	43.26
358.591	43.27
358.801	44.2
359.011	44.45
359.221	44.3
359.43	44.25
359.64	44.33
359.85	44.81
360.06	44.32
360.269	44.48
360.479	43.91
360.689	43.37
360.899	43.03
361.108	41.91
361.318	41.58
361.528	41.67
361.737	41.31
361.947	41.44
362.156	41.14
362.366	41.3
362.576	40.77
362.785	40.92
362.995	40.87
363.204	40.6
363.414	40.8
363.623	41.62
363.833	41.15
364.042	41.1
364.252	40.84
364.461	40.82
364.671	40.68
364.88	40.91
365.09	41.6
365.299	41.95
365.509	41.61
365.718	41.7
365.927	41.08
366.137	41
366.346	41.07
366.555	40.92
366.765	40.92
366.974	40.92
367.183	40.84
367.393	40.93
367.602	41.29
367.811	42.19
368.021	42.12
368.23	41.53
368.439	42.12
368.648	41.73
368.857	41.96
369.067	41.51
369.276	41.35
369.485	41.12
369.694	40.15
369.903	39.33
370.112	38.39
370.321	38.07
370.531	37.54
370.74	37.17
370.949	37.55
371.158	37.07
371.367	37.18
371.576	36.88
371.785	36.88
371.994	37.37
372.203	37.26
372.412	37.03
372.621	37.14
372.83	37.28
373.039	36.93
373.248	36.28
373.457	36.5
373.666	36
373.874	35.52
374.083	35.4
374.292	34.97
374.501	34.93
374.71	35.19
374.919	34.98
375.128	35.11
375.336	34.91
375.545	34.73
375.754	34.71
375.963	34.8
376.171	35
376.38	34.41
376.589	33.95
376.798	33.66
377.006	33.36
377.215	33.35
377.424	33.19
377.632	33.44
377.841	33.46
378.05	33.3
378.258	33.34
378.467	33.48
378.675	33.78
378.884	33.84
379.093	33.94
379.301	34.28
379.51	34.2
379.718	34.65
379.927	34.55
380.135	34.32
380.344	34.47
380.552	33.78
380.761	33.37
380.969	33.48
381.177	33.66
381.386	33.57
381.594	33.07
381.803	32.5
382.011	32.25
382.219	31.88
382.428	31.86
382.636	31.28
382.845	31.68
383.053	31.49
383.261	31.17
383.469	30.67
383.678	30.66
383.886	30.62
384.094	30.57
384.302	29.91
384.511	30.11
384.719	29.64
384.927	29.61
385.135	29.58
385.343	29.69
385.552	29.67
385.76	29.88
385.968	29.55
386.176	29.21
386.384	29.17
386.592	28.94
386.8	28.74
387.008	29.18
387.216	29.18
387.424	29.1
387.633	28.76
387.841	28.34
388.049	27.78
388.257	27.8
388.465	27.73
388.672	27.74
388.88	27.76
389.088	27.64
389.296	27.25
389.504	27.09
389.712	27.11
389.92	27.29
390.128	27.47
390.336	27.58
390.544	27.45
390.751	27.3
390.959	27.03
391.167	27.06
391.375	26.84
391.583	26.58
391.79	26.52
391.998	26.34
392.206	26.34
392.414	25.86
392.621	25.95
392.829	25.68
393.037	25.94
393.244	25.89
393.452	25.59
393.66	25.63
393.867	25.97
394.075	26.03
394.283	25.62
394.49	25.3
394.698	25.75
394.905	25.52
395.113	25.76
395.32	25.4
395.528	25.41
395.735	25.63
395.943	25.5
396.15	25.38
396.358	24.98
396.565	24.96
396.773	24.91
396.98	24.93
397.188	24.97
397.395	24.55
397.602	24.6
397.81	24.81
398.017	24.52
398.225	24.46
398.432	24.4
398.639	24.55
398.847	24.82
399.054	24.77
399.261	24.72
399.468	24.73
399.676	25.01
399.883	25.26
400.09	25.08
400.297	25.42
400.505	25.21
400.712	25.21
400.919	25.01
401.126	25
401.333	24.92
401.54	24.74
401.748	24.57
401.955	24.37
402.162	24.34
402.369	24.44
402.576	23.85
402.783	24.13
402.99	23.87
403.197	23.86
403.404	23.96
403.611	23.99
403.818	23.89
404.025	23.89
404.232	24.12
404.439	23.83
404.646	23.64
404.853	24.07
405.06	24.05
405.267	24.17
405.474	24.34
405.681	24.17
405.887	24.14
406.094	24.37
406.301	24.4
406.508	24.05
406.715	24.2
406.922	24.05
407.128	23.96
407.335	23.61
407.542	23.72
407.749	23.63
407.955	23.71
408.162	23.62
408.369	23.78
408.575	23.93
408.782	24
408.989	23.88
409.195	23.96
409.402	24.02
409.609	24.38
409.815	23.91
410.022	23.92
410.228	23.94
410.435	24.19
410.642	23.76
410.848	23.8
411.055	23.88
411.261	23.78
411.468	23.65
411.674	23.49
411.881	23.22
412.087	23.46
412.294	23.52
412.5	23.19
412.706	23.01
412.913	23.01
413.119	23.03
413.326	23.02
413.532	22.98
413.738	23.38
413.945	23.41
414.151	23.52
414.357	23.52
414.564	23.67
414.77	24.15
414.976	24.01
415.182	24.11
415.389	23.8
415.595	23.71
415.801	23.75
416.007	23.63
416.214	23.72
416.42	23.73
416.626	23.83
416.832	23.5
417.038	23.4
417.244	23.46
417.45	23.36
417.657	23.55
417.863	23.71
418.069	23.81
418.275	23.69
418.481	23.5
418.687	23.5
418.893	23.35
419.099	23.38
419.305	23.14
419.511	23.23
419.717	23.19
419.923	23.03
420.129	23.06
420.335	22.88
420.541	22.74
420.746	22.77
420.952	22.77
421.158	22.75
421.364	22.85
421.57	22.9
421.776	22.9
421.982	22.88
422.187	22.93
422.393	22.86
422.599	22.82
422.805	22.95
423.01	22.94
423.216	22.95
423.422	22.92
423.628	22.96
423.833	22.91
424.039	22.87
424.245	22.82
424.45	22.92
424.656	22.9
424.862	22.91
425.067	22.83
425.273	22.94
425.478	22.88
425.684	22.92
425.889	22.82
426.095	22.93
426.301	22.8
426.506	22.84
426.712	22.57
426.917	22.41
427.123	22.48
427.328	22.68
427.533	22.65
427.739	22.63
427.944	22.71
428.15	22.54
428.355	22.54
428.561	22.76
428.766	22.85
428.971	22.84
429.177	23.04
429.382	23.02
429.587	22.79
429.793	22.84
429.998	22.96
430.203	22.76
430.408	23.08
430.614	22.89
430.819	22.72
431.024	22.49
431.229	22.63
431.434	22.6
431.64	22.57
431.845	22.74
432.05	22.6
432.255	22.43
432.46	22.42
432.665	22.24
432.87	22.39
433.076	22.41
433.281	22.55
433.486	22.53
433.691	22.44
433.896	22.41
434.101	22.21
434.306	22.03
434.511	22
434.716	22.03
434.921	22.01
435.126	21.82
435.331	21.88
435.535	21.72
435.74	21.79
435.945	21.71
436.15	21.72
436.355	21.97
436.56	22.26
436.765	22.45
436.97	22.47
437.174	22.8
437.379	23.02
437.584	23.04
437.789	23.14
437.993	23.1
438.198	23.09
438.403	23.12
438.608	23.06
438.812	22.84
439.017	22.76
439.222	22.84
439.426	22.58
439.631	22.49
439.836	22.41
440.04	22.5
440.245	22.41
440.45	22.45
440.654	22.45
440.859	22.43
441.063	22.42
441.268	22.35
441.472	22.34
441.677	22.45
441.881	22.56
442.086	22.55
442.29	22.58
442.495	22.55
442.699	22.6
442.904	22.57
443.108	22.55
443.312	22.62
443.517	22.81
443.721	22.83
443.925	22.57
444.13	22.33
444.334	22.41
444.538	22.27
444.743	22.32
444.947	22.12
445.151	22.11
445.356	22
445.56	21.98
445.764	21.73
445.968	21.6
446.173	21.62
446.377	21.7
446.581	21.66
446.785	21.66
446.989	21.64
447.193	21.74
447.398	21.92
447.602	21.85
447.806	21.82
448.01	21.83
448.214	21.85
448.418	21.77
448.622	21.64
448.826	21.68
449.03	21.61
449.234	21.61
449.438	21.52
449.642	21.18
449.846	21.37
450.05	21.47
450.254	21.51
450.458	21.27
450.662	21.48
450.866	21.51
451.069	21.36
451.273	21.32
451.477	21.24
451.681	21.22
451.885	21.27
452.089	21.1
452.292	21.1
452.496	21.21
452.7	21.32
452.904	21.24
453.107	21.21
453.311	21.09
453.515	21.15
453.719	21.21
453.922	21.34
454.126	21.32
454.33	21.51
454.533	21.35
454.737	21.3
454.94	21.47
455.144	21.67
455.348	21.75
455.551	21.94
455.755	21.9
455.958	22.06
456.162	22.21
456.365	22.27
456.569	22.15
456.772	22.12
456.976	21.95
457.179	21.94
457.383	21.68
457.586	21.64
457.79	21.54
457.993	21.5
458.196	21.47
458.4	21.37
458.603	21.33
458.807	21.29
459.01	21.33
459.213	21.47
459.417	21.51
459.62	21.49
459.823	21.47
460.026	21.55
460.23	21.59
460.433	21.44
460.636	21.43
460.839	21.47
461.042	21.56
461.246	21.56
461.449	21.7
461.652	21.58
461.855	21.6
462.058	21.87
462.261	21.84
462.464	22.02
462.668	22.05
462.871	22.07
463.074	22.12
463.277	22.2
463.48	22.28
463.683	22.36
463.886	22.32
464.089	22.55
464.292	22.47
464.495	22.45
464.698	22.41
464.901	22.55
465.104	22.71
465.306	22.98
465.509	22.97
465.712	23.07
465.915	22.97
466.118	23.15
466.321	23.23
466.524	23.2
466.726	23.4
466.929	23.48
467.132	23.57
467.335	23.48
467.538	23.29
467.74	23.39
467.943	23.37
468.146	23.34
468.348	23.56
468.551	23.56
468.754	23.7
468.956	23.7
469.159	23.72
469.362	23.83
469.564	23.88
469.767	24.2
469.969	24.25
470.172	24.34
470.375	24.45
470.577	24.61
470.78	24.58
470.982	24.47
471.185	24.36
471.387	24.4
471.59	24.35
471.792	24.59
471.995	24.5
472.197	24.51
472.399	24.61
472.602	24.58
472.804	24.34
473.007	24.35
473.209	24.3
473.411	24.61
473.614	24.64
473.816	24.78
474.018	24.48
474.22	24.45
474.423	24.4
474.625	24.26
474.827	24.42
475.03	24.57
475.232	24.62
475.434	24.76
475.636	24.59
475.838	24.69
476.04	24.37
476.243	24.51
476.445	24.37
476.647	24.37
476.849	24.38
477.051	24.2
477.253	24.28
477.455	24.22
477.657	24.11
477.859	24.04
478.061	23.88
478.263	24.04
478.465	24
478.667	23.94
478.869	23.98
479.071	24.02
479.273	24.15
479.475	23.9
479.677	23.86
479.879	24
480.081	23.99
480.283	24.11
480.485	24.18
480.686	24.26
480.888	24.4
481.09	24.4
481.292	24.5
481.494	24.41
481.695	24.49
481.897	24.58
482.099	24.58
482.301	24.55
482.502	24.62
482.704	24.6
482.906	24.56
483.107	24.48
483.309	24.47
483.511	24.3
483.712	24.26
483.914	24.28
484.115	24.24
484.317	24.22
484.519	24.29
484.72	24.16
484.922	24.15
485.123	24.1
485.325	24.17
485.526	24.15
485.728	24.21
485.929	24.31
486.131	24.22
486.332	24.26
486.534	24.22
486.735	24.17
486.936	24.28
487.138	24.24
487.339	24.33
487.541	24.3
487.742	24.32
487.943	24.4
488.144	24.41
488.346	24.51
488.547	24.57
488.748	24.7
488.95	24.68
489.151	24.73
489.352	24.85
489.553	24.89
489.755	24.97
489.956	25.07
490.157	25.14
490.358	25.23
490.559	25.39
490.76	25.41
490.961	25.43
491.163	25.61
491.364	25.72
491.565	25.86
491.766	25.97
491.967	26.08
492.168	26.1
492.369	26.26
492.57	26.39
492.771	26.4
492.972	26.52
493.173	26.65
493.374	26.83
493.575	26.86
493.776	26.87
493.976	27.01
494.177	27.15
494.378	27.31
494.579	27.47
494.78	27.55
494.981	27.76
495.182	27.96
495.382	28.17
495.583	28.23
495.784	28.52
495.985	28.85
496.185	28.88
496.386	28.94
496.587	29.21
496.788	29.17
496.988	29.12
497.189	29.34
497.39	29.47
497.59	29.61
497.791	29.8
497.992	29.91
498.192	29.97
498.393	30.22
498.593	30.45
498.794	30.59
498.994	30.84
499.195	31.16
499.395	31.17
499.596	31.41
499.796	31.48
499.997	31.75
500.197	31.87
500.398	32.03
500.598	32.2
500.799	32.37
500.999	32.68
501.199	32.76
501.4	33.05
501.6	33.5
501.801	33.52
502.001	33.74
502.201	33.88
502.402	34.2
502.602	34.44
502.802	34.57
503.002	34.81
503.203	34.91
503.403	35.24
503.603	35.4
503.803	35.35
504.003	35.81
504.204	36.06
504.404	36.31
504.604	36.43
504.804	36.78
505.004	37.03
505.204	37.21
505.404	37.38
505.604	37.6
505.804	37.72
506.005	38.07
506.205	38.23
506.405	38.41
506.605	38.55
506.805	38.97
507.005	38.96
507.204	39.22
507.404	39.4
507.604	39.74
507.804	39.93
508.004	40.21
508.204	40.43
508.404	40.48
508.604	40.7
508.804	40.94
509.003	41.03
509.203	41.32
509.403	41.45
509.603	41.74
509.803	41.83
510.002	42.01
510.202	42.25
510.402	42.46
510.602	42.56
510.801	42.77
511.001	42.91
511.201	43.07
511.4	43.22
511.6	43.46
511.8	43.73
511.999	43.99
512.199	44.13
512.398	44.27
512.598	44.46
512.797	44.84
512.997	44.85
513.197	45.01
513.396	45.23
513.596	45.4
513.795	45.65
513.994	45.79
514.194	45.97
514.393	46.19
514.593	46.47
514.792	46.57
514.992	46.77
515.191	47.22
515.39	47.49
515.59	47.67
515.789	47.99
515.988	48.14
516.188	48.42
516.387	48.68
516.586	49
516.786	49.25
516.985	49.49
517.184	49.69
517.383	49.79
517.582	50.02
517.782	50.29
517.981	50.38
518.18	50.57
518.379	50.75
518.578	50.71
518.777	50.87
518.976	51.04
519.176	51.2
519.375	51.21
519.574	51.38
519.773	51.5
519.972	51.49
520.171	51.79
520.37	51.94
520.569	51.95
520.768	52.26
520.967	52.32
521.166	52.3
521.365	52.44
521.564	52.75
521.762	52.88
521.961	52.97
522.16	53.19
522.359	53.18
522.558	53.38
522.757	53.38
522.956	53.46
523.154	53.59
523.353	53.74
523.552	53.9
523.751	54.11
523.949	54.39
524.148	54.52
524.347	54.74
524.546	55.01
524.744	54.98
524.943	55.18
525.142	55.29
525.34	55.47
525.539	55.62
525.737	55.72
525.936	55.79
526.135	55.78
526.333	55.91
526.532	56.1
526.73	56.12
526.929	56.26
527.127	56.51
527.326	56.61
527.524	56.58
527.723	56.65
527.921	56.67
528.12	56.76
528.318	56.74
528.516	56.73
528.715	56.71
528.913	56.73
529.112	56.83
529.31	56.73
529.508	56.81
529.707	56.94
529.905	56.98
530.103	57.07
530.301	57.13
530.5	57.26
530.698	57.43
530.896	57.57
531.094	57.68
531.293	57.61
531.491	57.8
531.689	57.83
531.887	57.94
532.085	58.04
532.283	58.13
532.481	58.07
532.68	58.25
532.878	58.27
533.076	58.14
533.274	58.24
533.472	58.38
533.67	58.39
533.868	58.44
534.066	58.41
534.264	58.47
534.462	58.51
534.66	58.69
534.858	58.64
535.056	58.65
535.253	58.93
535.451	58.98
535.649	59.01
535.847	59.15
536.045	59.2
536.243	59.27
536.441	59.28
536.638	59.28
536.836	59.22
537.034	59.15
537.232	59.24
537.43	59.18
537.627	59.22
537.825	59.25
538.023	59.27
538.22	59.35
538.418	59.38
538.616	59.43
538.813	59.48
539.011	59.58
539.209	59.7
539.406	59.79
539.604	59.91
539.801	59.95
539.999	60.1
540.196	60.05
540.394	60.11
540.591	60.12
540.789	60.13
540.986	60.18
541.184	60.13
541.381	60.13
541.579	60.19
541.776	60.05
541.974	60
542.171	60.01
542.368	60.06
542.566	60.03
542.763	60.06
542.96	60.13
543.158	60.09
543.355	60.17
543.552	60.26
543.75	60.23
543.947	60.4
544.144	60.51
544.341	60.54
544.539	60.5
544.736	60.54
544.933	60.55
545.13	60.66
545.327	60.75
545.524	60.72
545.722	60.78
545.919	60.75
546.116	60.63
546.313	60.65
546.51	60.65
546.707	60.68
546.904	60.7
547.101	60.82
547.298	60.8
547.495	60.84
547.692	60.81
547.889	60.78
548.086	60.78
548.283	60.99
548.48	60.99
548.677	60.89
548.874	61.1
549.07	61.12
549.267	61.02
549.464	60.95
549.661	60.87
549.858	60.86
550.055	60.83
550.251	60.85
550.448	60.71
550.645	60.72
550.842	60.74
551.038	60.6
551.235	60.6
551.432	60.56
551.628	60.37
551.825	60.34
552.022	60.51
552.218	60.57
552.415	60.6
552.612	60.62
552.808	60.55
553.005	60.56
553.201	60.68
553.398	60.62
553.594	60.78
553.791	60.92
553.987	60.86
554.184	60.86
554.38	60.92
554.577	61.03
554.773	61.16
554.97	61.37
555.166	61.51
555.362	61.56
555.559	61.64
555.755	61.73
555.952	61.83
556.148	62.19
556.344	62.4
556.541	62.16
556.737	62.04
556.933	62.09
557.129	61.87
557.326	61.69
557.522	61.55
557.718	61.58
557.914	61.35
558.11	61.4
558.307	61.19
558.503	61.09
558.699	61.35
558.895	61.19
559.091	61.02
559.287	61.11
559.483	61.24
559.679	61.26
559.876	61.33
560.072	61.29
560.268	61.13
560.464	61.31
560.66	61.22
560.856	61.15
561.052	61.27
561.247	61.2
561.443	61.3
561.639	61.28
561.835	61.44
562.031	61.23
562.227	61.29
562.423	61.23
562.619	60.98
562.815	61.12
563.01	61.26
563.206	61.44
563.402	61.55
563.598	61.44
563.793	61.52
563.989	61.45
564.185	61.6
564.381	61.55
564.576	61.71
564.772	61.8
564.968	61.65
565.163	61.42
565.359	61.27
565.555	61.18
565.75	61.21
565.946	61.12
566.141	61.05
566.337	61.15
566.532	61.06
566.728	60.93
566.923	60.74
567.119	60.8
567.314	60.84
567.51	60.83
567.705	60.96
567.901	61
568.096	61.02
568.292	60.89
568.487	60.63
568.682	60.79
568.878	60.88
569.073	60.86
569.268	60.67
569.464	60.65
569.659	60.74
569.854	60.47
570.05	60.32
570.245	60.31
570.44	60.37
570.635	60.34
570.831	60.28
571.026	60.16
571.221	60.39
571.416	60.49
571.611	60.56
571.806	60.46
572.002	60.57
572.197	60.71
572.392	60.7
572.587	60.6
572.782	60.59
572.977	60.61
573.172	60.64
573.367	60.45
573.562	60.49
573.757	60.28
573.952	60.28
574.147	60.32
574.342	60.28
574.537	60.25
574.732	60.26
574.927	60.54
575.121	60.36
575.316	60.45
575.511	60.69
575.706	60.4
575.901	60.4
576.096	60.41
576.29	60.34
576.485	60.19
576.68	60.22
576.875	60.17
577.069	59.84
577.264	60.08
577.459	60
577.654	59.8
577.848	60.12
578.043	60.19
578.238	60.3
578.432	60.11
578.627	60.09
578.821	59.97
579.016	60.19
579.21	60.13
579.405	60
579.6	59.97
579.794	60.09
579.989	60.06
580.183	60.47
580.378	60.34
580.572	60.54
580.766	60.57
580.961	60.49
581.155	60.38
581.35	60.58
581.544	60.49
581.738	60.37
581.933	60.18
582.127	60.12
582.321	59.69
582.516	59.67
582.71	59.63
582.904	59.53
583.099	59.58
583.293	59.63
583.487	59.71
583.681	59.7
583.875	59.75
584.07	59.91
584.264	59.58
584.458	59.58
584.652	59.62
584.846	59.66
585.04	59.83
585.234	60.12
585.428	59.87
585.623	59.74
585.817	59.77
586.011	59.79
586.205	59.74
586.399	60.17
586.593	60.08
586.787	59.85
586.981	59.79
587.174	59.67
587.368	59.44
587.562	59.57
587.756	59.37
587.95	59.49
588.144	59.43
588.338	59.1
588.532	58.87
588.725	58.98
588.919	58.75
589.113	58.76
589.307	58.65
589.501	58.55
589.694	58.49
589.888	58.68
590.082	58.3
590.275	58.11
590.469	58.35
590.663	58.54
590.856	58.51
591.05	58.74
591.244	58.7
591.437	59.02
591.631	58.96
591.824	59.11
592.018	59.1
592.212	59.34
592.405	59.46
592.599	59.32
592.792	59.01
592.986	58.93
593.179	59.18
593.372	58.94
593.566	58.61
593.759	58.86
593.953	58.66
594.146	58.53
594.339	58.42
594.533	58.43
594.726	58.62
594.92	58.68
595.113	58.63
595.306	58.35
595.499	58.51
595.693	58.46
595.886	58.33
596.079	58.44
596.272	58.57
596.466	58.54
596.659	58.51
596.852	58.34
597.045	58.38
597.238	58.46
597.431	58.4
597.624	58.33
597.818	58.48
598.011	58.2
598.204	58.03
598.397	57.95
598.59	58.05
598.783	57.94
598.976	57.92
599.169	57.97
599.362	57.86
599.555	58.07
599.748	58.14
599.941	58.25
600.134	58.65
600.326	58.7
600.519	58.73
600.712	58.38
600.905	58.54
601.098	58.31
601.291	58.26
601.483	58.18
601.676	57.86
601.869	57.89
602.062	57.75
602.255	57.69
602.447	57.3
602.64	57.28
602.833	57.26
603.025	57.18
603.218	57.36
603.411	57.24
603.603	57.37
603.796	57.47
603.989	57.24
604.181	57.09
604.374	56.91
604.566	57.2
604.759	56.9
604.951	56.85
605.144	56.66
605.336	56.68
605.529	56.72
605.721	56.55
605.914	56.57
606.106	56.66
606.299	56.65
606.491	56.63
606.683	56.58
606.876	56.64
607.068	56.84
607.26	57.24
607.453	57.25
607.645	57.16
607.837	57.43
608.03	57.12
608.222	57.13
608.414	57.12
608.606	57.11
608.799	57
608.991	56.87
609.183	56.86
609.375	56.67
609.567	56.39
609.759	56.37
609.952	56.11
610.144	56.19
610.336	56.03
610.528	55.92
610.72	55.8
610.912	55.66
611.104	55.97
611.296	55.92
611.488	55.9
611.68	55.83
611.872	55.7
612.064	55.64
612.256	55.68
612.448	55.73
612.64	55.63
612.832	55.88
613.023	56.28
613.215	56.02
613.407	55.88
613.599	55.66
613.791	55.91
613.983	55.79
614.174	55.97
614.366	56.05
614.558	55.9
614.75	56.07
614.941	55.66
615.133	55.31
615.325	55.43
615.516	55.32
615.708	55.13
615.9	55.14
616.091	55.23
616.283	55.01
616.475	54.82
616.666	54.68
616.858	54.26
617.049	54.45
617.241	54.55
617.432	54.47
617.624	54.69
617.815	54.83
618.007	54.74
618.198	54.5
618.39	54.46
618.581	54.53
618.773	54.77
618.964	55.23
619.155	55.22
619.347	54.87
619.538	54.54
619.729	54.37
619.921	54.41
620.112	54.36
620.303	54.35
620.494	54.31
620.686	54.25
620.877	54.2
621.068	53.81
621.259	53.7
621.451	53.81
621.642	54.01
621.833	54.07
622.024	54.31
622.215	54.32
622.406	54.3
622.597	54.38
622.788	54.24
622.98	54.3
623.171	54.3
623.362	54.56
623.553	54.57
623.744	54.57
623.935	54.29
624.126	54.14
624.317	54.09
624.508	54.11
624.698	53.85
624.889	53.5
625.08	53.66
625.271	54.05
625.462	53.78
625.653	53.92
625.844	53.87
626.034	53.69
626.225	53.66
626.416	53.71
626.607	53.87
626.798	54.18
626.988	54.82
627.179	54.67
627.37	54.41
627.56	54.25
627.751	53.97
627.942	53.84
628.132	54.04
628.323	53.82
628.514	53.5
628.704	53.48
628.895	53.27
629.085	52.84
629.276	52.54
629.466	52.29
629.657	52.43
629.847	52.37
630.038	52.44
630.228	52.34
630.419	52.46
630.609	52.4
630.8	52.33
630.99	52.36
631.181	52.2
631.371	52.06
631.561	52.24
631.752	52.3
631.942	52.38
632.132	52.49
632.323	52.63
632.513	52.44
632.703	52.59
632.893	52.41
633.084	52.18
633.274	52.26
633.464	52.67
633.654	52.55
633.844	52.35
634.034	52.24
634.225	52.02
634.415	51.99
634.605	52.2
634.795	52.06
634.985	52.06
635.175	51.86
635.365	51.82
635.555	51.36
635.745	51.5
635.935	51.61
636.125	51.41
636.315	51.72
636.505	51.33
636.695	51.16
636.885	51.2
637.075	51.03
637.265	51.12
637.455	51.21
637.644	51.67
637.834	51.63
638.024	51.51
638.214	51.82
638.404	51.16
638.593	51.52
638.783	51.53
638.973	51.73
639.163	51.89
639.352	52.03
639.542	51.84
639.732	51.4
639.921	51.33
640.111	51.09
640.301	50.83
640.49	51.11
640.68	51.06
640.87	51.23
641.059	51.06
641.249	51.28
641.438	50.96
641.628	50.6
641.817	50.49
642.007	50.37
642.196	50.59
642.386	50.82
642.575	50.74
642.764	50.64
642.954	50.26
643.143	50.4
643.333	50.04
643.522	50.15
643.711	50.29
643.901	50.65
644.09	51.15
644.279	51.34
644.469	51.23
644.658	51.21
644.847	51.6
645.036	51.66
645.226	51.41
645.415	51.43
645.604	51.1
645.793	51.06
645.982	50.85
646.171	50.27
646.361	49.7
646.55	49.84
646.739	49.94
646.928	49.7
647.117	49.93
647.306	50.22
647.495	49.98
647.684	50.31
647.873	50.52
648.062	50.94
648.251	50.83
648.44	50.64
648.629	50.38
648.818	50.21
649.007	50.26
649.196	50.19
649.384	49.74
649.573	50
649.762	50.03
649.951	49.81
650.14	49.3
650.328	49.61
650.517	50.07
650.706	50.06
650.895	49.9
651.083	49.56
651.272	49.26
651.461	49.67
651.65	49.79
651.838	49.74
652.027	49.64
652.216	49.47
652.404	49.08
652.593	49.13
652.781	48.82
652.97	49.14
653.158	49.11
653.347	49.41
653.535	48.96
653.724	48.64
653.912	48.73
654.101	49.06
654.289	49.26
654.478	49.52
654.666	49.07
654.855	49.41
655.043	49.13
655.231	49.82
655.42	49.32
655.608	49.48
655.796	49.55
655.985	49.29
656.173	49.56
656.361	49.66
656.55	49.44
656.738	49.53
656.926	49.45
657.114	49.62
657.302	49.06
657.491	49.27
657.679	49.5
657.867	49.5
658.055	49.8
658.243	49.14
658.431	48.9
658.619	49.06
658.807	49.12
658.996	49.2
659.184	49.35
659.372	49.44
659.56	49.33
659.748	48.86
659.936	48.95
660.124	48.78
660.311	48.87
660.499	49.07
660.687	48.9
660.875	48.9
661.063	48.72
661.251	48.52
661.439	48.53
661.627	48.7
661.814	48.81
662.002	48.41
662.19	48.43
662.378	48.48
662.565	48.49
662.753	48.24
662.941	48.27
663.129	48.29
663.316	48.12
663.504	47.5
663.692	47.15
663.879	47.29
664.067	47.72
664.254	47.72
664.442	47.81
664.63	47.56
664.817	47.62
665.005	47.58
665.192	47.55
665.38	47.65
665.567	47.51
665.755	47.58
665.942	47.33
666.13	47.36
666.317	46.97
666.504	46.78
666.692	46.84
666.879	46.89
667.067	46.91
667.254	46.16
667.441	46.18
667.629	46.42
667.816	46.28
668.003	46.33
668.19	46.04
668.378	46.2
668.565	46.09
668.752	45.93
668.939	46.17
669.127	45.83
669.314	46.96
669.501	47.19
669.688	47.31
669.875	47.18
670.062	47.73
670.249	47.32
670.436	47.64
670.623	47.8
670.81	47.84
670.997	47.27
671.184	47.3
671.371	46.87
671.558	46.28
671.745	46.22
671.932	46.32
672.119	45.91
672.306	46.72
672.493	46.35
672.68	46.46
672.867	46.39
673.054	47.04
673.24	47.39
673.427	47.4
673.614	48.08
673.801	48.14
673.988	48.37
674.174	48.3
674.361	47.94
674.548	48.09
674.734	48.19
674.921	48.47
675.108	48.3
675.294	48.18
675.481	47.88
675.668	47.25
675.854	47.6
676.041	47.3
676.227	47.23
676.414	47.16
676.601	47.23
676.787	47.56
676.974	47.29
677.16	47.66
677.347	47.76
677.533	48.26
677.719	48.12
677.906	47.72
678.092	47.82
678.279	47.53
678.465	47.37
678.651	47.1
678.838	46.74
679.024	46.75
679.21	46.54
679.397	46.36
679.583	45.81
679.769	46.12
679.955	45.86
680.142	45.6
680.328	46.13
680.514	46.27
680.7	45.95
680.886	45.81
681.073	45.89
681.259	45.57
681.445	45.58
681.631	45.63
681.817	45.66
682.003	45.87
682.189	46.09
682.375	45.8
682.561	45.89
682.747	46.17
682.933	46.31
683.119	46.23
683.305	45.78
683.491	45.72
683.677	45.79
683.863	45.51
684.049	45.42
684.235	45.73
684.42	45.68
684.606	45.31
684.792	45.5
684.978	45.57
685.164	45.59
685.349	45.91
685.535	45.93
685.721	45.95
685.907	45.87
686.092	46.14
686.278	45.58
686.464	45.53
686.649	45.58
686.835	45.33
687.021	45.24
687.206	45.3
687.392	45.36
687.577	44.79
687.763	44.74
687.948	45.06
688.134	45.06
688.319	45.3
688.505	45.53
688.69	45.57
688.876	45.76
689.061	45.25
689.247	45.28
689.432	45.57
689.618	45.8
689.803	45.7
689.988	45.6
690.174	45.29
690.359	44.9
690.544	44.97
690.73	44.7
690.915	44.62
691.1	44.72
691.285	44.9
691.471	44.88
691.656	45.03
691.841	44.74
692.026	44.61
692.211	44.64
692.396	45.13
692.582	44.82
692.767	45.53
692.952	45.37
693.137	45.29
693.322	44.68
693.507	44.8
693.692	44.84
693.877	45.62
694.062	45.48
694.247	45.76
694.432	45.63
694.617	45.59
694.802	45.29
694.987	45.21
695.172	45.49
695.357	45.32
695.541	44.72
695.726	44.8
695.911	44.57
696.096	44.58
696.281	43.72
696.466	43.73
696.65	43.16
696.835	42.81
697.02	43.25
697.204	43.48
697.389	44.24
697.574	44.1
697.759	43.68
697.943	43.37
698.128	42.96
698.312	43.39
698.497	42.95
698.682	43.41
698.866	43.94
699.051	43.9
699.235	43.43
699.42	43.25
699.604	43.8
699.789	44.18
699.973	44.17
700.158	44.61
700.342	44.77
700.527	45.41
700.711	45.19
700.895	44.72
701.08	44.41
701.264	44.54
701.448	44.47
701.633	43.6
701.817	43.64
702.001	44.03
702.186	44.09
702.37	43.6
702.554	43.22
702.738	43.81
702.923	43.78
703.107	43.94
703.291	44.66
703.475	44.26
703.659	44.73
703.843	44.37
704.027	44.35
704.212	44.08
704.396	44.26
704.58	44.56
704.764	43.97
704.948	44.09
705.132	43.82
705.316	43.66
705.5	44.16
705.684	44.61
705.868	44.37
706.052	44.14
706.235	44.9
706.419	44.91
706.603	44.6
706.787	44.01
706.971	43.98
707.155	44.16
707.339	44.17
707.522	43.51
707.706	43.39
707.89	44.38
708.074	44.37
708.257	43.19
708.441	43.5
708.625	43.85
708.808	44.54
708.992	44.35
709.176	43.75
709.359	43.52
709.543	43.49
709.727	43.25
709.91	42.71
710.094	42.52
710.277	42.94
710.461	42.69
710.644	42.92
710.828	42.64
711.011	42.61
711.195	43.28
711.378	43.32
711.562	43.43
711.745	44.29
711.928	44.37
712.112	44.75
712.295	44.59
712.478	44.84
712.662	44.09
712.845	44.48
713.028	44.49
713.212	44.55
713.395	44.34
713.578	44.07
713.761	43.46
713.945	43.14
714.128	43.12
714.311	43.38
714.494	43.49
714.677	43.69
714.86	44.08
715.043	44.7
715.227	44.68
715.41	44.36
715.593	44.77
715.776	44.76
715.959	44.93
716.142	44.84
716.325	45.52
716.508	45.14
716.691	45.22
716.874	44.53
717.057	44.26
717.239	43.99
717.422	44.59
717.605	44.76
717.788	44.65
717.971	44.69
718.154	44.81
718.337	43.95
718.519	44.15
718.702	44.13
718.885	44.83
719.068	44.68
719.25	45.41
719.433	45.02
719.616	44.87
719.798	44.27
719.981	44.26
720.164	43.14
720.346	43.12
720.529	42.87
720.712	43.11
720.894	42.54
721.077	42.9
721.259	41.85
721.442	42.46
721.624	42.59
721.807	43.65
721.989	44.22
722.172	44.98
722.354	45.6
722.537	46.08
722.719	46.65
722.901	47.13
723.084	46.39
723.266	46.49
723.448	46.47
723.631	45.83
723.813	45.73
723.995	44.86
724.178	45.07
724.36	44.89
724.542	44.18
724.724	43.44
724.907	42.98
725.089	43.14
725.271	43.91
725.453	43.77
725.635	44.47
725.817	44.22
725.999	44.83
726.181	44.85
726.364	44.1
726.546	44.44
726.728	44.1
726.91	44.39
727.092	44.83
727.274	44.55
727.456	45
727.638	44.87
727.819	45.26
728.001	44.63
728.183	44.91
728.365	45.8
728.547	45.59
728.729	46.27
728.911	46.64
729.093	45.62
729.274	45.33
729.456	44.09
729.638	44.21
729.82	44.31
730.001	44.49
730.183	44.39
730.365	44.49
730.546	44.32
730.728	43.76
730.91	42.89
731.091	43.4
731.273	43.53
731.455	44.32
731.636	44.22
731.818	43.9
731.999	44.14
732.181	43.84
732.362	42.98
732.544	43.72
732.725	43.93
732.907	44.27
733.088	44.46
733.27	44.06
733.451	43.42
733.633	42.71
733.814	41.63
733.995	40.7
734.177	41.13
734.358	41.04
734.539	40.96
734.721	41.33
734.902	41.9
735.083	41.77
735.264	42.61
735.446	43.34
735.627	44.34
735.808	44.76
735.989	45.36
736.17	44.34
736.351	44.68
736.533	43.98
736.714	43.34
736.895	42.39
737.076	42.14
737.257	41.37
737.438	41.53
737.619	40.81
737.8	41.05
737.981	41.87
738.162	42.82
738.343	43.47
738.524	43.52
738.705	44.06
738.886	43.9
739.067	43.63
739.247	44.33
739.428	43.46
739.609	44.36
739.79	44.56
739.971	44.76
740.151	44.12
740.332	43.8
740.513	44.18
740.694	43.72
740.874	44.63
741.055	46.17
741.236	45.97
741.417	45.29
741.597	44.69
741.778	45.05
741.958	43.64
742.139	43.75
742.32	43.56
742.5	43.28
742.681	42.38
742.861	42.47
743.042	41.43
743.222	40.9
743.403	41.93
743.583	42.58
743.764	42.2
743.944	42.45
744.124	43.42
744.305	43.57
744.485	44.19
744.666	45.01
744.846	44.41
745.026	44.36
745.207	45.08
745.387	45.79
745.567	44.76
745.747	44.1
745.928	44.8
746.108	43.8
746.288	43.4
746.468	42.84
746.648	43.78
746.829	44.02
747.009	44.74
747.189	45.47
747.369	44.59
747.549	45.06
747.729	45.5
747.909	45.48
748.089	45.45
748.269	45.41
748.449	45.21
748.629	44.53
748.809	42.98
748.989	42.86
749.169	42.03
749.349	42.32
749.529	42.23
749.709	41.56
749.889	41.22
750.068	41.63
750.248	42.01
750.428	43.07
750.608	42.56
750.788	44.72
750.967	45.01
751.147	45.24
751.327	45.39
751.507	44.91
751.686	45.95
751.866	46.05
752.046	45.26
752.225	45.13
752.405	43.97
752.585	44.36
752.764	43.12
752.944	42.19
753.123	41.71
753.303	41.75
753.482	42.26
753.662	42.17
753.841	41.5
754.021	42.69
754.2	42.51
754.38	43.51
754.559	44.53
754.739	44.42
754.918	44.44
755.097	43.6
755.277	43.29
755.456	43.43
755.635	43.42
755.815	44.49
755.994	43.49
756.173	43.68
756.352	44.39
756.532	43.34
756.711	44.02
756.89	43.97
757.069	45.1
757.248	44.81
757.427	44.64
757.607	44.66
757.786	43.77
757.965	43.58
758.144	43.56
758.323	42.05
758.502	42.02
758.681	41.17
758.86	41.51
759.039	41.07
759.218	41.42
759.397	40.5
759.576	40.28
759.755	40.29
759.934	41.01
760.113	41.68
760.291	41.48
760.47	42.56
760.649	43.19
760.828	42.14
761.007	42.24
761.186	41.94
761.364	42.69
761.543	42.67
761.722	42.59
761.901	42.27
762.079	41.2
762.258	41.53
762.437	40.7
762.615	40.95
762.794	41.58
762.972	40.78
763.151	41.23
763.33	41.24
763.508	40.88
763.687	41.13
763.865	40.72
764.044	40.67
764.222	41.15
764.401	41.49
764.579	41.64
764.758	41.21
764.936	42.27
765.114	41.71
765.293	41.71
765.471	42.19
765.65	41.81
765.828	42.11
766.006	42.46
766.184	41.81
766.363	41.48
766.541	40.75
766.719	40.84
766.898	40.2
767.076	40.86
767.254	41.07
767.432	41.3
767.61	41.67
767.788	41.62
767.967	41.46
768.145	41.16
768.323	42.45
768.501	42.62
768.679	42.91
768.857	42.96
769.035	43.39
769.213	43.78
769.391	43.84
769.569	44.36
769.747	45.49
769.925	46.2
770.103	46.53
770.281	43.77
770.459	44.61
770.636	44.53
770.814	44.42
770.992	43.95
771.17	42.79
771.348	41.96
771.525	42.17
771.703	42.25
771.881	41.59
772.059	41.19
772.236	42.17
772.414	41.32
772.592	42.21
772.769	43.8
772.947	44.65
773.125	45.45
773.302	46.48
773.48	46.24
773.657	45.88
773.835	45.74
774.013	46.99
774.19	47.74
774.368	48.37
774.545	48.85
774.723	48.11
774.9	47.17
775.077	48.28
775.255	47.06
775.432	47.44
775.61	47.87
775.787	48.64
775.964	49.73
776.142	49.76
776.319	48.47
776.496	47.38
776.674	47.7
776.851	47.26
777.028	47.36
777.205	47.31
777.382	45.76
777.56	45.63
777.737	48.44
777.914	46.61
778.091	46.37
778.268	47.22
778.445	47.91
778.622	47.46
778.8	49.37
778.977	46.9
779.154	49.33
779.331	50.64
779.508	49.66
779.685	47.21
779.862	47.39
780.038	47.09
780.215	48.19
780.392	46.78
780.569	46.08
780.746	44.22
780.923	45.67
781.1	44.25
781.277	44.34
781.453	44.86
781.63	42.93
781.807	43.24
781.984	42.73
782.16	41.65
782.337	44.05
782.514	44.98
782.691	46.45
782.867	46.97
783.044	47.1
783.221	46.9
783.397	48.56
783.574	48.13
783.75	47.92
783.927	49.56
784.103	50.49
784.28	50.8
784.456	49.9
784.633	49.47
784.809	47.16
784.986	47.69
785.162	48.1
785.339	46.19
785.515	47.7
785.692	48.15
785.868	48.61
786.044	46.41
786.221	45.43
786.397	45.38
786.573	45.64
786.749	46.2
786.926	45.88
787.102	45.97
787.278	47.41
787.454	47.96
787.631	47.75
787.807	46.3
787.983	47.39
788.159	47.22
788.335	46.65
788.511	46.39
788.687	47.28
788.863	45.82
789.039	45.13
789.216	44.38
789.392	43.86
789.568	45.53
789.744	45.38
789.919	46.16
790.095	46.63
790.271	47.12
790.447	45.22
790.623	44.69
790.799	44.34
790.975	45.15
791.151	45.71
791.327	46.78
791.502	44.83
791.678	45.74
791.854	45.37
792.03	44.13
792.205	45.27
792.381	46.24
792.557	47.47
792.733	49.1
792.908	48.84
793.084	49.65
793.259	48.48
793.435	48.68
793.611	49.43
793.786	49.12
793.962	51.03
794.137	50.63
794.313	52.53
794.488	52.7
794.664	53.24
794.839	53.37
795.015	52.67
795.19	52.41
795.366	53.28
795.541	52.97
795.716	52.73
795.892	51.57
796.067	52.39
796.242	50.73
796.418	50.37
796.593	48.68
796.768	47.26
796.944	47.6
797.119	47.3
797.294	45.7
797.469	46.42
797.644	46.53
797.82	47.03
797.995	46.17
798.17	46.37
798.345	45.05
798.52	46.1
798.695	47.88
798.87	46.1
799.045	46.13
799.22	47.44
799.395	44.99
799.57	43.55
799.745	43.5
799.92	45.3
800.095	44.99
800.27	46.69
800.445	46.18
800.62	43.68
800.795	45.38
800.97	44.75
801.145	44.2
801.319	45.48
801.494	46.47
801.669	47.81
801.844	46.86
802.018	46.92
802.193	45.93
802.368	45.4
802.543	46.54
802.717	46.92
802.892	46.72
803.067	46.57
803.241	44.47
803.416	46.32
803.59	46.1
803.765	46.41
803.94	49.28
804.114	49.25
804.289	52.46
804.463	54.54
804.638	55.04
804.812	56.31
804.986	56.75
805.161	59.47
805.335	59.23
805.51	58.4
805.684	57.84
805.858	54.53
806.033	54.65
806.207	51.98
806.381	49.43
806.556	47.54
806.73	49.33
806.904	50.13
807.078	50.03
807.253	47.51
807.427	45.66
807.601	44.44
807.775	46.22
807.949	46.38
808.123	45.82
808.298	48.05
808.472	49.6
808.646	49.99
808.82	50.63
808.994	49.52
809.168	51.46
809.342	53.79
809.516	54.35
809.69	52.99
809.864	52.86
810.038	53.68
810.212	52.24
810.385	50.78
810.559	48.84
810.733	48.65
810.907	48.3
811.081	46.08
811.255	45.4
811.428	45.87
811.602	45.78
811.776	45.62
811.95	46.16
812.123	46.67
812.297	45.66
812.471	47.18
812.644	46.74
812.818	50.12
812.992	51.39
813.165	50.23
813.339	49.39
813.512	54.02
813.686	54.36
813.86	56.87
814.033	58.67
814.207	62.89
814.38	62.62
814.554	61.33
814.727	58.28
814.9	58.43
815.074	61.71
815.247	61.15
815.421	55.82
815.594	55.06
815.767	55.45
815.941	54.53
816.114	53.2
816.287	54.54
816.46	52.23
816.634	53.21
816.807	51.77
816.98	48.44
817.153	51.32
817.327	53.69
817.5	54.14
817.673	51.58
817.846	47.81
818.019	47.43
818.192	47.6
818.365	48.15
818.538	47.69
818.711	48.45
818.884	48.31
819.057	45.81
819.23	46.28
819.403	44.7
819.576	42.93
819.749	45.45
819.922	43.33
820.095	41.3
820.268	42.95
820.441	42.86
820.614	42.02
820.786	42.34
820.959	42.64
821.132	41.2
821.305	42.08
821.477	41.82
821.65	42.5
821.823	42.63
821.996	42.46
822.168	41.75
822.341	40.68
822.514	40.55
822.686	40.25
822.859	39.7
823.031	39.74
823.204	39.77
823.376	40.19
823.549	39.1
823.722	38.81
823.894	39.12
824.067	39.26
824.239	39.34
824.411	39.79
824.584	39.35
824.756	39.6
824.929	39.3
825.101	38.83
825.273	38.79
825.446	39.65
825.618	39.56
825.79	39.15
825.963	39.64
826.135	40.3
826.307	39.83
826.479	41.38
826.652	41.36
826.824	42.03
826.996	42.5
827.168	41.83
827.34	42
827.512	42.52
827.684	43.13
827.856	41.98
828.029	41.07
828.201	40.67
828.373	39.46
828.545	39.77
828.717	39.81
828.889	39.61
829.061	40.32
829.232	40.13
829.404	40.13
829.576	40.58
829.748	41.21
829.92	42.59
830.092	44.74
830.264	45.32
830.436	46.26
830.607	46.62
830.779	47.5
830.951	49.82
831.123	49.61
831.294	50.72
831.466	51.33
831.638	53.31
831.809	52.3
831.981	52.45
832.153	53
832.324	52.74
832.496	52.24
832.667	51.45
832.839	49.48
833.011	48.08
833.182	49.42
833.354	48.32
833.525	46.97
833.697	46.63
833.868	45.5
834.039	43.98
834.211	43.08
834.382	41.68
834.554	41.47
834.725	39.13
834.896	41.62
835.068	40.83
835.239	39.3
835.41	39.39
835.581	38.96
835.753	38.74
835.924	41.5
836.095	41.37
836.266	42.09
836.438	42.25
836.609	45.31
836.78	44.13
836.951	42.15
837.122	43.53
837.293	45.2
837.464	48.12
837.635	48.07
837.806	47.78
837.977	48.33
838.148	49.47
838.319	50.27
838.49	50.87
838.661	52.33
838.832	54.45
839.003	52.28
839.174	51.06
839.345	52.45
839.516	52.58
839.687	51.53
839.857	48.7
840.028	50.97
840.199	54.39
840.37	55.56
840.54	56.18
840.711	57.42
840.882	59.75
841.053	58.5
841.223	54.73
841.394	58.78
841.564	58.57
841.735	63.04
841.906	61.28
842.076	58.85
842.247	59.99
842.417	60.4
842.588	64.64
842.758	73.55
842.929	75.79
843.099	77.11
843.27	78.04
843.44	80.58
843.611	77.75
843.781	82.17
843.951	84.21
844.122	83.51
844.292	85.83
844.462	81.15
844.633	69.19
844.803	67.51
844.973	69.57
845.144	69.99
845.314	70.82
845.484	78.35
845.654	72.68
845.824	78.19
845.995	77.11
846.165	78.29
846.335	80.5
846.505	81.67
846.675	85.08
846.845	80.14
847.015	76.93
847.185	75.93
847.355	72
847.525	74.33
847.695	69.19
847.865	67.81
848.035	65.55
848.205	64.95
848.375	65.36
848.545	54.92
848.715	57.17
848.884	56.21
849.054	58.22
849.224	62.81
849.394	63.07
849.564	58.85
849.733	60.8
849.903	68.56
850.073	69.07
850.243	72.05
850.412	88.68
850.582	94.92
850.752	91.67
850.921	87.05
851.091	82.92
851.26	82.81
851.43	83.5
851.599	79
851.769	76.92
851.939	70.45
852.108	71.72
852.278	68.35
852.447	65.02
852.616	69.58
852.786	71.6
852.955	68.86
853.125	73.64
853.294	79.84
853.463	87.18
853.633	88.52
853.802	92.86
853.971	93.85
854.141	98.62
854.31	100.62
854.479	103.63
854.648	96.68
854.818	108.21
854.987	102.86
855.156	95.57
855.325	83.2
855.494	73.98
855.663	84.63
855.832	77.67
856.001	75.87
856.171	82.03
856.34	81.06
856.509	80.47
856.678	82.88
856.847	83.67
857.016	81.86
857.185	93.09
857.353	99.75
857.522	88.45
857.691	98.17
857.86	97.54
858.029	91.43
858.198	93.99
858.367	91.54
858.535	89.26
858.704	87.23
858.873	92.96
859.042	85.62
859.21	84.09
859.379	88.9
859.548	84.83
859.717	86.27
859.885	89.57
860.054	91.8
860.222	93.27
860.391	90.47
860.56	100.91
860.728	94.04
860.897	99.55
861.065	96.81
861.234	91.75
861.402	92.1
861.571	92.63
861.739	88.64
861.908	83.65
862.076	87.09
862.244	87.64
862.413	84.32
862.581	83.04
862.749	78.12
862.918	78.84
863.086	75.75
863.254	75.01
863.423	69.71
863.591	75.96
863.759	80.04
863.927	85.4
864.096	80.08
864.264	84.44
864.432	88.9
864.6	95.37
864.768	97.97
864.936	101.32
865.104	97.61
865.272	104.26
865.44	98.4
865.608	96.67
865.776	82.18
865.944	80.31
866.112	77.4
866.28	73.02
866.448	71.91
866.616	72.36
866.784	78.7
866.952	79.31
867.12	75.92
867.288	73.86
867.455	69.9
867.623	76.11
867.791	85.79
867.959	85.21
868.127	86.19
868.294	82.24
868.462	77.27
868.63	70.3
868.797	77.02
868.965	75.44
869.133	84.66
869.3	88.11
869.468	90.32
869.636	85.8
869.803	85.42
869.971	89.78
870.138	94.98
870.306	98.79
870.473	99.11
870.641	92.05
870.808	101.16
870.975	93.82
871.143	93.43
871.31	93.51
871.478	97.73
871.645	106.37
871.812	110.66
871.98	111.44
872.147	110.31
872.314	112.4
872.482	118.85
872.649	116.76
872.816	115.77
872.983	123.13
873.15	117.92
873.318	112.84
873.485	99.77
873.652	94.47
873.819	93.43
873.986	96.17
874.153	93.68
874.32	89.6
874.487	85.65
874.654	89.91
874.821	88.2
874.988	92.3
875.155	97.18
875.322	107.56
875.489	105.56
875.656	99.91
875.823	101.96
875.99	104.71
876.157	102.51
876.324	94.48
876.49	90.31
876.657	90.25
876.824	86.93
876.991	82.38
877.157	84.67
877.324	82.63
877.491	90.43
877.658	91.43
877.824	93.07
877.991	101.88
878.157	101.99
878.324	108.81
878.491	105.15
878.657	111.57
878.824	113.13
878.99	102.8
879.157	110.34
879.323	107.57
879.49	102.38
879.656	99.98
879.823	93.61
879.989	90.39
880.156	82.06
880.322	82.71
880.488	84.05
880.655	80.61
880.821	84.95
880.987	78.08
881.154	74.68
881.32	72.01
881.486	67.23
881.652	63.47
881.819	63.89
881.985	59.45
882.151	57.85
882.317	51.58
882.483	48.04
882.649	47.36
882.816	45.13
882.982	45.25
883.148	45.6
883.314	45.41
883.48	45.14
883.646	45.21
883.812	45.36
883.978	45.42
884.144	46.87
884.31	47.42
884.476	46.03
884.642	48.27
884.807	47.99
884.973	48.39
885.139	48.35
885.305	49.63
885.471	49.8
885.637	49.15
885.802	48.98
885.968	49.24
886.134	50.48
886.3	51.37
886.465	50.86
886.631	49.61
886.797	48.94
886.962	51.83
887.128	52.13
887.293	53.18
887.459	57.72
887.625	59.72
887.79	60.23
887.956	63.95
888.121	66.51
888.287	67.74
888.452	72.84
888.618	77.46
888.783	73.9
