Data from LC_239_Reflection_2.txt Node
Date: Thu Nov 19 22:18:56 EST 2015
User: robert
Spectrometer: USB4E03001
Autoset integration time: false
Trigger mode: 4
Integration Time (sec): 1.000000E-1
Scans to average: 15
Electric dark correction enabled: true
Nonlinearity correction enabled: false
Boxcar width: 5
Stray light correction enabled: false
XAxis mode: Wavelengths
Stop averaging: false
Number of Pixels in Spectrum: 3648
>>>>>Begin Spectral Data<<<<<
177.566	93
177.785	24.25
178.005	47.24
178.225	33.9
178.445	52.37
178.665	39.58
178.885	39.38
179.105	-616.07
179.324	-419.22
179.544	-233.56
179.764	-76.27
179.984	-74.41
180.204	-6.24
180.423	-3.15
180.643	36.72
180.863	13.32
181.083	17.16
181.302	10.15
181.522	23.3
181.742	33.64
181.961	31.32
182.181	52.44
182.401	40.48
182.621	0.76
182.84	-140.93
183.06	-113.03
183.279	-237.85
183.499	-144.88
183.719	-785.89
183.938	-3682.15
184.158	2337.52
184.377	1855.66
184.597	-1297.78
184.816	12683.96
185.036	682.46
185.256	-6653.33
185.475	-359.1
185.695	-170.03
185.914	-160.87
186.134	-336.77
186.353	-89.95
186.572	-90.98
186.792	-212.82
187.011	554.62
187.231	306.13
187.45	7.85
187.67	80.32
187.889	50.76
188.108	60.28
188.328	81.04
188.547	132.18
188.766	248.4
188.986	158.93
189.205	-1698.04
189.424	7.17
189.644	39.84
189.863	9.94
190.082	57.42
190.302	38.58
190.521	50.2
190.74	58.45
190.959	58.1
191.178	27.18
191.398	5.45
191.617	-5.6
191.836	-283.16
192.055	-103.09
192.274	-53.92
192.494	-189.47
192.713	-21.05
192.932	-15.57
193.151	-19.82
193.37	-55.45
193.589	-21.44
193.808	0.22
194.027	22.57
194.246	23.65
194.465	35.06
194.685	31.92
194.904	45.99
195.123	27.14
195.342	66.36
195.561	64.8
195.78	78.14
195.999	65.96
196.218	71.81
196.436	47.94
196.655	42.14
196.874	40.27
197.093	46.8
197.312	56.83
197.531	94.28
197.75	108.28
197.969	115.26
198.188	-221.06
198.407	-55.09
198.625	-57.38
198.844	-77.16
199.063	-854.77
199.282	-48.36
199.501	31
199.719	99.37
199.938	111.24
200.157	355.03
200.376	244.42
200.594	-724.4
200.813	-365.12
201.032	-97.35
201.251	-93.86
201.469	-86.93
201.688	50.58
201.907	167.13
202.125	607.71
202.344	133.8
202.563	126.3
202.781	-15.97
203	-75.52
203.218	-117.04
203.437	-129.11
203.656	-43.28
203.874	-125.52
204.093	-239.86
204.311	-84.42
204.53	-95.52
204.748	-98.86
204.967	-40.51
205.185	-61.57
205.404	-99.56
205.622	-93.71
205.841	-46.6
206.059	-179.59
206.278	-172.2
206.496	-195.89
206.715	-165.16
206.933	-144.12
207.151	-47.16
207.37	-126.68
207.588	-91.14
207.806	-4.18
208.025	-37.06
208.243	-186.79
208.461	-108.87
208.68	-129.88
208.898	-16.41
209.116	-25.93
209.335	-3.85
209.553	-461.71
209.771	2842.86
209.989	-373.95
210.208	582.92
210.426	397.77
210.644	-41.87
210.862	5.24
211.081	20.7
211.299	-19.12
211.517	-5.65
211.735	-7.44
211.953	7.6
212.171	9.8
212.39	33.77
212.608	47.4
212.826	29.67
213.044	20.72
213.262	-31.87
213.48	-34.87
213.698	-18.02
213.916	-50.67
214.134	-64.63
214.352	-77.56
214.57	-37.97
214.788	-237.59
215.006	-148.01
215.224	-182.22
215.442	-345.74
215.66	-51.58
215.878	-137.76
216.096	-356.95
216.314	-328.87
216.532	-165.37
216.75	-537.08
216.968	275.97
217.185	956.36
217.403	1765.42
217.621	3572.29
217.839	-263.01
218.057	-164.52
218.275	-34.4
218.492	-32.87
218.71	-23.18
218.928	-48.37
219.146	-66.77
219.363	-14.61
219.581	-22.14
219.799	-15.88
220.017	-6.17
220.234	-1.54
220.452	16.54
220.67	-15.14
220.887	6.14
221.105	9.18
221.323	8.65
221.54	16.13
221.758	26.57
221.976	27.95
222.193	33.96
222.411	20.48
222.629	18.51
222.846	12.83
223.064	25.55
223.281	5.94
223.499	-16.52
223.716	-6.24
223.934	-1.2
224.151	-5.7
224.369	8.86
224.586	-15.06
224.804	-0.15
225.021	7.02
225.239	8.93
225.456	-0.44
225.674	18.16
225.891	27.5
226.108	32.18
226.326	21.69
226.543	36.19
226.76	15.25
226.978	26.05
227.195	19.11
227.413	7.26
227.63	6.87
227.847	4.52
228.064	5.46
228.282	6.81
228.499	8.98
228.716	9.9
228.934	8.75
229.151	11
229.368	11.16
229.585	12.82
229.802	13.27
230.02	12.37
230.237	13
230.454	12.21
230.671	10.14
230.888	7
231.105	6.32
231.323	6.22
231.54	3.26
231.757	3.58
231.974	1.72
232.191	2.81
232.408	5.97
232.625	4.28
232.842	6.35
233.059	9.33
233.276	12.97
233.493	14
233.71	9.73
233.927	12.48
234.144	11.46
234.361	8.83
234.578	7.73
234.795	2.39
235.012	4.07
235.229	-3.46
235.446	0.06
235.663	-5.63
235.879	-4.1
236.096	-4.02
236.313	-8.43
236.53	-7.05
236.747	-6.53
236.964	-7.02
237.181	-5.67
237.397	-5.27
237.614	-3.83
237.831	-5.36
238.048	-3.85
238.264	-7.96
238.481	-10.05
238.698	-4.68
238.915	-3.69
239.131	-5.49
239.348	-1.92
239.565	3.69
239.781	6.39
239.998	7.78
240.215	5.89
240.431	6.72
240.648	10.45
240.865	12.09
241.081	11.12
241.298	10.8
241.514	12.51
241.731	12.86
241.947	12.19
242.164	11.34
242.38	11.71
242.597	12.82
242.814	13.16
243.03	12.66
243.246	12.93
243.463	11.11
243.679	11.8
243.896	12.47
244.112	10.72
244.329	10.21
244.545	10.06
244.762	10.41
244.978	8.55
245.194	7.51
245.411	6.54
245.627	7.77
245.843	9.56
246.06	10.51
246.276	9.76
246.492	9.57
246.709	10.04
246.925	10.52
247.141	10.77
247.357	10.8
247.574	11.47
247.79	11.73
248.006	11.58
248.222	11.49
248.439	11.16
248.655	11.37
248.871	12.36
249.087	12.74
249.303	12.38
249.519	11.51
249.736	12.58
249.952	12.12
250.168	11.21
250.384	10.42
250.6	10.92
250.816	11.17
251.032	9.76
251.248	9.79
251.464	8.44
251.68	7.42
251.896	9.72
252.112	9.63
252.328	10.74
252.544	10.94
252.76	11.66
252.976	12.78
253.192	10.93
253.408	11.34
253.624	12.25
253.84	13.7
254.056	13.87
254.272	11.76
254.487	11.02
254.703	8.95
254.919	10.8
255.135	10.01
255.351	8.96
255.567	10.82
255.782	12.4
255.998	12.6
256.214	9.84
256.43	11.01
256.646	12.35
256.861	10.76
257.077	10.55
257.293	12.03
257.508	13.53
257.724	12.97
257.94	14.13
258.155	13.76
258.371	12.49
258.587	11.91
258.802	11.81
259.018	12.45
259.234	13
259.449	13.47
259.665	12
259.88	11.25
260.096	11.4
260.312	10.45
260.527	10.01
260.743	9.28
260.958	9.53
261.174	9.72
261.389	9.16
261.605	9.49
261.82	7.99
262.036	8.15
262.251	7.92
262.466	7.73
262.682	8.61
262.897	8.95
263.113	9.64
263.328	11.15
263.543	11.26
263.759	10.03
263.974	9.9
264.189	12.61
264.405	12.01
264.62	12.25
264.835	11.61
265.051	10.02
265.266	8.3
265.481	9.02
265.696	6.96
265.912	5.62
266.127	7.63
266.342	7.2
266.557	6.71
266.773	7.16
266.988	7.35
267.203	7.14
267.418	7.53
267.633	8.41
267.848	7.6
268.064	8.45
268.279	9.05
268.494	8.67
268.709	7.42
268.924	5.74
269.139	6.57
269.354	5.6
269.569	6.1
269.784	5.43
269.999	4.45
270.214	5.75
270.429	5.97
270.644	6.57
270.859	5.95
271.074	5.89
271.289	7.81
271.504	7.57
271.719	7.99
271.934	7.43
272.149	8.29
272.363	10.04
272.578	10.27
272.793	10.25
273.008	9.3
273.223	9.07
273.438	10.2
273.653	8.87
273.867	8.5
274.082	8.83
274.297	8.91
274.512	8.6
274.726	8.29
274.941	7.4
275.156	5.42
275.371	5.68
275.585	6.81
275.8	6.16
276.015	7.32
276.229	8.42
276.444	8.95
276.659	8.75
276.873	9.65
277.088	9.91
277.302	8.22
277.517	9.82
277.732	10.56
277.946	9.67
278.161	10.19
278.375	10.45
278.59	9.83
278.804	9.84
279.019	10.58
279.233	9.37
279.448	9.33
279.662	11.58
279.877	11.5
280.091	10.06
280.306	9.8
280.52	9.73
280.735	9.41
280.949	8.71
281.163	7.43
281.378	8.26
281.592	9.11
281.806	9.08
282.021	9.52
282.235	8.36
282.449	9.46
282.664	10.01
282.878	9.93
283.092	9.57
283.307	10.82
283.521	11.18
283.735	10.21
283.949	9.79
284.164	8.76
284.378	8.09
284.592	9
284.806	8.68
285.02	9.48
285.234	10.69
285.449	10.91
285.663	10.11
285.877	11.12
286.091	11.12
286.305	11.33
286.519	11.98
286.733	12.28
286.947	12.57
287.161	12.64
287.375	11.6
287.589	9.38
287.803	8.52
288.017	9.38
288.231	8.5
288.445	8.29
288.659	8.35
288.873	8.51
289.087	7.08
289.301	7.8
289.515	8.15
289.729	8.1
289.943	9.06
290.157	10.25
290.371	9.93
290.584	10.02
290.798	10.62
291.012	10.37
291.226	10.39
291.44	11.38
291.654	9.79
291.867	9.34
292.081	9.32
292.295	8.79
292.509	8.14
292.722	8.47
292.936	7.87
293.15	7.08
293.364	8.51
293.577	8.61
293.791	8.33
294.005	9.55
294.218	9.67
294.432	9.87
294.645	10.51
294.859	10.35
295.073	9.12
295.286	9.66
295.5	9.77
295.713	8.69
295.927	8.75
296.14	9.09
296.354	7.86
296.568	8.63
296.781	9.22
296.994	9.34
297.208	9.57
297.421	10.64
297.635	11.13
297.848	10.82
298.062	10.33
298.275	9.61
298.489	9.5
298.702	10.04
298.915	9.3
299.129	9.02
299.342	8.16
299.555	8.05
299.769	6.5
299.982	5.48
300.195	6.22
300.409	6.68
300.622	6.18
300.835	5.84
301.048	6.63
301.262	6.68
301.475	6.08
301.688	6.47
301.901	6.41
302.115	6.96
302.328	7.12
302.541	6.3
302.754	6.52
302.967	7.62
303.18	7.69
303.393	7.11
303.607	7.73
303.82	7.66
304.033	8.47
304.246	9.21
304.459	9.11
304.672	9.35
304.885	9.88
305.098	9.94
305.311	10.11
305.524	9.44
305.737	9.3
305.95	9.23
306.163	8.96
306.376	8.53
306.589	7.03
306.802	6.12
307.015	5.29
307.228	6.39
307.44	5.93
307.653	5.27
307.866	7.34
308.079	7.9
308.292	7.66
308.505	8.43
308.718	7.79
308.93	7.94
309.143	9.26
309.356	9.4
309.569	9.04
309.781	8.63
309.994	9.24
310.207	7.79
310.42	7.85
310.632	7.49
310.845	7.17
311.058	8.25
311.27	8.09
311.483	7.7
311.696	7.73
311.908	6.81
312.121	6.94
312.333	6.6
312.546	6.76
312.759	7.15
312.971	7.38
313.184	7.68
313.396	7.52
313.609	8.12
313.821	8.29
314.034	9.36
314.246	9.98
314.459	11.32
314.671	11.49
314.884	11.84
315.096	10.6
315.309	10.84
315.521	11.61
315.733	11.27
315.946	11.83
316.158	12.63
316.371	11.87
316.583	12
316.795	9.73
317.008	8.6
317.22	8.59
317.432	8.57
317.644	9.24
317.857	8.11
318.069	7.15
318.281	6.08
318.494	6.46
318.706	6.18
318.918	5.13
319.13	7
319.342	7.2
319.555	6.94
319.767	6.63
319.979	5.14
320.191	5.61
320.403	6.7
320.615	7.06
320.827	5.24
321.039	3.49
321.252	4.62
321.464	4.19
321.676	4.47
321.888	4.13
322.1	5.27
322.312	5.37
322.524	5.89
322.736	5.65
322.948	6.25
323.16	6.82
323.372	7.96
323.584	7.52
323.796	7.7
324.007	8.26
324.219	9.33
324.431	9.15
324.643	9.36
324.855	9.24
325.067	9.62
325.279	9.25
325.491	9.5
325.702	9.92
325.914	9.53
326.126	9.32
326.338	9.39
326.55	8.54
326.761	7.73
326.973	7.77
327.185	7.15
327.396	6.74
327.608	6.82
327.82	6.45
328.032	6.45
328.243	7.14
328.455	6.78
328.666	5.77
328.878	6.13
329.09	6.63
329.301	7.9
329.513	8.23
329.725	8.75
329.936	8.76
330.148	9.43
330.359	10.16
330.571	10.05
330.782	10.11
330.994	11.47
331.205	11.71
331.417	12.34
331.628	10.68
331.84	9.83
332.051	8.92
332.262	9.3
332.474	9.38
332.685	8.78
332.897	9.31
333.108	9.26
333.319	8.26
333.531	7.88
333.742	7.54
333.953	7.98
334.165	9.23
334.376	8.99
334.587	8.58
334.799	7.85
335.01	7.25
335.221	6.89
335.432	7.66
335.644	7.54
335.855	7.43
336.066	7.56
336.277	7.55
336.488	6.03
336.7	6.55
336.911	5.72
337.122	5.88
337.333	6.81
337.544	6.03
337.755	4.62
337.966	4.56
338.177	4.89
338.388	4.4
338.599	4.47
338.811	5.89
339.022	4.95
339.233	5.62
339.444	6.07
339.655	5.31
339.866	5.93
340.076	6.36
340.287	6.69
340.498	6.8
340.709	7.6
340.92	7.12
341.131	6.21
341.342	7.19
341.553	7.35
341.764	6.46
341.975	6.75
342.185	6.78
342.396	6.89
342.607	7.38
342.818	6.9
343.029	7.08
343.239	7.17
343.45	7.14
343.661	7.08
343.872	7.58
344.082	7.51
344.293	7.58
344.504	8.03
344.714	7.86
344.925	7.57
345.136	7.51
345.346	7.3
345.557	7.35
345.768	7.87
345.978	7.72
346.189	6.38
346.399	6.23
346.61	5.99
346.821	5.62
347.031	6.22
347.242	6.37
347.452	6.43
347.663	6.39
347.873	6.25
348.084	6.38
348.294	5.62
348.504	6.8
348.715	7.91
348.925	8.16
349.136	7.94
349.346	7.27
349.557	7.46
349.767	7.43
349.977	7.04
350.188	6.88
350.398	6.03
350.608	6.92
350.819	5.9
351.029	5.77
351.239	6.26
351.449	5.62
351.66	5.44
351.87	4.66
352.08	4.21
352.29	4.81
352.501	4.74
352.711	5.31
352.921	4.99
353.131	5.22
353.341	4.35
353.552	3.94
353.762	4.44
353.972	5.1
354.182	5.17
354.392	6.07
354.602	5.6
354.812	6.1
355.022	5.67
355.232	6.3
355.442	7.19
355.652	7.07
355.862	7.14
356.072	6.87
356.282	7.05
356.492	7.21
356.702	6.86
356.912	6.94
357.122	7.16
357.332	7.54
357.542	6.59
357.752	5.81
357.962	6.26
358.171	6.13
358.381	6.76
358.591	6.45
358.801	6.66
359.011	6.74
359.221	6.49
359.43	6.04
359.64	5.85
359.85	6.24
360.06	6.81
360.269	7.11
360.479	6.78
360.689	6.2
360.899	6.11
361.108	6.02
361.318	5.84
361.528	5.98
361.737	5.77
361.947	5.67
362.156	5.67
362.366	5.64
362.576	5.79
362.785	5.97
362.995	6.12
363.204	6.51
363.414	6.24
363.623	6.45
363.833	6.53
364.042	7.07
364.252	7.37
364.461	7.02
364.671	6.67
364.88	6.38
365.09	6.4
365.299	6.42
365.509	6.43
365.718	6.95
365.927	6.88
366.137	6.74
366.346	6.15
366.555	5.48
366.765	6.52
366.974	6.58
367.183	6.12
367.393	5.9
367.602	6.38
367.811	6.45
368.021	6.42
368.23	6.25
368.439	6.03
368.648	6
368.857	6.61
369.067	6.04
369.276	6.41
369.485	6.25
369.694	5.74
369.903	5.06
370.112	4.71
370.321	4.43
370.531	4.48
370.74	4.58
370.949	4.92
371.158	4.73
371.367	4.94
371.576	4.49
371.785	4.99
371.994	5.4
372.203	5.87
372.412	6.17
372.621	6.15
372.83	6.37
373.039	6.52
373.248	6.75
373.457	7.02
373.666	7.17
373.874	7.15
374.083	6.98
374.292	7.36
374.501	7.16
374.71	7.11
374.919	6.93
375.128	6.84
375.336	6.51
375.545	6.43
375.754	6.05
375.963	5.67
376.171	5.73
376.38	5.65
376.589	5.34
376.798	4.99
377.006	4.71
377.215	4.93
377.424	4.79
377.632	5.03
377.841	5.14
378.05	5.49
378.258	5.6
378.467	5.59
378.675	5.72
378.884	5.95
379.093	6.32
379.301	6.47
379.51	6.54
379.718	6.62
379.927	6.39
380.135	6.45
380.344	6.11
380.552	6.29
380.761	6.47
380.969	6.41
381.177	6.05
381.386	5.81
381.594	5.74
381.803	5.5
382.011	5.69
382.219	5.94
382.428	5.79
382.636	5.84
382.845	5.74
383.053	5.66
383.261	5.69
383.469	6.06
383.678	6.36
383.886	6.14
384.094	6.11
384.302	5.97
384.511	5.85
384.719	5.85
384.927	5.91
385.135	6.07
385.343	6.04
385.552	5.91
385.76	5.75
385.968	5.56
386.176	5.37
386.384	5.35
386.592	5.11
386.8	5.15
387.008	4.84
387.216	4.75
387.424	4.33
387.633	4.34
387.841	4.06
388.049	3.93
388.257	3.74
388.465	3.86
388.672	4.08
388.88	3.96
389.088	3.98
389.296	4.06
389.504	4.14
389.712	4.06
389.92	3.76
390.128	3.8
390.336	4.24
390.544	4.22
390.751	4.59
390.959	4.43
391.167	4.7
391.375	4.58
391.583	4.17
391.79	3.9
391.998	4.16
392.206	4.44
392.414	4.86
392.621	4.49
392.829	4.58
393.037	4.52
393.244	4.41
393.452	4.13
393.66	3.97
393.867	4.49
394.075	4.61
394.283	4.16
394.49	3.89
394.698	3.76
394.905	3.7
395.113	3.81
395.32	3.86
395.528	4.26
395.735	4.58
395.943	4.6
396.15	4.24
396.358	4.18
396.565	4.65
396.773	4.7
396.98	4.64
397.188	4.91
397.395	4.62
397.602	4.36
397.81	3.81
398.017	3.5
398.225	3.36
398.432	3.51
398.639	3.36
398.847	3.18
399.054	3.49
399.261	3.66
399.468	3.64
399.676	3.55
399.883	3.44
400.09	3.54
400.297	4.08
400.505	4.23
400.712	4.47
400.919	4.94
401.126	5.16
401.333	4.94
401.54	4.68
401.748	4.66
401.955	5.03
402.162	5.15
402.369	5.31
402.576	5.04
402.783	5.18
402.99	4.93
403.197	4.66
403.404	4.37
403.611	4.55
403.818	4.71
404.025	4.71
404.232	4.46
404.439	4.64
404.646	4.49
404.853	4.54
405.06	4.51
405.267	4.66
405.474	4.74
405.681	4.83
405.887	4.82
406.094	4.59
406.301	4.71
406.508	4.66
406.715	4.3
406.922	3.93
407.128	3.81
407.335	3.79
407.542	3.96
407.749	3.87
407.955	3.98
408.162	3.8
408.369	3.89
408.575	3.71
408.782	3.7
408.989	3.81
409.195	4.38
409.402	4.35
409.609	4.06
409.815	3.64
410.022	3.77
410.228	3.75
410.435	3.76
410.642	3.63
410.848	3.45
411.055	3.57
411.261	3.85
411.468	3.72
411.674	3.74
411.881	4.24
412.087	4.24
412.294	4.06
412.5	3.85
412.706	3.79
412.913	4.04
413.119	4.05
413.326	3.97
413.532	4
413.738	3.94
413.945	3.91
414.151	3.84
414.357	4.13
414.564	4.27
414.77	4.33
414.976	4.38
415.182	4.25
415.389	4.39
415.595	4.46
415.801	4.11
416.007	4.11
416.214	3.98
416.42	3.9
416.626	3.74
416.832	3.83
417.038	3.91
417.244	3.75
417.45	3.81
417.657	3.9
417.863	3.92
418.069	4.03
418.275	4.22
418.481	4.26
418.687	4.18
418.893	4.23
419.099	4.04
419.305	4.19
419.511	4.28
419.717	4.3
419.923	4.19
420.129	4.09
420.335	4.02
420.541	3.91
420.746	3.9
420.952	3.96
421.158	3.92
421.364	3.9
421.57	3.79
421.776	3.83
421.982	3.82
422.187	3.91
422.393	3.76
422.599	3.77
422.805	3.68
423.01	3.61
423.216	3.45
423.422	3.3
423.628	3.35
423.833	3.25
424.039	3.14
424.245	3.12
424.45	3.09
424.656	3.31
424.862	3.31
425.067	3.28
425.273	3.31
425.478	3.33
425.684	3.52
425.889	3.59
426.095	3.66
426.301	3.64
426.506	3.69
426.712	3.56
426.917	3.61
427.123	3.63
427.328	3.63
427.533	3.76
427.739	3.95
427.944	3.84
428.15	3.78
428.355	3.64
428.561	3.7
428.766	3.65
428.971	3.66
429.177	3.57
429.382	3.6
429.587	3.82
429.793	3.7
429.998	3.43
430.203	3.45
430.408	3.43
430.614	3.56
430.819	3.5
431.024	3.43
431.229	3.48
431.434	3.34
431.64	3.22
431.845	3.42
432.05	3.55
432.255	3.62
432.46	3.6
432.665	3.52
432.87	3.56
433.076	3.62
433.281	3.5
433.486	3.73
433.691	3.88
433.896	3.89
434.101	3.49
434.306	3.33
434.511	3.34
434.716	3.44
434.921	3.42
435.126	3.57
435.331	3.51
435.535	3.57
435.74	3.32
435.945	3.3
436.15	3.2
436.355	3.48
436.56	3.61
436.765	3.66
436.97	3.54
437.174	3.56
437.379	3.3
437.584	3.25
437.789	3.33
437.993	3.22
438.198	3.13
438.403	3.07
438.608	3.03
438.812	2.86
439.017	2.87
439.222	2.98
439.426	3
439.631	2.94
439.836	3.23
440.04	3.25
440.245	3.37
440.45	3.47
440.654	3.68
440.859	3.62
441.063	3.77
441.268	3.74
441.472	3.69
441.677	3.74
441.881	3.86
442.086	3.54
442.29	3.47
442.495	3.45
442.699	3.39
442.904	3.34
443.108	3.29
443.312	3.23
443.517	3.19
443.721	3.23
443.925	3.25
444.13	3.17
444.334	3.38
444.538	3.38
444.743	3.43
444.947	3.41
445.151	3.33
445.356	3.46
445.56	3.57
445.764	3.6
445.968	3.62
446.173	3.64
446.377	3.67
446.581	3.61
446.785	3.6
446.989	3.52
447.193	3.39
447.398	3.3
447.602	3.17
447.806	3.03
448.01	2.89
448.214	2.77
448.418	2.64
448.622	2.58
448.826	2.69
449.03	2.69
449.234	2.59
449.438	2.6
449.642	2.61
449.846	2.68
450.05	2.75
450.254	2.93
450.458	2.89
450.662	2.94
450.866	2.94
451.069	2.75
451.273	2.7
451.477	2.7
451.681	2.89
451.885	3.01
452.089	2.99
452.292	2.85
452.496	2.86
452.7	2.87
452.904	2.72
453.107	2.72
453.311	2.84
453.515	2.84
453.719	3.02
453.922	2.99
454.126	2.93
454.33	3
454.533	2.96
454.737	2.75
454.94	2.81
455.144	2.95
455.348	2.95
455.551	2.92
455.755	2.91
455.958	2.77
456.162	2.7
456.365	2.81
456.569	2.77
456.772	2.9
456.976	3.23
457.179	3.38
457.383	3.36
457.586	3.41
457.79	3.36
457.993	3.33
458.196	3.36
458.4	3.62
458.603	3.52
458.807	3.5
459.01	3.54
459.213	3.48
459.417	3.47
459.62	3.42
459.823	3.48
460.026	3.49
460.23	3.5
460.433	3.46
460.636	3.23
460.839	3.22
461.042	3.27
461.246	3.27
461.449	3.11
461.652	3.02
461.855	3.02
462.058	2.89
462.261	2.99
462.464	3.09
462.668	3.06
462.871	3.09
463.074	3.06
463.277	2.98
463.48	2.9
463.683	3.06
463.886	3.16
464.089	3.13
464.292	3.23
464.495	3.18
464.698	2.92
464.901	2.93
465.104	3
465.306	3.14
465.509	3.17
465.712	3.17
465.915	3.04
466.118	2.98
466.321	3.19
466.524	3.19
466.726	2.85
466.929	2.98
467.132	3.15
467.335	3.15
467.538	2.96
467.74	2.86
467.943	2.78
468.146	2.8
468.348	2.79
468.551	2.68
468.754	2.69
468.956	2.96
469.159	3.05
469.362	3.04
469.564	2.91
469.767	3.15
469.969	3.25
470.172	3.44
470.375	3.51
470.577	3.47
470.78	3.53
470.982	3.56
471.185	3.54
471.387	3.37
471.59	3.35
471.792	3.51
471.995	3.34
472.197	3.41
472.399	3.48
472.602	3.47
472.804	3.37
473.007	3.36
473.209	3.17
473.411	3.06
473.614	3.23
473.816	3.29
474.018	3.3
474.22	3.4
474.423	3.25
474.625	3.02
474.827	3.08
475.03	3.07
475.232	3.02
475.434	3.11
475.636	3.07
475.838	3.16
476.04	2.96
476.243	2.84
476.445	2.74
476.647	2.77
476.849	2.89
477.051	2.8
477.253	2.97
477.455	2.94
477.657	2.92
477.859	2.97
478.061	2.85
478.263	2.99
478.465	2.97
478.667	3.03
478.869	3.24
479.071	3.07
479.273	3.03
479.475	2.79
479.677	2.87
479.879	2.99
480.081	2.97
480.283	3.05
480.485	2.88
480.686	3.01
480.888	2.92
481.09	2.83
481.292	3.01
481.494	3.14
481.695	3.29
481.897	3.29
482.099	3.13
482.301	3.21
482.502	3.15
482.704	3.17
482.906	3.19
483.107	3.24
483.309	3.21
483.511	3.19
483.712	3.17
483.914	3.15
484.115	3.13
484.317	3.21
484.519	3.21
484.72	3.26
484.922	3.24
485.123	3.25
485.325	3.24
485.526	3.23
485.728	3.22
485.929	3.23
486.131	3.2
486.332	3.22
486.534	3.16
486.735	3.17
486.936	3.11
487.138	3.15
487.339	3.08
487.541	3.14
487.742	3.17
487.943	3.13
488.144	3.1
488.346	3.17
488.547	3.21
488.748	3.26
488.95	3.23
489.151	3.26
489.352	3.23
489.553	3.36
489.755	3.26
489.956	3.24
490.157	3.26
490.358	3.33
490.559	3.33
490.76	3.28
490.961	3.21
491.163	3.23
491.364	3.23
491.565	3.33
491.766	3.21
491.967	3.34
492.168	3.34
492.369	3.36
492.57	3.27
492.771	3.18
492.972	3.13
493.173	3.2
493.374	3.19
493.575	3.2
493.776	3.14
493.976	3.17
494.177	3.12
494.378	3.21
494.579	3.09
494.78	3.22
494.981	3.35
495.182	3.53
495.382	3.37
495.583	3.42
495.784	3.33
495.985	3.41
496.185	3.41
496.386	3.39
496.587	3.35
496.788	3.49
496.988	3.54
497.189	3.39
497.39	3.44
497.59	3.57
497.791	3.46
497.992	3.43
498.192	3.45
498.393	3.54
498.593	3.57
498.794	3.55
498.994	3.55
499.195	3.49
499.395	3.57
499.596	3.47
499.796	3.38
499.997	3.38
500.197	3.41
500.398	3.27
500.598	3.25
500.799	3.2
500.999	3.13
501.199	3.21
501.4	3.12
501.6	3.19
501.801	3.08
502.001	3.1
502.201	3.14
502.402	3.26
502.602	3.42
502.802	3.42
503.002	3.51
503.203	3.54
503.403	3.39
503.603	3.47
503.803	3.48
504.003	3.61
504.204	3.65
504.404	3.58
504.604	3.51
504.804	3.52
505.004	3.53
505.204	3.4
505.404	3.4
505.604	3.4
505.804	3.53
506.005	3.5
506.205	3.47
506.405	3.54
506.605	3.79
506.805	3.75
507.005	3.67
507.204	3.7
507.404	3.71
507.604	3.74
507.804	3.81
508.004	3.91
508.204	4.03
508.404	4.03
508.604	4.02
508.804	3.95
509.003	4.05
509.203	4.01
509.403	3.95
509.603	4
509.803	4.03
510.002	4.05
510.202	3.81
510.402	3.79
510.602	3.82
510.801	3.87
511.001	3.9
511.201	3.83
511.4	3.94
511.6	4.11
511.8	4.18
511.999	4.21
512.199	4.21
512.398	4.28
512.598	4.35
512.797	4.47
512.997	4.44
513.197	4.47
513.396	4.59
513.596	4.53
513.795	4.47
513.994	4.59
514.194	4.7
514.393	4.78
514.593	4.88
514.792	4.81
514.992	4.7
515.191	4.86
515.39	4.86
515.59	4.95
515.789	5.01
515.988	5
516.188	4.84
516.387	4.77
516.586	4.76
516.786	4.69
516.985	4.72
517.184	4.65
517.383	4.49
517.582	4.55
517.782	4.5
517.981	4.53
518.18	4.54
518.379	4.6
518.578	4.71
518.777	4.64
518.976	4.73
519.176	4.78
519.375	4.94
519.574	4.97
519.773	4.94
519.972	4.99
520.171	4.99
520.37	5.05
520.569	5.09
520.768	5
520.967	5.12
521.166	5.15
521.365	5.21
521.564	5.1
521.762	5.1
521.961	5.19
522.16	5.14
522.359	5.22
522.558	5.23
522.757	5.25
522.956	5.33
523.154	5.33
523.353	5.44
523.552	5.41
523.751	5.4
523.949	5.47
524.148	5.42
524.347	5.56
524.546	5.56
524.744	5.63
524.943	5.7
525.142	5.75
525.34	5.72
525.539	5.7
525.737	5.72
525.936	5.84
526.135	5.87
526.333	5.96
526.532	6.01
526.73	6.08
526.929	6.03
527.127	5.98
527.326	5.91
527.524	6.02
527.723	6.04
527.921	6.12
528.12	6.14
528.318	6.17
528.516	6.12
528.715	6.11
528.913	6.14
529.112	6.22
529.31	6.21
529.508	6.25
529.707	6.2
529.905	6.26
530.103	6.22
530.301	6.19
530.5	6.22
530.698	6.26
530.896	6.33
531.094	6.33
531.293	6.33
531.491	6.41
531.689	6.48
531.887	6.59
532.085	6.61
532.283	6.64
532.481	6.67
532.68	6.71
532.878	6.75
533.076	6.83
533.274	6.82
533.472	6.77
533.67	6.89
533.868	6.84
534.066	6.85
534.264	6.83
534.462	6.88
534.66	7.01
534.858	6.95
535.056	6.93
535.253	6.77
535.451	6.86
535.649	7.07
535.847	7.06
536.045	7.22
536.243	7.3
536.441	7.41
536.638	7.43
536.836	7.41
537.034	7.58
537.232	7.78
537.43	7.97
537.627	7.98
537.825	7.92
538.023	7.9
538.22	7.94
538.418	7.95
538.616	7.81
538.813	7.82
539.011	7.95
539.209	8.01
539.406	7.97
539.604	7.93
539.801	8.03
539.999	8.05
540.196	8.17
540.394	8.14
540.591	8.19
540.789	8.3
540.986	8.39
541.184	8.35
541.381	8.35
541.579	8.38
541.776	8.38
541.974	8.39
542.171	8.47
542.368	8.5
542.566	8.52
542.763	8.53
542.96	8.57
543.158	8.58
543.355	8.66
543.552	8.72
543.75	8.83
543.947	8.96
544.144	8.96
544.341	9.05
544.539	9.06
544.736	9.21
544.933	9.31
545.13	9.42
545.327	9.42
545.524	9.44
545.722	9.43
545.919	9.39
546.116	9.31
546.313	9.35
546.51	9.26
546.707	9.3
546.904	9.35
547.101	9.43
547.298	9.43
547.495	9.55
547.692	9.63
547.889	9.74
548.086	9.9
548.283	10.03
548.48	10.11
548.677	10.24
548.874	10.41
549.07	10.49
549.267	10.41
549.464	10.59
549.661	10.57
549.858	10.8
550.055	10.73
550.251	10.67
550.448	10.84
550.645	11.12
550.842	11.23
551.038	11.07
551.235	11.17
551.432	11.36
551.628	11.41
551.825	11.53
552.022	11.41
552.218	11.55
552.415	11.7
552.612	11.58
552.808	11.45
553.005	11.56
553.201	11.75
553.398	11.78
553.594	11.77
553.791	11.8
553.987	12.11
554.184	12.08
554.38	12.08
554.577	12.15
554.773	12.41
554.97	12.63
555.166	12.65
555.362	12.6
555.559	12.68
555.755	12.72
555.952	12.74
556.148	12.61
556.344	12.84
556.541	13.01
556.737	12.95
556.933	12.98
557.129	12.81
557.326	12.96
557.522	13.11
557.718	13.19
557.914	13.49
558.11	13.42
558.307	13.53
558.503	13.52
558.699	13.52
558.895	13.57
559.091	13.55
559.287	13.75
559.483	13.67
559.679	13.77
559.876	13.76
560.072	13.73
560.268	13.95
560.464	13.75
560.66	13.71
560.856	13.93
561.052	14.07
561.247	14.31
561.443	14.37
561.639	14.39
561.835	14.37
562.031	14.4
562.227	14.47
562.423	14.59
562.619	14.82
562.815	15.04
563.01	15.05
563.206	15.16
563.402	15.03
563.598	15.24
563.793	15.41
563.989	15.56
564.185	15.7
564.381	15.9
564.576	15.9
564.772	16.13
564.968	16.21
565.163	16.42
565.359	16.44
565.555	16.54
565.75	16.56
565.946	16.55
566.141	16.5
566.337	16.52
566.532	16.64
566.728	16.84
566.923	16.78
567.119	16.85
567.314	16.73
567.51	16.91
567.705	17.07
567.901	17.05
568.096	17.22
568.292	17.33
568.487	17.42
568.682	17.4
568.878	17.46
569.073	17.42
569.268	17.55
569.464	17.66
569.659	17.66
569.854	17.72
570.05	17.96
570.245	18.02
570.44	18.11
570.635	18.31
570.831	18.24
571.026	18.19
571.221	18.44
571.416	18.38
571.611	18.49
571.806	18.44
572.002	18.51
572.197	18.54
572.392	18.62
572.587	18.77
572.782	18.59
572.977	18.86
573.172	19.05
573.367	19.03
573.562	19.29
573.757	19.39
573.952	19.49
574.147	19.68
574.342	19.75
574.537	19.83
574.732	19.95
574.927	19.98
575.121	19.83
575.316	19.84
575.511	19.93
575.706	19.87
575.901	19.77
576.096	19.89
576.29	19.86
576.485	19.78
576.68	19.82
576.875	19.8
577.069	20.08
577.264	20.09
577.459	20.11
577.654	20.27
577.848	20.38
578.043	20.66
578.238	20.7
578.432	20.52
578.627	20.62
578.821	20.62
579.016	20.47
579.21	20.51
579.405	20.75
579.6	20.79
579.794	20.8
579.989	20.75
580.183	20.62
580.378	20.66
580.572	21
580.766	21.08
580.961	21
581.155	21.19
581.35	21.23
581.544	21.24
581.738	21.29
581.933	21.39
582.127	21.52
582.321	21.58
582.516	21.8
582.71	21.93
582.904	21.9
583.099	22.17
583.293	22.24
583.487	22.15
583.681	22.38
583.875	22.47
584.07	22.5
584.264	22.54
584.458	22.66
584.652	22.67
584.846	22.4
585.04	22.54
585.234	22.6
585.428	22.79
585.623	22.96
585.817	22.93
586.011	22.99
586.205	22.87
586.399	23
586.593	22.99
586.787	22.8
586.981	22.95
587.174	22.89
587.368	23.05
587.562	22.83
587.756	22.92
587.95	22.86
588.144	22.88
588.338	23.01
588.532	23
588.725	23.19
588.919	23.38
589.113	23.47
589.307	23.59
589.501	23.44
589.694	23.67
589.888	23.84
590.082	23.78
590.275	23.81
590.469	23.77
590.663	23.95
590.856	23.8
591.05	23.67
591.244	23.65
591.437	23.72
591.631	23.89
591.824	23.91
592.018	23.61
592.212	23.75
592.405	23.86
592.599	24.12
592.792	24.25
592.986	24.4
593.179	24.53
593.372	24.77
593.566	24.92
593.759	24.97
593.953	25
594.146	25.25
594.339	25.44
594.533	25.18
594.726	25.11
594.92	25
595.113	25.04
595.306	25.28
595.499	25.24
595.693	25.28
595.886	25.43
596.079	25.46
596.272	25.59
596.466	25.67
596.659	25.99
596.852	26.09
597.045	26.18
597.238	26.16
597.431	25.97
597.624	25.99
597.818	26.08
598.011	26.02
598.204	26.31
598.397	26.17
598.59	25.97
598.783	25.84
598.976	25.7
599.169	25.67
599.362	25.66
599.555	25.63
599.748	25.56
599.941	25.27
600.134	25.41
600.326	25.14
600.519	25.14
600.712	25.08
600.905	25.26
601.098	25.51
601.291	25.44
601.483	25.63
601.676	25.85
601.869	26.06
602.062	26.35
602.255	26.24
602.447	26.47
602.64	26.68
602.833	26.96
603.025	27.24
603.218	27.23
603.411	27.37
603.603	27.33
603.796	27.41
603.989	27.35
604.181	27.09
604.374	27.27
604.566	27.15
604.759	27.17
604.951	27.13
605.144	26.94
605.336	26.95
605.529	26.82
605.721	26.84
605.914	26.84
606.106	26.9
606.299	27.22
606.491	27.01
606.683	26.94
606.876	26.87
607.068	26.87
607.26	26.84
607.453	26.84
607.645	27.01
607.837	27.13
608.03	27.46
608.222	27.51
608.414	27.44
608.606	27.71
608.799	28.02
608.991	28.32
609.183	28.42
609.375	28.49
609.567	28.49
609.759	28.41
609.952	28.51
610.144	28.21
610.336	28.33
610.528	28.31
610.72	28.28
610.912	28.19
611.104	28.08
611.296	27.99
611.488	28.04
611.68	27.92
611.872	28.13
612.064	27.9
612.256	27.8
612.448	27.61
612.64	27.77
612.832	27.74
613.023	27.87
613.215	27.74
613.407	27.72
613.599	27.67
613.791	28.08
613.983	28.06
614.174	28.12
614.366	28.55
614.558	28.46
614.75	28.49
614.941	28.62
615.133	28.55
615.325	28.49
615.516	28.76
615.708	28.89
615.9	28.52
616.091	28.5
616.283	28.62
616.475	28.61
616.666	28.95
616.858	29.23
617.049	29.25
617.241	29.12
617.432	29.34
617.624	29.42
617.815	29.28
618.007	29.53
618.198	29.53
618.39	29.64
618.581	29.69
618.773	29.52
618.964	29.47
619.155	29.4
619.347	29.31
619.538	29.51
619.729	29.46
619.921	29.73
620.112	29.82
620.303	29.95
620.494	29.88
620.686	29.79
620.877	29.83
621.068	29.38
621.259	29.49
621.451	30.13
621.642	29.91
621.833	30.06
622.024	29.89
622.215	29.62
622.406	29.57
622.597	29.59
622.788	29.76
622.98	29.7
623.171	30.05
623.362	30.04
623.553	29.96
623.744	30.26
623.935	30.35
624.126	30.51
624.317	30.66
624.508	30.81
624.698	30.86
624.889	30.79
625.08	31.26
625.271	31.43
625.462	31.45
625.653	31.3
625.844	31.32
626.034	31.22
626.225	31.21
626.416	31.45
626.607	31.58
626.798	31.61
626.988	31.43
627.179	31.24
627.37	31
627.56	31.07
627.751	31.07
627.942	30.89
628.132	30.97
628.323	31.07
628.514	31.11
628.704	31.08
628.895	30.95
629.085	31.32
629.276	31.53
629.466	31.82
629.657	31.77
629.847	31.94
630.038	32.14
630.228	32.26
630.419	32.16
630.609	32.12
630.8	32.31
630.99	32.82
631.181	32.69
631.371	32.47
631.561	32.56
631.752	32.52
631.942	32.55
632.132	32.38
632.323	32.13
632.513	32.05
632.703	31.87
632.893	31.22
633.084	30.96
633.274	31.02
633.464	31.17
633.654	30.84
633.844	30.8
634.034	30.53
634.225	30.67
634.415	30.71
634.605	30.69
634.795	31.18
634.985	31.35
635.175	31.34
635.365	31.14
635.555	31.14
635.745	31.35
635.935	31.68
636.125	31.86
636.315	31.96
636.505	32.02
636.695	32.11
636.885	31.57
637.075	31.88
637.265	32.25
637.455	32.33
637.644	32.48
637.834	32.64
638.024	32.39
638.214	32.35
638.404	32.48
638.593	32.61
638.783	32.87
638.973	33.04
639.163	32.89
639.352	32.59
639.542	32.73
639.732	32.52
639.921	32.28
640.111	32.41
640.301	32.62
640.49	32.62
640.68	32.45
640.87	32.52
641.059	32.98
641.249	33.09
641.438	33.26
641.628	33.18
641.817	33.26
642.007	33.37
642.196	33.45
642.386	33.31
642.575	32.99
642.764	33.43
642.954	33.36
643.143	33.43
643.333	33.48
643.522	33.49
643.711	33.85
643.901	33.69
644.09	33.98
644.279	34.09
644.469	34.27
644.658	34.62
644.847	34.06
645.036	33.96
645.226	33.68
645.415	33.56
645.604	33.32
645.793	32.94
645.982	32.93
646.171	32.64
646.361	32.61
646.55	32.35
646.739	32.42
646.928	32.48
647.117	32.97
647.306	32.73
647.495	32.64
647.684	32.68
647.873	32.88
648.062	33.32
648.251	33.29
648.44	32.88
648.629	33.17
648.818	33.24
649.007	33.31
649.196	32.92
649.384	33.06
649.573	33.29
649.762	33.47
649.951	33.79
650.14	33.77
650.328	34.04
650.517	34.59
650.706	34.72
650.895	34.43
651.083	34.73
651.272	34.47
651.461	34.68
651.65	34.98
651.838	35.14
652.027	34.94
652.216	34.59
652.404	34.58
652.593	34.23
652.781	33.78
652.97	34.32
653.158	34.33
653.347	34.7
653.535	34.53
653.724	34.55
653.912	34.75
654.101	34.72
654.289	34.94
654.478	35.26
654.666	35.4
654.855	35.73
655.043	35.28
655.231	35.42
655.42	35.4
655.608	35.47
655.796	35.1
655.985	34.99
656.173	34.99
656.361	35.1
656.55	34.51
656.738	34.49
656.926	34.4
657.114	34.54
657.302	34.2
657.491	34.3
657.679	34.22
657.867	34.52
658.055	34.59
658.243	35.02
658.431	35.41
658.619	35.73
658.807	35.81
658.996	36.04
659.184	35.95
659.372	36.24
659.56	36.22
659.748	36.33
659.936	36.52
660.124	36.55
660.311	36.43
660.499	35.78
660.687	35.84
660.875	36.15
661.063	36.03
661.251	35.93
661.439	35.54
661.627	36.07
661.814	36.06
662.002	35.61
662.19	35.61
662.378	35.56
662.565	35.97
662.753	35.95
662.941	35.6
663.129	35.56
663.316	35.66
663.504	36.07
663.692	35.36
663.879	35.5
664.067	35.58
664.254	35.33
664.442	35.4
664.63	35.4
664.817	35.13
665.005	35.2
665.192	35.56
665.38	35.74
665.567	35.95
665.755	36.23
665.942	36.43
666.13	36.77
666.317	36.92
666.504	36.44
666.692	36.46
666.879	36.47
667.067	36.56
667.254	36.45
667.441	36.67
667.629	36.16
667.816	35.75
668.003	35.31
668.19	35.41
668.378	35.56
668.565	35.83
668.752	36.4
668.939	36.64
669.127	36.74
669.314	36.95
669.501	36.56
669.688	36.8
669.875	37.2
670.062	37.67
670.249	37.27
670.436	37.17
670.623	37.6
670.81	37.02
670.997	36.88
671.184	36.52
671.371	36.62
671.558	36.8
671.745	36.9
671.932	36.7
672.119	36.4
672.306	36.64
672.493	36.44
672.68	36.17
672.867	36.42
673.054	36.44
673.24	37
673.427	36.92
673.614	37.15
673.801	37.57
673.988	37.81
674.174	38.05
674.361	38.21
674.548	38.51
674.734	38.63
674.921	38.31
675.108	38.67
675.294	38.43
675.481	38.36
675.668	38.14
675.854	37.82
676.041	37.94
676.227	37.79
676.414	37.61
676.601	37.39
676.787	37.61
676.974	38.24
677.16	37.6
677.347	37.77
677.533	37.36
677.719	37.7
677.906	37.54
678.092	37.1
678.279	37.42
678.465	37.6
678.651	37.91
678.838	37.62
679.024	37.19
679.21	37.17
679.397	37.44
679.583	38.12
679.769	38.02
679.955	38.18
680.142	38.61
680.328	38.74
680.514	38.67
680.7	38.71
680.886	38.79
681.073	38.93
681.259	39.19
681.445	38.96
681.631	38.59
681.817	38.7
682.003	38.74
682.189	38.25
682.375	37.87
682.561	38.13
682.747	37.96
682.933	37.6
683.119	37.69
683.305	37.93
683.491	37.86
683.677	38.16
683.863	37.85
684.049	38.06
684.235	38.47
684.42	38.59
684.606	38.29
684.792	38.54
684.978	38.84
685.164	39.01
685.349	39.79
685.535	39.89
685.721	39.53
685.907	39.55
686.092	39.6
686.278	39.9
686.464	40.06
686.649	40.02
686.835	39.83
687.021	39.98
687.206	39.68
687.392	38.8
687.577	38.46
687.763	38.48
687.948	38.49
688.134	37.9
688.319	37.48
688.505	37.18
688.69	37.47
688.876	37.47
689.061	37.26
689.247	37.52
689.432	37.68
689.618	37.74
689.803	37.83
689.988	38.25
690.174	38.73
690.359	38.85
690.544	38.75
690.73	38.71
690.915	38.83
691.1	38.9
691.285	39
691.471	39.49
691.656	39.84
691.841	39.79
692.026	39.58
692.211	39.43
692.396	39.32
692.582	39.55
692.767	39.69
692.952	39.51
693.137	40.13
693.322	39.87
693.507	39.28
693.692	39.3
693.877	39.5
694.062	39.26
694.247	39.06
694.432	39.91
694.617	39.95
694.802	39.46
694.987	39.74
695.172	39.17
695.357	39.31
695.541	39.45
695.726	39.56
695.911	40.21
696.096	40.59
696.281	40.81
696.466	40.51
696.65	40.76
696.835	41.17
697.02	41.38
697.204	41.72
697.389	41.78
697.574	42.01
697.759	41.58
697.943	41.29
698.128	41.25
698.312	41.01
698.497	40.96
698.682	40.94
698.866	40.93
699.051	40.89
699.235	40.9
699.42	40.65
699.604	40.3
699.789	40.51
699.973	40.43
700.158	40.07
700.342	40.27
700.527	40.55
700.711	40.26
700.895	40.44
701.08	40.45
701.264	40.03
701.448	40.51
701.633	40.84
701.817	40.92
702.001	40.71
702.186	41.42
702.37	41.27
702.554	41.11
702.738	41.16
702.923	40.96
703.107	40.83
703.291	41.43
703.475	41.36
703.659	41.1
703.843	41.54
704.027	41.46
704.212	40.7
704.396	41.36
704.58	41.29
704.764	41.48
704.948	41.2
705.132	41.13
705.316	39.95
705.5	40.11
705.684	40.59
705.868	39.95
706.052	40.3
706.235	40.87
706.419	40.4
706.603	40
706.787	39.98
706.971	39.82
707.155	40.36
707.339	41.12
707.522	41.06
707.706	40.92
707.89	41.21
708.074	40.92
708.257	41.1
708.441	41.25
708.625	41.27
708.808	41.35
708.992	41.93
709.176	41.37
709.359	41.4
709.543	41.33
709.727	41.12
709.91	41.1
710.094	40.9
710.277	40.72
710.461	40.08
710.644	40.17
710.828	40.29
711.011	40.21
711.195	40.39
711.378	40.05
711.562	39.94
711.745	39.92
711.928	39.99
712.112	40.13
712.295	40.16
712.478	40.25
712.662	40.38
712.845	40.19
713.028	39.76
713.212	39.02
713.395	39.52
713.578	39.21
713.761	39.19
713.945	38.57
714.128	39.16
714.311	39.67
714.494	40.22
714.677	40.21
714.86	40.52
715.043	41.11
715.227	41.69
715.41	41.74
715.593	42.26
715.776	42.56
715.959	43.45
716.142	42.87
716.325	42.16
716.508	42.26
716.691	42.49
716.874	42.29
717.057	42.45
717.239	42.31
717.422	41.92
717.605	42.29
717.788	42.26
717.971	41.46
718.154	42.17
718.337	42.74
718.519	42.44
718.702	42.13
718.885	42.12
719.068	41.73
719.25	42.82
719.433	42.9
719.616	41.86
719.798	41.33
719.981	42.94
720.164	42.52
720.346	42.72
720.529	42.08
720.712	40.99
720.894	41.04
721.077	40.76
721.259	40.03
721.442	40.08
721.624	40.61
721.807	41.37
721.989	39.9
722.172	40.24
722.354	39.42
722.537	40.38
722.719	41.76
722.901	41.75
723.084	41.7
723.266	41.87
723.448	42
723.631	43.02
723.813	43.03
723.995	43.13
724.178	42.51
724.36	42.23
724.542	41.91
724.724	41.44
724.907	41.87
725.089	41.58
725.271	41.07
725.453	41.29
725.635	40.59
725.817	41.23
725.999	41.93
726.181	42.34
726.364	43.22
726.546	42.75
726.728	43.71
726.91	42.93
727.092	42.94
727.274	43.12
727.456	42.97
727.638	42.35
727.819	41.72
728.001	41.63
728.183	41.44
728.365	41.39
728.547	42.69
728.729	42.42
728.911	43.17
729.093	43.94
729.274	44.34
729.456	44
729.638	44.18
729.82	43.9
730.001	43.96
730.183	43.89
730.365	43.44
730.546	42.62
730.728	42.24
730.91	42.28
731.091	42.09
731.273	41.57
731.455	41.89
731.636	42.02
731.818	41.52
731.999	40.91
732.181	40.62
732.362	41.24
732.544	41.35
732.725	41.26
732.907	41.34
733.088	41.29
733.27	41.37
733.451	41.49
733.633	41.7
733.814	42.92
733.995	42.51
734.177	43.08
734.358	42.96
734.539	42.99
734.721	42.84
734.902	42
735.083	41.61
735.264	41.5
735.446	41.42
735.627	41.62
735.808	40.87
735.989	41.41
736.17	41.57
736.351	41.06
736.533	41.08
736.714	41.83
736.895	42.56
737.076	42.75
737.257	42.75
737.438	42.6
737.619	41.98
737.8	42.27
737.981	42.65
738.162	42.74
738.343	42.92
738.524	43.81
738.705	43.83
738.886	43.57
739.067	43.48
739.247	43.25
739.428	42.71
739.609	43.14
739.79	43.85
739.971	43.67
740.151	43.73
740.332	44.14
740.513	43.67
740.694	43.38
740.874	42.56
741.055	43.52
741.236	44.18
741.417	45.32
741.597	45.04
741.778	43.32
741.958	43.16
742.139	42.64
742.32	41.7
742.5	41.85
742.681	41.63
742.861	42.62
743.042	42.29
743.222	41.29
743.403	41.19
743.583	40.73
743.764	41.43
743.944	41.66
744.124	40.72
744.305	41.45
744.485	41.8
744.666	42.47
744.846	42.23
745.026	41.34
745.207	42.4
745.387	41.78
745.567	43.09
745.747	43.19
745.928	43.47
746.108	44.59
746.288	43.82
746.468	43.3
746.648	42.63
746.829	41.93
747.009	42.81
747.189	42.85
747.369	43.76
747.549	42.53
747.729	42.51
747.909	42.61
748.089	43.07
748.269	43.84
748.449	43.72
748.629	44.26
748.809	45.69
748.989	45.04
749.169	44.51
749.349	43.59
749.529	44.86
749.709	44.79
749.889	44.18
750.068	43.49
750.248	43.4
750.428	43.11
750.608	43.02
750.788	42.31
750.967	43.23
751.147	43.23
751.327	42.49
751.507	41.31
751.686	41.7
751.866	41.84
752.046	41.91
752.225	42.77
752.405	43.04
752.585	42.92
752.764	43.15
752.944	42.32
753.123	42.07
753.303	43.45
753.482	43.61
753.662	43.74
753.841	43.68
754.021	43.07
754.2	42.33
754.38	41.87
754.559	41.62
754.739	40.93
754.918	41.52
755.097	41.43
755.277	40.94
755.456	41.17
755.635	40.05
755.815	39.77
755.994	39.96
756.173	39.51
756.352	39.99
756.532	40.34
756.711	41.52
756.89	41.42
757.069	42.12
757.248	41.5
757.427	41.28
757.607	41.96
757.786	42.92
757.965	43.9
758.144	43.8
758.323	43.34
758.502	42.84
758.681	42.36
758.86	41.8
759.039	41.77
759.218	42.61
759.397	41.8
759.576	42.05
759.755	41.02
759.934	39.87
760.113	39.93
760.291	39.99
760.47	40.05
760.649	40.38
760.828	39.9
761.007	40
761.186	39.08
761.364	39.95
761.543	39.51
761.722	39.89
761.901	39.77
762.079	39.61
762.258	39.72
762.437	40.68
762.615	40.96
762.794	41.85
762.972	42.63
763.151	43.55
763.33	44.4
763.508	44.71
763.687	45.33
763.865	45.99
764.044	46.89
764.222	46.72
764.401	46.1
764.579	45.39
764.758	45.42
764.936	45.24
765.114	45.13
765.293	44.84
765.471	44.03
765.65	43.26
765.828	43.27
766.006	42.88
766.184	43.89
766.363	44.38
766.541	44.42
766.719	44.31
766.898	43.9
767.076	43.77
767.254	43.61
767.432	44.44
767.61	45.34
767.788	45.35
767.967	45.25
768.145	44.75
768.323	44.03
768.501	44.39
768.679	44.34
768.857	44.56
769.035	44.67
769.213	44.09
769.391	44.41
769.569	43.9
769.747	43.23
769.925	43.21
770.103	42.27
770.281	43.48
770.459	43.85
770.636	44.39
770.814	44.32
770.992	44.37
771.17	45.12
771.348	43.74
771.525	43.56
771.703	43.77
771.881	44.93
772.059	45.56
772.236	43.12
772.414	43.91
772.592	43.51
772.769	42.81
772.947	42.64
773.125	42.33
773.302	43.44
773.48	42.7
773.657	43.69
773.835	42.66
774.013	43.51
774.19	43.87
774.368	42.35
774.545	42.15
774.723	43.17
774.9	43.53
775.077	44.08
775.255	43.77
775.432	44.74
775.61	45.95
775.787	44.79
775.964	43.15
776.142	44.46
776.319	46.32
776.496	47.28
776.674	47.44
776.851	47.64
777.028	46.78
777.205	46.92
777.382	46.45
777.56	45.13
777.737	46.02
777.914	45.37
778.091	45.59
778.268	44.04
778.445	43.68
778.622	43.02
778.8	43.16
778.977	43.1
779.154	48.27
779.331	48.54
779.508	47.84
779.685	47.87
779.862	49.46
780.038	49.75
780.215	50.56
780.392	50.92
780.569	51.19
780.746	50.79
780.923	51.46
781.1	46.8
781.277	45.6
781.453	44.8
781.63	44.38
781.807	43.37
781.984	42.85
782.16	43.15
782.337	41.41
782.514	41.74
782.691	41.58
782.867	40.35
783.044	38.98
783.221	39.57
783.397	40.54
783.574	41.85
783.75	42.64
783.927	43.48
784.103	42.76
784.28	43.06
784.456	41.48
784.633	41.98
784.809	42.03
784.986	43.54
785.162	43.55
785.339	43.39
785.515	42.83
785.692	43.63
785.868	41.82
786.044	40.19
786.221	42.61
786.397	43.82
786.573	43.67
786.749	45.34
786.926	44.57
787.102	44.88
787.278	45.28
787.454	44.15
787.631	43.7
787.807	45.01
787.983	45.62
788.159	43.41
788.335	43.26
788.511	43.93
788.687	43.82
788.863	43.44
789.039	43.8
789.216	44.03
789.392	43.89
789.568	44.03
789.744	44.39
789.919	45.05
790.095	45.37
790.271	44.97
790.447	44.35
790.623	43.24
790.799	44.07
790.975	43.82
791.151	43.29
791.327	43.68
791.502	42.51
791.678	41.83
791.854	42.94
792.03	43.51
792.205	42.34
792.381	44.33
792.557	45.03
792.733	44.51
792.908	46.16
793.084	46.26
793.259	45.41
793.435	47.3
793.611	46.77
793.786	46.16
793.962	45.25
794.137	47.28
794.313	45.94
794.488	46.31
794.664	47.59
794.839	45.87
795.015	45.25
795.19	46.22
795.366	45.51
795.541	46.07
795.716	45.74
795.892	46.52
796.067	44.39
796.242	42.57
796.418	41.22
796.593	40.18
796.768	40.83
796.944	41.18
797.119	40.5
797.294	40.93
797.469	41.13
797.644	41.17
797.82	41.17
797.995	42.38
798.17	44.51
798.345	46.83
798.52	47
798.695	47.28
798.87	47.87
799.045	48.84
799.22	48.58
799.395	49.04
799.57	48.63
799.745	48.19
799.92	47.21
800.095	45.16
800.27	42.34
800.445	42.18
800.62	41.14
800.795	40.62
800.97	38.98
801.145	37.5
801.319	35.67
801.494	36.24
801.669	36.31
801.844	39
802.018	39.05
802.193	40.45
802.368	38.91
802.543	37.21
802.717	36.02
802.892	38.62
803.067	40.07
803.241	40.42
803.416	42.08
803.59	41.69
803.765	39.12
803.94	38.5
804.114	39
804.289	40.24
804.463	41.65
804.638	41.95
804.812	40.54
804.986	41.2
805.161	41.47
805.335	38.54
805.51	39.76
805.684	41.79
805.858	43.54
806.033	42.58
806.207	42.54
806.381	42.97
806.556	43.35
806.73	44.04
806.904	43.24
807.078	45.68
807.253	46.51
807.427	45.83
807.601	45.94
807.775	45.27
807.949	44.91
808.123	44.82
808.298	43.91
808.472	44.84
808.646	41.64
808.82	41.8
808.994	39.51
809.168	39.38
809.342	40.69
809.516	39.92
809.69	39.01
809.864	40.15
810.038	40.83
810.212	40.72
810.385	37.63
810.559	40.48
810.733	38.04
810.907	39.56
811.081	39.53
811.255	38.69
811.428	38.59
811.602	41.16
811.776	42.29
811.95	43.24
812.123	43.7
812.297	44.88
812.471	47.07
812.644	51.44
812.818	50.48
812.992	50.23
813.165	49.83
813.339	51.14
813.512	48.29
813.686	46.66
813.86	45.58
814.033	45.97
814.207	50.81
814.38	48.74
814.554	46.36
814.727	46.11
814.9	47.67
815.074	48.55
815.247	47.97
815.421	46.72
815.594	44.06
815.767	42.18
815.941	39.7
816.114	36.28
816.287	38.53
816.46	41.3
816.634	40.2
816.807	36.41
816.98	36.71
817.153	35.32
817.327	38.8
817.5	41.1
817.673	46.04
817.846	48.78
818.019	50.09
818.192	48.4
818.365	44.14
818.538	43.28
818.711	43.93
818.884	44.6
819.057	45.43
819.23	44.62
819.403	43.13
819.576	42.09
819.749	41.79
819.922	40.76
820.095	40.52
820.268	40.94
820.441	43.37
820.614	44.15
820.786	43.22
820.959	43.41
821.132	44.6
821.305	45.91
821.477	44.88
821.65	45.74
821.823	45.32
821.996	45.25
822.168	45.13
822.341	44.25
822.514	44.59
822.686	45.01
822.859	45.31
823.031	45.18
823.204	44.94
823.376	44.84
823.549	44.49
823.722	44.96
823.894	45.29
824.067	45.52
824.239	45.61
824.411	45.27
824.584	45.28
824.756	44.7
824.929	44.63
825.101	44.8
825.273	44.98
825.446	44.83
825.618	44.37
825.79	43.84
825.963	44.18
826.135	44.51
826.307	45.34
826.479	45.29
826.652	45.4
826.824	45.26
826.996	45.61
827.168	46.17
827.34	45.63
827.512	45.66
827.684	46.44
827.856	46.27
828.029	46.55
828.201	44.76
828.373	44.16
828.545	44.86
828.717	45.31
828.889	44.01
829.061	43.59
829.232	44.58
829.404	46.03
829.576	45
829.748	45.6
829.92	45.38
830.092	47.92
830.264	47.25
830.436	46.71
830.607	46.31
830.779	46.7
830.951	45.77
831.123	43.92
831.294	42.14
831.466	43.76
831.638	43.1
831.809	42.01
831.981	41.03
832.153	43.23
832.324	44.02
832.496	45.5
832.667	48.37
832.839	49.09
833.011	49.22
833.182	47.55
833.354	47.26
833.525	45.89
833.697	46.07
833.868	46.13
834.039	47.01
834.211	46.03
834.382	44.33
834.554	43.27
834.725	42.04
834.896	42.22
835.068	41.51
835.239	40.41
835.41	40.54
835.581	41.94
835.753	40.54
835.924	40.7
836.095	39.23
836.266	38.51
836.438	36.69
836.609	37.55
836.78	39.86
836.951	41.2
837.122	39.99
837.293	40.01
837.464	38.78
837.635	40.94
837.806	39.09
837.977	41.87
838.148	43.57
838.319	44.92
838.49	44.12
838.661	42.55
838.832	41.95
839.003	43.62
839.174	47.26
839.345	46.99
839.516	46.95
839.687	47.1
839.857	42.19
840.028	38.64
840.199	36.76
840.37	38.13
840.54	36.93
840.711	38.82
840.882	41.33
841.053	37.65
841.223	37.98
841.394	35.13
841.564	36.33
841.735	39.62
841.906	43.52
842.076	42.76
842.247	43.76
842.417	44.31
842.588	41.25
842.758	38.82
842.929	35.49
843.099	34.01
843.27	35.27
843.44	34.39
843.611	35.55
843.781	34.11
843.951	35.88
844.122	34.4
844.292	33.71
844.462	34.58
844.633	33.48
844.803	37.01
844.973	34.91
845.144	35.55
845.314	31.64
845.484	29.55
845.654	27.73
845.824	33.51
845.995	31.69
846.165	36.35
846.335	37.64
846.505	35.16
846.675	38.33
846.845	46.37
847.015	39.57
847.185	40.97
847.355	40.2
847.525	49.33
847.695	45.68
847.865	58.69
848.035	42.6
848.205	38.83
848.375	50.64
848.545	46.01
848.715	38.28
848.884	42.69
849.054	48.01
849.224	48.24
849.394	40.47
849.564	39.95
849.733	31.85
849.903	43.3
850.073	51.02
850.243	44.36
850.412	46
850.582	55.38
850.752	56.86
850.921	57.75
851.091	59.79
851.26	61.35
851.43	60.76
851.599	62.63
851.769	62.1
851.939	58.27
852.108	56.12
852.278	52.91
852.447	46.69
852.616	49.91
852.786	50.8
852.955	47.21
853.125	40.67
853.294	39.63
853.463	41.57
853.633	38.36
853.802	36.62
853.971	46.88
854.141	38.4
854.31	29.4
854.479	13.47
854.648	5.82
854.818	2.88
854.987	-1.64
855.156	0.92
855.325	-4.58
855.494	4.25
855.663	7.77
855.832	-0.33
856.001	7.45
856.171	14.58
856.34	14.43
856.509	9.94
856.678	16.92
856.847	32.01
857.016	40.05
857.185	38.71
857.353	30.08
857.522	31.08
857.691	33.8
857.86	32.23
858.029	30.08
858.198	28.84
858.367	33.61
858.535	24.07
858.704	21.91
858.873	9.31
859.042	12.23
859.21	19.57
859.379	19.32
859.548	15.85
859.717	18.07
859.885	30.84
860.054	41.08
860.222	27.77
860.391	43.85
860.56	41.98
860.728	46.89
860.897	49.39
861.065	40.62
861.234	38.3
861.402	38.35
861.571	32.74
861.739	30.25
861.908	28.85
862.076	35.24
862.244	35.92
862.413	32.55
862.581	31.18
862.749	25.4
862.918	34.6
863.086	40.25
863.254	37.95
863.423	41.81
863.591	35.87
863.759	28.07
863.927	36.16
864.096	26.96
864.264	18.04
864.432	27.84
864.6	44.8
864.768	37.7
864.936	28.67
865.104	30.72
865.272	36.26
865.44	43.51
865.608	39.14
865.776	38.94
865.944	39.9
866.112	49.32
866.28	51.52
866.448	38.19
866.616	44.2
866.784	41.41
866.952	46.25
867.12	36.27
867.288	28.43
867.455	38.39
867.623	29.26
867.791	32.47
867.959	33.84
868.127	35.38
868.294	34.42
868.462	35.14
868.63	44.56
868.797	47.87
868.965	60.98
869.133	57.14
869.3	61.89
869.468	58.67
869.636	52.36
869.803	46.57
869.971	46.3
870.138	43.37
870.306	43.45
870.473	35.78
870.641	27.1
870.808	28.91
870.975	31.6
871.143	29.65
871.31	40.79
871.478	45.56
871.645	40.65
871.812	37.61
871.98	47.81
872.147	46.96
872.314	51.04
872.482	37.36
872.649	35.89
872.816	37.99
872.983	32.14
873.15	26.29
873.318	22.59
873.485	24.29
873.652	23.87
873.819	15.1
873.986	15.77
874.153	14.59
874.32	25.36
874.487	28.75
874.654	30.95
874.821	29.32
874.988	33.05
875.155	40.18
875.322	44.67
875.489	44.84
875.656	50.67
875.823	40.99
875.99	43.05
876.157	46.54
876.324	37.05
876.49	25.93
876.657	27.61
876.824	33.73
876.991	37.76
877.157	32.41
877.324	29.8
877.491	35.97
877.658	36.49
877.824	46.53
877.991	39.74
878.157	42.46
878.324	52.11
878.491	49.02
878.657	39.03
878.824	35.08
878.99	44.57
879.157	47.54
879.323	41.11
879.49	30.7
879.656	26
879.823	27.46
879.989	23.71
880.156	32.13
880.322	34.27
880.488	30.95
880.655	31.2
880.821	28.61
880.987	29.05
881.154	38.16
881.32	54.89
881.486	52.71
881.652	50.34
881.819	52.93
881.985	48.27
882.151	50.53
882.317	49.22
882.483	49.42
882.649	48.86
882.816	46.73
882.982	46.12
883.148	43.52
883.314	43.76
883.48	44.34
883.646	45.14
883.812	46.02
883.978	44.11
884.144	45.79
884.31	44.94
884.476	45.25
884.642	46.05
884.807	43.79
884.973	45.08
885.139	45.56
885.305	44.9
885.471	44.7
885.637	45.64
885.802	45.28
885.968	44.34
886.134	44.06
886.3	44.35
886.465	44.76
886.631	45.59
886.797	43.67
886.962	43.8
887.128	44.79
887.293	45.21
887.459	43.23
887.625	45.85
887.79	49.43
887.956	48.64
888.121	47.3
888.287	48.02
888.452	52.11
888.618	51.33
888.783	50.82
