Data from LC_252_Reflection_2.txt Node
Date: Thu Nov 19 23:09:24 EST 2015
User: robert
Spectrometer: USB4E03001
Autoset integration time: false
Trigger mode: 4
Integration Time (sec): 1.000000E-1
Scans to average: 15
Electric dark correction enabled: true
Nonlinearity correction enabled: false
Boxcar width: 5
Stray light correction enabled: false
XAxis mode: Wavelengths
Stop averaging: false
Number of Pixels in Spectrum: 3648
>>>>>Begin Spectral Data<<<<<
177.566	34.18
177.785	21.3
178.005	54.9
178.225	77.1
178.445	82.28
178.665	49.06
178.885	55.04
179.105	-41.07
179.324	-132.57
179.544	-89.06
179.764	89.93
179.984	68.39
180.204	106.43
180.423	102.84
180.643	48.38
180.863	55.84
181.083	85.31
181.302	89.5
181.522	92.99
181.742	112.41
181.961	126.64
182.181	108.69
182.401	110.67
182.621	124.13
182.84	115.01
183.06	81.43
183.279	33.87
183.499	40.98
183.719	-183.03
183.938	-1250.17
184.158	913.36
184.377	625.36
184.597	-152.31
184.816	1933.02
185.036	209.58
185.256	-2994.44
185.475	-99
185.695	-58.46
185.914	-38.43
186.134	-59.93
186.353	-19.86
186.572	-14.52
186.792	-39.91
187.011	916.87
187.231	431.01
187.45	-5.79
187.67	14.01
187.889	42.56
188.108	39.23
188.328	45.97
188.547	61.71
188.766	148.92
188.986	200.32
189.205	-1129.41
189.424	37.48
189.644	33.27
189.863	9.72
190.082	26.37
190.302	43.43
190.521	56.88
190.74	65.83
190.959	80.06
191.178	78.72
191.398	67.74
191.617	36.72
191.836	25.18
192.055	58.71
192.274	189.19
192.494	182.09
192.713	93.33
192.932	66.25
193.151	69
193.37	54.91
193.589	69.12
193.808	81.32
194.027	99.95
194.246	86.36
194.465	85.85
194.685	61.41
194.904	49.06
195.123	55.36
195.342	59.77
195.561	33.35
195.78	49.38
195.999	45.55
196.218	45.27
196.436	43.8
196.655	39.01
196.874	59.77
197.093	111.15
197.312	148.82
197.531	157.39
197.75	280.8
197.969	342.5
198.188	-1103.44
198.407	-318.88
198.625	-439.82
198.844	-284.01
199.063	-2107.66
199.282	-173.76
199.501	-130.6
199.719	-327.81
199.938	-91.42
200.157	-212.24
200.376	-65.78
200.594	109.82
200.813	-47.68
201.032	92.67
201.251	-225.36
201.469	-352.99
201.688	-1.14
201.907	9.64
202.125	-193.3
202.344	-58.26
202.563	-153.61
202.781	-84.53
203	-61.04
203.218	-55.2
203.437	-105.56
203.656	-86.28
203.874	-105.23
204.093	-438.94
204.311	-131.06
204.53	-84.22
204.748	-42.3
204.967	-13.73
205.185	-70.55
205.404	-123.32
205.622	-106.34
205.841	10.36
206.059	6.45
206.278	6.08
206.496	79.41
206.715	116.38
206.933	25.57
207.151	17.66
207.37	3.13
207.588	106.81
207.806	129.21
208.025	100.18
208.243	-40.44
208.461	-62.94
208.68	-65.29
208.898	-27.45
209.116	-99.91
209.335	-92.42
209.553	-666.62
209.771	3710.08
209.989	-830.14
210.208	856.62
210.426	813.49
210.644	-111.12
210.862	3.36
211.081	34.63
211.299	37.15
211.517	87.72
211.735	63.26
211.953	63.71
212.171	71.7
212.39	90.41
212.608	93.84
212.826	101.03
213.044	105.65
213.262	72.14
213.48	48.3
213.698	59.84
213.916	45.19
214.134	30.91
214.352	29.21
214.57	2.27
214.788	115.34
215.006	-18.07
215.224	-296.69
215.442	-600.71
215.66	-133.54
215.878	-345.65
216.096	-258.94
216.314	-244.65
216.532	-35.9
216.75	-36.24
216.968	99.28
217.185	380.64
217.403	586.44
217.621	107.63
217.839	32.16
218.057	77.65
218.275	85.86
218.492	86.28
218.71	79.99
218.928	59.12
219.146	47.01
219.363	48.23
219.581	38.41
219.799	55.16
220.017	44.55
220.234	56.16
220.452	45.19
220.67	44.75
220.887	18.54
221.105	22
221.323	21.09
221.54	32.85
221.758	29.94
221.976	26.34
222.193	16.56
222.411	11.91
222.629	14.91
222.846	8.57
223.064	2.83
223.281	14.63
223.499	0.22
223.716	-6.36
223.934	-16.99
224.151	-5.93
224.369	4.67
224.586	3.94
224.804	13.62
225.021	16.85
225.239	16.84
225.456	5.56
225.674	-0.64
225.891	23.6
226.108	33.93
226.326	24.05
226.543	21.4
226.76	14.64
226.978	20.13
227.195	18.56
227.413	6.93
227.63	7.28
227.847	13.93
228.064	16.23
228.282	11.58
228.499	11.09
228.716	13.72
228.934	11.91
229.151	12.3
229.368	11.84
229.585	12.05
229.802	12.88
230.02	14.57
230.237	14.03
230.454	13.47
230.671	11.24
230.888	10.17
231.105	10.09
231.323	13.52
231.54	12.94
231.757	12.44
231.974	12.34
232.191	15.08
232.408	12.38
232.625	15.68
232.842	16.16
233.059	19.48
233.276	26.69
233.493	28.22
233.71	26.54
233.927	27.79
234.144	26.42
234.361	17.91
234.578	14.87
234.795	13.76
235.012	12.89
235.229	6.82
235.446	9.07
235.663	0.44
235.879	-4.21
236.096	-10.07
236.313	-14.21
236.53	-9.08
236.747	0.35
236.964	0.61
237.181	-0.8
237.397	0.1
237.614	4.75
237.831	6.4
238.048	12.1
238.264	13.21
238.481	18.68
238.698	25.1
238.915	26.6
239.131	21.3
239.348	21.6
239.565	24.79
239.781	21.77
239.998	19.98
240.215	17.47
240.431	14.15
240.648	15.84
240.865	13.89
241.081	11.1
241.298	12.93
241.514	14.48
241.731	15.56
241.947	14.02
242.164	13.42
242.38	14.32
242.597	15.08
242.814	16.31
243.03	15.84
243.246	17.9
243.463	16.63
243.679	14.14
243.896	13.29
244.112	11.99
244.329	12.94
244.545	14.08
244.762	13.23
244.978	12.12
245.194	11.87
245.411	10.94
245.627	9.34
245.843	11.41
246.06	13.96
246.276	13.52
246.492	13.35
246.709	12.68
246.925	11.82
247.141	11.45
247.357	11.66
247.574	11.55
247.79	11.93
248.006	12.29
248.222	11.68
248.439	11.18
248.655	11.22
248.871	11.06
249.087	10.16
249.303	10.33
249.519	9.39
249.736	9.61
249.952	9.06
250.168	8.26
250.384	5.84
250.6	6.33
250.816	5.38
251.032	4.32
251.248	4.68
251.464	6.39
251.68	7.43
251.896	7.93
252.112	7.44
252.328	7.79
252.544	7.09
252.76	8.81
252.976	9.62
253.192	8.2
253.408	8.39
253.624	8.81
253.84	9.86
254.056	8.58
254.272	9.46
254.487	8.36
254.703	7.7
254.919	8.86
255.135	8.4
255.351	6.12
255.567	9.49
255.782	10.03
255.998	9.57
256.214	7.4
256.43	6.25
256.646	10.19
256.861	12.08
257.077	13.73
257.293	13.79
257.508	14.23
257.724	15.74
257.94	13.9
258.155	14.82
258.371	14.25
258.587	14.15
258.802	13.74
259.018	11.57
259.234	10.46
259.449	9.97
259.665	9.45
259.88	8.95
260.096	8.32
260.312	7.32
260.527	7.09
260.743	6.89
260.958	6.99
261.174	6.89
261.389	7.72
261.605	8.36
261.82	7.24
262.036	6.72
262.251	6.96
262.466	8.42
262.682	9.48
262.897	9.16
263.113	9.58
263.328	10.71
263.543	11.46
263.759	11.41
263.974	10.73
264.189	12.67
264.405	13.12
264.62	12.74
264.835	10.59
265.051	10.92
265.266	12.35
265.481	12.49
265.696	10.58
265.912	9.56
266.127	9.41
266.342	7.79
266.557	7.7
266.773	8.99
266.988	8.41
267.203	8.67
267.418	9.89
267.633	8.55
267.848	7.56
268.064	6.81
268.279	6.89
268.494	6.77
268.709	8.01
268.924	6.5
269.139	6.24
269.354	6.39
269.569	5.14
269.784	4.14
269.999	3.83
270.214	5.87
270.429	6.41
270.644	5.79
270.859	5.59
271.074	4.04
271.289	5.56
271.504	5.27
271.719	5.46
271.934	6.19
272.149	7.04
272.363	8.19
272.578	7.27
272.793	7.93
273.008	8.62
273.223	9.47
273.438	10.46
273.653	10.27
273.867	11.25
274.082	11.73
274.297	11.92
274.512	10.59
274.726	9.95
274.941	9.4
275.156	6.92
275.371	6.35
275.585	5.12
275.8	4.71
276.015	5.09
276.229	4.75
276.444	4.51
276.659	4.44
276.873	5.66
277.088	6.52
277.302	7.47
277.517	9.84
277.732	11.83
277.946	11.74
278.161	11.74
278.375	11.7
278.59	10.74
278.804	10.73
279.019	11
279.233	10.83
279.448	11.56
279.662	11.61
279.877	10.85
280.091	10.42
280.306	9.94
280.52	10.55
280.735	11.05
280.949	11.67
281.163	11.23
281.378	11.93
281.592	11.58
281.806	10.32
282.021	9.88
282.235	10.05
282.449	9.04
282.664	8.96
282.878	8.89
283.092	7.76
283.307	8.31
283.521	8.7
283.735	8.73
283.949	9.35
284.164	9.47
284.378	8.95
284.592	8.74
284.806	9.04
285.02	10.22
285.234	10.44
285.449	10.53
285.663	10.13
285.877	10.21
286.091	9.32
286.305	8.62
286.519	9.13
286.733	9.4
286.947	10.25
287.161	9.26
287.375	8.45
287.589	7.66
287.803	7.61
288.017	6.99
288.231	7.25
288.445	7.99
288.659	8.81
288.873	8.15
289.087	7.74
289.301	7.89
289.515	9.03
289.729	8.81
289.943	9.56
290.157	10.31
290.371	10.67
290.584	9.74
290.798	9.46
291.012	9.8
291.226	9.78
291.44	11.33
291.654	10.64
291.867	10.73
292.081	10.85
292.295	10.94
292.509	10.81
292.722	11.7
292.936	13.05
293.15	12.75
293.364	13.62
293.577	13.43
293.791	12.27
294.005	12.65
294.218	12.26
294.432	12.14
294.645	12.19
294.859	11.95
295.073	10.92
295.286	10.72
295.5	10.62
295.713	9.25
295.927	8.83
296.14	9.54
296.354	9.46
296.568	10.33
296.781	10.32
296.994	10.65
297.208	10.65
297.421	11.06
297.635	11.48
297.848	11.94
298.062	12.59
298.275	13.04
298.489	12.75
298.702	12.77
298.915	12.83
299.129	13.59
299.342	12.95
299.555	12.61
299.769	12.19
299.982	11.07
300.195	10.42
300.409	9.81
300.622	10.25
300.835	11.03
301.048	10.83
301.262	10.11
301.475	9.43
301.688	8.86
301.901	9.52
302.115	9.92
302.328	10.58
302.541	10.52
302.754	9.84
302.967	10.18
303.18	9.72
303.393	9.63
303.607	10.82
303.82	11.49
304.033	11.76
304.246	11.42
304.459	11.37
304.672	10.88
304.885	12
305.098	12.26
305.311	11.97
305.524	12.23
305.737	11.69
305.95	10.77
306.163	9.82
306.376	10.59
306.589	10.59
306.802	9.54
307.015	9.32
307.228	8.93
307.44	8.91
307.653	8.92
307.866	8.79
308.079	10.81
308.292	10.98
308.505	11.47
308.718	9.54
308.93	9.23
309.143	9.44
309.356	9.37
309.569	9.56
309.781	10.23
309.994	9.54
310.207	9.74
310.42	9.86
310.632	9.47
310.845	9.6
311.058	11.15
311.27	11.12
311.483	12.04
311.696	13.04
311.908	13.46
312.121	13.4
312.333	13.74
312.546	12.9
312.759	11.66
312.971	11.66
313.184	11.72
313.396	11.97
313.609	12.9
313.821	12.38
314.034	12.03
314.246	11.07
314.459	10.99
314.671	12.55
314.884	13.43
315.096	13.93
315.309	15.09
315.521	14.94
315.733	14.25
315.946	14.25
316.158	14.04
316.371	13.89
316.583	14.88
316.795	13.93
317.008	12.01
317.22	11.75
317.432	11.75
317.644	11.67
317.857	10.22
318.069	10.67
318.281	10.11
318.494	11.95
318.706	11.02
318.918	9.98
319.13	10.9
319.342	11.33
319.555	11.04
319.767	10.44
319.979	9.55
320.191	11.64
320.403	12.54
320.615	12.55
320.827	11.78
321.039	11.68
321.252	11.93
321.464	12.7
321.676	12.51
321.888	11.91
322.1	13
322.312	13.01
322.524	13.08
322.736	11.75
322.948	12.28
323.16	11.4
323.372	11.59
323.584	11.44
323.796	9.56
324.007	9.86
324.219	11.39
324.431	11.15
324.643	11.66
324.855	11.26
325.067	11.79
325.279	11.39
325.491	12.04
325.702	12.16
325.914	12.12
326.126	13.79
326.338	14.49
326.55	13.94
326.761	13.45
326.973	13.19
327.185	12.95
327.396	13.47
327.608	13.74
327.82	13.62
328.032	13.91
328.243	14.65
328.455	13.95
328.666	13.87
328.878	13.89
329.09	14.74
329.301	14.68
329.513	14.67
329.725	12.46
329.936	11.89
330.148	12.77
330.359	12.64
330.571	12.03
330.782	12.08
330.994	11.97
331.205	12
331.417	12.09
331.628	11.79
331.84	12.28
332.051	13.5
332.262	14.46
332.474	13.32
332.685	13.47
332.897	14.61
333.108	14.82
333.319	14.85
333.531	14.34
333.742	14.14
333.953	13.82
334.165	14.38
334.376	14.78
334.587	14.49
334.799	14.19
335.01	14.46
335.221	13.68
335.432	13.89
335.644	13.05
335.855	13.82
336.066	14.4
336.277	14.53
336.488	13.96
336.7	13.89
336.911	13.38
337.122	14.14
337.333	14.07
337.544	13.42
337.755	13.08
337.966	12.84
338.177	12.56
338.388	12.23
338.599	12.55
338.811	12.63
339.022	12.24
339.233	12.07
339.444	12.34
339.655	12.64
339.866	13.53
340.076	13.53
340.287	14.43
340.498	14.07
340.709	14.17
340.92	14.36
341.131	14.18
341.342	14.38
341.553	14.71
341.764	13.96
341.975	13.64
342.185	13.45
342.396	13.5
342.607	13.36
342.818	13.66
343.029	13.83
343.239	13.83
343.45	13.7
343.661	13.2
343.872	13.39
344.082	13.71
344.293	14.11
344.504	14.43
344.714	14.58
344.925	14.74
345.136	15.25
345.346	13.56
345.557	13.27
345.768	13.04
345.978	13.11
346.189	12.48
346.399	12.49
346.61	11.68
346.821	11.32
347.031	11.66
347.242	11.79
347.452	11.35
347.663	11.68
347.873	12.17
348.084	12.13
348.294	12.82
348.504	13.3
348.715	13.23
348.925	13.55
349.136	13.8
349.346	12.73
349.557	12.8
349.767	12.87
349.977	13.54
350.188	12.83
350.398	13.12
350.608	12.95
350.819	13.27
351.029	13.14
351.239	13.16
351.449	12.16
351.66	12.32
351.87	12.17
352.08	11.84
352.29	12.53
352.501	13.22
352.711	13.26
352.921	13.33
353.131	12.34
353.341	12.21
353.552	12.76
353.762	13.97
353.972	14.8
354.182	14.22
354.392	14.02
354.602	13.25
354.812	13.23
355.022	12.85
355.232	13.52
355.442	14.48
355.652	14.46
355.862	14.54
356.072	13.94
356.282	13.87
356.492	13.7
356.702	13.53
356.912	13.6
357.122	13.86
357.332	14.28
357.542	12.97
357.752	12.37
357.962	12.51
358.171	11.93
358.381	12.17
358.591	11.73
358.801	11.64
359.011	12.27
359.221	12.03
359.43	11.53
359.64	11.64
359.85	12.22
360.06	12.98
360.269	12.98
360.479	12.73
360.689	12.65
360.899	12.56
361.108	12.91
361.318	12.46
361.528	12.99
361.737	13.29
361.947	12.97
362.156	13.07
362.366	12.9
362.576	13.06
362.785	13.06
362.995	13.13
363.204	13.47
363.414	13.57
363.623	13.28
363.833	12.96
364.042	12.3
364.252	12.63
364.461	12.44
364.671	12.37
364.88	12.02
365.09	12.4
365.299	12.53
365.509	12.19
365.718	11.59
365.927	12.44
366.137	12.21
366.346	12.48
366.555	12.12
366.765	12.18
366.974	11.85
367.183	11.8
367.393	11.35
367.602	11.74
367.811	12.51
368.021	13.01
368.23	12.09
368.439	11.95
368.648	11.68
368.857	11.99
369.067	11.85
369.276	12.3
369.485	12.1
369.694	12.16
369.903	11.41
370.112	10.36
370.321	10.23
370.531	10.77
370.74	10.62
370.949	10.57
371.158	10.16
371.367	10.33
371.576	9.89
371.785	10.11
371.994	10.43
372.203	10.55
372.412	10.92
372.621	10.92
372.83	11.05
373.039	11.28
373.248	11.65
373.457	11.83
373.666	11.84
373.874	11.81
374.083	11.57
374.292	11.45
374.501	11.35
374.71	11.73
374.919	11.09
375.128	11.03
375.336	11.17
375.545	10.97
375.754	10.71
375.963	10.97
376.171	10.92
376.38	10.81
376.589	10.72
376.798	10.18
377.006	9.74
377.215	10.36
377.424	10.09
377.632	10.11
377.841	10.23
378.05	10.75
378.258	10.11
378.467	9.92
378.675	9.82
378.884	10.05
379.093	10.51
379.301	10.48
379.51	10.34
379.718	10.27
379.927	9.97
380.135	10.19
380.344	9.39
380.552	9.92
380.761	9.86
380.969	10.45
381.177	10.14
381.386	9.88
381.594	9.84
381.803	9.54
382.011	9.61
382.219	10.09
382.428	9.8
382.636	10.29
382.845	10
383.053	9.76
383.261	9.18
383.469	9.64
383.678	9.7
383.886	9.96
384.094	9.94
384.302	9.77
384.511	9.26
384.719	9.03
384.927	8.94
385.135	9.01
385.343	9.58
385.552	9.82
385.76	9.12
385.968	9.25
386.176	8.81
386.384	8.94
386.592	9.2
386.8	9.24
387.008	9.01
387.216	8.68
387.424	8.58
387.633	8.52
387.841	8.39
388.049	8.6
388.257	8.41
388.465	8.41
388.672	8.31
388.88	8.14
389.088	8.11
389.296	8.54
389.504	8.45
389.712	8.3
389.92	8.17
390.128	8.23
390.336	8.16
390.544	7.72
390.751	7.62
390.959	7.61
391.167	7.65
391.375	7.76
391.583	7.18
391.79	7.4
391.998	7.7
392.206	7.62
392.414	7.6
392.621	7.49
392.829	8.05
393.037	8.28
393.244	8.31
393.452	8.16
393.66	7.97
393.867	8.32
394.075	8.25
394.283	8.11
394.49	7.79
394.698	7.83
394.905	7.87
395.113	7.73
395.32	7.68
395.528	7.87
395.735	8.18
395.943	8.37
396.15	8.23
396.358	8.01
396.565	8.04
396.773	8.28
396.98	8.08
397.188	8.17
397.395	8.09
397.602	7.81
397.81	7.62
398.017	7.24
398.225	6.95
398.432	7
398.639	7.24
398.847	7.16
399.054	7.25
399.261	7.47
399.468	7.31
399.676	7.44
399.883	7.48
400.09	7.56
400.297	8
400.505	8.34
400.712	8.66
400.919	8.67
401.126	8.71
401.333	8.73
401.54	8.48
401.748	8.76
401.955	8.69
402.162	8.99
402.369	9.12
402.576	8.81
402.783	8.74
402.99	8.8
403.197	8.83
403.404	8.53
403.611	8.45
403.818	8.52
404.025	8.43
404.232	8.29
404.439	8.28
404.646	8.05
404.853	8.2
405.06	8.12
405.267	8.03
405.474	7.95
405.681	8.18
405.887	8.4
406.094	8.43
406.301	8.49
406.508	8.57
406.715	8.25
406.922	8.1
407.128	7.98
407.335	7.89
407.542	7.96
407.749	7.91
407.955	7.79
408.162	7.64
408.369	7.46
408.575	7.33
408.782	7.09
408.989	7.3
409.195	7.6
409.402	7.61
409.609	7.73
409.815	7.5
410.022	7.56
410.228	7.7
410.435	7.66
410.642	7.92
410.848	7.97
411.055	8.1
411.261	8.22
411.468	8.17
411.674	8.06
411.881	8
412.087	7.97
412.294	7.95
412.5	7.62
412.706	7.53
412.913	7.49
413.119	7.57
413.326	7.41
413.532	7.26
413.738	7.22
413.945	7.17
414.151	7.27
414.357	7.29
414.564	7.27
414.77	7.52
414.976	7.49
415.182	7.39
415.389	7.19
415.595	7.14
415.801	7.12
416.007	7.1
416.214	6.99
416.42	6.97
416.626	6.86
416.832	7.04
417.038	7.08
417.244	7.16
417.45	7.32
417.657	7.4
417.863	7.71
418.069	7.69
418.275	7.82
418.481	8.02
418.687	7.91
418.893	8.02
419.099	7.93
419.305	8.05
419.511	8.04
419.717	7.96
419.923	7.94
420.129	7.75
420.335	7.66
420.541	7.54
420.746	7.42
420.952	7.5
421.158	7.49
421.364	7.5
421.57	7.42
421.776	7.44
421.982	7.42
422.187	7.53
422.393	7.51
422.599	7.58
422.805	7.51
423.01	7.56
423.216	7.45
423.422	7.22
423.628	7.2
423.833	7.1
424.039	7.07
424.245	7
424.45	7.01
424.656	7.11
424.862	7.12
425.067	7.11
425.273	7.19
425.478	7.19
425.684	7.42
425.889	7.5
426.095	7.47
426.301	7.4
426.506	7.57
426.712	7.51
426.917	7.57
427.123	7.7
427.328	7.62
427.533	7.57
427.739	7.8
427.944	7.75
428.15	7.46
428.355	7.44
428.561	7.68
428.766	7.62
428.971	7.52
429.177	7.39
429.382	7.26
429.587	7.59
429.793	7.48
429.998	7.24
430.203	7.23
430.408	7.39
430.614	7.62
430.819	7.35
431.024	7.38
431.229	7.29
431.434	7.23
431.64	7.16
431.845	7.14
432.05	7.27
432.255	7.43
432.46	7.43
432.665	7.49
432.87	7.35
433.076	7.38
433.281	7.16
433.486	7.22
433.691	7.22
433.896	7.25
434.101	7.2
434.306	7.08
434.511	7.05
434.716	7.15
434.921	7.09
435.126	7.24
435.331	7.24
435.535	7.5
435.74	7.38
435.945	7.58
436.15	7.48
436.355	7.62
436.56	7.61
436.765	7.55
436.97	7.45
437.174	7.42
437.379	7.21
437.584	7.27
437.789	7.18
437.993	7.16
438.198	6.99
438.403	6.94
438.608	6.85
438.812	6.89
439.017	6.85
439.222	6.83
439.426	6.73
439.631	6.83
439.836	6.92
440.04	7
440.245	7.18
440.45	7.2
440.654	7.36
440.859	7.36
441.063	7.54
441.268	7.64
441.472	7.67
441.677	7.8
441.881	7.83
442.086	7.62
442.29	7.58
442.495	7.5
442.699	7.55
442.904	7.49
443.108	7.46
443.312	7.21
443.517	7.04
443.721	7.04
443.925	7.07
444.13	7.14
444.334	7.45
444.538	7.39
444.743	7.46
444.947	7.44
445.151	7.45
445.356	7.54
445.56	7.62
445.764	7.73
445.968	7.76
446.173	7.77
446.377	7.64
446.581	7.51
446.785	7.53
446.989	7.44
447.193	7.35
447.398	7.25
447.602	7.11
447.806	7.14
448.01	6.97
448.214	6.96
448.418	6.78
448.622	6.67
448.826	6.77
449.03	6.66
449.234	6.58
449.438	6.59
449.642	6.69
449.846	6.84
450.05	6.8
450.254	7.06
450.458	6.95
450.662	7.02
450.866	7.03
451.069	6.76
451.273	6.86
451.477	6.85
451.681	6.89
451.885	6.99
452.089	6.86
452.292	6.8
452.496	6.69
452.7	6.68
452.904	6.64
453.107	6.78
453.311	6.97
453.515	6.97
453.719	7.22
453.922	7.22
454.126	7.05
454.33	7.11
454.533	6.89
454.737	6.82
454.94	6.88
455.144	6.94
455.348	6.98
455.551	6.95
455.755	6.9
455.958	6.78
456.162	6.86
456.365	7.03
456.569	6.98
456.772	7.32
456.976	7.58
457.179	7.59
457.383	7.57
457.586	7.58
457.79	7.58
457.993	7.64
458.196	7.65
458.4	7.69
458.603	7.72
458.807	7.75
459.01	7.57
459.213	7.49
459.417	7.53
459.62	7.6
459.823	7.49
460.026	7.44
460.23	7.43
460.433	7.37
460.636	7.26
460.839	7.18
461.042	7.26
461.246	7.33
461.449	7.15
461.652	7.03
461.855	6.91
462.058	6.97
462.261	7.07
462.464	7.05
462.668	7.07
462.871	7.02
463.074	6.99
463.277	6.65
463.48	6.73
463.683	6.87
463.886	6.94
464.089	6.97
464.292	6.98
464.495	7.02
464.698	6.96
464.901	6.89
465.104	7.16
465.306	7.21
465.509	7.44
465.712	7.35
465.915	7.36
466.118	7.34
466.321	7.33
466.524	7.28
466.726	7.08
466.929	7.19
467.132	7.26
467.335	7.03
467.538	7.02
467.74	6.98
467.943	6.97
468.146	7.03
468.348	7.08
468.551	7.16
468.754	7.19
468.956	7.26
469.159	7.11
469.362	7.04
469.564	7.08
469.767	7.21
469.969	7.08
470.172	7.09
470.375	6.89
470.577	6.83
470.78	6.85
470.982	6.88
471.185	7
471.387	6.95
471.59	7.07
471.792	7.1
471.995	7.01
472.197	7.07
472.399	7.11
472.602	7.39
472.804	7.27
473.007	7.16
473.209	6.99
473.411	6.93
473.614	7.05
473.816	7.17
474.018	7.22
474.22	7.2
474.423	7.27
474.625	7.1
474.827	6.89
475.03	6.95
475.232	7.08
475.434	7.48
475.636	7.23
475.838	7.22
476.04	6.98
476.243	6.82
476.445	6.67
476.647	6.7
476.849	6.77
477.051	6.83
477.253	6.94
477.455	6.91
477.657	6.72
477.859	6.82
478.061	6.82
478.263	6.83
478.465	6.76
478.667	6.89
478.869	6.96
479.071	6.8
479.273	6.8
479.475	6.74
479.677	6.67
479.879	6.63
480.081	6.59
480.283	6.63
480.485	6.66
480.686	6.81
480.888	6.85
481.09	6.83
481.292	7.03
481.494	6.99
481.695	6.95
481.897	7.01
482.099	6.93
482.301	6.98
482.502	6.95
482.704	6.88
482.906	6.86
483.107	6.89
483.309	6.84
483.511	6.81
483.712	6.84
483.914	6.89
484.115	6.83
484.317	6.85
484.519	6.9
484.72	6.93
484.922	6.94
485.123	7
485.325	6.95
485.526	6.96
485.728	6.94
485.929	6.95
486.131	6.85
486.332	6.99
486.534	6.96
486.735	6.92
486.936	6.96
487.138	7.01
487.339	6.91
487.541	6.93
487.742	6.89
487.943	6.94
488.144	6.94
488.346	7.03
488.547	6.98
488.748	7.03
488.95	6.97
489.151	6.92
489.352	6.93
489.553	7.03
489.755	7
489.956	7.09
490.157	7.05
490.358	7.07
490.559	7.06
490.76	7.09
490.961	7.1
491.163	7.13
491.364	7.08
491.565	7.06
491.766	7.06
491.967	7.12
492.168	7.09
492.369	7.14
492.57	7.07
492.771	7.08
492.972	7.03
493.173	7.04
493.374	7.1
493.575	7.09
493.776	7.03
493.976	6.88
494.177	6.76
494.378	6.81
494.579	6.76
494.78	6.74
494.981	6.67
495.182	6.75
495.382	6.66
495.583	6.61
495.784	6.73
495.985	6.87
496.185	6.87
496.386	7.04
496.587	6.98
496.788	7.09
496.988	7.28
497.189	7.28
497.39	7.38
497.59	7.43
497.791	7.43
497.992	7.36
498.192	7.35
498.393	7.5
498.593	7.52
498.794	7.62
498.994	7.52
499.195	7.46
499.395	7.48
499.596	7.36
499.796	7.44
499.997	7.45
500.197	7.48
500.398	7.6
500.598	7.55
500.799	7.47
500.999	7.33
501.199	7.32
501.4	7.19
501.6	7.12
501.801	6.99
502.001	6.79
502.201	6.68
502.402	6.77
502.602	6.7
502.802	6.6
503.002	6.74
503.203	6.81
503.403	6.85
503.603	6.96
503.803	7
504.003	7.01
504.204	7.14
504.404	7.13
504.604	7.09
504.804	7.06
505.004	7.07
505.204	6.87
505.404	6.88
505.604	6.91
505.804	6.9
506.005	7.03
506.205	7.17
506.405	7.23
506.605	7.55
506.805	7.46
507.005	7.37
507.204	7.44
507.404	7.59
507.604	7.55
507.804	7.55
508.004	7.75
508.204	7.71
508.404	7.67
508.604	7.55
508.804	7.36
509.003	7.47
509.203	7.55
509.403	7.53
509.603	7.38
509.803	7.32
510.002	7.3
510.202	7.03
510.402	7.03
510.602	7.1
510.801	7.13
511.001	7.09
511.201	7.14
511.4	7.12
511.6	7.24
511.8	7.38
511.999	7.5
512.199	7.58
512.398	7.59
512.598	7.58
512.797	7.62
512.997	7.59
513.197	7.67
513.396	7.6
513.596	7.56
513.795	7.38
513.994	7.39
514.194	7.44
514.393	7.41
514.593	7.58
514.792	7.64
514.992	7.48
515.191	7.62
515.39	7.67
515.59	7.77
515.789	7.82
515.988	8
516.188	8.04
516.387	7.94
516.586	7.94
516.786	7.88
516.985	7.79
517.184	7.79
517.383	7.79
517.582	7.75
517.782	7.69
517.981	7.72
518.18	7.66
518.379	7.61
518.578	7.66
518.777	7.68
518.976	7.67
519.176	7.69
519.375	7.79
519.574	7.73
519.773	7.73
519.972	7.86
520.171	7.93
520.37	7.96
520.569	8
520.768	8.06
520.967	8.12
521.166	8.1
521.365	8.19
521.564	8.16
521.762	8.19
521.961	8.29
522.16	8.14
522.359	8.1
522.558	8.19
522.757	8.13
522.956	8.12
523.154	8.07
523.353	8.2
523.552	8.28
523.751	8.32
523.949	8.34
524.148	8.31
524.347	8.43
524.546	8.46
524.744	8.44
524.943	8.62
525.142	8.56
525.34	8.58
525.539	8.56
525.737	8.53
525.936	8.61
526.135	8.67
526.333	8.68
526.532	8.65
526.73	8.76
526.929	8.77
527.127	8.7
527.326	8.74
527.524	8.82
527.723	8.84
527.921	8.84
528.12	8.84
528.318	8.84
528.516	8.78
528.715	8.77
528.913	8.73
529.112	8.75
529.31	8.78
529.508	8.79
529.707	8.74
529.905	8.77
530.103	8.79
530.301	8.73
530.5	8.73
530.698	8.81
530.896	8.83
531.094	8.83
531.293	8.83
531.491	8.85
531.689	8.92
531.887	9
532.085	8.99
532.283	8.98
532.481	9.09
532.68	9.14
532.878	9.22
533.076	9.32
533.274	9.35
533.472	9.3
533.67	9.29
533.868	9.21
534.066	9.21
534.264	9.19
534.462	9.26
534.66	9.33
534.858	9.27
535.056	9.27
535.253	9.21
535.451	9.2
535.649	9.32
535.847	9.36
536.045	9.53
536.243	9.6
536.441	9.73
536.638	9.69
536.836	9.71
537.034	9.82
537.232	9.95
537.43	10.02
537.627	10.08
537.825	10.13
538.023	10.12
538.22	10.16
538.418	10.15
538.616	10.07
538.813	10.16
539.011	10.21
539.209	10.44
539.406	10.34
539.604	10.33
539.801	10.46
539.999	10.43
540.196	10.47
540.394	10.46
540.591	10.47
540.789	10.49
540.986	10.43
541.184	10.37
541.381	10.33
541.579	10.32
541.776	10.4
541.974	10.4
542.171	10.46
542.368	10.53
542.566	10.54
542.763	10.57
542.96	10.62
543.158	10.74
543.355	10.78
543.552	10.76
543.75	10.84
543.947	10.87
544.144	10.83
544.341	10.88
544.539	10.87
544.736	10.99
544.933	11.05
545.13	11.04
545.327	11.05
545.524	11.12
545.722	11.2
545.919	11.17
546.116	11.1
546.313	11.14
546.51	11.12
546.707	11.22
546.904	11.2
547.101	11.34
547.298	11.44
547.495	11.5
547.692	11.56
547.889	11.6
548.086	11.8
548.283	11.95
548.48	12.19
548.677	12.35
548.874	12.38
549.07	12.58
549.267	12.41
549.464	12.69
549.661	12.65
549.858	12.86
550.055	12.83
550.251	12.77
550.448	12.71
550.645	12.91
550.842	12.96
551.038	13.01
551.235	13
551.432	13.25
551.628	13.06
551.825	13.22
552.022	13.16
552.218	13.32
552.415	13.36
552.612	13.52
552.808	13.39
553.005	13.41
553.201	13.51
553.398	13.56
553.594	13.43
553.791	13.67
553.987	13.76
554.184	13.72
554.38	13.75
554.577	13.83
554.773	14.05
554.97	14.08
555.166	14.34
555.362	14.34
555.559	14.5
555.755	14.75
555.952	14.68
556.148	14.71
556.344	15.02
556.541	15.11
556.737	15.23
556.933	15.17
557.129	15.12
557.326	14.88
557.522	14.68
557.718	14.49
557.914	14.67
558.11	14.69
558.307	14.75
558.503	14.68
558.699	14.81
558.895	14.83
559.091	14.82
559.287	15.08
559.483	15.28
559.679	15.66
559.876	15.82
560.072	15.77
560.268	15.82
560.464	15.83
560.66	15.88
560.856	15.99
561.052	15.98
561.247	16.04
561.443	16.1
561.639	16
561.835	16.1
562.031	16.07
562.227	16.29
562.423	16.45
562.619	16.5
562.815	16.69
563.01	16.73
563.206	17.06
563.402	17.16
563.598	17.33
563.793	17.78
563.989	17.95
564.185	18.19
564.381	18.27
564.576	18.3
564.772	18.73
564.968	18.8
565.163	18.84
565.359	18.77
565.555	19.03
565.75	19.08
565.946	19.15
566.141	19.11
566.337	19.1
566.532	19.19
566.728	19.39
566.923	19.19
567.119	19.27
567.314	19.39
567.51	19.51
567.705	19.55
567.901	19.58
568.096	19.64
568.292	19.73
568.487	19.82
568.682	19.87
568.878	19.98
569.073	20.11
569.268	20.12
569.464	19.96
569.659	20.11
569.854	20.19
570.05	20.28
570.245	20.24
570.44	20.32
570.635	20.62
570.831	20.66
571.026	20.72
571.221	20.96
571.416	20.97
571.611	21.37
571.806	21.45
572.002	21.5
572.197	21.53
572.392	21.73
572.587	21.87
572.782	21.83
572.977	21.94
573.172	22.02
573.367	22
573.562	22.25
573.757	22.33
573.952	22.31
574.147	22.36
574.342	22.58
574.537	22.68
574.732	22.85
574.927	22.91
575.121	23.06
575.316	23.13
575.511	23.19
575.706	23.2
575.901	23.26
576.096	23.46
576.29	23.62
576.485	23.61
576.68	23.52
576.875	23.54
577.069	23.57
577.264	23.68
577.459	23.89
577.654	24.1
577.848	24.3
578.043	24.47
578.238	24.63
578.432	24.52
578.627	24.63
578.821	24.8
579.016	24.82
579.21	24.89
579.405	24.76
579.6	24.63
579.794	24.82
579.989	24.73
580.183	24.86
580.378	24.86
580.572	25.1
580.766	25.08
580.961	25.05
581.155	25.15
581.35	25.4
581.544	25.67
581.738	25.63
581.933	25.61
582.127	25.77
582.321	25.61
582.516	25.72
582.71	25.72
582.904	25.87
583.099	25.88
583.293	25.99
583.487	25.89
583.681	26.11
583.875	26.37
584.07	26.35
584.264	26.32
584.458	26.41
584.652	26.4
584.846	26.46
585.04	26.74
585.234	27.02
585.428	27.05
585.623	27.21
585.817	27.06
586.011	27.18
586.205	27.22
586.399	27.49
586.593	27.45
586.787	27.44
586.981	27.44
587.174	27.46
587.368	27.44
587.562	27.34
587.756	27.36
587.95	27.37
588.144	27.17
588.338	27.21
588.532	27.09
588.725	27.12
588.919	27.14
589.113	27.47
589.307	27.39
589.501	27.41
589.694	27.65
589.888	27.82
590.082	28.01
590.275	28.1
590.469	28.05
590.663	28.29
590.856	28.44
591.05	28.45
591.244	28.26
591.437	28.26
591.631	28.33
591.824	28.49
592.018	28.35
592.212	28.33
592.405	28.57
592.599	28.77
592.792	28.77
592.986	29.06
593.179	29.39
593.372	29.76
593.566	29.96
593.759	30.18
593.953	30.06
594.146	30.28
594.339	30.6
594.533	30.3
594.726	30.48
594.92	30.42
595.113	30.35
595.306	30.27
595.499	29.95
595.693	30.02
595.886	30.04
596.079	30.06
596.272	30.06
596.466	30.01
596.659	30.25
596.852	30.18
597.045	30.18
597.238	29.95
597.431	29.93
597.624	30.22
597.818	30.19
598.011	30.1
598.204	30.22
598.397	30.35
598.59	30.14
598.783	30.25
598.976	30.18
599.169	30.34
599.362	30.48
599.555	30.52
599.748	30.52
599.941	30.42
600.134	30.51
600.326	30.3
600.519	30.18
600.712	29.96
600.905	29.96
601.098	30.15
601.291	30.14
601.483	30.3
601.676	30.54
601.869	30.42
602.062	30.59
602.255	30.61
602.447	30.77
602.64	30.89
602.833	31.18
603.025	31.35
603.218	31.12
603.411	31.11
603.603	31.04
603.796	30.98
603.989	31.02
604.181	31.04
604.374	31.23
604.566	31.29
604.759	31.29
604.951	31.33
605.144	31.45
605.336	31.63
605.529	31.66
605.721	31.76
605.914	31.76
606.106	31.88
606.299	31.88
606.491	31.74
606.683	31.68
606.876	31.83
607.068	32.01
607.26	31.69
607.453	31.74
607.645	31.81
607.837	31.76
608.03	31.77
608.222	31.86
608.414	31.79
608.606	31.7
608.799	31.79
608.991	31.9
609.183	31.95
609.375	32.02
609.567	32.28
609.759	32.12
609.952	32.3
610.144	32.43
610.336	32.36
610.528	32.43
610.72	32.62
610.912	32.67
611.104	32.57
611.296	32.46
611.488	32.55
611.68	32.35
611.872	32.59
612.064	32.5
612.256	32.34
612.448	32.26
612.64	32.51
612.832	32.64
613.023	32.63
613.215	32.63
613.407	32.68
613.599	32.53
613.791	32.53
613.983	32.65
614.174	32.86
614.366	33.07
614.558	33.13
614.75	32.78
614.941	32.63
615.133	32.6
615.325	32.73
615.516	32.89
615.708	33.27
615.9	33.26
616.091	33.25
616.283	33.15
616.475	33.16
616.666	33.41
616.858	33.8
617.049	33.77
617.241	34
617.432	34
617.624	33.87
617.815	33.86
618.007	33.83
618.198	33.81
618.39	34.04
618.581	34.21
618.773	34.14
618.964	34.12
619.155	34.05
619.347	33.93
619.538	33.86
619.729	34.16
619.921	34.03
620.112	34.16
620.303	34.12
620.494	33.86
620.686	33.65
620.877	33.48
621.068	33.29
621.259	33.5
621.451	33.75
621.642	33.78
621.833	33.6
622.024	33.66
622.215	33.54
622.406	33.67
622.597	33.64
622.788	33.6
622.98	33.74
623.171	33.86
623.362	33.84
623.553	33.85
623.744	33.95
623.935	34.08
624.126	34.28
624.317	34.57
624.508	34.58
624.698	34.62
624.889	34.82
625.08	34.91
625.271	35.04
625.462	34.98
625.653	34.89
625.844	35.03
626.034	34.99
626.225	34.89
626.416	35.02
626.607	35.08
626.798	35.3
626.988	35.24
627.179	35.35
627.37	35.27
627.56	35.45
627.751	35.79
627.942	35.72
628.132	35.71
628.323	35.64
628.514	35.49
628.704	35.69
628.895	35.4
629.085	35.62
629.276	35.29
629.466	35.48
629.657	35.35
629.847	34.98
630.038	35.01
630.228	35.06
630.419	35.15
630.609	35.14
630.8	35.03
630.99	35.52
631.181	35.53
631.371	36.07
631.561	35.86
631.752	36.02
631.942	35.96
632.132	35.58
632.323	35.55
632.513	35.16
632.703	34.98
632.893	34.84
633.084	34.59
633.274	34.66
633.464	34.67
633.654	34.76
633.844	34.61
634.034	34.75
634.225	35.08
634.415	35.13
634.605	35.26
634.795	35.48
634.985	35.34
635.175	35.46
635.365	35.21
635.555	34.86
635.745	34.78
635.935	35.03
636.125	34.99
636.315	35.08
636.505	35.03
636.695	35.39
636.885	35.12
637.075	35.4
637.265	35.54
637.455	35.43
637.644	35.65
637.834	35.75
638.024	35.49
638.214	35.85
638.404	35.82
638.593	35.9
638.783	35.53
638.973	35.72
639.163	35.74
639.352	35.51
639.542	35.67
639.732	35.7
639.921	35.78
640.111	36.1
640.301	36.02
640.49	35.96
640.68	35.75
640.87	36.18
641.059	36.59
641.249	36.73
641.438	36.88
641.628	36.88
641.817	36.96
642.007	36.99
642.196	37.07
642.386	36.92
642.575	37.31
642.764	37.59
642.954	37.46
643.143	37.44
643.333	37.45
643.522	37.49
643.711	37.57
643.901	37.4
644.09	37.45
644.279	37.11
644.469	37.22
644.658	37.16
644.847	37.08
645.036	37.24
645.226	36.85
645.415	36.45
645.604	36.29
645.793	36.26
645.982	36.08
646.171	36.17
646.361	36.44
646.55	36.6
646.739	36.35
646.928	36.39
647.117	36.41
647.306	36.48
647.495	36.87
647.684	37.04
647.873	37.49
648.062	38.02
648.251	38.03
648.44	37.6
648.629	37.44
648.818	37.68
649.007	37.59
649.196	37.51
649.384	37.55
649.573	37.52
649.762	37.68
649.951	37.59
650.14	37.22
650.328	37.03
650.517	37.51
650.706	37.62
650.895	37.31
651.083	37.46
651.272	36.94
651.461	37.18
651.65	37.12
651.838	37.15
652.027	36.96
652.216	37.02
652.404	37.09
652.593	37.19
652.781	36.75
652.97	37.21
653.158	37.14
653.347	38.07
653.535	37.91
653.724	37.89
653.912	37.69
654.101	37.92
654.289	38.04
654.478	38.3
654.666	38.17
654.855	38.66
655.043	38.26
655.231	38.29
655.42	37.8
655.608	37.9
655.796	38.1
655.985	38.31
656.173	38.47
656.361	38.7
656.55	38.52
656.738	38.52
656.926	38.39
657.114	38.76
657.302	38.7
657.491	38.74
657.679	38.64
657.867	38.57
658.055	38.66
658.243	38.6
658.431	38.78
658.619	38.82
658.807	38.87
658.996	39.06
659.184	38.86
659.372	39.07
659.56	39.16
659.748	39.37
659.936	39.7
660.124	39.84
660.311	39.71
660.499	39.29
660.687	39.52
660.875	39.67
661.063	39.48
661.251	39.62
661.439	39.21
661.627	39.44
661.814	39.38
662.002	38.66
662.19	38.14
662.378	38.15
662.565	38.29
662.753	38.21
662.941	37.98
663.129	37.71
663.316	37.81
663.504	38.1
663.692	37.62
663.879	37.45
664.067	37.83
664.254	38.13
664.442	38.33
664.63	38.64
664.817	38.37
665.005	38.23
665.192	39.05
665.38	38.87
665.567	39.31
665.755	39.96
665.942	40.42
666.13	40.83
666.317	40.67
666.504	40.43
666.692	40.33
666.879	41.03
667.067	41.64
667.254	41.17
667.441	41.31
667.629	40.96
667.816	40.56
668.003	40.06
668.19	40.02
668.378	40.19
668.565	40.46
668.752	40.49
668.939	40.09
669.127	39.61
669.314	40.03
669.501	39.73
669.688	39.98
669.875	40.24
670.062	40.65
670.249	40.33
670.436	40.12
670.623	40.19
670.81	40.5
670.997	40.42
671.184	40.05
671.371	40.1
671.558	40.15
671.745	40.19
671.932	40.35
672.119	39.97
672.306	40.22
672.493	40.2
672.68	39.94
672.867	39.84
673.054	39.93
673.24	40.96
673.427	41.11
673.614	41.35
673.801	41.28
673.988	41.01
674.174	41.26
674.361	41.48
674.548	41.83
674.734	41.88
674.921	41.65
675.108	41.67
675.294	41.21
675.481	40.77
675.668	40.7
675.854	40.97
676.041	41.04
676.227	41.05
676.414	41.42
676.601	41.25
676.787	41.12
676.974	40.87
677.16	40.92
677.347	40.83
677.533	40.54
677.719	40.48
677.906	40.03
678.092	39.73
678.279	39.8
678.465	38.87
678.651	38.91
678.838	38.77
679.024	39.12
679.21	39.28
679.397	39.34
679.583	39.61
679.769	39.69
679.955	40.14
680.142	40.51
680.328	40.49
680.514	40.66
680.7	40.57
680.886	40.82
681.073	40.41
681.259	40.44
681.445	40.35
681.631	40.42
681.817	40.27
682.003	40.1
682.189	40.17
682.375	40.01
682.561	40.1
682.747	39.98
682.933	39.78
683.119	40.19
683.305	39.93
683.491	40.1
683.677	40.19
683.863	40.32
684.049	40.41
684.235	40.14
684.42	40.18
684.606	40.89
684.792	41.56
684.978	42.1
685.164	42.06
685.349	42.4
685.535	42.37
685.721	42.16
685.907	42.22
686.092	42.22
686.278	42.03
686.464	42.13
686.649	41.37
686.835	40.94
687.021	40.83
687.206	40.72
687.392	40.45
687.577	40.17
687.763	40.54
687.948	40.58
688.134	40.42
688.319	40.66
688.505	40.63
688.69	40.55
688.876	40.68
689.061	40.18
689.247	40.36
689.432	40.66
689.618	41.08
689.803	40.87
689.988	41.36
690.174	41.23
690.359	41.17
690.544	41.44
690.73	41.59
690.915	41.49
691.1	41.82
691.285	42.26
691.471	42.19
691.656	42.23
691.841	42.52
692.026	41.89
692.211	42.09
692.396	41.86
692.582	41.59
692.767	41.4
692.952	41.18
693.137	41.27
693.322	40.62
693.507	40.68
693.692	40.66
693.877	40.42
694.062	40.5
694.247	40.36
694.432	40.88
694.617	41.5
694.802	41.64
694.987	42.06
695.172	42.37
695.357	42.12
695.541	41.45
695.726	41.34
695.911	41.68
696.096	42.09
696.281	42.18
696.466	42.09
696.65	41.46
696.835	41.75
697.02	41.9
697.204	41.74
697.389	42.61
697.574	43.24
697.759	43.12
697.943	42.92
698.128	42.61
698.312	42.66
698.497	42.43
698.682	42.56
698.866	42.71
699.051	42.72
699.235	42.61
699.42	42.27
699.604	42.02
699.789	41.95
699.973	41.95
700.158	41.88
700.342	41.77
700.527	42.03
700.711	41.92
700.895	41.85
701.08	41.74
701.264	41.9
701.448	42.25
701.633	41.95
701.817	42.49
702.001	42.38
702.186	42.87
702.37	43.2
702.554	42.91
702.738	42.64
702.923	42.55
703.107	42.26
703.291	42.02
703.475	41.46
703.659	42.12
703.843	41.9
704.027	41.88
704.212	41.16
704.396	41.37
704.58	41.59
704.764	42.1
704.948	41.68
705.132	41.75
705.316	41.62
705.5	41.6
705.684	41.32
705.868	41
706.052	41.63
706.235	41.83
706.419	41.51
706.603	41.19
706.787	41.3
706.971	41.98
707.155	42.49
707.339	42.93
707.522	42.89
707.706	43.21
707.89	43.46
708.074	42.42
708.257	42.94
708.441	43.07
708.625	43.6
708.808	43.55
708.992	43.28
709.176	43.19
709.359	42.89
709.543	43.24
709.727	43.33
709.91	43.48
710.094	44.34
710.277	44.43
710.461	43.58
710.644	43.54
710.828	43.6
711.011	43.75
711.195	43.36
711.378	44.16
711.562	44.29
711.745	44.01
711.928	43.61
712.112	42.64
712.295	42.56
712.478	42.64
712.662	42.43
712.845	42.58
713.028	42.02
713.212	42.13
713.395	41.56
713.578	41.26
713.761	41.23
713.945	41.2
714.128	42.34
714.311	42.52
714.494	43.15
714.677	43.34
714.86	43.44
715.043	43.7
715.227	43.39
715.41	43.57
715.593	43.93
715.776	44.25
715.959	44.75
716.142	44.47
716.325	43.9
716.508	43.83
716.691	43.87
716.874	43.51
717.057	43.48
717.239	44.09
717.422	43.78
717.605	44.12
717.788	44.09
717.971	43.77
718.154	44.1
718.337	43.85
718.519	43.78
718.702	43.87
718.885	43.14
719.068	43.37
719.25	43.61
719.433	44.19
719.616	43.02
719.798	42.46
719.981	43.16
720.164	42.38
720.346	43.01
720.529	42.19
720.712	42.01
720.894	42.62
721.077	42.14
721.259	42.03
721.442	41.98
721.624	41.97
721.807	42.47
721.989	41.41
722.172	40.97
722.354	40.57
722.537	42.03
722.719	42.97
722.901	43.68
723.084	44.46
723.266	43.9
723.448	42.82
723.631	44.25
723.813	43.27
723.995	44.9
724.178	45.69
724.36	46.17
724.542	45.66
724.724	44.28
724.907	44.12
725.089	44.16
725.271	44.29
725.453	44.97
725.635	44.35
725.817	45.86
725.999	44.6
726.181	44.92
726.364	44.81
726.546	45.01
726.728	45.92
726.91	45.6
727.092	45.26
727.274	45.11
727.456	45.12
727.638	44.53
727.819	43.93
728.001	44.59
728.183	43.65
728.365	43.86
728.547	43.77
728.729	42.9
728.911	43.57
729.093	43.05
729.274	44.02
729.456	44.28
729.638	43.82
729.82	43.74
730.001	42.86
730.183	43.47
730.365	42.97
730.546	42.81
730.728	42.72
730.91	42.47
731.091	43.5
731.273	42.48
731.455	42.54
731.636	43.67
731.818	43.53
731.999	43.79
732.181	43.14
732.362	43.08
732.544	42.77
732.725	43.02
732.907	43.24
733.088	42.91
733.27	43.59
733.451	43.56
733.633	43.36
733.814	43.73
733.995	43.48
734.177	44.66
734.358	45.59
734.539	46.41
734.721	45.98
734.902	45.37
735.083	45
735.264	44.82
735.446	44.38
735.627	44.41
735.808	44.25
735.989	44.33
736.17	42.98
736.351	42.19
736.533	42.3
736.714	43.06
736.895	42.56
737.076	42.58
737.257	41.66
737.438	41.54
737.619	40.74
737.8	40.7
737.981	40.76
738.162	42.39
738.343	42.36
738.524	42.22
738.705	42.36
738.886	43.02
739.067	42.92
739.247	43.98
739.428	43.77
739.609	43.89
739.79	44.55
739.971	44.87
740.151	43.83
740.332	43.97
740.513	43.78
740.694	43.29
740.874	43.1
741.055	43.66
741.236	43.75
741.417	44.45
741.597	44.87
741.778	43.41
741.958	43.11
742.139	43.25
742.32	43.87
742.5	43.99
742.681	44.49
742.861	45.38
743.042	44.41
743.222	43.64
743.403	43.18
743.583	43.71
743.764	45.12
743.944	45.25
744.124	44.91
744.305	44.45
744.485	43.99
744.666	43.93
744.846	42.72
745.026	43.43
745.207	43.96
745.387	43.63
745.567	43.25
745.747	41.77
745.928	42.13
746.108	42.65
746.288	43.51
746.468	44.5
746.648	44.43
746.829	44.33
747.009	44.88
747.189	44.38
747.369	45.47
747.549	46.03
747.729	46.73
747.909	46.35
748.089	46.94
748.269	46.45
748.449	45.65
748.629	46.37
748.809	47.03
748.989	46.02
749.169	46.09
749.349	45.88
749.529	45.15
749.709	45.39
749.889	45.78
750.068	44.54
750.248	44.25
750.428	44.19
750.608	44.34
750.788	43.99
750.967	44.83
751.147	45.32
751.327	43.92
751.507	44.09
751.686	44.19
751.866	44.93
752.046	45.52
752.225	45.85
752.405	45.57
752.585	44.46
752.764	45.06
752.944	44.02
753.123	44
753.303	46.16
753.482	46.85
753.662	47.82
753.841	46.59
754.021	46.51
754.2	45.96
754.38	46.43
754.559	46.55
754.739	45.76
754.918	46.2
755.097	45.56
755.277	43.96
755.456	42.73
755.635	41.81
755.815	41.76
755.994	42.59
756.173	42.66
756.352	43.32
756.532	44.12
756.711	46.08
756.89	46.66
757.069	46.35
757.248	46.3
757.427	46.63
757.607	45.99
757.786	46.91
757.965	46.87
758.144	47.44
758.323	46.97
758.502	46.21
758.681	45.35
758.86	44.07
759.039	44.92
759.218	45.9
759.397	46.11
759.576	45.6
759.755	44.89
759.934	43.45
760.113	42.92
760.291	43.19
760.47	43.2
760.649	43.58
760.828	44.39
761.007	44.38
761.186	43.73
761.364	43.3
761.543	43.74
761.722	43.7
761.901	43.89
762.079	43.77
762.258	43.55
762.437	44.18
762.615	43.46
762.794	43.37
762.972	43.11
763.151	42.92
763.33	43.2
763.508	43.29
763.687	43.89
763.865	44.56
764.044	44.95
764.222	44.59
764.401	44.12
764.579	44.08
764.758	43.92
764.936	44.55
765.114	45.11
765.293	45.21
765.471	45.43
765.65	44.14
765.828	43.73
766.006	43.53
766.184	43.37
766.363	43.51
766.541	43.55
766.719	44
766.898	43.49
767.076	43.19
767.254	43.63
767.432	43.62
767.61	45.75
767.788	45.97
767.967	46.71
768.145	47.15
768.323	47.42
768.501	48.32
768.679	48.87
768.857	48.99
769.035	49.17
769.213	49.23
769.391	50.39
769.569	49.14
769.747	49
769.925	47.85
770.103	47.44
770.281	47.14
770.459	45.63
770.636	44.99
770.814	45.68
770.992	44.86
771.17	44.07
771.348	41.98
771.525	40.74
771.703	40.62
771.881	40.97
772.059	41.74
772.236	40.45
772.414	42.34
772.592	42.21
772.769	41.67
772.947	42.52
773.125	44.37
773.302	46.21
773.48	46.95
773.657	47.83
773.835	47.06
774.013	47.61
774.19	48
774.368	46.39
774.545	46.15
774.723	45.02
774.9	44.96
775.077	43.54
775.255	42.42
775.432	43.24
775.61	42.28
775.787	41.88
775.964	40.75
776.142	42.66
776.319	43.87
776.496	44.13
776.674	45.04
776.851	45.41
777.028	45.67
777.205	47
777.382	45.79
777.56	46.8
777.737	47.08
777.914	47.68
778.091	47.49
778.268	47.19
778.445	47.61
778.622	46.4
778.8	48.73
778.977	47.15
779.154	54.25
779.331	55.03
779.508	55.36
779.685	56.01
779.862	56.46
780.038	55.52
780.215	54.85
780.392	54.78
780.569	57.52
780.746	53.81
780.923	54.25
781.1	45.47
781.277	46.35
781.453	45.05
781.63	44.51
781.807	44.91
781.984	46.44
782.16	46.93
782.337	46.4
782.514	44.98
782.691	46.8
782.867	45.83
783.044	45.34
783.221	43.18
783.397	44.3
783.574	45.56
783.75	45.9
783.927	45.25
784.103	45.76
784.28	44.73
784.456	44.52
784.633	43.69
784.809	45.51
784.986	45.21
785.162	46.84
785.339	45.89
785.515	47.49
785.692	47.22
785.868	46.39
786.044	44.33
786.221	46.08
786.397	46.8
786.573	47.42
786.749	46.44
786.926	46.52
787.102	46.63
787.278	46.7
787.454	45.88
787.631	45.31
787.807	44.86
787.983	46.51
788.159	46.11
788.335	46.28
788.511	46.42
788.687	48.42
788.863	50.02
789.039	50.79
789.216	50.64
789.392	49.07
789.568	48.92
789.744	50.9
789.919	51.57
790.095	51.22
790.271	51.3
790.447	50.7
790.623	49.32
790.799	47.4
790.975	46.45
791.151	46.05
791.327	46.17
791.502	45.26
791.678	44.73
791.854	43.45
792.03	45.91
792.205	44.82
792.381	44.99
792.557	44.92
792.733	44.82
792.908	45.02
793.084	45.6
793.259	46.27
793.435	46.54
793.611	46.16
793.786	47.75
793.962	45.42
794.137	45.68
794.313	46.28
794.488	48.16
794.664	50.16
794.839	48.57
795.015	49.22
795.19	48.33
795.366	50.82
795.541	49.96
795.716	48.47
795.892	47.53
796.067	47.81
796.242	45.97
796.418	43.07
796.593	41.75
796.768	42.59
796.944	42.65
797.119	43.09
797.294	42.5
797.469	43.01
797.644	42.47
797.82	42.91
797.995	40.5
798.17	41.36
798.345	44.23
798.52	45.72
798.695	45.49
798.87	45.83
799.045	46.63
799.22	45.52
799.395	44.03
799.57	45.22
799.745	45.82
799.92	46.53
800.095	46.41
800.27	44.58
800.445	44.45
800.62	43.88
800.795	40.88
800.97	39.9
801.145	39.36
801.319	37.14
801.494	37.8
801.669	39.32
801.844	40.66
802.018	39.17
802.193	39.1
802.368	37.83
802.543	38.89
802.717	38.1
802.892	38.94
803.067	40.3
803.241	42.99
803.416	43.52
803.59	41.56
803.765	43.79
803.94	46.09
804.114	46.09
804.289	46.83
804.463	47.74
804.638	51.43
804.812	52.06
804.986	52.28
805.161	53.77
805.335	50.96
805.51	50.29
805.684	46.31
805.858	46.86
806.033	46.88
806.207	45.37
806.381	45.34
806.556	46.82
806.73	47.9
806.904	45.88
807.078	45.94
807.253	49.46
807.427	49.92
807.601	51.74
807.775	50.74
807.949	52.58
808.123	54.75
808.298	53.29
808.472	49.79
808.646	47.03
808.82	49.57
808.994	48.5
809.168	45.21
809.342	45.39
809.516	44.75
809.69	45.91
809.864	45.36
810.038	44.98
810.212	43.69
810.385	44.81
810.559	45.68
810.733	42.49
810.907	43.66
811.081	44.76
811.255	43.22
811.428	44.93
811.602	43.35
811.776	42.28
811.95	42.41
812.123	44.27
812.297	43.12
812.471	43.01
812.644	44.38
812.818	48.28
812.992	46.95
813.165	48.19
813.339	45.67
813.512	47.59
813.686	46.56
813.86	45.77
814.033	45.89
814.207	47.76
814.38	47.08
814.554	46.81
814.727	41.38
814.9	44.4
815.074	45.49
815.247	48.76
815.421	44.82
815.594	46
815.767	48.86
815.941	47.88
816.114	48.81
816.287	49.44
816.46	49.98
816.634	49.7
816.807	47.66
816.98	47.81
817.153	45.59
817.327	46.94
817.5	46.55
817.673	43.74
817.846	44.33
818.019	44.57
818.192	46.68
818.365	45.34
818.538	46.97
818.711	45.54
818.884	42.74
819.057	42.63
819.23	44.3
819.403	43.11
819.576	43.6
819.749	44.63
819.922	44.29
820.095	43.06
820.268	43.26
820.441	44.78
820.614	44.06
820.786	46.08
820.959	46.29
821.132	45.96
821.305	46.43
821.477	46.54
821.65	47.15
821.823	46.05
821.996	45.9
822.168	46.03
822.341	45.38
822.514	45.82
822.686	45.13
822.859	44.94
823.031	44.8
823.204	44.69
823.376	44.27
823.549	43.29
823.722	43.32
823.894	43.18
824.067	43.43
824.239	43.27
824.411	43.17
824.584	44.14
824.756	43.47
824.929	43.36
825.101	43.9
825.273	43.9
825.446	43.88
825.618	43.97
825.79	43.4
825.963	43.16
826.135	42.92
826.307	41.99
826.479	41.54
826.652	42.6
826.824	42.6
826.996	41.21
827.168	41.5
827.34	42.43
827.512	42.47
827.684	43.65
827.856	42.5
828.029	42.73
828.201	43.62
828.373	43.23
828.545	43.53
828.717	43.55
828.889	43.54
829.061	43.9
829.232	43.84
829.404	45.14
829.576	44.7
829.748	46.31
829.92	46.9
830.092	48.48
830.264	47.9
830.436	46.98
830.607	46.77
830.779	48.22
830.951	46.84
831.123	46.74
831.294	43.58
831.466	44.8
831.638	44.68
831.809	43.76
831.981	41.24
832.153	42.06
832.324	43.83
832.496	43.93
832.667	45.93
832.839	47.62
833.011	46.81
833.182	48.94
833.354	47.95
833.525	47.1
833.697	48.37
833.868	48.1
834.039	48.38
834.211	47.9
834.382	48.45
834.554	48.44
834.725	48.29
834.896	47.72
835.068	46.34
835.239	44.23
835.41	43.42
835.581	43.98
835.753	43.48
835.924	42.65
836.095	41.94
836.266	41.14
836.438	38.05
836.609	38.81
836.78	40.22
836.951	40.57
837.122	40.15
837.293	39.89
837.464	37.34
837.635	39.14
837.806	39.97
837.977	41.45
838.148	41.74
838.319	42.1
838.49	40.31
838.661	40.42
838.832	43.87
839.003	48.04
839.174	52.02
839.345	53.98
839.516	55.11
839.687	56.13
839.857	52.91
840.028	49.01
840.199	49.7
840.37	49.18
840.54	47.55
840.711	42.94
840.882	42.94
841.053	45.84
841.223	46.58
841.394	40.3
841.564	41.03
841.735	41.65
841.906	48.23
842.076	52.47
842.247	55.14
842.417	53.12
842.588	54.05
842.758	51.92
842.929	42.33
843.099	39
843.27	46.58
843.44	43.81
843.611	47.51
843.781	44.81
843.951	43.07
844.122	40.26
844.292	38.52
844.462	37.57
844.633	36.07
844.803	42.8
844.973	41.23
845.144	35.98
845.314	35.39
845.484	29.64
845.654	27.86
845.824	29.59
845.995	24.6
846.165	25.8
846.335	27.58
846.505	30.38
846.675	30.28
846.845	39.25
847.015	35.3
847.185	38.4
847.355	44.15
847.525	47.27
847.695	42.88
847.865	54.93
848.035	54.42
848.205	47.75
848.375	49.82
848.545	48.96
848.715	46.6
848.884	52.06
849.054	54
849.224	55.39
849.394	55.4
849.564	57.02
849.733	59.58
849.903	61.24
850.073	68.2
850.243	72.92
850.412	73.79
850.582	72.05
850.752	66.07
850.921	61.5
851.091	54.61
851.26	53.63
851.43	55.53
851.599	49.13
851.769	55.15
851.939	46.81
852.108	34.27
852.278	32.61
852.447	37.5
852.616	39.3
852.786	37.1
852.955	44.02
853.125	43.7
853.294	45.94
853.463	45.41
853.633	36.92
853.802	44.29
853.971	51.85
854.141	55.38
854.31	45.51
854.479	40.79
854.648	37.67
854.818	35.54
854.987	37.69
855.156	36.74
855.325	34.84
855.494	43.73
855.663	36.25
855.832	36.09
856.001	32.16
856.171	35.59
856.34	39.36
856.509	45.25
856.678	42.51
856.847	49.36
857.016	47.97
857.185	47.5
857.353	39.95
857.522	37.16
857.691	38.34
857.86	35.46
858.029	32.2
858.198	37.64
858.367	37.74
858.535	36.45
858.704	34.36
858.873	28.61
859.042	18.15
859.21	22.41
859.379	24.41
859.548	25.36
859.717	25.46
859.885	32.44
860.054	25.71
860.222	23.95
860.391	28.88
860.56	30.98
860.728	34.05
860.897	40.77
861.065	36.65
861.234	37.23
861.402	31.14
861.571	34.38
861.739	26.67
861.908	34.3
862.076	33.61
862.244	28.04
862.413	27.69
862.581	28.09
862.749	29.1
862.918	37.85
863.086	40.28
863.254	40.95
863.423	34.55
863.591	45.37
863.759	43.62
863.927	51.12
864.096	51.74
864.264	36.2
864.432	41.8
864.6	48.55
864.768	40.82
864.936	41.02
865.104	49.49
865.272	50.72
865.44	46.17
865.608	35.22
865.776	37.13
865.944	37.91
866.112	43.62
866.28	41.43
866.448	48.11
866.616	53.99
866.784	39.57
866.952	27.49
867.12	30.6
867.288	29.61
867.455	35.11
867.623	27.09
867.791	27.11
867.959	30.58
868.127	43.08
868.294	34.54
868.462	27.15
868.63	37.88
868.797	43.91
868.965	45.15
869.133	40.61
869.3	47.6
869.468	51.16
869.636	57.84
869.803	52.19
869.971	40.33
870.138	36.75
870.306	46.12
870.473	40.74
870.641	39.95
870.808	40.67
870.975	50.2
871.143	41.55
871.31	42.35
871.478	45
871.645	47.06
871.812	58.12
871.98	67.44
872.147	60.81
872.314	77.98
872.482	69.24
872.649	71.05
872.816	71.76
872.983	73.54
873.15	64.37
873.318	58.26
873.485	56.25
873.652	54.79
873.819	52.48
873.986	50.69
874.153	43.81
874.32	42.91
874.487	46.08
874.654	35.07
874.821	25.32
874.988	28.08
875.155	26.62
875.322	22.05
875.489	9.48
875.656	9.27
875.823	8.39
875.99	16.47
876.157	20.33
876.324	19.86
876.49	28.65
876.657	35.36
876.824	46.81
876.991	43.07
877.157	44.4
877.324	47.1
877.491	47.05
877.658	47.73
877.824	50.65
877.991	57.23
878.157	57.2
878.324	60.85
878.491	68.42
878.657	58.65
878.824	66.23
878.99	76.43
879.157	82.24
879.323	75.12
879.49	70.79
879.656	75.7
879.823	69.48
879.989	72.34
880.156	66.57
880.322	59.94
880.488	57.7
880.655	58.88
880.821	52.13
880.987	43.59
881.154	46.64
881.32	51.7
881.486	47.7
881.652	46.12
881.819	44.31
881.985	43.83
882.151	47.45
882.317	48.16
882.483	48.72
882.649	48.89
882.816	47.58
882.982	48.03
883.148	46.18
883.314	46.17
883.48	46.62
883.646	45.51
883.812	45.88
883.978	45.76
884.144	44.67
884.31	43.54
884.476	43.1
884.642	44.32
884.807	43.19
884.973	43.89
885.139	43.56
885.305	41.46
885.471	42.96
885.637	43.32
885.802	42.52
885.968	42.94
886.134	44.21
886.3	46
886.465	45.25
886.631	45.78
886.797	46.44
886.962	47.34
887.128	50.49
887.293	50.53
887.459	51.09
887.625	51.57
887.79	52.46
887.956	47.32
888.121	43.89
888.287	44.99
888.452	45.66
888.618	43.37
888.783	37.56
