Data from LC_264_Reflection_3.txt Node
Date: Sat Nov 21 11:47:42 EST 2015
User: robert
Spectrometer: USB4E03001
Autoset integration time: false
Trigger mode: 4
Integration Time (sec): 1.000000E-1
Scans to average: 15
Electric dark correction enabled: true
Nonlinearity correction enabled: false
Boxcar width: 5
Stray light correction enabled: false
XAxis mode: Wavelengths
Stop averaging: false
Number of Pixels in Spectrum: 3648
>>>>>Begin Spectral Data<<<<<
177.566	66.23
177.785	86.36
178.005	241.3
178.225	-80.3
178.445	-49.69
178.665	-72.35
178.885	565.98
179.105	135.35
179.324	93.86
179.544	174.24
179.764	658.57
179.984	76.17
180.204	66.79
180.423	48.44
180.643	39.8
180.863	69.88
181.083	73.87
181.302	79.55
181.522	95.11
181.742	98.59
181.961	75.92
182.181	66.02
182.401	117.56
182.621	124.11
182.84	119.48
183.06	128.99
183.279	123.36
183.499	131.65
183.719	111.53
183.938	118.88
184.158	121.59
184.377	113.44
184.597	108.51
184.816	102.16
185.036	91.27
185.256	104.48
185.475	70.94
185.695	61.3
185.914	58.73
186.134	81.58
186.353	71.34
186.572	58.87
186.792	54.51
187.011	60.48
187.231	56.2
187.45	69.46
187.67	64.62
187.889	78.38
188.108	99.14
188.328	65.94
188.547	26.32
188.766	10.12
188.986	-29.4
189.205	-37.54
189.424	-336
189.644	-142.33
189.863	338.19
190.082	450.23
190.302	-567.3
190.521	-93.58
190.74	-2.27
190.959	-18.53
191.178	-7.17
191.398	39.46
191.617	18.24
191.836	59.59
192.055	32.15
192.274	32.39
192.494	-2.51
192.713	-17.12
192.932	-14.16
193.151	-38.35
193.37	-11.3
193.589	-3.1
193.808	-26.02
194.027	5.48
194.246	-13.02
194.465	1.66
194.685	5.11
194.904	28.41
195.123	27.56
195.342	20.2
195.561	25.47
195.78	4.12
195.999	-15.99
196.218	21.26
196.436	6
196.655	0.1
196.874	29.84
197.093	76.1
197.312	95.68
197.531	116.59
197.75	113.54
197.969	92.03
198.188	114.72
198.407	117.34
198.625	120.06
198.844	112.88
199.063	113.57
199.282	108.18
199.501	97.53
199.719	69.87
199.938	66.28
200.157	54.75
200.376	85.32
200.594	64.99
200.813	55.71
201.032	47.76
201.251	32.93
201.469	-8.38
201.688	-4.11
201.907	-19.99
202.125	19.86
202.344	30.18
202.563	14.76
202.781	-24.25
203	-19.6
203.218	-25.7
203.437	-127.34
203.656	-282.42
203.874	-157.2
204.093	-111.94
204.311	-80.19
204.53	-142.73
204.748	-192.46
204.967	-141.97
205.185	-112.1
205.404	-112.77
205.622	-238.55
205.841	-99.87
206.059	-17.61
206.278	-2.03
206.496	35.28
206.715	20.9
206.933	80.88
207.151	86.43
207.37	68.02
207.588	114.41
207.806	120.99
208.025	65.89
208.243	62.16
208.461	44.77
208.68	48.65
208.898	57.15
209.116	45.61
209.335	36.23
209.553	46.35
209.771	51.33
209.989	47.35
210.208	23.4
210.426	27.61
210.644	25.37
210.862	62.01
211.081	-43.37
211.299	-30.63
211.517	22.15
211.735	-14.82
211.953	-18.33
212.171	-22.27
212.39	-14.64
212.608	-0.82
212.826	2.81
213.044	-2.62
213.262	-8.69
213.48	3.87
213.698	10.11
213.916	5.81
214.134	33.22
214.352	40.59
214.57	57.16
214.788	70.76
215.006	75.59
215.224	63.06
215.442	56.76
215.66	75.18
215.878	62.83
216.096	90
216.314	81.83
216.532	96.05
216.75	84.45
216.968	89.28
217.185	70.18
217.403	76.05
217.621	78.72
217.839	84.24
218.057	80.59
218.275	87.5
218.492	66.68
218.71	51.45
218.928	40.96
219.146	40.98
219.363	38.68
219.581	51.65
219.799	17.56
220.017	30.78
220.234	26.53
220.452	32.86
220.67	43.21
220.887	45.7
221.105	65.47
221.323	50.66
221.54	57.64
221.758	49.16
221.976	43.54
222.193	62.45
222.411	69.08
222.629	68.42
222.846	62.69
223.064	56.89
223.281	45.26
223.499	34.53
223.716	44.74
223.934	34.26
224.151	35.53
224.369	22.89
224.586	12.5
224.804	16.26
225.021	8.48
225.239	16.55
225.456	18.39
225.674	18.22
225.891	24.82
226.108	17.66
226.326	22.64
226.543	20.53
226.76	22.71
226.978	18.56
227.195	14.14
227.413	13.73
227.63	14.1
227.847	15.16
228.064	14.61
228.282	8.81
228.499	10.05
228.716	7.88
228.934	7.56
229.151	6.37
229.368	7.91
229.585	7.33
229.802	8.38
230.02	7.13
230.237	6.14
230.454	8.95
230.671	11.64
230.888	13.37
231.105	14.66
231.323	13.48
231.54	15.28
231.757	15.97
231.974	16.1
232.191	11.87
232.408	14.09
232.625	15.81
232.842	11.35
233.059	10.56
233.276	8.89
233.493	12.19
233.71	16.28
233.927	17.93
234.144	17.3
234.361	21.97
234.578	24.56
234.795	24.59
235.012	22.21
235.229	23.14
235.446	22.07
235.663	21.97
235.879	22.33
236.096	18.95
236.313	19.45
236.53	21.68
236.747	16.41
236.964	15.39
237.181	12.65
237.397	9.59
237.614	4.6
237.831	3.52
238.048	2.04
238.264	-1.03
238.481	0.26
238.698	1.95
238.915	0.55
239.131	-3.48
239.348	-4.21
239.565	-2.62
239.781	1.02
239.998	3.77
240.215	4.71
240.431	3.38
240.648	2.43
240.865	2.15
241.081	0.2
241.298	1.26
241.514	7.79
241.731	8.38
241.947	9.47
242.164	11.66
242.38	11.39
242.597	11.77
242.814	11.9
243.03	12.64
243.246	13.68
243.463	14.02
243.679	15.15
243.896	14.96
244.112	16.27
244.329	16.29
244.545	14.35
244.762	16.76
244.978	15.22
245.194	14.1
245.411	14.35
245.627	12.22
245.843	10.33
246.06	8.34
246.276	6.29
246.492	6.78
246.709	6.17
246.925	6.52
247.141	5.78
247.357	5.75
247.574	6.05
247.79	5.62
248.006	6.46
248.222	6.94
248.439	7.52
248.655	8.96
248.871	8.86
249.087	9.2
249.303	9.01
249.519	10.06
249.736	11.94
249.952	13.95
250.168	13.77
250.384	14.06
250.6	15.95
250.816	15.68
251.032	13.84
251.248	13.34
251.464	13.46
251.68	15.06
251.896	12.51
252.112	10.91
252.328	9.83
252.544	10.79
252.76	10.44
252.976	9.54
253.192	10.36
253.408	10.18
253.624	9.84
253.84	11.17
254.056	8.77
254.272	9.36
254.487	9.1
254.703	10.65
254.919	9.11
255.135	9.73
255.351	8.71
255.567	7.15
255.782	8.19
255.998	8.53
256.214	8.92
256.43	10.61
256.646	12.1
256.861	11.22
257.077	10.39
257.293	13.32
257.508	11.52
257.724	12.35
257.94	12.33
258.155	11.53
258.371	10.24
258.587	9.12
258.802	8.13
259.018	6.98
259.234	7.83
259.449	6.89
259.665	6.91
259.88	7.34
260.096	6.74
260.312	7.89
260.527	8.44
260.743	9.18
260.958	9.1
261.174	8.76
261.389	9.77
261.605	9.61
261.82	10.03
262.036	9.94
262.251	9.45
262.466	10.51
262.682	8.61
262.897	8.2
263.113	8.53
263.328	8.35
263.543	10.37
263.759	8.38
263.974	10.24
264.189	11.6
264.405	12.1
264.62	14.08
264.835	15.09
265.051	15.79
265.266	14.93
265.481	13.49
265.696	13.65
265.912	12.84
266.127	12.71
266.342	11.96
266.557	9.48
266.773	8.57
266.988	7.44
267.203	4.84
267.418	3.82
267.633	4.69
267.848	2.56
268.064	2.06
268.279	2.75
268.494	3.1
268.709	2.49
268.924	3.3
269.139	2.5
269.354	1.81
269.569	2.15
269.784	3.14
269.999	1.52
270.214	4.28
270.429	5.96
270.644	4.74
270.859	5.21
271.074	4.19
271.289	3.79
271.504	4.03
271.719	3.8
271.934	5.4
272.149	5.35
272.363	5.82
272.578	5.12
272.793	4.01
273.008	5.47
273.223	5.23
273.438	6.4
273.653	7.72
273.867	8.24
274.082	9.63
274.297	7.67
274.512	7.41
274.726	8.18
274.941	8.54
275.156	9.96
275.371	8.26
275.585	9.61
275.8	9.02
276.015	7.63
276.229	6.39
276.444	6.83
276.659	8.57
276.873	9.47
277.088	9.12
277.302	9.37
277.517	7.8
277.732	8.28
277.946	8.17
278.161	7.7
278.375	8.66
278.59	10.17
278.804	8.42
279.019	8.82
279.233	8.52
279.448	7.97
279.662	8.18
279.877	8.09
280.091	9.16
280.306	8.11
280.52	8.51
280.735	9.98
280.949	8.9
281.163	10.34
281.378	8.94
281.592	8.74
281.806	8.96
282.021	8.56
282.235	8.95
282.449	8.35
282.664	8.39
282.878	8.32
283.092	7.97
283.307	8.51
283.521	8.47
283.735	9.53
283.949	9.17
284.164	8.5
284.378	8.41
284.592	7.28
284.806	7.56
285.02	7.66
285.234	8.05
285.449	6.23
285.663	6.38
285.877	5.59
286.091	5.65
286.305	4.96
286.519	5.43
286.733	6.27
286.947	6.57
287.161	6.17
287.375	6.24
287.589	6.03
287.803	7.27
288.017	7.42
288.231	6.74
288.445	6.85
288.659	7.22
288.873	8
289.087	7.49
289.301	7.27
289.515	5.98
289.729	6.44
289.943	6.46
290.157	6.21
290.371	6.07
290.584	7.19
290.798	6.2
291.012	6.27
291.226	6.61
291.44	5.46
291.654	6.93
291.867	8.47
292.081	8.63
292.295	9.05
292.509	8.99
292.722	9.66
292.936	9.62
293.15	9.7
293.364	10.63
293.577	9.69
293.791	9.79
294.005	9.18
294.218	8.92
294.432	7.63
294.645	8
294.859	8.12
295.073	7.34
295.286	7.32
295.5	8.44
295.713	8.22
295.927	8.3
296.14	9.49
296.354	9.79
296.568	10.18
296.781	10.74
296.994	10.41
297.208	9.86
297.421	10.27
297.635	10.58
297.848	9.73
298.062	9.82
298.275	10.08
298.489	9.87
298.702	9.83
298.915	9.24
299.129	9.64
299.342	9.38
299.555	10.32
299.769	9.74
299.982	9.53
300.195	10.58
300.409	10.33
300.622	10.76
300.835	10.96
301.048	11.52
301.262	11.13
301.475	10.77
301.688	11.2
301.901	11.85
302.115	12.5
302.328	12.1
302.541	11.22
302.754	11.45
302.967	11.51
303.18	11.53
303.393	11.64
303.607	11.97
303.82	11.88
304.033	10.84
304.246	10.03
304.459	10.57
304.672	11.11
304.885	11.91
305.098	12.87
305.311	12.02
305.524	11.65
305.737	11.1
305.95	11.69
306.163	11.69
306.376	11.92
306.589	11.93
306.802	10.79
307.015	10.64
307.228	11.8
307.44	10.88
307.653	11.25
307.866	10.83
308.079	9.46
308.292	8.42
308.505	9.14
308.718	10.17
308.93	10.1
309.143	8.87
309.356	8.73
309.569	7.1
309.781	7.73
309.994	6.98
310.207	7.71
310.42	7.93
310.632	8.78
310.845	8.62
311.058	8.47
311.27	8.7
311.483	11.03
311.696	10.97
311.908	11.83
312.121	11.19
312.333	11.72
312.546	11.54
312.759	12.99
312.971	13.16
313.184	13.27
313.396	12.61
313.609	12.05
313.821	10.67
314.034	11.12
314.246	11.46
314.459	11.78
314.671	11.21
314.884	10.77
315.096	10.01
315.309	8.9
315.521	8.84
315.733	9.91
315.946	10.76
316.158	10.61
316.371	11.08
316.583	10.72
316.795	11.07
317.008	11.85
317.22	11.79
317.432	11.32
317.644	12.02
317.857	10.93
318.069	10.37
318.281	10.24
318.494	10.29
318.706	9.51
318.918	8.56
319.13	8.01
319.342	8.3
319.555	8.39
319.767	8.64
319.979	8.46
320.191	9.08
320.403	10.32
320.615	9.53
320.827	9.01
321.039	7.91
321.252	7.46
321.464	7.79
321.676	7.16
321.888	8.2
322.1	8.02
322.312	9.02
322.524	9.12
322.736	8.53
322.948	9.41
323.16	9.68
323.372	11.78
323.584	13.29
323.796	13.71
324.007	14.59
324.219	14.27
324.431	15
324.643	15.47
324.855	15.06
325.067	15.11
325.279	15.43
325.491	16.07
325.702	15.32
325.914	15.19
326.126	14.95
326.338	13.7
326.55	14.16
326.761	14.32
326.973	13.94
327.185	15.17
327.396	15.16
327.608	14.08
327.82	14.11
328.032	14.88
328.243	14.46
328.455	15.21
328.666	16.55
328.878	17.57
329.09	17.03
329.301	17.98
329.513	17.99
329.725	18.48
329.936	20.05
330.148	20.42
330.359	21
330.571	21.58
330.782	21.35
330.994	20.27
331.205	19.71
331.417	20.84
331.628	20.82
331.84	20.79
332.051	20.79
332.262	20.66
332.474	21.41
332.685	20.98
332.897	21.69
333.108	21.14
333.319	21.68
333.531	21.46
333.742	20.72
333.953	21
334.165	21.56
334.376	20.92
334.587	21.4
334.799	21.64
335.01	21.72
335.221	22.37
335.432	22.97
335.644	23.83
335.855	24.01
336.066	25.02
336.277	24.22
336.488	23.29
336.7	23.93
336.911	23.89
337.122	23.66
337.333	24.39
337.544	23.85
337.755	24.96
337.966	25.12
338.177	25.49
338.388	24.97
338.599	25.09
338.811	26.36
339.022	26.63
339.233	25.94
339.444	25.66
339.655	25.59
339.866	26.01
340.076	24.67
340.287	23.99
340.498	23.67
340.709	23.97
340.92	23.76
341.131	23.27
341.342	23.27
341.553	24.21
341.764	24.32
341.975	23.4
342.185	22.39
342.396	22.78
342.607	23.51
342.818	23.69
343.029	23.16
343.239	23.31
343.45	22.41
343.661	22.63
343.872	22.25
344.082	23.5
344.293	24.04
344.504	24.59
344.714	24.51
344.925	24.34
345.136	23.5
345.346	23.55
345.557	24.04
345.768	24.13
345.978	23.67
346.189	23.18
346.399	21.4
346.61	21.32
346.821	20.78
347.031	20.53
347.242	19.95
347.452	20.68
347.663	20.53
347.873	20.04
348.084	21.31
348.294	21.48
348.504	22.42
348.715	23.26
348.925	22.93
349.136	23.42
349.346	24.17
349.557	23.83
349.767	23.37
349.977	23.81
350.188	23.86
350.398	22.61
350.608	22.53
350.819	22.54
351.029	21.78
351.239	21.97
351.449	22.13
351.66	21.63
351.87	22.28
352.08	22.54
352.29	22.55
352.501	22.04
352.711	22.37
352.921	22.43
353.131	22.42
353.341	23.71
353.552	23.66
353.762	23.2
353.972	22.99
354.182	22.93
354.392	23.34
354.602	23.42
354.812	23.77
355.022	24.7
355.232	24.96
355.442	24.67
355.652	24.11
355.862	23.4
356.072	23.48
356.282	23.71
356.492	23.71
356.702	23.33
356.912	23.02
357.122	23.53
357.332	22.55
357.542	22.37
357.752	22.36
357.962	22.23
358.171	22.77
358.381	22.5
358.591	22.47
358.801	22.88
359.011	23.32
359.221	23.13
359.43	23.09
359.64	23.42
359.85	23.29
360.06	22.86
360.269	23.37
360.479	23.07
360.689	22.84
360.899	22.94
361.108	22.61
361.318	22.19
361.528	22.55
361.737	22.28
361.947	22.24
362.156	22.27
362.366	22.62
362.576	22.01
362.785	22.11
362.995	22.67
363.204	22.3
363.414	22.21
363.623	22.74
363.833	22.66
364.042	22.57
364.252	22.39
364.461	22.29
364.671	22.03
364.88	22.21
365.09	22.03
365.299	21.49
365.509	21.06
365.718	21.08
365.927	20.9
366.137	20.54
366.346	20.82
366.555	20.55
366.765	20.66
366.974	20.94
367.183	20.59
367.393	20.67
367.602	21.01
367.811	21.45
368.021	20.96
368.23	20.86
368.439	20.53
368.648	20.04
368.857	20.28
369.067	20.05
369.276	19.99
369.485	20.72
369.694	20.32
369.903	20.07
370.112	19.96
370.321	20.34
370.531	19.52
370.74	19.96
370.949	19.58
371.158	19.62
371.367	19.36
371.576	19.19
371.785	18.57
371.994	19.15
372.203	19.41
372.412	19.09
372.621	19.3
372.83	19.6
373.039	19.6
373.248	20.18
373.457	19.57
373.666	19.38
373.874	18.79
374.083	18.91
374.292	18.52
374.501	18.2
374.71	18.03
374.919	17.8
375.128	17.78
375.336	17.64
375.545	17.54
375.754	17.45
375.963	17.32
376.171	18.1
376.38	17.61
376.589	17.28
376.798	16.68
377.006	16.89
377.215	16.79
377.424	16.69
377.632	16.6
377.841	16.39
378.05	16.58
378.258	16.95
378.467	16.71
378.675	16.82
378.884	16.79
379.093	17.04
379.301	16.8
379.51	16.87
379.718	17.01
379.927	16.96
380.135	16.71
380.344	17.15
380.552	16.88
380.761	16.44
380.969	16.65
381.177	17.08
381.386	17.19
381.594	17.46
381.803	17.08
382.011	16.98
382.219	16.87
382.428	17.05
382.636	16.59
382.845	17
383.053	17.09
383.261	17.11
383.469	16.82
383.678	16.68
383.886	16.73
384.094	16.52
384.302	16.13
384.511	16.14
384.719	15.96
384.927	16.11
385.135	15.95
385.343	15.77
385.552	15.53
385.76	15.47
385.968	15.61
386.176	15.36
386.384	15.38
386.592	15.26
386.8	14.94
387.008	15.09
387.216	15.13
387.424	14.83
387.633	14.97
387.841	14.54
388.049	14.58
388.257	14.59
388.465	14.76
388.672	14.73
388.88	14.64
389.088	14.46
389.296	14.31
389.504	13.89
389.712	13.64
389.92	13.53
390.128	13.68
390.336	13.37
390.544	13.24
390.751	13.33
390.959	13.36
391.167	13.48
391.375	13.81
391.583	13.72
391.79	13.63
391.998	13.82
392.206	13.89
392.414	13.69
392.621	13.62
392.829	13.24
393.037	13.07
393.244	12.96
393.452	12.8
393.66	12.68
393.867	12.88
394.075	13.31
394.283	13.03
394.49	12.72
394.698	12.84
394.905	13.08
395.113	13.35
395.32	13.29
395.528	13.18
395.735	13.18
395.943	13.18
396.15	13.01
396.358	12.4
396.565	12.53
396.773	12.78
396.98	13.04
397.188	12.92
397.395	12.86
397.602	12.71
397.81	12.71
398.017	12.78
398.225	12.76
398.432	13.03
398.639	13.03
398.847	13.11
399.054	13.07
399.261	12.99
399.468	13.05
399.676	13.17
399.883	13.33
400.09	13.51
400.297	13.63
400.505	13.53
400.712	12.74
400.919	12.57
401.126	12.53
401.333	12.52
401.54	12.6
401.748	12.54
401.955	12.25
402.162	12.28
402.369	12.15
402.576	11.8
402.783	11.76
402.99	11.81
403.197	12.29
403.404	12.25
403.611	12.27
403.818	11.85
404.025	11.72
404.232	11.99
404.439	11.72
404.646	11.47
404.853	11.89
405.06	11.93
405.267	12.21
405.474	11.9
405.681	11.76
405.887	11.51
406.094	11.78
406.301	11.55
406.508	11.32
406.715	11.39
406.922	11.67
407.128	11.56
407.335	11.48
407.542	11.57
407.749	11.65
407.955	11.68
408.162	11.83
408.369	11.55
408.575	11.83
408.782	11.9
408.989	11.89
409.195	11.73
409.402	11.61
409.609	11.63
409.815	11.19
410.022	11.11
410.228	11.21
410.435	11.19
410.642	11.35
410.848	11.7
411.055	11.6
411.261	11.36
411.468	11.57
411.674	11.4
411.881	11.33
412.087	11.55
412.294	11.74
412.5	11.69
412.706	11.54
412.913	11.19
413.119	10.98
413.326	11.16
413.532	11.3
413.738	11.03
413.945	11.39
414.151	11.26
414.357	11.19
414.564	11.19
414.77	11.5
414.976	11.35
415.182	11.52
415.389	11.51
415.595	11.21
415.801	11.16
416.007	11.13
416.214	10.86
416.42	11.05
416.626	11.14
416.832	10.97
417.038	10.73
417.244	10.67
417.45	10.75
417.657	10.69
417.863	10.82
418.069	10.9
418.275	10.83
418.481	10.79
418.687	10.74
418.893	10.57
419.099	10.43
419.305	10.4
419.511	10.54
419.717	10.4
419.923	10.36
420.129	10.34
420.335	10.28
420.541	10.3
420.746	10.28
420.952	10.28
421.158	10.36
421.364	10.5
421.57	10.44
421.776	10.56
421.982	10.61
422.187	10.61
422.393	10.49
422.599	10.42
422.805	10.49
423.01	10.52
423.216	10.56
423.422	10.48
423.628	10.48
423.833	10.42
424.039	10.36
424.245	10.32
424.45	10.41
424.656	10.5
424.862	10.62
425.067	10.51
425.273	10.41
425.478	10.4
425.684	10.56
425.889	10.58
426.095	10.67
426.301	10.61
426.506	10.57
426.712	10.26
426.917	10.08
427.123	9.94
427.328	10.12
427.533	10.33
427.739	10.31
427.944	10.13
428.15	9.89
428.355	9.93
428.561	10.01
428.766	10.06
428.971	10.31
429.177	10.69
429.382	10.93
429.587	10.66
429.793	10.57
429.998	10.5
430.203	10.47
430.408	10.69
430.614	10.43
430.819	10.34
431.024	10.37
431.229	10.31
431.434	10.09
431.64	9.97
431.845	10.23
432.05	10.11
432.255	10.1
432.46	10.09
432.665	9.9
432.87	9.97
433.076	9.92
433.281	9.91
433.486	9.89
433.691	10.01
433.896	9.8
434.101	9.59
434.306	9.48
434.511	9.44
434.716	9.41
434.921	9.34
435.126	9.37
435.331	9.41
435.535	9.37
435.74	9.3
435.945	9.11
436.15	9.26
436.355	9.32
436.56	9.63
436.765	9.53
436.97	9.63
437.174	9.96
437.379	9.99
437.584	9.85
437.789	9.84
437.993	9.8
438.198	9.76
438.403	9.85
438.608	9.95
438.812	9.78
439.017	9.89
439.222	10.03
439.426	9.86
439.631	9.91
439.836	9.89
440.04	9.86
440.245	9.91
440.45	9.91
440.654	9.79
440.859	9.69
441.063	9.69
441.268	9.68
441.472	9.56
441.677	9.58
441.881	9.59
442.086	9.64
442.29	9.85
442.495	9.85
442.699	9.92
442.904	9.93
443.108	9.91
443.312	9.82
443.517	9.8
443.721	9.86
443.925	9.72
444.13	9.53
444.334	9.53
444.538	9.31
444.743	9.34
444.947	9.29
445.151	9.24
445.356	9.22
445.56	9.32
445.764	9.3
445.968	9.22
446.173	9.34
446.377	9.45
446.581	9.56
446.785	9.55
446.989	9.45
447.193	9.52
447.398	9.56
447.602	9.54
447.806	9.45
448.01	9.43
448.214	9.38
448.418	9.24
448.622	9.18
448.826	9.06
449.03	9.03
449.234	9.16
449.438	9.12
449.642	9.09
449.846	9.26
450.05	9.35
450.254	9.47
450.458	9.3
450.662	9.54
450.866	9.41
451.069	9.23
451.273	9.33
451.477	9.22
451.681	9.14
451.885	9.16
452.089	9.08
452.292	9.25
452.496	9.19
452.7	9.39
452.904	9.25
453.107	9.24
453.311	9.38
453.515	9.26
453.719	9.43
453.922	9.55
454.126	9.53
454.33	9.53
454.533	9.43
454.737	9.34
454.94	9.34
455.144	9.48
455.348	9.59
455.551	9.66
455.755	9.84
455.958	9.73
456.162	9.64
456.365	9.67
456.569	9.78
456.772	9.62
456.976	9.45
457.179	9.47
457.383	9.24
457.586	9.24
457.79	9.17
457.993	9.13
458.196	9.09
458.4	9
458.603	9.08
458.807	9.01
459.01	9.02
459.213	9.23
459.417	9.23
459.62	9.36
459.823	9.33
460.026	9.39
460.23	9.37
460.433	9.27
460.636	9.26
460.839	9.23
461.042	9.25
461.246	9.22
461.449	9.25
461.652	9.25
461.855	9.2
462.058	9.41
462.261	9.21
462.464	9.25
462.668	9.33
462.871	9.48
463.074	9.3
463.277	9.23
463.48	9.31
463.683	9.18
463.886	9.08
464.089	9.12
464.292	8.75
464.495	8.75
464.698	8.9
464.901	9.05
465.104	9.01
465.306	9.33
465.509	9.43
465.712	9.33
465.915	9.38
466.118	9.48
466.321	9.46
466.524	9.64
466.726	9.91
466.929	9.77
467.132	9.66
467.335	9.71
467.538	9.6
467.74	9.42
467.943	9.54
468.146	9.6
468.348	9.64
468.551	9.64
468.754	9.78
468.956	9.67
469.159	9.65
469.362	9.81
469.564	9.73
469.767	9.79
469.969	9.88
470.172	9.83
470.375	9.77
470.577	9.75
470.78	9.78
470.982	9.62
471.185	9.65
471.387	9.59
471.59	9.38
471.792	9.46
471.995	9.34
472.197	9.44
472.399	9.49
472.602	9.54
472.804	9.45
473.007	9.31
473.209	9.41
473.411	9.41
473.614	9.55
473.816	9.61
474.018	9.54
474.22	9.65
474.423	9.65
474.625	9.71
474.827	9.72
475.03	9.76
475.232	9.94
475.434	9.77
475.636	9.85
475.838	9.81
476.04	9.84
476.243	9.74
476.445	9.73
476.647	9.82
476.849	9.73
477.051	9.66
477.253	9.72
477.455	9.69
477.657	9.66
477.859	9.55
478.061	9.36
478.263	9.31
478.465	9.4
478.667	9.33
478.869	9.26
479.071	9.33
479.273	9.38
479.475	9.28
479.677	9.26
479.879	9.41
480.081	9.42
480.283	9.64
480.485	9.66
480.686	9.78
480.888	9.77
481.09	9.66
481.292	9.64
481.494	9.67
481.695	9.56
481.897	9.52
482.099	9.5
482.301	9.46
482.502	9.41
482.704	9.36
482.906	9.26
483.107	9.28
483.309	9.26
483.511	9.21
483.712	9.12
483.914	9.16
484.115	9.11
484.317	9.06
484.519	9.07
484.72	9.04
484.922	9
485.123	9
485.325	8.95
485.526	8.93
485.728	8.94
485.929	8.99
486.131	8.99
486.332	9.01
486.534	9.02
486.735	9
486.936	9.1
487.138	9.09
487.339	9.19
487.541	9.21
487.742	9.26
487.943	9.33
488.144	9.29
488.346	9.25
488.547	9.26
488.748	9.24
488.95	9.22
489.151	9.16
489.352	9.2
489.553	9.13
489.755	9.17
489.956	9.18
490.157	9.16
490.358	9.25
490.559	9.3
490.76	9.35
490.961	9.35
491.163	9.38
491.364	9.36
491.565	9.41
491.766	9.37
491.967	9.29
492.168	9.23
492.369	9.14
492.57	9.14
492.771	9.11
492.972	9.08
493.173	9.18
493.374	9.17
493.575	9.15
493.776	9.08
493.976	9.05
494.177	9.21
494.378	9.25
494.579	9.41
494.78	9.39
494.981	9.57
495.182	9.53
495.382	9.52
495.583	9.57
495.784	9.66
495.985	9.77
496.185	9.91
496.386	9.86
496.587	9.89
496.788	9.84
496.988	9.78
497.189	9.8
497.39	9.82
497.59	9.83
497.791	9.84
497.992	9.92
498.192	9.89
498.393	10.01
498.593	10.03
498.794	10.07
498.994	10.16
499.195	10.16
499.395	10.12
499.596	10.31
499.796	10.4
499.997	10.41
500.197	10.42
500.398	10.25
500.598	10.25
500.799	10.39
500.999	10.51
501.199	10.51
501.4	10.75
501.6	10.79
501.801	10.82
502.001	10.81
502.201	10.92
502.402	10.94
502.602	11.23
502.802	11.2
503.002	11.2
503.203	11.1
503.403	11.17
503.603	11.19
503.803	11.2
504.003	11.25
504.204	11.37
504.404	11.47
504.604	11.4
504.804	11.41
505.004	11.47
505.204	11.48
505.404	11.41
505.604	11.46
505.804	11.33
506.005	11.45
506.205	11.57
506.405	11.53
506.605	11.43
506.805	11.6
507.005	11.53
507.204	11.64
507.404	11.6
507.604	11.96
507.804	11.96
508.004	12.15
508.204	12.14
508.404	11.89
508.604	11.9
508.804	12.05
509.003	11.95
509.203	12.09
509.403	12.09
509.603	12.16
509.803	12.16
510.002	12.13
510.202	12.23
510.402	12.23
510.602	12.31
510.801	12.4
511.001	12.41
511.201	12.5
511.4	12.5
511.6	12.41
511.8	12.56
511.999	12.48
512.199	12.59
512.398	12.58
512.598	12.76
512.797	12.99
512.997	12.89
513.197	12.87
513.396	13.04
513.596	13.16
513.795	13.32
513.994	13.3
514.194	13.46
514.393	13.52
514.593	13.56
514.792	13.64
514.992	13.6
515.191	13.78
515.39	13.86
515.59	14.04
515.789	14.17
515.988	14.33
516.188	14.37
516.387	14.35
516.586	14.55
516.786	14.64
516.985	14.55
517.184	14.67
517.383	14.82
517.582	14.98
517.782	14.93
517.981	15.02
518.18	14.95
518.379	15.12
518.578	15.06
518.777	14.95
518.976	14.99
519.176	15.11
519.375	15.09
519.574	15.12
519.773	15.14
519.972	15.08
520.171	15.07
520.37	15.14
520.569	15.24
520.768	15.5
520.967	15.72
521.166	15.75
521.365	15.76
521.564	16.02
521.762	15.98
521.961	16.19
522.16	16.42
522.359	16.48
522.558	16.56
522.757	16.51
522.956	16.53
523.154	16.6
523.353	16.76
523.552	16.84
523.751	16.88
523.949	17.08
524.148	17.03
524.347	17.17
524.546	17.29
524.744	17.47
524.943	17.45
525.142	17.58
525.34	17.55
525.539	17.52
525.737	17.64
525.936	17.76
526.135	17.87
526.333	17.9
526.532	17.88
526.73	17.94
526.929	17.97
527.127	18.08
527.326	18.04
527.524	18.09
527.723	18.21
527.921	18.19
528.12	18.12
528.318	17.99
528.516	17.99
528.715	17.98
528.913	17.95
529.112	17.95
529.31	17.93
529.508	17.96
529.707	18.02
529.905	17.97
530.103	18.03
530.301	18.13
530.5	18.31
530.698	18.42
530.896	18.58
531.094	18.72
531.293	18.82
531.491	19
531.689	19.08
531.887	19.12
532.085	19.33
532.283	19.41
532.481	19.47
532.68	19.58
532.878	19.68
533.076	19.72
533.274	19.78
533.472	19.84
533.67	19.85
533.868	20.01
534.066	20.13
534.264	20.12
534.462	20.21
534.66	20.22
534.858	20.18
535.056	20.2
535.253	20.25
535.451	20.31
535.649	20.35
535.847	20.43
536.045	20.46
536.243	20.56
536.441	20.65
536.638	20.75
536.836	20.92
537.034	21.01
537.232	21.09
537.43	21.23
537.627	21.36
537.825	21.47
538.023	21.55
538.22	21.69
538.418	21.66
538.616	21.74
538.813	21.9
539.011	21.95
539.209	22.1
539.406	22.22
539.604	22.32
539.801	22.37
539.999	22.57
540.196	22.65
540.394	22.65
540.591	22.73
540.789	22.77
540.986	22.66
541.184	22.7
541.381	22.66
541.579	22.66
541.776	22.66
541.974	22.67
542.171	22.68
542.368	22.72
542.566	22.74
542.763	22.8
542.96	22.87
543.158	22.89
543.355	23.03
543.552	23.29
543.75	23.49
543.947	23.72
544.144	23.92
544.341	24.04
544.539	24.28
544.736	24.53
544.933	24.67
545.13	24.79
545.327	25
545.524	25.02
545.722	24.94
545.919	25.01
546.116	25.06
546.313	25.17
546.51	25.34
546.707	25.36
546.904	25.49
547.101	25.65
547.298	25.91
547.495	26.06
547.692	26.2
547.889	26.5
548.086	26.63
548.283	26.74
548.48	26.88
548.677	26.82
548.874	27.18
549.07	27.35
549.267	27.47
549.464	27.59
549.661	27.89
549.858	28.1
550.055	28.13
550.251	28.26
550.448	28.29
550.645	28.32
550.842	28.56
551.038	28.39
551.235	28.42
551.432	28.51
551.628	28.46
551.825	28.5
552.022	28.67
552.218	28.73
552.415	28.84
552.612	28.94
552.808	29
553.005	29.04
553.201	29.14
553.398	29.06
553.594	29.12
553.791	29.43
553.987	29.56
554.184	29.44
554.38	29.67
554.577	29.78
554.773	29.86
554.97	30.24
555.166	30.44
555.362	30.67
555.559	30.93
555.755	31.06
555.952	31.11
556.148	31.23
556.344	31.59
556.541	31.57
556.737	31.61
556.933	31.71
557.129	31.59
557.326	31.81
557.522	31.99
557.718	32.08
557.914	32.23
558.11	32.22
558.307	32.2
558.503	32.26
558.699	32.59
558.895	32.69
559.091	32.84
559.287	33
559.483	32.92
559.679	33.13
559.876	33.4
560.072	33.38
560.268	33.49
560.464	33.78
560.66	33.83
560.856	33.88
561.052	34.19
561.247	34.28
561.443	34.43
561.639	34.47
561.835	34.48
562.031	34.49
562.227	34.65
562.423	34.74
562.619	34.85
562.815	34.97
563.01	34.79
563.206	34.66
563.402	34.66
563.598	34.64
563.793	34.78
563.989	34.67
564.185	34.58
564.381	34.71
564.576	34.74
564.772	34.79
564.968	35.05
565.163	35.25
565.359	35.4
565.555	35.39
565.75	35.36
565.946	35.38
566.141	35.45
566.337	35.54
566.532	35.43
566.728	35.56
566.923	35.52
567.119	35.26
567.314	35.36
567.51	35.37
567.705	35.62
567.901	35.75
568.096	35.98
568.292	36.12
568.487	36.23
568.682	36.49
568.878	36.38
569.073	36.39
569.268	36.56
569.464	36.45
569.659	36.52
569.854	36.61
570.05	36.75
570.245	36.61
570.44	36.47
570.635	36.44
570.831	36.5
571.026	36.69
571.221	36.79
571.416	36.99
571.611	37.06
571.806	37.22
572.002	37.28
572.197	37.23
572.392	37.3
572.587	37.47
572.782	37.59
572.977	37.62
573.172	37.68
573.367	37.6
573.562	37.66
573.757	37.76
573.952	37.7
574.147	37.65
574.342	37.94
574.537	38.03
574.732	38.11
574.927	38.2
575.121	38.2
575.316	38.12
575.511	38.25
575.706	38.12
575.901	38.11
576.096	38.21
576.29	38.44
576.485	38.23
576.68	38.32
576.875	38.23
577.069	38.14
577.264	38.17
577.459	38.32
577.654	38.41
577.848	38.58
578.043	38.62
578.238	38.57
578.432	38.33
578.627	38.28
578.821	38.35
579.016	38.61
579.21	38.8
579.405	38.97
579.6	39.2
579.794	39.39
579.989	39.56
580.183	39.89
580.378	39.92
580.572	40.11
580.766	40.46
580.961	40.49
581.155	40.56
581.35	40.9
581.544	40.99
581.738	40.99
581.933	40.98
582.127	40.91
582.321	40.79
582.516	41.1
582.71	40.99
582.904	40.84
583.099	41.04
583.293	40.99
583.487	40.85
583.681	40.8
583.875	40.78
584.07	40.81
584.264	40.98
584.458	41.07
584.652	40.92
584.846	41.1
585.04	41.24
585.234	41.07
585.428	41.18
585.623	41.16
585.817	41.45
586.011	41.56
586.205	41.59
586.399	41.53
586.593	41.72
586.787	41.93
586.981	41.87
587.174	41.83
587.368	41.87
587.562	41.75
587.756	41.63
587.95	41.51
588.144	41.5
588.338	41.43
588.532	41.27
588.725	41.11
588.919	41.04
589.113	41.19
589.307	41.25
589.501	41.24
589.694	41.52
589.888	41.6
590.082	41.65
590.275	41.59
590.469	41.62
590.663	41.72
590.856	41.73
591.05	41.78
591.244	41.88
591.437	42.03
591.631	42.08
591.824	42.03
592.018	42.45
592.212	42.49
592.405	42.59
592.599	42.71
592.792	43.08
592.986	43.22
593.179	43.32
593.372	43.26
593.566	43.21
593.759	43.45
593.953	43.37
594.146	43.09
594.339	42.82
594.533	42.87
594.726	43.03
594.92	42.77
595.113	42.81
595.306	42.74
595.499	42.85
595.693	42.62
595.886	42.41
596.079	42.43
596.272	42.63
596.466	42.69
596.659	42.73
596.852	42.57
597.045	42.58
597.238	42.36
597.431	42.3
597.624	42.28
597.818	42.54
598.011	42.57
598.204	42.72
598.397	42.52
598.59	42.63
598.783	42.56
598.976	42.75
599.169	42.96
599.362	43.24
599.555	43.48
599.748	43.61
599.941	43.89
600.134	44.24
600.326	44.19
600.519	44.63
600.712	44.61
600.905	44.67
601.098	44.59
601.291	44.5
601.483	44.36
601.676	44.07
601.869	44.07
602.062	43.81
602.255	43.63
602.447	43.63
602.64	43.37
602.833	43.61
603.025	43.66
603.218	43.85
603.411	43.94
603.603	43.82
603.796	43.92
603.989	43.81
604.181	43.83
604.374	43.89
604.566	43.95
604.759	43.69
604.951	43.46
605.144	43.29
605.336	43.26
605.529	43.14
605.721	43.3
605.914	43.39
606.106	43.45
606.299	43.33
606.491	43.17
606.683	43.33
606.876	43.9
607.068	44.22
607.26	44.47
607.453	44.39
607.645	44.44
607.837	44.64
608.03	44.48
608.222	44.56
608.414	44.76
608.606	44.82
608.799	44.62
608.991	44.36
609.183	44.22
609.375	44.02
609.567	43.87
609.759	44.03
609.952	43.98
610.144	43.95
610.336	43.86
610.528	43.89
610.72	44.04
610.912	44.09
611.104	44.2
611.296	44.1
611.488	44.25
611.68	44.34
611.872	44.44
612.064	44.36
612.256	44.46
612.448	44.5
612.64	44.52
612.832	44.46
613.023	44.41
613.215	44.28
613.407	44.44
613.599	44.66
613.791	44.93
613.983	44.66
614.174	44.96
614.366	45.3
614.558	45.26
614.75	45.39
614.941	45.59
615.133	45.55
615.325	45.53
615.516	45.61
615.708	45.7
615.9	45.28
616.091	45.55
616.283	45.26
616.475	45.45
616.666	45.49
616.858	45.32
617.049	45.15
617.241	45.33
617.432	45.54
617.624	45.66
617.815	45.49
618.007	45.38
618.198	45.28
618.39	45.49
618.581	45.23
618.773	45.48
618.964	45.46
619.155	45.54
619.347	45.44
619.538	45.49
619.729	45.32
619.921	45.42
620.112	45.93
620.303	45.91
620.494	46.15
620.686	46.15
620.877	45.92
621.068	45.73
621.259	45.83
621.451	45.89
621.642	45.82
621.833	46
622.024	46.26
622.215	46.21
622.406	46.02
622.597	45.66
622.788	45.89
622.98	46.09
623.171	46.31
623.362	46.22
623.553	46.12
623.744	46.31
623.935	45.97
624.126	45.92
624.317	46.08
624.508	46.26
624.698	46.46
624.889	45.88
625.08	45.98
625.271	46.2
625.462	46.19
625.653	46.24
625.844	45.92
626.034	45.75
626.225	45.76
626.416	45.62
626.607	45.69
626.798	45.66
626.988	46.08
627.179	45.86
627.37	45.63
627.56	45.47
627.751	45.46
627.942	45.51
628.132	45.77
628.323	45.45
628.514	45.33
628.704	45.35
628.895	45.11
629.085	44.93
629.276	45
629.466	45.05
629.657	45.08
629.847	45.05
630.038	45.09
630.228	45.2
630.419	45.25
630.609	45.23
630.8	45.34
630.99	45.43
631.181	45.32
631.371	45.2
631.561	45.4
631.752	45.63
631.942	45.48
632.132	45.31
632.323	45.42
632.513	45.65
632.703	46.07
632.893	45.83
633.084	46.09
633.274	46.09
633.464	46.25
633.654	46.03
633.844	46.05
634.034	46.28
634.225	46.59
634.415	46.62
634.605	46.69
634.795	46.32
634.985	46.4
635.175	46.21
635.365	46.3
635.555	46.39
635.745	46.49
635.935	46.55
636.125	46.51
636.315	46.58
636.505	46.53
636.695	46.32
636.885	46.41
637.075	46.14
637.265	46.1
637.455	46.25
637.644	46.38
637.834	46.46
638.024	46.54
638.214	46.73
638.404	46.59
638.593	46.51
638.783	46.66
638.973	46.93
639.163	47.22
639.352	47.34
639.542	47.41
639.732	47.06
639.921	47.23
640.111	47.27
640.301	47.24
640.49	47.6
640.68	47.66
640.87	47.69
641.059	47.61
641.249	47.87
641.438	47.96
641.628	47.65
641.817	47.76
642.007	47.6
642.196	47.55
642.386	47.32
642.575	47.11
642.764	47.3
642.954	47.21
643.143	47.35
643.333	47.33
643.522	47.03
643.711	47.43
643.901	47.84
644.09	47.72
644.279	47.54
644.469	47.64
644.658	47.4
644.847	47.34
645.036	47.37
645.226	47.03
645.415	46.94
645.604	47.1
645.793	47.06
645.982	46.49
646.171	46.73
646.361	46.59
646.55	46.63
646.739	46.83
646.928	46.79
647.117	47
647.306	47.3
647.495	47.23
647.684	47.24
647.873	47.14
648.062	47.53
648.251	47.27
648.44	47.38
648.629	47.46
648.818	47.1
649.007	46.98
649.196	46.72
649.384	46.47
649.573	46.65
649.762	46.91
649.951	47
650.14	46.74
650.328	46.92
650.517	46.94
650.706	46.94
650.895	47.41
651.083	47.44
651.272	47.28
651.461	47.35
651.65	47.16
651.838	46.9
652.027	46.74
652.216	46.47
652.404	46.56
652.593	46.69
652.781	46.65
652.97	46.27
653.158	46.51
653.347	46.64
653.535	46.72
653.724	46.72
653.912	46.78
654.101	46.68
654.289	47
654.478	47
654.666	46.82
654.855	46.9
655.043	47.17
655.231	47.02
655.42	46.93
655.608	46.73
655.796	46.78
655.985	46.73
656.173	46.84
656.361	46.89
656.55	46.6
656.738	46.61
656.926	46.5
657.114	46.33
657.302	46.21
657.491	46.45
657.679	46.61
657.867	46.72
658.055	46.8
658.243	46.79
658.431	46.87
658.619	46.89
658.807	46.92
658.996	46.92
659.184	47.14
659.372	47.19
659.56	46.9
659.748	46.92
659.936	46.51
660.124	46.51
660.311	46.4
660.499	46.49
660.687	46.51
660.875	46.5
661.063	46.59
661.251	46.53
661.439	46.82
661.627	47.28
661.814	47.22
662.002	47.82
662.19	47.69
662.378	48.02
662.565	47.99
662.753	48.04
662.941	48.01
663.129	48.03
663.316	47.72
663.504	47.09
663.692	46.87
663.879	47.21
664.067	47.38
664.254	47.52
664.442	47.39
664.63	47.55
664.817	47.36
665.005	47.41
665.192	47.28
665.38	47.46
665.567	47.56
665.755	47.77
665.942	47.8
666.13	47.37
666.317	47.34
666.504	47.41
666.692	47.47
666.879	47.62
667.067	47.99
667.254	47.86
667.441	48.09
667.629	48.05
667.816	47.7
668.003	47.27
668.19	47.12
668.378	47.3
668.565	47.04
668.752	46.74
668.939	46.97
669.127	46.65
669.314	46.81
669.501	46.56
669.688	46.76
669.875	46.82
670.062	46.67
670.249	46.76
670.436	46.82
670.623	46.43
670.81	45.96
670.997	45.54
671.184	45.48
671.371	45.52
671.558	45.29
671.745	45.17
671.932	44.77
672.119	44.98
672.306	45.08
672.493	44.69
672.68	45.62
672.867	45.96
673.054	46.24
673.24	45.85
673.427	45.97
673.614	46.45
673.801	46.81
673.988	47.56
674.174	47.44
674.361	47.42
674.548	47.5
674.734	47.26
674.921	47.31
675.108	47.41
675.294	48.2
675.481	47.91
675.668	47.67
675.854	47.57
676.041	47.34
676.227	47.17
676.414	46.78
676.601	47.38
676.787	47.95
676.974	47.89
677.16	48.17
677.347	47.82
677.533	48.18
677.719	48.23
677.906	48.16
678.092	47.72
678.279	47.94
678.465	48.33
678.651	47.89
678.838	47.39
679.024	47.41
679.21	47.32
679.397	47.52
679.583	47.03
679.769	46.97
679.955	46.86
680.142	46.85
680.328	46.65
680.514	47.17
680.7	46.96
680.886	46.87
681.073	46.75
681.259	46.43
681.445	46.04
681.631	46.45
681.817	46.66
682.003	46.64
682.189	46.71
682.375	47.32
682.561	46.88
682.747	47.2
682.933	47.34
683.119	47.83
683.305	47.99
683.491	48.2
683.677	47.74
683.863	47.47
684.049	47.46
684.235	47.77
684.42	47.31
684.606	47.04
684.792	46.81
684.978	46.52
685.164	46.03
685.349	45.63
685.535	46
685.721	46.53
685.907	46.15
686.092	46.13
686.278	46.04
686.464	46.07
686.649	46.15
686.835	46.39
687.021	46.44
687.206	46.41
687.392	46.58
687.577	46.19
687.763	45.79
687.948	46.12
688.134	46
688.319	46.17
688.505	46.28
688.69	46.29
688.876	46.16
689.061	46.29
689.247	47.17
689.432	46.97
689.618	46.81
689.803	46.68
689.988	46.93
690.174	46.88
690.359	46.85
690.544	46.7
690.73	46.37
690.915	46.26
691.1	46.14
691.285	45.39
691.471	46.22
691.656	46.33
691.841	46.53
692.026	46.33
692.211	46.58
692.396	46.54
692.582	46.5
692.767	47.28
692.952	47.45
693.137	47.57
693.322	47.43
693.507	47.21
693.692	47.6
693.877	47.83
694.062	47.72
694.247	47.81
694.432	47.93
694.617	47.81
694.802	47.64
694.987	47.7
695.172	47.7
695.357	47.83
695.541	47.93
695.726	47.55
695.911	47.11
696.096	47.51
696.281	47.72
696.466	47.59
696.65	47.74
696.835	47.29
697.02	47.5
697.204	47.48
697.389	47.88
697.574	47.39
697.759	47.1
697.943	46.96
698.128	46.46
698.312	46
698.497	45.93
698.682	46.05
698.866	46.04
699.051	45.83
699.235	45.68
699.42	45.7
699.604	45.73
699.789	46.18
699.973	46.47
700.158	46.85
700.342	47.37
700.527	47.44
700.711	47.64
700.895	47.98
701.08	48.05
701.264	48.41
701.448	48.09
701.633	48.36
701.817	48.73
702.001	49.01
702.186	49.55
702.37	49.28
702.554	49.14
702.738	49.04
702.923	48.87
703.107	48.72
703.291	48.89
703.475	49.08
703.659	48.96
703.843	48.62
704.027	48.57
704.212	48.55
704.396	48.77
704.58	49.48
704.764	49.5
704.948	49.71
705.132	49.51
705.316	49.77
705.5	49.57
705.684	50.42
705.868	50.22
706.052	50.45
706.235	50.24
706.419	50.13
706.603	49.85
706.787	50.07
706.971	50.36
707.155	51.35
707.339	50.74
707.522	50.9
707.706	50.05
707.89	49.81
708.074	50.13
708.257	49.67
708.441	50.17
708.625	50.19
708.808	50.13
708.992	49.89
709.176	48.42
709.359	48.25
709.543	48.4
709.727	48.74
709.91	49.51
710.094	49.32
710.277	49.77
710.461	49.56
710.644	49.65
710.828	49.46
711.011	49.11
711.195	49.66
711.378	50.37
711.562	50.61
711.745	50.58
711.928	50.08
712.112	49.99
712.295	50.16
712.478	50.41
712.662	50.04
712.845	50.21
713.028	50.1
713.212	50.65
713.395	50.03
713.578	49.71
713.761	50.09
713.945	50.79
714.128	51.18
714.311	50.87
714.494	50.43
714.677	50.52
714.86	50.41
715.043	51.14
715.227	51.14
715.41	51.34
715.593	51.29
715.776	50.82
715.959	49.99
716.142	49.43
716.325	49.42
716.508	48.82
716.691	48.94
716.874	48.47
717.057	48.26
717.239	48.1
717.422	48.61
717.605	48.33
717.788	47.99
717.971	47.91
718.154	47.72
718.337	47.38
718.519	47.46
718.702	47.3
718.885	47.62
719.068	47.59
719.25	47.55
719.433	47.25
719.616	47.18
719.798	47.42
719.981	47.53
720.164	47.13
720.346	47.18
720.529	47.34
720.712	47.67
720.894	47.5
721.077	47.55
721.259	46.82
721.442	46.51
721.624	46.96
721.807	47.51
721.989	47.69
722.172	48.3
722.354	48.88
722.537	49.11
722.719	49.1
722.901	49.22
723.084	48.35
723.266	49.55
723.448	49.06
723.631	48.68
723.813	48.46
723.995	48.81
724.178	49.11
724.36	48.44
724.542	48.7
724.724	48.39
724.907	48.35
725.089	48.39
725.271	48.34
725.453	48.85
725.635	49.71
725.817	50.16
725.999	50.11
726.181	49.39
726.364	49.64
726.546	49.35
726.728	49.75
726.91	49.94
727.092	50.6
727.274	49.94
727.456	50.13
727.638	50.08
727.819	49.44
728.001	48.98
728.183	49.41
728.365	48.92
728.547	49.09
728.729	48.63
728.911	48.83
729.093	49.02
729.274	49.67
729.456	49.24
729.638	48.87
729.82	48.94
730.001	49.19
730.183	49.32
730.365	50.39
730.546	50.47
730.728	50.67
730.91	50.09
731.091	50.07
731.273	49.99
731.455	49.77
731.636	50.25
731.818	49.98
731.999	50.14
732.181	49.49
732.362	49.03
732.544	49
732.725	49.27
732.907	50.38
733.088	51.2
733.27	50.47
733.451	51.13
733.633	51.02
733.814	50.89
733.995	51.03
734.177	51.93
734.358	52.17
734.539	52.65
734.721	52.56
734.902	52.28
735.083	51.14
735.264	51.74
735.446	51.86
735.627	51.07
735.808	51.43
735.989	50.93
736.17	51.17
736.351	51.23
736.533	51.04
736.714	50.85
736.895	50.44
737.076	50.71
737.257	50.4
737.438	50.82
737.619	51.07
737.8	51.03
737.981	52.35
738.162	51.63
738.343	52.3
738.524	51.76
738.705	52.78
738.886	53.21
739.067	53.49
739.247	54.11
739.428	52.94
739.609	53.82
739.79	54.13
739.971	52.95
740.151	53.12
740.332	52.56
740.513	52.96
740.694	51.92
740.874	52.19
741.055	52.64
741.236	52.87
741.417	53.31
741.597	53.29
741.778	53.97
741.958	53.92
742.139	54.53
742.32	54.24
742.5	55.12
742.681	55.19
742.861	54.24
743.042	53.96
743.222	54.11
743.403	54.24
743.583	54.13
743.764	53.59
743.944	54.46
744.124	53.98
744.305	53.88
744.485	54.73
744.666	54.93
744.846	54.56
745.026	54.56
745.207	54.36
745.387	55.55
745.567	54.7
745.747	54.21
745.928	53.97
746.108	54.47
746.288	54.64
746.468	53.14
746.648	53.8
746.829	55.15
747.009	55.2
747.189	54.89
747.369	53.61
747.549	54.44
747.729	54.5
747.909	54.02
748.089	54.47
748.269	54.64
748.449	55.36
748.629	54.83
748.809	53.51
748.989	53.28
749.169	53.3
749.349	53.65
749.529	53.56
749.709	53.96
749.889	54.37
750.068	53.24
750.248	53.15
750.428	53.9
750.608	53.22
750.788	55.73
750.967	55.27
751.147	56.5
751.327	56.43
751.507	56.7
751.686	56.51
751.866	56.06
752.046	56.53
752.225	56.93
752.405	56.21
752.585	57.03
752.764	55.66
752.944	56.65
753.123	56.26
753.303	56.62
753.482	56.76
753.662	57.04
753.841	57.84
754.021	57.3
754.2	56.71
754.38	57.2
754.559	58.04
754.739	58.45
754.918	57.14
755.097	56.09
755.277	56.43
755.456	56.09
755.635	54.54
755.815	54.5
755.994	55.23
756.173	56.14
756.352	55.61
756.532	55.57
756.711	55.05
756.89	55.98
757.069	56.23
757.248	55.46
757.427	54.78
757.607	56.45
757.786	55.7
757.965	54.63
758.144	53.61
758.323	52.48
758.502	51.42
758.681	51.23
758.86	50.39
759.039	50.2
759.218	49.63
759.397	49.29
759.576	48.86
759.755	48.4
759.934	48.75
760.113	48.59
760.291	48.5
760.47	47.96
760.649	47.55
760.828	46.58
761.007	45.83
761.186	45.4
761.364	45.69
761.543	45.46
761.722	45.69
761.901	45.26
762.079	45.04
762.258	45.33
762.437	45.09
762.615	45.08
762.794	45.6
762.972	45.64
763.151	46.11
763.33	45.95
763.508	45.5
763.687	45.51
763.865	45.77
764.044	45.83
764.222	45.93
764.401	46.33
764.579	46.24
764.758	46.24
764.936	46.94
765.114	47.51
765.293	47.61
765.471	47.94
765.65	48.33
765.828	48.08
766.006	48.14
766.184	48.01
766.363	48.02
766.541	47.38
766.719	48.02
766.898	48.17
767.076	47.19
767.254	48.21
767.432	48.61
767.61	48.38
767.788	48.95
767.967	49.46
768.145	48.82
768.323	49.17
768.501	50.78
768.679	51.09
768.857	50.76
769.035	51.93
769.213	51.98
769.391	52.2
769.569	52.55
769.747	52.08
769.925	52.54
770.103	53.77
770.281	54.07
770.459	53.93
770.636	53.3
770.814	52.59
770.992	52.58
771.17	51.67
771.348	51.73
771.525	52.04
771.703	53.02
771.881	52.41
772.059	52.16
772.236	51.54
772.414	50.98
772.592	51.4
772.769	52.97
772.947	53.3
773.125	52.41
773.302	51.37
773.48	52.2
773.657	52.35
773.835	52.72
774.013	52.65
774.19	53.68
774.368	54.77
774.545	53.8
774.723	52.4
774.9	51.42
775.077	54.1
775.255	53.93
775.432	53.31
775.61	53.3
775.787	53.54
775.964	53.84
776.142	53.96
776.319	53.77
776.496	53.47
776.674	54.25
776.851	54.13
777.028	53.8
777.205	55.54
777.382	55.26
777.56	55.95
777.737	56.79
777.914	57
778.091	56.63
778.268	57.93
778.445	59.43
778.622	59.38
778.8	60.56
778.977	57.93
779.154	62.86
779.331	62.65
779.508	61.59
779.685	61.72
779.862	62.58
780.038	62.03
780.215	60.49
780.392	61.42
780.569	62.09
780.746	61.11
780.923	62.73
781.1	58.05
781.277	58.77
781.453	59.16
781.63	55.98
781.807	54.51
781.984	53.75
782.16	54.01
782.337	53.72
782.514	51.94
782.691	53.03
782.867	54.78
783.044	54.2
783.221	54.86
783.397	54.58
783.574	54.98
783.75	56.08
783.927	56.76
784.103	56.44
784.28	56.51
784.456	58.02
784.633	57.57
784.809	54.51
784.986	53.65
785.162	52.83
785.339	53.84
785.515	55.15
785.692	54.69
785.868	55.62
786.044	54.68
786.221	54.43
786.397	54.07
786.573	54.16
786.749	54.26
786.926	53.17
787.102	54.53
787.278	53.96
787.454	54.76
787.631	54.91
787.807	54.75
787.983	54.87
788.159	54.77
788.335	55.3
788.511	55.67
788.687	56.75
788.863	57.87
789.039	54.81
789.216	53.81
789.392	52.23
789.568	54.56
789.744	55.03
789.919	56.92
790.095	56.64
790.271	54.77
790.447	52.44
790.623	51.53
790.799	50.18
790.975	51.23
791.151	52.4
791.327	53.53
791.502	51
791.678	49.91
791.854	49.38
792.03	48.12
792.205	49.46
792.381	50.37
792.557	49.61
792.733	51.77
792.908	51.19
793.084	50.21
793.259	50.15
793.435	49.3
793.611	49.13
793.786	48.67
793.962	50.76
794.137	50.95
794.313	51
794.488	53.51
794.664	52.46
794.839	53.45
795.015	53.17
795.19	52.69
795.366	52.97
795.541	53.08
795.716	52.33
795.892	50.2
796.067	49.84
796.242	51.07
796.418	48.94
796.593	49.54
796.768	48.13
796.944	50.05
797.119	50.38
797.294	50.76
797.469	51.63
797.644	51.84
797.82	52.74
797.995	53.17
798.17	51.71
798.345	52.4
798.52	51.76
798.695	53.64
798.87	52.29
799.045	52.54
799.22	53.16
799.395	52.54
799.57	50.94
799.745	50.6
799.92	50.52
800.095	51.63
800.27	51.84
800.445	52.26
800.62	51.3
800.795	50.56
800.97	48.37
801.145	47.88
801.319	47.16
801.494	49.37
801.669	48.77
801.844	48.79
802.018	49.53
802.193	48.56
802.368	47.4
802.543	48.29
802.717	49.96
802.892	51.7
803.067	51.7
803.241	53.16
803.416	52.98
803.59	55.91
803.765	55.01
803.94	55.84
804.114	56.76
804.289	58.9
804.463	58.47
804.638	56.25
804.812	57.33
804.986	57.8
805.161	57.48
805.335	57.62
805.51	56.71
805.684	57.76
805.858	55.91
806.033	55.21
806.207	53.02
806.381	52.31
806.556	51.91
806.73	52.47
806.904	53.71
807.078	52.79
807.253	52.25
807.427	52.38
807.601	50.19
807.775	50.63
807.949	50.75
808.123	51.86
808.298	52.86
808.472	54.22
808.646	52.88
808.82	52.43
808.994	53.82
809.168	54.2
809.342	54.65
809.516	53.9
809.69	53.95
809.864	55.4
810.038	55.32
810.212	56.97
810.385	57.11
810.559	56.74
810.733	56.1
810.907	53.55
811.081	51.61
811.255	50.08
811.428	53.15
811.602	53.63
811.776	51.81
811.95	52.14
812.123	50.71
812.297	52.23
812.471	51.14
812.644	48.14
812.818	49.24
812.992	50.39
813.165	50.24
813.339	49.16
813.512	49.37
813.686	50.15
813.86	49.89
814.033	49.66
814.207	48.15
814.38	49.52
814.554	51.44
814.727	50.64
814.9	50.19
815.074	50.77
815.247	52.94
815.421	51.08
815.594	48.94
815.767	47.74
815.941	47.42
816.114	46.85
816.287	47.83
816.46	47.19
816.634	48.84
816.807	47.84
816.98	46.92
817.153	47.89
817.327	47.74
817.5	49.28
817.673	50.08
817.846	49.59
818.019	50.41
818.192	49.03
818.365	47.04
818.538	46.21
818.711	48.62
818.884	50.48
819.057	47.44
819.23	46.12
819.403	44.57
819.576	45.26
819.749	44.84
819.922	42.87
820.095	42.81
820.268	44.75
820.441	45.01
820.614	43.36
820.786	43.1
820.959	43.3
821.132	43.51
821.305	43.41
821.477	43.2
821.65	43.78
821.823	43.9
821.996	43.42
822.168	42.83
822.341	41.75
822.514	41.69
822.686	41.69
822.859	40.76
823.031	41.12
823.204	41.39
823.376	41.38
823.549	40.6
823.722	40.29
823.894	40.89
824.067	40.93
824.239	41.64
824.411	41.64
824.584	41.14
824.756	42.11
824.929	41.56
825.101	41.22
825.273	41.02
825.446	41.58
825.618	42.19
825.79	41.52
825.963	42.32
826.135	42.13
826.307	42.69
826.479	43.35
826.652	43.79
826.824	44.07
826.996	44.51
827.168	44.62
827.34	44.77
827.512	44.4
827.684	44.29
827.856	42.77
828.029	42.73
828.201	41.98
828.373	41.46
828.545	40.29
828.717	40.72
828.889	39.71
829.061	40.01
829.232	39.17
829.404	39.18
829.576	39.06
829.748	40.65
829.92	41.11
830.092	41.06
830.264	40.74
830.436	41.98
830.607	41.1
830.779	42.56
830.951	42.35
831.123	43.06
831.294	43.66
831.466	45.54
831.638	45.56
831.809	44.38
831.981	44.86
832.153	46.16
832.324	45.79
832.496	46.19
832.667	46.7
832.839	44.88
833.011	44
833.182	45.46
833.354	44.57
833.525	42.6
833.697	42.83
833.868	42.48
834.039	41.74
834.211	39.44
834.382	39.78
834.554	39.72
834.725	41.03
834.896	42.38
835.068	41.72
835.239	40.59
835.41	41.57
835.581	41.61
835.753	41.46
835.924	43.72
836.095	45.99
836.266	47.65
836.438	47.05
836.609	48.53
836.78	46.74
836.951	45
837.122	45.37
837.293	46.22
837.464	46.82
837.635	46.89
837.806	44.94
837.977	43.62
838.148	42.79
838.319	43.58
838.49	42.38
838.661	44.84
838.832	46.54
839.003	46.49
839.174	46.38
839.345	48.01
839.516	48.43
839.687	45.75
839.857	42.19
840.028	40.91
840.199	39.61
840.37	38.19
840.54	39
840.711	39.65
840.882	41.63
841.053	37.7
841.223	31.9
841.394	32.47
841.564	33.08
841.735	34.89
841.906	34.52
842.076	33.83
842.247	34.99
842.417	34.3
842.588	37.05
842.758	37.46
842.929	42.12
843.099	46.98
843.27	48.32
843.44	53.07
843.611	55.11
843.781	59.21
843.951	63.84
844.122	61.35
844.292	59.47
844.462	53.79
844.633	50.09
844.803	46.55
844.973	39.87
845.144	40.98
845.314	36.45
845.484	43
845.654	38.88
845.824	37.57
845.995	39.65
846.165	44.45
846.335	47.04
846.505	47.35
846.675	51.98
846.845	55.48
847.015	57.57
847.185	61.6
847.355	56.1
847.525	50.22
847.695	49.49
847.865	51.33
848.035	46.83
848.205	50.94
848.375	55.52
848.545	48.73
848.715	49.63
848.884	45.05
849.054	39.74
849.224	38.54
849.394	49.43
849.564	54.45
849.733	51.66
849.903	65.05
850.073	60.09
850.243	58.06
850.412	71.38
850.582	81.97
850.752	81.31
850.921	85.7
851.091	82.2
851.26	84.06
851.43	80.35
851.599	77.78
851.769	69.95
851.939	64.47
852.108	68.97
852.278	60.3
852.447	54.7
852.616	56.96
852.786	53.96
852.955	52.44
853.125	46.34
853.294	40.45
853.463	39.87
853.633	36.84
853.802	37.55
853.971	34.15
854.141	36.63
854.31	39.39
854.479	28.28
854.648	32.79
854.818	25.72
854.987	27.37
855.156	29.36
855.325	30.05
855.494	32
855.663	35.86
855.832	30.84
856.001	24.72
856.171	23.46
856.34	31.49
856.509	27.41
856.678	31.49
856.847	24.03
857.016	24.92
857.185	30.79
857.353	30.51
857.522	25.29
857.691	28.29
857.86	41.74
858.029	42.29
858.198	35.72
858.367	39.83
858.535	44.18
858.704	45.9
858.873	47.4
859.042	37.49
859.21	36.72
859.379	40.02
859.548	35.48
859.717	29.74
859.885	31.78
860.054	37.78
860.222	33.19
860.391	26.56
860.56	27.12
860.728	30.44
860.897	39.24
861.065	41.96
861.234	40.73
861.402	52.08
861.571	60.5
861.739	54.08
861.908	53.89
862.076	56.11
862.244	58.43
862.413	61.44
862.581	59.27
862.749	61.96
862.918	61.07
863.086	58.16
863.254	52.88
863.423	53.68
863.591	57.67
863.759	54.81
863.927	57.71
864.096	53.33
864.264	52.05
864.432	50.26
864.6	49.01
864.768	45.19
864.936	45.56
865.104	51.43
865.272	47.73
865.44	48.69
865.608	50
865.776	44.01
865.944	50.26
866.112	50.95
866.28	47.42
866.448	43.28
866.616	48.07
866.784	55.07
866.952	56.6
867.12	52.95
867.288	57.66
867.455	59.39
867.623	66.47
867.791	65.72
867.959	60.4
868.127	77.76
868.294	81.52
868.462	73.02
868.63	70.92
868.797	64.51
868.965	64.55
869.133	55.05
869.3	51.82
869.468	52.62
869.636	45.49
869.803	50.73
869.971	39.36
870.138	41.33
870.306	44.61
870.473	39.95
870.641	39.32
870.808	44.36
870.975	48.43
871.143	43.7
871.31	44.01
871.478	52.36
871.645	57.75
871.812	66.23
871.98	53.94
872.147	52.63
872.314	56.5
872.482	61.51
872.649	54.9
872.816	50.63
872.983	55.11
873.15	49.09
873.318	44.32
873.485	36.33
873.652	35.23
873.819	36.6
873.986	39.16
874.153	39.45
874.32	33
874.487	39.67
874.654	43.56
874.821	39.65
874.988	37.65
875.155	43.22
875.322	45.44
875.489	43.34
875.656	45.17
875.823	43.05
875.99	31.36
876.157	39.76
876.324	37.33
876.49	37.74
876.657	38.1
876.824	38.27
876.991	36.3
877.157	40.98
877.324	45.38
877.491	44.54
877.658	41.33
877.824	45.1
877.991	46.39
878.157	46.07
878.324	50.12
878.491	58.39
878.657	65.06
878.824	68.12
878.99	59.82
879.157	57.5
879.323	67.01
879.49	69.96
879.656	73.42
879.823	67.74
879.989	64.18
880.156	60.5
880.322	49.17
880.488	47.06
880.655	40.49
880.821	51.09
880.987	49.72
881.154	44.18
881.32	39.62
881.486	34.96
881.652	34.87
881.819	35.28
881.985	32.66
882.151	37.83
882.317	38.75
882.483	38.7
882.649	36.34
882.816	34.23
882.982	34.75
883.148	36.89
883.314	37.58
883.48	36.91
883.646	37.92
883.812	37.3
883.978	36.5
884.144	37.31
884.31	37.67
884.476	39.17
884.642	42.08
884.807	41.02
884.973	40.91
885.139	40.71
885.305	42.31
885.471	41
885.637	42.17
885.802	42.95
885.968	42.49
886.134	43.16
886.3	40.55
886.465	37.43
886.631	41.07
886.797	40.72
886.962	40.95
887.128	41.34
887.293	40.67
887.459	42.2
887.625	44.4
887.79	44
887.956	46.13
888.121	49.68
888.287	53.52
888.452	49.16
888.618	51.42
888.783	54.29
