Data from LC_221__Reflection_1.txt Node
Date: Thu Nov 19 13:44:33 EST 2015
User: robert
Spectrometer: USB4E03001
Autoset integration time: false
Trigger mode: 4
Integration Time (sec): 1.000000E-1
Scans to average: 15
Electric dark correction enabled: true
Nonlinearity correction enabled: false
Boxcar width: 5
Stray light correction enabled: false
XAxis mode: Wavelengths
Stop averaging: false
Number of Pixels in Spectrum: 3648
>>>>>Begin Spectral Data<<<<<
177.566	422.59
177.785	975.71
178.005	819.09
178.225	426.61
178.445	860.29
178.665	-74200
178.885	124.48
179.105	578.84
179.324	-336.86
179.544	-1299.84
179.764	-598.53
179.984	-856.36
180.204	-725.8
180.423	-812.9
180.643	-4482.2
180.863	-3226.01
181.083	-803.01
181.302	-634.83
181.522	-620.55
181.742	-4506.92
181.961	8401.77
182.181	6216.07
182.401	702.96
182.621	844.18
182.84	1375.45
183.06	2959.83
183.279	2645.8
183.499	1376.93
183.719	1297.93
183.938	699.57
184.158	1368.47
184.377	1450.17
184.597	1016.53
184.816	8563.55
185.036	37317.39
185.256	2340.11
185.475	1217.78
185.695	1164.23
185.914	843.32
186.134	576.42
186.353	501.09
186.572	397.91
186.792	514.66
187.011	4217.6
187.231	745.8
187.45	1019.59
187.67	2237.88
187.889	39372.73
188.108	1061.86
188.328	-4739.92
188.547	-669.19
188.766	-615.61
188.986	-868.07
189.205	-1032.21
189.424	1773.06
189.644	3066.01
189.863	1381.49
190.082	1575.68
190.302	6047.72
190.521	-614.03
190.74	-2144.35
190.959	-19032.39
191.178	25051.69
191.398	-10057.54
191.617	2236.47
191.836	7683.38
192.055	-2207.12
192.274	-907.58
192.494	-1570.97
192.713	-1004.43
192.932	-635.32
193.151	-644.36
193.37	-1048.82
193.589	-843.49
193.808	-659.77
194.027	-816.01
194.246	-1668.48
194.465	-1638.35
194.685	90770
194.904	1368.07
195.123	702.28
195.342	427.96
195.561	327.03
195.78	433.38
195.999	604.91
196.218	1137.7
196.436	1787.17
196.655	1030.06
196.874	662.36
197.093	635.94
197.312	1914.76
197.531	2213.7
197.75	4321.79
197.969	-1865.82
198.188	-2127.57
198.407	-13692.28
198.625	856.39
198.844	1326.72
199.063	3501.62
199.282	3492.11
199.501	-2337.6
199.719	-3146.41
199.938	-4717.56
200.157	4189.81
200.376	1324.18
200.594	853.41
200.813	851.18
201.032	587.47
201.251	718.14
201.469	1233.47
201.688	928.55
201.907	718.58
202.125	779.93
202.344	607.97
202.563	477.62
202.781	669.81
203	540.79
203.218	503.72
203.437	1320.25
203.656	772.34
203.874	490.97
204.093	559.89
204.311	532.84
204.53	434.45
204.748	471.6
204.967	598.98
205.185	395.07
205.404	587.43
205.622	836.53
205.841	534.52
206.059	559.45
206.278	680.77
206.496	826.65
206.715	1252.06
206.933	1944.91
207.151	-4185.5
207.37	-2897.99
207.588	-9482.92
207.806	6225.34
208.025	2248.82
208.243	-3372.94
208.461	-2708.76
208.68	-5643.49
208.898	8759.26
209.116	3714.8
209.335	7001.73
209.553	1977.95
209.771	5435.78
209.989	-4464.92
210.208	-2921.46
210.426	-1576.57
210.644	-1767.46
210.862	-858.84
211.081	-706.33
211.299	-329.11
211.517	-477.64
211.735	-616.58
211.953	-1502.48
212.171	991.44
212.39	1468.59
212.608	1823.06
212.826	891.5
213.044	441.12
213.262	388.48
213.48	474.13
213.698	462.35
213.916	581.47
214.134	754.18
214.352	1366.36
214.57	-3623.98
214.788	1801.29
215.006	9934.67
215.224	-2507.7
215.442	-830.89
215.66	-887.86
215.878	1820.69
216.096	499.89
216.314	486.72
216.532	340.86
216.75	296.04
216.968	283.69
217.185	291.2
217.403	338.4
217.621	395.16
217.839	477.23
218.057	434.35
218.275	666.62
218.492	1201.07
218.71	637.95
218.928	552.07
219.146	563.9
219.363	856.71
219.581	843.79
219.799	1868
220.017	601.95
220.234	514.39
220.452	657.26
220.67	448.62
220.887	441.48
221.105	777.55
221.323	1011.81
221.54	807.87
221.758	500.33
221.976	468.64
222.193	335.32
222.411	389.74
222.629	389.43
222.846	448.76
223.064	381.36
223.281	377.25
223.499	379.71
223.716	395.08
223.934	382.34
224.151	475.86
224.369	432.16
224.586	418.44
224.804	442.98
225.021	365
225.239	285.53
225.456	309.21
225.674	252.95
225.891	221.08
226.108	205.98
226.326	194.95
226.543	170.46
226.76	164.98
226.978	158.04
227.195	144.99
227.413	121.56
227.63	110.74
227.847	95.29
228.064	91.57
228.282	84.67
228.499	77.21
228.716	71.37
228.934	63.35
229.151	60.08
229.368	52.23
229.585	48.75
229.802	53.5
230.02	53.4
230.237	53.37
230.454	52.39
230.671	56.17
230.888	57.77
231.105	59.79
231.323	62.23
231.54	65.44
231.757	74.93
231.974	84.73
232.191	82.93
232.408	84.51
232.625	87.59
232.842	89.08
233.059	85.14
233.276	91.16
233.493	91.92
233.71	88.79
233.927	86.62
234.144	85.05
234.361	77.94
234.578	85.7
234.795	83.1
235.012	81.24
235.229	79.93
235.446	85.46
235.663	88.54
235.879	88.4
236.096	93.5
236.313	96.13
236.53	92.53
236.747	99.03
236.964	89.68
237.181	90
237.397	93.35
237.614	101.75
237.831	98.1
238.048	94.49
238.264	94.64
238.481	89.53
238.698	90.19
238.915	94.77
239.131	77.58
239.348	78.17
239.565	70.93
239.781	71.83
239.998	61.95
240.215	59.76
240.431	53.66
240.648	50.16
240.865	46.49
241.081	44.75
241.298	39.66
241.514	42.4
241.731	42.1
241.947	40.52
242.164	35.21
242.38	33.25
242.597	31.62
242.814	33.6
243.03	32.24
243.246	34.77
243.463	33.21
243.679	37.49
243.896	36.79
244.112	37.23
244.329	40.06
244.545	45.1
244.762	45.56
244.978	46
245.194	43.44
245.411	43.58
245.627	38.18
245.843	37.25
246.06	31.32
246.276	30.68
246.492	28.97
246.709	26.58
246.925	24.19
247.141	24.68
247.357	22.57
247.574	23.22
247.79	23.16
248.006	23.72
248.222	23.45
248.439	25.4
248.655	24.62
248.871	25.32
249.087	26.26
249.303	27.35
249.519	28.15
249.736	32.38
249.952	32.77
250.168	36.91
250.384	40.27
250.6	42.48
250.816	42.69
251.032	44.31
251.248	42.06
251.464	42.82
251.68	40.5
251.896	38.83
252.112	37.44
252.328	35.65
252.544	33.61
252.76	31.36
252.976	30.83
253.192	28.26
253.408	26.5
253.624	30.67
253.84	30.29
254.056	34.89
254.272	37.01
254.487	39.32
254.703	41.42
254.919	43.13
255.135	42.98
255.351	40.54
255.567	43.89
255.782	46.8
255.998	42.05
256.214	40.27
256.43	39.28
256.646	40.92
256.861	37.74
257.077	39.95
257.293	38.55
257.508	38.99
257.724	38.44
257.94	35.48
258.155	33.19
258.371	32.69
258.587	30.54
258.802	27.49
259.018	25.32
259.234	23.89
259.449	21.32
259.665	20.05
259.88	19.57
260.096	19.23
260.312	18.75
260.527	18.54
260.743	17.86
260.958	17.84
261.174	17.65
261.389	18.32
261.605	18.96
261.82	18.4
262.036	18.93
262.251	18.69
262.466	18.23
262.682	19.06
262.897	20.17
263.113	19.87
263.328	22.75
263.543	25.09
263.759	25.23
263.974	24.91
264.189	26.39
264.405	27.17
264.62	28.59
264.835	29.79
265.051	32.35
265.266	31.45
265.481	31.9
265.696	31.9
265.912	30.64
266.127	28.49
266.342	27.76
266.557	27.82
266.773	25.59
266.988	25.36
267.203	25.41
267.418	24.71
267.633	24.48
267.848	24.89
268.064	22.78
268.279	23.01
268.494	23.22
268.709	23.81
268.924	26.12
269.139	28.65
269.354	30.39
269.569	30.62
269.784	28.79
269.999	29.92
270.214	29.9
270.429	32.56
270.644	32.49
270.859	32.34
271.074	32.88
271.289	31.65
271.504	30.72
271.719	28.3
271.934	27.51
272.149	28.81
272.363	27.88
272.578	26.51
272.793	24.28
273.008	23.89
273.223	23.02
273.438	21.65
273.653	22.38
273.867	21.62
274.082	21.54
274.297	22.38
274.512	21.72
274.726	21.26
274.941	21.91
275.156	23.38
275.371	23.74
275.585	26.02
275.8	27.37
276.015	23.84
276.229	24.79
276.444	25.62
276.659	25.99
276.873	26.81
277.088	28.93
277.302	30.47
277.517	29.29
277.732	30.59
277.946	29.92
278.161	30.56
278.375	33.58
278.59	32.17
278.804	30.82
279.019	31.92
279.233	31.16
279.448	29.42
279.662	27.33
279.877	26.72
280.091	25.69
280.306	24.31
280.52	21.52
280.735	19.42
280.949	19.62
281.163	23.01
281.378	20.47
281.592	19.53
281.806	19.63
282.021	21.11
282.235	22.01
282.449	22.19
282.664	22.25
282.878	24.26
283.092	25.59
283.307	26.71
283.521	24.05
283.735	25.12
283.949	25.96
284.164	25.9
284.378	24.15
284.592	23.14
284.806	21.91
285.02	22.02
285.234	20.64
285.449	20.65
285.663	21
285.877	21.09
286.091	20.87
286.305	21.38
286.519	21.71
286.733	22.17
286.947	23.2
287.161	24.04
287.375	24.57
287.589	25.49
287.803	25.76
288.017	25.6
288.231	25.09
288.445	25.75
288.659	24.81
288.873	24.82
289.087	25.67
289.301	25.4
289.515	24.99
289.729	23.71
289.943	23.6
290.157	23.11
290.371	22.3
290.584	23.22
290.798	23.51
291.012	24.25
291.226	24.24
291.44	24.53
291.654	24.42
291.867	24.4
292.081	24.99
292.295	25.59
292.509	25.26
292.722	25.43
292.936	25.74
293.15	25.92
293.364	26.25
293.577	24.52
293.791	24.45
294.005	25.19
294.218	23.54
294.432	23.65
294.645	24.52
294.859	24.31
295.073	23.89
295.286	23.9
295.5	22.95
295.713	21.89
295.927	22.04
296.14	20.68
296.354	20.14
296.568	20.54
296.781	20.63
296.994	18.67
297.208	18.93
297.421	19.97
297.635	19.8
297.848	19.04
298.062	19.26
298.275	19.12
298.489	20.22
298.702	20.28
298.915	20.47
299.129	21.48
299.342	22.97
299.555	24.71
299.769	24.24
299.982	26.23
300.195	27.82
300.409	27.57
300.622	28.71
300.835	29.42
301.048	29.13
301.262	30.32
301.475	30.5
301.688	30.12
301.901	27.56
302.115	27.24
302.328	24.97
302.541	23.88
302.754	24.63
302.967	25.56
303.18	24.68
303.393	25.09
303.607	24.45
303.82	24.81
304.033	25.39
304.246	27.71
304.459	28.2
304.672	27.05
304.885	27.13
305.098	27.37
305.311	26.95
305.524	27.41
305.737	28.52
305.95	29.94
306.163	27.46
306.376	26.58
306.589	25.82
306.802	25.83
307.015	29.44
307.228	30.27
307.44	28.79
307.653	29.43
307.866	29.63
308.079	30.33
308.292	28.6
308.505	30.27
308.718	30.89
308.93	30.51
309.143	29.98
309.356	28.5
309.569	27.39
309.781	28.29
309.994	27.98
310.207	27.39
310.42	25.16
310.632	25.27
310.845	23.63
311.058	22.43
311.27	21.45
311.483	21.72
311.696	21.8
311.908	22.38
312.121	22.52
312.333	23.37
312.546	23.33
312.759	23.69
312.971	23.97
313.184	25.79
313.396	27.36
313.609	27.11
313.821	27.09
314.034	27.22
314.246	28.05
314.459	26.74
314.671	24.67
314.884	24.02
315.096	24.46
315.309	25.13
315.521	24.63
315.733	24.83
315.946	25.29
316.158	25.38
316.371	25.44
316.583	23.48
316.795	24.06
317.008	23.18
317.22	24.08
317.432	25.06
317.644	24.98
317.857	25.14
318.069	24.52
318.281	26.43
318.494	27.96
318.706	28.94
318.918	30.39
319.13	30.26
319.342	30.81
319.555	30.62
319.767	30.9
319.979	30.11
320.191	29.34
320.403	28.68
320.615	25.53
320.827	24.56
321.039	22.97
321.252	22.98
321.464	24.38
321.676	26.18
321.888	25.68
322.1	24.35
322.312	24.36
322.524	27.23
322.736	26.21
322.948	29.06
323.16	28.74
323.372	27.74
323.584	27.15
323.796	26.6
324.007	24.34
324.219	24.57
324.431	24.69
324.643	24.28
324.855	22.62
325.067	23.03
325.279	22.13
325.491	21.43
325.702	21.13
325.914	21.69
326.126	21.98
326.338	22.75
326.55	22.58
326.761	24.11
326.973	23.84
327.185	24.18
327.396	24.77
327.608	25.26
327.82	25.28
328.032	26.65
328.243	26.54
328.455	26.61
328.666	27.88
328.878	27.95
329.09	26.24
329.301	26.5
329.513	25.66
329.725	25.45
329.936	26.05
330.148	26.71
330.359	27.16
330.571	28.63
330.782	28.57
330.994	28.28
331.205	28.09
331.417	26.99
331.628	27.9
331.84	28.19
332.051	28.67
332.262	28.12
332.474	27.41
332.685	26.48
332.897	24.25
333.108	22.26
333.319	21.29
333.531	22.66
333.742	23.65
333.953	22.92
334.165	23.24
334.376	23.05
334.587	21.95
334.799	22.07
335.01	21.94
335.221	22.7
335.432	23.24
335.644	23.46
335.855	22
336.066	23.19
336.277	23.31
336.488	22.27
336.7	21.64
336.911	22.63
337.122	23.5
337.333	23.81
337.544	24.17
337.755	25.13
337.966	24.99
338.177	25.26
338.388	23.9
338.599	24.02
338.811	24.23
339.022	24.56
339.233	24.69
339.444	23.15
339.655	22.33
339.866	22.06
340.076	21.11
340.287	21.72
340.498	22.15
340.709	22.93
340.92	22.16
341.131	23.03
341.342	22.85
341.553	22.08
341.764	22.37
341.975	22.9
342.185	22.2
342.396	23.21
342.607	22.89
342.818	22.38
343.029	21.34
343.239	21.74
343.45	20.57
343.661	21.25
343.872	21.58
344.082	22
344.293	22.46
344.504	23.44
344.714	22.67
344.925	22.49
345.136	22.13
345.346	22.24
345.557	22.09
345.768	22.72
345.978	22.31
346.189	22.36
346.399	22.63
346.61	22.36
346.821	21.83
347.031	23.09
347.242	22.74
347.452	23.53
347.663	23.89
347.873	25
348.084	24.31
348.294	24.95
348.504	23.93
348.715	24.19
348.925	23.82
349.136	23.14
349.346	20.81
349.557	20.67
349.767	20.1
349.977	20.55
350.188	19.77
350.398	20.54
350.608	20.01
350.819	20.55
351.029	20.44
351.239	21.36
351.449	21.69
351.66	23.42
351.87	23.85
352.08	23.07
352.29	22.7
352.501	21.91
352.711	22.92
352.921	22.81
353.131	22.44
353.341	21.47
353.552	20.67
353.762	20.14
353.972	19.55
354.182	19.94
354.392	20.65
354.602	20.9
354.812	21.67
355.022	20.69
355.232	20.93
355.442	21.32
355.652	21.33
355.862	21.59
356.072	22.56
356.282	21.53
356.492	20.71
356.702	20.36
356.912	19.68
357.122	19.82
357.332	19.35
357.542	18.84
357.752	18.99
357.962	19.12
358.171	18.59
358.381	18.4
358.591	18.25
358.801	18.89
359.011	18.6
359.221	19.13
359.43	19.24
359.64	19.21
359.85	19.34
360.06	18.98
360.269	19.08
360.479	18.94
360.689	18.4
360.899	18.96
361.108	18.65
361.318	18.84
361.528	18.26
361.737	17.79
361.947	17.55
362.156	17.39
362.366	17.39
362.576	17.09
362.785	17.08
362.995	17.37
363.204	17.42
363.414	17.52
363.623	17.3
363.833	17.58
364.042	17.8
364.252	18.11
364.461	18.3
364.671	17.95
364.88	18.24
365.09	19.06
365.299	19.09
365.509	18.9
365.718	18.53
365.927	18.71
366.137	18.67
366.346	17.86
366.555	17.37
366.765	17.28
366.974	17.82
367.183	17.22
367.393	16.18
367.602	15.69
367.811	15.93
368.021	16.12
368.23	16.3
368.439	15.69
368.648	16.44
368.857	16.81
369.067	16.79
369.276	16.16
369.485	16.55
369.694	16.61
369.903	16.37
370.112	16.41
370.321	16.01
370.531	15.97
370.74	15.7
370.949	15.31
371.158	14.96
371.367	14.57
371.576	14.79
371.785	14.48
371.994	14.66
372.203	14.85
372.412	14.76
372.621	15.09
372.83	14.97
373.039	15.59
373.248	15.66
373.457	16.04
373.666	16.14
373.874	16.33
374.083	16.91
374.292	16.43
374.501	16.15
374.71	16.23
374.919	15.88
375.128	15.65
375.336	15.47
375.545	15.67
375.754	15.79
375.963	15.64
376.171	15.42
376.38	15.33
376.589	15.71
376.798	15.61
377.006	15.71
377.215	16.11
377.424	15.91
377.632	15.81
377.841	14.88
378.05	15.24
378.258	15.4
378.467	15.24
378.675	14.96
378.884	14.87
379.093	15.06
379.301	15.03
379.51	14.89
379.718	15.08
379.927	15.66
380.135	15.86
380.344	15.21
380.552	14.96
380.761	15.3
380.969	15.55
381.177	15.35
381.386	16.08
381.594	15.36
381.803	14.69
382.011	15
382.219	14.42
382.428	14.45
382.636	13.92
382.845	13.83
383.053	13.68
383.261	12.87
383.469	12.8
383.678	12.07
383.886	12.04
384.094	12.5
384.302	11.83
384.511	11.72
384.719	11.76
384.927	12.23
385.135	12.33
385.343	11.85
385.552	12.18
385.76	12.22
385.968	12.51
386.176	12.55
386.384	12.15
386.592	12.54
386.8	12.65
387.008	12.65
387.216	12.4
387.424	12.56
387.633	12.94
387.841	12.8
388.049	12.84
388.257	12.41
388.465	12.02
388.672	12.46
388.88	12.49
389.088	12.41
389.296	12.4
389.504	12.39
389.712	12.47
389.92	12.01
390.128	11.99
390.336	11.79
390.544	11.84
390.751	12.42
390.959	11.91
391.167	11.39
391.375	11.6
391.583	11.53
391.79	11.22
391.998	11.19
392.206	11.62
392.414	11.47
392.621	11.3
392.829	11.35
393.037	11.22
393.244	11.39
393.452	11.31
393.66	11.26
393.867	11.53
394.075	11.69
394.283	11.33
394.49	10.97
394.698	11.27
394.905	11.43
395.113	11.35
395.32	11.02
395.528	10.86
395.735	11.2
395.943	10.98
396.15	10.58
396.358	10.55
396.565	10.65
396.773	10.55
396.98	10.31
397.188	10.07
397.395	10.06
397.602	10.52
397.81	10.73
398.017	10.64
398.225	10.33
398.432	10.33
398.639	10.38
398.847	10.48
399.054	10.77
399.261	11
399.468	11.31
399.676	11.35
399.883	11.25
400.09	11.02
400.297	11.39
400.505	11.78
400.712	12.07
400.919	12.32
401.126	12.04
401.333	11.77
401.54	11.74
401.748	11.55
401.955	11.27
402.162	11.01
402.369	11.1
402.576	10.59
402.783	10.07
402.99	9.84
403.197	9.35
403.404	9.49
403.611	9.7
403.818	9.9
404.025	9.9
404.232	9.85
404.439	9.96
404.646	9.55
404.853	9.73
405.06	10.05
405.267	10
405.474	10.38
405.681	10.28
405.887	10.13
406.094	10.01
406.301	10.26
406.508	10.6
406.715	10.82
406.922	11.19
407.128	11.34
407.335	11.1
407.542	11.3
407.749	10.9
407.955	11.07
408.162	10.95
408.369	10.79
408.575	10.57
408.782	10.24
408.989	9.71
409.195	9.59
409.402	9.62
409.609	9.91
409.815	9.77
410.022	9.7
410.228	9.68
410.435	10.06
410.642	9.76
410.848	9.67
411.055	9.84
411.261	10.23
411.468	10
411.674	9.73
411.881	9.38
412.087	9.26
412.294	9.5
412.5	9.27
412.706	9.36
412.913	9.82
413.119	9.69
413.326	9.77
413.532	9.79
413.738	10.34
413.945	10.24
414.151	10.61
414.357	10.77
414.564	10.96
414.77	10.99
414.976	10.29
415.182	10.37
415.389	10.5
415.595	10.21
415.801	9.97
416.007	9.8
416.214	9.9
416.42	9.63
416.626	9.49
416.832	9.37
417.038	9.45
417.244	9.78
417.45	9.21
417.657	9.09
417.863	9.11
418.069	9.28
418.275	9.28
418.481	9.23
418.687	9.33
418.893	9.23
419.099	9.09
419.305	8.87
419.511	8.8
419.717	8.92
419.923	8.73
420.129	8.58
420.335	8.61
420.541	8.49
420.746	8.48
420.952	8.36
421.158	8.39
421.364	8.45
421.57	8.51
421.776	8.43
421.982	8.5
422.187	8.62
422.393	8.74
422.599	8.71
422.805	8.59
423.01	8.57
423.216	8.63
423.422	8.62
423.628	8.66
423.833	8.68
424.039	9.01
424.245	9.03
424.45	8.9
424.656	8.85
424.862	8.53
425.067	8.74
425.273	8.65
425.478	8.67
425.684	8.71
425.889	8.73
426.095	8.63
426.301	8.18
426.506	8.14
426.712	8.3
426.917	8.38
427.123	8.51
427.328	8.36
427.533	8.55
427.739	8.56
427.944	8.75
428.15	8.81
428.355	9.05
428.561	9.33
428.766	9.14
428.971	9.36
429.177	9.3
429.382	9.36
429.587	9.47
429.793	9.47
429.998	9.38
430.203	9.35
430.408	9.1
430.614	9.05
430.819	8.77
431.024	8.93
431.229	8.73
431.434	8.89
431.64	8.96
431.845	9.05
432.05	9.24
432.255	9.28
432.46	9.15
432.665	9.03
432.87	9.03
433.076	9.17
433.281	9.11
433.486	9.07
433.691	8.94
433.896	8.9
434.101	8.72
434.306	8.43
434.511	8.33
434.716	8.31
434.921	8.4
435.126	8.38
435.331	8.19
435.535	8.16
435.74	8.31
435.945	8.3
436.15	8.43
436.355	8.7
436.56	8.88
436.765	9.03
436.97	8.94
437.174	9.1
437.379	9.12
437.584	9.47
437.789	9.27
437.993	9.15
438.198	9.29
438.403	9.14
438.608	8.78
438.812	8.6
439.017	8.39
439.222	8.58
439.426	8.42
439.631	8.25
439.836	8.09
440.04	8.29
440.245	8.52
440.45	8.24
440.654	8.23
440.859	8.4
441.063	8.39
441.268	8.53
441.472	8.48
441.677	8.69
441.881	8.81
442.086	8.83
442.29	8.88
442.495	8.69
442.699	8.86
442.904	8.86
443.108	8.76
443.312	8.76
443.517	8.77
443.721	8.68
443.925	8.37
444.13	8.37
444.334	8.35
444.538	8.3
444.743	8.42
444.947	8.28
445.151	8.27
445.356	8.37
445.56	8.57
445.764	8.41
445.968	8.34
446.173	8.44
446.377	8.28
446.581	8.19
446.785	8.15
446.989	8.09
447.193	8.17
447.398	8.26
447.602	8.21
447.806	8.1
448.01	8.29
448.214	8.37
448.418	8.43
448.622	8.63
448.826	8.84
449.03	8.87
449.234	8.75
449.438	8.75
449.642	8.6
449.846	8.84
450.05	8.89
450.254	8.73
450.458	8.74
450.662	8.82
450.866	8.57
451.069	8.4
451.273	8.35
451.477	8.35
451.681	8.48
451.885	8.62
452.089	8.43
452.292	8.37
452.496	8.3
452.7	8.27
452.904	8.1
453.107	8.34
453.311	8.5
453.515	8.73
453.719	8.91
453.922	8.9
454.126	8.77
454.33	8.8
454.533	8.9
454.737	8.87
454.94	8.89
455.144	8.88
455.348	8.73
455.551	8.67
455.755	8.64
455.958	8.55
456.162	8.45
456.365	8.62
456.569	8.61
456.772	8.55
456.976	8.62
457.179	8.65
457.383	8.6
457.586	8.62
457.79	8.43
457.993	8.38
458.196	8.35
458.4	8.38
458.603	8.28
458.807	8.07
459.01	8.13
459.213	8.09
459.417	8.08
459.62	8.05
459.823	8.05
460.026	8.08
460.23	8.04
460.433	8.04
460.636	7.92
460.839	8.02
461.042	8.09
461.246	7.96
461.449	8.01
461.652	8.02
461.855	7.94
462.058	7.98
462.261	8.08
462.464	8.16
462.668	8.19
462.871	8.39
463.074	8.3
463.277	8.31
463.48	8.5
463.683	8.55
463.886	8.47
464.089	8.93
464.292	9.11
464.495	8.78
464.698	8.62
464.901	8.66
465.104	8.82
465.306	8.9
465.509	8.8
465.712	8.75
465.915	8.61
466.118	8.63
466.321	8.38
466.524	8.19
466.726	8.35
466.929	8.41
467.132	8.18
467.335	7.93
467.538	7.71
467.74	7.95
467.943	7.87
468.146	8.07
468.348	8.15
468.551	8.2
468.754	8.16
468.956	8.21
469.159	8.25
469.362	8.54
469.564	8.52
469.767	8.69
469.969	8.54
470.172	8.55
470.375	8.49
470.577	8.48
470.78	8.39
470.982	8.6
471.185	8.38
471.387	8.19
471.59	8.21
471.792	8.09
471.995	8.07
472.197	8.02
472.399	8.09
472.602	8.06
472.804	8.04
473.007	8.03
473.209	7.79
473.411	8.13
473.614	8.2
473.816	7.92
474.018	8.07
474.22	8.16
474.423	8.39
474.625	8.33
474.827	8.13
475.03	8.08
475.232	8.33
475.434	8.63
475.636	8.46
475.838	8.56
476.04	8.62
476.243	8.66
476.445	8.52
476.647	8.57
476.849	8.49
477.051	8.56
477.253	8.75
477.455	8.56
477.657	8.36
477.859	8.4
478.061	8.26
478.263	8.21
478.465	8.17
478.667	8.14
478.869	8.1
479.071	8.16
479.273	8.18
479.475	8.14
479.677	8.13
479.879	8.14
480.081	8.06
480.283	8.16
480.485	8.08
480.686	8.16
480.888	8.23
481.09	8.14
481.292	8.03
481.494	8.09
481.695	7.98
481.897	7.87
482.099	7.84
482.301	7.86
482.502	7.69
482.704	7.8
482.906	7.67
483.107	7.5
483.309	7.35
483.511	7.3
483.712	7.21
483.914	7.11
484.115	7.1
484.317	7.06
484.519	7.05
484.72	7.09
484.922	7
485.123	6.99
485.325	7.03
485.526	7.07
485.728	7.12
485.929	7.15
486.131	7.2
486.332	7.22
486.534	7.19
486.735	7.13
486.936	7.1
487.138	7.15
487.339	7.12
487.541	7.15
487.742	7.15
487.943	7.18
488.144	7.17
488.346	7.24
488.547	7.3
488.748	7.37
488.95	7.38
489.151	7.43
489.352	7.46
489.553	7.51
489.755	7.59
489.956	7.67
490.157	7.68
490.358	7.8
490.559	7.7
490.76	7.57
490.961	7.56
491.163	7.65
491.364	7.59
491.565	7.47
491.766	7.48
491.967	7.42
492.168	7.32
492.369	7.26
492.57	7.19
492.771	7.26
492.972	7.3
493.173	7.4
493.374	7.45
493.575	7.55
493.776	7.7
493.976	7.73
494.177	7.87
494.378	8.11
494.579	8.16
494.78	8.14
494.981	8.08
495.182	8.05
495.382	8.17
495.583	8.08
495.784	8.13
495.985	8.19
496.185	8.31
496.386	8.21
496.587	8.14
496.788	8.26
496.988	8.45
497.189	8.48
497.39	8.59
497.59	8.51
497.791	8.58
497.992	8.53
498.192	8.56
498.393	8.57
498.593	8.51
498.794	8.46
498.994	8.43
499.195	8.26
499.395	8.31
499.596	8.47
499.796	8.32
499.997	8.32
500.197	8.28
500.398	8.21
500.598	8.22
500.799	8.27
500.999	8.4
501.199	8.44
501.4	8.57
501.6	8.59
501.801	8.42
502.001	8.55
502.201	8.58
502.402	8.66
502.602	8.54
502.802	8.34
503.002	8.55
503.203	8.54
503.403	8.4
503.603	8.53
503.803	8.5
504.003	8.62
504.204	8.55
504.404	8.44
504.604	8.37
504.804	8.59
505.004	8.82
505.204	8.63
505.404	8.57
505.604	8.78
505.804	8.67
506.005	8.72
506.205	8.7
506.405	8.84
506.605	8.85
506.805	9.05
507.005	9.1
507.204	9.11
507.404	9.06
507.604	9.25
507.804	9.3
508.004	9.35
508.204	9.28
508.404	9.17
508.604	9.1
508.804	9.26
509.003	9.08
509.203	8.9
509.403	8.81
509.603	8.85
509.803	8.72
510.002	8.48
510.202	8.35
510.402	8.46
510.602	8.47
510.801	8.55
511.001	8.31
511.201	8.28
511.4	8.24
511.6	8.2
511.8	8.16
511.999	8.42
512.199	8.38
512.398	8.5
512.598	8.53
512.797	8.79
512.997	8.73
513.197	8.74
513.396	8.98
513.596	9.1
513.795	9.29
513.994	9.37
514.194	9.14
514.393	9.32
514.593	9.5
514.792	9.41
514.992	9.29
515.191	9.38
515.39	9.58
515.59	9.66
515.789	9.87
515.988	9.93
516.188	10.03
516.387	10.12
516.586	10.22
516.786	10.02
516.985	9.97
517.184	9.98
517.383	10.01
517.582	9.88
517.782	9.63
517.981	9.34
518.18	9.16
518.379	9.19
518.578	9.09
518.777	9.01
518.976	9.09
519.176	9.23
519.375	9.18
519.574	9.07
519.773	9.16
519.972	9.39
520.171	9.53
520.37	9.65
520.569	9.68
520.768	9.83
520.967	9.97
521.166	9.92
521.365	9.92
521.564	10.11
521.762	10.26
521.961	10.39
522.16	10.24
522.359	10.28
522.558	10.17
522.757	10.27
522.956	10.19
523.154	10.16
523.353	10.21
523.552	10.18
523.751	10.09
523.949	10.01
524.148	9.92
524.347	9.98
524.546	10.02
524.744	10.06
524.943	10.05
525.142	10.02
525.34	10.09
525.539	10.09
525.737	10.08
525.936	10.05
526.135	10.15
526.333	10.17
526.532	10.1
526.73	10.04
526.929	10.07
527.127	10.04
527.326	10.04
527.524	9.96
527.723	10.01
527.921	10.04
528.12	9.97
528.318	9.9
528.516	9.85
528.715	9.82
528.913	9.87
529.112	9.87
529.31	9.85
529.508	9.92
529.707	10
529.905	9.96
530.103	9.98
530.301	10.1
530.5	10.13
530.698	10.24
530.896	10.41
531.094	10.45
531.293	10.59
531.491	10.63
531.689	10.65
531.887	10.67
532.085	10.79
532.283	10.89
532.481	10.87
532.68	11
532.878	11.04
533.076	11
533.274	11.05
533.472	11.06
533.67	11.04
533.868	11.12
534.066	11.13
534.264	11.18
534.462	11.15
534.66	11.3
534.858	11.27
535.056	11.33
535.253	11.36
535.451	11.47
535.649	11.5
535.847	11.8
536.045	11.74
536.243	11.98
536.441	11.98
536.638	12.01
536.836	11.84
537.034	12.07
537.232	12.04
537.43	12.2
537.627	12.25
537.825	12.28
538.023	12.17
538.22	12.36
538.418	12.25
538.616	12.34
538.813	12.5
539.011	12.73
539.209	12.67
539.406	12.83
539.604	13.07
539.801	13.21
539.999	13.2
540.196	13.25
540.394	13.33
540.591	13.37
540.789	13.43
540.986	13.46
541.184	13.56
541.381	13.64
541.579	13.64
541.776	13.51
541.974	13.45
542.171	13.61
542.368	13.72
542.566	13.76
542.763	13.68
542.96	13.72
543.158	13.78
543.355	13.77
543.552	13.79
543.75	14.02
543.947	14.15
544.144	14.39
544.341	14.41
544.539	14.53
544.736	14.57
544.933	14.85
545.13	15.04
545.327	15.17
545.524	15.23
545.722	15.44
545.919	15.28
546.116	15.31
546.313	15.21
546.51	15.4
546.707	15.48
546.904	15.67
547.101	15.77
547.298	15.9
547.495	15.95
547.692	16.19
547.889	16.23
548.086	16.4
548.283	16.68
548.48	16.87
548.677	16.79
548.874	16.99
549.07	17.07
549.267	17.32
549.464	17.39
549.661	17.42
549.858	17.59
550.055	17.78
550.251	18.06
550.448	18.05
550.645	18.22
550.842	18.67
551.038	18.75
551.235	19.11
551.432	19.07
551.628	19.26
551.825	19.69
552.022	19.84
552.218	19.88
552.415	20.03
552.612	20.24
552.808	20.27
553.005	20.12
553.201	20.14
553.398	19.93
553.594	20.25
553.791	20.36
553.987	20.28
554.184	20.26
554.38	20.64
554.577	20.6
554.773	20.88
554.97	21.18
555.166	21.76
555.362	21.98
555.559	22.38
555.755	22.43
555.952	22.27
556.148	22.67
556.344	23.02
556.541	22.9
556.737	22.86
556.933	22.9
557.129	22.97
557.326	22.93
557.522	23.04
557.718	23.08
557.914	23.18
558.11	23.51
558.307	23.41
558.503	23.34
558.699	23.68
558.895	24.19
559.091	24.31
559.287	24.65
559.483	24.84
559.679	25.11
559.876	25.32
560.072	25.58
560.268	25.88
560.464	25.82
560.66	26.02
560.856	25.95
561.052	25.87
561.247	25.83
561.443	25.88
561.639	25.74
561.835	25.69
562.031	25.87
562.227	25.81
562.423	25.79
562.619	26.08
562.815	26.3
563.01	26.6
563.206	26.88
563.402	26.92
563.598	26.92
563.793	27.08
563.989	27.03
564.185	27.17
564.381	27.4
564.576	27.63
564.772	27.91
564.968	27.93
565.163	27.84
565.359	27.81
565.555	28.07
565.75	28.37
565.946	28.75
566.141	29.06
566.337	29.14
566.532	29.14
566.728	29.22
566.923	29.26
567.119	29.44
567.314	29.7
567.51	29.93
567.705	30.08
567.901	29.94
568.096	29.95
568.292	30.11
568.487	30.15
568.682	30.51
568.878	30.65
569.073	30.8
569.268	30.88
569.464	31
569.659	31.21
569.854	31.25
570.05	31.47
570.245	31.54
570.44	31.57
570.635	31.44
570.831	31.54
571.026	31.63
571.221	31.67
571.416	31.66
571.611	31.53
571.806	31.43
572.002	31.71
572.197	31.63
572.392	31.53
572.587	31.58
572.782	31.93
572.977	31.82
573.172	31.88
573.367	31.98
573.562	32.2
573.757	32.33
573.952	32.47
574.147	32.53
574.342	32.84
574.537	32.98
574.732	32.97
574.927	33.11
575.121	33.34
575.316	33.38
575.511	33.49
575.706	33.53
575.901	33.9
576.096	34.05
576.29	34.04
576.485	34.11
576.68	34.54
576.875	34.73
577.069	34.51
577.264	34.53
577.459	34.81
577.654	34.7
577.848	34.7
578.043	34.57
578.238	34.79
578.432	34.81
578.627	34.74
578.821	34.73
579.016	34.9
579.21	35.23
579.405	35.3
579.6	35.32
579.794	35.76
579.989	36.01
580.183	36.15
580.378	36.27
580.572	36.46
580.766	36.66
580.961	36.64
581.155	36.72
581.35	36.98
581.544	36.96
581.738	37
581.933	37
582.127	37.02
582.321	37.05
582.516	37
582.71	36.9
582.904	37.26
583.099	37.27
583.293	37.46
583.487	37.5
583.681	37.84
583.875	37.67
584.07	37.78
584.264	38.07
584.458	38.07
584.652	37.84
584.846	38.02
585.04	37.62
585.234	37.66
585.428	37.54
585.623	37.38
585.817	37.34
586.011	37.5
586.205	37.42
586.399	37.44
586.593	37.47
586.787	37.82
586.981	37.83
587.174	38.14
587.368	38.45
587.562	38.66
587.756	38.79
587.95	39.02
588.144	38.98
588.338	39.2
588.532	38.93
588.725	39.14
588.919	39.16
589.113	39.25
589.307	39.24
589.501	39.01
589.694	39.08
589.888	39.06
590.082	38.72
590.275	38.77
590.469	38.91
590.663	39.16
590.856	39.1
591.05	39.3
591.244	39.52
591.437	39.8
591.631	40
591.824	39.69
592.018	39.97
592.212	40.39
592.405	40.51
592.599	40.32
592.792	40.17
592.986	40.27
593.179	40.04
593.372	40.09
593.566	39.97
593.759	40.08
593.953	40.17
594.146	39.93
594.339	39.63
594.533	39.85
594.726	39.76
594.92	39.97
595.113	39.89
595.306	40.12
595.499	39.77
595.693	39.64
595.886	39.61
596.079	39.72
596.272	39.8
596.466	39.88
596.659	39.7
596.852	39.86
597.045	39.83
597.238	39.84
597.431	39.79
597.624	40.01
597.818	40.16
598.011	40.23
598.204	40.22
598.397	40.23
598.59	40.35
598.783	40.65
598.976	40.58
599.169	40.65
599.362	40.66
599.555	40.71
599.748	40.95
599.941	40.88
600.134	40.5
600.326	40.88
600.519	41.26
600.712	41.46
600.905	41.28
601.098	41.36
601.291	41.38
601.483	41.65
601.676	41.8
601.869	41.65
602.062	41.86
602.255	42.25
602.447	41.85
602.64	41.58
602.833	41.49
603.025	41.62
603.218	41.56
603.411	41.54
603.603	41.39
603.796	41.45
603.989	41.26
604.181	41.06
604.374	41.05
604.566	41.14
604.759	41.27
604.951	41.18
605.144	40.97
605.336	41.18
605.529	41.24
605.721	41.3
605.914	41.17
606.106	41.38
606.299	41.71
606.491	41.56
606.683	41.52
606.876	41.42
607.068	41.43
607.26	41.71
607.453	41.69
607.645	41.9
607.837	41.98
608.03	41.95
608.222	41.97
608.414	41.77
608.606	41.88
608.799	42.08
608.991	41.99
609.183	42.16
609.375	42
609.567	41.99
609.759	41.58
609.952	41.51
610.144	41.71
610.336	41.73
610.528	41.7
610.72	41.83
610.912	41.74
611.104	42.22
611.296	42.1
611.488	42.34
611.68	42.49
611.872	42.77
612.064	43.03
612.256	42.96
612.448	42.98
612.64	43.09
612.832	43.3
613.023	43.78
613.215	43.38
613.407	43.41
613.599	43.29
613.791	43.52
613.983	43.5
614.174	43.43
614.366	43.47
614.558	43.75
614.75	43.84
614.941	43.68
615.133	43.64
615.325	43.92
615.516	44.18
615.708	44.32
615.9	43.95
616.091	43.78
616.283	43.69
616.475	43.65
616.666	43.57
616.858	43.61
617.049	43.56
617.241	43.29
617.432	42.78
617.624	42.65
617.815	42.43
618.007	42.79
618.198	43.1
618.39	43
618.581	42.89
618.773	42.65
618.964	42.8
619.155	43.18
619.347	43.35
619.538	43.76
619.729	43.78
619.921	44.15
620.112	43.92
620.303	43.53
620.494	43.64
620.686	44.04
620.877	44.25
621.068	44.29
621.259	44.29
621.451	44.36
621.642	44.25
621.833	44.32
622.024	44.23
622.215	44.4
622.406	44.81
622.597	44.85
622.788	44.6
622.98	44.51
623.171	44
623.362	44.05
623.553	44.03
623.744	43.9
623.935	43.85
624.126	43.64
624.317	43.53
624.508	43.72
624.698	43.77
624.889	43.72
625.08	43.98
625.271	44.48
625.462	44.15
625.653	44.23
625.844	43.97
626.034	43.9
626.225	44.17
626.416	44.18
626.607	44.2
626.798	44.27
626.988	44.27
627.179	44.32
627.37	44.1
627.56	44.14
627.751	44.02
627.942	44.46
628.132	44.3
628.323	44.1
628.514	44.38
628.704	44.21
628.895	44.15
629.085	44.17
629.276	44.18
629.466	44.39
629.657	44.32
629.847	44.36
630.038	44.44
630.228	44.76
630.419	45.2
630.609	45.04
630.8	45.35
630.99	45.47
631.181	45.67
631.371	45.69
631.561	45.56
631.752	45.7
631.942	45.77
632.132	45.9
632.323	45.94
632.513	45.6
632.703	45.3
632.893	45.31
633.084	45.26
633.274	45.12
633.464	44.62
633.654	44.9
633.844	44.7
634.034	44.83
634.225	44.28
634.415	44.37
634.605	44.59
634.795	44.8
634.985	44.47
635.175	44.8
635.365	44.61
635.555	45.08
635.745	45.09
635.935	45.49
636.125	45.15
636.315	45.62
636.505	45.43
636.695	45.13
636.885	45.07
637.075	45.15
637.265	44.98
637.455	45.52
637.644	45.43
637.834	45.26
638.024	45.11
638.214	45.43
638.404	45.51
638.593	45.82
638.783	45.95
638.973	46.11
639.163	46.12
639.352	45.94
639.542	45.69
639.732	45.78
639.921	45.79
640.111	46.11
640.301	45.94
640.49	45.95
640.68	45.54
640.87	45.34
641.059	45.36
641.249	45.74
641.438	45.92
641.628	45.9
641.817	46.05
642.007	46.22
642.196	45.95
642.386	46.15
642.575	46.27
642.764	46.51
642.954	46.42
643.143	46.58
643.333	46.22
643.522	46.06
643.711	46.45
643.901	46.13
644.09	46.27
644.279	46.49
644.469	46.57
644.658	46.09
644.847	46.33
645.036	46.75
645.226	46.5
645.415	46.51
645.604	46.26
645.793	46.2
645.982	46.24
646.171	46.27
646.361	46.08
646.55	46.1
646.739	46.41
646.928	46.06
647.117	46.05
647.306	46.26
647.495	46.45
647.684	46.55
647.873	46.28
648.062	46.77
648.251	46.76
648.44	46.92
648.629	46.42
648.818	46.42
649.007	46.51
649.196	46.84
649.384	46.75
649.573	46.69
649.762	46.88
649.951	46.98
650.14	47.15
650.328	46.83
650.517	46.53
650.706	46.92
650.895	47.16
651.083	47.44
651.272	47.08
651.461	47.31
651.65	47.16
651.838	47.41
652.027	47.08
652.216	46.54
652.404	46.85
652.593	47.32
652.781	47.21
652.97	47.2
653.158	47.18
653.347	47.51
653.535	47.38
653.724	47.33
653.912	47.59
654.101	47.86
654.289	47.77
654.478	47.75
654.666	47.29
654.855	47.64
655.043	47.85
655.231	47.56
655.42	48.14
655.608	48.32
655.796	48.71
655.985	48.22
656.173	48.24
656.361	48.53
656.55	47.98
656.738	48.17
656.926	48.27
657.114	48.37
657.302	48.62
657.491	47.68
657.679	47.32
657.867	47.29
658.055	47.4
658.243	47.3
658.431	46.86
658.619	47.18
658.807	47.04
658.996	46.65
659.184	46.29
659.372	46.19
659.56	46.18
659.748	46.17
659.936	46.41
660.124	46.03
660.311	46.16
660.499	46.66
660.687	46.4
660.875	46.69
661.063	46.58
661.251	46.62
661.439	46.94
661.627	47.46
661.814	47.33
662.002	47.1
662.19	47.48
662.378	47.76
662.565	47.55
662.753	48.5
662.941	48.09
663.129	48.44
663.316	48.41
663.504	48.21
663.692	47.89
663.879	48.56
664.067	48.47
664.254	48.66
664.442	48.7
664.63	48.56
664.817	48.04
665.005	48.19
665.192	47.98
665.38	48.16
665.567	47.74
665.755	47.74
665.942	47.6
666.13	47.29
666.317	46.93
666.504	46.25
666.692	46.5
666.879	46.22
667.067	46.43
667.254	46.66
667.441	46.3
667.629	46.95
667.816	47
668.003	46.85
668.19	47.63
668.378	47.79
668.565	48
668.752	48.22
668.939	48.18
669.127	48.12
669.314	48.17
669.501	48.33
669.688	48.92
669.875	48.45
670.062	48.66
670.249	48.61
670.436	48.78
670.623	49.15
670.81	49.01
670.997	49.25
671.184	49.4
671.371	49.33
671.558	49.48
671.745	48.32
671.932	49.42
672.119	49.31
672.306	48.94
672.493	49.22
672.68	49.24
672.867	49.21
673.054	48.99
673.24	48.79
673.427	48.71
673.614	48.77
673.801	49.41
673.988	48.83
674.174	49.12
674.361	49.36
674.548	49.17
674.734	48.78
674.921	48.6
675.108	49.09
675.294	48.91
675.481	48.69
675.668	48.86
675.854	48.94
676.041	48.81
676.227	48.22
676.414	48.03
676.601	48.38
676.787	48.42
676.974	48.91
677.16	48.76
677.347	49.25
677.533	49.27
677.719	48.81
677.906	48.4
678.092	48.92
678.279	48.89
678.465	48.76
678.651	48.57
678.838	48.93
679.024	48.41
679.21	48.1
679.397	47.82
679.583	48.18
679.769	48
679.955	47.97
680.142	47.59
680.328	48.21
680.514	48.25
680.7	47.94
680.886	48.01
681.073	48.03
681.259	48.07
681.445	48.13
681.631	48.05
681.817	48.15
682.003	48.21
682.189	47.95
682.375	47.8
682.561	48.28
682.747	48.3
682.933	48.05
683.119	48.06
683.305	48.31
683.491	48.43
683.677	48.46
683.863	48.65
684.049	49.08
684.235	49.22
684.42	49.49
684.606	49.05
684.792	49.36
684.978	49.16
685.164	49.65
685.349	49.68
685.535	49.78
685.721	49.52
685.907	49.15
686.092	48.63
686.278	48.72
686.464	48.52
686.649	48.69
686.835	48.7
687.021	49.38
687.206	49.13
687.392	48.73
687.577	48.67
687.763	49.33
687.948	49.61
688.134	49.47
688.319	49.6
688.505	49.95
688.69	49.49
688.876	49.42
689.061	48.91
689.247	49.39
689.432	49.8
689.618	49.79
689.803	49.15
689.988	50.12
690.174	50.8
690.359	50.88
690.544	50.43
690.73	51.23
690.915	51.37
691.1	51.43
691.285	50.85
691.471	50.55
691.656	50.19
691.841	50.4
692.026	49.54
692.211	49.16
692.396	49.21
692.582	48.78
692.767	48.2
692.952	48.17
693.137	48.25
693.322	48.71
693.507	48.67
693.692	49.07
693.877	48.98
694.062	49.03
694.247	49.71
694.432	50.14
694.617	50.15
694.802	50.47
694.987	50.59
695.172	50.86
695.357	50.24
695.541	50.89
695.726	51.27
695.911	51.62
696.096	51.28
696.281	50.65
696.466	50.21
696.65	50.4
696.835	50.31
697.02	49.83
697.204	50.33
697.389	50.92
697.574	50.39
697.759	50.14
697.943	49.91
698.128	49.93
698.312	50.12
698.497	49.76
698.682	49.57
698.866	49.49
699.051	49.55
699.235	49.14
699.42	48.82
699.604	48.93
699.789	48.27
699.973	47.98
700.158	48.02
700.342	47.88
700.527	48.6
700.711	49.03
700.895	49.3
701.08	49.8
701.264	49.83
701.448	50.13
701.633	50.42
701.817	51.56
702.001	52.55
702.186	53.07
702.37	53.43
702.554	52.59
702.738	52.34
702.923	52.38
703.107	51.91
703.291	51.94
703.475	51.49
703.659	51.19
703.843	51.37
704.027	50.97
704.212	50.24
704.396	49.84
704.58	50.84
704.764	51.23
704.948	51.02
705.132	51.21
705.316	51.48
705.5	51.78
705.684	51.34
705.868	51.12
706.052	51.58
706.235	52.85
706.419	53.36
706.603	53.51
706.787	53.32
706.971	53.37
707.155	52.96
707.339	52.74
707.522	52.71
707.706	53.2
707.89	53.6
708.074	53.5
708.257	52.6
708.441	52.92
708.625	52.2
708.808	52.15
708.992	52.42
709.176	53.19
709.359	53.55
709.543	53.13
709.727	53.49
709.91	53.62
710.094	53.2
710.277	53.3
710.461	52.96
710.644	54.04
710.828	54.03
711.011	53.76
711.195	52.83
711.378	52.51
711.562	52.73
711.745	52.67
711.928	51.83
712.112	51.85
712.295	51.89
712.478	51.71
712.662	51.37
712.845	51.97
713.028	51.98
713.212	52.29
713.395	52.12
713.578	52.68
713.761	52.14
713.945	52.52
714.128	52.81
714.311	53.14
714.494	52.35
714.677	51.19
714.86	50.68
715.043	51.2
715.227	51.5
715.41	51.67
715.593	51.63
715.776	52.53
715.959	52.01
716.142	51.41
716.325	51.1
716.508	51.66
716.691	52.04
716.874	52.09
717.057	51.59
717.239	51.57
717.422	51.23
717.605	51.28
717.788	51
717.971	53.04
718.154	53.31
718.337	53.85
718.519	54.81
718.702	55.82
718.885	55.66
719.068	56.24
719.25	57.03
719.433	56.59
719.616	56.41
719.798	56.58
719.981	55.87
720.164	55.67
720.346	55.6
720.529	55.1
720.712	54.85
720.894	55.18
721.077	54.6
721.259	54.52
721.442	55.67
721.624	55.31
721.807	54.62
721.989	52.96
722.172	53.47
722.354	53.91
722.537	53.58
722.719	53.07
722.901	52.72
723.084	52.59
723.266	52.53
723.448	51.76
723.631	52.17
723.813	52.91
723.995	53.99
724.178	54.54
724.36	54.03
724.542	53.55
724.724	53.75
724.907	54.08
725.089	54.35
725.271	54.04
725.453	53.72
725.635	53.47
725.817	53.85
725.999	54.14
726.181	54.09
726.364	54.78
726.546	54.93
726.728	54.94
726.91	54.93
727.092	54.4
727.274	55.17
727.456	56.63
727.638	56.22
727.819	55.59
728.001	54.85
728.183	54.74
728.365	53.84
728.547	54.44
728.729	55.17
728.911	54.79
729.093	55.26
729.274	54.14
729.456	53.85
729.638	54
729.82	54.47
730.001	53.22
730.183	53.71
730.365	54.03
730.546	53.96
730.728	53.3
730.91	54.02
731.091	54.33
731.273	54.2
731.455	54.34
731.636	54.56
731.818	54.01
731.999	54.89
732.181	54.63
732.362	54.97
732.544	55.85
732.725	55.29
732.907	54.51
733.088	54.62
733.27	56.51
733.451	55.93
733.633	56.64
733.814	57.02
733.995	57.69
734.177	57.87
734.358	57.36
734.539	56.61
734.721	57.52
734.902	57.67
735.083	57.48
735.264	56.22
735.446	57.53
735.627	56.28
735.808	55.73
735.989	55.26
736.17	54.88
736.351	55.11
736.533	54.69
736.714	54.92
736.895	55.28
737.076	55.24
737.257	55.05
737.438	54.12
737.619	54.97
737.8	54.54
737.981	55.04
738.162	55.56
738.343	55.77
738.524	56.54
738.705	56.07
738.886	56.6
739.067	56.94
739.247	56.37
739.428	56.31
739.609	56.95
739.79	58.26
739.971	57.62
740.151	57.53
740.332	56.88
740.513	56.45
740.694	56.4
740.874	56
741.055	56.46
741.236	56.46
741.417	55.43
741.597	54.69
741.778	54.08
741.958	54.37
742.139	54.2
742.32	54.54
742.5	55.49
742.681	55.56
742.861	56.43
743.042	55.04
743.222	55.36
743.403	55.81
743.583	56.78
743.764	57.68
743.944	58.05
744.124	57.69
744.305	58.27
744.485	58.61
744.666	58.22
744.846	58.15
745.026	59.3
745.207	59.86
745.387	61.82
745.567	61.54
745.747	60.72
745.928	61.39
746.108	61.18
746.288	60.94
746.468	59.8
746.648	59.98
746.829	60.17
747.009	61.37
747.189	61.42
747.369	60.3
747.549	59.1
747.729	60.03
747.909	59.25
748.089	59.22
748.269	58.76
748.449	58.43
748.629	58.64
748.809	57.6
748.989	56.83
749.169	55.68
749.349	56.08
749.529	56.89
749.709	55.43
749.889	55.45
750.068	55.62
750.248	56.12
750.428	56.71
750.608	57.27
750.788	58.45
750.967	57.99
751.147	58.97
751.327	59.26
751.507	58.48
751.686	59.32
751.866	60.28
752.046	60.59
752.225	59.61
752.405	60.18
752.585	60.53
752.764	60.53
752.944	60.8
753.123	61.72
753.303	61.34
753.482	62.63
753.662	62.81
753.841	61.84
754.021	62.92
754.2	64.2
754.38	63.07
754.559	62.52
754.739	60.72
754.918	60.49
755.097	59.13
755.277	59.04
755.456	58.73
755.635	58.93
755.815	59.01
755.994	57.9
756.173	56.14
756.352	56.3
756.532	56.08
756.711	57.24
756.89	57.38
757.069	58.06
757.248	57.71
757.427	56.95
757.607	56.64
757.786	57.99
757.965	57.41
758.144	58.28
758.323	59.27
758.502	60.2
758.681	59.53
758.86	59.43
759.039	58.07
759.218	58.38
759.397	58.87
759.576	58.32
759.755	56.54
759.934	57.19
760.113	58.13
760.291	56.73
760.47	56.38
760.649	56.7
760.828	56.71
761.007	57.81
761.186	58.13
761.364	57.69
761.543	57.87
761.722	57.6
761.901	56.45
762.079	56.24
762.258	56.58
762.437	57.19
762.615	56.71
762.794	56.47
762.972	55.58
763.151	55.08
763.33	54.86
763.508	54.49
763.687	54.37
763.865	54.35
764.044	53.56
764.222	53.37
764.401	52.78
764.579	52.68
764.758	52.46
764.936	53.27
765.114	53.32
765.293	53.72
765.471	54.27
765.65	55.36
765.828	56.11
766.006	57.06
766.184	58.14
766.363	58.02
766.541	58.12
766.719	58.11
766.898	57.8
767.076	58
767.254	58.25
767.432	57.42
767.61	56.43
767.788	57.44
767.967	56.82
768.145	55.65
768.323	55.61
768.501	55.94
768.679	56.77
768.857	56.46
769.035	58.4
769.213	58.26
769.391	59.76
769.569	61.3
769.747	61.71
769.925	60.88
770.103	62.15
770.281	61.61
770.459	62.82
770.636	62.63
770.814	63.1
770.992	61.29
771.17	62.15
771.348	62.24
771.525	61.31
771.703	59.26
771.881	61.61
772.059	62.04
772.236	60.85
772.414	59.6
772.592	61.2
772.769	61.8
772.947	61.75
773.125	62.5
773.302	62.03
773.48	63.35
773.657	64.91
773.835	64.4
774.013	63.7
774.19	67.37
774.368	67.49
774.545	65.39
774.723	66.89
774.9	67.68
775.077	67.01
775.255	66.42
775.432	66.33
775.61	67.08
775.787	67.72
775.964	68.78
776.142	67.38
776.319	68.51
776.496	68.6
776.674	67.58
776.851	66.57
777.028	67.92
777.205	69.43
777.382	70.39
777.56	69.75
777.737	74.43
777.914	73.36
778.091	72.83
778.268	72.12
778.445	73.07
778.622	71.2
778.8	73.71
778.977	73.61
779.154	80.34
779.331	78.06
779.508	76
779.685	70.08
779.862	70.06
780.038	71.4
780.215	72.94
780.392	71.91
780.569	73.91
780.746	71.78
780.923	70.95
781.1	62.65
781.277	62.52
781.453	63.88
781.63	63.13
781.807	64.76
781.984	65.49
782.16	65.1
782.337	66.55
782.514	68.67
782.691	70.83
782.867	69.78
783.044	70.39
783.221	71.61
783.397	74.17
783.574	74.38
783.75	73.78
783.927	73.28
784.103	74.03
784.28	73.79
784.456	72.09
784.633	70.47
784.809	71.88
784.986	70.35
785.162	70.19
785.339	68.33
785.515	71.02
785.692	68.29
785.868	67.47
786.044	67.4
786.221	67.11
786.397	66.26
786.573	63.99
786.749	64.03
786.926	66.52
787.102	64.69
787.278	64.11
787.454	64.14
787.631	66.44
787.807	67.09
787.983	66.58
788.159	65.53
788.335	63.84
788.511	65.96
788.687	64.77
788.863	65.27
789.039	66.78
789.216	66.51
789.392	64.84
789.568	65.45
789.744	66.87
789.919	66.03
790.095	65.26
790.271	66.92
790.447	65.98
790.623	65.43
790.799	66.44
790.975	66.31
791.151	67.44
791.327	68.12
791.502	66.47
791.678	64.28
791.854	64.14
792.03	65.28
792.205	65.27
792.381	66.69
792.557	66.95
792.733	63.89
792.908	63.98
793.084	62.7
793.259	62.46
793.435	66.58
793.611	68.75
793.786	69.46
793.962	69.71
794.137	68.63
794.313	68.6
794.488	69.83
794.664	71.07
794.839	71.32
795.015	73.71
795.19	71.21
795.366	68.49
795.541	65.82
795.716	64.3
795.892	66.62
796.067	68.74
796.242	66.53
796.418	68.79
796.593	71.52
796.768	71.17
796.944	68.43
797.119	71.1
797.294	71.71
797.469	73.54
797.644	75.81
797.82	72.7
797.995	70.87
798.17	73.58
798.345	72.03
798.52	69.82
798.695	68.32
798.87	70.21
799.045	68.83
799.22	68.14
799.395	66.4
799.57	66.76
799.745	68.42
799.92	70.45
800.095	72.51
800.27	73.11
800.445	72.39
800.62	73.36
800.795	72.61
800.97	76
801.145	73.11
801.319	71.33
801.494	68
801.669	69.91
801.844	69.26
802.018	64.94
802.193	63.72
802.368	59.31
802.543	61.9
802.717	63.39
802.892	59.93
803.067	62.78
803.241	66.17
803.416	69.23
803.59	69.16
803.765	71.5
803.94	71.66
804.114	70.76
804.289	76.55
804.463	75.63
804.638	72.59
804.812	72.9
804.986	72.17
805.161	71.99
805.335	71.96
805.51	70.16
805.684	67.26
805.858	69.56
806.033	67.35
806.207	67.81
806.381	65.04
806.556	66.26
806.73	64.67
806.904	66.3
807.078	65.77
807.253	67.06
807.427	65.3
807.601	66.97
807.775	66.52
807.949	67.77
808.123	66.66
808.298	67.56
808.472	70.62
808.646	74.91
808.82	73.04
808.994	73.53
809.168	71.9
809.342	77.22
809.516	77.5
809.69	79.11
809.864	80.1
810.038	83.38
810.212	84.56
810.385	84.46
810.559	83.57
810.733	84.51
810.907	82.9
811.081	83.52
811.255	81.36
811.428	84.46
811.602	81.91
811.776	83.05
811.95	77.74
812.123	81.09
812.297	78.93
812.471	77.4
812.644	75.47
812.818	77.46
812.992	76.35
813.165	76.14
813.339	70.56
813.512	69.1
813.686	67.79
813.86	68.67
814.033	68.44
814.207	69.22
814.38	66.86
814.554	68.57
814.727	67.51
814.9	66.69
815.074	65.44
815.247	67.14
815.421	67.75
815.594	70.76
815.767	70.57
815.941	66.98
816.114	63.85
816.287	70.33
816.46	70.42
816.634	70.25
816.807	73.05
816.98	75.48
817.153	76.4
817.327	74.62
817.5	70.54
817.673	72.51
817.846	74.36
818.019	75.13
818.192	75.52
818.365	75.89
818.538	76.33
818.711	74.1
818.884	68.87
819.057	68.33
819.23	72.56
819.403	72.78
819.576	70.48
819.749	68.21
819.922	66.29
820.095	64.23
820.268	63.69
820.441	62.54
820.614	62.46
820.786	63.82
820.959	62.51
821.132	59.66
821.305	59.86
821.477	58.66
821.65	57.97
821.823	58.41
821.996	57.2
822.168	56.38
822.341	54.57
822.514	53.89
822.686	53.44
822.859	53.04
823.031	51.93
823.204	51.27
823.376	51.65
823.549	51.01
823.722	50.71
823.894	50.57
824.067	50.53
824.239	51
824.411	51.05
824.584	51.31
824.756	51.49
824.929	52.36
825.101	52.62
825.273	52.85
825.446	53.99
825.618	53.41
825.79	53.83
825.963	53.91
826.135	54.84
826.307	55.15
826.479	54.96
826.652	54.48
826.824	55.45
826.996	55.52
827.168	55.21
827.34	55.96
827.512	55.71
827.684	55.86
827.856	56.62
828.029	55.61
828.201	55.55
828.373	55.89
828.545	57.01
828.717	55.47
828.889	55.51
829.061	55.82
829.232	55.45
829.404	57.32
829.576	58.52
829.748	58.4
829.92	60.4
830.092	63.35
830.264	63.01
830.436	64.06
830.607	65.95
830.779	67.65
830.951	69.3
831.123	69.09
831.294	69.98
831.466	70.79
831.638	71.3
831.809	69.02
831.981	67.46
832.153	67.94
832.324	65.87
832.496	66.7
832.667	68.81
832.839	68.43
833.011	68.07
833.182	68.71
833.354	64.17
833.525	62.95
833.697	65.06
833.868	62.75
834.039	63.61
834.211	64.13
834.382	64.3
834.554	61.53
834.725	62.3
834.896	62.87
835.068	62.63
835.239	63.11
835.41	65.13
835.581	65.35
835.753	66.01
835.924	66.79
836.095	66.44
836.266	66.88
836.438	67.17
836.609	64.42
836.78	62.86
836.951	63.39
837.122	64.12
837.293	62.49
837.464	63.12
837.635	64.65
837.806	61.46
837.977	64.06
838.148	65.09
838.319	66.69
838.49	68.01
838.661	70.48
838.832	71.5
839.003	75.04
839.174	78.79
839.345	79.54
839.516	80.27
839.687	89.25
839.857	85.79
840.028	83.53
840.199	86.83
840.37	92.57
840.54	94.92
840.711	89.39
840.882	88.48
841.053	87.59
841.223	83.44
841.394	83.89
841.564	85.29
841.735	86.26
841.906	88.34
842.076	86.73
842.247	87.27
842.417	85.07
842.588	88.41
842.758	91.38
842.929	89.35
843.099	95.42
843.27	96.54
843.44	98.53
843.611	102.94
843.781	103.14
843.951	102.59
844.122	98.28
844.292	98.93
844.462	106.76
844.633	103.48
844.803	103.99
844.973	97.94
845.144	102.95
845.314	93.98
845.484	95.49
845.654	99.22
845.824	108.19
845.995	113.38
846.165	118.55
846.335	108.48
846.505	116.81
846.675	128.49
846.845	158.07
847.015	161.2
847.185	169.31
847.355	167.73
847.525	168.04
847.695	161.23
847.865	163.52
848.035	160.25
848.205	169.56
848.375	164.72
848.545	158.86
848.715	137.15
848.884	116.22
849.054	116.24
849.224	116.21
849.394	126.78
849.564	126.97
849.733	139.13
849.903	142.14
850.073	144.25
850.243	146.94
850.412	127.76
850.582	119.37
850.752	144.56
850.921	131.57
851.091	134.09
851.26	114.29
851.43	117.7
851.599	106.23
851.769	114.73
851.939	102.1
852.108	98.36
852.278	109.93
852.447	116.47
852.616	115.07
852.786	112.53
852.955	119.33
853.125	134.63
853.294	130.07
853.463	126.27
853.633	113.75
853.802	131.78
853.971	146.76
854.141	157.01
854.31	159.41
854.479	167.73
854.648	193.61
854.818	181.3
854.987	167.7
855.156	174.35
855.325	172.32
855.494	187.09
855.663	171.97
855.832	150.54
856.001	155.31
856.171	148.62
856.34	142.93
856.509	144.42
856.678	149.93
856.847	137.15
857.016	144.8
857.185	142.75
857.353	140.76
857.522	138.84
857.691	145.77
857.86	135.05
858.029	139.15
858.198	130.26
858.367	119.32
858.535	108.96
858.704	109.47
858.873	106.07
859.042	100.81
859.21	106.09
859.379	108.05
859.548	102.53
859.717	97.09
859.885	99.86
860.054	106.99
860.222	111.35
860.391	117.12
860.56	122.46
860.728	111.97
860.897	111.25
861.065	107.74
861.234	104.12
861.402	113.14
861.571	116.18
861.739	116.64
861.908	109.52
862.076	112.17
862.244	103.82
862.413	105.47
862.581	118.14
862.749	123.61
862.918	130.55
863.086	147.92
863.254	136.79
863.423	141.04
863.591	130.14
863.759	136.74
863.927	144.78
864.096	147.08
864.264	159.06
864.432	152.38
864.6	150.76
864.768	141.9
864.936	144.55
865.104	133.59
865.272	151.16
865.44	158.79
865.608	160.21
865.776	134.16
865.944	146.36
866.112	138.6
866.28	151.84
866.448	151.46
866.616	152.95
866.784	152.79
866.952	168.79
867.12	142.36
867.288	136.18
867.455	141.42
867.623	138.28
867.791	128.57
867.959	124.54
868.127	115.25
868.294	120.63
868.462	116.47
868.63	104.46
868.797	101.03
868.965	101.62
869.133	109.92
869.3	104.27
869.468	107.9
869.636	100.03
869.803	98.79
869.971	106.03
870.138	112.33
870.306	107.91
870.473	110.71
870.641	107.44
870.808	114.85
870.975	108.15
871.143	111.61
871.31	110.43
871.478	129.7
871.645	135.97
871.812	122.72
871.98	110.02
872.147	111.96
872.314	113.44
872.482	132.1
872.649	122.75
872.816	120.05
872.983	123.82
873.15	139.08
873.318	140.41
873.485	140.36
873.652	142.59
873.819	150.54
873.986	149.91
874.153	141.58
874.32	130.65
874.487	131.63
874.654	122.65
874.821	121.45
874.988	115.41
875.155	109.74
875.322	105.95
875.489	112.94
875.656	111.33
875.823	126.87
875.99	135.62
876.157	142.6
876.324	139.28
876.49	150.55
876.657	146.23
876.824	164.72
876.991	182.5
877.157	189.49
877.324	178.82
877.491	179.43
877.658	155.28
877.824	170.34
877.991	158.15
878.157	168.74
878.324	159.05
878.491	166.47
878.657	161.12
878.824	147.16
878.99	134.35
879.157	134.53
879.323	123.5
879.49	119.92
879.656	110.89
879.823	118.81
879.989	111.21
880.156	117.96
880.322	107.63
880.488	105
880.655	107.12
880.821	117.6
880.987	114.78
881.154	115.06
881.32	115.6
881.486	109.29
881.652	98.16
881.819	95.16
881.985	92.05
882.151	93.23
882.317	85.71
882.483	79.79
882.649	72.88
882.816	73.44
882.982	70.85
883.148	67.22
883.314	65.64
883.48	66.24
883.646	63.53
883.812	61.78
883.978	61.2
884.144	61.09
884.31	61.48
884.476	62.12
884.642	60.06
884.807	61.75
884.973	61.22
885.139	62.94
885.305	64.44
885.471	67.86
885.637	65.65
885.802	65.52
885.968	66.19
886.134	68.32
886.3	68.76
886.465	71.15
886.631	70.32
886.797	73.64
886.962	73.75
887.128	73.55
887.293	75.4
887.459	77.85
887.625	77.78
887.79	83.31
887.956	80.88
888.121	82.83
888.287	81.37
888.452	79.87
888.618	81.09
888.783	80.85
