Data from LC_243_Reflection_2.txt Node
Date: Thu Nov 19 22:36:01 EST 2015
User: robert
Spectrometer: USB4E03001
Autoset integration time: false
Trigger mode: 4
Integration Time (sec): 1.000000E-1
Scans to average: 15
Electric dark correction enabled: true
Nonlinearity correction enabled: false
Boxcar width: 5
Stray light correction enabled: false
XAxis mode: Wavelengths
Stop averaging: false
Number of Pixels in Spectrum: 3648
>>>>>Begin Spectral Data<<<<<
177.566	-114.29
177.785	-38.02
178.005	3.38
178.225	8.49
178.445	16.68
178.665	7.25
178.885	28.16
179.105	105.36
179.324	-256.96
179.544	-237.62
179.764	-72.79
179.984	7.23
180.204	-40.14
180.423	-94.31
180.643	-69.6
180.863	-42.35
181.083	-101.66
181.302	-47.52
181.522	-20.16
181.742	26.72
181.961	43.29
182.181	73.01
182.401	134.85
182.621	139.52
182.84	287.95
183.06	90.08
183.279	106.05
183.499	97.11
183.719	145.45
183.938	49.16
184.158	132.22
184.377	72.99
184.597	34.1
184.816	3222.64
185.036	289.6
185.256	-3371.11
185.475	1
185.695	28.18
185.914	45.53
186.134	156.14
186.353	190.83
186.572	126.9
186.792	198.2
187.011	-2126.1
187.231	-436.8
187.45	-1040.56
187.67	-56
187.889	-23.02
188.108	19.61
188.328	38.09
188.547	52.45
188.766	215.96
188.986	52.3
189.205	-570.59
189.424	-70.25
189.644	-27.76
189.863	-4.57
190.082	23.17
190.302	-5.66
190.521	21.71
190.74	45.21
190.959	24.6
191.178	41.62
191.398	5.34
191.617	21.25
191.836	-45.19
192.055	41.22
192.274	116.18
192.494	122.49
192.713	103.13
192.932	82.01
193.151	83.54
193.37	94.65
193.589	94.23
193.808	98.16
194.027	89.57
194.246	91.96
194.465	104.96
194.685	98.51
194.904	80.87
195.123	80.31
195.342	68.5
195.561	54.35
195.78	58.5
195.999	58.62
196.218	60.13
196.436	76.48
196.655	59.78
196.874	57.88
197.093	36.79
197.312	30.19
197.531	34.51
197.75	91.11
197.969	81.18
198.188	-50.2
198.407	-69.55
198.625	-51.61
198.844	73.39
199.063	-24.86
199.282	31.99
199.501	-30.6
199.719	-112.96
199.938	-15.13
200.157	-119.55
200.376	-85.8
200.594	322.02
200.813	-300.66
201.032	87.48
201.251	-79.48
201.469	-74.03
201.688	74.48
201.907	129.02
202.125	286.35
202.344	133.25
202.563	165.52
202.781	159.64
203	128.24
203.218	118.86
203.437	94.13
203.656	155.67
203.874	174.44
204.093	86.17
204.311	-17.63
204.53	18.05
204.748	-38.87
204.967	-18.45
205.185	-33.04
205.404	-84.21
205.622	-154.39
205.841	-51.54
206.059	-145.25
206.278	-214.37
206.496	-178.06
206.715	-189.13
206.933	-300.11
207.151	-97.34
207.37	-220.15
207.588	-293.08
207.806	-158.68
208.025	-128.04
208.243	-484.85
208.461	-589.32
208.68	-426.36
208.898	-254.82
209.116	-154.25
209.335	-227.72
209.553	-1016.97
209.771	4585.71
209.989	-605.61
210.208	612.28
210.426	1047.03
210.644	-125.65
210.862	-79.02
211.081	-8.12
211.299	11.71
211.517	29.02
211.735	39.58
211.953	36
212.171	29.64
212.39	42.68
212.608	62.31
212.826	82.65
213.044	75.69
213.262	67.9
213.48	62.02
213.698	48.51
213.916	44.44
214.134	55.09
214.352	54.56
214.57	138.05
214.788	505.56
215.006	373.07
215.224	283
215.442	658.22
215.66	263.75
215.878	434.06
216.096	473.18
216.314	547.64
216.532	769.69
216.75	1994.13
216.968	-275.5
217.185	-406.87
217.403	-309.63
217.621	-585.94
217.839	73.42
218.057	92.77
218.275	80.71
218.492	48.82
218.71	19.47
218.928	-12.37
219.146	-45.97
219.363	-5.78
219.581	0.61
219.799	19.48
220.017	28.77
220.234	39.66
220.452	51.66
220.67	67.39
220.887	78.28
221.105	94.94
221.323	79.97
221.54	71.82
221.758	78.87
221.976	64.8
222.193	51.52
222.411	46.5
222.629	39.77
222.846	20.85
223.064	25.27
223.281	26.24
223.499	-1.16
223.716	18.15
223.934	3.64
224.151	10.6
224.369	18.49
224.586	14.46
224.804	15.25
225.021	14.3
225.239	26.39
225.456	8.32
225.674	6.23
225.891	28.21
226.108	20.23
226.326	20.33
226.543	8.79
226.76	6.24
226.978	25.38
227.195	28.87
227.413	12.27
227.63	3.54
227.847	6.7
228.064	14.14
228.282	11.68
228.499	13.5
228.716	13.97
228.934	11.6
229.151	12.3
229.368	9.76
229.585	8.78
229.802	10.33
230.02	10.36
230.237	9.36
230.454	7.08
230.671	5.61
230.888	5.11
231.105	2.11
231.323	4.7
231.54	-1.34
231.757	-2.79
231.974	-1.88
232.191	2.65
232.408	4.53
232.625	5.98
232.842	8.95
233.059	12.26
233.276	14.37
233.493	21.03
233.71	21.87
233.927	26.1
234.144	28.27
234.361	22.49
234.578	18.59
234.795	15.3
235.012	17.16
235.229	9.47
235.446	12.06
235.663	4.57
235.879	3.31
236.096	-2.26
236.313	-4.81
236.53	-9.41
236.747	-2.65
236.964	0.42
237.181	2.72
237.397	3.65
237.614	5.72
237.831	4.72
238.048	12.46
238.264	12.52
238.481	15.07
238.698	16.17
238.915	27.46
239.131	18.49
239.348	15.88
239.565	18.44
239.781	18
239.998	18.47
240.215	16.9
240.431	13.67
240.648	13.88
240.865	14.72
241.081	16.58
241.298	15.31
241.514	17.39
241.731	17.58
241.947	15.42
242.164	13.74
242.38	13.98
242.597	12.26
242.814	13.66
243.03	13.52
243.246	13.38
243.463	11.87
243.679	10.68
243.896	10.16
244.112	10.56
244.329	10.02
244.545	11.66
244.762	11.99
244.978	13.12
245.194	11.85
245.411	11.4
245.627	12.69
245.843	12.13
246.06	13.63
246.276	12.71
246.492	12.3
246.709	13.27
246.925	12.68
247.141	12.45
247.357	12.57
247.574	12.73
247.79	12.65
248.006	12.36
248.222	12.51
248.439	11.5
248.655	12.02
248.871	12.13
249.087	11.81
249.303	10.91
249.519	10.25
249.736	10.02
249.952	9.47
250.168	8.71
250.384	5.77
250.6	6.66
250.816	6.97
251.032	6.05
251.248	6.48
251.464	6.87
251.68	7.04
251.896	6.91
252.112	7.48
252.328	7.38
252.544	6.67
252.76	8.33
252.976	8.45
253.192	7.62
253.408	8.52
253.624	8.66
253.84	7.71
254.056	9.49
254.272	9.79
254.487	8.23
254.703	10.1
254.919	11.84
255.135	14.6
255.351	13.63
255.567	16.16
255.782	14.06
255.998	12.95
256.214	13.33
256.43	10.48
256.646	12.32
256.861	14.5
257.077	13.58
257.293	12.13
257.508	12.14
257.724	13.25
257.94	11.67
258.155	13.78
258.371	13.01
258.587	12.11
258.802	12.7
259.018	12.59
259.234	11.66
259.449	11.47
259.665	11.11
259.88	9.95
260.096	9.47
260.312	9.17
260.527	8.74
260.743	8.66
260.958	8.72
261.174	8.41
261.389	8.31
261.605	8.58
261.82	7.73
262.036	7.71
262.251	8.28
262.466	8.91
262.682	8.9
262.897	9.1
263.113	8.38
263.328	9.72
263.543	10.43
263.759	8.47
263.974	7.68
264.189	9.66
264.405	9.26
264.62	8.57
264.835	7.73
265.051	7.58
265.266	8.26
265.481	9.87
265.696	8.41
265.912	8.54
266.127	12.18
266.342	11.38
266.557	10.84
266.773	11.63
266.988	11.21
267.203	11.83
267.418	12.02
267.633	10.11
267.848	9.64
268.064	10.51
268.279	9.81
268.494	7.17
268.709	7.21
268.924	6.53
269.139	6.44
269.354	6.54
269.569	4.78
269.784	5.49
269.999	5.29
270.214	5.68
270.429	5.2
270.644	5.83
270.859	6.51
271.074	6.26
271.289	7.18
271.504	6.62
271.719	7.86
271.934	8.03
272.149	7.43
272.363	8.51
272.578	9.29
272.793	8.92
273.008	8.35
273.223	8.53
273.438	9.35
273.653	8.06
273.867	8.99
274.082	7.33
274.297	7.19
274.512	7.29
274.726	6.38
274.941	5.05
275.156	3.59
275.371	4.24
275.585	4.34
275.8	3.78
276.015	5.16
276.229	5.3
276.444	6.86
276.659	5.89
276.873	6.67
277.088	7.72
277.302	7.79
277.517	9.5
277.732	9.47
277.946	8.92
278.161	8.64
278.375	8.69
278.59	8.27
278.804	7.67
279.019	9.21
279.233	9.23
279.448	10.09
279.662	9.97
279.877	9.55
280.091	8.73
280.306	7.98
280.52	9.17
280.735	8.65
280.949	8.59
281.163	7.96
281.378	8.41
281.592	8.66
281.806	8.19
282.021	8.51
282.235	8.54
282.449	8.94
282.664	9.9
282.878	9.7
283.092	9.48
283.307	10.39
283.521	11.08
283.735	10.14
283.949	10.02
284.164	9.34
284.378	9.09
284.592	9.04
284.806	9.22
285.02	9.38
285.234	9.4
285.449	9.51
285.663	8.79
285.877	9.06
286.091	9.65
286.305	9.12
286.519	9.66
286.733	9.13
286.947	9.76
287.161	9.62
287.375	9.56
287.589	8.35
287.803	8.24
288.017	8.81
288.231	9.18
288.445	9.05
288.659	9
288.873	8.64
289.087	8.09
289.301	7.61
289.515	7.72
289.729	7.61
289.943	8.94
290.157	10.17
290.371	9.3
290.584	8.38
290.798	7.94
291.012	8.11
291.226	7.65
291.44	9.55
291.654	9.04
291.867	9.08
292.081	8.63
292.295	8.76
292.509	8.41
292.722	8.6
292.936	8.42
293.15	8.88
293.364	10.02
293.577	10.08
293.791	8.91
294.005	10.36
294.218	9.71
294.432	9.76
294.645	10.26
294.859	8.89
295.073	8.64
295.286	9.62
295.5	9.63
295.713	9.36
295.927	10.08
296.14	9.98
296.354	9.31
296.568	9.89
296.781	9.93
296.994	9.82
297.208	9.69
297.421	10.33
297.635	10.48
297.848	10.36
298.062	10.17
298.275	10.19
298.489	10.87
298.702	10.62
298.915	10.65
299.129	10.74
299.342	10.09
299.555	10.5
299.769	9.94
299.982	9.52
300.195	9.24
300.409	8.78
300.622	8.1
300.835	8.15
301.048	9.23
301.262	9.44
301.475	9.17
301.688	8.21
301.901	8.95
302.115	9.18
302.328	9.05
302.541	8.27
302.754	7.99
302.967	9.23
303.18	8.63
303.393	7.8
303.607	8.12
303.82	8.08
304.033	8.97
304.246	8.85
304.459	8.73
304.672	9.21
304.885	10.96
305.098	11.08
305.311	10.6
305.524	10.42
305.737	10.36
305.95	9.97
306.163	9.88
306.376	10.63
306.589	10.61
306.802	10.12
307.015	10.09
307.228	9.61
307.44	9.7
307.653	9.67
307.866	9.75
308.079	10.02
308.292	9.78
308.505	10.12
308.718	9.4
308.93	8.64
309.143	9.08
309.356	8.46
309.569	8.43
309.781	8.08
309.994	6.82
310.207	6.75
310.42	7.6
310.632	7
310.845	6.88
311.058	7.28
311.27	7.55
311.483	7.15
311.696	7.32
311.908	8.32
312.121	8.38
312.333	9.02
312.546	8.95
312.759	7.95
312.971	8.74
313.184	8.79
313.396	8.73
313.609	8.45
313.821	9.18
314.034	9.37
314.246	7.97
314.459	9.04
314.671	10.29
314.884	10.93
315.096	11.71
315.309	12.27
315.521	12.21
315.733	11.5
315.946	12.41
316.158	12.13
316.371	11.42
316.583	11.63
316.795	10.31
317.008	8.59
317.22	7.84
317.432	6.96
317.644	6.43
317.857	5.64
318.069	5.94
318.281	5.31
318.494	6.45
318.706	6
318.918	5.24
319.13	5.81
319.342	5.68
319.555	5.61
319.767	5.56
319.979	4.77
320.191	5.52
320.403	6.48
320.615	6.66
320.827	5.09
321.039	4.89
321.252	5.11
321.464	5.99
321.676	5.92
321.888	5.84
322.1	6.39
322.312	6.61
322.524	7.25
322.736	5.97
322.948	6.28
323.16	7.14
323.372	7.76
323.584	8.53
323.796	6.81
324.007	7.43
324.219	7.73
324.431	7.53
324.643	7.08
324.855	7.37
325.067	7.95
325.279	7.41
325.491	7.56
325.702	7.71
325.914	6.24
326.126	8.15
326.338	8.53
326.55	8.03
326.761	8.2
326.973	8.88
327.185	7.97
327.396	8.82
327.608	9.18
327.82	9.07
328.032	8.6
328.243	9.36
328.455	8.76
328.666	8.39
328.878	9.56
329.09	9.72
329.301	9.53
329.513	9.95
329.725	8.5
329.936	8.26
330.148	8.48
330.359	9.82
330.571	10.33
330.782	10.79
330.994	11.76
331.205	11.46
331.417	10.8
331.628	10.79
331.84	11.2
332.051	12.25
332.262	12.78
332.474	13.04
332.685	13.01
332.897	12.98
333.108	11.73
333.319	11.16
333.531	10.72
333.742	11.06
333.953	10.84
334.165	11.3
334.376	10.75
334.587	11.31
334.799	10.53
335.01	8.78
335.221	8.57
335.432	9.99
335.644	9.8
335.855	10.06
336.066	10.14
336.277	9.78
336.488	8.89
336.7	7.93
336.911	6.61
337.122	6.68
337.333	8.11
337.544	7.98
337.755	6.66
337.966	5.8
338.177	5.73
338.388	6.03
338.599	6.24
338.811	6.13
339.022	6.34
339.233	6.3
339.444	6.71
339.655	6.7
339.866	6.88
340.076	7.42
340.287	8.63
340.498	8.45
340.709	8.26
340.92	8.22
341.131	8.18
341.342	8.2
341.553	9.02
341.764	8.3
341.975	7.53
342.185	7.9
342.396	7.61
342.607	7.61
342.818	7.23
343.029	7.67
343.239	7.66
343.45	7.76
343.661	7.98
343.872	7.52
344.082	7.85
344.293	9.27
344.504	9.09
344.714	8.87
344.925	8.83
345.136	9.24
345.346	6.94
345.557	7.29
345.768	7.17
345.978	6.99
346.189	6.78
346.399	7.04
346.61	5.86
346.821	5.72
347.031	6.19
347.242	5.95
347.452	6.04
347.663	7.5
347.873	8.4
348.084	9.16
348.294	9.37
348.504	9.9
348.715	9.95
348.925	10.69
349.136	10.46
349.346	10.11
349.557	10.22
349.767	10.45
349.977	10.59
350.188	9.22
350.398	8.52
350.608	8.88
350.819	8.54
351.029	7.67
351.239	6.89
351.449	7.13
351.66	6.83
351.87	6.61
352.08	6.33
352.29	6.48
352.501	6.69
352.711	7.23
352.921	6.9
353.131	6.09
353.341	5.92
353.552	6.27
353.762	6.18
353.972	6.9
354.182	7.05
354.392	6.72
354.602	6.61
354.812	6.77
355.022	6.33
355.232	6.91
355.442	8
355.652	8.05
355.862	7.65
356.072	7.79
356.282	8.31
356.492	8.38
356.702	7.8
356.912	7.78
357.122	8
357.332	8.08
357.542	7.56
357.752	7.37
357.962	7.77
358.171	8.64
358.381	8.43
358.591	8.01
358.801	7.77
359.011	8.78
359.221	8.61
359.43	8.05
359.64	7.81
359.85	8.25
360.06	8.5
360.269	8.69
360.479	8.13
360.689	7.95
360.899	7.42
361.108	7.87
361.318	7.49
361.528	7.52
361.737	7.82
361.947	7.93
362.156	7.77
362.366	7.65
362.576	7.55
362.785	7.4
362.995	7.43
363.204	7.63
363.414	6.9
363.623	6.81
363.833	7.44
364.042	7.42
364.252	7.73
364.461	7.41
364.671	6.99
364.88	7.09
365.09	7.24
365.299	7.67
365.509	8.2
365.718	8.5
365.927	8.8
366.137	8.37
366.346	8.62
366.555	8.23
366.765	8.4
366.974	8.59
367.183	8.33
367.393	8.34
367.602	8.64
367.811	8.24
368.021	8.8
368.23	7.95
368.439	7.47
368.648	7.23
368.857	7.69
369.067	7.48
369.276	8.12
369.485	7.74
369.694	7.47
369.903	6.51
370.112	6.46
370.321	5.73
370.531	6.83
370.74	6.88
370.949	7.03
371.158	6.78
371.367	6.78
371.576	6.06
371.785	6.74
371.994	6.54
372.203	6.7
372.412	6.87
372.621	6.93
372.83	6.5
373.039	6.59
373.248	6.57
373.457	6.5
373.666	6.74
373.874	6.8
374.083	6.24
374.292	6.57
374.501	6.49
374.71	6.37
374.919	6.48
375.128	7
375.336	7.02
375.545	6.89
375.754	6.71
375.963	6.65
376.171	6.76
376.38	6.96
376.589	6.45
376.798	6.52
377.006	6.68
377.215	6.59
377.424	6.03
377.632	5.93
377.841	5.74
378.05	6.08
378.258	6.01
378.467	5.84
378.675	5.67
378.884	6.57
379.093	6.91
379.301	6.99
379.51	7.03
379.718	7.15
379.927	7.07
380.135	7.52
380.344	7.02
380.552	7.37
380.761	7.35
380.969	7.74
381.177	7.34
381.386	7.52
381.594	7.64
381.803	7.57
382.011	7.54
382.219	7.77
382.428	7.49
382.636	7.56
382.845	7.18
383.053	6.99
383.261	6.62
383.469	6.86
383.678	6.43
383.886	6.18
384.094	6.34
384.302	6.43
384.511	6.14
384.719	6.02
384.927	5.93
385.135	6.23
385.343	6.59
385.552	6.48
385.76	6.18
385.968	6.02
386.176	5.61
386.384	5.18
386.592	5.35
386.8	5.21
387.008	5.15
387.216	5.16
387.424	5.01
387.633	5.12
387.841	5.14
388.049	4.95
388.257	5.15
388.465	5.21
388.672	5.62
388.88	5.22
389.088	5.41
389.296	5.73
389.504	5.63
389.712	5.49
389.92	5.52
390.128	5.66
390.336	5.76
390.544	5.68
390.751	5.73
390.959	5.47
391.167	5.61
391.375	5.44
391.583	4.82
391.79	4.94
391.998	4.95
392.206	4.8
392.414	4.82
392.621	4.75
392.829	4.65
393.037	4.8
393.244	5.04
393.452	4.86
393.66	4.89
393.867	5.29
394.075	5.44
394.283	5.37
394.49	5.18
394.698	5
394.905	5.07
395.113	5.2
395.32	5.22
395.528	5.42
395.735	5.78
395.943	5.99
396.15	5.61
396.358	5.43
396.565	5.55
396.773	5.4
396.98	5.41
397.188	5.56
397.395	5.43
397.602	5.21
397.81	4.82
398.017	4.51
398.225	4.35
398.432	4.38
398.639	4.42
398.847	4.41
399.054	4.68
399.261	4.98
399.468	4.95
399.676	5.07
399.883	5.04
400.09	5.02
400.297	5.43
400.505	5.71
400.712	6.28
400.919	6.46
401.126	6.7
401.333	6.8
401.54	6.59
401.748	6.79
401.955	6.86
402.162	7.09
402.369	7.28
402.576	7.19
402.783	6.98
402.99	6.8
403.197	6.65
403.404	6.48
403.611	6.33
403.818	6.4
404.025	6.26
404.232	5.88
404.439	5.92
404.646	5.77
404.853	5.58
405.06	5.52
405.267	5.56
405.474	5.6
405.681	5.41
405.887	5.57
406.094	5.3
406.301	5.2
406.508	5.43
406.715	5.22
406.922	5.11
407.128	4.98
407.335	5.05
407.542	5.09
407.749	5.12
407.955	5.46
408.162	5.44
408.369	5.72
408.575	6.11
408.782	6.01
408.989	6.06
409.195	6.14
409.402	6.44
409.609	6.25
409.815	5.77
410.022	5.68
410.228	5.73
410.435	5.5
410.642	5.47
410.848	4.99
411.055	5.15
411.261	5.37
411.468	5.32
411.674	5.15
411.881	5.4
412.087	5.5
412.294	5.69
412.5	5.32
412.706	5.33
412.913	5.53
413.119	5.9
413.326	5.79
413.532	5.7
413.738	5.8
413.945	5.84
414.151	6.18
414.357	6.38
414.564	6.13
414.77	6.25
414.976	6.43
415.182	6.33
415.389	6.21
415.595	6.15
415.801	6.03
416.007	5.93
416.214	5.85
416.42	5.69
416.626	5.71
416.832	5.94
417.038	5.9
417.244	5.87
417.45	5.91
417.657	5.85
417.863	6.07
418.069	6.3
418.275	6.62
418.481	6.72
418.687	6.59
418.893	6.65
419.099	6.5
419.305	6.54
419.511	6.54
419.717	6.38
419.923	6.32
420.129	6.24
420.335	6.12
420.541	6.05
420.746	5.97
420.952	5.96
421.158	5.86
421.364	5.91
421.57	5.9
421.776	5.82
421.982	5.9
422.187	5.94
422.393	5.77
422.599	5.66
422.805	5.45
423.01	5.39
423.216	5.28
423.422	5.28
423.628	5.14
423.833	5.05
424.039	5.09
424.245	4.99
424.45	5.08
424.656	5.19
424.862	5.34
425.067	5.32
425.273	5.38
425.478	5.5
425.684	5.63
425.889	5.77
426.095	5.83
426.301	5.8
426.506	5.91
426.712	5.75
426.917	5.84
427.123	5.85
427.328	5.89
427.533	6.01
427.739	6.12
427.944	5.91
428.15	5.87
428.355	5.82
428.561	5.89
428.766	5.97
428.971	6.04
429.177	6.06
429.382	5.93
429.587	5.97
429.793	5.88
429.998	5.61
430.203	5.61
430.408	5.66
430.614	5.68
430.819	5.53
431.024	5.46
431.229	5.38
431.434	5.16
431.64	5.09
431.845	5.33
432.05	5.4
432.255	5.5
432.46	5.54
432.665	5.56
432.87	5.58
433.076	5.6
433.281	5.54
433.486	5.62
433.691	5.8
433.896	5.83
434.101	5.65
434.306	5.56
434.511	5.51
434.716	5.49
434.921	5.51
435.126	5.67
435.331	5.83
435.535	5.87
435.74	5.75
435.945	5.72
436.15	5.67
436.355	5.95
436.56	5.87
436.765	6
436.97	6.03
437.174	5.85
437.379	5.73
437.584	5.69
437.789	5.69
437.993	5.78
438.198	5.69
438.403	5.6
438.608	5.44
438.812	5.5
439.017	5.55
439.222	5.7
439.426	5.71
439.631	5.65
439.836	5.69
440.04	5.69
440.245	5.67
440.45	5.75
440.654	5.93
440.859	5.87
441.063	5.92
441.268	5.82
441.472	5.67
441.677	5.63
441.881	5.68
442.086	5.45
442.29	5.42
442.495	5.38
442.699	5.42
442.904	5.44
443.108	5.51
443.312	5.4
443.517	5.31
443.721	5.39
443.925	5.52
444.13	5.51
444.334	5.68
444.538	5.73
444.743	5.82
444.947	5.76
445.151	5.63
445.356	5.63
445.56	5.69
445.764	5.8
445.968	5.78
446.173	5.73
446.377	5.69
446.581	5.64
446.785	5.75
446.989	5.68
447.193	5.54
447.398	5.53
447.602	5.47
447.806	5.42
448.01	5.43
448.214	5.38
448.418	5.34
448.622	5.34
448.826	5.4
449.03	5.27
449.234	5.21
449.438	5.37
449.642	5.28
449.846	5.27
450.05	5.29
450.254	5.33
450.458	5.31
450.662	5.27
450.866	5.23
451.069	5.19
451.273	5.16
451.477	5.21
451.681	5.24
451.885	5.4
452.089	5.5
452.292	5.49
452.496	5.35
452.7	5.36
452.904	5.37
453.107	5.54
453.311	5.76
453.515	5.82
453.719	5.91
453.922	5.83
454.126	5.66
454.33	5.55
454.533	5.55
454.737	5.48
454.94	5.61
455.144	5.68
455.348	5.57
455.551	5.46
455.755	5.22
455.958	5.28
456.162	5.19
456.365	5.35
456.569	5.41
456.772	5.33
456.976	5.57
457.179	5.59
457.383	5.67
457.586	5.69
457.79	5.68
457.993	5.75
458.196	5.58
458.4	5.67
458.603	5.66
458.807	5.74
459.01	5.77
459.213	5.75
459.417	5.68
459.62	5.63
459.823	5.58
460.026	5.46
460.23	5.53
460.433	5.55
460.636	5.49
460.839	5.56
461.042	5.52
461.246	5.6
461.449	5.47
461.652	5.39
461.855	5.4
462.058	5.38
462.261	5.53
462.464	5.48
462.668	5.62
462.871	5.75
463.074	5.65
463.277	5.54
463.48	5.5
463.683	5.66
463.886	5.87
464.089	5.77
464.292	5.88
464.495	5.86
464.698	5.85
464.901	5.66
465.104	5.72
465.306	5.73
465.509	5.82
465.712	5.77
465.915	5.77
466.118	5.6
466.321	5.7
466.524	5.66
466.726	5.63
466.929	5.75
467.132	5.88
467.335	5.71
467.538	5.57
467.74	5.46
467.943	5.4
468.146	5.38
468.348	5.53
468.551	5.48
468.754	5.52
468.956	5.49
469.159	5.34
469.362	5.21
469.564	5.25
469.767	5.48
469.969	5.53
470.172	5.67
470.375	5.49
470.577	5.43
470.78	5.49
470.982	5.55
471.185	5.6
471.387	5.38
471.59	5.52
471.792	5.66
471.995	5.54
472.197	5.56
472.399	5.56
472.602	5.71
472.804	5.47
473.007	5.43
473.209	5.22
473.411	5.15
473.614	5.32
473.816	5.43
474.018	5.35
474.22	5.38
474.423	5.32
474.625	5.19
474.827	5.07
475.03	5.18
475.232	5.28
475.434	5.45
475.636	5.33
475.838	5.55
476.04	5.4
476.243	5.28
476.445	5.22
476.647	5.28
476.849	5.29
477.051	5.41
477.253	5.56
477.455	5.46
477.657	5.5
477.859	5.71
478.061	5.55
478.263	5.56
478.465	5.51
478.667	5.51
478.869	5.58
479.071	5.53
479.273	5.39
479.475	5.14
479.677	5.17
479.879	5.09
480.081	4.97
480.283	5.01
480.485	4.93
480.686	5.02
480.888	5.03
481.09	4.94
481.292	5.05
481.494	5.09
481.695	5.25
481.897	5.3
482.099	5.18
482.301	5.18
482.502	5.21
482.704	5.24
482.906	5.34
483.107	5.42
483.309	5.45
483.511	5.42
483.712	5.39
483.914	5.4
484.115	5.36
484.317	5.43
484.519	5.43
484.72	5.47
484.922	5.47
485.123	5.43
485.325	5.38
485.526	5.36
485.728	5.39
485.929	5.45
486.131	5.37
486.332	5.4
486.534	5.41
486.735	5.42
486.936	5.38
487.138	5.41
487.339	5.39
487.541	5.44
487.742	5.43
487.943	5.41
488.144	5.35
488.346	5.42
488.547	5.46
488.748	5.44
488.95	5.48
489.151	5.46
489.352	5.4
489.553	5.5
489.755	5.45
489.956	5.48
490.157	5.48
490.358	5.51
490.559	5.55
490.76	5.51
490.961	5.63
491.163	5.55
491.364	5.6
491.565	5.63
491.766	5.58
491.967	5.6
492.168	5.59
492.369	5.61
492.57	5.63
492.771	5.6
492.972	5.61
493.173	5.57
493.374	5.63
493.575	5.52
493.776	5.49
493.976	5.39
494.177	5.34
494.378	5.38
494.579	5.32
494.78	5.29
494.981	5.34
495.182	5.28
495.382	5.23
495.583	5.16
495.784	5.23
495.985	5.46
496.185	5.47
496.386	5.54
496.587	5.55
496.788	5.57
496.988	5.68
497.189	5.59
497.39	5.76
497.59	5.82
497.791	5.94
497.992	5.93
498.192	5.74
498.393	5.9
498.593	5.96
498.794	5.99
498.994	5.99
499.195	6.03
499.395	6.01
499.596	5.98
499.796	5.84
499.997	5.82
500.197	5.92
500.398	6.05
500.598	5.95
500.799	5.87
500.999	5.77
501.199	5.82
501.4	5.7
501.6	5.7
501.801	5.54
502.001	5.59
502.201	5.57
502.402	5.6
502.602	5.62
502.802	5.72
503.002	5.81
503.203	5.89
503.403	5.87
503.603	6
503.803	6.17
504.003	6.34
504.204	6.45
504.404	6.56
504.604	6.46
504.804	6.6
505.004	6.62
505.204	6.61
505.404	6.67
505.604	6.73
505.804	6.71
506.005	6.58
506.205	6.57
506.405	6.59
506.605	6.67
506.805	6.76
507.005	6.57
507.204	6.71
507.404	6.75
507.604	6.8
507.804	6.92
508.004	7.11
508.204	7.23
508.404	7.12
508.604	7.24
508.804	7.2
509.003	7.26
509.203	7.31
509.403	7.26
509.603	7.23
509.803	7.28
510.002	7.2
510.202	7
510.402	7.1
510.602	7.21
510.801	7.17
511.001	7.15
511.201	7.14
511.4	7.18
511.6	7.33
511.8	7.36
511.999	7.33
512.199	7.53
512.398	7.57
512.598	7.61
512.797	7.76
512.997	7.82
513.197	7.82
513.396	7.89
513.596	7.84
513.795	7.64
513.994	7.69
514.194	7.86
514.393	7.69
514.593	7.76
514.792	7.7
514.992	7.51
515.191	7.63
515.39	7.7
515.59	7.83
515.789	8.04
515.988	8.21
516.188	8.3
516.387	8.22
516.586	8.43
516.786	8.5
516.985	8.55
517.184	8.67
517.383	8.6
517.582	8.7
517.782	8.75
517.981	8.68
518.18	8.65
518.379	8.7
518.578	8.74
518.777	8.76
518.976	8.77
519.176	8.91
519.375	8.94
519.574	8.99
519.773	9
519.972	9.03
520.171	9.17
520.37	9.24
520.569	9.36
520.768	9.47
520.967	9.54
521.166	9.63
521.365	9.67
521.564	9.68
521.762	9.65
521.961	9.79
522.16	9.77
522.359	9.76
522.558	9.91
522.757	9.83
522.956	9.89
523.154	9.84
523.353	9.91
523.552	9.85
523.751	9.94
523.949	10.08
524.148	9.95
524.347	10.06
524.546	10.2
524.744	10.27
524.943	10.46
525.142	10.48
525.34	10.55
525.539	10.6
525.737	10.63
525.936	10.73
526.135	10.83
526.333	10.94
526.532	10.98
526.73	11.02
526.929	11.03
527.127	11.02
527.326	11.06
527.524	11.15
527.723	11.16
527.921	11.26
528.12	11.26
528.318	11.25
528.516	11.26
528.715	11.33
528.913	11.35
529.112	11.37
529.31	11.37
529.508	11.41
529.707	11.38
529.905	11.44
530.103	11.51
530.301	11.58
530.5	11.63
530.698	11.68
530.896	11.72
531.094	11.75
531.293	11.84
531.491	11.88
531.689	11.94
531.887	12.12
532.085	12.14
532.283	12.08
532.481	12.07
532.68	12.17
532.878	12.28
533.076	12.3
533.274	12.33
533.472	12.33
533.67	12.41
533.868	12.43
534.066	12.4
534.264	12.52
534.462	12.67
534.66	12.8
534.858	12.74
535.056	12.77
535.253	12.8
535.451	12.9
535.649	13.09
535.847	13.11
536.045	13.19
536.243	13.26
536.441	13.35
536.638	13.34
536.836	13.39
537.034	13.56
537.232	13.62
537.43	13.8
537.627	13.85
537.825	13.82
538.023	13.85
538.22	13.98
538.418	14
538.616	14
538.813	14.04
539.011	14.1
539.209	14.15
539.406	14.28
539.604	14.22
539.801	14.42
539.999	14.53
540.196	14.62
540.394	14.66
540.591	14.73
540.789	14.77
540.986	14.78
541.184	14.8
541.381	14.9
541.579	14.95
541.776	15.07
541.974	15.05
542.171	15.01
542.368	15.11
542.566	15.18
542.763	15.22
542.96	15.25
543.158	15.4
543.355	15.51
543.552	15.57
543.75	15.55
543.947	15.58
544.144	15.62
544.341	15.78
544.539	15.84
544.736	15.93
544.933	15.96
545.13	16.11
545.327	16.05
545.524	16.1
545.722	16.12
545.919	16.31
546.116	16.34
546.313	16.49
546.51	16.58
546.707	16.61
546.904	16.58
547.101	16.86
547.298	16.86
547.495	16.98
547.692	17.14
547.889	17.13
548.086	17.14
548.283	17.29
548.48	17.41
548.677	17.41
548.874	17.63
549.07	17.92
549.267	17.79
549.464	18
549.661	18.11
549.858	18.15
550.055	18.16
550.251	18.41
550.448	18.37
550.645	18.48
550.842	18.59
551.038	18.54
551.235	18.45
551.432	18.51
551.628	18.49
551.825	18.51
552.022	18.53
552.218	18.79
552.415	18.82
552.612	18.87
552.808	18.79
553.005	18.8
553.201	18.89
553.398	19
553.594	19.06
553.791	19.13
553.987	19.42
554.184	19.43
554.38	19.37
554.577	19.3
554.773	19.27
554.97	19.28
555.166	19.6
555.362	19.5
555.559	19.48
555.755	19.58
555.952	19.84
556.148	19.69
556.344	19.81
556.541	19.86
556.737	20
556.933	20.28
557.129	20.33
557.326	20.11
557.522	20.4
557.718	20.46
557.914	20.68
558.11	20.61
558.307	20.72
558.503	20.84
558.699	21.1
558.895	20.97
559.091	20.91
559.287	21.09
559.483	21.32
559.679	21.42
559.876	21.62
560.072	21.58
560.268	21.64
560.464	21.59
560.66	21.61
560.856	21.81
561.052	21.99
561.247	22.2
561.443	22.2
561.639	22.2
561.835	22.23
562.031	22.29
562.227	22.41
562.423	22.54
562.619	22.93
562.815	23.12
563.01	23
563.206	23.14
563.402	23.19
563.598	23.45
563.793	23.59
563.989	23.59
564.185	23.47
564.381	23.71
564.576	23.76
564.772	23.72
564.968	23.68
565.163	23.79
565.359	23.92
565.555	24.03
565.75	24.03
565.946	24.22
566.141	24.38
566.337	24.63
566.532	24.75
566.728	24.87
566.923	24.92
567.119	25.13
567.314	25.2
567.51	25.27
567.705	25.29
567.901	25.34
568.096	25.37
568.292	25.35
568.487	25.35
568.682	25.25
568.878	25.38
569.073	25.43
569.268	25.38
569.464	25.41
569.659	25.5
569.854	25.7
570.05	25.79
570.245	25.76
570.44	25.76
570.635	26.06
570.831	26.17
571.026	26.11
571.221	26.24
571.416	26.37
571.611	26.59
571.806	26.59
572.002	26.67
572.197	26.77
572.392	26.85
572.587	27.12
572.782	26.94
572.977	26.88
573.172	27.06
573.367	27.07
573.562	27.17
573.757	27.14
573.952	27.28
574.147	27.21
574.342	27.26
574.537	27.28
574.732	27.22
574.927	27.18
575.121	27.37
575.316	27.46
575.511	27.51
575.706	27.49
575.901	27.41
576.096	27.5
576.29	27.62
576.485	27.56
576.68	27.44
576.875	27.43
577.069	27.51
577.264	27.56
577.459	27.43
577.654	27.5
577.848	27.56
578.043	27.81
578.238	27.83
578.432	27.72
578.627	27.72
578.821	28.12
579.016	28.03
579.21	28.35
579.405	28.55
579.6	28.6
579.794	28.69
579.989	28.61
580.183	28.5
580.378	28.64
580.572	28.73
580.766	29
580.961	28.75
581.155	29.25
581.35	29.19
581.544	29.18
581.738	29.2
581.933	29.39
582.127	29.58
582.321	29.79
582.516	30.08
582.71	30.35
582.904	30.31
583.099	30.71
583.293	30.75
583.487	30.59
583.681	30.71
583.875	30.93
584.07	31
584.264	31.21
584.458	31.24
584.652	30.91
584.846	30.86
585.04	31.21
585.234	31.24
585.428	31.14
585.623	31.4
585.817	31.28
586.011	31.13
586.205	31
586.399	31.02
586.593	30.93
586.787	30.92
586.981	30.94
587.174	30.63
587.368	30.67
587.562	30.65
587.756	30.89
587.95	30.98
588.144	31.05
588.338	31.18
588.532	31.35
588.725	31.48
588.919	31.51
589.113	31.78
589.307	31.9
589.501	31.79
589.694	31.75
589.888	31.87
590.082	32
590.275	32.01
590.469	31.91
590.663	31.62
590.856	31.65
591.05	31.64
591.244	31.64
591.437	31.66
591.631	31.75
591.824	31.81
592.018	31.64
592.212	31.58
592.405	31.7
592.599	31.9
592.792	32.12
592.986	32.26
593.179	32.34
593.372	32.33
593.566	32.7
593.759	32.72
593.953	32.74
594.146	32.74
594.339	32.89
594.533	32.98
594.726	32.97
594.92	32.92
595.113	32.82
595.306	33.06
595.499	32.99
595.693	32.85
595.886	33.08
596.079	33.18
596.272	33.27
596.466	33.28
596.659	33.29
596.852	33.41
597.045	33.47
597.238	33.49
597.431	33.4
597.624	33.53
597.818	33.64
598.011	33.59
598.204	33.63
598.397	33.57
598.59	33.47
598.783	33.51
598.976	33.18
599.169	33.22
599.362	33.34
599.555	33.36
599.748	33.48
599.941	33.3
600.134	33.39
600.326	33.35
600.519	33.48
600.712	33.48
600.905	33.6
601.098	34.11
601.291	34.17
601.483	34.33
601.676	34.53
601.869	34.26
602.062	34.27
602.255	34.39
602.447	34.53
602.64	34.65
602.833	34.72
603.025	34.86
603.218	34.7
603.411	34.57
603.603	34.52
603.796	34.53
603.989	34.69
604.181	34.69
604.374	34.69
604.566	34.69
604.759	34.58
604.951	34.71
605.144	34.6
605.336	34.77
605.529	34.86
605.721	34.75
605.914	34.57
606.106	34.56
606.299	34.89
606.491	34.76
606.683	34.75
606.876	35.06
607.068	34.94
607.26	35
607.453	35.01
607.645	34.99
607.837	35.43
608.03	35.91
608.222	36
608.414	35.74
608.606	35.81
608.799	36.13
608.991	36.11
609.183	36.32
609.375	36.48
609.567	36.41
609.759	36.38
609.952	36.25
610.144	35.86
610.336	36
610.528	36.09
610.72	36.15
610.912	35.95
611.104	35.95
611.296	35.82
611.488	35.51
611.68	35.54
611.872	35.78
612.064	35.55
612.256	35.71
612.448	35.68
612.64	35.95
612.832	36.02
613.023	36.03
613.215	35.86
613.407	36.17
613.599	36.33
613.791	36.32
613.983	36.19
614.174	36.32
614.366	36.47
614.558	36.2
614.75	35.9
614.941	36.09
615.133	36.21
615.325	36.46
615.516	36.14
615.708	36.01
615.9	35.77
616.091	35.89
616.283	36.13
616.475	36.2
616.666	36.35
616.858	36.46
617.049	36.36
617.241	36.29
617.432	35.93
617.624	36.12
617.815	36.39
618.007	36.32
618.198	36.41
618.39	36.5
618.581	36.94
618.773	37.11
618.964	37.11
619.155	37.04
619.347	37.13
619.538	37.38
619.729	37.49
619.921	37.54
620.112	37.8
620.303	37.88
620.494	37.62
620.686	37.06
620.877	36.85
621.068	36.64
621.259	36.81
621.451	37
621.642	36.93
621.833	36.77
622.024	36.76
622.215	36.81
622.406	36.77
622.597	36.75
622.788	36.91
622.98	36.95
623.171	37.2
623.362	37.03
623.553	36.95
623.744	37.3
623.935	37.43
624.126	37.61
624.317	37.83
624.508	37.88
624.698	38.17
624.889	38.18
625.08	38.32
625.271	38.3
625.462	38.45
625.653	38.42
625.844	38.32
626.034	38.51
626.225	38.34
626.416	38.44
626.607	38.49
626.798	38.48
626.988	38.41
627.179	38.3
627.37	38.17
627.56	38.15
627.751	38.18
627.942	38.2
628.132	38.12
628.323	38.09
628.514	38.03
628.704	37.91
628.895	37.92
629.085	38
629.276	38.18
629.466	38.5
629.657	38.64
629.847	38.92
630.038	38.84
630.228	38.92
630.419	39.19
630.609	39.17
630.8	39.3
630.99	39.48
631.181	39.76
631.371	39.69
631.561	39.58
631.752	39.5
631.942	39.09
632.132	39.12
632.323	39.1
632.513	38.87
632.703	38.91
632.893	38.57
633.084	38.34
633.274	38.29
633.464	38.36
633.654	38.41
633.844	38.25
634.034	38.36
634.225	38.41
634.415	38.44
634.605	38.24
634.795	38.41
634.985	38.56
635.175	38.69
635.365	38.56
635.555	38.65
635.745	38.84
635.935	38.95
636.125	39.19
636.315	39.21
636.505	39.01
636.695	39.4
636.885	39.13
637.075	39.3
637.265	39.35
637.455	39.17
637.644	39.16
637.834	38.97
638.024	38.98
638.214	38.92
638.404	38.91
638.593	39.1
638.783	39.16
638.973	39.39
639.163	39.24
639.352	39.45
639.542	39.46
639.732	39.25
639.921	39.13
640.111	39.28
640.301	39.32
640.49	39.38
640.68	39.29
640.87	39.42
641.059	39.51
641.249	39.89
641.438	39.92
641.628	40.31
641.817	40.56
642.007	40.96
642.196	41.25
642.386	41.16
642.575	41.32
642.764	41.76
642.954	41.77
643.143	41.96
643.333	41.72
643.522	41.29
643.711	41.5
643.901	41.5
644.09	41.68
644.279	41.29
644.469	41.14
644.658	41.21
644.847	40.92
645.036	40.84
645.226	40.56
645.415	40.55
645.604	40.71
645.793	40.54
645.982	40.42
646.171	40.24
646.361	40.66
646.55	40.84
646.739	41.03
646.928	41.29
647.117	41.59
647.306	41.6
647.495	41.8
647.684	41.75
647.873	41.91
648.062	42.37
648.251	42.27
648.44	41.84
648.629	42
648.818	41.98
649.007	41.58
649.196	41.69
649.384	41.56
649.573	41.25
649.762	41.61
649.951	41.44
650.14	41.2
650.328	41.33
650.517	41.43
650.706	41.54
650.895	41.42
651.083	41.5
651.272	40.42
651.461	40.72
651.65	41.41
651.838	41.3
652.027	41.22
652.216	41.27
652.404	41.14
652.593	41.28
652.781	40.81
652.97	40.48
653.158	40.51
653.347	41.48
653.535	41.3
653.724	40.51
653.912	40.52
654.101	40.65
654.289	40.53
654.478	40.63
654.666	40.33
654.855	40.59
655.043	40.86
655.231	40.94
655.42	40.28
655.608	40.59
655.796	41.2
655.985	41.14
656.173	41.3
656.361	41.4
656.55	41.26
656.738	41.36
656.926	41.48
657.114	41.74
657.302	41.63
657.491	41.88
657.679	41.67
657.867	41.33
658.055	41.17
658.243	41.37
658.431	41.56
658.619	41.81
658.807	41.77
658.996	41.81
659.184	41.64
659.372	41.81
659.56	41.84
659.748	41.89
659.936	42.19
660.124	42.24
660.311	42.2
660.499	42.07
660.687	42.08
660.875	42.32
661.063	42.42
661.251	42.55
661.439	42.33
661.627	42.25
661.814	42.18
662.002	41.76
662.19	42.01
662.378	41.67
662.565	41.7
662.753	41.67
662.941	41.54
663.129	41.13
663.316	41
663.504	41.01
663.692	41.18
663.879	41.46
664.067	41.69
664.254	41.59
664.442	41.7
664.63	41.66
664.817	41.68
665.005	41.55
665.192	41.87
665.38	41.62
665.567	42.43
665.755	42.8
665.942	42.65
666.13	42.85
666.317	42.93
666.504	42.82
666.692	42.81
666.879	42.58
667.067	42.73
667.254	42.9
667.441	43.27
667.629	42.67
667.816	42.38
668.003	42.47
668.19	42.56
668.378	42.84
668.565	43
668.752	43.12
668.939	43.28
669.127	43.45
669.314	43.69
669.501	43.21
669.688	43.14
669.875	43.45
670.062	43.84
670.249	43.63
670.436	43.44
670.623	43.61
670.81	43.67
670.997	43.62
671.184	43.63
671.371	43.7
671.558	44.02
671.745	44.41
671.932	44.56
672.119	44.2
672.306	44.53
672.493	44.62
672.68	44.41
672.867	44.24
673.054	44.47
673.24	44.61
673.427	44.29
673.614	44.5
673.801	44.2
673.988	44.07
674.174	44.07
674.361	43.88
674.548	43.89
674.734	44.1
674.921	44.23
675.108	44.11
675.294	43.86
675.481	44.14
675.668	43.86
675.854	44.33
676.041	44.18
676.227	44.38
676.414	44.73
676.601	44.97
676.787	44.99
676.974	45.03
677.16	45.02
677.347	45.07
677.533	44.77
677.719	44.75
677.906	44.56
678.092	44.79
678.279	44.57
678.465	44.52
678.651	44.13
678.838	44.17
679.024	44.01
679.21	44.26
679.397	44.39
679.583	44.78
679.769	45.13
679.955	44.94
680.142	44.94
680.328	45.02
680.514	44.68
680.7	44.65
680.886	44.87
681.073	45.09
681.259	44.84
681.445	44.9
681.631	44.7
681.817	44.53
682.003	44.73
682.189	44.49
682.375	44.32
682.561	44.79
682.747	45.01
682.933	44.51
683.119	44.64
683.305	44.93
683.491	44.82
683.677	44.83
683.863	45.03
684.049	45.3
684.235	45.13
684.42	45.51
684.606	45.22
684.792	45.34
684.978	45.62
685.164	45.39
685.349	45.37
685.535	45.48
685.721	45.61
685.907	45.75
686.092	45.2
686.278	45.29
686.464	45.42
686.649	45.28
686.835	45.18
687.021	45.05
687.206	45.33
687.392	45.05
687.577	45.22
687.763	44.8
687.948	44.73
688.134	44.73
688.319	45.18
688.505	45.15
688.69	45.46
688.876	45.69
689.061	45.35
689.247	44.84
689.432	44.87
689.618	44.56
689.803	45.01
689.988	45.14
690.174	45.54
690.359	45.11
690.544	45.13
690.73	45.22
690.915	44.52
691.1	44.91
691.285	45.64
691.471	46.11
691.656	46.34
691.841	46.16
692.026	45.65
692.211	45.48
692.396	45.28
692.582	44.54
692.767	44.57
692.952	44.83
693.137	45.47
693.322	45.17
693.507	44.87
693.692	45.09
693.877	45.13
694.062	45.34
694.247	45.2
694.432	45.68
694.617	46.27
694.802	46.25
694.987	46.64
695.172	46.22
695.357	46.43
695.541	46.85
695.726	47.07
695.911	47.28
696.096	47.31
696.281	47.25
696.466	47.37
696.65	47.51
696.835	47.44
697.02	47.08
697.204	47.08
697.389	47.3
697.574	47.13
697.759	46.28
697.943	46.35
698.128	46.22
698.312	46.51
698.497	45.96
698.682	45.79
698.866	45.78
699.051	46.24
699.235	46.3
699.42	45.77
699.604	45.51
699.789	46
699.973	45.62
700.158	45.54
700.342	45.11
700.527	45.53
700.711	45.24
700.895	45.32
701.08	44.89
701.264	45.04
701.448	45.34
701.633	45.39
701.817	45.17
702.001	45.2
702.186	45.67
702.37	46.43
702.554	46.53
702.738	46.96
702.923	46.99
703.107	47.47
703.291	46.91
703.475	46.42
703.659	47.5
703.843	47.74
704.027	47.96
704.212	47.89
704.396	47.92
704.58	48.17
704.764	48.06
704.948	47.63
705.132	47.23
705.316	47.14
705.5	47.74
705.684	46.85
705.868	46.61
706.052	47.21
706.235	46.93
706.419	46.89
706.603	47.05
706.787	47.48
706.971	48.33
707.155	48.36
707.339	49.12
707.522	49.08
707.706	48.86
707.89	48.8
708.074	48.03
708.257	48.3
708.441	48.23
708.625	47.8
708.808	47.74
708.992	47.47
709.176	47.6
709.359	46.68
709.543	46.89
709.727	46.95
709.91	47.04
710.094	47.43
710.277	47.71
710.461	47.19
710.644	47.46
710.828	47.45
711.011	47.3
711.195	46.67
711.378	47.22
711.562	47.23
711.745	47.13
711.928	47.25
712.112	47.01
712.295	46.8
712.478	47.12
712.662	47.01
712.845	46.83
713.028	46.23
713.212	46.69
713.395	47.13
713.578	46.29
713.761	46.43
713.945	46.36
714.128	46.48
714.311	46.81
714.494	47.09
714.677	46.81
714.86	47.33
715.043	48.11
715.227	48.17
715.41	47.65
715.593	48.21
715.776	48.32
715.959	48.26
716.142	48.5
716.325	47.94
716.508	47.79
716.691	48.22
716.874	47.78
717.057	47.68
717.239	47.85
717.422	47.71
717.605	47.9
717.788	47.85
717.971	48.09
718.154	48.23
718.337	48.31
718.519	47.99
718.702	47.67
718.885	47.5
719.068	47.26
719.25	47.29
719.433	48.14
719.616	48.03
719.798	47.43
719.981	48.1
720.164	47.46
720.346	47.38
720.529	46.96
720.712	46.59
720.894	46.25
721.077	46.56
721.259	46.68
721.442	46.51
721.624	46.28
721.807	47.27
721.989	46.67
722.172	47
722.354	47.17
722.537	48.02
722.719	48.96
722.901	50.46
723.084	50.07
723.266	49.69
723.448	49.15
723.631	50.43
723.813	49.99
723.995	49.22
724.178	48.87
724.36	48.56
724.542	48.13
724.724	48.02
724.907	47.34
725.089	47.34
725.271	47.26
725.453	47.4
725.635	46.84
725.817	47.64
725.999	48.12
726.181	48.27
726.364	49.18
726.546	49.53
726.728	49.56
726.91	49.25
727.092	49
727.274	49.33
727.456	49.29
727.638	48.58
727.819	48.18
728.001	48.4
728.183	48.24
728.365	47.82
728.547	48.01
728.729	47.82
728.911	47.97
729.093	48.04
729.274	48.37
729.456	48.04
729.638	48.35
729.82	47.71
730.001	47.83
730.183	48.48
730.365	48.24
730.546	47.81
730.728	47.83
730.91	47.92
731.091	47.9
731.273	47.42
731.455	47.92
731.636	47.81
731.818	48.27
731.999	47.66
732.181	47.42
732.362	47.45
732.544	47.71
732.725	47.28
732.907	47.25
733.088	47.79
733.27	48.52
733.451	48.57
733.633	48.75
733.814	48.65
733.995	49.16
734.177	48.89
734.358	49.47
734.539	48.93
734.721	49.01
734.902	49.17
735.083	48.75
735.264	47.42
735.446	47.23
735.627	46.95
735.808	46.75
735.989	46.1
736.17	46.3
736.351	45.93
736.533	46.91
736.714	48.06
736.895	47.58
737.076	47.79
737.257	48.48
737.438	48.04
737.619	48.15
737.8	48.44
737.981	49.05
738.162	49.23
738.343	49.06
738.524	49.19
738.705	48.48
738.886	48.2
739.067	48.23
739.247	47.79
739.428	47.29
739.609	47.47
739.79	48.42
739.971	48.63
740.151	47.87
740.332	48.01
740.513	47.61
740.694	47.1
740.874	46.83
741.055	47.08
741.236	48.23
741.417	49.53
741.597	49.28
741.778	48.19
741.958	47.88
742.139	48.21
742.32	47.98
742.5	48.03
742.681	48.93
742.861	50.34
743.042	49.56
743.222	48.92
743.403	49.06
743.583	49.55
743.764	50.12
743.944	50.44
744.124	50.27
744.305	50.07
744.485	49.96
744.666	49.39
744.846	48.77
745.026	48.93
745.207	48.5
745.387	47.9
745.567	47.18
745.747	47.1
745.928	47.62
746.108	47.77
746.288	47.97
746.468	48.12
746.648	47.84
746.829	48.56
747.009	49.02
747.189	49.43
747.369	50.24
747.549	49.86
747.729	49.51
747.909	49.52
748.089	48.88
748.269	49.18
748.449	49.74
748.629	50.72
748.809	50.83
748.989	51.59
749.169	51.61
749.349	50.64
749.529	51.58
749.709	51.78
749.889	50.8
750.068	51.52
750.248	51.51
750.428	50.44
750.608	50.78
750.788	49.98
750.967	48.99
751.147	49.85
751.327	49.97
751.507	49.11
751.686	49.1
751.866	50.04
752.046	50.92
752.225	52.2
752.405	52.68
752.585	51.16
752.764	51.43
752.944	51.14
753.123	50.53
753.303	51.12
753.482	51.97
753.662	52.29
753.841	51.41
754.021	50.67
754.2	50.11
754.38	49.97
754.559	50.49
754.739	49.96
754.918	50.3
755.097	48.77
755.277	49.08
755.456	48.73
755.635	47.08
755.815	46.58
755.994	47.54
756.173	47.18
756.352	47.33
756.532	47.79
756.711	49.12
756.89	49.65
757.069	50.85
757.248	49.07
757.427	49
757.607	49.32
757.786	50.35
757.965	49.68
758.144	49.07
758.323	48.73
758.502	47.78
758.681	46.83
758.86	46.56
759.039	45.9
759.218	46.51
759.397	46.67
759.576	48.08
759.755	47.02
759.934	45.73
760.113	45.61
760.291	46.1
760.47	46.44
760.649	46.99
760.828	46.97
761.007	47.52
761.186	48.12
761.364	48.64
761.543	48.86
761.722	49.68
761.901	50.48
762.079	49.77
762.258	49.35
762.437	49.59
762.615	49.63
762.794	49.62
762.972	50.17
763.151	49.74
763.33	49.62
763.508	49.26
763.687	49.24
763.865	49.9
764.044	50.9
764.222	51.28
764.401	52
764.579	51.99
764.758	51.95
764.936	52.31
765.114	52.49
765.293	51.86
765.471	52.05
765.65	51.74
765.828	51.98
766.006	51.58
766.184	51.31
766.363	50.23
766.541	49.82
766.719	49.81
766.898	49.22
767.076	49.65
767.254	49.83
767.432	50.67
767.61	50.7
767.788	49.91
767.967	50.65
768.145	50.96
768.323	50.4
768.501	51.08
768.679	50.55
768.857	50.37
769.035	50.12
769.213	51.52
769.391	50.52
769.569	50.83
769.747	50.6
769.925	49.92
770.103	49.35
770.281	51.23
770.459	50.1
770.636	51.99
770.814	51.94
770.992	52.38
771.17	51.18
771.348	48.37
771.525	49.45
771.703	50.42
771.881	49.89
772.059	50.25
772.236	49.57
772.414	51.19
772.592	49.76
772.769	49.65
772.947	48.84
773.125	49.58
773.302	53.4
773.48	51.53
773.657	51.26
773.835	51.95
774.013	52.84
774.19	52.62
774.368	51.89
774.545	52.08
774.723	51.58
774.9	53.9
775.077	54.22
775.255	52.17
775.432	54.94
775.61	55
775.787	54.63
775.964	54.04
776.142	56.39
776.319	56.34
776.496	56.15
776.674	57.17
776.851	55.49
777.028	55.58
777.205	56.04
777.382	54.46
777.56	54.18
777.737	54.26
777.914	54.1
778.091	53.04
778.268	52.64
778.445	54.33
778.622	53.93
778.8	55.24
778.977	53.43
779.154	54.33
779.331	54.18
779.508	54.28
779.685	55.06
779.862	56.4
780.038	56.66
780.215	56.4
780.392	54.13
780.569	53.48
780.746	52.23
780.923	52.46
781.1	52.56
781.277	52.54
781.453	52.45
781.63	51.94
781.807	51.28
781.984	50.62
782.16	50.89
782.337	51.37
782.514	51.31
782.691	49.83
782.867	48.71
783.044	48.84
783.221	49.81
783.397	50.49
783.574	51.01
783.75	50.93
783.927	51.5
784.103	52.42
784.28	52.16
784.456	53.94
784.633	55.37
784.809	57.4
784.986	55.75
785.162	55.51
785.339	53.52
785.515	54.96
785.692	53.93
785.868	52.81
786.044	49.57
786.221	49.69
786.397	49.1
786.573	49.03
786.749	49.78
786.926	51
787.102	49.57
787.278	51.39
787.454	50.53
787.631	50.94
787.807	49.64
787.983	51.52
788.159	51.88
788.335	52.57
788.511	51.62
788.687	51.6
788.863	50.57
789.039	51.46
789.216	51.15
789.392	49.86
789.568	51.3
789.744	53.53
789.919	54.67
790.095	53.12
790.271	52.4
790.447	53.86
790.623	54.43
790.799	54.94
790.975	54.48
791.151	54.54
791.327	54.82
791.502	52.78
791.678	50.54
791.854	49.9
792.03	51.96
792.205	52.92
792.381	53.02
792.557	52.94
792.733	52.68
792.908	53.65
793.084	53.77
793.259	53.69
793.435	55.26
793.611	57.62
793.786	56.12
793.962	55.17
794.137	54.36
794.313	54.42
794.488	54.45
794.664	56.28
794.839	54.95
795.015	54.86
795.19	53.67
795.366	52.37
795.541	51.24
795.716	52.78
795.892	51.8
796.067	51.06
796.242	49.17
796.418	48.21
796.593	46.72
796.768	47.67
796.944	46.41
797.119	46.54
797.294	48.64
797.469	48.4
797.644	47.98
797.82	49.55
797.995	49.16
798.17	50.86
798.345	50.61
798.52	51.05
798.695	50.57
798.87	52.59
799.045	53.23
799.22	50.63
799.395	51.53
799.57	51.35
799.745	51.05
799.92	50.76
800.095	50.27
800.27	51.22
800.445	50.43
800.62	50.05
800.795	48.57
800.97	48.03
801.145	48.18
801.319	44.7
801.494	45.07
801.669	46.53
801.844	47.82
802.018	47.1
802.193	46.81
802.368	47.6
802.543	46.67
802.717	45.62
802.892	46.81
803.067	47.11
803.241	48.91
803.416	46.29
803.59	46.51
803.765	47.56
803.94	47.39
804.114	47.75
804.289	46.19
804.463	48.17
804.638	48.44
804.812	48.29
804.986	50
805.161	52.18
805.335	53.51
805.51	51.97
805.684	49.5
805.858	49.09
806.033	49.87
806.207	50.38
806.381	50.61
806.556	52.49
806.73	54.71
806.904	54.89
807.078	55.62
807.253	57.23
807.427	56.56
807.601	58.96
807.775	60.63
807.949	59.2
808.123	58.55
808.298	56.95
808.472	56.36
808.646	51.37
808.82	49.35
808.994	48.64
809.168	48.45
809.342	50.1
809.516	47.59
809.69	47.52
809.864	47.61
810.038	49.12
810.212	51.51
810.385	48.84
810.559	51.47
810.733	51.06
810.907	50.07
811.081	49.09
811.255	47.56
811.428	48.89
811.602	49.44
811.776	49.93
811.95	49.75
812.123	49.61
812.297	50.38
812.471	50.13
812.644	52.46
812.818	54.22
812.992	54.43
813.165	55.68
813.339	55.57
813.512	55.55
813.686	53.38
813.86	53.41
814.033	51.44
814.207	54.64
814.38	55.12
814.554	54.43
814.727	53.33
814.9	55.5
815.074	56.29
815.247	55.55
815.421	51.83
815.594	51.4
815.767	53.71
815.941	51.7
816.114	50.57
816.287	52.51
816.46	51.65
816.634	49.14
816.807	44.2
816.98	43.38
817.153	45.52
817.327	48.59
817.5	50.51
817.673	47.55
817.846	51.88
818.019	51.19
818.192	51.6
818.365	48.64
818.538	51.2
818.711	53.56
818.884	51.73
819.057	50.53
819.23	50.5
819.403	50.84
819.576	51.99
819.749	50.76
819.922	51.57
820.095	49.75
820.268	50.76
820.441	51.96
820.614	52.06
820.786	52.84
820.959	51.94
821.132	51.98
821.305	50.53
821.477	51.43
821.65	52.2
821.823	51.2
821.996	51.7
822.168	52.15
822.341	50.91
822.514	50.5
822.686	50.7
822.859	50.53
823.031	50.67
823.204	51.04
823.376	50.23
823.549	49.76
823.722	50.05
823.894	49.64
824.067	49.52
824.239	49.78
824.411	50.32
824.584	50.39
824.756	50.28
824.929	49.99
825.101	50.58
825.273	51.12
825.446	50.53
825.618	50.27
825.79	50.71
825.963	51.11
826.135	51.33
826.307	50.38
826.479	50.78
826.652	51.46
826.824	50.89
826.996	50.04
827.168	49.56
827.34	49.55
827.512	49.66
827.684	49.44
827.856	48.61
828.029	48.9
828.201	48.69
828.373	47.56
828.545	47.23
828.717	47.48
828.889	47.21
829.061	47.46
829.232	48.5
829.404	48.6
829.576	47.93
829.748	48.61
829.92	47.41
830.092	48.69
830.264	48.71
830.436	49.21
830.607	50.38
830.779	50.08
830.951	49.57
831.123	47.26
831.294	46.99
831.466	49.13
831.638	48.68
831.809	49.38
831.981	48.37
832.153	49
832.324	51.65
832.496	52.21
832.667	55.02
832.839	55.38
833.011	57.3
833.182	57.08
833.354	54.41
833.525	53.28
833.697	52
833.868	53.24
834.039	54.39
834.211	52.55
834.382	52.05
834.554	51.82
834.725	51.01
834.896	50.27
835.068	50.27
835.239	49.2
835.41	49.82
835.581	51.34
835.753	50.1
835.924	48.86
836.095	47.35
836.266	47.14
836.438	45.78
836.609	47.59
836.78	49.84
836.951	48.99
837.122	49.04
837.293	48.59
837.464	47.03
837.635	47.34
837.806	47.4
837.977	47.73
838.148	46.56
838.319	46.24
838.49	46.43
838.661	45.78
838.832	48.66
839.003	51.74
839.174	55.49
839.345	56.28
839.516	57.18
839.687	58.53
839.857	59.18
840.028	62.66
840.199	65.1
840.37	62.32
840.54	60.85
840.711	60.17
840.882	62.1
841.053	59.04
841.223	56.27
841.394	56.41
841.564	57.72
841.735	58.08
841.906	51.34
842.076	50.01
842.247	51.25
842.417	53.22
842.588	52.25
842.758	50.5
842.929	48.5
843.099	48.68
843.27	51.81
843.44	49.3
843.611	53.12
843.781	55.76
843.951	58.91
844.122	54.86
844.292	52.53
844.462	49.42
844.633	48.94
844.803	52.05
844.973	51.91
845.144	47.24
845.314	45.11
845.484	40.27
845.654	41.41
845.824	40.57
845.995	42.77
846.165	41.67
846.335	50.3
846.505	50.73
846.675	46.45
846.845	53.64
847.015	51.15
847.185	59.22
847.355	55.73
847.525	56.58
847.695	57.75
847.865	65.52
848.035	62.86
848.205	49.12
848.375	47.18
848.545	45.75
848.715	40
848.884	43.75
849.054	38.91
849.224	37.39
849.394	38.76
849.564	30.91
849.733	32.31
849.903	33.86
850.073	39.1
850.243	42.26
850.412	46.64
850.582	49.49
850.752	54.18
850.921	55.24
851.091	57.09
851.26	58.34
851.43	62.67
851.599	60.53
851.769	64.93
851.939	71.87
852.108	67.24
852.278	66.14
852.447	65.33
852.616	57.51
852.786	58.39
852.955	64.24
853.125	51.79
853.294	50.52
853.463	46.13
853.633	48.66
853.802	43.15
853.971	54.31
854.141	52.81
854.31	53.69
854.479	54.01
854.648	41.38
854.818	32.87
854.987	42.21
855.156	43.08
855.325	55.41
855.494	55.04
855.663	55.43
855.832	52.2
856.001	54.49
856.171	51.13
856.34	54.99
856.509	61.79
856.678	68.44
856.847	68.34
857.016	74.2
857.185	65.38
857.353	67.46
857.522	58.91
857.691	54.92
857.86	52.36
858.029	52.17
858.198	49.04
858.367	50.19
858.535	45.96
858.704	44.75
858.873	41.38
859.042	42.45
859.21	35.47
859.379	39.46
859.548	32.74
859.717	20.24
859.885	26.03
860.054	30.66
860.222	25.92
860.391	33.14
860.56	32.97
860.728	32.35
860.897	29.32
861.065	29.98
861.234	27.3
861.402	26.35
861.571	35.73
861.739	29.08
861.908	29.25
862.076	32.28
862.244	32.64
862.413	38.92
862.581	28.08
862.749	33.85
862.918	39.96
863.086	42.86
863.254	42.06
863.423	47.55
863.591	53.65
863.759	51.28
863.927	54.02
864.096	47.66
864.264	44.46
864.432	52.72
864.6	53.99
864.768	52.07
864.936	50.47
865.104	54.18
865.272	49.56
865.44	51.28
865.608	44.61
865.776	40.84
865.944	41.85
866.112	41.79
866.28	50.87
866.448	55.01
866.616	57.58
866.784	44.61
866.952	51.9
867.12	49.94
867.288	59.9
867.455	65.9
867.623	61.61
867.791	64.38
867.959	69.5
868.127	67.28
868.294	71.5
868.462	78.96
868.63	86.88
868.797	88.92
868.965	97.93
869.133	80.11
869.3	79.47
869.468	80.96
869.636	83.74
869.803	73.83
869.971	68.79
870.138	53.92
870.306	51.39
870.473	48.81
870.641	56
870.808	59.7
870.975	64.74
871.143	60.29
871.31	72.8
871.478	65.99
871.645	81.35
871.812	86.08
871.98	100.77
872.147	87.46
872.314	91.24
872.482	72.64
872.649	60.35
872.816	65.78
872.983	66.74
873.15	45.45
873.318	42.76
873.485	36.94
873.652	36.53
873.819	32.35
873.986	19.69
874.153	25.89
874.32	22.05
874.487	25.88
874.654	19.03
874.821	23.77
874.988	28.71
875.155	32.29
875.322	28.59
875.489	22.34
875.656	19.37
875.823	29.04
875.99	25.99
876.157	25.39
876.324	30.18
876.49	33.85
876.657	33.48
876.824	40.13
876.991	38.98
877.157	40.1
877.324	42.45
877.491	44.76
877.658	42.07
877.824	50.44
877.991	56.96
878.157	56.45
878.324	57.75
878.491	59.96
878.657	55.61
878.824	63.45
878.99	66.4
879.157	64.68
879.323	57.17
879.49	60.85
879.656	62.92
879.823	60.7
879.989	59.59
880.156	59.45
880.322	57.7
880.488	57.24
880.655	50.24
880.821	50.08
880.987	56.97
881.154	56.36
881.32	64.89
881.486	58.35
881.652	54.4
881.819	53.61
881.985	49.93
882.151	50.05
882.317	49.47
882.483	51.63
882.649	51.08
882.816	48.62
882.982	50.43
883.148	47.21
883.314	46.83
883.48	47.61
883.646	47.7
883.812	48.94
883.978	49.57
884.144	50.05
884.31	49.82
884.476	49.87
884.642	49.45
884.807	48.13
884.973	49.09
885.139	50.31
885.305	48.97
885.471	49.25
885.637	49.12
885.802	47.82
885.968	46.98
886.134	47.2
886.3	46.61
886.465	46.6
886.631	46.89
886.797	45.78
886.962	43.62
887.128	47.44
887.293	46.44
887.459	45.9
887.625	47.83
887.79	49.35
887.956	46.11
888.121	47.02
888.287	49.05
888.452	50.21
888.618	49.67
888.783	53.89
