Data from LC_209__Reflection_3.txt Node
Date: Thu Nov 19 12:09:59 EST 2015
User: robert
Spectrometer: USB4E03001
Autoset integration time: false
Trigger mode: 4
Integration Time (sec): 1.000000E-1
Scans to average: 15
Electric dark correction enabled: true
Nonlinearity correction enabled: false
Boxcar width: 5
Stray light correction enabled: false
XAxis mode: Wavelengths
Stop averaging: false
Number of Pixels in Spectrum: 3648
>>>>>Begin Spectral Data<<<<<
177.566	752.84
177.785	-1072.87
178.005	125.51
178.225	72.99
178.445	33.66
178.665	-26.49
178.885	-238.46
179.105	-269.23
179.324	-67.07
179.544	16.14
179.764	143.45
179.984	598.42
180.204	419.98
180.423	66.23
180.643	69.52
180.863	53.98
181.083	71.18
181.302	144.78
181.522	304.62
181.742	154.55
181.961	207.15
182.181	198.43
182.401	145.68
182.621	156.56
182.84	171.81
183.06	167.43
183.279	221.43
183.499	170.69
183.719	185.94
183.938	193.8
184.158	585.41
184.377	446.77
184.597	1246.65
184.816	-1194.09
185.036	-612.85
185.256	-340.28
185.475	-143.4
185.695	-107.57
185.914	-46.28
186.134	-56.59
186.353	-55.1
186.572	-97.57
186.792	-132.28
187.011	966.78
187.231	651.98
187.45	520.2
187.67	274.77
187.889	406.22
188.108	1623.96
188.328	392.73
188.547	381.44
188.766	-743.64
188.986	-50.53
189.205	-29.36
189.424	-17.41
189.644	-51.86
189.863	-240.1
190.082	-222.66
190.302	-109.18
190.521	-150.15
190.74	-127.8
190.959	-868.23
191.178	-1058.27
191.398	-754.57
191.617	-2716.24
191.836	-2472.21
192.055	-653.06
192.274	-330.58
192.494	-55.97
192.713	-89.28
192.932	-75.39
193.151	-143.08
193.37	-33.84
193.589	-113.07
193.808	444.17
194.027	-139.56
194.246	-63.81
194.465	400.57
194.685	-1638.46
194.904	141.22
195.123	1191.39
195.342	404.21
195.561	315.71
195.78	1916.86
195.999	711.36
196.218	-1081.62
196.436	21369.23
196.655	-517.95
196.874	60.48
197.093	56.43
197.312	-23.97
197.531	90.47
197.75	-60.96
197.969	-35.05
198.188	1213.85
198.407	217.51
198.625	147.84
198.844	103.98
199.063	132.31
199.282	100.93
199.501	103.28
199.719	110.31
199.938	118.9
200.157	141.52
200.376	126.26
200.594	132.35
200.813	159.05
201.032	167.85
201.251	195.49
201.469	99.78
201.688	198.03
201.907	158
202.125	93.48
202.344	91.08
202.563	80.51
202.781	82.45
203	97.62
203.218	97.22
203.437	162.24
203.656	316.82
203.874	1636.43
204.093	636.39
204.311	-859.5
204.53	-131.21
204.748	-49.56
204.967	-36.82
205.185	-51.49
205.404	-68.88
205.622	-83.65
205.841	-149.97
206.059	-454.03
206.278	-6933.73
206.496	-579.67
206.715	-2866.92
206.933	220.3
207.151	139.33
207.37	128.64
207.588	178.85
207.806	113.86
208.025	120.12
208.243	164.85
208.461	451.73
208.68	812.24
208.898	417.63
209.116	-15534.62
209.335	715.72
209.553	-381.59
209.771	-273.89
209.989	-800.46
210.208	-311.94
210.426	-593.57
210.644	482.66
210.862	366.56
211.081	678.72
211.299	303.9
211.517	266.56
211.735	8354.81
211.953	726.47
212.171	384.35
212.39	323.75
212.608	229.34
212.826	270.23
213.044	511.17
213.262	421.69
213.48	282.58
213.698	479.07
213.916	305.61
214.134	272.73
214.352	256.72
214.57	255.41
214.788	445.72
215.006	-3502.4
215.224	-358.71
215.442	-313.62
215.66	-122.93
215.878	-100.6
216.096	-100.35
216.314	-139.95
216.532	-152.36
216.75	-172.53
216.968	-105.96
217.185	-122.77
217.403	-66.42
217.621	-140.68
217.839	-99.15
218.057	-97.16
218.275	-27.04
218.492	-7.7
218.71	14.88
218.928	12.46
219.146	24.48
219.363	14.92
219.581	21.69
219.799	10.58
220.017	18.01
220.234	-9.78
220.452	-52.33
220.67	-301.63
220.887	-252.09
221.105	-173.46
221.323	-138
221.54	-117.78
221.758	-129.68
221.976	-121.88
222.193	-62.81
222.411	-47.18
222.629	-45.54
222.846	-36.59
223.064	-46.84
223.281	-54.89
223.499	-79.65
223.716	-76.34
223.934	-103.95
224.151	-144.6
224.369	-130.72
224.586	-158.83
224.804	-496.19
225.021	-273.43
225.239	-321.83
225.456	-339.63
225.674	-304.68
225.891	-112.22
226.108	-95.12
226.326	-75.1
226.543	-64.67
226.76	-78.84
226.978	-92.16
227.195	-53.81
227.413	-55.36
227.63	-50.3
227.847	-35.23
228.064	-33.04
228.282	-27.02
228.499	-27.62
228.716	-21.39
228.934	-17.67
229.151	-11.16
229.368	-10.98
229.585	-9.43
229.802	-8.02
230.02	-4.47
230.237	-6.7
230.454	-6.19
230.671	-13.44
230.888	-16.45
231.105	-19.86
231.323	-18.42
231.54	-20.41
231.757	-19.75
231.974	-24.39
232.191	-23.65
232.408	-22.75
232.625	-16.36
232.842	-12.34
233.059	-8.08
233.276	-1.75
233.493	-4.39
233.71	-2.88
233.927	-14.05
234.144	-12.93
234.361	-6.02
234.578	-5.41
234.795	-8.02
235.012	-5.91
235.229	-10.91
235.446	-5.36
235.663	-9.68
235.879	-3.59
236.096	-8.26
236.313	-2.2
236.53	-6.46
236.747	-6.16
236.964	-10.21
237.181	-10.48
237.397	-23.02
237.614	-17.41
237.831	-22.77
238.048	-13.67
238.264	-17.02
238.481	-11.43
238.698	-10.69
238.915	-4.4
239.131	-9.71
239.348	-2.34
239.565	3.59
239.781	10.36
239.998	11.84
240.215	11.35
240.431	11.72
240.648	9.07
240.865	11.71
241.081	10.22
241.298	11.27
241.514	11.31
241.731	10.17
241.947	9.34
242.164	8
242.38	4.46
242.597	3.26
242.814	1.67
243.03	1.3
243.246	0.13
243.463	0.76
243.679	0.71
243.896	0.29
244.112	1.1
244.329	-0.86
244.545	0.59
244.762	3.27
244.978	4.86
245.194	5.72
245.411	6.61
245.627	6.2
245.843	6.51
246.06	4.79
246.276	5
246.492	4.25
246.709	5.19
246.925	4.87
247.141	4.04
247.357	3.72
247.574	4.12
247.79	5.39
248.006	5.21
248.222	3.78
248.439	3.9
248.655	3.89
248.871	3.5
249.087	2.59
249.303	2.14
249.519	2.36
249.736	2.29
249.952	1.68
250.168	-1.78
250.384	-3.44
250.6	-0.96
250.816	-0.53
251.032	-2.31
251.248	-4.47
251.464	-3.8
251.68	-1.78
251.896	-0.43
252.112	-1.27
252.328	-0.84
252.544	1.75
252.76	3.63
252.976	2.39
253.192	1.76
253.408	4.44
253.624	4.97
253.84	5.65
254.056	4.28
254.272	2.19
254.487	2.95
254.703	1.5
254.919	-1.91
255.135	-2.4
255.351	-1.45
255.567	-4.36
255.782	-7.28
255.998	-8.39
256.214	-12.03
256.43	-11.49
256.646	-9.42
256.861	-10.75
257.077	-12.6
257.293	-9.9
257.508	-9.94
257.724	-8.18
257.94	-4.59
258.155	-4.7
258.371	-3.54
258.587	-0.85
258.802	0.78
259.018	1.93
259.234	3.12
259.449	4.31
259.665	4.03
259.88	4.27
260.096	3.75
260.312	3.87
260.527	4.64
260.743	5.19
260.958	4.83
261.174	4.18
261.389	3.35
261.605	3.86
261.82	3.09
262.036	1.65
262.251	1.53
262.466	1.98
262.682	0.65
262.897	-0.59
263.113	-1.39
263.328	-1.03
263.543	-3.74
263.759	-2.09
263.974	-2.15
264.189	-1.95
264.405	-0.65
264.62	-2.95
264.835	-5.03
265.051	-5.24
265.266	-3.67
265.481	-4.45
265.696	-4.65
265.912	-1.82
266.127	-0.75
266.342	-1.19
266.557	-0.05
266.773	2.1
266.988	3.79
267.203	4.97
267.418	5.66
267.633	5.99
267.848	6.53
268.064	6.9
268.279	7.22
268.494	5.47
268.709	6.37
268.924	6.29
269.139	6.39
269.354	4.49
269.569	4.35
269.784	3.32
269.999	2.59
270.214	3.71
270.429	4.27
270.644	3.95
270.859	4.56
271.074	3.33
271.289	3.58
271.504	3.25
271.719	4.35
271.934	3.38
272.149	4.57
272.363	4.44
272.578	3.43
272.793	2.87
273.008	4.58
273.223	4.01
273.438	4.05
273.653	3.52
273.867	3.81
274.082	4
274.297	5.8
274.512	4.91
274.726	4.29
274.941	5.01
275.156	4.46
275.371	3.08
275.585	2.68
275.8	1.98
276.015	1.27
276.229	0.68
276.444	0.03
276.659	-0.81
276.873	-2.1
277.088	-1.91
277.302	-2.67
277.517	-2.42
277.732	-2.72
277.946	-2.24
278.161	-1.93
278.375	-1.52
278.59	-1.98
278.804	-1.18
279.019	-1.63
279.233	0.37
279.448	1.05
279.662	1
279.877	-0.02
280.091	-0.01
280.306	1.72
280.52	1.72
280.735	2.98
280.949	4.55
281.163	4.58
281.378	4.58
281.592	3.78
281.806	3.59
282.021	5.06
282.235	6.03
282.449	6.37
282.664	4.93
282.878	5.6
283.092	5.18
283.307	4.54
283.521	4.16
283.735	4.01
283.949	4.09
284.164	3.83
284.378	2.73
284.592	3.63
284.806	4.18
285.02	3.7
285.234	3.36
285.449	3.5
285.663	2.76
285.877	4.02
286.091	3.84
286.305	4.81
286.519	5.15
286.733	5.14
286.947	5.38
287.161	4.06
287.375	4.12
287.589	3.62
287.803	3.72
288.017	5.25
288.231	3.48
288.445	4.3
288.659	4.32
288.873	5.07
289.087	6.55
289.301	5.09
289.515	5.9
289.729	6.47
289.943	6.66
290.157	6.65
290.371	6.1
290.584	6.88
290.798	6.83
291.012	7.51
291.226	6.75
291.44	5.82
291.654	5.9
291.867	6.08
292.081	6.36
292.295	6.16
292.509	6.21
292.722	5.99
292.936	6.6
293.15	9.31
293.364	7.33
293.577	7.38
293.791	7.77
294.005	8.52
294.218	8.26
294.432	9.34
294.645	9.91
294.859	8.51
295.073	7.67
295.286	7.93
295.5	5.57
295.713	6.96
295.927	7.07
296.14	6.74
296.354	6.15
296.568	6.05
296.781	5.62
296.994	5.97
297.208	6.57
297.421	7.33
297.635	7.15
297.848	7.69
298.062	7.51
298.275	8
298.489	8.05
298.702	8.77
298.915	9.59
299.129	9.3
299.342	9.14
299.555	9.28
299.769	9.87
299.982	9.55
300.195	8.92
300.409	8.34
300.622	9.19
300.835	8.97
301.048	9.95
301.262	10.68
301.475	10.83
301.688	10.57
301.901	11.26
302.115	11.17
302.328	12.25
302.541	14.33
302.754	14.63
302.967	12.61
303.18	13.48
303.393	13.29
303.607	11.67
303.82	12.35
304.033	13.21
304.246	13.84
304.459	13.74
304.672	14.09
304.885	12.32
305.098	12.24
305.311	13.79
305.524	13.15
305.737	12.86
305.95	13.26
306.163	12.64
306.376	13.16
306.589	11.74
306.802	10.49
307.015	8.6
307.228	8.8
307.44	9.95
307.653	9.22
307.866	10.03
308.079	8.86
308.292	10.72
308.505	10.91
308.718	11.16
308.93	11.9
309.143	13.39
309.356	13.84
309.569	13.92
309.781	13.73
309.994	13.13
310.207	13.5
310.42	14.52
310.632	14.21
310.845	14.04
311.058	13.11
311.27	13.96
311.483	13.92
311.696	13.79
311.908	14.11
312.121	12.97
312.333	13.45
312.546	12.09
312.759	11.64
312.971	10.82
313.184	10.63
313.396	11.13
313.609	10.66
313.821	11.05
314.034	11.31
314.246	10.37
314.459	10.35
314.671	10.77
314.884	11.11
315.096	11.21
315.309	9.41
315.521	10.99
315.733	10.48
315.946	9.07
316.158	8.7
316.371	9.91
316.583	10.18
316.795	11.98
317.008	11.39
317.22	11.37
317.432	11.31
317.644	12.33
317.857	11.48
318.069	11.33
318.281	12.69
318.494	11.71
318.706	10.93
318.918	11.28
319.13	11.71
319.342	12.47
319.555	14.03
319.767	14.26
319.979	15.03
320.191	15.13
320.403	15.83
320.615	14.73
320.827	14.93
321.039	14.21
321.252	13.38
321.464	11.58
321.676	12.09
321.888	10.54
322.1	8.65
322.312	8.42
322.524	8.63
322.736	8.9
322.948	9.53
323.16	10.92
323.372	10.71
323.584	11.54
323.796	12.17
324.007	11.86
324.219	11.96
324.431	13.94
324.643	14.31
324.855	14.47
325.067	14.1
325.279	14.35
325.491	14.16
325.702	14.75
325.914	15.21
326.126	16.28
326.338	15.66
326.55	17.35
326.761	17.38
326.973	17.66
327.185	17.32
327.396	17.73
327.608	17.49
327.82	18.21
328.032	19.79
328.243	20.19
328.455	18.93
328.666	19.83
328.878	19.66
329.09	19.62
329.301	20.23
329.513	21.13
329.725	21.43
329.936	21.92
330.148	20.87
330.359	19.72
330.571	19.6
330.782	20.28
330.994	20.42
331.205	19.81
331.417	20.64
331.628	19.85
331.84	19.07
332.051	19.24
332.262	19.47
332.474	20.21
332.685	20.45
332.897	20.02
333.108	19.93
333.319	20.62
333.531	20.78
333.742	21.19
333.953	22.61
334.165	23.69
334.376	24.3
334.587	24.68
334.799	24.43
335.01	24.33
335.221	25.02
335.432	25.55
335.644	24.72
335.855	24.82
336.066	24.19
336.277	23.58
336.488	23.93
336.7	24.06
336.911	25.07
337.122	24.46
337.333	24.82
337.544	24.42
337.755	25.2
337.966	26.25
338.177	26.1
338.388	26.74
338.599	26.99
338.811	27.23
339.022	26.46
339.233	25.26
339.444	26.39
339.655	26.27
339.866	26.81
340.076	26.3
340.287	25.94
340.498	25.94
340.709	26.52
340.92	26.65
341.131	26.02
341.342	26.1
341.553	26.34
341.764	26.25
341.975	26.23
342.185	25.58
342.396	24.9
342.607	24.96
342.818	25.59
343.029	24.96
343.239	24.49
343.45	24.02
343.661	23.36
343.872	22.48
344.082	22.69
344.293	22.84
344.504	23.16
344.714	23.88
344.925	23.28
345.136	22.94
345.346	22.85
345.557	23.7
345.768	24.58
345.978	25.54
346.189	26.44
346.399	25.55
346.61	25.46
346.821	25.53
347.031	25.52
347.242	25.81
347.452	26.52
347.663	25.85
347.873	24.88
348.084	24.57
348.294	24.76
348.504	24.47
348.715	25.33
348.925	25.38
349.136	25.22
349.346	24.96
349.557	24.97
349.767	24.4
349.977	24.99
350.188	25.24
350.398	24.49
350.608	24.02
350.819	23.64
351.029	22.62
351.239	22.88
351.449	23.19
351.66	23.16
351.87	23.34
352.08	23.35
352.29	23.73
352.501	23.42
352.711	23.88
352.921	23.76
353.131	23.8
353.341	25.06
353.552	24.67
353.762	24.58
353.972	24.93
354.182	25.33
354.392	24.75
354.602	24.23
354.812	24.32
355.022	24.29
355.232	24.66
355.442	24.87
355.652	24.11
355.862	24.04
356.072	24.32
356.282	23.93
356.492	23.13
356.702	24
356.912	24.71
357.122	24.66
357.332	24.74
357.542	24.69
357.752	24.42
357.962	24.5
358.171	24.54
358.381	23.71
358.591	24.13
358.801	24.91
359.011	24.43
359.221	23.75
359.43	24.03
359.64	24.26
359.85	24.61
360.06	24.93
360.269	25.16
360.479	25.85
360.689	26.34
360.899	25.52
361.108	25.68
361.318	25.74
361.528	25.37
361.737	25.3
361.947	25.42
362.156	25.03
362.366	24.93
362.576	24.97
362.785	23.96
362.995	24.41
363.204	24.76
363.414	24.29
363.623	24.07
363.833	24.59
364.042	24.13
364.252	23.71
364.461	24.39
364.671	24.9
364.88	24.4
365.09	24.95
365.299	24.45
365.509	24.25
365.718	24.13
365.927	24.41
366.137	24.17
366.346	23.48
366.555	23.26
366.765	22.27
366.974	21.37
367.183	21.74
367.393	21.1
367.602	20.92
367.811	20.77
368.021	20.59
368.23	20
368.439	19.62
368.648	19.99
368.857	20.3
369.067	20.88
369.276	21.11
369.485	20.52
369.694	21.37
369.903	22.21
370.112	22.72
370.321	22.55
370.531	23.19
370.74	23.52
370.949	24.39
371.158	24.28
371.367	23.74
371.576	23.49
371.785	23.51
371.994	23
372.203	22.61
372.412	22.86
372.621	22.98
372.83	23.15
373.039	23.32
373.248	22.79
373.457	22.67
373.666	23.09
373.874	22.92
374.083	22.72
374.292	22.81
374.501	22.41
374.71	22.1
374.919	21.83
375.128	20.65
375.336	20.35
375.545	20.03
375.754	20.19
375.963	19.91
376.171	20.07
376.38	20.29
376.589	20.34
376.798	20.03
377.006	20.28
377.215	20.22
377.424	20.93
377.632	20.97
377.841	21.21
378.05	21.13
378.258	20.77
378.467	20.91
378.675	20.82
378.884	20.98
379.093	21.41
379.301	20.65
379.51	20.73
379.718	20.65
379.927	20.19
380.135	20.24
380.344	20.39
380.552	20.57
380.761	20.49
380.969	20.93
381.177	20.69
381.386	21.06
381.594	21.23
381.803	21.73
382.011	22.08
382.219	22.6
382.428	22.53
382.636	22.16
382.845	22.45
383.053	22.2
383.261	21.94
383.469	22.21
383.678	21.41
383.886	21.56
384.094	21
384.302	20.41
384.511	20.24
384.719	20.13
384.927	19.88
385.135	19.39
385.343	19.89
385.552	19.27
385.76	19.02
385.968	19.17
386.176	19.09
386.384	19.09
386.592	19.08
386.8	18.83
387.008	19.08
387.216	19.23
387.424	19.77
387.633	19.69
387.841	20.12
388.049	20.25
388.257	20.11
388.465	19.78
388.672	20.17
388.88	20.03
389.088	19.99
389.296	19.6
389.504	19.79
389.712	19.65
389.92	19.78
390.128	19.34
390.336	19.03
390.544	19.11
390.751	19.14
390.959	19.1
391.167	19.35
391.375	19.31
391.583	19.25
391.79	19.07
391.998	18.58
392.206	18.19
392.414	18.36
392.621	18.16
392.829	18.08
393.037	18.34
393.244	18.11
393.452	18.12
393.66	18.06
393.867	18.08
394.075	18.16
394.283	18.38
394.49	18.22
394.698	18.7
394.905	19
395.113	18.98
395.32	18.71
395.528	18.51
395.735	18.39
395.943	18.79
396.15	18.68
396.358	18.55
396.565	18.37
396.773	18.62
396.98	18.25
397.188	18.03
397.395	18.05
397.602	17.95
397.81	18.16
398.017	18.18
398.225	17.87
398.432	18.22
398.639	18.27
398.847	18.48
399.054	18.54
399.261	18.48
399.468	18.48
399.676	18.61
399.883	18.72
400.09	18.52
400.297	18.53
400.505	18.26
400.712	18.28
400.919	18.13
401.126	18.11
401.333	18.29
401.54	18.29
401.748	18.35
401.955	18.03
402.162	18.16
402.369	18.43
402.576	18.7
402.783	19
402.99	18.76
403.197	18.81
403.404	18.65
403.611	18.53
403.818	18.7
404.025	18.57
404.232	18.76
404.439	18.71
404.646	18.54
404.853	18.4
405.06	18.24
405.267	18.32
405.474	18.45
405.681	18.56
405.887	18.27
406.094	18.06
406.301	18.03
406.508	17.87
406.715	17.75
406.922	17.78
407.128	17.6
407.335	17.55
407.542	17.46
407.749	17.19
407.955	17.33
408.162	17.32
408.369	17.76
408.575	17.84
408.782	18.08
408.989	18.14
409.195	18.07
409.402	18.14
409.609	18.24
409.815	18.26
410.022	18.42
410.228	18.39
410.435	18.34
410.642	18.08
410.848	18.24
411.055	17.86
411.261	17.93
411.468	18.26
411.674	18.38
411.881	18.55
412.087	18.74
412.294	18.86
412.5	18.84
412.706	18.85
412.913	18.51
413.119	18.29
413.326	18.7
413.532	18.78
413.738	18.6
413.945	18.36
414.151	18.23
414.357	18.07
414.564	17.84
414.77	17.9
414.976	17.76
415.182	18.16
415.389	18.27
415.595	18.02
415.801	17.96
416.007	17.94
416.214	17.88
416.42	17.79
416.626	17.65
416.832	17.6
417.038	17.38
417.244	17.75
417.45	17.63
417.657	17.79
417.863	17.88
418.069	17.99
418.275	18.07
418.481	18.15
418.687	18.36
418.893	18.41
419.099	18.47
419.305	18.59
419.511	18.39
419.717	18.45
419.923	18.41
420.129	18.33
420.335	18.22
420.541	18.16
420.746	18.15
420.952	18.07
421.158	18.09
421.364	18.16
421.57	18.14
421.776	18.19
421.982	18.09
422.187	17.98
422.393	17.86
422.599	17.82
422.805	17.86
423.01	17.82
423.216	17.78
423.422	17.89
423.628	17.89
423.833	17.9
424.039	17.95
424.245	17.89
424.45	17.95
424.656	18.24
424.862	18.33
425.067	18.34
425.273	18.26
425.478	18.31
425.684	18.17
425.889	18.13
426.095	18.04
426.301	17.96
426.506	18.09
426.712	18.08
426.917	17.69
427.123	17.75
427.328	17.64
427.533	17.79
427.739	17.77
427.944	17.78
428.15	17.74
428.355	17.9
428.561	17.89
428.766	17.82
428.971	17.81
429.177	18.07
429.382	17.64
429.587	17.49
429.793	17.38
429.998	17.35
430.203	17.22
430.408	17.19
430.614	17.07
430.819	17.11
431.024	17.24
431.229	17.39
431.434	17.46
431.64	17.59
431.845	17.87
432.05	18.02
432.255	17.92
432.46	18.12
432.665	18.17
432.87	18.46
433.076	18.43
433.281	18.44
433.486	18.43
433.691	18.36
433.896	18.49
434.101	18.36
434.306	18.42
434.511	18.38
434.716	18.34
434.921	18.5
435.126	18.31
435.331	18.45
435.535	18.22
435.74	18.16
435.945	18.19
436.15	18.21
436.355	18.37
436.56	18.26
436.765	18.47
436.97	18.55
437.174	18.36
437.379	18.18
437.584	18.31
437.789	18.62
437.993	18.72
438.198	18.72
438.403	18.87
438.608	18.84
438.812	18.78
439.017	18.78
439.222	18.8
439.426	18.71
439.631	18.86
439.836	18.67
440.04	18.47
440.245	18.45
440.45	18.47
440.654	18.44
440.859	18.4
441.063	18.48
441.268	18.46
441.472	18.38
441.677	18.48
441.881	18.52
442.086	18.55
442.29	18.49
442.495	18.41
442.699	18.47
442.904	18.34
443.108	18.37
443.312	18.29
443.517	18.14
443.721	18.18
443.925	18.12
444.13	18.1
444.334	18.19
444.538	18.4
444.743	18.33
444.947	18.22
445.151	18.09
445.356	18.03
445.56	18.15
445.764	18.3
445.968	18.29
446.173	18.35
446.377	18.37
446.581	18.28
446.785	18.18
446.989	18.22
447.193	18.22
447.398	18.28
447.602	18.34
447.806	18.28
448.01	18.14
448.214	18.13
448.418	18.13
448.622	17.96
448.826	18
449.03	18.08
449.234	18.15
449.438	18.07
449.642	18.11
449.846	18.11
450.05	18.1
450.254	17.9
450.458	17.77
450.662	17.61
450.866	17.61
451.069	17.57
451.273	17.53
451.477	17.36
451.681	17.45
451.885	17.42
452.089	17.49
452.292	17.54
452.496	17.98
452.7	18.09
452.904	18.02
453.107	18.16
453.311	18.12
453.515	18.08
453.719	18.29
453.922	18.31
454.126	18.34
454.33	18.22
454.533	18.25
454.737	18.1
454.94	18.1
455.144	18.26
455.348	18.28
455.551	18.24
455.755	18.21
455.958	18.05
456.162	17.95
456.365	17.78
456.569	17.89
456.772	17.97
456.976	17.84
457.179	17.98
457.383	17.87
457.586	17.63
457.79	17.59
457.993	17.71
458.196	17.67
458.4	17.8
458.603	18.07
458.807	17.84
459.01	17.9
459.213	18.06
459.417	17.96
459.62	17.85
459.823	18.14
460.026	18.16
460.23	18.15
460.433	18.25
460.636	18.18
460.839	18.12
461.042	18.23
461.246	18.04
461.449	18.01
461.652	17.92
461.855	18.07
462.058	17.95
462.261	18
462.464	17.93
462.668	17.83
462.871	17.87
463.074	17.79
463.277	17.77
463.48	17.77
463.683	17.75
463.886	17.98
464.089	18.09
464.292	17.86
464.495	17.86
464.698	17.82
464.901	17.85
465.104	17.94
465.306	17.96
465.509	18.01
465.712	17.97
465.915	17.93
466.118	17.76
466.321	17.68
466.524	17.77
466.726	17.67
466.929	17.81
467.132	17.78
467.335	17.72
467.538	17.66
467.74	17.59
467.943	17.64
468.146	17.7
468.348	17.78
468.551	17.69
468.754	17.88
468.956	17.81
469.159	17.69
469.362	17.67
469.564	17.66
469.767	17.69
469.969	17.78
470.172	17.87
470.375	17.94
470.577	17.71
470.78	17.86
470.982	17.76
471.185	17.94
471.387	17.95
471.59	17.94
471.792	17.96
471.995	18.14
472.197	18.12
472.399	18.04
472.602	17.92
472.804	18.18
473.007	18.07
473.209	18.05
473.411	18.03
473.614	18.07
473.816	18.16
474.018	18.04
474.22	17.86
474.423	17.73
474.625	17.64
474.827	17.75
475.03	17.68
475.232	17.81
475.434	17.79
475.636	17.9
475.838	17.99
476.04	18.01
476.243	18.2
476.445	18.26
476.647	18.42
476.849	18.35
477.051	18.27
477.253	18.15
477.455	18.06
477.657	18.11
477.859	18.08
478.061	18.04
478.263	18.05
478.465	18.04
478.667	18.05
478.869	18.09
479.071	18.25
479.273	18.26
479.475	18.2
479.677	18.25
479.879	18.12
480.081	18.05
480.283	18.08
480.485	18.08
480.686	17.96
480.888	17.91
481.09	17.87
481.292	17.79
481.494	17.87
481.695	18.05
481.897	17.98
482.099	18.07
482.301	18.16
482.502	18.08
482.704	18.09
482.906	18.2
483.107	18.29
483.309	18.22
483.511	18.24
483.712	18.2
483.914	18.22
484.115	18.26
484.317	18.25
484.519	18.19
484.72	18.16
484.922	18.15
485.123	18.07
485.325	18
485.526	18.04
485.728	18.01
485.929	18
486.131	17.95
486.332	17.9
486.534	17.87
486.735	17.95
486.936	18.05
487.138	17.98
487.339	18.05
487.541	18.11
487.742	18.08
487.943	18.14
488.144	18.18
488.346	18.16
488.547	18.2
488.748	18.19
488.95	18.14
489.151	18.1
489.352	18.14
489.553	18.04
489.755	17.88
489.956	17.94
490.157	17.81
490.358	17.71
490.559	17.72
490.76	17.69
490.961	17.73
491.163	17.66
491.364	17.7
491.565	17.69
491.766	17.77
491.967	17.82
492.168	17.79
492.369	17.92
492.57	17.94
492.771	17.97
492.972	18
493.173	18.08
493.374	18.23
493.575	18.12
493.776	18.17
493.976	18.22
494.177	18.24
494.378	18.22
494.579	18.17
494.78	18.23
494.981	18.23
495.182	18.29
495.382	18.19
495.583	18.28
495.784	18.38
495.985	18.42
496.185	18.29
496.386	18.39
496.587	18.45
496.788	18.39
496.988	18.47
497.189	18.52
497.39	18.56
497.59	18.48
497.791	18.39
497.992	18.58
498.192	18.64
498.393	18.72
498.593	18.72
498.794	18.62
498.994	18.67
499.195	18.51
499.395	18.52
499.596	18.36
499.796	18.48
499.997	18.45
500.197	18.42
500.398	18.41
500.598	18.45
500.799	18.34
500.999	18.61
501.199	18.69
501.4	18.87
501.6	18.76
501.801	18.82
502.001	18.78
502.201	18.9
502.402	18.76
502.602	18.85
502.802	18.92
503.002	19.19
503.203	19.05
503.403	18.98
503.603	18.96
503.803	19.1
504.003	19.18
504.204	19.18
504.404	19.24
504.604	19.3
504.804	18.96
505.004	18.75
505.204	18.7
505.404	18.75
505.604	18.93
505.804	18.91
506.005	18.98
506.205	18.98
506.405	19
506.605	18.87
506.805	18.82
507.005	19.02
507.204	19.1
507.404	19.05
507.604	19.12
507.804	19.03
508.004	19.1
508.204	19.07
508.404	18.93
508.604	18.93
508.804	19.07
509.003	19.11
509.203	19.15
509.403	19.26
509.603	19.43
509.803	19.4
510.002	19.36
510.202	19.29
510.402	19.34
510.602	19.59
510.801	19.77
511.001	19.7
511.201	19.72
511.4	19.94
511.6	19.9
511.8	19.89
511.999	19.89
512.199	19.93
512.398	20.01
512.598	20.05
512.797	19.96
512.997	19.93
513.197	20.09
513.396	20.15
513.596	19.91
513.795	19.89
513.994	19.92
514.194	20.07
514.393	20.09
514.593	20.15
514.792	20.1
514.992	20.2
515.191	20.14
515.39	20.04
515.59	20.08
515.789	20.22
515.988	20.42
516.188	20.36
516.387	20.36
516.586	20.38
516.786	20.45
516.985	20.57
517.184	20.73
517.383	20.89
517.582	20.99
517.782	21.07
517.981	21.11
518.18	21.09
518.379	21.21
518.578	21.21
518.777	21.35
518.976	21.44
519.176	21.42
519.375	21.33
519.574	21.21
519.773	21.21
519.972	21.24
520.171	21.27
520.37	21.28
520.569	21.21
520.768	21.25
520.967	21.3
521.166	21.24
521.365	21.34
521.564	21.43
521.762	21.56
521.961	21.5
522.16	21.47
522.359	21.64
522.558	21.85
522.757	21.94
522.956	21.93
523.154	21.91
523.353	21.95
523.552	21.88
523.751	21.89
523.949	22.01
524.148	22.13
524.347	22.21
524.546	22.09
524.744	22.02
524.943	21.96
525.142	22.07
525.34	22.11
525.539	22.06
525.737	22.07
525.936	22.06
526.135	22.05
526.333	22.01
526.532	21.98
526.73	22.11
526.929	22.07
527.127	22.15
527.326	22.04
527.524	22.05
527.723	22.11
527.921	22.1
528.12	22.12
528.318	22.15
528.516	22.26
528.715	22.35
528.913	22.33
529.112	22.36
529.31	22.35
529.508	22.43
529.707	22.41
529.905	22.43
530.103	22.51
530.301	22.52
530.5	22.55
530.698	22.51
530.896	22.47
531.094	22.45
531.293	22.51
531.491	22.63
531.689	22.69
531.887	22.72
532.085	22.79
532.283	22.81
532.481	22.89
532.68	22.93
532.878	22.99
533.076	23.06
533.274	23.16
533.472	23.17
533.67	23.13
533.868	23.16
534.066	23.26
534.264	23.32
534.462	23.29
534.66	23.31
534.858	23.28
535.056	23.31
535.253	23.42
535.451	23.51
535.649	23.59
535.847	23.62
536.045	23.68
536.243	23.66
536.441	23.65
536.638	23.77
536.836	23.87
537.034	24.01
537.232	23.96
537.43	23.82
537.627	23.76
537.825	23.73
538.023	23.83
538.22	23.83
538.418	23.84
538.616	23.78
538.813	23.75
539.011	23.79
539.209	23.73
539.406	23.73
539.604	23.85
539.801	23.9
539.999	23.86
540.196	23.84
540.394	23.89
540.591	24
540.789	24.05
540.986	24.11
541.184	24.11
541.381	24.2
541.579	24.36
541.776	24.27
541.974	24.29
542.171	24.41
542.368	24.48
542.566	24.53
542.763	24.55
542.96	24.67
543.158	24.66
543.355	24.75
543.552	24.79
543.75	24.79
543.947	24.99
544.144	25.08
544.341	25.05
544.539	25.15
544.736	25.17
544.933	25.16
545.13	25.12
545.327	25.12
545.524	24.98
545.722	25.01
545.919	25.11
546.116	25.05
546.313	25.12
546.51	25.14
546.707	25.21
546.904	25.21
547.101	25.23
547.298	25.27
547.495	25.41
547.692	25.5
547.889	25.51
548.086	25.41
548.283	25.56
548.48	25.4
548.677	25.4
548.874	25.29
549.07	25.45
549.267	25.43
549.464	25.47
549.661	25.49
549.858	25.5
550.055	25.64
550.251	25.68
550.448	25.58
550.645	25.86
550.842	25.97
551.038	26.01
551.235	25.98
551.432	26.17
551.628	26.17
551.825	26.21
552.022	26.34
552.218	26.23
552.415	26.36
552.612	26.46
552.808	26.42
553.005	26.41
553.201	26.27
553.398	26.28
553.594	26.26
553.791	26.2
553.987	26.17
554.184	26.13
554.38	26.23
554.577	26.16
554.773	26.24
554.97	26.03
555.166	25.98
555.362	26.24
555.559	26.18
555.755	26.24
555.952	26.37
556.148	26.55
556.344	26.57
556.541	26.53
556.737	26.62
556.933	26.46
557.129	26.73
557.326	26.97
557.522	27.1
557.718	27.27
557.914	27.39
558.11	27.42
558.307	27.35
558.503	27.57
558.699	27.69
558.895	27.66
559.091	27.98
559.287	27.87
559.483	27.83
559.679	27.89
559.876	27.86
560.072	27.78
560.268	28.08
560.464	28.16
560.66	28.22
560.856	28.02
561.052	28.24
561.247	27.97
561.443	28.11
561.639	28.26
561.835	28.11
562.031	28.19
562.227	28.27
562.423	28.14
562.619	28.18
562.815	28.12
563.01	28.47
563.206	28.39
563.402	28.58
563.598	28.62
563.793	28.6
563.989	28.51
564.185	28.53
564.381	28.68
564.576	28.72
564.772	28.68
564.968	28.58
565.163	28.63
565.359	28.7
565.555	28.8
565.75	28.94
565.946	29.08
566.141	29.17
566.337	29.31
566.532	29.2
566.728	29.17
566.923	29.29
567.119	29.4
567.314	29.26
567.51	29.26
567.705	29.21
567.901	29.06
568.096	29.03
568.292	29.1
568.487	29.08
568.682	29.23
568.878	29.36
569.073	29.3
569.268	29.5
569.464	29.73
569.659	29.85
569.854	29.88
570.05	29.9
570.245	29.94
570.44	30.02
570.635	29.91
570.831	29.97
571.026	29.95
571.221	30.06
571.416	30.07
571.611	29.87
571.806	29.86
572.002	30.01
572.197	30.07
572.392	30.15
572.587	30.23
572.782	30.41
572.977	30.36
573.172	30.43
573.367	30.47
573.562	30.58
573.757	30.81
573.952	30.83
574.147	30.66
574.342	30.87
574.537	30.78
574.732	30.82
574.927	30.71
575.121	30.67
575.316	30.63
575.511	30.55
575.706	30.4
575.901	30.3
576.096	30.37
576.29	30.73
576.485	30.7
576.68	30.82
576.875	30.84
577.069	31.02
577.264	31.36
577.459	31.49
577.654	31.69
577.848	31.85
578.043	32.11
578.238	32.01
578.432	32.12
578.627	31.94
578.821	32.11
579.016	32.02
579.21	31.98
579.405	31.93
579.6	32.15
579.794	32.13
579.989	32.15
580.183	32.04
580.378	32.39
580.572	32.13
580.766	32.43
580.961	32.46
581.155	32.48
581.35	32.64
581.544	32.58
581.738	32.3
581.933	32.42
582.127	32.33
582.321	32.43
582.516	32.26
582.71	32.18
582.904	32.1
583.099	31.88
583.293	32.12
583.487	31.95
583.681	32.1
583.875	32.16
584.07	31.93
584.264	32.22
584.458	32.28
584.652	32.21
584.846	32.33
585.04	32.5
585.234	32.76
585.428	32.59
585.623	32.63
585.817	32.29
586.011	32.42
586.205	32.67
586.399	32.75
586.593	32.82
586.787	32.72
586.981	32.87
587.174	32.84
587.368	32.84
587.562	32.9
587.756	32.84
587.95	33.47
588.144	33.67
588.338	33.68
588.532	33.41
588.725	33.23
588.919	33.44
589.113	33.16
589.307	33.1
589.501	32.82
589.694	32.81
589.888	33.05
590.082	32.72
590.275	32.59
590.469	32.82
590.663	32.89
590.856	33.05
591.05	33.23
591.244	33.45
591.437	33.56
591.631	33.61
591.824	33.69
592.018	33.52
592.212	33.43
592.405	33.36
592.599	33
592.792	33.08
592.986	32.91
593.179	32.95
593.372	33.2
593.566	33.28
593.759	33.88
593.953	33.92
594.146	33.96
594.339	34.16
594.533	34.32
594.726	34.6
594.92	34.55
595.113	34.82
595.306	34.83
595.499	34.83
595.693	34.75
595.886	34.43
596.079	34.49
596.272	34.6
596.466	34.67
596.659	34.63
596.852	34.64
597.045	34.6
597.238	34.5
597.431	34.58
597.624	34.52
597.818	34.51
598.011	34.43
598.204	34.49
598.397	34.35
598.59	34.21
598.783	34.16
598.976	34.06
599.169	34.25
599.362	34.49
599.555	34.34
599.748	34.42
599.941	34.61
600.134	34.73
600.326	34.89
600.519	35.14
600.712	35.38
600.905	35.43
601.098	35.55
601.291	35.43
601.483	35.13
601.676	35.22
601.869	35.09
602.062	35.11
602.255	35.35
602.447	35.15
602.64	35.2
602.833	35.29
603.025	35.61
603.218	35.72
603.411	35.57
603.603	35.71
603.796	35.68
603.989	35.76
604.181	35.75
604.374	35.59
604.566	35.83
604.759	35.91
604.951	35.69
605.144	35.43
605.336	35.36
605.529	35.58
605.721	35.51
605.914	35.39
606.106	35.29
606.299	35.29
606.491	35.27
606.683	35.12
606.876	34.91
607.068	35.1
607.26	35.22
607.453	35.14
607.645	35.18
607.837	35.1
608.03	35.12
608.222	35.19
608.414	35.16
608.606	35.19
608.799	35.22
608.991	35.29
609.183	35.26
609.375	35.06
609.567	35.08
609.759	35.03
609.952	35.14
610.144	35.45
610.336	35.47
610.528	35.42
610.72	35.58
610.912	35.6
611.104	35.79
611.296	35.93
611.488	36.34
611.68	36.48
611.872	36.57
612.064	36.68
612.256	36.6
612.448	36.59
612.64	36.83
612.832	36.9
613.023	36.7
613.215	36.47
613.407	36.4
613.599	36.35
613.791	36.3
613.983	36.35
614.174	36.54
614.366	36.54
614.558	36.77
614.75	36.54
614.941	36.56
615.133	36.76
615.325	36.89
615.516	36.72
615.708	36.6
615.9	36.82
616.091	36.68
616.283	36.42
616.475	36.37
616.666	36.4
616.858	36.43
617.049	36.32
617.241	36.38
617.432	36.62
617.624	36.83
617.815	37.06
618.007	37.02
618.198	36.95
618.39	37.2
618.581	37.1
618.773	37.02
618.964	37.1
619.155	37.27
619.347	37.23
619.538	37.21
619.729	37.17
619.921	37.05
620.112	37.06
620.303	37.29
620.494	37.16
620.686	37.4
620.877	37.32
621.068	37.3
621.259	37.11
621.451	37.06
621.642	36.89
621.833	36.98
622.024	37.01
622.215	37.05
622.406	37.01
622.597	37.08
622.788	36.95
622.98	37.05
623.171	37.16
623.362	37.2
623.553	37.37
623.744	37.51
623.935	37.35
624.126	37.32
624.317	37.3
624.508	37.3
624.698	37.3
624.889	37.48
625.08	37.62
625.271	37.69
625.462	37.61
625.653	37.58
625.844	37.35
626.034	37.52
626.225	37.6
626.416	37.3
626.607	37.28
626.798	37.21
626.988	37.19
627.179	37.16
627.37	37.01
627.56	37.03
627.751	37.18
627.942	37.44
628.132	37.22
628.323	37.06
628.514	37.34
628.704	37.45
628.895	37.39
629.085	37.26
629.276	37
629.466	37.31
629.657	37.56
629.847	37.38
630.038	37.15
630.228	37.38
630.419	37.68
630.609	37.51
630.8	37.58
630.99	37.73
631.181	37.83
631.371	38.1
631.561	37.82
631.752	37.55
631.942	37.48
632.132	37.46
632.323	37.49
632.513	37.41
632.703	37.47
632.893	37.61
633.084	37.74
633.274	37.69
633.464	37.68
633.654	37.8
633.844	37.68
634.034	38.07
634.225	38.23
634.415	38.36
634.605	38.34
634.795	38.5
634.985	38.16
635.175	37.89
635.365	37.79
635.555	37.87
635.745	37.79
635.935	38.16
636.125	37.73
636.315	37.67
636.505	37.59
636.695	37.57
636.885	37.47
637.075	37.82
637.265	38.31
637.455	38.4
637.644	38.41
637.834	38.37
638.024	38.27
638.214	38.34
638.404	38.49
638.593	38.38
638.783	38.21
638.973	38.3
639.163	37.8
639.352	37.64
639.542	37.86
639.732	37.92
639.921	38.08
640.111	38.37
640.301	38.41
640.49	38.26
640.68	38.43
640.87	38.43
641.059	38.68
641.249	39.13
641.438	39.12
641.628	39.02
641.817	38.97
642.007	39.19
642.196	39.04
642.386	38.81
642.575	38.83
642.764	38.88
642.954	38.95
643.143	38.73
643.333	38.68
643.522	38.37
643.711	38.19
643.901	38.04
644.09	37.86
644.279	37.87
644.469	38.14
644.658	38.35
644.847	37.91
645.036	38.02
645.226	38.42
645.415	38.36
645.604	38.55
645.793	38.62
645.982	38.51
646.171	38.5
646.361	38.21
646.55	38.76
646.739	38.91
646.928	39.51
647.117	39.55
647.306	39.13
647.495	38.88
647.684	38.51
647.873	38.53
648.062	38.92
648.251	39.07
648.44	39.24
648.629	38.76
648.818	38.29
649.007	38.01
649.196	37.76
649.384	37.64
649.573	38.26
649.762	38.71
649.951	38.51
650.14	38.33
650.328	38.35
650.517	38.47
650.706	38.85
650.895	39.16
651.083	39.26
651.272	39.38
651.461	39.86
651.65	39.73
651.838	39.64
652.027	39.85
652.216	39.78
652.404	39.68
652.593	39.67
652.781	39.59
652.97	39.87
653.158	39.61
653.347	39.76
653.535	39.14
653.724	39.08
653.912	39.04
654.101	39.29
654.289	39.26
654.478	38.9
654.666	38.84
654.855	38.76
655.043	38.25
655.231	38.52
655.42	38.92
655.608	38.96
655.796	39.15
655.985	39.21
656.173	39.17
656.361	39.52
656.55	39.96
656.738	40.18
656.926	40.41
657.114	40.23
657.302	39.96
657.491	39.86
657.679	40.02
657.867	39.86
658.055	40.15
658.243	40.04
658.431	39.87
658.619	39.84
658.807	39.62
658.996	39.45
659.184	39.85
659.372	39.96
659.56	39.71
659.748	40.06
659.936	39.97
660.124	39.58
660.311	39.79
660.499	39.69
660.687	39.72
660.875	39.6
661.063	39.67
661.251	39.56
661.439	39.65
661.627	39.87
661.814	39.42
662.002	39.43
662.19	39.8
662.378	39.7
662.565	39.72
662.753	39.76
662.941	40.14
663.129	40.12
663.316	40.04
663.504	40.03
663.692	39.84
663.879	39.98
664.067	39.87
664.254	39.76
664.442	39.89
664.63	40
664.817	40.27
665.005	40.19
665.192	40.22
665.38	40.23
665.567	40.02
665.755	40.15
665.942	40.75
666.13	41.12
666.317	41.33
666.504	41.29
666.692	41.24
666.879	41.16
667.067	41.62
667.254	41.1
667.441	40.87
667.629	40.59
667.816	40.53
668.003	40.06
668.19	39.97
668.378	39.91
668.565	39.94
668.752	40.4
668.939	39.92
669.127	40.26
669.314	40.6
669.501	40.72
669.688	41.31
669.875	41.52
670.062	41.76
670.249	41.77
670.436	41.66
670.623	41.66
670.81	41.43
670.997	41.98
671.184	41.27
671.371	41.57
671.558	41.86
671.745	41.96
671.932	41.78
672.119	41.98
672.306	42.1
672.493	42.55
672.68	42.7
672.867	42.74
673.054	42.71
673.24	42.84
673.427	42.56
673.614	42.39
673.801	42.16
673.988	42.43
674.174	41.91
674.361	41.52
674.548	41.2
674.734	40.77
674.921	40.77
675.108	41.02
675.294	40.93
675.481	41
675.668	41.19
675.854	41.43
676.041	40.92
676.227	41.21
676.414	41.38
676.601	41.26
676.787	41.39
676.974	41.44
677.16	40.86
677.347	40.77
677.533	40.98
677.719	40.9
677.906	40.41
678.092	41.05
678.279	41.26
678.465	41.19
678.651	41.4
678.838	41.52
679.024	41.48
679.21	42.07
679.397	42.08
679.583	41.76
679.769	41.64
679.955	41.83
680.142	41.15
680.328	40.82
680.514	40.95
680.7	41.09
680.886	41.07
681.073	41.12
681.259	41.08
681.445	41.34
681.631	41.26
681.817	41.45
682.003	41.82
682.189	42.22
682.375	42.61
682.561	42.6
682.747	42.51
682.933	42.63
683.119	42.32
683.305	42.01
683.491	42
683.677	42.36
683.863	42.23
684.049	41.96
684.235	42.31
684.42	41.79
684.606	41.55
684.792	41.43
684.978	41.6
685.164	41.86
685.349	41.92
685.535	41.96
685.721	41.68
685.907	42.06
686.092	41.85
686.278	41.48
686.464	41.34
686.649	41.76
686.835	41.8
687.021	41.73
687.206	41.48
687.392	41.89
687.577	41.71
687.763	42.1
687.948	41.87
688.134	41.93
688.319	42.16
688.505	42.7
688.69	42.4
688.876	42.23
689.061	42.22
689.247	42.5
689.432	42.06
689.618	42.01
689.803	41.66
689.988	41.97
690.174	42.06
690.359	41.31
690.544	41.29
690.73	41.61
690.915	41.59
691.1	41.45
691.285	41.38
691.471	41.36
691.656	41.44
691.841	41.48
692.026	41.28
692.211	41.45
692.396	42.24
692.582	42.08
692.767	42.01
692.952	42.1
693.137	41.79
693.322	42.31
693.507	42.38
693.692	42.45
693.877	42.57
694.062	42.33
694.247	42.22
694.432	42.37
694.617	42.36
694.802	42.37
694.987	42.34
695.172	42.71
695.357	42.29
695.541	42.37
695.726	42.18
695.911	42.32
696.096	42.7
696.281	42.83
696.466	42.75
696.65	42.41
696.835	42.71
697.02	42.85
697.204	43.61
697.389	43.84
697.574	43.69
697.759	43.55
697.943	43.78
698.128	43.56
698.312	43.56
698.497	43.36
698.682	43.86
698.866	43.56
699.051	43.55
699.235	42.98
699.42	42.73
699.604	42.79
699.789	42.88
699.973	42.88
700.158	43.02
700.342	42.84
700.527	42.93
700.711	42.76
700.895	42.63
701.08	42.26
701.264	41.69
701.448	41.43
701.633	41.43
701.817	41.54
702.001	41.17
702.186	41.25
702.37	41.64
702.554	41.6
702.738	41.67
702.923	41.8
703.107	42.32
703.291	43.36
703.475	43.54
703.659	43.72
703.843	43.71
704.027	43.57
704.212	43.6
704.396	43.18
704.58	42.89
704.764	43.17
704.948	43.78
705.132	43.75
705.316	43.72
705.5	44.05
705.684	43.76
705.868	43.69
706.052	43.13
706.235	42.95
706.419	42.77
706.603	42.5
706.787	41.96
706.971	41.48
707.155	41.75
707.339	41.88
707.522	41.88
707.706	41.8
707.89	41.52
708.074	42.17
708.257	41.79
708.441	42.61
708.625	43.18
708.808	43.87
708.992	44.17
709.176	43.73
709.359	43.3
709.543	43.04
709.727	43.37
709.91	43.46
710.094	43.3
710.277	43.95
710.461	43.4
710.644	43.29
710.828	42.74
711.011	42.46
711.195	42.5
711.378	42.58
711.562	42.78
711.745	43.1
711.928	43.36
712.112	43.62
712.295	43.61
712.478	43.53
712.662	43.08
712.845	43.53
713.028	43.67
713.212	43.33
713.395	43.23
713.578	43.45
713.761	43.18
713.945	43.19
714.128	43.64
714.311	43.75
714.494	43.64
714.677	44.25
714.86	43.69
715.043	43.78
715.227	44.5
715.41	44.45
715.593	44.63
715.776	44.76
715.959	44.97
716.142	44.47
716.325	44.16
716.508	44.87
716.691	45.04
716.874	45.33
717.057	45.75
717.239	45.65
717.422	45.39
717.605	45.2
717.788	45.08
717.971	44.36
718.154	44.41
718.337	44.22
718.519	44.02
718.702	43.86
718.885	43.46
719.068	43.56
719.25	43.04
719.433	43.65
719.616	43.22
719.798	43.1
719.981	43.84
720.164	44.14
720.346	43.88
720.529	44.1
720.712	44.12
720.894	44.55
721.077	43.72
721.259	44.31
721.442	44.22
721.624	44.59
721.807	44.7
721.989	44.51
722.172	44.12
722.354	44.36
722.537	43.47
722.719	43.56
722.901	43.39
723.084	43.68
723.266	43.8
723.448	43.37
723.631	44.01
723.813	43.78
723.995	43.43
724.178	43.18
724.36	43.15
724.542	43.44
724.724	43.46
724.907	43.98
725.089	43.42
725.271	42.94
725.453	43.32
725.635	42.65
725.817	43.27
725.999	44.6
726.181	44.65
726.364	44.85
726.546	45.11
726.728	45.08
726.91	44.8
727.092	44.95
727.274	45.47
727.456	45.62
727.638	45.62
727.819	45.28
728.001	44.39
728.183	44.27
728.365	44.29
728.547	45.02
728.729	44.88
728.911	44.85
729.093	44.72
729.274	44.85
729.456	44.81
729.638	44.83
729.82	44.61
730.001	45.23
730.183	45.44
730.365	45.83
730.546	45.61
730.728	45.47
730.91	45.65
731.091	45.74
731.273	44.97
731.455	44.99
731.636	45.11
731.818	45.32
731.999	44.91
732.181	45.71
732.362	45.33
732.544	45.07
732.725	45.57
732.907	45.14
733.088	45.43
733.27	45.86
733.451	45.7
733.633	46.23
733.814	46.15
733.995	46.5
734.177	45.92
734.358	46.43
734.539	46.02
734.721	45.57
734.902	46.07
735.083	45.99
735.264	46.1
735.446	46.61
735.627	45.91
735.808	46.01
735.989	46.33
736.17	45.24
736.351	44.88
736.533	45.53
736.714	45.4
736.895	45.31
737.076	46.03
737.257	46.19
737.438	45.26
737.619	44.31
737.8	44.92
737.981	44.19
738.162	45.25
738.343	44.59
738.524	43.94
738.705	43.78
738.886	43.76
739.067	43.82
739.247	43.99
739.428	44.7
739.609	45.6
739.79	44.9
739.971	44.88
740.151	44.86
740.332	45.83
740.513	47.04
740.694	47.42
740.874	46.98
741.055	46.35
741.236	45.59
741.417	45.34
741.597	44.99
741.778	45.41
741.958	45.56
742.139	45.2
742.32	44.4
742.5	42.91
742.681	42.97
742.861	43.23
743.042	43.7
743.222	44.28
743.403	44.24
743.583	44.94
743.764	44.67
743.944	45.26
744.124	45.45
744.305	46.8
744.485	47.44
744.666	47.32
744.846	48.2
745.026	48.57
745.207	48.15
745.387	48.01
745.567	47.4
745.747	47.79
745.928	47.3
746.108	47.6
746.288	47.1
746.468	46.81
746.648	46.13
746.829	44.81
747.009	44.11
747.189	44.09
747.369	44.86
747.549	44.81
747.729	44.1
747.909	43.3
748.089	42.66
748.269	42.03
748.449	41.2
748.629	43.25
748.809	44.49
748.989	44.88
749.169	44.83
749.349	44.36
749.529	45.24
749.709	44.97
749.889	45.76
750.068	46.45
750.248	46.26
750.428	47.52
750.608	46.78
750.788	46.33
750.967	45.54
751.147	45.47
751.327	45.28
751.507	45.26
751.686	45.5
751.866	44.42
752.046	44.57
752.225	44.61
752.405	44.84
752.585	43.97
752.764	44.05
752.944	43.92
753.123	44.39
753.303	44.53
753.482	44.55
753.662	44.63
753.841	45.2
754.021	45.28
754.2	45.39
754.38	45.07
754.559	45.58
754.739	45.68
754.918	46.2
755.097	45.4
755.277	44.06
755.456	44.02
755.635	45.09
755.815	46.15
755.994	45.51
756.173	45.96
756.352	46.48
756.532	46.41
756.711	45.56
756.89	45.09
757.069	45.93
757.248	46.68
757.427	45.85
757.607	45.29
757.786	44.11
757.965	44.29
758.144	44.74
758.323	43.57
758.502	44.02
758.681	44.56
758.86	44.78
759.039	44.58
759.218	45.06
759.397	45.91
759.576	46.15
759.755	46.32
759.934	47.21
760.113	46.22
760.291	47.94
760.47	47.08
760.649	46.91
760.828	46.69
761.007	46.99
761.186	46.67
761.364	46.24
761.543	45.93
761.722	45.51
761.901	45.03
762.079	45.51
762.258	44.16
762.437	44.33
762.615	44.31
762.794	44.59
762.972	43.54
763.151	43.98
763.33	43.24
763.508	42.72
763.687	43.37
763.865	43.51
764.044	43.24
764.222	42.57
764.401	42.78
764.579	42.56
764.758	42.54
764.936	43.41
765.114	43.56
765.293	44.49
765.471	44.9
765.65	44.8
765.828	44.53
766.006	43.94
766.184	44.8
766.363	44.79
766.541	44.87
766.719	45.66
766.898	44.98
767.076	45.44
767.254	45.6
767.432	45.43
767.61	46.04
767.788	46.85
767.967	47.89
768.145	49.09
768.323	49.43
768.501	50.27
768.679	50.39
768.857	50.39
769.035	49.56
769.213	48.83
769.391	48.87
769.569	48.03
769.747	47.96
769.925	48.44
770.103	47.9
770.281	47.7
770.459	47.16
770.636	46.96
770.814	48.44
770.992	47.56
771.17	48.29
771.348	50.45
771.525	51.08
771.703	51.31
771.881	51.15
772.059	50.81
772.236	51
772.414	51.26
772.592	49.61
772.769	47.14
772.947	47.22
773.125	47.47
773.302	44.41
773.48	43.11
773.657	42.26
773.835	42.21
774.013	40.97
774.19	41.3
774.368	41.47
774.545	41.87
774.723	44.08
774.9	44.86
775.077	43.73
775.255	46.09
775.432	46.64
775.61	46.68
775.787	46.99
775.964	48.34
776.142	48.49
776.319	48.06
776.496	49.01
776.674	48.34
776.851	49.14
777.028	49.09
777.205	48.27
777.382	47.83
777.56	48.14
777.737	48.94
777.914	49.11
778.091	48.02
778.268	47.19
778.445	46.88
778.622	46.59
778.8	45.57
778.977	46.78
779.154	54.2
779.331	55.85
779.508	56.14
779.685	54.85
779.862	54.72
780.038	56.34
780.215	57.5
780.392	57.28
780.569	58.98
780.746	59.59
780.923	59.87
781.1	51.37
781.277	49.81
781.453	49.99
781.63	50.09
781.807	50.2
781.984	48.66
782.16	47.23
782.337	49.74
782.514	48.4
782.691	47.58
782.867	46.84
783.044	46.79
783.221	48.26
783.397	46.9
783.574	45.32
783.75	43.75
783.927	43.72
784.103	44.51
784.28	41.05
784.456	42.34
784.633	43.08
784.809	42.89
784.986	43.96
785.162	43.15
785.339	42.46
785.515	42.76
785.692	44.61
785.868	44.45
786.044	43.58
786.221	45.16
786.397	45.04
786.573	44.5
786.749	45.11
786.926	43.68
787.102	45.95
787.278	45.72
787.454	47.02
787.631	47.27
787.807	47.71
787.983	48.36
788.159	48.64
788.335	49.72
788.511	49.37
788.687	48.5
788.863	49.03
789.039	47.76
789.216	48.39
789.392	47.31
789.568	45.54
789.744	43.95
789.919	43.7
790.095	44.93
790.271	42.95
790.447	43.52
790.623	44.15
790.799	45.58
790.975	42.2
791.151	41.71
791.327	42.94
791.502	44.31
791.678	45.11
791.854	45.85
792.03	42.76
792.205	43.52
792.381	44.86
792.557	44.35
792.733	43.76
792.908	46.08
793.084	46.61
793.259	45.1
793.435	45.14
793.611	45.2
793.786	43.88
793.962	45.12
794.137	44.88
794.313	42.66
794.488	44.5
794.664	42.66
794.839	44.07
795.015	44.19
795.19	45.95
795.366	46.99
795.541	47.24
795.716	46.87
795.892	44.89
796.067	43.21
796.242	43.81
796.418	42.6
796.593	43.81
796.768	42.61
796.944	42.84
797.119	42.47
797.294	41.23
797.469	40
797.644	43.03
797.82	43.98
797.995	45.45
798.17	44.95
798.345	46.12
798.52	45.85
798.695	46.21
798.87	46.6
799.045	47.53
799.22	47.85
799.395	49.19
799.57	47.56
799.745	48.28
799.92	47.84
800.095	49.09
800.27	47.22
800.445	45.77
800.62	46.21
800.795	47
800.97	46
801.145	44.73
801.319	46.63
801.494	46.56
801.669	46.95
801.844	48.14
802.018	47.67
802.193	48.63
802.368	51.57
802.543	51.58
802.717	48.44
802.892	51.05
803.067	50.58
803.241	48.87
803.416	49.84
803.59	50.91
803.765	49.69
803.94	48.67
804.114	47.67
804.289	46.08
804.463	46.94
804.638	48.54
804.812	46.21
804.986	48.84
805.161	48
805.335	48.95
805.51	47.25
805.684	47.74
805.858	49.35
806.033	49.7
806.207	46.67
806.381	45.02
806.556	44.14
806.73	42.2
806.904	40.13
807.078	40.26
807.253	37.22
807.427	36.5
807.601	35.96
807.775	34.3
807.949	33.04
808.123	37.74
808.298	37.98
808.472	37.14
808.646	40.3
808.82	42.59
808.994	45.27
809.168	45.63
809.342	44.74
809.516	45.86
809.69	46.59
809.864	46.87
810.038	44.89
810.212	44.86
810.385	46.51
810.559	44.43
810.733	43.61
810.907	42.85
811.081	43.93
811.255	46.8
811.428	44.01
811.602	42.95
811.776	43.59
811.95	42.27
812.123	41.94
812.297	42.28
812.471	41.33
812.644	39.16
812.818	38.44
812.992	36.29
813.165	35.5
813.339	37.65
813.512	35.9
813.686	37.01
813.86	38.88
814.033	39.71
814.207	39.81
814.38	41.04
814.554	43.73
814.727	46.76
814.9	50.18
815.074	50.13
815.247	45.31
815.421	47.25
815.594	47.05
815.767	48.67
815.941	47.79
816.114	47.01
816.287	45.16
816.46	43.17
816.634	39.79
816.807	38.55
816.98	37.54
817.153	41.2
817.327	42.88
817.5	44.24
817.673	40.02
817.846	39.77
818.019	39.12
818.192	39.96
818.365	41.65
818.538	41.17
818.711	41.64
818.884	40.9
819.057	41.36
819.23	40.71
819.403	37.39
819.576	40.3
819.749	41.84
819.922	42.58
820.095	43.67
820.268	42.3
820.441	44.47
820.614	44.59
820.786	46.08
820.959	46.34
821.132	46.31
821.305	48.39
821.477	48.02
821.65	48.19
821.823	48.41
821.996	47.16
822.168	47.56
822.341	47.2
822.514	47.14
822.686	46.61
822.859	46.22
823.031	46.34
823.204	46.21
823.376	46.49
823.549	45.8
823.722	45.11
823.894	46.14
824.067	46.26
824.239	45.84
824.411	45.5
824.584	45.46
824.756	46.79
824.929	47.32
825.101	47.15
825.273	47.03
825.446	47.47
825.618	47.55
825.79	48.09
825.963	48.09
826.135	48.8
826.307	49.11
826.479	50.02
826.652	48.36
826.824	47.61
826.996	47.55
827.168	47.46
827.34	47.48
827.512	48.18
827.684	46.3
827.856	46.84
828.029	46.47
828.201	46.34
828.373	46.34
828.545	47.55
828.717	47.21
828.889	47.37
829.061	46.89
829.232	46.7
829.404	46.79
829.576	47.75
829.748	47
829.92	46.8
830.092	47.18
830.264	46.62
830.436	45.61
830.607	46.23
830.779	45.58
830.951	46.05
831.123	46.1
831.294	45.96
831.466	46.25
831.638	46.04
831.809	45.5
831.981	45.31
832.153	44.63
832.324	44.72
832.496	45.97
832.667	46.42
832.839	47.47
833.011	48.67
833.182	46.99
833.354	47.7
833.525	46.96
833.697	45.05
833.868	44.37
834.039	43.98
834.211	44.34
834.382	42.67
834.554	42.65
834.725	42.7
834.896	41.74
835.068	42.64
835.239	42.5
835.41	41.97
835.581	43.6
835.753	42.26
835.924	40.7
836.095	38.48
836.266	39.38
836.438	39.06
836.609	40.19
836.78	39.25
836.951	38.74
837.122	37.81
837.293	37.06
837.464	37.16
837.635	39.74
837.806	42.01
837.977	43.18
838.148	43.95
838.319	44.15
838.49	41.58
838.661	41.65
838.832	42.96
839.003	42.89
839.174	42.51
839.345	41.29
839.516	43.03
839.687	39.53
839.857	40.74
840.028	39.34
840.199	36.86
840.37	37.56
840.54	39.18
840.711	34.6
840.882	32.74
841.053	34.22
841.223	36.25
841.394	33.36
841.564	37.76
841.735	42.22
841.906	41.75
842.076	45.84
842.247	40.18
842.417	38.64
842.588	45.13
842.758	46.1
842.929	46.36
843.099	43.75
843.27	40.87
843.44	38.96
843.611	30.15
843.781	25.77
843.951	23.94
844.122	25.7
844.292	29.78
844.462	25.07
844.633	18.41
844.803	22.09
844.973	26.2
845.144	25.94
845.314	26.17
845.484	27.18
845.654	35.96
845.824	36.81
845.995	38.08
846.165	36.47
846.335	40.32
846.505	45.65
846.675	43.86
846.845	42.36
847.015	43.12
847.185	44.1
847.355	47.6
847.525	42.64
847.695	39.23
847.865	36.22
848.035	31.15
848.205	27.12
848.375	24.35
848.545	24.65
848.715	24.35
848.884	24.83
849.054	24.33
849.224	19.19
849.394	19.52
849.564	18.72
849.733	21.58
849.903	21.06
850.073	21.56
850.243	26.37
850.412	30.31
850.582	22.04
850.752	23.58
850.921	12.94
851.091	17.66
851.26	20.93
851.43	14.1
851.599	19.96
851.769	21.74
851.939	6.49
852.108	0.03
852.278	-1.92
852.447	11.66
852.616	8.97
852.786	16.6
852.955	10.06
853.125	8.34
853.294	16.13
853.463	3.69
853.633	2.43
853.802	14.19
853.971	19.66
854.141	18.27
854.31	12.57
854.479	1.99
854.648	16.35
854.818	26.17
854.987	15.85
855.156	19.79
855.325	37.34
855.494	35.03
855.663	47.41
855.832	45.09
856.001	39.42
856.171	38.05
856.34	44.62
856.509	43.41
856.678	40.31
856.847	44.91
857.016	45.73
857.185	35.75
857.353	41.02
857.522	33.6
857.691	28.45
857.86	32.99
858.029	28.04
858.198	18.62
858.367	5.94
858.535	8.4
858.704	3.02
858.873	-1.75
859.042	-0.42
859.21	1.94
859.379	13.54
859.548	18.61
859.717	18.4
859.885	17.69
860.054	31.09
860.222	34.62
860.391	29.59
860.56	24.45
860.728	34.37
860.897	41.12
861.065	31.62
861.234	16.5
861.402	6.67
861.571	1.62
861.739	5.74
861.908	-0.07
862.076	4.52
862.244	14.4
862.413	22.04
862.581	20.35
862.749	9.83
862.918	16.88
863.086	26.61
863.254	34.11
863.423	33.89
863.591	43.49
863.759	35.77
863.927	39.36
864.096	30.23
864.264	30.91
864.432	28.75
864.6	29.98
864.768	26.89
864.936	23.89
865.104	24.72
865.272	24.77
865.44	15.67
865.608	35.43
865.776	41.17
865.944	38.75
866.112	35.8
866.28	27.13
866.448	23.89
866.616	25.66
866.784	32.6
866.952	28.59
867.12	37.72
867.288	34.54
867.455	21.96
867.623	14.05
867.791	12.66
867.959	18.66
868.127	29.77
868.294	36.62
868.462	38.66
868.63	32.5
868.797	31
868.965	22.21
869.133	30.69
869.3	30.24
869.468	33.69
869.636	33.31
869.803	33.31
869.971	23.41
870.138	18
870.306	20.51
870.473	25.41
870.641	36.48
870.808	34.19
870.975	27.22
871.143	39.48
871.31	35.69
871.478	41.86
871.645	39.77
871.812	40.53
871.98	37.68
872.147	31.7
872.314	26.14
872.482	11.92
872.649	14.4
872.816	10.7
872.983	-12.41
873.15	-22.34
873.318	-35.5
873.485	-39.86
873.652	-45.47
873.819	-37.82
873.986	-41.74
874.153	-33.2
874.32	-17.73
874.487	-13.92
874.654	-3.64
874.821	4.09
874.988	18.98
875.155	19.75
875.322	28.48
875.489	33.95
875.656	27.65
875.823	27.43
875.99	21.68
876.157	23.58
876.324	31.47
876.49	34.25
876.657	36.85
876.824	28.6
876.991	36.03
877.157	34.67
877.324	32.25
877.491	38.11
877.658	39.54
877.824	45.29
877.991	38.16
878.157	36.93
878.324	24.66
878.491	13.62
878.657	19.8
878.824	17.38
878.99	21.21
879.157	30.44
879.323	36.01
879.49	40.62
879.656	45.16
879.823	49.53
879.989	42.95
880.156	49.22
880.322	55.16
880.488	56.48
880.655	52.09
880.821	44.45
880.987	48.51
881.154	46.35
881.32	49.39
881.486	48.72
881.652	49.6
881.819	49.87
881.985	50.31
882.151	50.69
882.317	50.93
882.483	51.15
882.649	52.17
882.816	49.2
882.982	48.3
883.148	47.35
883.314	44.9
883.48	45.27
883.646	46.15
883.812	46.35
883.978	46.22
884.144	45.43
884.31	46.74
884.476	47.83
884.642	47.53
884.807	46.92
884.973	46.72
885.139	47.24
885.305	46.2
885.471	45.52
885.637	43.91
885.802	41.39
885.968	40.77
886.134	40.9
886.3	39.38
886.465	39.09
886.631	38.97
886.797	37.46
886.962	37.01
887.128	38.97
887.293	39.67
887.459	35.78
887.625	36.27
887.79	34.14
887.956	25.58
888.121	21.7
888.287	20.23
888.452	18.41
888.618	15.1
888.783	10.03
