Data from LC_207__Reflection_2.txt Node
Date: Thu Nov 19 11:51:32 EST 2015
User: robert
Spectrometer: USB4E03001
Autoset integration time: false
Trigger mode: 4
Integration Time (sec): 1.000000E-1
Scans to average: 15
Electric dark correction enabled: true
Nonlinearity correction enabled: false
Boxcar width: 5
Stray light correction enabled: false
XAxis mode: Wavelengths
Stop averaging: false
Number of Pixels in Spectrum: 3648
>>>>>Begin Spectral Data<<<<<
177.566	87.62
177.785	94.55
178.005	104.35
178.225	114.71
178.445	108.79
178.665	123.7
178.885	101.48
179.105	77.27
179.324	61.14
179.544	81.59
179.764	94.62
179.984	93.24
180.204	91.67
180.423	94.96
180.643	107.66
180.863	130.82
181.083	179.24
181.302	1352.6
181.522	10.97
181.742	44.81
181.961	72.01
182.181	71.03
182.401	62.44
182.621	73.65
182.84	77.35
183.06	72.01
183.279	98.03
183.499	103.78
183.719	104.42
183.938	104.92
184.158	110.91
184.377	126.71
184.597	142.06
184.816	126.7
185.036	57.16
185.256	49.84
185.475	-2.46
185.695	-69
185.914	-262.28
186.134	-366.02
186.353	860.57
186.572	-3373.6
186.792	-216.91
187.011	-724.83
187.231	-243.2
187.45	-540.9
187.67	-530.36
187.889	-134.41
188.108	-41.61
188.328	-37.37
188.547	-87.85
188.766	-67.64
188.986	-1970.76
189.205	486.79
189.424	2389.06
189.644	147.51
189.863	117.78
190.082	39.33
190.302	2.65
190.521	-41.15
190.74	-38.55
190.959	-109.59
191.178	487.94
191.398	149.78
191.617	178.8
191.836	929.71
192.055	544.86
192.274	-1528.5
192.494	-170.11
192.713	-42.05
192.932	-15.04
193.151	-20.76
193.37	-64.36
193.589	-60.54
193.808	6.06
194.027	80.65
194.246	199.36
194.465	335.8
194.685	3563.48
194.904	463.47
195.123	1017.48
195.342	-197.86
195.561	-16.3
195.78	24.45
195.999	14.41
196.218	27.79
196.436	59.05
196.655	48.79
196.874	40.58
197.093	1.33
197.312	-9.29
197.531	18.17
197.75	18.46
197.969	-1.72
198.188	-129.49
198.407	-125.75
198.625	-189.64
198.844	-146.63
199.063	3.97
199.282	-382.48
199.501	34.17
199.719	-22.73
199.938	-56.78
200.157	-68.75
200.376	600.4
200.594	63.79
200.813	1597.16
201.032	374.81
201.251	572.22
201.469	211.95
201.688	377.95
201.907	142.34
202.125	29.16
202.344	34.03
202.563	32.54
202.781	-30.3
203	163.31
203.218	13.33
203.437	-105.57
203.656	-324.45
203.874	510.11
204.093	1640.25
204.311	1407.55
204.53	-63.58
204.748	120.88
204.967	-546.09
205.185	-107.59
205.404	250.84
205.622	146.67
205.841	77.59
206.059	93.66
206.278	-8.02
206.496	-52.56
206.715	14.1
206.933	61.16
207.151	41.93
207.37	45.36
207.588	35.68
207.806	40.91
208.025	47.09
208.243	55.46
208.461	14.48
208.68	277.44
208.898	139.73
209.116	77.82
209.335	-177.25
209.553	202.27
209.771	23781.82
209.989	179.66
210.208	-1526.74
210.426	-84.28
210.644	5.98
210.862	23.42
211.081	-22.13
211.299	-68.66
211.517	-6.2
211.735	-3.41
211.953	16.92
212.171	6.78
212.39	11.66
212.608	-8.4
212.826	-44.18
213.044	-60.21
213.262	-38.8
213.48	-2.55
213.698	-7.07
213.916	-20.34
214.134	-24.24
214.352	-30.25
214.57	-34.9
214.788	-21.09
215.006	-2.96
215.224	-0.11
215.442	-27.67
215.66	-44.01
215.878	-43.29
216.096	-32.08
216.314	-35.35
216.532	-37.97
216.75	-12.57
216.968	-18.21
217.185	-33.23
217.403	-35.76
217.621	-32.21
217.839	-9.98
218.057	13.76
218.275	20.39
218.492	27.62
218.71	28.57
218.928	36.9
219.146	9.54
219.363	30.21
219.581	42.53
219.799	29.17
220.017	-11.92
220.234	-53.73
220.452	-96.03
220.67	-221.63
220.887	-78.76
221.105	-99.26
221.323	-76.11
221.54	-100.52
221.758	-93.44
221.976	-151.42
222.193	-81.32
222.411	-61.09
222.629	-4.59
222.846	-2.14
223.064	-3.41
223.281	-40.88
223.499	13.38
223.716	28.32
223.934	8.58
224.151	14
224.369	29.21
224.586	19.75
224.804	26
225.021	33.21
225.239	27.14
225.456	22.02
225.674	22.67
225.891	3.37
226.108	-2.4
226.326	3.85
226.543	3.33
226.76	-1.82
226.978	-8.77
227.195	-5.05
227.413	-5.5
227.63	2.48
227.847	2.84
228.064	7.5
228.282	10.12
228.499	8.86
228.716	11.78
228.934	11.23
229.151	12.76
229.368	12.68
229.585	10.94
229.802	10.13
230.02	8.56
230.237	8.78
230.454	5.68
230.671	3.73
230.888	3.52
231.105	1.26
231.323	-0.34
231.54	0.22
231.757	-1.39
231.974	-1.07
232.191	-6.51
232.408	-3.1
232.625	-2.67
232.842	-3.74
233.059	-1.33
233.276	4.87
233.493	4.73
233.71	7.77
233.927	8.84
234.144	11.67
234.361	14.76
234.578	14.95
234.795	13.68
235.012	15.75
235.229	17.66
235.446	21.83
235.663	18.53
235.879	17.77
236.096	16.05
236.313	12.11
236.53	11.66
236.747	5
236.964	7
237.181	7.24
237.397	5.05
237.614	4.63
237.831	2.82
238.048	4.04
238.264	4.91
238.481	4.01
238.698	3.98
238.915	6.53
239.131	8.09
239.348	8.17
239.565	8.04
239.781	12.05
239.998	14.21
240.215	12.51
240.431	13.13
240.648	12.54
240.865	12.94
241.081	12.8
241.298	10.32
241.514	11.47
241.731	9.82
241.947	10
242.164	8.94
242.38	7.13
242.597	7.78
242.814	6.75
243.03	7.27
243.246	7.71
243.463	9.01
243.679	9.09
243.896	8.76
244.112	10.1
244.329	11.45
244.545	11.81
244.762	14.57
244.978	12.74
245.194	11.96
245.411	10.39
245.627	10.16
245.843	8.98
246.06	9.77
246.276	10.61
246.492	10.9
246.709	10.26
246.925	9.27
247.141	9.11
247.357	10.14
247.574	11.11
247.79	11.31
248.006	11.67
248.222	11.93
248.439	12.5
248.655	13.21
248.871	13
249.087	12.34
249.303	13.12
249.519	13.65
249.736	13.6
249.952	12.86
250.168	14.14
250.384	14.87
250.6	15.82
250.816	11.92
251.032	9.2
251.248	9.03
251.464	10.92
251.68	12.08
251.896	10.6
252.112	10.05
252.328	9.8
252.544	8.35
252.76	7.79
252.976	7.6
253.192	8.77
253.408	7.75
253.624	8.22
253.84	5.64
254.056	2
254.272	1.48
254.487	2.69
254.703	3.7
254.919	5.37
255.135	4.04
255.351	3.72
255.567	2.52
255.782	2.14
255.998	1.39
256.214	5.02
256.43	5.54
256.646	6.54
256.861	5.33
257.077	4.59
257.293	3.9
257.508	4.18
257.724	3.7
257.94	5.44
258.155	6.71
258.371	6.84
258.587	5.2
258.802	5.16
259.018	5.57
259.234	5.16
259.449	4.74
259.665	4.24
259.88	4.52
260.096	4.47
260.312	4.88
260.527	5.74
260.743	6
260.958	6.26
261.174	6.56
261.389	5.69
261.605	5.87
261.82	6.2
262.036	7.09
262.251	7.68
262.466	7.8
262.682	6.62
262.897	5.14
263.113	4.85
263.328	6.21
263.543	7.78
263.759	8.8
263.974	9.69
264.189	9.81
264.405	9.1
264.62	9.54
264.835	8.17
265.051	9.62
265.266	8.83
265.481	8
265.696	7.3
265.912	6.45
266.127	6.67
266.342	5.49
266.557	4.78
266.773	4.85
266.988	4.17
267.203	5.56
267.418	5.68
267.633	6.99
267.848	6.93
268.064	5.98
268.279	5.82
268.494	5.03
268.709	6.28
268.924	6.64
269.139	6.34
269.354	6.2
269.569	5.3
269.784	4.45
269.999	2.91
270.214	2.49
270.429	4.23
270.644	3.92
270.859	4.88
271.074	4.33
271.289	6.14
271.504	6.36
271.719	6.65
271.934	7.35
272.149	7.37
272.363	7.77
272.578	7.62
272.793	6.53
273.008	6.88
273.223	6.31
273.438	6.21
273.653	5.38
273.867	5.56
274.082	5.47
274.297	5.7
274.512	6.76
274.726	6.92
274.941	7.87
275.156	8.82
275.371	9.26
275.585	10.11
275.8	10.33
276.015	9.57
276.229	9.52
276.444	8.47
276.659	8.43
276.873	7.08
277.088	7.58
277.302	7.14
277.517	5.68
277.732	5.25
277.946	4.72
278.161	5.06
278.375	3.56
278.59	2.85
278.804	4.92
279.019	3.69
279.233	4.68
279.448	3.49
279.662	3.77
279.877	4.74
280.091	4.48
280.306	4.7
280.52	3.54
280.735	6.02
280.949	7.11
281.163	5.26
281.378	5.17
281.592	4.41
281.806	6.27
282.021	6.19
282.235	6.4
282.449	6.51
282.664	6.56
282.878	6.66
283.092	6.85
283.307	6.74
283.521	7.71
283.735	7.82
283.949	9.17
284.164	8.08
284.378	8.37
284.592	7.98
284.806	8.16
285.02	7.25
285.234	8.55
285.449	8.48
285.663	8.23
285.877	8.05
286.091	8.14
286.305	7.21
286.519	6.4
286.733	6.34
286.947	6.55
287.161	5.58
287.375	6.25
287.589	5.45
287.803	5.13
288.017	4.67
288.231	4.16
288.445	5.27
288.659	5.25
288.873	6.48
289.087	6.08
289.301	6.57
289.515	8
289.729	7.96
289.943	7.7
290.157	6.93
290.371	6.8
290.584	6.65
290.798	6.55
291.012	7.29
291.226	7.71
291.44	8.5
291.654	8.53
291.867	7.36
292.081	7.35
292.295	7.4
292.509	8.27
292.722	8.95
292.936	9.26
293.15	9.3
293.364	7.7
293.577	7.55
293.791	7.03
294.005	6.08
294.218	7.16
294.432	7.73
294.645	7.26
294.859	7.99
295.073	9
295.286	8.8
295.5	8.22
295.713	9.68
295.927	8.92
296.14	8.57
296.354	9.69
296.568	9.21
296.781	8.39
296.994	8.55
297.208	8.52
297.421	7.22
297.635	6.87
297.848	7.73
298.062	7.66
298.275	7.71
298.489	8.08
298.702	7.89
298.915	7.82
299.129	8.7
299.342	9.65
299.555	7.99
299.769	8
299.982	9.06
300.195	7.54
300.409	6.72
300.622	6.34
300.835	6.42
301.048	5.6
301.262	5.88
301.475	5.55
301.688	4.82
301.901	5.68
302.115	7.27
302.328	6.15
302.541	5.73
302.754	5.57
302.967	6.64
303.18	6.49
303.393	6.65
303.607	6.95
303.82	6.94
304.033	7.17
304.246	8.21
304.459	7.42
304.672	8.44
304.885	10
305.098	9.37
305.311	9.43
305.524	9.44
305.737	7.86
305.95	7.74
306.163	8.85
306.376	8.05
306.589	6.02
306.802	6.21
307.015	4.97
307.228	3.48
307.44	5.37
307.653	5.07
307.866	5.06
308.079	6.5
308.292	6.61
308.505	6.95
308.718	7.51
308.93	8.99
309.143	8.5
309.356	9.18
309.569	10.5
309.781	10.04
309.994	9.85
310.207	9.49
310.42	9.27
310.632	8.59
310.845	8.43
311.058	8.12
311.27	7.37
311.483	8.08
311.696	7.44
311.908	7.3
312.121	7.19
312.333	7.8
312.546	7.94
312.759	7.82
312.971	8.91
313.184	7.62
313.396	8.26
313.609	8.33
313.821	7.08
314.034	7.84
314.246	6.94
314.459	7.66
314.671	6.89
314.884	6.11
315.096	7.04
315.309	7.06
315.521	7.5
315.733	7.12
315.946	8.16
316.158	9.06
316.371	8.99
316.583	9.44
316.795	7.28
317.008	6.45
317.22	7.62
317.432	6.52
317.644	6.66
317.857	5.7
318.069	5.77
318.281	5.17
318.494	3.87
318.706	3.85
318.918	2.87
319.13	5.08
319.342	6.53
319.555	5.93
319.767	6.11
319.979	4.74
320.191	5.67
320.403	5.16
320.615	5.06
320.827	5.33
321.039	6.7
321.252	7.79
321.464	6.71
321.676	5.59
321.888	6.53
322.1	7.37
322.312	6.95
322.524	7.13
322.736	6.58
322.948	5.81
323.16	6.41
323.372	5.23
323.584	5.86
323.796	4.99
324.007	5.47
324.219	5.92
324.431	4.55
324.643	4.62
324.855	4.34
325.067	4.96
325.279	6.21
325.491	6.57
325.702	6.53
325.914	5.66
326.126	5.65
326.338	5.44
326.55	5.81
326.761	6.62
326.973	7.67
327.185	7.37
327.396	7.29
327.608	6.41
327.82	6.27
328.032	5.82
328.243	5.42
328.455	7.12
328.666	7.44
328.878	6.58
329.09	6.93
329.301	6.73
329.513	7.26
329.725	7.61
329.936	9.12
330.148	8.69
330.359	10.65
330.571	11.41
330.782	11.32
330.994	10.84
331.205	10.33
331.417	9.94
331.628	9.44
331.84	9.5
332.051	9.81
332.262	8.23
332.474	7.94
332.685	5.45
332.897	4.56
333.108	4.14
333.319	4.16
333.531	4.05
333.742	5
333.953	5.35
334.165	5.51
334.376	6.19
334.587	7.04
334.799	7.52
335.01	8.79
335.221	9.65
335.432	9.37
335.644	9.68
335.855	9.88
336.066	9.43
336.277	9.42
336.488	8.63
336.7	8.42
336.911	8.8
337.122	8.95
337.333	8.43
337.544	8.39
337.755	8.6
337.966	8.58
338.177	7.71
338.388	7.76
338.599	7.41
338.811	7.72
339.022	6.62
339.233	6.34
339.444	6.44
339.655	7.29
339.866	7.29
340.076	6.83
340.287	6.62
340.498	7.36
340.709	7.27
340.92	7.63
341.131	7.91
341.342	7.33
341.553	6.81
341.764	5.9
341.975	6.6
342.185	6.83
342.396	6.95
342.607	6.98
342.818	7.79
343.029	7.46
343.239	7.68
343.45	7.02
343.661	8.12
343.872	8.93
344.082	9.29
344.293	8.27
344.504	7.76
344.714	8.16
344.925	8.06
345.136	7.75
345.346	8.29
345.557	7.73
345.768	8.04
345.978	7.92
346.189	7.46
346.399	7.95
346.61	8.13
346.821	8.75
347.031	8.67
347.242	8.46
347.452	8.38
347.663	7.86
347.873	8.17
348.084	8.73
348.294	9.12
348.504	8.91
348.715	8.95
348.925	8.52
349.136	7.95
349.346	8.21
349.557	8.5
349.767	8.54
349.977	9.18
350.188	8.94
350.398	8.82
350.608	8.54
350.819	7.82
351.029	7.33
351.239	7.89
351.449	8.18
351.66	8.47
351.87	8.43
352.08	8.17
352.29	8.26
352.501	8.58
352.711	8.09
352.921	7.92
353.131	8.33
353.341	8.4
353.552	8.34
353.762	7.87
353.972	8.25
354.182	9.1
354.392	9.04
354.602	9.24
354.812	9.09
355.022	8.93
355.232	8.87
355.442	9.27
355.652	8.82
355.862	8.79
356.072	8.35
356.282	7.79
356.492	7.37
356.702	7.43
356.912	6.83
357.122	7.06
357.332	7.21
357.542	7.5
357.752	7.63
357.962	7.87
358.171	7.61
358.381	8.32
358.591	8.39
358.801	7.93
359.011	7.66
359.221	7.12
359.43	7.25
359.64	7.01
359.85	6.11
360.06	5.74
360.269	5.37
360.479	6
360.689	5.54
360.899	5.49
361.108	5.02
361.318	5.59
361.528	5.81
361.737	5.51
361.947	5.45
362.156	5.99
362.366	5.87
362.576	5.76
362.785	4.79
362.995	5.3
363.204	5.27
363.414	5.41
363.623	4.84
363.833	5.3
364.042	5.48
364.252	5.68
364.461	4.97
364.671	5.33
364.88	5.36
365.09	6.26
365.299	5.92
365.509	5.34
365.718	5.81
365.927	5.98
366.137	5.42
366.346	5.52
366.555	5.58
366.765	6.55
366.974	6.16
367.183	6.74
367.393	6.38
367.602	6.56
367.811	6.49
368.021	6.47
368.23	6.21
368.439	6.08
368.648	5.65
368.857	5.7
369.067	5.27
369.276	5.2
369.485	4.73
369.694	4.59
369.903	4.37
370.112	4.83
370.321	5.02
370.531	5.8
370.74	5.86
370.949	6.36
371.158	6.49
371.367	6.37
371.576	6.78
371.785	7.27
371.994	7.71
372.203	7.56
372.412	7.28
372.621	7.04
372.83	6.15
373.039	6.4
373.248	6.54
373.457	6.51
373.666	6.57
373.874	6.47
374.083	6.29
374.292	5.88
374.501	6.1
374.71	6.37
374.919	6.1
375.128	6.15
375.336	6.4
375.545	5.79
375.754	5.67
375.963	5.61
376.171	5.5
376.38	5.37
376.589	5.59
376.798	5.43
377.006	5.19
377.215	5.45
377.424	5.41
377.632	5.33
377.841	5.22
378.05	5.37
378.258	5.56
378.467	5.75
378.675	5.73
378.884	5.74
379.093	5.73
379.301	5.77
379.51	6.11
379.718	6.61
379.927	6.26
380.135	6.73
380.344	6.3
380.552	6.2
380.761	5.96
380.969	6.06
381.177	5.83
381.386	5.61
381.594	5.6
381.803	5.18
382.011	4.78
382.219	5.16
382.428	4.76
382.636	4.8
382.845	5.03
383.053	5.01
383.261	5.19
383.469	5.46
383.678	5.75
383.886	6.11
384.094	6.12
384.302	6.48
384.511	6.29
384.719	6.41
384.927	6.87
385.135	6.49
385.343	6.64
385.552	6.09
385.76	5.89
385.968	5.93
386.176	5.76
386.384	6.06
386.592	5.76
386.8	5.82
387.008	5.89
387.216	5.89
387.424	5.96
387.633	5.91
387.841	6.01
388.049	5.83
388.257	5.86
388.465	5.72
388.672	5.41
388.88	5.55
389.088	5.4
389.296	5.28
389.504	5.08
389.712	5.22
389.92	5.04
390.128	5.11
390.336	5.14
390.544	4.94
390.751	5.03
390.959	5.17
391.167	5.03
391.375	5.04
391.583	5.19
391.79	5.15
391.998	4.9
392.206	5.14
392.414	5.25
392.621	5.32
392.829	5.33
393.037	5.4
393.244	5.44
393.452	5.55
393.66	5.44
393.867	5.32
394.075	5.24
394.283	5.45
394.49	5.49
394.698	5.75
394.905	5.64
395.113	5.88
395.32	5.81
395.528	5.83
395.735	5.7
395.943	5.83
396.15	5.74
396.358	5.72
396.565	5.68
396.773	5.5
396.98	5.5
397.188	5.66
397.395	5.51
397.602	5.45
397.81	5.4
398.017	5.52
398.225	5.15
398.432	5.2
398.639	5.07
398.847	4.91
399.054	4.87
399.261	4.53
399.468	4.57
399.676	4.26
399.883	4
400.09	3.93
400.297	3.91
400.505	4.34
400.712	4.55
400.919	5.1
401.126	5.4
401.333	5.55
401.54	5.57
401.748	5.44
401.955	5.73
402.162	5.73
402.369	5.88
402.576	6.08
402.783	6.03
402.99	5.6
403.197	5.5
403.404	5.19
403.611	4.81
403.818	4.8
404.025	4.75
404.232	4.63
404.439	4.73
404.646	4.43
404.853	3.93
405.06	3.95
405.267	4.02
405.474	3.62
405.681	3.98
405.887	4.23
406.094	3.94
406.301	3.79
406.508	3.94
406.715	3.97
406.922	3.87
407.128	4.2
407.335	4.02
407.542	4.12
407.749	4.34
407.955	3.83
408.162	3.6
408.369	3.89
408.575	4.22
408.782	3.84
408.989	3.85
409.195	3.92
409.402	3.86
409.609	3.94
409.815	4.15
410.022	4.2
410.228	4.37
410.435	4.42
410.642	4.37
410.848	4.1
411.055	4.61
411.261	4.93
411.468	4.81
411.674	4.79
411.881	4.75
412.087	4.61
412.294	4.46
412.5	4.51
412.706	4.54
412.913	4.84
413.119	4.95
413.326	4.67
413.532	4.3
413.738	4.51
413.945	4.64
414.151	4.66
414.357	4.4
414.564	4.43
414.77	4.29
414.976	4.41
415.182	4.21
415.389	4.17
415.595	4
415.801	4.18
416.007	4.16
416.214	4.11
416.42	4.23
416.626	4.57
416.832	4.59
417.038	4.65
417.244	4.56
417.45	4.48
417.657	4.66
417.863	4.82
418.069	4.89
418.275	4.97
418.481	4.96
418.687	4.88
418.893	4.79
419.099	4.91
419.305	4.98
419.511	4.86
419.717	4.99
419.923	4.95
420.129	5.01
420.335	4.91
420.541	4.86
420.746	4.85
420.952	4.87
421.158	4.87
421.364	4.68
421.57	4.72
421.776	4.76
421.982	4.69
422.187	4.7
422.393	4.53
422.599	4.55
422.805	4.54
423.01	4.43
423.216	4.39
423.422	4.35
423.628	4.47
423.833	4.49
424.039	4.45
424.245	4.47
424.45	4.54
424.656	4.7
424.862	4.62
425.067	4.62
425.273	4.7
425.478	4.72
425.684	4.65
425.889	4.52
426.095	4.35
426.301	4.49
426.506	4.42
426.712	4.1
426.917	3.96
427.123	3.99
427.328	3.87
427.533	3.88
427.739	3.9
427.944	4.08
428.15	4.16
428.355	4.19
428.561	4.24
428.766	4.2
428.971	4.5
429.177	4.59
429.382	4.41
429.587	4.65
429.793	4.53
429.998	4.58
430.203	4.48
430.408	4.46
430.614	4.68
430.819	4.47
431.024	4.43
431.229	4.35
431.434	4.31
431.64	4.49
431.845	4.36
432.05	4.68
432.255	4.71
432.46	4.82
432.665	5.07
432.87	4.83
433.076	5.03
433.281	5.17
433.486	5.12
433.691	5.16
433.896	5.21
434.101	5.22
434.306	5.11
434.511	5.01
434.716	4.89
434.921	4.71
435.126	4.74
435.331	4.7
435.535	4.74
435.74	4.74
435.945	4.8
436.15	4.98
436.355	4.95
436.56	4.83
436.765	4.91
436.97	4.89
437.174	5.02
437.379	5.07
437.584	5.14
437.789	5.07
437.993	5.12
438.198	5.01
438.403	4.88
438.608	5.14
438.812	5.12
439.017	5.08
439.222	5.22
439.426	5.11
439.631	5.18
439.836	5.1
440.04	5.11
440.245	5.07
440.45	5.07
440.654	5.02
440.859	4.92
441.063	5.04
441.268	5.05
441.472	4.85
441.677	4.98
441.881	5.12
442.086	5.01
442.29	5.05
442.495	5.08
442.699	5.22
442.904	5.27
443.108	5.11
443.312	5.09
443.517	5.12
443.721	5.23
443.925	5.01
444.13	4.71
444.334	4.82
444.538	4.71
444.743	4.73
444.947	4.47
445.151	4.47
445.356	4.54
445.56	4.56
445.764	4.45
445.968	4.46
446.173	4.52
446.377	4.59
446.581	4.7
446.785	4.8
446.989	4.81
447.193	4.92
447.398	4.93
447.602	4.91
447.806	4.87
448.01	4.93
448.214	4.91
448.418	4.85
448.622	4.92
448.826	4.81
449.03	4.77
449.234	4.76
449.438	4.74
449.642	4.78
449.846	4.88
450.05	4.92
450.254	4.85
450.458	5.03
450.662	5.02
450.866	4.89
451.069	4.88
451.273	4.89
451.477	4.85
451.681	4.88
451.885	4.65
452.089	4.65
452.292	4.54
452.496	4.68
452.7	4.49
452.904	4.4
453.107	4.33
453.311	4.24
453.515	4.14
453.719	4.13
453.922	4.04
454.126	4.1
454.33	4
454.533	3.99
454.737	3.88
454.94	3.99
455.144	4.18
455.348	4.34
455.551	4.64
455.755	4.67
455.958	4.65
456.162	4.59
456.365	4.57
456.569	4.62
456.772	4.6
456.976	4.56
457.179	4.49
457.383	4.49
457.586	4.49
457.79	4.33
457.993	4.22
458.196	4.14
458.4	4.22
458.603	4.21
458.807	4.23
459.01	4.29
459.213	4.39
459.417	4.37
459.62	4.35
459.823	4.3
460.026	4.35
460.23	4.37
460.433	4.51
460.636	4.55
460.839	4.63
461.042	4.66
461.246	4.65
461.449	4.62
461.652	4.65
461.855	4.67
462.058	4.78
462.261	4.72
462.464	4.81
462.668	4.69
462.871	4.66
463.074	4.69
463.277	4.71
463.48	4.62
463.683	4.53
463.886	4.54
464.089	4.51
464.292	4.4
464.495	4.39
464.698	4.42
464.901	4.67
465.104	4.67
465.306	4.54
465.509	4.42
465.712	4.49
465.915	4.61
466.118	4.43
466.321	4.56
466.524	4.67
466.726	4.67
466.929	4.54
467.132	4.28
467.335	4.38
467.538	4.37
467.74	4.45
467.943	4.43
468.146	4.43
468.348	4.63
468.551	4.58
468.754	4.49
468.956	4.41
469.159	4.34
469.362	4.41
469.564	4.41
469.767	4.49
469.969	4.44
470.172	4.57
470.375	4.57
470.577	4.5
470.78	4.38
470.982	4.27
471.185	4.33
471.387	4.48
471.59	4.6
471.792	4.36
471.995	4.43
472.197	4.43
472.399	4.43
472.602	4.37
472.804	4.52
473.007	4.46
473.209	4.48
473.411	4.42
473.614	4.54
473.816	4.46
474.018	4.58
474.22	4.33
474.423	4.51
474.625	4.29
474.827	4.19
475.03	4.1
475.232	4.16
475.434	4.34
475.636	4.31
475.838	4.08
476.04	3.98
476.243	4.18
476.445	4.41
476.647	4.37
476.849	4.59
477.051	4.78
477.253	4.66
477.455	4.67
477.657	4.66
477.859	4.73
478.061	4.87
478.263	4.96
478.465	4.89
478.667	4.77
478.869	4.74
479.071	4.68
479.273	4.55
479.475	4.5
479.677	4.56
479.879	4.53
480.081	4.55
480.283	4.45
480.485	4.32
480.686	4.31
480.888	4.39
481.09	4.31
481.292	4.3
481.494	4.38
481.695	4.58
481.897	4.51
482.099	4.45
482.301	4.46
482.502	4.5
482.704	4.57
482.906	4.49
483.107	4.45
483.309	4.44
483.511	4.45
483.712	4.45
483.914	4.42
484.115	4.43
484.317	4.42
484.519	4.41
484.72	4.4
484.922	4.43
485.123	4.47
485.325	4.45
485.526	4.48
485.728	4.5
485.929	4.46
486.131	4.45
486.332	4.44
486.534	4.42
486.735	4.45
486.936	4.45
487.138	4.45
487.339	4.44
487.541	4.48
487.742	4.49
487.943	4.51
488.144	4.54
488.346	4.58
488.547	4.59
488.748	4.59
488.95	4.58
489.151	4.6
489.352	4.52
489.553	4.57
489.755	4.56
489.956	4.43
490.157	4.3
490.358	4.33
490.559	4.25
490.76	4.27
490.961	4.31
491.163	4.29
491.364	4.3
491.565	4.29
491.766	4.21
491.967	4.19
492.168	4.31
492.369	4.36
492.57	4.39
492.771	4.43
492.972	4.5
493.173	4.45
493.374	4.4
493.575	4.46
493.776	4.56
493.976	4.61
494.177	4.68
494.378	4.77
494.579	4.82
494.78	4.85
494.981	4.86
495.182	4.81
495.382	4.92
495.583	5.04
495.784	5.04
495.985	5.13
496.185	5.14
496.386	5.19
496.587	5.1
496.788	5.09
496.988	5.08
497.189	4.98
497.39	5.02
497.59	5
497.791	5
497.992	4.92
498.192	4.68
498.393	4.54
498.593	4.51
498.794	4.45
498.994	4.4
499.195	4.38
499.395	4.53
499.596	4.52
499.796	4.59
499.997	4.71
500.197	4.72
500.398	4.76
500.598	4.94
500.799	5.07
500.999	5.06
501.199	5.08
501.4	5.08
501.6	4.97
501.801	4.79
502.001	4.73
502.201	4.83
502.402	4.93
502.602	5.19
502.802	5.36
503.002	5.23
503.203	5.35
503.403	5.39
503.603	5.44
503.803	5.38
504.003	5.55
504.204	5.67
504.404	5.62
504.604	5.54
504.804	5.43
505.004	5.31
505.204	5.35
505.404	5.26
505.604	5.21
505.804	5.15
506.005	5.32
506.205	5.32
506.405	5.26
506.605	5.13
506.805	5.21
507.005	5.24
507.204	5.15
507.404	5.14
507.604	5.25
507.804	5.35
508.004	5.33
508.204	5.42
508.404	5.45
508.604	5.45
508.804	5.57
509.003	5.49
509.203	5.47
509.403	5.57
509.603	5.51
509.803	5.53
510.002	5.58
510.202	5.57
510.402	5.53
510.602	5.59
510.801	5.57
511.001	5.68
511.201	5.7
511.4	5.88
511.6	5.98
511.8	6.18
511.999	6.17
512.199	6.21
512.398	6.24
512.598	6.24
512.797	6.12
512.997	6.27
513.197	6.2
513.396	6.23
513.596	6.09
513.795	6.12
513.994	6.14
514.194	6.25
514.393	6.27
514.593	6.46
514.792	6.52
514.992	6.59
515.191	6.67
515.39	6.5
515.59	6.6
515.789	6.7
515.988	6.69
516.188	6.49
516.387	6.45
516.586	6.42
516.786	6.37
516.985	6.27
517.184	6.23
517.383	6.19
517.582	6.34
517.782	6.32
517.981	6.36
518.18	6.4
518.379	6.54
518.578	6.58
518.777	6.56
518.976	6.53
519.176	6.57
519.375	6.63
519.574	6.58
519.773	6.52
519.972	6.55
520.171	6.48
520.37	6.32
520.569	6.31
520.768	6.21
520.967	6.27
521.166	6.29
521.365	6.38
521.564	6.41
521.762	6.46
521.961	6.54
522.16	6.48
522.359	6.63
522.558	6.7
522.757	6.7
522.956	6.82
523.154	6.85
523.353	6.96
523.552	6.83
523.751	6.8
523.949	6.83
524.148	6.86
524.347	6.91
524.546	6.88
524.744	6.93
524.943	6.95
525.142	7.08
525.34	7
525.539	6.98
525.737	7.14
525.936	7.2
526.135	7.12
526.333	7.2
526.532	7.25
526.73	7.24
526.929	7.27
527.127	7.33
527.326	7.21
527.524	7.34
527.723	7.39
527.921	7.41
528.12	7.39
528.318	7.46
528.516	7.37
528.715	7.39
528.913	7.38
529.112	7.42
529.31	7.38
529.508	7.37
529.707	7.29
529.905	7.29
530.103	7.24
530.301	7.23
530.5	7.2
530.698	7.27
530.896	7.29
531.094	7.38
531.293	7.33
531.491	7.39
531.689	7.52
531.887	7.66
532.085	7.69
532.283	7.73
532.481	7.77
532.68	7.82
532.878	7.81
533.076	7.83
533.274	7.79
533.472	7.95
533.67	8.01
533.868	8.01
534.066	8.01
534.264	7.97
534.462	7.99
534.66	8.04
534.858	8.04
535.056	8.06
535.253	8.01
535.451	8.03
535.649	7.93
535.847	7.96
536.045	7.95
536.243	7.96
536.441	8.06
536.638	8.19
536.836	8.22
537.034	8.36
537.232	8.49
537.43	8.71
537.627	8.78
537.825	8.86
538.023	8.89
538.22	8.9
538.418	8.88
538.616	8.83
538.813	8.75
539.011	8.82
539.209	8.83
539.406	8.74
539.604	8.68
539.801	8.69
539.999	8.67
540.196	8.69
540.394	8.82
540.591	8.92
540.789	8.99
540.986	9.08
541.184	9.18
541.381	9.08
541.579	9.19
541.776	9.2
541.974	9.23
542.171	9.27
542.368	9.31
542.566	9.36
542.763	9.36
542.96	9.41
543.158	9.38
543.355	9.27
543.552	9.42
543.75	9.4
543.947	9.48
544.144	9.55
544.341	9.57
544.539	9.63
544.736	9.66
544.933	9.71
545.13	9.86
545.327	9.96
545.524	10.08
545.722	10.12
545.919	10.12
546.116	9.96
546.313	10.01
546.51	10.14
546.707	10.16
546.904	10.21
547.101	10.27
547.298	10.23
547.495	10.21
547.692	10.25
547.889	10.33
548.086	10.48
548.283	10.67
548.48	10.66
548.677	10.59
548.874	10.59
549.07	10.57
549.267	10.62
549.464	10.66
549.661	10.79
549.858	10.85
550.055	11.07
550.251	11.19
550.448	11.26
550.645	11.42
550.842	11.54
551.038	11.63
551.235	11.68
551.432	11.62
551.628	11.57
551.825	11.62
552.022	11.57
552.218	11.44
552.415	11.47
552.612	11.6
552.808	11.69
553.005	11.86
553.201	11.89
553.398	12.01
553.594	12.15
553.791	12.27
553.987	12.34
554.184	12.44
554.38	12.59
554.577	12.59
554.773	12.58
554.97	12.7
555.166	12.63
555.362	12.77
555.559	12.84
555.755	12.86
555.952	13.04
556.148	13.15
556.344	13.35
556.541	13.4
556.737	13.28
556.933	13.36
557.129	13.37
557.326	13.56
557.522	13.48
557.718	13.65
557.914	13.63
558.11	13.58
558.307	13.82
558.503	13.84
558.699	13.87
558.895	14
559.091	14.14
559.287	14.11
559.483	13.92
559.679	14.09
559.876	14.05
560.072	14.29
560.268	14.51
560.464	14.37
560.66	14.39
560.856	14.45
561.052	14.73
561.247	14.58
561.443	14.79
561.639	14.91
561.835	15.11
562.031	15.32
562.227	15.31
562.423	15.17
562.619	15.33
562.815	15.5
563.01	15.4
563.206	15.36
563.402	15.62
563.598	15.5
563.793	15.66
563.989	15.7
564.185	15.62
564.381	15.73
564.576	16.06
564.772	16.02
564.968	16.22
565.163	16.34
565.359	16.38
565.555	16.46
565.75	16.5
565.946	16.57
566.141	16.45
566.337	16.42
566.532	16.49
566.728	16.4
566.923	16.5
567.119	16.15
567.314	16.11
567.51	16.12
567.705	16.15
567.901	16.37
568.096	16.44
568.292	16.67
568.487	16.78
568.682	16.91
568.878	17.07
569.073	17.06
569.268	17.26
569.464	17.48
569.659	17.62
569.854	17.63
570.05	17.49
570.245	17.73
570.44	17.77
570.635	17.87
570.831	17.76
571.026	18.02
571.221	18.14
571.416	18.38
571.611	18.43
571.806	18.5
572.002	18.51
572.197	18.53
572.392	18.43
572.587	18.32
572.782	18.34
572.977	18.61
573.172	18.42
573.367	18.38
573.562	18.4
573.757	18.54
573.952	18.46
574.147	18.74
574.342	19.12
574.537	19.28
574.732	19.45
574.927	19.62
575.121	19.5
575.316	19.71
575.511	19.76
575.706	19.82
575.901	19.68
576.096	19.88
576.29	19.89
576.485	19.79
576.68	19.78
576.875	19.89
577.069	19.79
577.264	20
577.459	19.96
577.654	20.09
577.848	20.05
578.043	20.23
578.238	20.14
578.432	20.04
578.627	20.11
578.821	20.1
579.016	20.15
579.21	20.2
579.405	19.92
579.6	19.82
579.794	20.02
579.989	20.19
580.183	20.28
580.378	20.36
580.572	20.6
580.766	20.7
580.961	20.66
581.155	20.52
581.35	20.8
581.544	21.06
581.738	21.29
581.933	21.15
582.127	21.07
582.321	20.98
582.516	21.29
582.71	21.21
582.904	21.13
583.099	21.32
583.293	21.69
583.487	21.61
583.681	21.74
583.875	21.44
584.07	21.55
584.264	21.61
584.458	21.7
584.652	21.47
584.846	21.28
585.04	21.44
585.234	21.56
585.428	21.48
585.623	21.51
585.817	21.55
586.011	21.93
586.205	21.91
586.399	22.06
586.593	22.13
586.787	22.35
586.981	22.52
587.174	22.52
587.368	22.27
587.562	22.2
587.756	22.29
587.95	22.35
588.144	22.29
588.338	22.4
588.532	22.42
588.725	22.45
588.919	22.38
589.113	22.59
589.307	22.64
589.501	22.73
589.694	22.99
589.888	23.19
590.082	23.3
590.275	23.34
590.469	23.4
590.663	23.38
590.856	23.41
591.05	23.7
591.244	23.8
591.437	23.92
591.631	24.01
591.824	24.25
592.018	24.1
592.212	24.08
592.405	24.16
592.599	24.24
592.792	24.07
592.986	24.24
593.179	24.11
593.372	24.16
593.566	24.23
593.759	24.46
593.953	24.13
594.146	24.3
594.339	24.33
594.533	24.41
594.726	24.43
594.92	24.59
595.113	24.55
595.306	24.51
595.499	24.53
595.693	24.42
595.886	24.34
596.079	24.41
596.272	24.24
596.466	24.34
596.659	24.28
596.852	24.36
597.045	24.5
597.238	24.63
597.431	24.6
597.624	24.76
597.818	24.8
598.011	25.06
598.204	25.23
598.397	25.44
598.59	25.56
598.783	25.75
598.976	25.88
599.169	25.8
599.362	25.86
599.555	26.05
599.748	25.83
599.941	25.95
600.134	25.75
600.326	25.63
600.519	25.5
600.712	25.29
600.905	25.16
601.098	25.05
601.291	25.42
601.483	25.32
601.676	25.36
601.869	25.35
602.062	25.38
602.255	25.46
602.447	25.51
602.64	25.59
602.833	25.77
603.025	25.88
603.218	26.05
603.411	25.96
603.603	26.07
603.796	26.23
603.989	26.53
604.181	26.62
604.374	26.68
604.566	26.6
604.759	26.78
604.951	26.72
605.144	26.81
605.336	26.73
605.529	26.82
605.721	26.95
605.914	26.94
606.106	26.83
606.299	26.84
606.491	26.81
606.683	26.92
606.876	26.86
607.068	26.93
607.26	27.09
607.453	27.28
607.645	27.31
607.837	27.18
608.03	27.19
608.222	27.37
608.414	27.08
608.606	27.14
608.799	27.2
608.991	27.33
609.183	27.38
609.375	27.2
609.567	27.07
609.759	26.94
609.952	26.86
610.144	26.73
610.336	26.71
610.528	27.04
610.72	27.16
610.912	27.23
611.104	27.21
611.296	27.32
611.488	27.27
611.68	27.32
611.872	27.41
612.064	27.64
612.256	27.69
612.448	27.63
612.64	27.58
612.832	27.48
613.023	27.44
613.215	27.35
613.407	27.08
613.599	27.33
613.791	27.58
613.983	27.81
614.174	28.16
614.366	28.45
614.558	28.56
614.75	28.6
614.941	28.65
615.133	28.78
615.325	28.82
615.516	28.82
615.708	28.71
615.9	28.58
616.091	28.48
616.283	28.27
616.475	28.3
616.666	27.9
616.858	27.85
617.049	27.85
617.241	27.78
617.432	27.93
617.624	28.14
617.815	27.92
618.007	27.76
618.198	27.69
618.39	27.63
618.581	27.55
618.773	27.92
618.964	27.91
619.155	28.05
619.347	28.05
619.538	27.92
619.729	27.73
619.921	27.95
620.112	28.16
620.303	28.31
620.494	28.25
620.686	28.35
620.877	28.53
621.068	28.71
621.259	29
621.451	28.87
621.642	29.06
621.833	29.66
622.024	29.73
622.215	29.85
622.406	29.83
622.597	29.78
622.788	29.58
622.98	29.58
623.171	29.54
623.362	29.41
623.553	29.79
623.744	29.56
623.935	29.07
624.126	29.35
624.317	29.21
624.508	29.21
624.698	29.56
624.889	29.82
625.08	29.91
625.271	29.64
625.462	29.5
625.653	29.58
625.844	29.94
626.034	30.38
626.225	30.32
626.416	30.49
626.607	30.54
626.798	30.38
626.988	30.54
627.179	30.28
627.37	30.82
627.56	30.65
627.751	30.58
627.942	30.35
628.132	30.34
628.323	30.45
628.514	30.4
628.704	30.42
628.895	30.47
629.085	30.5
629.276	30.59
629.466	30.45
629.657	30.6
629.847	30.79
630.038	30.98
630.228	30.7
630.419	30.63
630.609	30.75
630.8	30.75
630.99	30.7
631.181	30.78
631.371	30.77
631.561	30.73
631.752	30.87
631.942	30.51
632.132	30.5
632.323	30.58
632.513	30.49
632.703	30.71
632.893	30.88
633.084	31.24
633.274	31.12
633.464	31.27
633.654	31.49
633.844	31.84
634.034	32.2
634.225	32.25
634.415	32.26
634.605	32.63
634.795	32.48
634.985	32.58
635.175	32.33
635.365	32.31
635.555	32.5
635.745	32.55
635.935	32.16
636.125	31.95
636.315	31.74
636.505	31.76
636.695	31.86
636.885	31.79
637.075	31.58
637.265	31.75
637.455	31.63
637.644	31.7
637.834	31.38
638.024	31.49
638.214	31.49
638.404	31.7
638.593	32.11
638.783	31.94
638.973	32.05
639.163	32.43
639.352	32.5
639.542	32.89
639.732	32.8
639.921	32.67
640.111	32.71
640.301	32.76
640.49	33.22
640.68	33.02
640.87	32.75
641.059	33.06
641.249	32.99
641.438	32.86
641.628	32.6
641.817	32.51
642.007	32.89
642.196	33.32
642.386	33.24
642.575	32.95
642.764	32.84
642.954	33.06
643.143	32.86
643.333	32.64
643.522	32.82
643.711	32.89
643.901	32.73
644.09	32.98
644.279	32.65
644.469	32.82
644.658	32.87
644.847	33.44
645.036	33.34
645.226	33.36
645.415	33.57
645.604	33.48
645.793	33.82
645.982	33.83
646.171	33.62
646.361	33.66
646.55	33.69
646.739	33.63
646.928	33.6
647.117	33.72
647.306	33.79
647.495	33.73
647.684	33.64
647.873	33.47
648.062	33.58
648.251	33.67
648.44	33.71
648.629	33.99
648.818	34.28
649.007	33.78
649.196	34.04
649.384	33.95
649.573	34.12
649.762	34.32
649.951	34.24
650.14	34.43
650.328	34.56
650.517	34.41
650.706	34.51
650.895	34.41
651.083	34.63
651.272	34.3
651.461	34.29
651.65	34.22
651.838	34.5
652.027	34.73
652.216	34.92
652.404	34.57
652.593	35.01
652.781	34.58
652.97	34.43
653.158	34.5
653.347	34.7
653.535	35
653.724	35.24
653.912	35.04
654.101	35.05
654.289	34.8
654.478	35.07
654.666	34.81
654.855	35.09
655.043	35.18
655.231	34.93
655.42	35.28
655.608	35.18
655.796	35.16
655.985	35.26
656.173	34.85
656.361	34.77
656.55	34.88
656.738	34.71
656.926	34.77
657.114	34.66
657.302	34.9
657.491	34.71
657.679	34.81
657.867	34.97
658.055	34.89
658.243	35.37
658.431	35.71
658.619	35.84
658.807	36.1
658.996	36.25
659.184	36.3
659.372	36.31
659.56	36.21
659.748	36.32
659.936	36.27
660.124	36.23
660.311	36.07
660.499	35.8
660.687	35.6
660.875	35.61
661.063	35.63
661.251	36.01
661.439	36.23
661.627	36.55
661.814	36.45
662.002	36
662.19	35.98
662.378	36.07
662.565	36.4
662.753	36.35
662.941	36.51
663.129	36.44
663.316	36.24
663.504	36.45
663.692	36.37
663.879	36.69
664.067	36.97
664.254	37.42
664.442	37.71
664.63	37.67
664.817	37.75
665.005	37.83
665.192	37.83
665.38	37.56
665.567	37.33
665.755	37.16
665.942	36.77
666.13	37.13
666.317	37.63
666.504	37.5
666.692	37.46
666.879	37.6
667.067	37.45
667.254	37.65
667.441	37.44
667.629	37.17
667.816	37.18
668.003	37.22
668.19	36.98
668.378	36.51
668.565	36.89
668.752	36.9
668.939	36.97
669.127	36.72
669.314	36.74
669.501	37.02
669.688	37.48
669.875	37.31
670.062	37.15
670.249	37.15
670.436	37.36
670.623	36.74
670.81	36.81
670.997	36.83
671.184	36.92
671.371	37.2
671.558	37.3
671.745	36.94
671.932	37.27
672.119	37.54
672.306	37.87
672.493	37.41
672.68	38.01
672.867	37.52
673.054	37.86
673.24	38.13
673.427	37.83
673.614	38.03
673.801	37.7
673.988	37.68
674.174	37.58
674.361	37.56
674.548	37.66
674.734	37.4
674.921	38.19
675.108	37.93
675.294	38.16
675.481	38.03
675.668	37.57
675.854	38.34
676.041	38.13
676.227	38.07
676.414	37.69
676.601	37.7
676.787	37.55
676.974	37.58
677.16	37.84
677.347	37.34
677.533	37.34
677.719	38
677.906	37.94
678.092	38.33
678.279	38.74
678.465	38.72
678.651	38.92
678.838	39.16
679.024	39.12
679.21	38.84
679.397	38.77
679.583	38.92
679.769	38.83
679.955	38.52
680.142	38.66
680.328	38.27
680.514	38.6
680.7	38.41
680.886	38.7
681.073	39.01
681.259	39.13
681.445	39.16
681.631	38.74
681.817	38.95
682.003	39.16
682.189	38.92
682.375	39.43
682.561	39.3
682.747	39.53
682.933	39
683.119	38.28
683.305	38.6
683.491	38.96
683.677	39.61
683.863	39.6
684.049	39.55
684.235	39.48
684.42	39.16
684.606	39.13
684.792	39.29
684.978	39.49
685.164	40
685.349	39.29
685.535	39.36
685.721	38.98
685.907	38.8
686.092	39.52
686.278	39.6
686.464	39.69
686.649	40.13
686.835	40.06
687.021	40.29
687.206	39.89
687.392	40.29
687.577	40.26
687.763	40.65
687.948	40.56
688.134	40.17
688.319	40.34
688.505	40.32
688.69	40.22
688.876	40.13
689.061	39.69
689.247	39.76
689.432	39.8
689.618	39.66
689.803	39.45
689.988	39.84
690.174	39.58
690.359	39.18
690.544	39.66
690.73	40.19
690.915	40.43
691.1	40.45
691.285	40.72
691.471	40.87
691.656	41.2
691.841	41.29
692.026	40.94
692.211	41.14
692.396	41.53
692.582	41.68
692.767	40.96
692.952	40.78
693.137	41.49
693.322	41.41
693.507	41.55
693.692	41.52
693.877	41.72
694.062	41.6
694.247	42.01
694.432	42.01
694.617	41.3
694.802	41.7
694.987	41.63
695.172	41.25
695.357	41.35
695.541	41.15
695.726	40.79
695.911	41.04
696.096	41.33
696.281	41.38
696.466	41.59
696.65	41.72
696.835	41.82
697.02	41.9
697.204	41.4
697.389	41.6
697.574	41.63
697.759	41.66
697.943	41.27
698.128	41.35
698.312	41.3
698.497	41.03
698.682	41.49
698.866	41.07
699.051	41.54
699.235	41.96
699.42	41.68
699.604	41.79
699.789	41.87
699.973	41.93
700.158	41.8
700.342	41.65
700.527	42.01
700.711	41.42
700.895	41.39
701.08	40.64
701.264	40.69
701.448	40.63
701.633	40.53
701.817	41.26
702.001	41.53
702.186	41.72
702.37	41.83
702.554	41.42
702.738	41.55
702.923	41.89
703.107	42.36
703.291	42.7
703.475	43.18
703.659	43.39
703.843	42.48
704.027	42.1
704.212	41.89
704.396	41.47
704.58	42.12
704.764	41.89
704.948	42.1
705.132	42.52
705.316	42.22
705.5	42.52
705.684	42.4
705.868	42.55
706.052	42.22
706.235	42.14
706.419	42.25
706.603	41.65
706.787	41.67
706.971	41.59
707.155	40.87
707.339	40.9
707.522	40.12
707.706	39.97
707.89	39.83
708.074	40.47
708.257	40.46
708.441	40.24
708.625	41.55
708.808	42.59
708.992	42.36
709.176	43.32
709.359	43.74
709.543	44.7
709.727	44.79
709.91	44.77
710.094	43.77
710.277	43.91
710.461	44.15
710.644	43.49
710.828	43.31
711.011	43.01
711.195	42.4
711.378	42.18
711.562	42.31
711.745	41.98
711.928	42.94
712.112	44.46
712.295	45.19
712.478	45.45
712.662	45.77
712.845	45.26
713.028	45.67
713.212	45.13
713.395	44.64
713.578	44.26
713.761	45.21
713.945	44.34
714.128	43.4
714.311	42.41
714.494	42.57
714.677	42.05
714.86	42.07
715.043	42.28
715.227	42.77
715.41	42.82
715.593	42.57
715.776	42.06
715.959	42.19
716.142	42.71
716.325	43.37
716.508	43.5
716.691	43.21
716.874	42.99
717.057	42.75
717.239	42.49
717.422	43.34
717.605	43.13
717.788	43.22
717.971	42.85
718.154	42.94
718.337	43.2
718.519	42.66
718.702	43.02
718.885	43.4
719.068	43.62
719.25	43.94
719.433	42.47
719.616	42.77
719.798	42.64
719.981	43.14
720.164	42.46
720.346	42.1
720.529	41.63
720.712	41.89
720.894	41.45
721.077	41.43
721.259	41.61
721.442	42.45
721.624	42.33
721.807	42.13
721.989	41.95
722.172	42.47
722.354	42.43
722.537	43.27
722.719	43.19
722.901	43.87
723.084	44.23
723.266	43.96
723.448	43.89
723.631	44.02
723.813	43.88
723.995	44.29
724.178	44.43
724.36	43.98
724.542	44.06
724.724	43.84
724.907	43.78
725.089	43.49
725.271	43.43
725.453	43.34
725.635	42.99
725.817	43.53
725.999	43.71
726.181	43.73
726.364	44.32
726.546	44.07
726.728	43.91
726.91	43.74
727.092	43.34
727.274	43.57
727.456	43.65
727.638	43.83
727.819	43.3
728.001	42.67
728.183	42.37
728.365	41.72
728.547	42.56
728.729	42.95
728.911	43.42
729.093	43.55
729.274	43.32
729.456	42.97
729.638	42.81
729.82	43.25
730.001	44.02
730.183	44.26
730.365	44.81
730.546	43.91
730.728	42.95
730.91	42.65
731.091	42.47
731.273	43.04
731.455	43.33
731.636	43.15
731.818	43.35
731.999	42.78
732.181	42.31
732.362	41.99
732.544	41.9
732.725	42.51
732.907	42.33
733.088	42.2
733.27	41.56
733.451	41.12
733.633	41.53
733.814	41.41
733.995	41.62
734.177	41.53
734.358	41.91
734.539	42.55
734.721	42.86
734.902	43.52
735.083	44.27
735.264	44.72
735.446	44.91
735.627	45.97
735.808	45.22
735.989	44.95
736.17	44.88
736.351	45.06
736.533	44.38
736.714	44.16
736.895	43.73
737.076	44.58
737.257	44.41
737.438	44.8
737.619	43.6
737.8	43.92
737.981	44.78
738.162	44.99
738.343	44.43
738.524	45.52
738.705	45.15
738.886	45.32
739.067	44
739.247	44.39
739.428	43.93
739.609	44.16
739.79	44.16
739.971	43.95
740.151	43.74
740.332	43.31
740.513	42.37
740.694	42.76
740.874	42.24
741.055	42.51
741.236	41.46
741.417	42.15
741.597	42.39
741.778	42.8
741.958	42.67
742.139	43.9
742.32	44.29
742.5	44.49
742.681	44.34
742.861	45.34
743.042	45.26
743.222	45.89
743.403	46.74
743.583	47.08
743.764	47.76
743.944	46.39
744.124	45.82
744.305	46.38
744.485	46.61
744.666	46.07
744.846	46.09
745.026	47.58
745.207	46.68
745.387	46.04
745.567	45.6
745.747	44.42
745.928	46.27
746.108	45.89
746.288	45.4
746.468	46.06
746.648	46.69
746.829	45.6
747.009	43.92
747.189	44.39
747.369	43.81
747.549	44.1
747.729	44.39
747.909	44.18
748.089	45.19
748.269	45.62
748.449	44.6
748.629	45.4
748.809	45.47
748.989	46.5
749.169	46.68
749.349	47.02
749.529	45.9
749.709	45.15
749.889	45.14
750.068	44.68
750.248	44.88
750.428	44.25
750.608	43.75
750.788	44.47
750.967	44.53
751.147	44.98
751.327	44.19
751.507	44.95
751.686	45.6
751.866	45.34
752.046	44.31
752.225	44.23
752.405	45.66
752.585	44.88
752.764	44.33
752.944	44.01
753.123	43.35
753.303	43.99
753.482	44.09
753.662	44.07
753.841	44.23
754.021	44.98
754.2	44.23
754.38	43.41
754.559	44.38
754.739	44.29
754.918	44.48
755.097	44.96
755.277	44.67
755.456	44.23
755.635	43.96
755.815	44.21
755.994	44.17
756.173	44.91
756.352	44.55
756.532	44.33
756.711	44.4
756.89	43.53
757.069	44.24
757.248	45.57
757.427	46.34
757.607	46.83
757.786	45.84
757.965	47.01
758.144	46.92
758.323	46.49
758.502	46.28
758.681	46.85
758.86	47.89
759.039	46.98
759.218	47.31
759.397	47.05
759.576	46.6
759.755	47.72
759.934	46.56
760.113	45.68
760.291	46.75
760.47	47.11
760.649	46.27
760.828	46.01
761.007	45.76
761.186	44.17
761.364	44.58
761.543	45.17
761.722	44.16
761.901	44.35
762.079	46.06
762.258	46.3
762.437	45.35
762.615	45.49
762.794	45.35
762.972	45.92
763.151	46.38
763.33	46.24
763.508	46.58
763.687	47.12
763.865	47.38
764.044	46.13
764.222	46.07
764.401	46.81
764.579	46.82
764.758	46.77
764.936	46.13
765.114	46.04
765.293	45.7
765.471	44.86
765.65	45.05
765.828	44.8
766.006	45.15
766.184	44.28
766.363	44.34
766.541	44.41
766.719	44.35
766.898	45.52
767.076	45.25
767.254	44.8
767.432	45.07
767.61	45.05
767.788	44.13
767.967	45.2
768.145	46.38
768.323	45.6
768.501	46.51
768.679	46.38
768.857	45.2
769.035	44.52
769.213	45.38
769.391	45.74
769.569	44.98
769.747	46.61
769.925	47.21
770.103	46.21
770.281	47.37
770.459	45.96
770.636	45.86
770.814	47.12
770.992	46.78
771.17	46.14
771.348	45.57
771.525	44.58
771.703	44.36
771.881	41.81
772.059	40.54
772.236	40.13
772.414	41.41
772.592	39.94
772.769	39.4
772.947	39.94
773.125	39.77
773.302	39.04
773.48	40.48
773.657	39.42
773.835	40.75
774.013	43.01
774.19	43.8
774.368	41.91
774.545	44.13
774.723	44.76
774.9	45.72
775.077	45.31
775.255	47.55
775.432	47.47
775.61	46.8
775.787	46.28
775.964	45.54
776.142	45.91
776.319	48.31
776.496	46.96
776.674	44.93
776.851	44.48
777.028	45.2
777.205	45.67
777.382	44.13
777.56	45.2
777.737	45.62
777.914	45.8
778.091	44.21
778.268	42.02
778.445	42.48
778.622	44.38
778.8	45.28
778.977	46.22
779.154	45.28
779.331	47.68
779.508	48.32
779.685	47.25
779.862	47.31
780.038	47.08
780.215	48.61
780.392	49.37
780.569	48.38
780.746	48.52
780.923	48.75
781.1	48.16
781.277	45.98
781.453	45.09
781.63	44.9
781.807	43.9
781.984	43.82
782.16	42.08
782.337	40.21
782.514	41.15
782.691	40.36
782.867	39.94
783.044	39.77
783.221	41.16
783.397	42.79
783.574	43.83
783.75	43.41
783.927	44.29
784.103	46.65
784.28	46.85
784.456	45.94
784.633	47
784.809	46.73
784.986	47.07
785.162	48.19
785.339	48.88
785.515	48.87
785.692	49.23
785.868	46.42
786.044	46.55
786.221	48.81
786.397	49.09
786.573	48.61
786.749	48.67
786.926	47.67
787.102	47.44
787.278	45.58
787.454	46.3
787.631	47.93
787.807	49.44
787.983	47.13
788.159	46.38
788.335	45.49
788.511	44.98
788.687	44.28
788.863	46.02
789.039	44.46
789.216	45.81
789.392	45.76
789.568	45.24
789.744	44.79
789.919	45.92
790.095	46.12
790.271	46.96
790.447	46
790.623	45.72
790.799	44.71
790.975	43.95
791.151	41.67
791.327	41.45
791.502	40.31
791.678	41.73
791.854	40.74
792.03	39.68
792.205	40.37
792.381	41.56
792.557	42.59
792.733	41.42
792.908	42.78
793.084	43.88
793.259	43.37
793.435	46.15
793.611	46.17
793.786	46.92
793.962	47.54
794.137	45.96
794.313	45.07
794.488	45.8
794.664	48.7
794.839	48.4
795.015	48.46
795.19	47.81
795.366	46.39
795.541	46.57
795.716	46.48
795.892	44.9
796.067	46.09
796.242	47.2
796.418	45.92
796.593	44.89
796.768	45.36
796.944	43.41
797.119	43.82
797.294	43.39
797.469	43.09
797.644	44.51
797.82	45.95
797.995	44.87
798.17	43.25
798.345	45.12
798.52	42.86
798.695	42.81
798.87	43.82
799.045	44.65
799.22	44.61
799.395	44.53
799.57	44.13
799.745	44.66
799.92	46.33
800.095	47.4
800.27	47.28
800.445	47.65
800.62	47.79
800.795	48.41
800.97	47.23
801.145	47.57
801.319	47.86
801.494	45.72
801.669	46.58
801.844	45.02
802.018	45.42
802.193	43.88
802.368	45.15
802.543	45.27
802.717	46.82
802.892	46.59
803.067	47.8
803.241	46.58
803.416	47.52
803.59	45.27
803.765	45.32
803.94	44.29
804.114	43.4
804.289	44.3
804.463	44.15
804.638	44.72
804.812	45.75
804.986	44.06
805.161	44.84
805.335	48.37
805.51	50.25
805.684	49.66
805.858	50.72
806.033	52.69
806.207	52.07
806.381	53.11
806.556	52.58
806.73	53.6
806.904	55.03
807.078	54.45
807.253	52.02
807.427	52.44
807.601	53.41
807.775	52.65
807.949	51.49
808.123	51.91
808.298	49.47
808.472	48.18
808.646	45.09
808.82	42.92
808.994	42.62
809.168	41.96
809.342	41.22
809.516	42.14
809.69	42.27
809.864	40.64
810.038	41.23
810.212	40.96
810.385	41.6
810.559	43.37
810.733	43.28
810.907	43.12
811.081	42.13
811.255	43.42
811.428	43.73
811.602	44.7
811.776	46.56
811.95	43.11
812.123	42.42
812.297	40.46
812.471	39.97
812.644	42.26
812.818	46.07
812.992	47.75
813.165	46.92
813.339	42.64
813.512	39.95
813.686	38.47
813.86	42.13
814.033	45.29
814.207	43.55
814.38	41.69
814.554	40.59
814.727	38.08
814.9	39.12
815.074	39.41
815.247	41.62
815.421	45.27
815.594	45.62
815.767	43.67
815.941	43.88
816.114	48.54
816.287	51.26
816.46	52.13
816.634	51.07
816.807	52.42
816.98	51.95
817.153	52.97
817.327	49.36
817.5	48.19
817.673	48.62
817.846	48.96
818.019	47.39
818.192	48.45
818.365	45.97
818.538	48
818.711	46.19
818.884	41.64
819.057	41.5
819.23	43.75
819.403	47.07
819.576	47.75
819.749	46.35
819.922	44.74
820.095	42.26
820.268	43.26
820.441	41.37
820.614	40.2
820.786	44.41
820.959	44.94
821.132	44.85
821.305	43.94
821.477	44.89
821.65	45.43
821.823	46.34
821.996	47.67
822.168	48.85
822.341	48.71
822.514	49.34
822.686	48.44
822.859	48.36
823.031	48.17
823.204	48.14
823.376	47.54
823.549	47.62
823.722	47.16
823.894	47.13
824.067	46.15
824.239	46.42
824.411	46.32
824.584	46.8
824.756	46.75
824.929	47.01
825.101	46.93
825.273	47.2
825.446	46.82
825.618	47.21
825.79	47.03
825.963	47.53
826.135	47.68
826.307	47.64
826.479	47.44
826.652	47.52
826.824	47.21
826.996	47.7
827.168	48.04
827.34	48.94
827.512	49.07
827.684	49.47
827.856	48.97
828.029	49.34
828.201	49.04
828.373	48.62
828.545	48.45
828.717	49.09
828.889	49.53
829.061	49
829.232	47.61
829.404	47.7
829.576	46.93
829.748	48.29
829.92	47.33
830.092	47.18
830.264	48.03
830.436	47.3
830.607	46.93
830.779	45.99
830.951	45.4
831.123	46.59
831.294	46.34
831.466	46.45
831.638	44.66
831.809	44.38
831.981	44.98
832.153	46.64
832.324	47.25
832.496	48.42
832.667	47.73
832.839	49.49
833.011	49.92
833.182	48.98
833.354	48.42
833.525	49.63
833.697	50.83
833.868	48.22
834.039	46.08
834.211	46.23
834.382	44.16
834.554	44.23
834.725	43.56
834.896	42.55
835.068	42.88
835.239	43.09
835.41	42.8
835.581	43.16
835.753	44.17
835.924	44.49
836.095	45.03
836.266	46.86
836.438	47.04
836.609	47.29
836.78	47.69
836.951	48.5
837.122	48.92
837.293	51.22
837.464	50.74
837.635	50.35
837.806	50.92
837.977	50.19
838.148	48.83
838.319	49.91
838.49	48.14
838.661	46.6
838.832	44.67
839.003	43.67
839.174	39.76
839.345	40.44
839.516	44.39
839.687	43.69
839.857	44.57
840.028	45.05
840.199	44.91
840.37	45.96
840.54	49.07
840.711	51.57
840.882	52.21
841.053	52.09
841.223	46.64
841.394	45.06
841.564	43.21
841.735	43.01
841.906	43.51
842.076	42.5
842.247	40.38
842.417	41.55
842.588	42.32
842.758	40.68
842.929	40.48
843.099	43.22
843.27	45.86
843.44	47.43
843.611	48.88
843.781	55.89
843.951	56.3
844.122	62.87
844.292	60.1
844.462	58.13
844.633	63.6
844.803	67.89
844.973	72.91
845.144	68.06
845.314	70.38
845.484	66.47
845.654	54.66
845.824	62.96
845.995	67
846.165	72.07
846.335	78.34
846.505	76.66
846.675	69.05
846.845	57.13
847.015	64.39
847.185	56.81
847.355	56.81
847.525	54.98
847.695	45.43
847.865	39.38
848.035	30.28
848.205	30.55
848.375	26.62
848.545	29.53
848.715	38.58
848.884	38.43
849.054	45.59
849.224	54.43
849.394	59.61
849.564	65.56
849.733	63.64
849.903	70.12
850.073	71.13
850.243	73.63
850.412	70.07
850.582	58.32
850.752	46.64
850.921	40.63
851.091	41.08
851.26	41.19
851.43	21.59
851.599	19.66
851.769	13.28
851.939	22.12
852.108	20.63
852.278	32.79
852.447	42.2
852.616	46.02
852.786	44.43
852.955	39.44
853.125	36.64
853.294	41.99
853.463	44.34
853.633	49.89
853.802	42.51
853.971	46.93
854.141	34.49
854.31	25.82
854.479	30.92
854.648	33.4
854.818	36.73
854.987	44.88
855.156	45.71
855.325	50.57
855.494	51.92
855.663	46.91
855.832	47.41
856.001	55.86
856.171	61.25
856.34	55.75
856.509	58.75
856.678	55.97
856.847	42.35
857.016	54.62
857.185	56.92
857.353	62.67
857.522	60.55
857.691	52.89
857.86	50.8
858.029	57.19
858.198	48.97
858.367	44.58
858.535	33.49
858.704	29.1
858.873	26.1
859.042	12.92
859.21	7.4
859.379	11.25
859.548	9.43
859.717	2.23
859.885	-3.97
860.054	10.9
860.222	9.64
860.391	7.7
860.56	23.78
860.728	28.81
860.897	37.2
861.065	43.85
861.234	41.95
861.402	46.02
861.571	52.43
861.739	49.04
861.908	55.66
862.076	59.17
862.244	57.51
862.413	60.14
862.581	63.62
862.749	62.25
862.918	52.44
863.086	63.44
863.254	59.81
863.423	62.47
863.591	68.26
863.759	72.2
863.927	73.37
864.096	77.79
864.264	59.87
864.432	52.43
864.6	52.56
864.768	65.46
864.936	49.82
865.104	54.49
865.272	47.19
865.44	43.17
865.608	40.04
865.776	42.83
865.944	43.65
866.112	44.63
866.28	41.46
866.448	44.44
866.616	43.86
866.784	46.65
866.952	47.13
867.12	48.15
867.288	44.13
867.455	40.23
867.623	41.96
867.791	45.72
867.959	43.83
868.127	49.1
868.294	46.53
868.462	40.76
868.63	43.39
868.797	42.94
868.965	39.03
869.133	50.45
869.3	48.57
869.468	41.82
869.636	36.88
869.803	42.27
869.971	41.97
870.138	46.69
870.306	53.75
870.473	49.36
870.641	46.42
870.808	50.14
870.975	38.87
871.143	41.96
871.31	41.27
871.478	39.89
871.645	35.8
871.812	32.38
871.98	29.27
872.147	20.09
872.314	23.72
872.482	28.33
872.649	27.04
872.816	26.12
872.983	28.57
873.15	24.79
873.318	32.52
873.485	36.15
873.652	34.19
873.819	30.7
873.986	29.7
874.153	28.57
874.32	21.67
874.487	21.41
874.654	27.66
874.821	25.72
874.988	26.55
875.155	22.92
875.322	19.43
875.489	23.55
875.656	19.07
875.823	22.99
875.99	18.66
876.157	25.59
876.324	27.96
876.49	33.35
876.657	29.93
876.824	49.84
876.991	61.16
877.157	70.63
877.324	68.36
877.491	74.26
877.658	72.9
877.824	69.32
877.991	63.47
878.157	62.87
878.324	53.01
878.491	51.31
878.657	32.46
878.824	28.62
878.99	16.31
879.157	20.48
879.323	22.8
879.49	22.91
879.656	34.33
879.823	34.31
879.989	35.7
880.156	32.48
880.322	44.43
880.488	43.37
880.655	37.6
880.821	46.55
880.987	44.77
881.154	42.43
881.32	44.66
881.486	40.65
881.652	41.57
881.819	39.96
881.985	45.32
882.151	42.65
882.317	47.7
882.483	47.86
882.649	47.75
882.816	46.62
882.982	48.6
883.148	48.28
883.314	47.89
883.48	48.84
883.646	49.51
883.812	48.95
883.978	48.55
884.144	48.09
884.31	48.65
884.476	47.41
884.642	47.75
884.807	45.69
884.973	46.47
885.139	47.36
885.305	47.03
885.471	48.02
885.637	47.46
885.802	47.15
885.968	45.88
886.134	44.18
886.3	45.12
886.465	46.12
886.631	46.22
886.797	44.77
886.962	44.69
887.128	45.49
887.293	42.83
887.459	43.75
887.625	42.95
887.79	42.34
887.956	44.58
888.121	42.95
888.287	42.71
888.452	43.53
888.618	41.08
888.783	38.65
