Data from LC_208__Reflection_2.txt Node
Date: Thu Nov 19 11:59:05 EST 2015
User: robert
Spectrometer: USB4E03001
Autoset integration time: false
Trigger mode: 4
Integration Time (sec): 1.000000E-1
Scans to average: 15
Electric dark correction enabled: true
Nonlinearity correction enabled: false
Boxcar width: 5
Stray light correction enabled: false
XAxis mode: Wavelengths
Stop averaging: false
Number of Pixels in Spectrum: 3648
>>>>>Begin Spectral Data<<<<<
177.566	43.25
177.785	41.66
178.005	32.26
178.225	40.44
178.445	30.84
178.665	48.74
178.885	245.08
179.105	43.96
179.324	66.01
179.544	48.15
179.764	68.67
179.984	86.65
180.204	91.11
180.423	82.12
180.643	101.8
180.863	103.38
181.083	156.23
181.302	1333.77
181.522	-171.19
181.742	2.19
181.961	18.8
182.181	56.64
182.401	62.47
182.621	70.71
182.84	77.91
183.06	72.3
183.279	85.98
183.499	84.91
183.719	88.94
183.938	79.16
184.158	96.37
184.377	155.33
184.597	105.92
184.816	71.35
185.036	47.71
185.256	27.07
185.475	-94.1
185.695	-164.26
185.914	-628.79
186.134	-1067.37
186.353	915.17
186.572	-3002.54
186.792	-302.75
187.011	-600.1
187.231	-147.97
187.45	-406.04
187.67	-406.18
187.889	-74.72
188.108	-3.69
188.328	-8.14
188.547	-35.4
188.766	3.16
188.986	-1474.85
189.205	343.5
189.424	1838.28
189.644	163.07
189.863	137.55
190.082	63.91
190.302	87.82
190.521	153.21
190.74	51.39
190.959	65
191.178	-503.71
191.398	-31.29
191.617	-184.57
191.836	-529.43
192.055	-152.34
192.274	1460.14
192.494	583.67
192.713	361.7
192.932	279.59
193.151	323.29
193.37	545.64
193.589	417.9
193.808	301.67
194.027	180.89
194.246	242.08
194.465	437.34
194.685	5086.96
194.904	779.39
195.123	1729.13
195.342	-65.87
195.561	10.38
195.78	-16.96
195.999	-4.84
196.218	10.25
196.436	19.83
196.655	-22.63
196.874	1.48
197.093	22.83
197.312	-16.58
197.531	6.51
197.75	-44.12
197.969	-52.32
198.188	-126.62
198.407	-94.06
198.625	-93.4
198.844	-168.55
199.063	-92.57
199.282	-1577.55
199.501	-170.89
199.719	-171.43
199.938	-226.06
200.157	-253.67
200.376	1675.84
200.594	731.32
200.813	6684.4
201.032	884.96
201.251	966.85
201.469	229.53
201.688	329.32
201.907	178.04
202.125	98.93
202.344	144.92
202.563	98.58
202.781	260.28
203	273.9
203.218	44.84
203.437	-52.62
203.656	-168.11
203.874	113.7
204.093	352.54
204.311	-711.32
204.53	-156.73
204.748	-22.43
204.967	731.25
205.185	124.91
205.404	73.23
205.622	87.97
205.841	45.32
206.059	129.76
206.278	87.37
206.496	57.46
206.715	16.07
206.933	43.03
207.151	53.35
207.37	43.23
207.588	41.8
207.806	31.05
208.025	-4.67
208.243	-26.46
208.461	-241.93
208.68	-537.68
208.898	-159.1
209.116	-151.27
209.335	4219.16
209.553	584.73
209.771	63700
209.989	383.86
210.208	-2144.1
210.426	-125.53
210.644	-20.33
210.862	-14.08
211.081	-55.98
211.299	-81.83
211.517	-26.86
211.735	2.24
211.953	-3.91
212.171	-20.02
212.39	-34.03
212.608	-73.19
212.826	-94.37
213.044	-87.36
213.262	-32.79
213.48	-7.3
213.698	5.41
213.916	-6.98
214.134	-24.42
214.352	-10.56
214.57	-10.83
214.788	-11.04
215.006	-0.33
215.224	-4.14
215.442	-33.97
215.66	-72.05
215.878	-42.42
216.096	-29.21
216.314	-32.33
216.532	-37.72
216.75	-49.28
216.968	-49.55
217.185	-30.6
217.403	-19.16
217.621	3.3
217.839	3.22
218.057	26.51
218.275	19.12
218.492	11.9
218.71	-9.25
218.928	24.48
219.146	39.08
219.363	40.24
219.581	28.84
219.799	14.97
220.017	-1.66
220.234	-20.82
220.452	-26.49
220.67	-100.7
220.887	-31.7
221.105	-24.85
221.323	-71.36
221.54	-107.16
221.758	-69.1
221.976	-144.81
222.193	-79.24
222.411	-149.7
222.629	-103.13
222.846	-141.38
223.064	-79.4
223.281	-130.06
223.499	-88.23
223.716	-35.16
223.934	-51.13
224.151	-31.62
224.369	-13.3
224.586	-19.85
224.804	-11.27
225.021	4.53
225.239	-8.07
225.456	-7.98
225.674	-13.5
225.891	-20.14
226.108	-21.45
226.326	-16.82
226.543	-17.27
226.76	-13.76
226.978	-14.72
227.195	-9.24
227.413	-10.53
227.63	3.67
227.847	0.38
228.064	3.43
228.282	1.64
228.499	0.93
228.716	5.58
228.934	3.2
229.151	2.95
229.368	0.25
229.585	0.99
229.802	0.39
230.02	-0.38
230.237	2.7
230.454	2.8
230.671	7.39
230.888	7.45
231.105	3.73
231.323	2.53
231.54	4.94
231.757	5.16
231.974	7.74
232.191	6.95
232.408	3.25
232.625	-0.8
232.842	-4.21
233.059	-5.76
233.276	-1.84
233.493	-2.51
233.71	-1.62
233.927	-4.84
234.144	2.25
234.361	1.04
234.578	2.54
234.795	1.94
235.012	2.08
235.229	5.29
235.446	6.42
235.663	6.82
235.879	10.38
236.096	13.27
236.313	15.5
236.53	15.71
236.747	13.58
236.964	14.36
237.181	19.62
237.397	23.9
237.614	23.47
237.831	21.63
238.048	20.97
238.264	16.85
238.481	14.65
238.698	16.9
238.915	16.01
239.131	14.51
239.348	15.3
239.565	12.31
239.781	10.01
239.998	9.36
240.215	11.27
240.431	10.54
240.648	11.95
240.865	12.46
241.081	10.62
241.298	10.02
241.514	11.07
241.731	10.88
241.947	10.14
242.164	9.05
242.38	8.17
242.597	8.82
242.814	8.7
243.03	9.01
243.246	9.37
243.463	9.6
243.679	8.16
243.896	7.53
244.112	6.67
244.329	7.26
244.545	6.89
244.762	6.12
244.978	2.32
245.194	1.5
245.411	-0.08
245.627	-0.54
245.843	1.58
246.06	3.45
246.276	5.19
246.492	5.5
246.709	6.19
246.925	6.58
247.141	7.95
247.357	9.46
247.574	9.67
247.79	10.28
248.006	9.86
248.222	9.33
248.439	10.19
248.655	10.67
248.871	11.04
249.087	10.49
249.303	11.46
249.519	12.68
249.736	12.98
249.952	13.93
250.168	14.16
250.384	16.44
250.6	17.88
250.816	13.79
251.032	11.4
251.248	12.26
251.464	13.78
251.68	13.02
251.896	10.42
252.112	8.26
252.328	7.65
252.544	7.64
252.76	8.08
252.976	7.29
253.192	9.43
253.408	8.15
253.624	8
253.84	6.33
254.056	3.85
254.272	4.05
254.487	6.22
254.703	6.16
254.919	5.36
255.135	3.1
255.351	0.85
255.567	-1.13
255.782	1.14
255.998	-0.94
256.214	1.83
256.43	2.85
256.646	3.26
256.861	2.19
257.077	2.83
257.293	3.6
257.508	4.68
257.724	4.45
257.94	5.6
258.155	5.68
258.371	6.78
258.587	6.76
258.802	7.21
259.018	7.59
259.234	6.62
259.449	6.53
259.665	6.52
259.88	6.09
260.096	6.23
260.312	6.55
260.527	6.84
260.743	6.54
260.958	6.48
261.174	6.09
261.389	5.31
261.605	6.34
261.82	5.72
262.036	5.07
262.251	4.56
262.466	5.19
262.682	3.78
262.897	3.52
263.113	3.14
263.328	1.48
263.543	2.62
263.759	2.19
263.974	1.35
264.189	1.27
264.405	2.86
264.62	3.62
264.835	2.47
265.051	3.13
265.266	1.83
265.481	0.52
265.696	2.03
265.912	1.42
266.127	1.15
266.342	1.84
266.557	1.86
266.773	1.11
266.988	1.17
267.203	2.71
267.418	3.65
267.633	4.32
267.848	5.81
268.064	5.77
268.279	6.87
268.494	6.86
268.709	6.12
268.924	6.21
269.139	6.17
269.354	6.88
269.569	5.07
269.784	4.9
269.999	5
270.214	4.1
270.429	3.05
270.644	1.52
270.859	2.41
271.074	2.65
271.289	4.63
271.504	5.91
271.719	5.44
271.934	5.56
272.149	5.41
272.363	6.21
272.578	6.16
272.793	6.07
273.008	6.67
273.223	6.74
273.438	7.43
273.653	6.55
273.867	5.37
274.082	5.6
274.297	5.72
274.512	5.94
274.726	4.16
274.941	4.07
275.156	4.36
275.371	5.38
275.585	5.43
275.8	4.43
276.015	4.05
276.229	4.07
276.444	3.66
276.659	5.49
276.873	4.99
277.088	6.47
277.302	6.49
277.517	7.25
277.732	6.08
277.946	6.89
278.161	7.61
278.375	6.26
278.59	6.08
278.804	6.89
279.019	5.38
279.233	4.77
279.448	3.99
279.662	3.73
279.877	3.74
280.091	4.72
280.306	4.39
280.52	2.22
280.735	3.18
280.949	3.74
281.163	1.88
281.378	1.69
281.592	2.31
281.806	3.5
282.021	4.66
282.235	4.7
282.449	3.64
282.664	3.65
282.878	4.76
283.092	5.46
283.307	6.32
283.521	7.7
283.735	7.89
283.949	8.17
284.164	7.59
284.378	7.19
284.592	6.85
284.806	7.73
285.02	7.35
285.234	7.93
285.449	8.32
285.663	7.5
285.877	7.3
286.091	6.92
286.305	6.75
286.519	6.57
286.733	6.78
286.947	6.87
287.161	5.47
287.375	5.05
287.589	4.66
287.803	3.79
288.017	3.4
288.231	3.91
288.445	4.41
288.659	4.11
288.873	4.77
289.087	5.35
289.301	5.56
289.515	7.06
289.729	8.08
289.943	8.06
290.157	7.63
290.371	7.33
290.584	6.64
290.798	7.55
291.012	8.13
291.226	6.71
291.44	6.23
291.654	6.64
291.867	6.25
292.081	4.5
292.295	4.39
292.509	5.75
292.722	6.07
292.936	5.96
293.15	4.93
293.364	3.56
293.577	5.32
293.791	4.85
294.005	3.74
294.218	4.03
294.432	4.83
294.645	3.7
294.859	4.22
295.073	5.12
295.286	5.65
295.5	4.98
295.713	6.32
295.927	5.91
296.14	6.15
296.354	6.35
296.568	5.77
296.781	6.57
296.994	7.69
297.208	7.38
297.421	6.69
297.635	6.45
297.848	7.84
298.062	7.42
298.275	7.35
298.489	7.49
298.702	7.99
298.915	8.36
299.129	8.12
299.342	8.81
299.555	8.25
299.769	8.12
299.982	7.79
300.195	6.78
300.409	7.04
300.622	7.2
300.835	6.44
301.048	6.06
301.262	5.83
301.475	6.5
301.688	6.02
301.901	5.34
302.115	6.17
302.328	6.58
302.541	6.2
302.754	6.62
302.967	6.53
303.18	7.74
303.393	8.11
303.607	8.27
303.82	7.36
304.033	6.75
304.246	8.54
304.459	8.07
304.672	8.19
304.885	9.12
305.098	8.18
305.311	9.14
305.524	8.88
305.737	7.93
305.95	8.09
306.163	8.87
306.376	9.95
306.589	8.62
306.802	9.58
307.015	9.07
307.228	8.14
307.44	8.73
307.653	8.04
307.866	7.86
308.079	8.55
308.292	8.49
308.505	8.01
308.718	7.13
308.93	6.65
309.143	5.74
309.356	6.15
309.569	7.12
309.781	6.43
309.994	6.68
310.207	6.53
310.42	6.53
310.632	5.94
310.845	6.3
311.058	7.21
311.27	8.42
311.483	9.21
311.696	9.01
311.908	8.68
312.121	9.73
312.333	9.8
312.546	10.21
312.759	9.65
312.971	10.89
313.184	10.61
313.396	9.91
313.609	8.82
313.821	8.31
314.034	8.58
314.246	8.68
314.459	9.24
314.671	8.75
314.884	7.56
315.096	8.03
315.309	7.78
315.521	7.49
315.733	7.39
315.946	8.13
316.158	8.57
316.371	8.69
316.583	8.71
316.795	7.58
317.008	6.56
317.22	7.46
317.432	7.66
317.644	8.65
317.857	9.04
318.069	8.61
318.281	6.77
318.494	6.6
318.706	6.79
318.918	6.14
319.13	6.15
319.342	7.12
319.555	7.49
319.767	7.1
319.979	6.96
320.191	7.34
320.403	8.83
320.615	9.93
320.827	9.33
321.039	10.66
321.252	11.86
321.464	11.64
321.676	12.02
321.888	12.76
322.1	13.49
322.312	12.12
322.524	11.64
322.736	10.1
322.948	11.52
323.16	12.55
323.372	10.94
323.584	9.9
323.796	9.51
324.007	9.21
324.219	8.81
324.431	8.58
324.643	8.29
324.855	8.13
325.067	9.09
325.279	8.81
325.491	7.98
325.702	8.38
325.914	8.2
326.126	8.54
326.338	8.64
326.55	8.76
326.761	9.25
326.973	10.1
327.185	8.95
327.396	8.87
327.608	8.06
327.82	8.33
328.032	8.29
328.243	8.61
328.455	9.45
328.666	9.7
328.878	9.12
329.09	9.45
329.301	9.39
329.513	11.23
329.725	11.74
329.936	13.05
330.148	13.63
330.359	14.32
330.571	15.53
330.782	14.97
330.994	15.58
331.205	15.16
331.417	13.92
331.628	14.75
331.84	14.7
332.051	13.93
332.262	13.27
332.474	13.06
332.685	12.25
332.897	12.12
333.108	13
333.319	11.79
333.531	12.12
333.742	13.29
333.953	11.71
334.165	11.3
334.376	12.47
334.587	13.51
334.799	13.45
335.01	13.55
335.221	12.95
335.432	13.29
335.644	14.13
335.855	13.83
336.066	14.28
336.277	15.16
336.488	15.28
336.7	14.61
336.911	13.92
337.122	13.86
337.333	13.69
337.544	13.68
337.755	12.85
337.966	12.56
338.177	12.93
338.388	12.4
338.599	12.64
338.811	13.27
339.022	13.16
339.233	12.87
339.444	12.4
339.655	12.47
339.866	13.15
340.076	13.52
340.287	13.29
340.498	13.82
340.709	13.17
340.92	13.32
341.131	13.22
341.342	13.46
341.553	13.3
341.764	13.23
341.975	13.48
342.185	13.68
342.396	13.44
342.607	13.69
342.818	14.26
343.029	14.38
343.239	14.11
343.45	13.7
343.661	13.41
343.872	13.48
344.082	13.92
344.293	13.92
344.504	13.42
344.714	13.88
344.925	13.42
345.136	12.28
345.346	12.96
345.557	11.83
345.768	11.44
345.978	11.54
346.189	11.67
346.399	11.78
346.61	11.77
346.821	11.99
347.031	11.15
347.242	11.81
347.452	12.04
347.663	11.07
347.873	11.41
348.084	11.64
348.294	11.83
348.504	11.7
348.715	11.79
348.925	11.43
349.136	11.02
349.346	11.7
349.557	11.3
349.767	11.4
349.977	11.65
350.188	12.49
350.398	12.75
350.608	11.78
350.819	11.48
351.029	10.99
351.239	11.49
351.449	11.31
351.66	10.92
351.87	10.77
352.08	10.57
352.29	11.22
352.501	11.43
352.711	11.69
352.921	12.4
353.131	12.28
353.341	12.1
353.552	12.76
353.762	12.78
353.972	13.28
354.182	14.92
354.392	15.45
354.602	15.28
354.812	14.98
355.022	14.58
355.232	15.07
355.442	15.58
355.652	15.66
355.862	15.14
356.072	14.99
356.282	14.49
356.492	13.08
356.702	12.56
356.912	12.56
357.122	12.55
357.332	12.7
357.542	12.54
357.752	12.4
357.962	13.02
358.171	12.72
358.381	13.01
358.591	12.85
358.801	12.56
359.011	12.54
359.221	12.38
359.43	12.57
359.64	12.2
359.85	11.42
360.06	11.62
360.269	11.42
360.479	11.7
360.689	11.52
360.899	12.02
361.108	12.17
361.318	12.48
361.528	12.14
361.737	11.75
361.947	11.88
362.156	12.1
362.366	11.9
362.576	11.36
362.785	11.03
362.995	11.33
363.204	11.09
363.414	10.95
363.623	10.77
363.833	11
364.042	10.99
364.252	10.47
364.461	10.65
364.671	10.63
364.88	10.68
365.09	11.23
365.299	11.2
365.509	11.39
365.718	11.68
365.927	11.54
366.137	11.54
366.346	12.11
366.555	12.42
366.765	12.26
366.974	12.03
367.183	12.35
367.393	11.83
367.602	11.38
367.811	10.8
368.021	10.25
368.23	10.03
368.439	9.92
368.648	9.36
368.857	9.8
369.067	9.94
369.276	9.79
369.485	10.07
369.694	9.99
369.903	10.37
370.112	10.54
370.321	10.64
370.531	10.73
370.74	10.77
370.949	10.67
371.158	10.75
371.367	10.68
371.576	11.01
371.785	10.75
371.994	11.35
372.203	11.03
372.412	10.7
372.621	11.01
372.83	10.57
373.039	10.8
373.248	11.34
373.457	11.34
373.666	11.18
373.874	11.49
374.083	11.57
374.292	11.26
374.501	11.5
374.71	11.64
374.919	11.71
375.128	12.33
375.336	12.23
375.545	11.84
375.754	11.33
375.963	11.4
376.171	11.4
376.38	11.48
376.589	11.29
376.798	11.11
377.006	11.29
377.215	10.79
377.424	10.53
377.632	10.49
377.841	10.36
378.05	10.61
378.258	10.57
378.467	10.55
378.675	10.19
378.884	9.96
379.093	9.8
379.301	10.11
379.51	10.87
379.718	10.87
379.927	10.75
380.135	11.14
380.344	11.42
380.552	10.95
380.761	10.67
380.969	10.81
381.177	11.17
381.386	11.33
381.594	11.16
381.803	10.85
382.011	10.98
382.219	11.23
382.428	10.54
382.636	10.04
382.845	10.78
383.053	10.95
383.261	10.82
383.469	10.81
383.678	10.52
383.886	10.33
384.094	10.36
384.302	10.64
384.511	10.56
384.719	10.9
384.927	11.13
385.135	10.8
385.343	10.51
385.552	10.08
385.76	9.86
385.968	10
386.176	9.86
386.384	9.67
386.592	9.24
386.8	9.36
387.008	9.53
387.216	9.51
387.424	9.49
387.633	9.48
387.841	10.08
388.049	10.14
388.257	10.23
388.465	10.25
388.672	10.05
388.88	10.22
389.088	10.18
389.296	9.92
389.504	9.71
389.712	9.82
389.92	9.8
390.128	9.7
390.336	9.63
390.544	9.66
390.751	9.75
390.959	10.29
391.167	10.07
391.375	9.78
391.583	10.12
391.79	10.01
391.998	9.98
392.206	10.35
392.414	10.17
392.621	10.04
392.829	9.92
393.037	10.23
393.244	9.81
393.452	10.1
393.66	10.18
393.867	9.73
394.075	10.06
394.283	9.78
394.49	9.4
394.698	9.52
394.905	9.81
395.113	9.93
395.32	9.39
395.528	9.44
395.735	9.14
395.943	9.2
396.15	9.29
396.358	8.9
396.565	9.44
396.773	9.68
396.98	9.83
397.188	9.71
397.395	9.64
397.602	9.87
397.81	10.12
398.017	10.18
398.225	9.86
398.432	9.74
398.639	9.82
398.847	9.39
399.054	9.32
399.261	9
399.468	9.14
399.676	8.96
399.883	8.63
400.09	8.2
400.297	7.94
400.505	8.25
400.712	8.46
400.919	8.96
401.126	9.1
401.333	9.17
401.54	9.44
401.748	9.2
401.955	9.5
402.162	9.33
402.369	9.52
402.576	9.98
402.783	9.93
402.99	9.78
403.197	9.57
403.404	9.42
403.611	9.05
403.818	9.08
404.025	9.15
404.232	9.13
404.439	9.61
404.646	9.61
404.853	9.45
405.06	9.53
405.267	9.67
405.474	9.48
405.681	9.7
405.887	9.78
406.094	9.61
406.301	9.61
406.508	9.54
406.715	9.44
406.922	9.3
407.128	9.11
407.335	8.98
407.542	8.79
407.749	8.8
407.955	8.36
408.162	8.3
408.369	8.42
408.575	8.39
408.782	8.23
408.989	8.24
409.195	8.4
409.402	8.49
409.609	8.5
409.815	8.79
410.022	9.03
410.228	9.31
410.435	9.47
410.642	9.36
410.848	9.4
411.055	9.77
411.261	9.81
411.468	9.7
411.674	9.91
411.881	9.92
412.087	9.77
412.294	9.32
412.5	9.21
412.706	9.31
412.913	9.43
413.119	9.41
413.326	9.15
413.532	9.08
413.738	9.08
413.945	8.91
414.151	8.94
414.357	8.89
414.564	9.14
414.77	9.12
414.976	8.83
415.182	8.89
415.389	8.86
415.595	8.73
415.801	8.9
416.007	8.99
416.214	9
416.42	9.21
416.626	9.28
416.832	9.47
417.038	9.57
417.244	9.6
417.45	9.31
417.657	9.29
417.863	9.32
418.069	9.19
418.275	9.21
418.481	9.27
418.687	9.14
418.893	9.11
419.099	8.93
419.305	8.92
419.511	8.91
419.717	9.08
419.923	9.17
420.129	9.28
420.335	9.3
420.541	9.21
420.746	9.17
420.952	9.07
421.158	9.06
421.364	9.04
421.57	9.02
421.776	8.95
421.982	8.96
422.187	8.97
422.393	8.88
422.599	8.78
422.805	8.78
423.01	8.76
423.216	8.75
423.422	8.82
423.628	8.91
423.833	8.95
424.039	8.97
424.245	8.97
424.45	8.82
424.656	8.86
424.862	8.93
425.067	8.91
425.273	8.94
425.478	9
425.684	8.87
425.889	8.82
426.095	8.74
426.301	8.82
426.506	8.75
426.712	8.72
426.917	8.7
427.123	8.7
427.328	8.72
427.533	8.78
427.739	8.69
427.944	8.88
428.15	8.81
428.355	8.83
428.561	8.85
428.766	8.88
428.971	8.9
429.177	8.92
429.382	8.78
429.587	8.84
429.793	8.74
429.998	8.93
430.203	8.81
430.408	8.86
430.614	8.9
430.819	8.82
431.024	8.77
431.229	8.81
431.434	8.95
431.64	9.03
431.845	8.96
432.05	9.09
432.255	9.15
432.46	9.05
432.665	9.26
432.87	9.26
433.076	9.39
433.281	9.52
433.486	9.47
433.691	9.22
433.896	9.22
434.101	9.15
434.306	9.18
434.511	9.14
434.716	9.18
434.921	8.9
435.126	8.93
435.331	8.83
435.535	8.93
435.74	8.87
435.945	9.09
436.15	9.21
436.355	9.33
436.56	9.23
436.765	9.18
436.97	9.17
437.174	9.47
437.379	9.38
437.584	9.53
437.789	9.41
437.993	9.65
438.198	9.66
438.403	9.54
438.608	9.76
438.812	9.66
439.017	9.64
439.222	9.73
439.426	9.51
439.631	9.59
439.836	9.58
440.04	9.52
440.245	9.5
440.45	9.41
440.654	9.43
440.859	9.26
441.063	9.23
441.268	9.12
441.472	8.91
441.677	9.08
441.881	8.96
442.086	8.77
442.29	8.73
442.495	8.68
442.699	8.69
442.904	8.57
443.108	8.64
443.312	8.69
443.517	8.7
443.721	8.89
443.925	8.78
444.13	8.82
444.334	9.08
444.538	9.29
444.743	9.37
444.947	9.28
445.151	9.38
445.356	9.36
445.56	9.47
445.764	9.52
445.968	9.41
446.173	9.44
446.377	9.44
446.581	9.31
446.785	9.17
446.989	8.99
447.193	9.03
447.398	9.05
447.602	8.92
447.806	8.76
448.01	8.74
448.214	8.77
448.418	8.62
448.622	8.72
448.826	8.88
449.03	8.88
449.234	8.97
449.438	8.94
449.642	8.92
449.846	9.07
450.05	9.25
450.254	9.2
450.458	9.32
450.662	9.35
450.866	9.24
451.069	8.91
451.273	8.83
451.477	8.8
451.681	8.79
451.885	8.83
452.089	8.71
452.292	8.66
452.496	8.78
452.7	8.63
452.904	8.5
453.107	8.45
453.311	8.51
453.515	8.37
453.719	8.35
453.922	8.32
454.126	8.27
454.33	8.18
454.533	8.2
454.737	7.97
454.94	8.05
455.144	8.18
455.348	8.36
455.551	8.41
455.755	8.47
455.958	8.54
456.162	8.4
456.365	8.37
456.569	8.36
456.772	8.24
456.976	8.29
457.179	8.11
457.383	8.18
457.586	8.01
457.79	8.08
457.993	8.06
458.196	7.89
458.4	8.08
458.603	8.04
458.807	8.11
459.01	8.17
459.213	8.23
459.417	8.21
459.62	8.17
459.823	8.16
460.026	8.14
460.23	8.19
460.433	8.39
460.636	8.26
460.839	8.11
461.042	8.11
461.246	8.09
461.449	8.11
461.652	8.13
461.855	8.15
462.058	8.24
462.261	8.26
462.464	8.29
462.668	8.09
462.871	8.33
463.074	8.52
463.277	8.61
463.48	8.51
463.683	8.27
463.886	8.28
464.089	8.16
464.292	8
464.495	7.87
464.698	7.89
464.901	8.06
465.104	7.85
465.306	7.81
465.509	7.73
465.712	7.77
465.915	8.02
466.118	8.13
466.321	8.38
466.524	8.64
466.726	8.55
466.929	8.53
467.132	8.4
467.335	8.58
467.538	8.65
467.74	8.79
467.943	8.74
468.146	8.7
468.348	8.82
468.551	8.7
468.754	8.62
468.956	8.58
469.159	8.45
469.362	8.46
469.564	8.44
469.767	8.41
469.969	8.36
470.172	8.51
470.375	8.52
470.577	8.32
470.78	8.21
470.982	8.09
471.185	8.31
471.387	8.43
471.59	8.48
471.792	8.4
471.995	8.53
472.197	8.56
472.399	8.55
472.602	8.44
472.804	8.61
473.007	8.54
473.209	8.55
473.411	8.55
473.614	8.64
473.816	8.51
474.018	8.61
474.22	8.34
474.423	8.45
474.625	8.37
474.827	8.55
475.03	8.51
475.232	8.62
475.434	8.62
475.636	8.51
475.838	8.36
476.04	8.29
476.243	8.41
476.445	8.58
476.647	8.48
476.849	8.57
477.051	8.54
477.253	8.41
477.455	8.58
477.657	8.67
477.859	8.8
478.061	8.98
478.263	9.12
478.465	9
478.667	8.9
478.869	8.79
479.071	8.79
479.273	8.58
479.475	8.57
479.677	8.4
479.879	8.37
480.081	8.28
480.283	8.17
480.485	8.11
480.686	8.18
480.888	8.22
481.09	8.23
481.292	8.18
481.494	8.28
481.695	8.38
481.897	8.47
482.099	8.47
482.301	8.54
482.502	8.58
482.704	8.62
482.906	8.58
483.107	8.66
483.309	8.71
483.511	8.74
483.712	8.76
483.914	8.79
484.115	8.68
484.317	8.66
484.519	8.6
484.72	8.57
484.922	8.54
485.123	8.53
485.325	8.52
485.526	8.49
485.728	8.46
485.929	8.42
486.131	8.37
486.332	8.5
486.534	8.52
486.735	8.58
486.936	8.65
487.138	8.74
487.339	8.77
487.541	8.73
487.742	8.71
487.943	8.75
488.144	8.72
488.346	8.68
488.547	8.64
488.748	8.64
488.95	8.57
489.151	8.52
489.352	8.45
489.553	8.46
489.755	8.44
489.956	8.42
490.157	8.28
490.358	8.42
490.559	8.49
490.76	8.53
490.961	8.47
491.163	8.51
491.364	8.48
491.565	8.44
491.766	8.34
491.967	8.34
492.168	8.35
492.369	8.48
492.57	8.36
492.771	8.29
492.972	8.28
493.173	8.31
493.374	8.28
493.575	8.35
493.776	8.41
493.976	8.46
494.177	8.46
494.378	8.51
494.579	8.4
494.78	8.51
494.981	8.6
495.182	8.57
495.382	8.7
495.583	8.67
495.784	8.65
495.985	8.71
496.185	8.95
496.386	9.06
496.587	8.98
496.788	9.02
496.988	9.03
497.189	8.97
497.39	9.03
497.59	8.98
497.791	8.99
497.992	9.08
498.192	8.87
498.393	8.69
498.593	8.63
498.794	8.59
498.994	8.55
499.195	8.54
499.395	8.65
499.596	8.51
499.796	8.46
499.997	8.58
500.197	8.49
500.398	8.58
500.598	8.61
500.799	8.75
500.999	8.87
501.199	8.86
501.4	8.96
501.6	8.91
501.801	9
502.001	9.19
502.201	9.21
502.402	9.26
502.602	9.51
502.802	9.65
503.002	9.48
503.203	9.57
503.403	9.61
503.603	9.55
503.803	9.42
504.003	9.58
504.204	9.67
504.404	9.82
504.604	9.83
504.804	9.82
505.004	9.72
505.204	9.75
505.404	9.69
505.604	9.86
505.804	9.8
506.005	10
506.205	10
506.405	9.88
506.605	9.61
506.805	9.56
507.005	9.51
507.204	9.6
507.404	9.68
507.604	9.71
507.804	9.61
508.004	9.79
508.204	9.89
508.404	9.83
508.604	9.82
508.804	10.07
509.003	10.08
509.203	10.1
509.403	10.07
509.603	10.03
509.803	10.1
510.002	10.18
510.202	10.03
510.402	9.95
510.602	10.02
510.801	10
511.001	10.01
511.201	10.14
511.4	10.16
511.6	10.17
511.8	10.27
511.999	10.16
512.199	10.25
512.398	10.4
512.598	10.43
512.797	10.37
512.997	10.5
513.197	10.46
513.396	10.3
513.596	10.29
513.795	10.32
513.994	10.3
514.194	10.48
514.393	10.32
514.593	10.39
514.792	10.42
514.992	10.48
515.191	10.47
515.39	10.35
515.59	10.49
515.789	10.54
515.988	10.54
516.188	10.52
516.387	10.57
516.586	10.69
516.786	10.64
516.985	10.63
517.184	10.67
517.383	10.75
517.582	10.92
517.782	10.9
517.981	11.11
518.18	11.21
518.379	11.37
518.578	11.37
518.777	11.33
518.976	11.42
519.176	11.41
519.375	11.45
519.574	11.36
519.773	11.24
519.972	11.28
520.171	11.22
520.37	11.19
520.569	11.1
520.768	11.11
520.967	11.13
521.166	11.13
521.365	11.33
521.564	11.29
521.762	11.36
521.961	11.45
522.16	11.42
522.359	11.53
522.558	11.45
522.757	11.53
522.956	11.54
523.154	11.63
523.353	11.55
523.552	11.35
523.751	11.37
523.949	11.49
524.148	11.6
524.347	11.68
524.546	11.67
524.744	11.78
524.943	11.78
525.142	11.89
525.34	11.94
525.539	12
525.737	12.16
525.936	12.21
526.135	12.09
526.333	12.11
526.532	12.14
526.73	12.24
526.929	12.26
527.127	12.38
527.326	12.36
527.524	12.39
527.723	12.49
527.921	12.5
528.12	12.54
528.318	12.61
528.516	12.63
528.715	12.68
528.913	12.63
529.112	12.67
529.31	12.61
529.508	12.58
529.707	12.54
529.905	12.52
530.103	12.51
530.301	12.5
530.5	12.52
530.698	12.56
530.896	12.58
531.094	12.69
531.293	12.68
531.491	12.67
531.689	12.83
531.887	12.98
532.085	13.03
532.283	13.13
532.481	13.18
532.68	13.23
532.878	13.22
533.076	13.26
533.274	13.18
533.472	13.25
533.67	13.35
533.868	13.34
534.066	13.33
534.264	13.29
534.462	13.24
534.66	13.35
534.858	13.31
535.056	13.34
535.253	13.31
535.451	13.32
535.649	13.3
535.847	13.4
536.045	13.39
536.243	13.44
536.441	13.59
536.638	13.74
536.836	13.74
537.034	13.83
537.232	13.94
537.43	13.99
537.627	14.08
537.825	14.21
538.023	14.21
538.22	14.22
538.418	14.21
538.616	14.25
538.813	14.21
539.011	14.17
539.209	14.27
539.406	14.38
539.604	14.44
539.801	14.56
539.999	14.67
540.196	14.77
540.394	14.95
540.591	15.08
540.789	15.08
540.986	15.16
541.184	15.25
541.381	15.28
541.579	15.29
541.776	15.37
541.974	15.33
542.171	15.35
542.368	15.32
542.566	15.37
542.763	15.34
542.96	15.41
543.158	15.44
543.355	15.48
543.552	15.55
543.75	15.63
543.947	15.63
544.144	15.73
544.341	15.72
544.539	15.78
544.736	15.81
544.933	15.93
545.13	16.03
545.327	16.02
545.524	15.93
545.722	15.97
545.919	15.94
546.116	16.02
546.313	16.08
546.51	16.11
546.707	16.29
546.904	16.38
547.101	16.4
547.298	16.5
547.495	16.62
547.692	16.8
547.889	16.84
548.086	16.99
548.283	17.07
548.48	17.11
548.677	17.17
548.874	17.11
549.07	17.07
549.267	17.08
549.464	16.97
549.661	17.07
549.858	17.14
550.055	17.16
550.251	17.27
550.448	17.25
550.645	17.34
550.842	17.49
551.038	17.58
551.235	17.56
551.432	17.71
551.628	17.85
551.825	17.99
552.022	17.95
552.218	18.24
552.415	18.3
552.612	18.55
552.808	18.76
553.005	18.79
553.201	18.88
553.398	19.18
553.594	19.18
553.791	19.31
553.987	19.22
554.184	19.32
554.38	19.24
554.577	19.3
554.773	19.21
554.97	19.21
555.166	19.3
555.362	19.31
555.559	19.31
555.755	19.6
555.952	19.68
556.148	19.82
556.344	19.95
556.541	20.14
556.737	20.14
556.933	20.33
557.129	20.35
557.326	20.59
557.522	20.69
557.718	20.69
557.914	20.68
558.11	20.68
558.307	20.97
558.503	21.08
558.699	21
558.895	21.05
559.091	21.21
559.287	21.45
559.483	21.5
559.679	21.56
559.876	21.71
560.072	21.87
560.268	22.16
560.464	22.14
560.66	22.14
560.856	22.4
561.052	22.47
561.247	22.4
561.443	22.37
561.639	22.31
561.835	22.54
562.031	22.65
562.227	22.46
562.423	22.37
562.619	22.38
562.815	22.72
563.01	22.73
563.206	23.09
563.402	23.12
563.598	23.22
563.793	23.24
563.989	23.36
564.185	23.33
564.381	23.64
564.576	23.85
564.772	23.98
564.968	24.03
565.163	24.05
565.359	23.93
565.555	23.98
565.75	24.06
565.946	24.13
566.141	24.14
566.337	24.22
566.532	24.22
566.728	24.25
566.923	24.24
567.119	24.07
567.314	24.14
567.51	24.2
567.705	24.44
567.901	24.5
568.096	24.7
568.292	24.71
568.487	24.85
568.682	25.04
568.878	25.13
569.073	25.21
569.268	25.51
569.464	25.7
569.659	25.76
569.854	25.72
570.05	25.73
570.245	25.94
570.44	26.06
570.635	26.07
570.831	26.12
571.026	26.35
571.221	26.36
571.416	26.41
571.611	26.34
571.806	26.37
572.002	26.45
572.197	26.41
572.392	26.42
572.587	26.37
572.782	26.39
572.977	26.4
573.172	26.26
573.367	26.42
573.562	26.47
573.757	26.66
573.952	26.89
574.147	27.1
574.342	27.45
574.537	27.48
574.732	27.74
574.927	27.93
575.121	28.05
575.316	28.18
575.511	28.16
575.706	28.24
575.901	28.2
576.096	28.16
576.29	28.18
576.485	28.19
576.68	28.3
576.875	28.27
577.069	28.38
577.264	28.37
577.459	28.44
577.654	28.63
577.848	28.59
578.043	28.57
578.238	28.43
578.432	28.28
578.627	28.29
578.821	28.28
579.016	28.27
579.21	28.26
579.405	28.38
579.6	28.35
579.794	28.36
579.989	28.58
580.183	28.82
580.378	29.03
580.572	29.33
580.766	29.35
580.961	29.51
581.155	29.51
581.35	29.6
581.544	29.76
581.738	29.82
581.933	29.98
582.127	29.85
582.321	29.95
582.516	30.26
582.71	30.11
582.904	30.14
583.099	30.14
583.293	30.62
583.487	30.64
583.681	30.71
583.875	30.69
584.07	30.74
584.264	30.86
584.458	30.59
584.652	30.26
584.846	30.33
585.04	30.63
585.234	30.74
585.428	30.54
585.623	30.53
585.817	30.6
586.011	30.75
586.205	30.67
586.399	30.6
586.593	30.87
586.787	31.28
586.981	31.38
587.174	31.32
587.368	31.1
587.562	31.3
587.756	31.53
587.95	31.48
588.144	31.53
588.338	31.73
588.532	31.89
588.725	32.1
588.919	32.09
589.113	32.35
589.307	32.47
589.501	32.53
589.694	32.81
589.888	32.57
590.082	32.58
590.275	32.39
590.469	32.36
590.663	32.36
590.856	32.21
591.05	32.22
591.244	32.09
591.437	32
591.631	31.94
591.824	31.77
592.018	32.07
592.212	32.33
592.405	32.65
592.599	32.72
592.792	32.66
592.986	32.76
593.179	32.61
593.372	32.74
593.566	32.69
593.759	32.87
593.953	32.91
594.146	32.85
594.339	32.63
594.533	32.79
594.726	32.68
594.92	33.05
595.113	33.14
595.306	33.26
595.499	33.13
595.693	33.27
595.886	33.11
596.079	32.89
596.272	32.97
596.466	33.07
596.659	32.85
596.852	32.92
597.045	32.72
597.238	32.67
597.431	32.74
597.624	32.75
597.818	32.6
598.011	33.08
598.204	33.34
598.397	33.26
598.59	33.4
598.783	33.62
598.976	33.7
599.169	33.82
599.362	33.9
599.555	34.02
599.748	34.22
599.941	34.43
600.134	34.4
600.326	34.34
600.519	34.56
600.712	34.46
600.905	34.29
601.098	34.35
601.291	34.39
601.483	34.49
601.676	34.49
601.869	34.42
602.062	34.64
602.255	34.46
602.447	34.54
602.64	34.3
602.833	34.33
603.025	34.47
603.218	34.69
603.411	34.84
603.603	34.94
603.796	34.94
603.989	35.01
604.181	35.02
604.374	35.25
604.566	35.2
604.759	35.4
604.951	35.5
605.144	35.48
605.336	35.48
605.529	35.54
605.721	35.54
605.914	35.74
606.106	35.79
606.299	35.58
606.491	35.3
606.683	35.44
606.876	35.49
607.068	35.61
607.26	35.92
607.453	35.73
607.645	35.62
607.837	35.67
608.03	35.52
608.222	35.54
608.414	35.73
608.606	35.96
608.799	35.79
608.991	35.79
609.183	35.75
609.375	35.65
609.567	35.7
609.759	35.77
609.952	35.77
610.144	35.78
610.336	35.82
610.528	35.93
610.72	36.18
610.912	36.35
611.104	36.57
611.296	36.67
611.488	36.65
611.68	36.62
611.872	36.58
612.064	36.72
612.256	36.63
612.448	36.54
612.64	36.52
612.832	36
613.023	36.02
613.215	35.86
613.407	35.57
613.599	35.76
613.791	36.22
613.983	36.21
614.174	36.28
614.366	36.35
614.558	36.42
614.75	36.33
614.941	36.71
615.133	36.6
615.325	36.48
615.516	36.59
615.708	36.41
615.9	36.32
616.091	36.5
616.283	36.38
616.475	36.66
616.666	36.6
616.858	37.01
617.049	36.71
617.241	36.91
617.432	36.91
617.624	36.88
617.815	36.9
618.007	36.73
618.198	36.62
618.39	36.86
618.581	36.99
618.773	36.98
618.964	36.67
619.155	36.81
619.347	36.61
619.538	36.83
619.729	36.85
619.921	37.01
620.112	37.21
620.303	37.31
620.494	37.13
620.686	36.84
620.877	37.19
621.068	37.23
621.259	37.64
621.451	37.74
621.642	37.61
621.833	37.86
622.024	38.09
622.215	38.06
622.406	38.08
622.597	38.21
622.788	37.98
622.98	37.97
623.171	37.87
623.362	37.75
623.553	37.77
623.744	37.81
623.935	37.8
624.126	38
624.317	37.85
624.508	38
624.698	38.03
624.889	38.29
625.08	38.34
625.271	38.36
625.462	38.02
625.653	38.17
625.844	38.18
626.034	38.09
626.225	37.91
626.416	37.93
626.607	37.94
626.798	37.82
626.988	37.76
627.179	37.71
627.37	38.02
627.56	38.06
627.751	37.94
627.942	37.89
628.132	38.01
628.323	37.89
628.514	38.05
628.704	37.9
628.895	37.83
629.085	38.07
629.276	38.37
629.466	38.23
629.657	38.59
629.847	38.97
630.038	39.33
630.228	39.3
630.419	39.19
630.609	39.05
630.8	39.2
630.99	39.13
631.181	39.12
631.371	38.85
631.561	38.68
631.752	38.73
631.942	38.38
632.132	38.06
632.323	37.91
632.513	37.88
632.703	38.12
632.893	38.34
633.084	38.66
633.274	38.71
633.464	38.95
633.654	39.27
633.844	39.38
634.034	39.29
634.225	39.33
634.415	39.5
634.605	39.71
634.795	39.64
634.985	39.63
635.175	39.78
635.365	40.03
635.555	39.76
635.745	39.75
635.935	39.57
636.125	39.59
636.315	39.8
636.505	39.89
636.695	39.93
636.885	39.97
637.075	39.69
637.265	39.29
637.455	38.82
637.644	39.13
637.834	39.04
638.024	38.86
638.214	39.08
638.404	39.03
638.593	39.42
638.783	39.53
638.973	39.71
639.163	39.89
639.352	40
639.542	40.16
639.732	39.96
639.921	39.84
640.111	39.87
640.301	39.8
640.49	40.01
640.68	39.63
640.87	39.54
641.059	39.51
641.249	39.77
641.438	39.71
641.628	39.76
641.817	39.86
642.007	39.85
642.196	40.39
642.386	40.1
642.575	40.04
642.764	39.83
642.954	39.88
643.143	40.05
643.333	39.55
643.522	39.58
643.711	39.68
643.901	39.48
644.09	39.94
644.279	39.75
644.469	40.23
644.658	40.11
644.847	40.52
645.036	40.33
645.226	40.46
645.415	41.03
645.604	41.08
645.793	41.09
645.982	41.16
646.171	41.17
646.361	40.99
646.55	40.99
646.739	41.03
646.928	40.73
647.117	40.93
647.306	40.79
647.495	40.5
647.684	40.85
647.873	41.02
648.062	41.1
648.251	40.6
648.44	40.48
648.629	40.84
648.818	40.98
649.007	41.17
649.196	41.17
649.384	40.89
649.573	40.72
649.762	40.78
649.951	40.68
650.14	40.66
650.328	41.19
650.517	41.42
650.706	40.91
650.895	40.73
651.083	40.74
651.272	40.67
651.461	40.8
651.65	40.82
651.838	40.67
652.027	40.71
652.216	40.82
652.404	40.33
652.593	40.34
652.781	40.18
652.97	40.25
653.158	39.92
653.347	40.12
653.535	40.36
653.724	40.72
653.912	40.95
654.101	40.96
654.289	40.61
654.478	40.83
654.666	40.59
654.855	41.11
655.043	41.56
655.231	41.63
655.42	41.7
655.608	41.53
655.796	41.15
655.985	40.97
656.173	40.93
656.361	41.34
656.55	41.27
656.738	41.19
656.926	40.83
657.114	40.38
657.302	40.54
657.491	40.49
657.679	40.57
657.867	41.16
658.055	41.27
658.243	41.41
658.431	41.24
658.619	41.47
658.807	41.92
658.996	42.17
659.184	42
659.372	41.82
659.56	41.51
659.748	41.58
659.936	41.28
660.124	41.24
660.311	40.95
660.499	41.16
660.687	41.09
660.875	41.04
661.063	41.11
661.251	41.5
661.439	41.63
661.627	42.21
661.814	41.97
662.002	41.97
662.19	41.56
662.378	42.12
662.565	41.82
662.753	41.65
662.941	41.48
663.129	41.33
663.316	41.07
663.504	41.44
663.692	41.33
663.879	41.34
664.067	41.42
664.254	41.91
664.442	41.39
664.63	41.61
664.817	41.39
665.005	41.48
665.192	41.48
665.38	41.55
665.567	41.51
665.755	40.73
665.942	40.91
666.13	41.63
666.317	41.66
666.504	42.1
666.692	42.36
666.879	42.88
667.067	42.62
667.254	42.72
667.441	42.7
667.629	42.69
667.816	43.81
668.003	44.01
668.19	43.41
668.378	43.43
668.565	43.37
668.752	43.21
668.939	43.34
669.127	43.62
669.314	43.78
669.501	43.84
669.688	43.98
669.875	43.28
670.062	43.16
670.249	43.15
670.436	43.19
670.623	43.13
670.81	42.97
670.997	42.64
671.184	42.46
671.371	42.38
671.558	42.36
671.745	41.93
671.932	42.06
672.119	42.14
672.306	42.26
672.493	42.06
672.68	42.09
672.867	42.06
673.054	42.51
673.24	42.57
673.427	42.5
673.614	42.69
673.801	43.04
673.988	42.92
674.174	42.48
674.361	42.44
674.548	42.53
674.734	42.72
674.921	42.85
675.108	42.84
675.294	43
675.481	43.37
675.668	43.28
675.854	43.23
676.041	43.4
676.227	43.22
676.414	43.5
676.601	43.56
676.787	43.1
676.974	43.42
677.16	43.17
677.347	43.06
677.533	42.47
677.719	43
677.906	42.88
678.092	43.07
678.279	43.58
678.465	43.3
678.651	43.89
678.838	43.97
679.024	44.36
679.21	44.46
679.397	44.44
679.583	45.05
679.769	44.49
679.955	44.29
680.142	44.25
680.328	43.97
680.514	44.09
680.7	43.48
680.886	43.53
681.073	43.01
681.259	43.12
681.445	43.27
681.631	42.76
681.817	43.19
682.003	43.51
682.189	43.28
682.375	43.63
682.561	43.6
682.747	43.56
682.933	43.55
683.119	43.46
683.305	43.22
683.491	43.36
683.677	43.67
683.863	43.44
684.049	42.85
684.235	43.2
684.42	43.1
684.606	42.68
684.792	42.79
684.978	42.67
685.164	42.61
685.349	42.47
685.535	42.37
685.721	42.03
685.907	41.52
686.092	42.14
686.278	42.37
686.464	42.16
686.649	42.38
686.835	42.64
687.021	42.8
687.206	43
687.392	43.25
687.577	43.43
687.763	43.6
687.948	44.15
688.134	44.1
688.319	44.17
688.505	44.48
688.69	44.53
688.876	44.58
689.061	44.34
689.247	44.39
689.432	44.61
689.618	44.26
689.803	44.33
689.988	44.47
690.174	44.53
690.359	44.06
690.544	44.27
690.73	44.63
690.915	44.36
691.1	45.05
691.285	44.91
691.471	44.74
691.656	44.35
691.841	44.35
692.026	44.43
692.211	44.13
692.396	44.08
692.582	43.77
692.767	43.24
692.952	43.01
693.137	42.47
693.322	42.83
693.507	42.64
693.692	43.13
693.877	43.58
694.062	42.85
694.247	42.92
694.432	43.34
694.617	43.16
694.802	43.61
694.987	43.76
695.172	43.69
695.357	43.3
695.541	43.35
695.726	43.33
695.911	42.87
696.096	43.62
696.281	44.46
696.466	44.09
696.65	44.21
696.835	44.5
697.02	44.2
697.204	44.46
697.389	44.78
697.574	44.73
697.759	44.79
697.943	44.81
698.128	44.48
698.312	44.05
698.497	44.24
698.682	44.14
698.866	43.72
699.051	44.39
699.235	44.45
699.42	44.46
699.604	44.53
699.789	44.2
699.973	44.28
700.158	44.26
700.342	44.24
700.527	44.17
700.711	44.44
700.895	44.21
701.08	43.93
701.264	43.72
701.448	43.73
701.633	43.73
701.817	44.67
702.001	44.23
702.186	44.2
702.37	44.68
702.554	44.42
702.738	44.7
702.923	45.63
703.107	45.76
703.291	45.59
703.475	45.79
703.659	45.81
703.843	44.74
704.027	44.9
704.212	45.38
704.396	44.94
704.58	45.37
704.764	45.08
704.948	44.7
705.132	44.92
705.316	44.79
705.5	44.17
705.684	44.31
705.868	44.78
706.052	44.79
706.235	44.03
706.419	44.16
706.603	44.25
706.787	44.18
706.971	44.03
707.155	44.08
707.339	44.21
707.522	44.52
707.706	44.44
707.89	44.69
708.074	45.59
708.257	46.41
708.441	45.83
708.625	46.65
708.808	46.23
708.992	46.1
709.176	46.03
709.359	46.64
709.543	47.16
709.727	47.68
709.91	47.36
710.094	46.62
710.277	46.08
710.461	46.6
710.644	45.84
710.828	46.54
711.011	46.89
711.195	46.8
711.378	46.44
711.562	46.53
711.745	46.39
711.928	46.4
712.112	46.77
712.295	46.95
712.478	46.86
712.662	47.19
712.845	47.14
713.028	47.12
713.212	46.55
713.395	46.33
713.578	45.78
713.761	45.79
713.945	45.81
714.128	45.75
714.311	45.79
714.494	45.98
714.677	46.12
714.86	45.54
715.043	45.17
715.227	45.32
715.41	45.67
715.593	45.46
715.776	45.2
715.959	45.11
716.142	45.11
716.325	45.04
716.508	45.08
716.691	44.45
716.874	45.11
717.057	45.59
717.239	45.97
717.422	46.36
717.605	46.28
717.788	46.59
717.971	46.75
718.154	46.94
718.337	47.41
718.519	46.64
718.702	47.01
718.885	47.03
719.068	46.77
719.25	46.6
719.433	46.2
719.616	46.57
719.798	46.48
719.981	46.5
720.164	46.58
720.346	46.22
720.529	45.92
720.712	45.67
720.894	44.98
721.077	45.08
721.259	45.24
721.442	44.57
721.624	44.24
721.807	43
721.989	43.03
722.172	42.49
722.354	42.64
722.537	43.12
722.719	43.21
722.901	43.98
723.084	45.02
723.266	44.16
723.448	44.64
723.631	45.33
723.813	46.02
723.995	45.94
724.178	45.96
724.36	45.23
724.542	45.56
724.724	45.22
724.907	44.62
725.089	44.12
725.271	44.62
725.453	44.67
725.635	44.09
725.817	43.81
725.999	43.8
726.181	43.93
726.364	45.25
726.546	45.4
726.728	45.34
726.91	45.92
727.092	45.7
727.274	45.86
727.456	46.22
727.638	46.31
727.819	46.93
728.001	46.79
728.183	47.07
728.365	46
728.547	45.85
728.729	45.94
728.911	45.73
729.093	45.77
729.274	45.84
729.456	44.91
729.638	44.99
729.82	44.82
730.001	45.3
730.183	45.31
730.365	45.47
730.546	45.56
730.728	45.4
730.91	44.72
731.091	43.94
731.273	44.12
731.455	44.84
731.636	44.79
731.818	45.33
731.999	44.95
732.181	44.4
732.362	45
732.544	44.83
732.725	45.01
732.907	44.89
733.088	45.04
733.27	44.79
733.451	45.11
733.633	45.69
733.814	45.1
733.995	45.41
734.177	45.38
734.358	44.96
734.539	45.19
734.721	46.21
734.902	47.1
735.083	47.63
735.264	48.12
735.446	47.68
735.627	47.92
735.808	47.86
735.989	48.17
736.17	47.9
736.351	47.9
736.533	47.95
736.714	47
736.895	46.43
737.076	47.05
737.257	46.28
737.438	46.48
737.619	45.07
737.8	44.78
737.981	44.78
738.162	45.52
738.343	45.74
738.524	46.18
738.705	45.93
738.886	46.58
739.067	46.25
739.247	46.52
739.428	45.88
739.609	47.43
739.79	48.94
739.971	47.92
740.151	48.25
740.332	48.06
740.513	47.22
740.694	47.32
740.874	46.92
741.055	46.8
741.236	45.59
741.417	46.24
741.597	45.61
741.778	44.29
741.958	44.93
742.139	44.5
742.32	44.63
742.5	45.29
742.681	45.65
742.861	45.59
743.042	45.89
743.222	46.76
743.403	46.67
743.583	46.97
743.764	47.77
743.944	46.77
744.124	47.47
744.305	47.36
744.485	47.17
744.666	45.96
744.846	46.07
745.026	46.33
745.207	46.22
745.387	46.34
745.567	45.17
745.747	45.22
745.928	46.7
746.108	45.62
746.288	45.29
746.468	44.82
746.648	45.63
746.829	45.84
747.009	44.07
747.189	44.75
747.369	44.84
747.549	45.08
747.729	44.45
747.909	44.47
748.089	44.74
748.269	45.4
748.449	45.66
748.629	47.62
748.809	47.23
748.989	48.89
749.169	48.91
749.349	48.72
749.529	48.04
749.709	47.75
749.889	47.91
750.068	48.73
750.248	48.03
750.428	46.71
750.608	44.62
750.788	44.82
750.967	44.13
751.147	44.27
751.327	44.87
751.507	46.03
751.686	46.39
751.866	45.76
752.046	45.13
752.225	45.54
752.405	47.89
752.585	48.01
752.764	47.15
752.944	47.55
753.123	46.86
753.303	46.06
753.482	46.39
753.662	46.39
753.841	47.05
754.021	47.1
754.2	47.4
754.38	46.36
754.559	46.62
754.739	47.23
754.918	46.59
755.097	47.21
755.277	47.51
755.456	45.98
755.635	46.02
755.815	45.51
755.994	44.99
756.173	45.08
756.352	45.34
756.532	45.34
756.711	45.1
756.89	45.19
757.069	44.9
757.248	45.63
757.427	45.77
757.607	45.32
757.786	44.72
757.965	45.53
758.144	45.18
758.323	45.3
758.502	45.25
758.681	46.56
758.86	47.32
759.039	46.44
759.218	46.01
759.397	46.45
759.576	46.48
759.755	47.01
759.934	46
760.113	46.06
760.291	45.91
760.47	45.46
760.649	44.71
760.828	44.43
761.007	45.5
761.186	45.3
761.364	45.55
761.543	46.08
761.722	45.46
761.901	45.28
762.079	45.56
762.258	45.57
762.437	45.9
762.615	45.65
762.794	45.77
762.972	45.03
763.151	44.9
763.33	45.01
763.508	45.49
763.687	46.13
763.865	46.47
764.044	45.9
764.222	45.74
764.401	46.14
764.579	45.9
764.758	45.05
764.936	45.3
765.114	45.57
765.293	44.94
765.471	45.06
765.65	44.98
765.828	44.73
766.006	45.4
766.184	45.06
766.363	44.59
766.541	44.93
766.719	45.01
766.898	45.9
767.076	45.74
767.254	46.28
767.432	46.1
767.61	45.78
767.788	45.77
767.967	45.17
768.145	46.14
768.323	46.3
768.501	46.92
768.679	47.28
768.857	46.62
769.035	45.51
769.213	45.15
769.391	44.42
769.569	44.46
769.747	46.96
769.925	47.45
770.103	46.65
770.281	46.41
770.459	45.94
770.636	45.81
770.814	46.16
770.992	47.59
771.17	47.49
771.348	47.64
771.525	47.8
771.703	45.78
771.881	45.8
772.059	44.52
772.236	44.11
772.414	44.54
772.592	43.89
772.769	44.56
772.947	43.6
773.125	44.55
773.302	44.46
773.48	45.07
773.657	44.74
773.835	43.92
774.013	45.79
774.19	47.3
774.368	46.65
774.545	47.22
774.723	47.59
774.9	49.15
775.077	48.39
775.255	47.03
775.432	47.19
775.61	47.21
775.787	47.24
775.964	47.25
776.142	47.28
776.319	48.33
776.496	47.78
776.674	44.91
776.851	41.79
777.028	42.71
777.205	43.98
777.382	43.78
777.56	44.8
777.737	45.15
777.914	45.14
778.091	44.54
778.268	42.78
778.445	43.59
778.622	45.02
778.8	46.9
778.977	46.57
779.154	39.93
779.331	38.9
779.508	37.02
779.685	37.67
779.862	37.82
780.038	37.59
780.215	39
780.392	40.35
780.569	39.59
780.746	39.87
780.923	39.71
781.1	46.26
781.277	46.22
781.453	45.84
781.63	44.44
781.807	45.28
781.984	44.44
782.16	44.41
782.337	42.94
782.514	42.27
782.691	41.83
782.867	41.85
783.044	43.79
783.221	44.57
783.397	48.19
783.574	50.57
783.75	49.56
783.927	50.16
784.103	49.92
784.28	49.14
784.456	50.09
784.633	50.18
784.809	51.19
784.986	49.91
785.162	50.07
785.339	49.72
785.515	49.08
785.692	47.43
785.868	47.64
786.044	47.67
786.221	48.9
786.397	49.19
786.573	50.38
786.749	49.1
786.926	47.55
787.102	47.46
787.278	43.61
787.454	42.37
787.631	44.36
787.807	43.72
787.983	42.98
788.159	42.17
788.335	40.33
788.511	38.42
788.687	39.31
788.863	40.91
789.039	40.8
789.216	43.94
789.392	44.14
789.568	44.61
789.744	45.07
789.919	46.94
790.095	48.32
790.271	49.75
790.447	50.5
790.623	49.59
790.799	48.57
790.975	47.41
791.151	46.01
791.327	46.69
791.502	45.99
791.678	46.05
791.854	43.85
792.03	41.7
792.205	43.67
792.381	43.35
792.557	44.95
792.733	46.32
792.908	46.67
793.084	47.12
793.259	44.89
793.435	45.71
793.611	45.7
793.786	46.65
793.962	47.86
794.137	46.39
794.313	45.24
794.488	44.37
794.664	46.12
794.839	47.79
795.015	46.21
795.19	48.2
795.366	45.61
795.541	44.76
795.716	43.39
795.892	43.55
796.067	44.32
796.242	46.51
796.418	46.49
796.593	45.68
796.768	44.61
796.944	44.95
797.119	43.68
797.294	42.9
797.469	43.88
797.644	44.29
797.82	44.32
797.995	42.3
798.17	41.46
798.345	43.51
798.52	39.77
798.695	40.88
798.87	40.7
799.045	42.89
799.22	46.02
799.395	45.32
799.57	47.08
799.745	47.3
799.92	48.39
800.095	48.06
800.27	46.86
800.445	49.37
800.62	48.91
800.795	49.52
800.97	49.16
801.145	46.31
801.319	45.43
801.494	43.63
801.669	44.17
801.844	45.47
802.018	45.85
802.193	45.19
802.368	44.59
802.543	42.06
802.717	43.28
802.892	42.92
803.067	44.32
803.241	45.69
803.416	45.5
803.59	44.38
803.765	42.49
803.94	42.09
804.114	41.92
804.289	42.82
804.463	45.68
804.638	45.02
804.812	44.62
804.986	46.68
805.161	45.62
805.335	46.17
805.51	47.81
805.684	49.47
805.858	49.53
806.033	50.9
806.207	50.93
806.381	51.15
806.556	50.67
806.73	51.83
806.904	50.84
807.078	51.08
807.253	52.21
807.427	53.31
807.601	51.63
807.775	50.35
807.949	47.1
808.123	45.73
808.298	46.16
808.472	46.09
808.646	44.9
808.82	44.25
808.994	45.02
809.168	43.39
809.342	40.97
809.516	41.67
809.69	42.52
809.864	41.82
810.038	40.84
810.212	38.13
810.385	37.79
810.559	39.7
810.733	38.34
810.907	37.08
811.081	36.55
811.255	36.85
811.428	36.37
811.602	35.1
811.776	38.67
811.95	39.4
812.123	40.74
812.297	39.49
812.471	37.79
812.644	38.72
812.818	42.35
812.992	42.9
813.165	41.61
813.339	39.48
813.512	40.85
813.686	35.91
813.86	38.27
814.033	36.66
814.207	37.49
814.38	35.74
814.554	35.61
814.727	34.72
814.9	34.91
815.074	34.48
815.247	38.06
815.421	40.81
815.594	44.13
815.767	41.97
815.941	44.45
816.114	45.16
816.287	48.67
816.46	51.31
816.634	47.23
816.807	47.17
816.98	49.42
817.153	49.71
817.327	46.81
817.5	44.61
817.673	46.11
817.846	46.71
818.019	47.29
818.192	46.76
818.365	45.46
818.538	47.83
818.711	48.69
818.884	44.43
819.057	41.36
819.23	40.54
819.403	42.16
819.576	40.21
819.749	38.94
819.922	39.62
820.095	39.21
820.268	37.58
820.441	38.08
820.614	39.64
820.786	41.36
820.959	43.26
821.132	44.87
821.305	44.46
821.477	45.03
821.65	44.62
821.823	44.11
821.996	44.32
822.168	45.09
822.341	44.65
822.514	44.62
822.686	44.75
822.859	44.08
823.031	43.37
823.204	43.39
823.376	43.39
823.549	43.89
823.722	43.72
823.894	43.77
824.067	43.25
824.239	43.42
824.411	43.19
824.584	43.57
824.756	44.39
824.929	44.69
825.101	44.6
825.273	44.74
825.446	44.16
825.618	44.09
825.79	43.39
825.963	43.91
826.135	44.17
826.307	43.79
826.479	43.06
826.652	42.47
826.824	41.98
826.996	42.88
827.168	41.56
827.34	42.19
827.512	42.92
827.684	43.38
827.856	43.18
828.029	42.92
828.201	43.02
828.373	42.61
828.545	42.67
828.717	44.37
828.889	43.91
829.061	45.23
829.232	44.07
829.404	44.74
829.576	45.04
829.748	46.14
829.92	45.86
830.092	47.04
830.264	48.92
830.436	48.8
830.607	48.69
830.779	48.73
830.951	50.35
831.123	52.05
831.294	50.85
831.466	50.82
831.638	47.41
831.809	48.39
831.981	46.74
832.153	46.8
832.324	46.27
832.496	44.88
832.667	44.46
832.839	43.5
833.011	42.39
833.182	40.36
833.354	38.25
833.525	38.89
833.697	38.03
833.868	37.1
834.039	36.6
834.211	35.87
834.382	36.43
834.554	36.4
834.725	35.67
834.896	34.86
835.068	36.03
835.239	37.42
835.41	39.37
835.581	39.96
835.753	40.62
835.924	42.12
836.095	41.99
836.266	42.12
836.438	41.28
836.609	40.46
836.78	42.3
836.951	42.11
837.122	42.73
837.293	41.53
837.464	39.95
837.635	39.75
837.806	36.2
837.977	37.06
838.148	36.79
838.319	38.48
838.49	39.63
838.661	37
838.832	37.77
839.003	35.97
839.174	34.52
839.345	38.1
839.516	38.5
839.687	41.43
839.857	45.2
840.028	43.21
840.199	39.76
840.37	41.36
840.54	43.36
840.711	42.02
840.882	42.67
841.053	47.71
841.223	44.36
841.394	45.12
841.564	43.18
841.735	38.08
841.906	36.91
842.076	39.57
842.247	36.15
842.417	38.95
842.588	39.01
842.758	40.47
842.929	34.71
843.099	39.76
843.27	41.49
843.44	40.79
843.611	38.8
843.781	43.62
843.951	44.55
844.122	49.27
844.292	46.05
844.462	49.83
844.633	52.07
844.803	52.1
844.973	47.13
845.144	42.92
845.314	44.34
845.484	48.84
845.654	42.83
845.824	47.8
845.995	45.3
846.165	46.32
846.335	44.74
846.505	38.38
846.675	31.55
846.845	31.53
847.015	37.1
847.185	30.49
847.355	32.06
847.525	34.07
847.695	28.98
847.865	29.83
848.035	24.81
848.205	22.65
848.375	21.43
848.545	29.17
848.715	31.52
848.884	28.16
849.054	38.2
849.224	43.13
849.394	45.67
849.564	47.55
849.733	54.45
849.903	61.04
850.073	60.78
850.243	62.1
850.412	44.37
850.582	37.96
850.752	37.49
850.921	29.28
851.091	28.17
851.26	30.16
851.43	18.2
851.599	13.41
851.769	16.35
851.939	21.33
852.108	17.59
852.278	37.42
852.447	42.66
852.616	39.8
852.786	32.71
852.955	39.5
853.125	38.97
853.294	48.41
853.463	48.67
853.633	46.58
853.802	49.47
853.971	59.66
854.141	66.14
854.31	63.35
854.479	69.55
854.648	81.65
854.818	73.93
854.987	69.71
855.156	62.49
855.325	62.16
855.494	64.36
855.663	59.48
855.832	57.01
856.001	60.44
856.171	65.49
856.34	59.01
856.509	68.05
856.678	69.49
856.847	68.67
857.016	79.02
857.185	67.62
857.353	61.49
857.522	56.89
857.691	55.56
857.86	45.15
858.029	46.38
858.198	44.1
858.367	36.68
858.535	27.29
858.704	27.47
858.873	23.15
859.042	18.34
859.21	17.96
859.379	27.56
859.548	27.18
859.717	29.76
859.885	24.4
860.054	32.5
860.222	35.64
860.391	45.68
860.56	52.81
860.728	54.68
860.897	61.64
861.065	74.18
861.234	66.99
861.402	61.85
861.571	55.07
861.739	55.65
861.908	53.82
862.076	56.1
862.244	46.89
862.413	51.71
862.581	55.03
862.749	50.52
862.918	35.48
863.086	38.34
863.254	38.07
863.423	40.31
863.591	47.47
863.759	50.76
863.927	42.81
864.096	43.91
864.264	35.2
864.432	26.25
864.6	20.9
864.768	31.55
864.936	22.78
865.104	23.85
865.272	27.33
865.44	13.83
865.608	10.79
865.776	12.05
865.944	12.75
866.112	5.24
866.28	5.25
866.448	13.11
866.616	19.76
866.784	17.83
866.952	15.04
867.12	15.62
867.288	15.94
867.455	25.26
867.623	26.91
867.791	23.66
867.959	34.43
868.127	35.6
868.294	29.73
868.462	25.51
868.63	29.4
868.797	31.07
868.965	24.09
869.133	34.05
869.3	31.44
869.468	28.46
869.636	30.91
869.803	23.05
869.971	26.33
870.138	31.56
870.306	35.18
870.473	33.7
870.641	34.93
870.808	49.19
870.975	39.99
871.143	40.67
871.31	43.79
871.478	45.35
871.645	56.57
871.812	50.64
871.98	50.41
872.147	49.42
872.314	51.19
872.482	51.84
872.649	48.43
872.816	48.35
872.983	39.16
873.15	43.47
873.318	45.29
873.485	36.39
873.652	38.24
873.819	35.07
873.986	28.66
874.153	25.1
874.32	23.09
874.487	18.79
874.654	24.52
874.821	28.21
874.988	26.74
875.155	31.26
875.322	26.33
875.489	24.01
875.656	26.38
875.823	24.24
875.99	26.52
876.157	28.84
876.324	34.95
876.49	41.83
876.657	40.52
876.824	39.12
876.991	35.48
877.157	43.47
877.324	45.66
877.491	43.21
877.658	49.63
877.824	49.48
877.991	48.43
878.157	47.76
878.324	35.72
878.491	40.5
878.657	34.86
878.824	35.2
878.99	33.74
879.157	37.45
879.323	39.39
879.49	33.85
879.656	41.27
879.823	37.8
879.989	43.26
880.156	41.94
880.322	40.21
880.488	39.1
880.655	37.5
880.821	42.42
880.987	35.88
881.154	35.06
881.32	40.12
881.486	36.12
881.652	40.84
881.819	34.42
881.985	39.21
882.151	37.91
882.317	43.25
882.483	41.9
882.649	41.92
882.816	43.78
882.982	43.61
883.148	43.52
883.314	43.05
883.48	43.65
883.646	43.59
883.812	42.91
883.978	43.72
884.144	42.15
884.31	43.87
884.476	41.77
884.642	40.72
884.807	40.85
884.973	40.73
885.139	40.85
885.305	38.79
885.471	40.57
885.637	39.59
885.802	37.63
885.968	36.17
886.134	33.98
886.3	36.61
886.465	36.53
886.631	36.16
886.797	37.06
886.962	35.36
887.128	35.83
887.293	33.9
887.459	35.26
887.625	36.59
887.79	40.13
887.956	43.58
888.121	40.52
888.287	42.47
888.452	43.03
888.618	37.93
888.783	41.13
