Data from LC_263_Reflection_2.txt Node
Date: Sat Nov 21 11:45:21 EST 2015
User: robert
Spectrometer: USB4E03001
Autoset integration time: false
Trigger mode: 4
Integration Time (sec): 1.000000E-1
Scans to average: 15
Electric dark correction enabled: true
Nonlinearity correction enabled: false
Boxcar width: 5
Stray light correction enabled: false
XAxis mode: Wavelengths
Stop averaging: false
Number of Pixels in Spectrum: 3648
>>>>>Begin Spectral Data<<<<<
177.566	421.41
177.785	396
178.005	807.64
178.225	-127.27
178.445	-361.15
178.665	-1026.47
178.885	-802.58
179.105	-405.05
179.324	-31.64
179.544	-89.04
179.764	-146.35
179.984	-32.22
180.204	-17.1
180.423	24.4
180.643	49.36
180.863	48.56
181.083	34.22
181.302	57.94
181.522	57.59
181.742	-7.53
181.961	20.82
182.181	12
182.401	6.92
182.621	15.25
182.84	4.94
183.06	21.84
183.279	46.6
183.499	43.78
183.719	50.57
183.938	55.67
184.158	77.75
184.377	78.46
184.597	92.27
184.816	76.46
185.036	69.59
185.256	81.47
185.475	66.48
185.695	50.25
185.914	42.29
186.134	44.55
186.353	46.22
186.572	40.08
186.792	35.2
187.011	29.65
187.231	37.94
187.45	44.52
187.67	26.63
187.889	20.01
188.108	30.43
188.328	83.08
188.547	69.95
188.766	36.22
188.986	41.58
189.205	-15.57
189.424	-247.45
189.644	-270.47
189.863	496.92
190.082	818.46
190.302	-1162.58
190.521	-168.14
190.74	-164.07
190.959	-195.54
191.178	-115.33
191.398	-50.19
191.617	-38.44
191.836	-15.34
192.055	-11.2
192.274	14.38
192.494	1.09
192.713	-13.53
192.932	0.16
193.151	-4.68
193.37	15.9
193.589	8.07
193.808	-9.31
194.027	5.82
194.246	-1.24
194.465	1.93
194.685	9.94
194.904	16.51
195.123	41.93
195.342	43.37
195.561	58.3
195.78	5.44
195.999	5.46
196.218	20.75
196.436	-2.25
196.655	-9.82
196.874	22.45
197.093	47.3
197.312	41.19
197.531	56.38
197.75	40.46
197.969	41.06
198.188	65.63
198.407	74.56
198.625	59.11
198.844	57.26
199.063	65.6
199.282	50.57
199.501	49.91
199.719	63.78
199.938	43.65
200.157	46.21
200.376	40.44
200.594	36.57
200.813	10.09
201.032	15.4
201.251	-3.66
201.469	-16.56
201.688	-4.73
201.907	-11.82
202.125	20.56
202.344	24.3
202.563	21
202.781	18.87
203	37.5
203.218	64.88
203.437	144.08
203.656	346.13
203.874	389.22
204.093	143.17
204.311	118.15
204.53	75.71
204.748	36.33
204.967	46.42
205.185	47.71
205.404	9.69
205.622	28.27
205.841	-2.54
206.059	19.56
206.278	-46.85
206.496	-52.23
206.715	-179.94
206.933	-48.41
207.151	-44.42
207.37	-19.96
207.588	-79.69
207.806	-35.78
208.025	-63.51
208.243	-22.4
208.461	-28.71
208.68	-1
208.898	12.99
209.116	22.38
209.335	19.41
209.553	56.7
209.771	58.5
209.989	71.86
210.208	90.37
210.426	113.7
210.644	33.31
210.862	-4.79
211.081	-44.8
211.299	22.3
211.517	22.57
211.735	-9.62
211.953	-36.25
212.171	-22.3
212.39	-23.05
212.608	0.35
212.826	16.73
213.044	34.64
213.262	41.51
213.48	47.5
213.698	55.87
213.916	67.78
214.134	75.64
214.352	82.09
214.57	83.89
214.788	80.98
215.006	75.38
215.224	83.08
215.442	84.42
215.66	110.06
215.878	109.4
216.096	102.28
216.314	106.41
216.532	103.93
216.75	93.77
216.968	94.58
217.185	82.95
217.403	69.24
217.621	53.61
217.839	66.08
218.057	33.39
218.275	12.69
218.492	18.73
218.71	-9.89
218.928	-22.43
219.146	-15.64
219.363	-16.44
219.581	-81.94
219.799	-42.19
220.017	-11.98
220.234	-28.42
220.452	-25.13
220.67	-0.37
220.887	-30.94
221.105	-7.39
221.323	-4.27
221.54	-28.51
221.758	-13.48
221.976	14.52
222.193	8.99
222.411	13.54
222.629	15.6
222.846	31.92
223.064	33.57
223.281	37.86
223.499	26.94
223.716	36.07
223.934	34.17
224.151	39.87
224.369	5.09
224.586	8.37
224.804	14.83
225.021	4.01
225.239	-7.46
225.456	-5.71
225.674	-0.7
225.891	-0.57
226.108	3.55
226.326	10.55
226.543	5.01
226.76	15.84
226.978	17.01
227.195	14.58
227.413	16.29
227.63	22.09
227.847	18.38
228.064	16.77
228.282	16.88
228.499	13.03
228.716	10.6
228.934	11.14
229.151	8.84
229.368	7.79
229.585	7
229.802	7.91
230.02	5.07
230.237	5.91
230.454	6.79
230.671	7.81
230.888	9.44
231.105	7.25
231.323	7.34
231.54	7.68
231.757	7.31
231.974	7.53
232.191	0.28
232.408	-0.85
232.625	-1.48
232.842	-1.42
233.059	-0.98
233.276	0.34
233.493	7.77
233.71	8.79
233.927	9.16
234.144	12.8
234.361	13.01
234.578	17.31
234.795	23.94
235.012	24.63
235.229	24.51
235.446	22.36
235.663	16.9
235.879	11.94
236.096	10.52
236.313	16.9
236.53	13.16
236.747	7.62
236.964	5.5
237.181	1.3
237.397	-1.29
237.614	-4.69
237.831	-5.8
238.048	-4.38
238.264	-0.55
238.481	-2.1
238.698	-7.81
238.915	-7.87
239.131	-9.3
239.348	-6.28
239.565	-6.31
239.781	-3.12
239.998	-2.5
240.215	1.94
240.431	-0.4
240.648	2.02
240.865	3.82
241.081	1.58
241.298	1.86
241.514	7.58
241.731	8.45
241.947	10.15
242.164	10.89
242.38	10.79
242.597	11.43
242.814	12.1
243.03	11.72
243.246	11.76
243.463	12.93
243.679	14.14
243.896	13.22
244.112	12.74
244.329	13.37
244.545	12.08
244.762	14.34
244.978	13.82
245.194	12.52
245.411	13.01
245.627	11.89
245.843	10.77
246.06	11.13
246.276	11.11
246.492	11.14
246.709	9.43
246.925	10.02
247.141	9.42
247.357	8.85
247.574	9.02
247.79	8.61
248.006	9.16
248.222	9.03
248.439	9.16
248.655	9.51
248.871	9.61
249.087	10.38
249.303	10.19
249.519	9.65
249.736	9.24
249.952	9.67
250.168	9.48
250.384	9.98
250.6	11.11
250.816	10.85
251.032	11.48
251.248	11.65
251.464	9.85
251.68	9.72
251.896	11.16
252.112	11.67
252.328	11.12
252.544	11.61
252.76	12.61
252.976	12.87
253.192	12.39
253.408	11.01
253.624	11.28
253.84	13.08
254.056	14.06
254.272	13.09
254.487	14.23
254.703	14.91
254.919	15.21
255.135	11.46
255.351	12.42
255.567	9.04
255.782	7.93
255.998	6.51
256.214	4.37
256.43	5.94
256.646	5.26
256.861	3.67
257.077	3.38
257.293	2.9
257.508	3.52
257.724	4.16
257.94	7.27
258.155	7.9
258.371	8.8
258.587	8.94
258.802	7.66
259.018	7.76
259.234	8.72
259.449	9.53
259.665	9.55
259.88	9.85
260.096	9.48
260.312	9.59
260.527	9.36
260.743	9.12
260.958	9.28
261.174	8.83
261.389	9.5
261.605	9.27
261.82	8.78
262.036	9.13
262.251	9.23
262.466	9.3
262.682	8.76
262.897	8.2
263.113	8.19
263.328	8.5
263.543	10.68
263.759	10.73
263.974	11.9
264.189	13.45
264.405	13.32
264.62	12.71
264.835	12.35
265.051	11.7
265.266	13.58
265.481	13.86
265.696	11.99
265.912	10.73
266.127	9.97
266.342	9.02
266.557	7.91
266.773	7.05
266.988	8.06
267.203	7.82
267.418	8.02
267.633	6.98
267.848	6.36
268.064	7.88
268.279	8.24
268.494	7.98
268.709	8.92
268.924	8.72
269.139	9.66
269.354	8.15
269.569	7.41
269.784	7.58
269.999	6.71
270.214	7.65
270.429	8
270.644	7.49
270.859	7.94
271.074	5.94
271.289	6.1
271.504	6.09
271.719	6.16
271.934	8.58
272.149	8.67
272.363	9.28
272.578	8.19
272.793	7.11
273.008	7.65
273.223	7.1
273.438	8.39
273.653	9.8
273.867	10.27
274.082	10.81
274.297	9.48
274.512	9.44
274.726	9.85
274.941	10.21
275.156	12.08
275.371	11.81
275.585	12.6
275.8	10.99
276.015	8.89
276.229	6.9
276.444	7.71
276.659	7.78
276.873	7.92
277.088	8.27
277.302	8.98
277.517	8.49
277.732	7.95
277.946	8.02
278.161	8.53
278.375	8.03
278.59	10.71
278.804	10.11
279.019	9.38
279.233	9.15
279.448	8.16
279.662	7.74
279.877	5.93
280.091	6.83
280.306	6.46
280.52	7.16
280.735	8.26
280.949	6.33
281.163	6.19
281.378	6.15
281.592	6.81
281.806	7.46
282.021	7.12
282.235	8.43
282.449	8.12
282.664	7.39
282.878	7.71
283.092	8.15
283.307	8.41
283.521	9.1
283.735	9.67
283.949	8.85
284.164	9.03
284.378	9.04
284.592	8.1
284.806	8.62
285.02	8.5
285.234	8.94
285.449	8.1
285.663	7.95
285.877	7.23
286.091	7.33
286.305	7.39
286.519	7.84
286.733	8.44
286.947	9.29
287.161	8.82
287.375	9.6
287.589	9.41
287.803	9.93
288.017	10.87
288.231	11.33
288.445	10.59
288.659	10.83
288.873	10.21
289.087	10.95
289.301	10.54
289.515	10.55
289.729	10.45
289.943	9.89
290.157	10.31
290.371	9.68
290.584	10.59
290.798	11.27
291.012	11.27
291.226	10.53
291.44	8.86
291.654	9.21
291.867	9.27
292.081	9.71
292.295	10.34
292.509	10.58
292.722	11.23
292.936	10.21
293.15	9.28
293.364	9.56
293.577	10.71
293.791	12.25
294.005	11.66
294.218	11.41
294.432	11.68
294.645	11.61
294.859	11
295.073	9.76
295.286	9.28
295.5	9.92
295.713	9.72
295.927	9.21
296.14	8.73
296.354	9.05
296.568	9.77
296.781	9.4
296.994	9.45
297.208	9.39
297.421	10.74
297.635	11.06
297.848	10.66
298.062	10.5
298.275	11.16
298.489	11.42
298.702	11.51
298.915	11.16
299.129	11.37
299.342	10.94
299.555	11.19
299.769	10.79
299.982	11.29
300.195	12.51
300.409	12.72
300.622	12.57
300.835	12.3
301.048	13.12
301.262	13.42
301.475	13.98
301.688	14.02
301.901	13.41
302.115	12.18
302.328	11.76
302.541	10.23
302.754	9.77
302.967	9.79
303.18	9.19
303.393	8.58
303.607	8.29
303.82	7
304.033	6.78
304.246	7.45
304.459	9.18
304.672	9.21
304.885	10.56
305.098	12.38
305.311	11.96
305.524	12.66
305.737	12.66
305.95	12.16
306.163	12.08
306.376	11.59
306.589	11.95
306.802	10.29
307.015	9.73
307.228	9.76
307.44	8.41
307.653	9.44
307.866	10.18
308.079	9.69
308.292	8.06
308.505	8.61
308.718	9.35
308.93	9.39
309.143	9.81
309.356	9.91
309.569	9.02
309.781	9.28
309.994	8.33
310.207	7.82
310.42	7.38
310.632	8.58
310.845	8.83
311.058	9.13
311.27	9.05
311.483	9.83
311.696	9.81
311.908	10.91
312.121	10.7
312.333	11.3
312.546	11.09
312.759	11.81
312.971	12.67
313.184	13.38
313.396	13.06
313.609	12.55
313.821	11.33
314.034	11.84
314.246	10.76
314.459	11.08
314.671	10.53
314.884	10.47
315.096	9.92
315.309	8.96
315.521	8.16
315.733	8.61
315.946	9.36
316.158	9.23
316.371	8.44
316.583	9.08
316.795	8.69
317.008	9.06
317.22	8.08
317.432	8.72
317.644	9.67
317.857	9.51
318.069	8.38
318.281	8.56
318.494	9.39
318.706	9.65
318.918	9.43
319.13	8.91
319.342	8.45
319.555	8.93
319.767	8.24
319.979	7.58
320.191	7.86
320.403	9.12
320.615	8.36
320.827	8.62
321.039	9.02
321.252	8.65
321.464	8.62
321.676	7.4
321.888	8.01
322.1	8.54
322.312	9.17
322.524	8.24
322.736	7.67
322.948	8.57
323.16	8.63
323.372	8.88
323.584	8.81
323.796	8.82
324.007	10.3
324.219	10.45
324.431	10.97
324.643	11.12
324.855	10.47
325.067	11.1
325.279	10.64
325.491	9.86
325.702	9.22
325.914	9.73
326.126	9.05
326.338	8.12
326.55	8.14
326.761	7.37
326.973	6.5
327.185	7.29
327.396	6.56
327.608	5.01
327.82	6.75
328.032	5.97
328.243	5.3
328.455	6.76
328.666	7.03
328.878	6.98
329.09	6.74
329.301	7.4
329.513	7.2
329.725	7.03
329.936	9.09
330.148	7.41
330.359	9
330.571	8.7
330.782	8.67
330.994	8.69
331.205	9.36
331.417	9.77
331.628	10.74
331.84	10.41
332.051	11.17
332.262	10.12
332.474	10.85
332.685	9.52
332.897	9.9
333.108	9.4
333.319	9.66
333.531	8.52
333.742	8.6
333.953	7.95
334.165	8.44
334.376	7.61
334.587	8.93
334.799	8.98
335.01	9.55
335.221	10.58
335.432	11.11
335.644	11.46
335.855	12.73
336.066	13.09
336.277	12.68
336.488	11.78
336.7	12.19
336.911	11.55
337.122	11.8
337.333	12.39
337.544	11.85
337.755	12.1
337.966	12.21
338.177	11.49
338.388	11.46
338.599	11.28
338.811	12.49
339.022	12.51
339.233	11.25
339.444	10.77
339.655	10.85
339.866	10.75
340.076	10.35
340.287	9.7
340.498	9.55
340.709	10.09
340.92	10.21
341.131	9.93
341.342	10.02
341.553	10.92
341.764	10.59
341.975	10.01
342.185	9.63
342.396	9.93
342.607	10.37
342.818	10.29
343.029	9.74
343.239	10.31
343.45	9.66
343.661	9.48
343.872	9.35
344.082	10.04
344.293	9.87
344.504	9.99
344.714	9.57
344.925	9.5
345.136	10.33
345.346	10.03
345.557	9.27
345.768	9.66
345.978	9
346.189	9.23
346.399	8.26
346.61	8.86
346.821	9.26
347.031	8.23
347.242	7.96
347.452	7.25
347.663	7.15
347.873	7.33
348.084	7.98
348.294	8.3
348.504	8.02
348.715	8.44
348.925	8.18
349.136	8.33
349.346	9.94
349.557	9.75
349.767	10.12
349.977	9.65
350.188	10.51
350.398	10.01
350.608	10.01
350.819	10.23
351.029	10.18
351.239	9.73
351.449	9.33
351.66	9.11
351.87	9.95
352.08	10
352.29	10.35
352.501	9.51
352.711	9.14
352.921	9.35
353.131	9.62
353.341	9.48
353.552	9.05
353.762	9.57
353.972	9.32
354.182	9.83
354.392	10.01
354.602	10.3
354.812	10.56
355.022	10.85
355.232	10.99
355.442	10.38
355.652	11.12
355.862	11.98
356.072	11.49
356.282	11.31
356.492	10.57
356.702	9.75
356.912	9.57
357.122	9.34
357.332	9.39
357.542	8.77
357.752	9
357.962	8.5
358.171	8.28
358.381	8.26
358.591	7.88
358.801	7.55
359.011	8.01
359.221	7.98
359.43	8.29
359.64	8.19
359.85	8.76
360.06	9.07
360.269	9.49
360.479	9.61
360.689	9.08
360.899	9.44
361.108	9.18
361.318	8.9
361.528	8.88
361.737	8.63
361.947	8.81
362.156	8.97
362.366	9.21
362.576	8.72
362.785	8.42
362.995	9.04
363.204	8.88
363.414	8.86
363.623	9.19
363.833	9.01
364.042	9.37
364.252	9.33
364.461	9.15
364.671	8.47
364.88	8.64
365.09	8.4
365.299	8.14
365.509	7.76
365.718	8.15
365.927	8.33
366.137	7.94
366.346	7.76
366.555	7.71
366.765	7.96
366.974	8.14
367.183	8.03
367.393	8.82
367.602	8.88
367.811	9.31
368.021	9.02
368.23	8.42
368.439	8.93
368.648	8.47
368.857	8.66
369.067	8.24
369.276	8.28
369.485	8.13
369.694	7.72
369.903	7.11
370.112	7.57
370.321	7.68
370.531	6.94
370.74	6.85
370.949	6.88
371.158	6.73
371.367	6.85
371.576	6.63
371.785	6.83
371.994	6.77
372.203	7.1
372.412	6.6
372.621	6.38
372.83	6.85
373.039	6.84
373.248	6.94
373.457	6.86
373.666	6.7
373.874	6.33
374.083	6.49
374.292	6.14
374.501	6.55
374.71	6.37
374.919	6.27
375.128	6.55
375.336	7.07
375.545	7.17
375.754	7.1
375.963	6.87
376.171	7.27
376.38	7.16
376.589	7.32
376.798	6.73
377.006	7.05
377.215	7.32
377.424	7.22
377.632	6.89
377.841	6.82
378.05	7.04
378.258	7.32
378.467	7.02
378.675	6.92
378.884	6.61
379.093	6.68
379.301	6.72
379.51	7.2
379.718	7.12
379.927	7.28
380.135	7.26
380.344	7.37
380.552	7.02
380.761	7.52
380.969	7.68
381.177	7.96
381.386	8.14
381.594	8.14
381.803	7.52
382.011	7.58
382.219	7.56
382.428	7.48
382.636	6.87
382.845	7.28
383.053	7.11
383.261	7.17
383.469	7.36
383.678	7.35
383.886	6.97
384.094	6.75
384.302	6.52
384.511	6.28
384.719	6.21
384.927	6.68
385.135	6.45
385.343	6.17
385.552	6.17
385.76	6.14
385.968	6.04
386.176	6.02
386.384	6.55
386.592	6.58
386.8	6.52
387.008	6.8
387.216	6.83
387.424	6.94
387.633	7.07
387.841	6.83
388.049	7
388.257	6.75
388.465	6.96
388.672	6.72
388.88	6.57
389.088	6.57
389.296	6.32
389.504	6.12
389.712	5.93
389.92	5.81
390.128	5.94
390.336	5.53
390.544	5.67
390.751	5.73
390.959	5.85
391.167	6.2
391.375	5.99
391.583	5.77
391.79	5.62
391.998	5.88
392.206	6.07
392.414	5.67
392.621	5.73
392.829	5.69
393.037	5.72
393.244	5.67
393.452	5.35
393.66	5.79
393.867	6.19
394.075	6.67
394.283	6.32
394.49	6.33
394.698	6.51
394.905	6.67
395.113	6.72
395.32	6.56
395.528	6.43
395.735	6.4
395.943	6.11
396.15	6.11
396.358	5.71
396.565	5.79
396.773	5.68
396.98	5.74
397.188	5.62
397.395	5.56
397.602	5.61
397.81	5.55
398.017	5.61
398.225	5.52
398.432	5.41
398.639	5.43
398.847	5.38
399.054	5.57
399.261	5.66
399.468	5.87
399.676	6.17
399.883	6.06
400.09	6.32
400.297	6.48
400.505	6.58
400.712	6.38
400.919	6.17
401.126	6.43
401.333	6.1
401.54	6.23
401.748	5.9
401.955	5.67
402.162	5.75
402.369	5.68
402.576	5.31
402.783	5.41
402.99	5.26
403.197	5.43
403.404	5.17
403.611	5.4
403.818	5.1
404.025	5.14
404.232	5.06
404.439	5.01
404.646	4.89
404.853	5.33
405.06	5.06
405.267	5.5
405.474	5.42
405.681	5.57
405.887	5.38
406.094	5.47
406.301	5.71
406.508	5.65
406.715	5.6
406.922	5.46
407.128	5.38
407.335	5.52
407.542	5.38
407.749	5.36
407.955	5.09
408.162	5.19
408.369	5.25
408.575	5.15
408.782	5.23
408.989	5.4
409.195	5.44
409.402	5.37
409.609	5.45
409.815	4.96
410.022	5.05
410.228	5.32
410.435	5.18
410.642	5.05
410.848	5.09
411.055	5.22
411.261	4.86
411.468	4.88
411.674	4.71
411.881	4.77
412.087	5.27
412.294	5.46
412.5	5.12
412.706	5.37
412.913	5.3
413.119	5.4
413.326	5.42
413.532	5.58
413.738	5.78
413.945	6.08
414.151	6.03
414.357	5.66
414.564	5.71
414.77	6.23
414.976	6.11
415.182	6.02
415.389	5.92
415.595	5.94
415.801	5.94
416.007	5.87
416.214	5.76
416.42	5.72
416.626	5.9
416.832	5.6
417.038	5.4
417.244	5.43
417.45	5.57
417.657	5.47
417.863	5.38
418.069	5.56
418.275	5.54
418.481	5.61
418.687	5.49
418.893	5.41
419.099	5.34
419.305	5.32
419.511	5.28
419.717	5.22
419.923	5.29
420.129	5.38
420.335	5.27
420.541	5.14
420.746	5.04
420.952	5.04
421.158	5.05
421.364	5.27
421.57	5.31
421.776	5.34
421.982	5.35
422.187	5.25
422.393	5.15
422.599	5.03
422.805	5.22
423.01	5.3
423.216	5.52
423.422	5.47
423.628	5.35
423.833	5.31
424.039	5.34
424.245	5.29
424.45	5.38
424.656	5.39
424.862	5.45
425.067	5.38
425.273	5.21
425.478	5.14
425.684	5.43
425.889	5.39
426.095	5.35
426.301	5.45
426.506	5.59
426.712	5.41
426.917	5.41
427.123	5.53
427.328	5.48
427.533	5.75
427.739	5.75
427.944	5.54
428.15	5.48
428.355	5.7
428.561	5.49
428.766	5.39
428.971	5.57
429.177	5.69
429.382	5.72
429.587	5.73
429.793	5.66
429.998	5.7
430.203	5.71
430.408	5.86
430.614	5.6
430.819	5.67
431.024	5.81
431.229	5.75
431.434	5.83
431.64	5.63
431.845	5.63
432.05	5.63
432.255	5.42
432.46	5.36
432.665	5.16
432.87	5.25
433.076	5.27
433.281	5.19
433.486	5.07
433.691	5.03
433.896	5.16
434.101	5.08
434.306	4.95
434.511	5.04
434.716	4.9
434.921	4.96
435.126	4.99
435.331	4.98
435.535	5.06
435.74	5.11
435.945	5.02
436.15	4.85
436.355	5.04
436.56	5.09
436.765	5.19
436.97	5.22
437.174	5.36
437.379	5.34
437.584	5.36
437.789	5.36
437.993	5.43
438.198	5.45
438.403	5.56
438.608	5.51
438.812	5.38
439.017	5.23
439.222	5.4
439.426	5.35
439.631	5.51
439.836	5.46
440.04	5.38
440.245	5.44
440.45	5.38
440.654	5.34
440.859	5.24
441.063	5.3
441.268	5.3
441.472	5.15
441.677	5.22
441.881	5.12
442.086	5.1
442.29	5.01
442.495	4.96
442.699	5.03
442.904	4.98
443.108	4.89
443.312	4.98
443.517	5.22
443.721	5.39
443.925	5.3
444.13	5.02
444.334	5.14
444.538	5.12
444.743	5.16
444.947	5.19
445.151	5.27
445.356	5.27
445.56	5.32
445.764	5.04
445.968	5
446.173	5.03
446.377	5.2
446.581	5.17
446.785	5.21
446.989	5.1
447.193	5.14
447.398	5.12
447.602	5.23
447.806	5.03
448.01	5.13
448.214	5.09
448.418	4.95
448.622	4.88
448.826	4.89
449.03	4.85
449.234	4.98
449.438	4.69
449.642	4.67
449.846	4.77
450.05	4.96
450.254	4.97
450.458	4.75
450.662	5.06
450.866	5.08
451.069	5
451.273	5.06
451.477	5.02
451.681	5.1
451.885	5.06
452.089	4.81
452.292	4.91
452.496	4.93
452.7	5.13
452.904	4.86
453.107	4.9
453.311	4.96
453.515	4.92
453.719	4.82
453.922	4.9
454.126	4.82
454.33	4.95
454.533	4.78
454.737	4.76
454.94	4.7
455.144	4.93
455.348	4.86
455.551	4.91
455.755	4.94
455.958	5.02
456.162	5.18
456.365	5.5
456.569	5.4
456.772	5.37
456.976	5.27
457.179	5.38
457.383	5.13
457.586	5.09
457.79	4.92
457.993	4.92
458.196	5.04
458.4	4.97
458.603	4.87
458.807	4.92
459.01	4.96
459.213	5.09
459.417	5.01
459.62	5.18
459.823	5.22
460.026	5.29
460.23	5.36
460.433	5.29
460.636	5.18
460.839	5.18
461.042	5.3
461.246	5.22
461.449	5.16
461.652	5.13
461.855	5.07
462.058	5.16
462.261	5.05
462.464	5.06
462.668	4.94
462.871	5.03
463.074	4.88
463.277	4.86
463.48	4.98
463.683	4.91
463.886	4.99
464.089	4.94
464.292	4.74
464.495	4.72
464.698	4.73
464.901	4.94
465.104	5.06
465.306	5.27
465.509	5.15
465.712	5.13
465.915	5.29
466.118	5.29
466.321	5.43
466.524	5.5
466.726	5.59
466.929	5.48
467.132	5.44
467.335	5.43
467.538	5.51
467.74	5.46
467.943	5.48
468.146	5.37
468.348	5.33
468.551	5.15
468.754	5.14
468.956	5.09
469.159	5.13
469.362	5.15
469.564	4.98
469.767	4.89
469.969	4.96
470.172	4.9
470.375	4.86
470.577	5
470.78	5.06
470.982	5.09
471.185	5.08
471.387	5.17
471.59	5.05
471.792	5.16
471.995	5.09
472.197	5.19
472.399	5.33
472.602	5.32
472.804	5
473.007	5.03
473.209	5.12
473.411	5.18
473.614	5.08
473.816	5.04
474.018	4.86
474.22	4.9
474.423	4.76
474.625	4.65
474.827	4.82
475.03	5.05
475.232	5.12
475.434	4.93
475.636	4.97
475.838	5.09
476.04	5.09
476.243	5.15
476.445	5.02
476.647	5.01
476.849	4.99
477.051	4.87
477.253	4.89
477.455	4.84
477.657	4.76
477.859	4.7
478.061	4.59
478.263	4.69
478.465	4.7
478.667	4.72
478.869	4.77
479.071	4.79
479.273	4.78
479.475	4.72
479.677	4.69
479.879	4.85
480.081	4.94
480.283	4.91
480.485	4.9
480.686	5
480.888	5.04
481.09	4.99
481.292	5.07
481.494	5.11
481.695	5.04
481.897	4.99
482.099	4.98
482.301	4.88
482.502	4.95
482.704	4.95
482.906	4.94
483.107	4.91
483.309	4.94
483.511	4.91
483.712	4.85
483.914	4.88
484.115	4.85
484.317	4.87
484.519	4.89
484.72	4.84
484.922	4.81
485.123	4.81
485.325	4.85
485.526	4.84
485.728	4.83
485.929	4.92
486.131	4.93
486.332	5.03
486.534	4.98
486.735	5
486.936	5.02
487.138	4.97
487.339	4.99
487.541	5
487.742	5.02
487.943	5.08
488.144	5.02
488.346	5.07
488.547	5.07
488.748	5.12
488.95	5.05
489.151	5.1
489.352	5.11
489.553	5.09
489.755	5.02
489.956	5
490.157	4.95
490.358	5.01
490.559	4.96
490.76	4.9
490.961	4.83
491.163	4.92
491.364	4.94
491.565	5.01
491.766	4.95
491.967	4.97
492.168	4.94
492.369	4.9
492.57	4.84
492.771	4.76
492.972	4.82
493.173	4.89
493.374	4.83
493.575	4.76
493.776	4.73
493.976	4.75
494.177	4.83
494.378	4.92
494.579	5.09
494.78	5.16
494.981	5.37
495.182	5.34
495.382	5.33
495.583	5.41
495.784	5.47
495.985	5.54
496.185	5.62
496.386	5.43
496.587	5.35
496.788	5.28
496.988	5.25
497.189	5.22
497.39	5.14
497.59	5.16
497.791	5.1
497.992	5.11
498.192	5.14
498.393	5.18
498.593	5.37
498.794	5.4
498.994	5.4
499.195	5.26
499.395	5.36
499.596	5.44
499.796	5.48
499.997	5.59
500.197	5.57
500.398	5.44
500.598	5.43
500.799	5.39
500.999	5.45
501.199	5.47
501.4	5.76
501.6	5.74
501.801	5.89
502.001	5.93
502.201	5.89
502.402	5.82
502.602	5.9
502.802	6
503.002	6.01
503.203	6.08
503.403	6.09
503.603	6
503.803	5.87
504.003	5.84
504.204	5.69
504.404	5.81
504.604	5.86
504.804	5.84
505.004	5.75
505.204	5.83
505.404	5.73
505.604	5.72
505.804	5.68
506.005	5.7
506.205	5.63
506.405	5.67
506.605	5.62
506.805	5.81
507.005	5.74
507.204	5.8
507.404	5.79
507.604	5.91
507.804	5.97
508.004	6.03
508.204	6.14
508.404	6.08
508.604	6.04
508.804	6.02
509.003	5.88
509.203	6.05
509.403	6.08
509.603	6.15
509.803	6.05
510.002	6.09
510.202	6.15
510.402	6.09
510.602	6.06
510.801	6.04
511.001	6
511.201	6.05
511.4	6.01
511.6	5.84
511.8	5.84
511.999	5.91
512.199	5.91
512.398	5.84
512.598	5.94
512.797	6.08
512.997	6.15
513.197	6.16
513.396	6.19
513.596	6.19
513.795	6.36
513.994	6.24
514.194	6.21
514.393	6.07
514.593	6.23
514.792	6.23
514.992	6.26
515.191	6.28
515.39	6.44
515.59	6.63
515.789	6.75
515.988	6.84
516.188	6.98
516.387	7.07
516.586	7.1
516.786	7.04
516.985	7
517.184	7.12
517.383	7.24
517.582	7.18
517.782	7.14
517.981	7.16
518.18	6.99
518.379	7.02
518.578	6.92
518.777	6.96
518.976	7.01
519.176	7.04
519.375	7
519.574	6.95
519.773	7.05
519.972	6.88
520.171	6.88
520.37	6.98
520.569	7.04
520.768	7.17
520.967	7.3
521.166	7.29
521.365	7.27
521.564	7.4
521.762	7.42
521.961	7.33
522.16	7.52
522.359	7.52
522.558	7.53
522.757	7.4
522.956	7.45
523.154	7.49
523.353	7.51
523.552	7.61
523.751	7.52
523.949	7.59
524.148	7.65
524.347	7.67
524.546	7.69
524.744	7.79
524.943	7.96
525.142	7.97
525.34	7.89
525.539	7.91
525.737	7.91
525.936	7.95
526.135	8.01
526.333	8.06
526.532	8.1
526.73	8.13
526.929	8.18
527.127	8.1
527.326	8.12
527.524	8.13
527.723	8.17
527.921	8.17
528.12	8.18
528.318	8.13
528.516	8.11
528.715	8.1
528.913	8.13
529.112	8.14
529.31	8.14
529.508	8.13
529.707	8.19
529.905	8.23
530.103	8.28
530.301	8.34
530.5	8.44
530.698	8.52
530.896	8.6
531.094	8.58
531.293	8.65
531.491	8.74
531.689	8.79
531.887	8.91
532.085	8.92
532.283	8.93
532.481	8.88
532.68	8.93
532.878	8.99
533.076	8.99
533.274	9.09
533.472	9.08
533.67	9.06
533.868	9.06
534.066	9.05
534.264	9.08
534.462	9.11
534.66	9.15
534.858	9.1
535.056	9.09
535.253	9.1
535.451	9.21
535.649	9.22
535.847	9.42
536.045	9.61
536.243	9.66
536.441	9.76
536.638	9.89
536.836	9.94
537.034	9.92
537.232	10.01
537.43	10.11
537.627	10.08
537.825	10.16
538.023	10.06
538.22	9.95
538.418	9.88
538.616	9.93
538.813	9.92
539.011	10.05
539.209	10.29
539.406	10.29
539.604	10.47
539.801	10.53
539.999	10.78
540.196	10.82
540.394	10.92
540.591	11.05
540.789	11.06
540.986	11.04
541.184	11.05
541.381	10.99
541.579	11.03
541.776	10.89
541.974	10.89
542.171	10.82
542.368	10.89
542.566	10.93
542.763	10.94
542.96	10.96
543.158	10.95
543.355	11.04
543.552	11.25
543.75	11.33
543.947	11.53
544.144	11.66
544.341	11.79
544.539	11.91
544.736	11.89
544.933	11.98
545.13	11.98
545.327	12.15
545.524	12.22
545.722	12.09
545.919	12.15
546.116	12.18
546.313	12.32
546.51	12.32
546.707	12.42
546.904	12.56
547.101	12.77
547.298	12.9
547.495	13.02
547.692	12.95
547.889	13.12
548.086	13.19
548.283	13.25
548.48	13.21
548.677	13.28
548.874	13.4
549.07	13.53
549.267	13.5
549.464	13.54
549.661	13.61
549.858	13.82
550.055	13.7
550.251	13.7
550.448	13.63
550.645	13.69
550.842	13.73
551.038	13.55
551.235	13.61
551.432	13.54
551.628	13.68
551.825	13.73
552.022	13.72
552.218	13.91
552.415	14.2
552.612	14.29
552.808	14.46
553.005	14.5
553.201	14.64
553.398	14.62
553.594	14.7
553.791	14.84
553.987	14.92
554.184	15.05
554.38	15.3
554.577	15.32
554.773	15.42
554.97	15.47
555.166	15.57
555.362	15.76
555.559	15.74
555.755	15.89
555.952	15.91
556.148	16.02
556.344	16.2
556.541	16.12
556.737	16.01
556.933	16.22
557.129	16.21
557.326	16.42
557.522	16.51
557.718	16.72
557.914	16.82
558.11	17.07
558.307	17.09
558.503	17.19
558.699	17.53
558.895	17.76
559.091	17.95
559.287	18.08
559.483	18.09
559.679	18.02
559.876	18.39
560.072	18.49
560.268	18.33
560.464	18.66
560.66	18.75
560.856	18.73
561.052	18.72
561.247	18.78
561.443	18.88
561.639	19.07
561.835	19.33
562.031	19.22
562.227	19.41
562.423	19.63
562.619	19.67
562.815	19.89
563.01	19.83
563.206	20.07
563.402	20.12
563.598	20.21
563.793	20.15
563.989	20.25
564.185	20.28
564.381	20.37
564.576	20.58
564.772	20.69
564.968	20.91
565.163	21.05
565.359	21.19
565.555	21.16
565.75	21.3
565.946	21.54
566.141	21.57
566.337	21.7
566.532	21.58
566.728	21.55
566.923	21.47
567.119	21.32
567.314	21.44
567.51	21.48
567.705	21.74
567.901	21.78
568.096	21.84
568.292	21.93
568.487	21.96
568.682	22.2
568.878	22.32
569.073	22.36
569.268	22.28
569.464	22.24
569.659	22.55
569.854	22.67
570.05	22.84
570.245	22.91
570.44	22.98
570.635	23.12
570.831	23.21
571.026	23.41
571.221	23.67
571.416	24.02
571.611	24.23
571.806	24.26
572.002	24.07
572.197	24.16
572.392	24.19
572.587	24.22
572.782	24.39
572.977	24.48
573.172	24.49
573.367	24.54
573.562	24.48
573.757	24.52
573.952	24.48
574.147	24.82
574.342	24.98
574.537	25.19
574.732	25.39
574.927	25.5
575.121	25.58
575.316	25.7
575.511	25.86
575.706	25.98
575.901	25.97
576.096	26.08
576.29	26.16
576.485	25.93
576.68	25.79
576.875	25.69
577.069	25.65
577.264	25.74
577.459	25.62
577.654	25.52
577.848	25.58
578.043	25.89
578.238	25.74
578.432	25.62
578.627	25.76
578.821	26.02
579.016	26.24
579.21	26.3
579.405	26.28
579.6	26.59
579.794	26.71
579.989	26.76
580.183	26.83
580.378	27.03
580.572	27.2
580.766	27.37
580.961	27.23
581.155	27.46
581.35	27.72
581.544	27.83
581.738	27.84
581.933	28.01
582.127	28.08
582.321	28.01
582.516	28.16
582.71	27.92
582.904	28.13
583.099	28.3
583.293	28.34
583.487	28.23
583.681	28.15
583.875	28.2
584.07	28.25
584.264	28.31
584.458	28.39
584.652	28.61
584.846	29
585.04	28.87
585.234	29.03
585.428	28.96
585.623	29.02
585.817	29.21
586.011	29.26
586.205	29.37
586.399	29.41
586.593	29.61
586.787	29.53
586.981	29.48
587.174	29.64
587.368	29.66
587.562	29.73
587.756	29.7
587.95	29.78
588.144	29.79
588.338	29.63
588.532	29.6
588.725	29.61
588.919	29.6
589.113	29.81
589.307	29.68
589.501	29.73
589.694	29.79
589.888	29.93
590.082	30.11
590.275	30.17
590.469	30.3
590.663	30.56
590.856	30.36
591.05	30.38
591.244	30.34
591.437	30.73
591.631	30.81
591.824	30.89
592.018	31.02
592.212	30.93
592.405	30.79
592.599	30.81
592.792	30.8
592.986	30.97
593.179	31.02
593.372	30.94
593.566	30.73
593.759	30.91
593.953	30.89
594.146	30.97
594.339	31.06
594.533	31.39
594.726	31.44
594.92	31.45
595.113	31.57
595.306	31.66
595.499	31.74
595.693	31.72
595.886	31.4
596.079	31.48
596.272	31.56
596.466	31.55
596.659	31.55
596.852	31.57
597.045	31.55
597.238	31.46
597.431	31.46
597.624	31.55
597.818	31.69
598.011	31.98
598.204	31.9
598.397	31.99
598.59	32.04
598.783	31.99
598.976	32.15
599.169	32.28
599.362	32.48
599.555	32.66
599.748	32.65
599.941	32.84
600.134	32.93
600.326	33.01
600.519	32.88
600.712	32.94
600.905	33.01
601.098	33.02
601.291	33
601.483	32.69
601.676	32.48
601.869	32.53
602.062	32.36
602.255	32.32
602.447	32.48
602.64	32.58
602.833	32.64
603.025	32.67
603.218	32.71
603.411	32.79
603.603	33
603.796	33.03
603.989	33.15
604.181	33.19
604.374	33.24
604.566	33.24
604.759	33
604.951	32.78
605.144	32.77
605.336	32.75
605.529	32.82
605.721	32.87
605.914	33.11
606.106	33.08
606.299	33.19
606.491	33.01
606.683	33.02
606.876	33.29
607.068	33.49
607.26	33.54
607.453	33.57
607.645	33.56
607.837	33.58
608.03	33.44
608.222	33.58
608.414	33.8
608.606	34.11
608.799	34
608.991	33.9
609.183	34.03
609.375	34.04
609.567	33.94
609.759	33.93
609.952	34.02
610.144	33.86
610.336	33.71
610.528	33.52
610.72	33.28
610.912	33.4
611.104	33.47
611.296	33.45
611.488	33.42
611.68	33.38
611.872	33.32
612.064	33.26
612.256	33.35
612.448	33.37
612.64	33.38
612.832	33.69
613.023	33.89
613.215	33.63
613.407	33.57
613.599	33.69
613.791	33.83
613.983	33.76
614.174	33.72
614.366	34.03
614.558	34
614.75	34
614.941	33.89
615.133	33.51
615.325	34.12
615.516	34.2
615.708	34.19
615.9	34.15
616.091	34.24
616.283	34.29
616.475	34.26
616.666	34.26
616.858	34.28
617.049	34.23
617.241	34.62
617.432	34.47
617.624	34.73
617.815	34.7
618.007	34.92
618.198	34.84
618.39	34.89
618.581	35.02
618.773	35.38
618.964	35.37
619.155	35.41
619.347	35.44
619.538	35.41
619.729	35.06
619.921	35.23
620.112	35.08
620.303	35.21
620.494	35.39
620.686	35.16
620.877	34.93
621.068	34.97
621.259	35.18
621.451	35.19
621.642	35.31
621.833	35.71
622.024	35.84
622.215	35.84
622.406	35.71
622.597	35.65
622.788	35.87
622.98	35.84
623.171	35.98
623.362	35.9
623.553	35.86
623.744	35.73
623.935	35.32
624.126	35.33
624.317	35.5
624.508	35.86
624.698	35.87
624.889	35.69
625.08	35.75
625.271	35.78
625.462	35.85
625.653	35.79
625.844	35.69
626.034	35.83
626.225	35.89
626.416	36.07
626.607	35.97
626.798	36.23
626.988	36.43
627.179	36.52
627.37	36.54
627.56	36.5
627.751	36.62
627.942	36.73
628.132	36.82
628.323	36.83
628.514	36.81
628.704	36.88
628.895	36.68
629.085	36.52
629.276	36.33
629.466	36.28
629.657	36.27
629.847	35.97
630.038	36.07
630.228	36.12
630.419	36.16
630.609	35.94
630.8	35.95
630.99	36.1
631.181	36.07
631.371	36.17
631.561	36.38
631.752	36.5
631.942	36.73
632.132	36.89
632.323	37.04
632.513	36.95
632.703	37.05
632.893	37.12
633.084	37.1
633.274	37.03
633.464	37.17
633.654	36.95
633.844	37.04
634.034	37.05
634.225	36.85
634.415	36.81
634.605	37
634.795	36.96
634.985	36.91
635.175	36.71
635.365	37.1
635.555	37.05
635.745	37.26
635.935	37.23
636.125	37.17
636.315	37.31
636.505	37.35
636.695	37.26
636.885	37.35
637.075	37.06
637.265	37.4
637.455	37.39
637.644	37.51
637.834	37.52
638.024	37.33
638.214	37.4
638.404	37.18
638.593	37.05
638.783	37.1
638.973	37.06
639.163	37.41
639.352	36.99
639.542	36.84
639.732	36.6
639.921	36.78
640.111	37.07
640.301	37.03
640.49	37.45
640.68	37.89
640.87	37.71
641.059	37.53
641.249	37.66
641.438	37.8
641.628	37.47
641.817	37.76
642.007	37.47
642.196	37.36
642.386	37.58
642.575	37.2
642.764	36.96
642.954	37
643.143	37.32
643.333	36.93
643.522	36.95
643.711	37.3
643.901	37.52
644.09	37.95
644.279	37.86
644.469	37.7
644.658	37.82
644.847	37.96
645.036	37.97
645.226	37.87
645.415	38.16
645.604	38.11
645.793	37.83
645.982	37.97
646.171	37.68
646.361	37.81
646.55	38.09
646.739	38.41
646.928	38.34
647.117	38.37
647.306	38.63
647.495	38.51
647.684	38.71
647.873	38.74
648.062	38.47
648.251	38.42
648.44	38.38
648.629	37.99
648.818	37.45
649.007	37.59
649.196	37.51
649.384	37.43
649.573	37.92
649.762	37.9
649.951	38.53
650.14	38.39
650.328	38.49
650.517	38.39
650.706	38.87
650.895	39.13
651.083	38.89
651.272	39.07
651.461	39.27
651.65	39.57
651.838	39.76
652.027	39.67
652.216	39.66
652.404	39.58
652.593	39.85
652.781	39.7
652.97	39.59
653.158	39.86
653.347	39.82
653.535	39.82
653.724	39.22
653.912	39.25
654.101	39.06
654.289	39.39
654.478	39.5
654.666	39.6
654.855	39.87
655.043	40.25
655.231	39.9
655.42	39.91
655.608	39.5
655.796	39.68
655.985	39.48
656.173	39.59
656.361	39.59
656.55	39.67
656.738	39.78
656.926	39.5
657.114	39.27
657.302	39.31
657.491	39.4
657.679	39.76
657.867	39.89
658.055	40.18
658.243	39.58
658.431	39.63
658.619	39.69
658.807	39.51
658.996	39.7
659.184	39.84
659.372	40.04
659.56	39.96
659.748	39.88
659.936	39.92
660.124	39.97
660.311	40.19
660.499	40.14
660.687	39.95
660.875	40.02
661.063	39.93
661.251	39.79
661.439	39.87
661.627	39.69
661.814	39.69
662.002	39.36
662.19	38.88
662.378	39.19
662.565	39.29
662.753	39.19
662.941	39.33
663.129	39.3
663.316	39.57
663.504	39.12
663.692	39.42
663.879	39.79
664.067	40.16
664.254	40.9
664.442	40.95
664.63	40.87
664.817	40.99
665.005	40.64
665.192	40.46
665.38	40.36
665.567	40.72
665.755	41.02
665.942	40.56
666.13	40.22
666.317	39.77
666.504	40.01
666.692	40
666.879	39.92
667.067	40.04
667.254	39.94
667.441	40.21
667.629	40
667.816	39.67
668.003	39.76
668.19	39.6
668.378	39.74
668.565	39.87
668.752	40.04
668.939	40.39
669.127	40.59
669.314	40.82
669.501	40.8
669.688	41.37
669.875	41.43
670.062	41.76
670.249	41.98
670.436	42.31
670.623	42.14
670.81	42.25
670.997	41.8
671.184	41.71
671.371	41.8
671.558	41.78
671.745	41.22
671.932	41.26
672.119	41.1
672.306	41.24
672.493	40.47
672.68	40.35
672.867	39.99
673.054	40.3
673.24	40.45
673.427	40.37
673.614	40.24
673.801	40.63
673.988	40.5
674.174	40.58
674.361	40.43
674.548	40.66
674.734	40.74
674.921	40.86
675.108	41.09
675.294	41.33
675.481	41.42
675.668	41.57
675.854	41.4
676.041	41.44
676.227	41.47
676.414	41.93
676.601	42.12
676.787	41.94
676.974	41.73
677.16	42.11
677.347	41.56
677.533	41.87
677.719	41.81
677.906	41.82
678.092	41.54
678.279	41.47
678.465	41.22
678.651	41.38
678.838	41.63
679.024	41.89
679.21	41.66
679.397	41.85
679.583	41.67
679.769	41.63
679.955	41.49
680.142	41.83
680.328	41.82
680.514	41.76
680.7	41.68
680.886	41.77
681.073	41.45
681.259	41.54
681.445	41.4
681.631	41.63
681.817	41.6
682.003	41.63
682.189	41.55
682.375	41.5
682.561	41.82
682.747	41.94
682.933	41.49
683.119	41.7
683.305	41.21
683.491	41.39
683.677	41.05
683.863	41.33
684.049	41.64
684.235	41.91
684.42	41.82
684.606	41.31
684.792	41.29
684.978	41.8
685.164	42.16
685.349	42.4
685.535	42.31
685.721	42.41
685.907	41.64
686.092	41.51
686.278	41.26
686.464	41.7
686.649	42.32
686.835	42.14
687.021	41.76
687.206	41.81
687.392	41.5
687.577	41.6
687.763	41.68
687.948	42.54
688.134	42.71
688.319	42.73
688.505	42.68
688.69	42.48
688.876	42.58
689.061	43.07
689.247	43.01
689.432	43.26
689.618	42.96
689.803	42.66
689.988	42.32
690.174	41.74
690.359	41.86
690.544	41.66
690.73	41.11
690.915	40.95
691.1	40.62
691.285	40.44
691.471	40.22
691.656	40.26
691.841	40.19
692.026	40.48
692.211	41.13
692.396	41.2
692.582	41.31
692.767	41.85
692.952	42.17
693.137	41.84
693.322	41.46
693.507	41.92
693.692	42.2
693.877	42.57
694.062	42.05
694.247	42.04
694.432	41.7
694.617	41.72
694.802	41.91
694.987	41.53
695.172	42.03
695.357	42.65
695.541	42.42
695.726	42.7
695.911	42.44
696.096	42.89
696.281	42.62
696.466	42.54
696.65	42.26
696.835	42.11
697.02	42.01
697.204	42.09
697.389	41.99
697.574	41.87
697.759	41.53
697.943	41.83
698.128	41.58
698.312	41.68
698.497	41.71
698.682	41.86
698.866	42.06
699.051	42.25
699.235	41.78
699.42	41.98
699.604	42.21
699.789	42.52
699.973	42.37
700.158	42.55
700.342	42.76
700.527	43.25
700.711	43.21
700.895	42.9
701.08	43.24
701.264	43.78
701.448	43.09
701.633	42.78
701.817	42.86
702.001	42.65
702.186	42.62
702.37	41.87
702.554	41.48
702.738	41.75
702.923	42.19
703.107	41.64
703.291	42.07
703.475	42.69
703.659	43.19
703.843	42.53
704.027	42.57
704.212	42.83
704.396	43.78
704.58	43.98
704.764	43.39
704.948	42.96
705.132	42.48
705.316	42.3
705.5	42.64
705.684	42.96
705.868	43.04
706.052	42.98
706.235	42.82
706.419	42.83
706.603	42.55
706.787	42.97
706.971	42.86
707.155	44.25
707.339	43.76
707.522	43.1
707.706	42.8
707.89	43.49
708.074	43.62
708.257	43.22
708.441	43.09
708.625	43.61
708.808	43.6
708.992	43.62
709.176	42.6
709.359	42.96
709.543	42.69
709.727	42.41
709.91	42.47
710.094	42.97
710.277	43.66
710.461	43.25
710.644	43.21
710.828	43.31
711.011	43.22
711.195	43.61
711.378	43.57
711.562	43.92
711.745	44.43
711.928	43.9
712.112	43.94
712.295	43.91
712.478	44.62
712.662	44.6
712.845	44.76
713.028	45.1
713.212	44.85
713.395	44.84
713.578	44.96
713.761	44.64
713.945	44.75
714.128	44.41
714.311	44.6
714.494	44.41
714.677	43.95
714.86	43.28
715.043	43.35
715.227	43.47
715.41	42.99
715.593	42.85
715.776	42.99
715.959	43.26
716.142	43.42
716.325	43.34
716.508	43.14
716.691	43.61
716.874	44.1
717.057	44.31
717.239	44.48
717.422	45.32
717.605	45.91
717.788	45.73
717.971	45.59
718.154	45.62
718.337	44.88
718.519	44.58
718.702	44.16
718.885	44.58
719.068	44.13
719.25	44.49
719.433	43.99
719.616	43.45
719.798	43.68
719.981	43.84
720.164	43.19
720.346	43.88
720.529	43.64
720.712	43.61
720.894	42.71
721.077	43.14
721.259	42.62
721.442	42.27
721.624	42.7
721.807	43.15
721.989	43.5
722.172	43.82
722.354	43.64
722.537	43.51
722.719	44.06
722.901	43.8
723.084	43.34
723.266	43.6
723.448	43.95
723.631	44.06
723.813	43.74
723.995	43.11
724.178	43.38
724.36	43.02
724.542	43.49
724.724	43.89
724.907	44.73
725.089	43.99
725.271	44.38
725.453	44.37
725.635	45.13
725.817	45.87
725.999	45.77
726.181	46.14
726.364	46.45
726.546	46.74
726.728	45.96
726.91	45.96
727.092	46.5
727.274	45.8
727.456	46.25
727.638	45.26
727.819	43.93
728.001	44.06
728.183	43.79
728.365	43.63
728.547	42.69
728.729	42.73
728.911	42.67
729.093	43.18
729.274	43.83
729.456	43.21
729.638	43.32
729.82	43.47
730.001	43.42
730.183	43.27
730.365	43.91
730.546	44.74
730.728	45.07
730.91	44.94
731.091	44.64
731.273	44.65
731.455	45.26
731.636	45.38
731.818	45.4
731.999	45.37
732.181	45.44
732.362	44.73
732.544	44.56
732.725	44.3
732.907	44.35
733.088	44.89
733.27	44.15
733.451	43.95
733.633	44.5
733.814	44.33
733.995	44.05
734.177	43.98
734.358	44.49
734.539	44.81
734.721	44.57
734.902	44.84
735.083	44.51
735.264	45.36
735.446	45.31
735.627	44.7
735.808	45.18
735.989	45.59
736.17	45.77
736.351	45.78
736.533	45.78
736.714	45.95
736.895	46.14
737.076	46.06
737.257	45.86
737.438	45.77
737.619	45.01
737.8	45.03
737.981	45.55
738.162	45.36
738.343	45.26
738.524	44.91
738.705	44.99
738.886	44.96
739.067	44.76
739.247	44.6
739.428	44.56
739.609	44.89
739.79	44.64
739.971	45.15
740.151	44.92
740.332	44.97
740.513	45.44
740.694	45.15
740.874	45.19
741.055	45.16
741.236	45.08
741.417	44.67
741.597	45.08
741.778	45.54
741.958	44.23
742.139	44.79
742.32	44.01
742.5	43.08
742.681	42.82
742.861	42.26
743.042	42.6
743.222	42.51
743.403	42.59
743.583	42.52
743.764	42.4
743.944	43.11
744.124	42.92
744.305	44.11
744.485	45.09
744.666	46.1
744.846	46.23
745.026	46.16
745.207	45.63
745.387	46.81
745.567	46.49
745.747	46.45
745.928	46.26
746.108	46.74
746.288	46.52
746.468	45.9
746.648	45.63
746.829	46.39
747.009	46.01
747.189	46.49
747.369	46.28
747.549	47.39
747.729	46.91
747.909	46.26
748.089	46.31
748.269	45.55
748.449	46.11
748.629	45.81
748.809	45.73
748.989	46.85
749.169	47.37
749.349	46.68
749.529	45.99
749.709	45.87
749.889	46.66
750.068	46.45
750.248	47.34
750.428	47.67
750.608	47.38
750.788	47.76
750.967	47.32
751.147	47.43
751.327	48.18
751.507	48.09
751.686	48.1
751.866	47.92
752.046	47.66
752.225	46.96
752.405	46.13
752.585	46.14
752.764	45.29
752.944	44.84
753.123	43.88
753.303	43.56
753.482	43.8
753.662	44.1
753.841	44.19
754.021	43.87
754.2	44.34
754.38	45.3
754.559	46.43
754.739	46.51
754.918	45.9
755.097	46.19
755.277	46.52
755.456	46.57
755.635	46.87
755.815	47.53
755.994	48.73
756.173	48.64
756.352	49.08
756.532	47.95
756.711	47.06
756.89	48.34
757.069	48.73
757.248	48.15
757.427	47.44
757.607	46.53
757.786	45.6
757.965	45.03
758.144	44.8
758.323	43
758.502	43.4
758.681	43.55
758.86	42.7
759.039	42.08
759.218	42.14
759.397	41.86
759.576	42.57
759.755	42.54
759.934	42.28
760.113	42.17
760.291	42.2
760.47	42.29
760.649	43.06
760.828	42.82
761.007	42.56
761.186	42.3
761.364	42.88
761.543	42.17
761.722	41.72
761.901	41.75
762.079	41.97
762.258	42.52
762.437	42.33
762.615	42.74
762.794	43.01
762.972	43.55
763.151	44.63
763.33	44.54
763.508	44.83
763.687	45.05
763.865	45.24
764.044	45.31
764.222	45.28
764.401	45.53
764.579	44.91
764.758	44.4
764.936	44.69
765.114	44.01
765.293	43.82
765.471	43.51
765.65	43.17
765.828	42.51
766.006	41.56
766.184	42.01
766.363	42.18
766.541	42.27
766.719	42.85
766.898	42.62
767.076	42.48
767.254	42.72
767.432	42.93
767.61	44.71
767.788	44.62
767.967	45.88
768.145	45.14
768.323	44.29
768.501	44.56
768.679	45.48
768.857	45.85
769.035	45.98
769.213	45.88
769.391	46.15
769.569	45.44
769.747	46.92
769.925	47.41
770.103	47.7
770.281	48.34
770.459	47.68
770.636	46.26
770.814	45.63
770.992	45.75
771.17	45.68
771.348	46.36
771.525	45.63
771.703	44.85
771.881	43.92
772.059	43.56
772.236	43.12
772.414	42.85
772.592	43.62
772.769	43.88
772.947	44.51
773.125	43.73
773.302	43.4
773.48	44.24
773.657	43.84
773.835	43.89
774.013	43.87
774.19	44.35
774.368	46.08
774.545	45.08
774.723	43.94
774.9	42.59
775.077	44.1
775.255	43.9
775.432	43.32
775.61	44
775.787	43.94
775.964	43.78
776.142	44.52
776.319	43.92
776.496	43.55
776.674	44.34
776.851	46.21
777.028	46.83
777.205	47.81
777.382	47.12
777.56	46.58
777.737	47.81
777.914	47.97
778.091	47.29
778.268	47.72
778.445	49.14
778.622	48.78
778.8	47.72
778.977	45.13
779.154	50.67
779.331	51
779.508	52.2
779.685	50.86
779.862	50.65
780.038	49.76
780.215	49.05
780.392	49.73
780.569	49.56
780.746	47.9
780.923	50.66
781.1	44.08
781.277	45.19
781.453	43.75
781.63	43.26
781.807	44.76
781.984	43.91
782.16	44.19
782.337	43.44
782.514	44.76
782.691	48.16
782.867	47.51
783.044	47.71
783.221	45.86
783.397	46.24
783.574	46.52
783.75	45.44
783.927	48.32
784.103	48.65
784.28	49.58
784.456	48.12
784.633	47.09
784.809	44.34
784.986	45.66
785.162	47.58
785.339	47.63
785.515	47.55
785.692	48.16
785.868	48.19
786.044	47.08
786.221	46.88
786.397	47.54
786.573	47.7
786.749	49.36
786.926	46.32
787.102	46.67
787.278	46.9
787.454	47.18
787.631	48.17
787.807	46.58
787.983	47.53
788.159	48.94
788.335	48.92
788.511	48.58
788.687	49.29
788.863	49.06
789.039	46.96
789.216	47.07
789.392	47.45
789.568	48.68
789.744	49.14
789.919	49.56
790.095	47.38
790.271	48.06
790.447	45.44
790.623	44.61
790.799	44.35
790.975	45.35
791.151	45.06
791.327	45.59
791.502	44.27
791.678	44.79
791.854	45.72
792.03	44.79
792.205	44.47
792.381	45.81
792.557	46.35
792.733	48.73
792.908	47.15
793.084	47.76
793.259	46.65
793.435	46.46
793.611	47.06
793.786	46.15
793.962	48
794.137	46.36
794.313	47.29
794.488	46.52
794.664	47.62
794.839	49.41
795.015	48.61
795.19	48.35
795.366	46.76
795.541	46.17
795.716	44.56
795.892	43.64
796.067	44.65
796.242	43.59
796.418	44.26
796.593	42.67
796.768	41.36
796.944	41.62
797.119	42.37
797.294	43.51
797.469	43.85
797.644	44.04
797.82	44.16
797.995	45.61
798.17	45.01
798.345	44.07
798.52	43.82
798.695	44.85
798.87	44.12
799.045	44.19
799.22	43.7
799.395	41.89
799.57	41.17
799.745	42.93
799.92	42.58
800.095	43.64
800.27	44.41
800.445	42.82
800.62	41.62
800.795	42.85
800.97	42.99
801.145	43.16
801.319	45.16
801.494	46.36
801.669	44.92
801.844	43.67
802.018	44.56
802.193	43.36
802.368	44.56
802.543	44.79
802.717	44.94
802.892	45.47
803.067	45.52
803.241	43.78
803.416	42.96
803.59	43.12
803.765	44.34
803.94	43.02
804.114	44.76
804.289	46.77
804.463	48.33
804.638	48.78
804.812	47.82
804.986	47.28
805.161	48.09
805.335	49.15
805.51	50.69
805.684	50.27
805.858	49.46
806.033	49.13
806.207	46.7
806.381	44.67
806.556	42.43
806.73	41.89
806.904	42.95
807.078	41.59
807.253	40.04
807.427	37.77
807.601	36.6
807.775	38.68
807.949	39.51
808.123	41.52
808.298	44.71
808.472	44.82
808.646	45.12
808.82	46.27
808.994	47.61
809.168	48.77
809.342	50.52
809.516	48.74
809.69	46.79
809.864	46.46
810.038	45.06
810.212	42.56
810.385	41.81
810.559	41.87
810.733	40.25
810.907	39.65
811.081	38.4
811.255	37.04
811.428	38.27
811.602	38.48
811.776	37.06
811.95	37.43
812.123	37.96
812.297	41.35
812.471	40.58
812.644	39.88
812.818	39.96
812.992	40.38
813.165	39.85
813.339	39.97
813.512	42.88
813.686	44.53
813.86	46.01
814.033	48.59
814.207	46.22
814.38	45.68
814.554	43.37
814.727	42.93
814.9	46.59
815.074	47.57
815.247	47.12
815.421	46.2
815.594	47.86
815.767	47.43
815.941	44.88
816.114	45.62
816.287	47.83
816.46	49.07
816.634	50.72
816.807	46.32
816.98	45.47
817.153	49.01
817.327	50.12
817.5	48.12
817.673	47.14
817.846	45.6
818.019	44.66
818.192	43.46
818.365	43.66
818.538	43.78
818.711	45.86
818.884	47.05
819.057	47.59
819.23	45.14
819.403	44.01
819.576	45.32
819.749	47.51
819.922	48.19
820.095	48.46
820.268	50.55
820.441	50.38
820.614	49.62
820.786	48.55
820.959	46.05
821.132	45.68
821.305	45.4
821.477	44.7
821.65	44.76
821.823	45.33
821.996	44.87
822.168	44.52
822.341	44.55
822.514	44.2
822.686	44.42
822.859	44.65
823.031	45.16
823.204	45.64
823.376	45.37
823.549	44.91
823.722	44.54
823.894	45
824.067	44.31
824.239	44.39
824.411	44.6
824.584	44.55
824.756	44.33
824.929	43.81
825.101	43.79
825.273	44.31
825.446	44.79
825.618	43.81
825.79	43.23
825.963	44.25
826.135	42.98
826.307	43.33
826.479	43.62
826.652	44.06
826.824	44.52
826.996	44.69
827.168	44.62
827.34	44.64
827.512	45.45
827.684	45.77
827.856	45.2
828.029	46.49
828.201	46.42
828.373	46.38
828.545	45.49
828.717	45.93
828.889	45.25
829.061	44.86
829.232	44.52
829.404	44.83
829.576	44.86
829.748	44.25
829.92	44.11
830.092	44.12
830.264	43.68
830.436	44.15
830.607	42.41
830.779	41.82
830.951	42.78
831.123	42.33
831.294	42.68
831.466	41.39
831.638	43.95
831.809	43.67
831.981	43.33
832.153	42.66
832.324	43.53
832.496	45.53
832.667	47.12
832.839	46.33
833.011	45.97
833.182	46.81
833.354	47.46
833.525	44.64
833.697	45.64
833.868	46.47
834.039	45.62
834.211	45.39
834.382	45.85
834.554	45.66
834.725	45.97
834.896	47.17
835.068	47
835.239	45.86
835.41	47.58
835.581	46.52
835.753	45.07
835.924	46.15
836.095	46.68
836.266	44.97
836.438	44.82
836.609	43.97
836.78	42.54
836.951	41.23
837.122	43.66
837.293	42.96
837.464	44.54
837.635	46.4
837.806	46.87
837.977	47.49
838.148	47.75
838.319	48.16
838.49	49.2
838.661	51.25
838.832	52.93
839.003	51.58
839.174	54.2
839.345	52.3
839.516	50.64
839.687	49.26
839.857	48.12
840.028	48.32
840.199	46.63
840.37	48.57
840.54	49.04
840.711	51.67
840.882	51.2
841.053	47.94
841.223	43.8
841.394	43.65
841.564	46.32
841.735	44.55
841.906	44.79
842.076	43.36
842.247	43.77
842.417	42.86
842.588	41.25
842.758	47.57
842.929	51.68
843.099	55.76
843.27	55.1
843.44	52.95
843.611	54.9
843.781	55.77
843.951	58.8
844.122	55.12
844.292	58.62
844.462	59.53
844.633	53.78
844.803	45.03
844.973	46.29
845.144	47.76
845.314	49.05
845.484	50.29
845.654	49.43
845.824	48.06
845.995	51.24
846.165	46.49
846.335	43.54
846.505	44.84
846.675	49.34
846.845	48
847.015	49.03
847.185	48.55
847.355	47.58
847.525	44.58
847.695	44.18
847.865	49.66
848.035	53.35
848.205	52.46
848.375	49.96
848.545	51.97
848.715	54.4
848.884	52.41
849.054	52.07
849.224	49.13
849.394	54.69
849.564	51.9
849.733	41.8
849.903	46.25
850.073	48.41
850.243	50.69
850.412	47.81
850.582	41.85
850.752	44.48
850.921	43.46
851.091	50.48
851.26	52.03
851.43	55.36
851.599	58.38
851.769	55.1
851.939	48.9
852.108	47.43
852.278	45.68
852.447	46.7
852.616	49.81
852.786	49.2
852.955	42.5
853.125	35.98
853.294	33.73
853.463	28.7
853.633	21.73
853.802	24.35
853.971	23.91
854.141	21.51
854.31	20.45
854.479	5.54
854.648	12.83
854.818	16.58
854.987	21.58
855.156	23.47
855.325	25.99
855.494	25.61
855.663	27.1
855.832	27.22
856.001	30.87
856.171	30.73
856.34	33.44
856.509	23.59
856.678	23.77
856.847	22.2
857.016	17.39
857.185	20.2
857.353	20.76
857.522	21.11
857.691	23.78
857.86	29.8
858.029	34.45
858.198	30.93
858.367	35.67
858.535	36.16
858.704	38.45
858.873	51.43
859.042	48.61
859.21	51.22
859.379	49.86
859.548	47.01
859.717	42.5
859.885	40.8
860.054	42.52
860.222	44.73
860.391	41.73
860.56	39.72
860.728	36.14
860.897	42.92
861.065	35.01
861.234	34.69
861.402	45.62
861.571	46.87
861.739	44.24
861.908	47.37
862.076	55.7
862.244	53.47
862.413	53.06
862.581	46.7
862.749	44.33
862.918	49.2
863.086	44.84
863.254	37.01
863.423	43.71
863.591	47.64
863.759	45.96
863.927	37.47
864.096	39.52
864.264	38.19
864.432	44.05
864.6	47.24
864.768	45.88
864.936	46.38
865.104	47.69
865.272	41.43
865.44	36.71
865.608	39.24
865.776	38.41
865.944	38.28
866.112	38.83
866.28	34.31
866.448	27.33
866.616	28.91
866.784	35.72
866.952	36.6
867.12	34.24
867.288	43.44
867.455	46.68
867.623	46.74
867.791	53.01
867.959	53.56
868.127	56.4
868.294	61.75
868.462	58.39
868.63	55.87
868.797	56.51
868.965	58.4
869.133	56.22
869.3	55.01
869.468	55.36
869.636	50.54
869.803	49.33
869.971	50.78
870.138	48.46
870.306	50.81
870.473	44.46
870.641	37.5
870.808	42.77
870.975	39.58
871.143	38.44
871.31	36.31
871.478	41.21
871.645	50.91
871.812	51.79
871.98	44.87
872.147	45.89
872.314	50.22
872.482	53.76
872.649	54.81
872.816	45.82
872.983	42.17
873.15	40.75
873.318	38.5
873.485	27.27
873.652	26.13
873.819	34.68
873.986	41.02
874.153	38.37
874.32	39.72
874.487	37.1
874.654	43.02
874.821	47.63
874.988	52.12
875.155	56.26
875.322	64.28
875.489	66.51
875.656	71.67
875.823	63.88
875.99	71.18
876.157	63.97
876.324	56.09
876.49	54.7
876.657	48.52
876.824	39.36
876.991	35.13
877.157	36.04
877.324	33.1
877.491	26.28
877.658	24.83
877.824	21.6
877.991	29.45
878.157	33.17
878.324	45.24
878.491	52.84
878.657	61.18
878.824	66.29
878.99	61
879.157	63.53
879.323	70.56
879.49	72.55
879.656	75.67
879.823	71.25
879.989	68.6
880.156	57.54
880.322	46.2
880.488	47.35
880.655	45.3
880.821	53.92
880.987	59.04
881.154	53.5
881.32	45.6
881.486	41.58
881.652	43.47
881.819	44.34
881.985	46.63
882.151	50.27
882.317	48.28
882.483	45.95
882.649	45.07
882.816	43.48
882.982	42.56
883.148	46.54
883.314	45.94
883.48	45.08
883.646	45.3
883.812	43.57
883.978	42.29
884.144	42.95
884.31	44.12
884.476	44.18
884.642	45.54
884.807	47.1
884.973	45.83
885.139	45.92
885.305	46.14
885.471	44.62
885.637	46.24
885.802	47.38
885.968	47.76
886.134	44.57
886.3	42.58
886.465	40.93
886.631	39.21
886.797	37.81
886.962	37.59
887.128	39.02
887.293	40.6
887.459	40.44
887.625	36.94
887.79	35.71
887.956	43.25
888.121	45.22
888.287	43.93
888.452	44.83
888.618	48.12
888.783	48.17
