Data from LC_251_Reflection_3.txt Node
Date: Thu Nov 19 23:04:33 EST 2015
User: robert
Spectrometer: USB4E03001
Autoset integration time: false
Trigger mode: 4
Integration Time (sec): 1.000000E-1
Scans to average: 15
Electric dark correction enabled: true
Nonlinearity correction enabled: false
Boxcar width: 5
Stray light correction enabled: false
XAxis mode: Wavelengths
Stop averaging: false
Number of Pixels in Spectrum: 3648
>>>>>Begin Spectral Data<<<<<
177.566	30.65
177.785	1.38
178.005	43.03
178.225	51.04
178.445	71.56
178.665	58.41
178.885	51.61
179.105	-357.74
179.324	-192.17
179.544	-230.19
179.764	-50.43
179.984	13.77
180.204	68.69
180.423	-6.73
180.643	5.55
180.863	1.16
181.083	-48.49
181.302	14.77
181.522	33.37
181.742	37.61
181.961	83.55
182.181	70.32
182.401	57.01
182.621	50.31
182.84	33.1
183.06	44.77
183.279	3.68
183.499	86.39
183.719	-55.67
183.938	-334.68
184.158	297.45
184.377	539.6
184.597	-239.79
184.816	2335.85
185.036	208.32
185.256	-1960.56
185.475	-70.21
185.695	6.35
185.914	-37.22
186.134	-44.59
186.353	25.54
186.572	33.55
186.792	78.58
187.011	-728.51
187.231	-162.86
187.45	-574.77
187.67	-46.59
187.889	-24.12
188.108	4.47
188.328	-3.61
188.547	-61.08
188.766	-203.13
188.986	-243.33
189.205	4250.98
189.424	194.51
189.644	230.31
189.863	135.85
190.082	92.85
190.302	114.2
190.521	129.54
190.74	144.25
190.959	162.42
191.178	117.48
191.398	122.89
191.617	115.99
191.836	362.99
192.055	85.42
192.274	133.22
192.494	154.04
192.713	95.04
192.932	72.32
193.151	67.42
193.37	64.77
193.589	77.42
193.808	71.65
194.027	73.61
194.246	60.53
194.465	60.83
194.685	43.54
194.904	27.94
195.123	25.16
195.342	20.85
195.561	34.83
195.78	43.09
195.999	43.72
196.218	40.26
196.436	29.66
196.655	24.06
196.874	35.41
197.093	52.95
197.312	90.28
197.531	71.18
197.75	121.92
197.969	149.09
198.188	-294.98
198.407	-105.94
198.625	-142.62
198.844	-87.56
199.063	-1029.16
199.282	-13.15
199.501	-64.83
199.719	17.3
199.938	45.96
200.157	177.39
200.376	294.96
200.594	-1011.61
200.813	-698.68
201.032	53.48
201.251	-82.35
201.469	-414.72
201.688	3.02
201.907	-16.89
202.125	193.17
202.344	141.91
202.563	268.92
202.781	251.45
203	223.8
203.218	173.05
203.437	208.97
203.656	242.18
203.874	374.72
204.093	505.86
204.311	177.14
204.53	157.65
204.748	94.84
204.967	54.64
205.185	45.38
205.404	-1.48
205.622	-6.58
205.841	-10.16
206.059	-53.02
206.278	-25.35
206.496	18.65
206.715	8.79
206.933	-11.45
207.151	135.01
207.37	235.74
207.588	276.87
207.806	256.76
208.025	201.93
208.243	318.73
208.461	397.31
208.68	290.84
208.898	147.41
209.116	32.69
209.335	-25.8
209.553	-405.61
209.771	2353.78
209.989	-398.6
210.208	533.3
210.426	631.44
210.644	-124.95
210.862	-26.99
211.081	-34.95
211.299	20.26
211.517	71.69
211.735	81.35
211.953	65.8
212.171	62.52
212.39	64.9
212.608	67.82
212.826	85.42
213.044	103.71
213.262	88.5
213.48	91.19
213.698	52.33
213.916	83.61
214.134	46.36
214.352	35.72
214.57	89.47
214.788	389.02
215.006	279.72
215.224	139.43
215.442	108.82
215.66	68.73
215.878	47.65
216.096	-16.51
216.314	-101.57
216.532	-28.03
216.75	44.8
216.968	140.96
217.185	672.28
217.403	1252.65
217.621	2430.12
217.839	-139.14
218.057	-45.34
218.275	32.05
218.492	42.88
218.71	30.13
218.928	9.55
219.146	-38.39
219.363	2.86
219.581	5.8
219.799	5.95
220.017	15.82
220.234	21.83
220.452	30.56
220.67	27.98
220.887	40.83
221.105	59.38
221.323	63.52
221.54	92.77
221.758	88.29
221.976	58.5
222.193	59.93
222.411	47.86
222.629	42.2
222.846	34.82
223.064	37.42
223.281	32.86
223.499	19.38
223.716	20.1
223.934	5.32
224.151	9.43
224.369	13.14
224.586	11.71
224.804	28.25
225.021	37.69
225.239	43.23
225.456	22.66
225.674	12.83
225.891	13.08
226.108	19.26
226.326	9.91
226.543	9.13
226.76	-3.36
226.978	0.99
227.195	-1.9
227.413	-7.83
227.63	-10.51
227.847	-1.71
228.064	3.52
228.282	6.91
228.499	7.52
228.716	7.43
228.934	5.94
229.151	8.18
229.368	5.45
229.585	4.91
229.802	4.12
230.02	2.39
230.237	0.13
230.454	-1.28
230.671	-4.51
230.888	-5.08
231.105	-6.65
231.323	-4.65
231.54	-5.79
231.757	-8.22
231.974	-5.87
232.191	-4.02
232.408	0.27
232.625	2.52
232.842	4.4
233.059	9.87
233.276	13.01
233.493	15.06
233.71	12.85
233.927	13.13
234.144	20.5
234.361	12.78
234.578	10.05
234.795	10.67
235.012	8.83
235.229	4.9
235.446	7.79
235.663	1.09
235.879	0.09
236.096	-1.94
236.313	-2.35
236.53	-2.84
236.747	-2.51
236.964	-0.64
237.181	-9.07
237.397	-5.89
237.614	-4.55
237.831	-6.03
238.048	1.27
238.264	-0.37
238.481	3.52
238.698	5.25
238.915	5.9
239.131	4.55
239.348	4.86
239.565	8.81
239.781	10.84
239.998	11.64
240.215	8.14
240.431	5.09
240.648	8.4
240.865	6.33
241.081	6.05
241.298	4.92
241.514	6.37
241.731	6.66
241.947	7.46
242.164	4.94
242.38	5.01
242.597	5.91
242.814	5.68
243.03	5.45
243.246	5.77
243.463	4.71
243.679	4.89
243.896	5.81
244.112	5.35
244.329	6.11
244.545	8.2
244.762	7.76
244.978	5.93
245.194	6.87
245.411	6.64
245.627	6.73
245.843	7.65
246.06	8.86
246.276	7.43
246.492	7.64
246.709	7.15
246.925	6.7
247.141	6.64
247.357	6.73
247.574	7.03
247.79	6.23
248.006	6.63
248.222	6.32
248.439	5.72
248.655	6.27
248.871	6.55
249.087	5.72
249.303	5.04
249.519	4.38
249.736	5.27
249.952	4.49
250.168	4.9
250.384	4.31
250.6	5.72
250.816	5.38
251.032	4.74
251.248	5.18
251.464	5.45
251.68	5.92
251.896	7.33
252.112	6.37
252.328	6.04
252.544	6.16
252.76	6.76
252.976	6.72
253.192	6.51
253.408	6.38
253.624	6.06
253.84	5.34
254.056	6.2
254.272	4.7
254.487	4.63
254.703	5.85
254.919	5.37
255.135	4.18
255.351	4.07
255.567	5.47
255.782	3.77
255.998	4.26
256.214	7.44
256.43	4.78
256.646	6.7
256.861	6.08
257.077	4.59
257.293	4.89
257.508	5.26
257.724	5.37
257.94	5.41
258.155	7.86
258.371	7.4
258.587	5.33
258.802	5.69
259.018	5.76
259.234	6.18
259.449	6.61
259.665	6.24
259.88	5.82
260.096	5.53
260.312	4.67
260.527	3.86
260.743	3.66
260.958	4.16
261.174	4.62
261.389	4.5
261.605	4.9
261.82	3.69
262.036	3.59
262.251	3.26
262.466	3.44
262.682	4.19
262.897	5.18
263.113	5.49
263.328	6.73
263.543	6.22
263.759	5.96
263.974	6.63
264.189	8.3
264.405	9.13
264.62	10.59
264.835	10.19
265.051	9.77
265.266	10.01
265.481	9.48
265.696	9.21
265.912	8.77
266.127	9.9
266.342	7.23
266.557	7.15
266.773	6.34
266.988	5.71
267.203	5.69
267.418	6.83
267.633	6.1
267.848	5.58
268.064	4.14
268.279	4.09
268.494	3.21
268.709	3.45
268.924	2.82
269.139	3.43
269.354	3.21
269.569	2.64
269.784	1.76
269.999	1.57
270.214	2.39
270.429	2.58
270.644	2.11
270.859	1.15
271.074	0.71
271.289	1.73
271.504	2.48
271.719	3.12
271.934	3.23
272.149	3.04
272.363	3.7
272.578	3.69
272.793	3.58
273.008	3.82
273.223	4.97
273.438	6.13
273.653	5.81
273.867	4.67
274.082	4.33
274.297	3.84
274.512	4.16
274.726	4.1
274.941	3.61
275.156	2.97
275.371	3.76
275.585	3.38
275.8	2.19
276.015	2.36
276.229	3.09
276.444	3.57
276.659	4.19
276.873	4.21
277.088	4.67
277.302	4.89
277.517	5.75
277.732	6.03
277.946	5.6
278.161	7.43
278.375	7.3
278.59	6.79
278.804	6.68
279.019	6.5
279.233	5.77
279.448	4.2
279.662	4.5
279.877	3.73
280.091	3.66
280.306	3.54
280.52	2.54
280.735	2.63
280.949	2.83
281.163	2.63
281.378	3.39
281.592	4.19
281.806	5.5
282.021	6.06
282.235	6.45
282.449	5.47
282.664	5.57
282.878	5.55
283.092	5.27
283.307	5.82
283.521	5.27
283.735	5.01
283.949	4.8
284.164	3.61
284.378	3.14
284.592	2.46
284.806	3.19
285.02	3.26
285.234	3.85
285.449	3.17
285.663	3.3
285.877	4.25
286.091	3.71
286.305	3.88
286.519	4.25
286.733	4.52
286.947	5.46
287.161	4.51
287.375	4.7
287.589	3.03
287.803	4.12
288.017	4.12
288.231	3.63
288.445	4.09
288.659	3.68
288.873	2.98
289.087	1
289.301	1.92
289.515	2.42
289.729	2.41
289.943	3.48
290.157	3.76
290.371	3.01
290.584	2.64
290.798	2.67
291.012	2.97
291.226	3.35
291.44	5.41
291.654	3.94
291.867	4.69
292.081	4.49
292.295	4.82
292.509	4.27
292.722	4.98
292.936	4.92
293.15	4.31
293.364	4.71
293.577	5.74
293.791	4.56
294.005	4.69
294.218	4.56
294.432	3.84
294.645	4.01
294.859	4.31
295.073	3.88
295.286	4.55
295.5	5.16
295.713	4.76
295.927	4.23
296.14	4.57
296.354	4.44
296.568	4.58
296.781	5.25
296.994	5.02
297.208	4.65
297.421	5.25
297.635	5.34
297.848	5.24
298.062	6.02
298.275	5.83
298.489	6.44
298.702	7.09
298.915	7.13
299.129	7.45
299.342	7.28
299.555	7.57
299.769	6.78
299.982	6.45
300.195	6.63
300.409	5.92
300.622	5.45
300.835	4.92
301.048	5.62
301.262	5.08
301.475	4.57
301.688	3.99
301.901	3.94
302.115	4.23
302.328	4.6
302.541	4.23
302.754	4.02
302.967	5.56
303.18	5.11
303.393	4.3
303.607	4.72
303.82	4.96
304.033	6.17
304.246	6.45
304.459	6.95
304.672	6.97
304.885	6.93
305.098	7.12
305.311	5.91
305.524	6.46
305.737	5.61
305.95	5.85
306.163	4.6
306.376	4.21
306.589	4.49
306.802	3.29
307.015	3.17
307.228	4.01
307.44	4.07
307.653	4.95
307.866	5.46
308.079	6.81
308.292	6.89
308.505	8.08
308.718	7.62
308.93	6.25
309.143	6.62
309.356	6.41
309.569	6
309.781	6.04
309.994	5.4
310.207	4.71
310.42	5.13
310.632	5.61
310.845	5.6
311.058	6.35
311.27	6.34
311.483	6.72
311.696	7.12
311.908	7.5
312.121	6.78
312.333	7.43
312.546	7.28
312.759	6.3
312.971	5.78
313.184	5.33
313.396	5.29
313.609	6.2
313.821	6.84
314.034	7.09
314.246	6.9
314.459	8.45
314.671	8.44
314.884	9.03
315.096	9.89
315.309	9.51
315.521	9.7
315.733	9.37
315.946	9.4
316.158	8.73
316.371	7.61
316.583	7.55
316.795	5.43
317.008	4.83
317.22	4.35
317.432	4.43
317.644	5.31
317.857	4.27
318.069	3.62
318.281	3.35
318.494	3.61
318.706	3.56
318.918	3.79
319.13	5.66
319.342	5.62
319.555	5.5
319.767	4.39
319.979	2.84
320.191	4.49
320.403	5.97
320.615	5.85
320.827	5.53
321.039	4.66
321.252	4.63
321.464	4.57
321.676	4.82
321.888	4.18
322.1	5.21
322.312	5.69
322.524	6.08
322.736	5.69
322.948	6.75
323.16	7.01
323.372	7.88
323.584	8.21
323.796	8.44
324.007	9.26
324.219	10.9
324.431	10.74
324.643	10.95
324.855	10.37
325.067	10.7
325.279	10.66
325.491	11.31
325.702	12.09
325.914	11.51
326.126	11.54
326.338	11.67
326.55	11.13
326.761	10.77
326.973	11.02
327.185	11.66
327.396	12.5
327.608	12.72
327.82	12.85
328.032	13.27
328.243	14.35
328.455	14.51
328.666	14.45
328.878	14.75
329.09	15.8
329.301	16.82
329.513	17.64
329.725	15.72
329.936	15.07
330.148	15.1
330.359	15.27
330.571	14.7
330.782	13.97
330.994	14.36
331.205	14.74
331.417	14.87
331.628	14.32
331.84	14.14
332.051	15.8
332.262	16.98
332.474	17.46
332.685	17.97
332.897	18.77
333.108	19.8
333.319	20.37
333.531	20.28
333.742	20.15
333.953	21.21
334.165	22.11
334.376	21.6
334.587	21.2
334.799	21.25
335.01	20.27
335.221	19.85
335.432	20.78
335.644	20.17
335.855	20.17
336.066	20.65
336.277	19.87
336.488	18.73
336.7	18.66
336.911	18.37
337.122	18.6
337.333	19.42
337.544	19.62
337.755	18.92
337.966	18.11
338.177	18.66
338.388	18.77
338.599	19.19
338.811	19.57
339.022	19.73
339.233	19.71
339.444	19.67
339.655	19.78
339.866	19.71
340.076	19.59
340.287	20.73
340.498	20.36
340.709	20.23
340.92	20.14
341.131	20.5
341.342	20.86
341.553	21.66
341.764	20.89
341.975	20.55
342.185	20.73
342.396	20.41
342.607	19.72
342.818	19.22
343.029	19.45
343.239	19.04
343.45	18.41
343.661	18.57
343.872	17.84
344.082	17.9
344.293	17.9
344.504	18.3
344.714	18.9
344.925	19.52
345.136	19.8
345.346	18.33
345.557	18.44
345.768	18.37
345.978	17.7
346.189	17.87
346.399	18.09
346.61	17.96
346.821	17.28
347.031	17.23
347.242	17.51
347.452	17.91
347.663	18.69
347.873	19.5
348.084	20.41
348.294	20.94
348.504	21.34
348.715	21.79
348.925	22.03
349.136	22.21
349.346	21.67
349.557	21.5
349.767	21.54
349.977	21.91
350.188	21.01
350.398	20.68
350.608	20.81
350.819	21.5
351.029	21.02
351.239	21.02
351.449	20.89
351.66	20.94
351.87	20.7
352.08	20.32
352.29	20.74
352.501	20.41
352.711	20.23
352.921	20.15
353.131	18.79
353.341	18.25
353.552	17.7
353.762	17.5
353.972	18.53
354.182	18.06
354.392	17.96
354.602	17
354.812	17.68
355.022	17.39
355.232	17.69
355.442	18.14
355.652	18.64
355.862	18.84
356.072	19.25
356.282	19
356.492	19.12
356.702	19.44
356.912	20.18
357.122	20.07
357.332	20.43
357.542	20.01
357.752	19.79
357.962	20.22
358.171	20.56
358.381	20.82
358.591	20.41
358.801	20.91
359.011	21.18
359.221	20.72
359.43	20.68
359.64	20.53
359.85	20.41
360.06	21.25
360.269	20.97
360.479	20.79
360.689	20.62
360.899	20.32
361.108	20
361.318	19.48
361.528	19.7
361.737	19.98
361.947	19.94
362.156	19.74
362.366	19.51
362.576	19.37
362.785	19.25
362.995	18.87
363.204	19.21
363.414	19.44
363.623	19.39
363.833	19.48
364.042	19.19
364.252	19
364.461	19.27
364.671	18.84
364.88	19.47
365.09	19.42
365.299	19.53
365.509	19.22
365.718	18.85
365.927	19.28
366.137	19.03
366.346	19.15
366.555	19.15
366.765	19.19
366.974	18.94
367.183	18.27
367.393	17.95
367.602	18.5
367.811	19.24
368.021	19.49
368.23	18.68
368.439	18.71
368.648	18.31
368.857	18.55
369.067	18.56
369.276	19.19
369.485	19.17
369.694	19.61
369.903	19.06
370.112	18.32
370.321	17.94
370.531	18.17
370.74	17.74
370.949	17.94
371.158	17.59
371.367	17.77
371.576	17.12
371.785	17.07
371.994	16.94
372.203	16.97
372.412	17.18
372.621	17
372.83	17.57
373.039	18.18
373.248	18.09
373.457	18.65
373.666	18.51
373.874	18.85
374.083	18.54
374.292	18.55
374.501	18.88
374.71	18.86
374.919	19.19
375.128	18.88
375.336	18.95
375.545	19.06
375.754	18.57
375.963	18.44
376.171	17.87
376.38	18.15
376.589	17.9
376.798	17.63
377.006	17.45
377.215	17.61
377.424	17.5
377.632	17.25
377.841	17.25
378.05	17.61
378.258	17.46
378.467	17.86
378.675	17.45
378.884	17.5
379.093	17.76
379.301	17.91
379.51	17.78
379.718	17.79
379.927	17.57
380.135	17.44
380.344	16.88
380.552	17.23
380.761	17.17
380.969	17.45
381.177	17.32
381.386	17.16
381.594	17.24
381.803	17.01
382.011	16.81
382.219	17.04
382.428	16.99
382.636	17.41
382.845	17.3
383.053	17.27
383.261	17.06
383.469	17.48
383.678	17.04
383.886	16.84
384.094	17.12
384.302	17.19
384.511	16.71
384.719	16.58
384.927	16.61
385.135	16.53
385.343	16.56
385.552	16.68
385.76	16.54
385.968	17
386.176	17.09
386.384	16.82
386.592	16.91
386.8	17.32
387.008	17.17
387.216	16.8
387.424	16.9
387.633	17.23
387.841	17.21
388.049	17.03
388.257	16.81
388.465	16.67
388.672	16.66
388.88	16.55
389.088	16.19
389.296	16.5
389.504	16.63
389.712	16.11
389.92	15.85
390.128	15.93
390.336	16.11
390.544	15.94
390.751	15.89
390.959	15.87
391.167	16.23
391.375	16.25
391.583	15.92
391.79	15.85
391.998	16.15
392.206	16.21
392.414	16.28
392.621	16.33
392.829	16.57
393.037	16.77
393.244	16.89
393.452	16.67
393.66	16.63
393.867	16.71
394.075	16.64
394.283	16.39
394.49	16.23
394.698	16.25
394.905	16.1
395.113	16.09
395.32	15.95
395.528	15.95
395.735	16.16
395.943	16.36
396.15	16.49
396.358	16.68
396.565	16.86
396.773	16.93
396.98	16.93
397.188	17.1
397.395	16.83
397.602	16.84
397.81	16.62
398.017	16.03
398.225	16.09
398.432	16.07
398.639	15.88
398.847	16.08
399.054	16.08
399.261	15.89
399.468	15.74
399.676	16.26
399.883	16.31
400.09	16.4
400.297	16.85
400.505	16.82
400.712	16.99
400.919	17.14
401.126	17.17
401.333	17.25
401.54	17.51
401.748	17.77
401.955	17.2
402.162	17.26
402.369	17.36
402.576	17.34
402.783	17.32
402.99	17.16
403.197	17.32
403.404	17.23
403.611	17.19
403.818	17.27
404.025	17.18
404.232	17.22
404.439	17.28
404.646	17.27
404.853	17.17
405.06	16.98
405.267	17.18
405.474	16.9
405.681	17.01
405.887	17.22
406.094	16.86
406.301	16.81
406.508	16.97
406.715	16.74
406.922	16.57
407.128	16.54
407.335	16.79
407.542	16.78
407.749	16.78
407.955	16.66
408.162	16.41
408.369	16.66
408.575	16.73
408.782	16.74
408.989	16.79
409.195	16.67
409.402	16.8
409.609	16.63
409.815	16.34
410.022	16.5
410.228	16.44
410.435	16.48
410.642	16.55
410.848	16.33
411.055	16.17
411.261	16.27
411.468	16.43
411.674	16.48
411.881	16.69
412.087	16.62
412.294	16.51
412.5	16.22
412.706	16.05
412.913	15.92
413.119	16.01
413.326	16.07
413.532	15.97
413.738	15.9
413.945	15.75
414.151	15.8
414.357	15.91
414.564	15.99
414.77	16.26
414.976	16.22
415.182	16.08
415.389	16.07
415.595	15.94
415.801	15.95
416.007	15.98
416.214	15.95
416.42	15.75
416.626	15.65
416.832	15.6
417.038	15.52
417.244	15.5
417.45	15.66
417.657	15.74
417.863	16.07
418.069	16.01
418.275	16.14
418.481	16.18
418.687	16.1
418.893	16.31
419.099	16.33
419.305	16.49
419.511	16.56
419.717	16.45
419.923	16.37
420.129	16.27
420.335	16.16
420.541	16.11
420.746	15.94
420.952	16.08
421.158	15.9
421.364	15.76
421.57	15.55
421.776	15.53
421.982	15.45
422.187	15.49
422.393	15.32
422.599	15.4
422.805	15.34
423.01	15.28
423.216	15.1
423.422	15.13
423.628	15.28
423.833	15.38
424.039	15.26
424.245	15.34
424.45	15.38
424.656	15.53
424.862	15.54
425.067	15.46
425.273	15.63
425.478	15.63
425.684	15.74
425.889	15.78
426.095	15.75
426.301	15.84
426.506	15.96
426.712	15.77
426.917	15.73
427.123	15.66
427.328	15.69
427.533	15.76
427.739	15.88
427.944	15.83
428.15	15.58
428.355	15.45
428.561	15.44
428.766	15.36
428.971	15.49
429.177	15.4
429.382	15.49
429.587	15.6
429.793	15.42
429.998	15.5
430.203	15.32
430.408	15.49
430.614	15.71
430.819	15.66
431.024	15.71
431.229	15.66
431.434	15.61
431.64	15.48
431.845	15.52
432.05	15.53
432.255	15.33
432.46	15.48
432.665	15.37
432.87	15.22
433.076	15.17
433.281	14.97
433.486	15.02
433.691	15
433.896	15.09
434.101	15.01
434.306	14.93
434.511	14.91
434.716	14.87
434.921	14.96
435.126	15.2
435.331	15.3
435.535	15.39
435.74	15.36
435.945	15.38
436.15	15.16
436.355	15.22
436.56	15.23
436.765	15.29
436.97	15.27
437.174	15.26
437.379	14.92
437.584	14.68
437.789	14.73
437.993	14.75
438.198	14.7
438.403	14.66
438.608	14.67
438.812	14.82
439.017	14.77
439.222	14.79
439.426	14.62
439.631	14.66
439.836	14.96
440.04	15
440.245	15.03
440.45	15.07
440.654	15.25
440.859	15.23
441.063	15.26
441.268	15.44
441.472	15.42
441.677	15.5
441.881	15.6
442.086	15.37
442.29	15.37
442.495	15.1
442.699	15.23
442.904	15.26
443.108	15.34
443.312	15.18
443.517	14.87
443.721	14.97
443.925	15.22
444.13	15.3
444.334	15.48
444.538	15.43
444.743	15.56
444.947	15.47
445.151	15.41
445.356	15.4
445.56	15.47
445.764	15.67
445.968	15.68
446.173	15.57
446.377	15.48
446.581	15.44
446.785	15.38
446.989	15.45
447.193	15.38
447.398	15.3
447.602	15.2
447.806	15.21
448.01	15.07
448.214	15.04
448.418	14.9
448.622	14.67
448.826	14.79
449.03	14.82
449.234	14.75
449.438	14.71
449.642	14.8
449.846	14.62
450.05	14.61
450.254	14.69
450.458	14.5
450.662	14.47
450.866	14.67
451.069	14.48
451.273	14.36
451.477	14.35
451.681	14.35
451.885	14.25
452.089	14.61
452.292	14.5
452.496	14.48
452.7	14.48
452.904	14.56
453.107	14.61
453.311	14.66
453.515	14.61
453.719	14.74
453.922	14.83
454.126	14.77
454.33	14.58
454.533	14.52
454.737	14.45
454.94	14.49
455.144	14.37
455.348	14.43
455.551	14.5
455.755	14.58
455.958	14.42
456.162	14.39
456.365	14.62
456.569	14.66
456.772	14.87
456.976	14.86
457.179	14.93
457.383	14.99
457.586	14.94
457.79	14.77
457.993	14.7
458.196	14.65
458.4	14.72
458.603	14.67
458.807	14.65
459.01	14.56
459.213	14.72
459.417	14.63
459.62	14.61
459.823	14.65
460.026	14.61
460.23	14.62
460.433	14.66
460.636	14.51
460.839	14.49
461.042	14.63
461.246	14.61
461.449	14.45
461.652	14.44
461.855	14.42
462.058	14.35
462.261	14.43
462.464	14.51
462.668	14.49
462.871	14.75
463.074	14.6
463.277	14.25
463.48	14.36
463.683	14.51
463.886	14.63
464.089	14.54
464.292	14.65
464.495	14.68
464.698	14.6
464.901	14.73
465.104	14.64
465.306	14.91
465.509	15.12
465.712	15.08
465.915	14.87
466.118	14.82
466.321	15.06
466.524	14.94
466.726	14.82
466.929	14.8
467.132	14.6
467.335	14.58
467.538	14.4
467.74	14.32
467.943	14.26
468.146	14.29
468.348	14.35
468.551	14.22
468.754	14.28
468.956	14.37
469.159	14.35
469.362	14.55
469.564	14.49
469.767	14.74
469.969	14.82
470.172	14.95
470.375	14.94
470.577	14.99
470.78	15.11
470.982	15.05
471.185	15.3
471.387	15.32
471.59	15.27
471.792	15.34
471.995	15.29
472.197	15.23
472.399	15.27
472.602	15.45
472.804	15.31
473.007	15.18
473.209	15.13
473.411	14.96
473.614	15.09
473.816	15.18
474.018	15.16
474.22	15.13
474.423	15.13
474.625	15.03
474.827	15.05
475.03	15.21
475.232	15.27
475.434	15.37
475.636	15.36
475.838	15.35
476.04	15.19
476.243	15.14
476.445	15.16
476.647	15.14
476.849	15.02
477.051	14.9
477.253	14.81
477.455	14.94
477.657	14.82
477.859	14.86
478.061	14.71
478.263	14.76
478.465	14.75
478.667	14.72
478.869	14.8
479.071	14.74
479.273	14.82
479.475	14.79
479.677	14.79
479.879	15.04
480.081	15.05
480.283	15.16
480.485	15.04
480.686	14.98
480.888	15
481.09	14.99
481.292	15.14
481.494	15.18
481.695	15.26
481.897	15.23
482.099	15.18
482.301	15.16
482.502	15.18
482.704	15.26
482.906	15.39
483.107	15.41
483.309	15.4
483.511	15.33
483.712	15.24
483.914	15.22
484.115	15.15
484.317	15.13
484.519	15.11
484.72	15.1
484.922	15.03
485.123	14.99
485.325	14.94
485.526	14.93
485.728	14.97
485.929	15
486.131	14.97
486.332	15.11
486.534	15.08
486.735	15.12
486.936	15.12
487.138	15.22
487.339	15.09
487.541	15.11
487.742	15.06
487.943	15.06
488.144	15.1
488.346	15.12
488.547	15.06
488.748	15.08
488.95	15.08
489.151	15.04
489.352	15.02
489.553	15.26
489.755	15.28
489.956	15.38
490.157	15.35
490.358	15.28
490.559	15.35
490.76	15.39
490.961	15.37
491.163	15.35
491.364	15.4
491.565	15.41
491.766	15.32
491.967	15.31
492.168	15.22
492.369	15.27
492.57	15.31
492.771	15.31
492.972	15.19
493.173	15.22
493.374	15.28
493.575	15.36
493.776	15.32
493.976	15.29
494.177	15.2
494.378	15.34
494.579	15.24
494.78	15.22
494.981	15.11
495.182	15.28
495.382	15.27
495.583	15.19
495.784	15.04
495.985	15.2
496.185	15.13
496.386	15.34
496.587	15.26
496.788	15.38
496.988	15.47
497.189	15.37
497.39	15.47
497.59	15.5
497.791	15.55
497.992	15.56
498.192	15.54
498.393	15.58
498.593	15.54
498.794	15.58
498.994	15.58
499.195	15.66
499.395	15.71
499.596	15.59
499.796	15.55
499.997	15.5
500.197	15.47
500.398	15.49
500.598	15.47
500.799	15.53
500.999	15.38
501.199	15.26
501.4	15.19
501.6	15.21
501.801	15.04
502.001	15.02
502.201	14.91
502.402	15.07
502.602	15.08
502.802	15.19
503.002	15.19
503.203	15.27
503.403	15.2
503.603	15.13
503.803	15.3
504.003	15.58
504.204	15.75
504.404	15.89
504.604	15.91
504.804	15.85
505.004	15.92
505.204	15.92
505.404	16.12
505.604	16.22
505.804	16.31
506.005	16.27
506.205	16.15
506.405	16.05
506.605	16.2
506.805	16.16
507.005	16.16
507.204	16.12
507.404	16.08
507.604	16.02
507.804	16.21
508.004	16.32
508.204	16.51
508.404	16.57
508.604	16.63
508.804	16.52
509.003	16.68
509.203	16.64
509.403	16.54
509.603	16.49
509.803	16.65
510.002	16.54
510.202	16.47
510.402	16.43
510.602	16.47
510.801	16.52
511.001	16.6
511.201	16.54
511.4	16.67
511.6	16.94
511.8	17.08
511.999	17.01
512.199	17.09
512.398	17.17
512.598	17.2
512.797	17.25
512.997	17.24
513.197	17.29
513.396	17.42
513.596	17.41
513.795	17.38
513.994	17.56
514.194	17.74
514.393	17.82
514.593	18.01
514.792	18.07
514.992	18
515.191	18.19
515.39	18.2
515.59	18.12
515.789	18.22
515.988	18.25
516.188	18.22
516.387	18.21
516.586	18.29
516.786	18.18
516.985	18.22
517.184	18.36
517.383	18.31
517.582	18.37
517.782	18.46
517.981	18.58
518.18	18.5
518.379	18.51
518.578	18.58
518.777	18.68
518.976	18.67
519.176	18.79
519.375	18.91
519.574	18.93
519.773	19.08
519.972	19.26
520.171	19.26
520.37	19.48
520.569	19.45
520.768	19.47
520.967	19.52
521.166	19.73
521.365	19.82
521.564	19.77
521.762	19.9
521.961	19.88
522.16	19.76
522.359	19.88
522.558	20
522.757	20.1
522.956	20.19
523.154	20.15
523.353	20.21
523.552	20.18
523.751	20.27
523.949	20.31
524.148	20.33
524.347	20.4
524.546	20.52
524.744	20.58
524.943	20.86
525.142	20.83
525.34	20.96
525.539	20.97
525.737	20.96
525.936	21.08
526.135	21.25
526.333	21.42
526.532	21.42
526.73	21.41
526.929	21.47
527.127	21.4
527.326	21.45
527.524	21.49
527.723	21.55
527.921	21.68
528.12	21.66
528.318	21.62
528.516	21.57
528.715	21.7
528.913	21.8
529.112	21.81
529.31	21.85
529.508	21.91
529.707	21.9
529.905	21.95
530.103	21.98
530.301	22.02
530.5	22.05
530.698	22.14
530.896	22.17
531.094	22.16
531.293	22.24
531.491	22.39
531.689	22.49
531.887	22.63
532.085	22.7
532.283	22.72
532.481	22.83
532.68	23
532.878	23.09
533.076	23.1
533.274	23.14
533.472	23.1
533.67	23.08
533.868	23.07
534.066	23.11
534.264	23.15
534.462	23.25
534.66	23.31
534.858	23.18
535.056	23.28
535.253	23.41
535.451	23.51
535.649	23.74
535.847	23.79
536.045	23.94
536.243	24.01
536.441	24.13
536.638	24.08
536.836	24.16
537.034	24.34
537.232	24.33
537.43	24.32
537.627	24.31
537.825	24.38
538.023	24.45
538.22	24.5
538.418	24.48
538.616	24.42
538.813	24.6
539.011	24.68
539.209	24.78
539.406	24.93
539.604	25.01
539.801	25.17
539.999	25.08
540.196	25.17
540.394	25.24
540.591	25.32
540.789	25.44
540.986	25.43
541.184	25.41
541.381	25.52
541.579	25.52
541.776	25.54
541.974	25.51
542.171	25.57
542.368	25.63
542.566	25.65
542.763	25.73
542.96	25.74
543.158	25.83
543.355	25.86
543.552	25.95
543.75	26.02
543.947	26.2
544.144	26.24
544.341	26.43
544.539	26.42
544.736	26.55
544.933	26.47
545.13	26.59
545.327	26.49
545.524	26.66
545.722	26.6
545.919	26.64
546.116	26.6
546.313	26.73
546.51	26.59
546.707	26.62
546.904	26.71
547.101	26.98
547.298	26.93
547.495	27.18
547.692	27.2
547.889	27.25
548.086	27.33
548.283	27.45
548.48	27.54
548.677	27.75
548.874	27.95
549.07	27.95
549.267	27.83
549.464	28.22
549.661	28.14
549.858	28.37
550.055	28.42
550.251	28.5
550.448	28.42
550.645	28.63
550.842	28.67
551.038	28.69
551.235	28.77
551.432	28.96
551.628	28.72
551.825	28.96
552.022	29.02
552.218	29.15
552.415	29.31
552.612	29.59
552.808	29.63
553.005	29.85
553.201	29.85
553.398	29.95
553.594	30.02
553.791	30.12
553.987	30.32
554.184	30.18
554.38	30.21
554.577	30.03
554.773	29.97
554.97	30.03
555.166	30
555.362	30.1
555.559	30
555.755	30.04
555.952	30.3
556.148	30.2
556.344	30.43
556.541	30.48
556.737	30.6
556.933	30.58
557.129	30.53
557.326	30.52
557.522	30.7
557.718	30.74
557.914	30.94
558.11	30.72
558.307	30.89
558.503	30.79
558.699	31.07
558.895	31.14
559.091	31.23
559.287	31.42
559.483	31.57
559.679	31.74
559.876	32.02
560.072	31.88
560.268	32.1
560.464	31.97
560.66	32.17
560.856	32.13
561.052	32.26
561.247	32.35
561.443	32.29
561.639	32.25
561.835	32.31
562.031	32.3
562.227	32.42
562.423	32.51
562.619	32.67
562.815	32.67
563.01	32.74
563.206	32.8
563.402	32.86
563.598	32.94
563.793	33.06
563.989	33.04
564.185	33.05
564.381	33.19
564.576	33.29
564.772	33.44
564.968	33.6
565.163	33.8
565.359	33.83
565.555	34.01
565.75	34.14
565.946	34.28
566.141	34.37
566.337	34.53
566.532	34.63
566.728	34.67
566.923	34.57
567.119	34.62
567.314	34.52
567.51	34.79
567.705	34.77
567.901	34.7
568.096	34.84
568.292	34.83
568.487	34.81
568.682	34.88
568.878	34.96
569.073	35.18
569.268	35.34
569.464	35.48
569.659	35.3
569.854	35.39
570.05	35.52
570.245	35.37
570.44	35.57
570.635	35.69
570.831	35.73
571.026	35.69
571.221	35.83
571.416	35.74
571.611	35.91
571.806	35.97
572.002	36.11
572.197	36.24
572.392	36.34
572.587	36.49
572.782	36.35
572.977	36.38
573.172	36.49
573.367	36.43
573.562	36.57
573.757	36.68
573.952	36.62
574.147	36.71
574.342	36.76
574.537	36.69
574.732	36.52
574.927	36.63
575.121	36.69
575.316	36.86
575.511	36.89
575.706	36.92
575.901	36.78
576.096	37.03
576.29	37.06
576.485	37.13
576.68	37.31
576.875	37.36
577.069	37.4
577.264	37.39
577.459	37.39
577.654	37.48
577.848	37.56
578.043	37.71
578.238	37.8
578.432	37.48
578.627	37.49
578.821	37.54
579.016	37.47
579.21	37.62
579.405	37.66
579.6	37.46
579.794	37.51
579.989	37.45
580.183	37.47
580.378	37.47
580.572	37.76
580.766	37.79
580.961	37.69
581.155	38.07
581.35	38.22
581.544	38.43
581.738	38.78
581.933	38.71
582.127	38.73
582.321	38.56
582.516	38.89
582.71	39.04
582.904	39.12
583.099	39.09
583.293	38.99
583.487	39.04
583.681	39.02
583.875	38.57
584.07	38.85
584.264	38.92
584.458	39.15
584.652	38.86
584.846	38.82
585.04	38.92
585.234	39.24
585.428	39.33
585.623	39.27
585.817	38.94
586.011	39.2
586.205	39.17
586.399	39.13
586.593	38.96
586.787	38.85
586.981	38.8
587.174	38.7
587.368	38.55
587.562	38.42
587.756	38.46
587.95	38.67
588.144	38.62
588.338	38.53
588.532	38.73
588.725	38.96
588.919	39.19
589.113	39.43
589.307	39.25
589.501	39.26
589.694	39.44
589.888	39.48
590.082	39.68
590.275	39.7
590.469	39.91
590.663	39.86
590.856	39.85
591.05	39.61
591.244	39.54
591.437	39.54
591.631	39.73
591.824	39.56
592.018	39.48
592.212	39.4
592.405	39.48
592.599	39.34
592.792	39.54
592.986	39.6
593.179	39.83
593.372	39.9
593.566	40.34
593.759	40.12
593.953	40.11
594.146	40.27
594.339	40.32
594.533	40.46
594.726	40.47
594.92	40.36
595.113	40.19
595.306	40.21
595.499	39.86
595.693	39.83
595.886	40.01
596.079	40.06
596.272	40.01
596.466	40.06
596.659	40.13
596.852	40.1
597.045	40.06
597.238	40.18
597.431	40.18
597.624	40.38
597.818	40.3
598.011	40.22
598.204	40.3
598.397	40.33
598.59	40.33
598.783	40.3
598.976	40.15
599.169	40.25
599.362	40.13
599.555	40.09
599.748	40.34
599.941	40.39
600.134	40.48
600.326	40.61
600.519	40.46
600.712	40.25
600.905	40.42
601.098	40.78
601.291	40.8
601.483	40.92
601.676	41.19
601.869	41.16
602.062	41.13
602.255	41.26
602.447	41.21
602.64	41.34
602.833	41.46
603.025	41.39
603.218	41.29
603.411	41.2
603.603	41.1
603.796	40.98
603.989	40.7
604.181	40.61
604.374	40.66
604.566	40.69
604.759	40.63
604.951	40.81
605.144	40.87
605.336	40.85
605.529	40.86
605.721	40.97
605.914	41
606.106	41.22
606.299	41.42
606.491	41.21
606.683	41.1
606.876	41.37
607.068	41.3
607.26	41.18
607.453	41.24
607.645	41.28
607.837	41.4
608.03	41.48
608.222	41.58
608.414	41.36
608.606	41.71
608.799	41.87
608.991	41.89
609.183	41.95
609.375	42.01
609.567	41.95
609.759	41.93
609.952	41.93
610.144	41.88
610.336	41.76
610.528	41.99
610.72	41.86
610.912	41.85
611.104	41.76
611.296	41.65
611.488	41.6
611.68	41.76
611.872	41.76
612.064	41.65
612.256	41.68
612.448	41.83
612.64	41.87
612.832	42.1
613.023	42.31
613.215	42.36
613.407	42.35
613.599	42.29
613.791	42.17
613.983	42.35
614.174	42.38
614.366	42.31
614.558	42.22
614.75	42.05
614.941	42.06
615.133	41.84
615.325	41.77
615.516	42.06
615.708	42.26
615.9	42.29
616.091	42.25
616.283	42.31
616.475	42.24
616.666	42.1
616.858	42.17
617.049	42.13
617.241	42.3
617.432	42.45
617.624	42.36
617.815	42.35
618.007	42.29
618.198	42.34
618.39	42.28
618.581	42.57
618.773	42.71
618.964	42.77
619.155	42.64
619.347	42.28
619.538	42.37
619.729	42.57
619.921	42.65
620.112	42.83
620.303	42.6
620.494	42.78
620.686	42.6
620.877	42.71
621.068	42.67
621.259	42.76
621.451	43.08
621.642	42.9
621.833	42.99
622.024	43.01
622.215	42.91
622.406	43.17
622.597	42.83
622.788	43.06
622.98	42.87
623.171	43.08
623.362	43.09
623.553	43.25
623.744	43.35
623.935	43.14
624.126	43.23
624.317	43.27
624.508	43.13
624.698	43.58
624.889	43.57
625.08	43.79
625.271	43.85
625.462	43.82
625.653	43.49
625.844	43.45
626.034	43.19
626.225	43.19
626.416	43.35
626.607	43.56
626.798	43.55
626.988	43.55
627.179	43.48
627.37	43.21
627.56	43.03
627.751	43.12
627.942	43.28
628.132	43.46
628.323	43.35
628.514	43.29
628.704	43.39
628.895	43.28
629.085	43.29
629.276	43.53
629.466	43.67
629.657	43.83
629.847	43.93
630.038	43.78
630.228	43.96
630.419	43.89
630.609	43.86
630.8	43.78
630.99	43.92
631.181	43.94
631.371	43.62
631.561	43.55
631.752	43.53
631.942	43.52
632.132	43.28
632.323	42.88
632.513	43.02
632.703	42.94
632.893	42.61
633.084	42.65
633.274	42.46
633.464	42.72
633.654	42.71
633.844	42.68
634.034	42.58
634.225	42.77
634.415	43.15
634.605	42.91
634.795	43.17
634.985	43.4
635.175	43.21
635.365	43.31
635.555	43.29
635.745	43.24
635.935	43.36
636.125	43.57
636.315	43.62
636.505	43.63
636.695	43.63
636.885	43.47
637.075	43.39
637.265	43.58
637.455	43.49
637.644	43.07
637.834	43.19
638.024	43.17
638.214	43.02
638.404	43.36
638.593	43.16
638.783	43.47
638.973	43.48
639.163	43.68
639.352	43.56
639.542	43.49
639.732	43.79
639.921	43.84
640.111	43.5
640.301	43.42
640.49	43.25
640.68	43.02
640.87	43.09
641.059	43.15
641.249	43.04
641.438	43.2
641.628	43.18
641.817	43.21
642.007	43.15
642.196	43.54
642.386	43.81
642.575	43.77
642.764	44.32
642.954	43.99
643.143	44.12
643.333	44.2
643.522	43.97
643.711	44.29
643.901	44.11
644.09	44.22
644.279	44.22
644.469	44.11
644.658	44.16
644.847	43.86
645.036	43.83
645.226	44.15
645.415	43.88
645.604	43.74
645.793	43.75
645.982	43.74
646.171	43.58
646.361	43.63
646.55	43.38
646.739	43.11
646.928	43.32
647.117	43.74
647.306	43.18
647.495	43.33
647.684	43.5
647.873	43.73
648.062	44.15
648.251	43.98
648.44	43.66
648.629	44.04
648.818	44.03
649.007	43.97
649.196	43.89
649.384	44
649.573	43.78
649.762	43.99
649.951	43.89
650.14	43.88
650.328	44.22
650.517	44.46
650.706	44.36
650.895	44.8
651.083	44.55
651.272	43.96
651.461	43.76
651.65	44
651.838	43.64
652.027	43.42
652.216	43.21
652.404	43.24
652.593	43.34
652.781	43.28
652.97	42.88
653.158	43.15
653.347	43.62
653.535	43.77
653.724	43.83
653.912	44.19
654.101	44.19
654.289	44.09
654.478	44.04
654.666	44.1
654.855	43.89
655.043	44.09
655.231	44.34
655.42	44.43
655.608	44.4
655.796	44.4
655.985	44.52
656.173	44.58
656.361	44.51
656.55	44.59
656.738	44.31
656.926	44.63
657.114	44.39
657.302	43.88
657.491	43.84
657.679	43.91
657.867	44.18
658.055	43.84
658.243	44.1
658.431	44.2
658.619	43.96
658.807	43.68
658.996	43.7
659.184	43.79
659.372	43.84
659.56	43.66
659.748	43.66
659.936	43.38
660.124	43.61
660.311	43.63
660.499	43.41
660.687	43.75
660.875	44.41
661.063	44.3
661.251	44.25
661.439	44.18
661.627	44.61
661.814	44.7
662.002	44.54
662.19	44.72
662.378	44.48
662.565	44.59
662.753	44
662.941	43.92
663.129	43.71
663.316	43.93
663.504	43.96
663.692	43.6
663.879	43.63
664.067	44.05
664.254	43.93
664.442	43.95
664.63	44.08
664.817	44.19
665.005	43.99
665.192	44.27
665.38	44.11
665.567	44.76
665.755	45.01
665.942	45.14
666.13	44.87
666.317	44.81
666.504	44.68
666.692	44.85
666.879	45.45
667.067	45.35
667.254	45.39
667.441	45.25
667.629	44.72
667.816	44.54
668.003	44.41
668.19	44.82
668.378	45.04
668.565	45.12
668.752	45.12
668.939	45
669.127	44.83
669.314	44.89
669.501	44.64
669.688	44.89
669.875	45.34
670.062	45.39
670.249	44.79
670.436	44.25
670.623	44.47
670.81	44.38
670.997	44.24
671.184	44.37
671.371	44.79
671.558	45.26
671.745	44.86
671.932	44.58
672.119	44.32
672.306	44.5
672.493	44.49
672.68	44.25
672.867	44.55
673.054	44.42
673.24	44.75
673.427	44.24
673.614	44.42
673.801	44.63
673.988	44.39
674.174	44.56
674.361	44.71
674.548	45.05
674.734	45.08
674.921	45.16
675.108	45.34
675.294	44.89
675.481	44.93
675.668	44.45
675.854	44.49
676.041	44.74
676.227	44.72
676.414	44.82
676.601	44.8
676.787	44.84
676.974	44.63
677.16	44.56
677.347	44.82
677.533	44.53
677.719	44.71
677.906	44.8
678.092	44.4
678.279	44.5
678.465	44.25
678.651	44.01
678.838	43.67
679.024	43.34
679.21	43.3
679.397	43.38
679.583	43.65
679.769	43.93
679.955	43.71
680.142	44.09
680.328	44.18
680.514	43.78
680.7	43.57
680.886	44.24
681.073	44.43
681.259	44.56
681.445	44.22
681.631	44.08
681.817	44.14
682.003	44.16
682.189	43.88
682.375	43.56
682.561	44.31
682.747	44.63
682.933	44.1
683.119	44.38
683.305	44.34
683.491	44.42
683.677	44.67
683.863	44.48
684.049	44.92
684.235	45.11
684.42	45.43
684.606	45.46
684.792	45.63
684.978	45.64
685.164	45.55
685.349	46.13
685.535	46.63
685.721	46.41
685.907	46.49
686.092	46.46
686.278	46.36
686.464	46.3
686.649	45.75
686.835	45.5
687.021	45.41
687.206	45.18
687.392	44.12
687.577	43.77
687.763	43.83
687.948	43.64
688.134	43.72
688.319	44.02
688.505	43.94
688.69	44.11
688.876	44.47
689.061	44.05
689.247	44.23
689.432	44.6
689.618	44.71
689.803	44.81
689.988	45.33
690.174	45.13
690.359	45.04
690.544	45.26
690.73	45.43
690.915	45.29
691.1	45.73
691.285	46.17
691.471	46.58
691.656	46.75
691.841	46.44
692.026	46.11
692.211	46.13
692.396	45.6
692.582	44.96
692.767	45.09
692.952	44.87
693.137	45.46
693.322	44.79
693.507	43.95
693.692	43.68
693.877	44.14
694.062	44.1
694.247	43.97
694.432	44.97
694.617	45.96
694.802	45.85
694.987	45.95
695.172	45.55
695.357	45.98
695.541	46.24
695.726	46.37
695.911	46.59
696.096	46.5
696.281	46.51
696.466	45.5
696.65	44.9
696.835	45.18
697.02	45.18
697.204	45.12
697.389	45.01
697.574	44.87
697.759	44.73
697.943	44.54
698.128	44.43
698.312	44.28
698.497	44.66
698.682	44.79
698.866	44.76
699.051	45.06
699.235	45.24
699.42	45.06
699.604	45.61
699.789	45.63
699.973	45.85
700.158	46.1
700.342	46.32
700.527	46.6
700.711	46.46
700.895	46.37
701.08	46.05
701.264	45.88
701.448	46.34
701.633	45.93
701.817	46.38
702.001	45.85
702.186	45.99
702.37	46.21
702.554	46.03
702.738	46.07
702.923	46.16
703.107	46.35
703.291	46.63
703.475	45.78
703.659	46.44
703.843	45.88
704.027	46.18
704.212	45.57
704.396	45.43
704.58	45.25
704.764	45.54
704.948	45.43
705.132	45.52
705.316	45.28
705.5	45.69
705.684	45.17
705.868	45.56
706.052	45.86
706.235	46.22
706.419	45.49
706.603	45.54
706.787	45.84
706.971	45.55
707.155	45.67
707.339	45.85
707.522	45.85
707.706	45.82
707.89	45.54
708.074	45.06
708.257	45
708.441	45.82
708.625	45.44
708.808	45.03
708.992	45.13
709.176	44.6
709.359	44.75
709.543	44.83
709.727	45.02
709.91	44.93
710.094	45.32
710.277	45.41
710.461	44.92
710.644	45.12
710.828	45.45
711.011	46.02
711.195	46.22
711.378	46.01
711.562	46.11
711.745	46.2
711.928	46.32
712.112	45.99
712.295	45.55
712.478	45.31
712.662	45.94
712.845	45.41
713.028	45.01
713.212	44.83
713.395	44.98
713.578	44.79
713.761	44.57
713.945	44.55
714.128	44.92
714.311	45.26
714.494	45.52
714.677	45.2
714.86	45.56
715.043	45.7
715.227	46
715.41	45.82
715.593	46.43
715.776	46.25
715.959	46.39
716.142	46.09
716.325	45.69
716.508	45.88
716.691	45.85
716.874	46
717.057	45.89
717.239	45.91
717.422	45.74
717.605	45.42
717.788	45.86
717.971	45.89
718.154	46.14
718.337	46.98
718.519	46.8
718.702	46.79
718.885	46.44
719.068	46.63
719.25	47.62
719.433	47.91
719.616	47.61
719.798	47.25
719.981	47.25
720.164	47.27
720.346	46.53
720.529	45.99
720.712	45.08
720.894	45.73
721.077	45.4
721.259	45.2
721.442	45.35
721.624	45.59
721.807	45.64
721.989	45.9
722.172	45.61
722.354	45.9
722.537	47.39
722.719	48.54
722.901	48.21
723.084	48.97
723.266	48.02
723.448	47.12
723.631	48.47
723.813	48.52
723.995	48.63
724.178	48.5
724.36	48.52
724.542	46.99
724.724	46.79
724.907	47.15
725.089	46.83
725.271	46.53
725.453	47.87
725.635	46.42
725.817	47.34
725.999	47.17
726.181	47.88
726.364	47.65
726.546	48.31
726.728	48.71
726.91	47.75
727.092	47.55
727.274	47.86
727.456	47.05
727.638	47.54
727.819	46.8
728.001	46.77
728.183	46.01
728.365	46.37
728.547	46.41
728.729	45.96
728.911	46.71
729.093	46.61
729.274	46.98
729.456	46.9
729.638	46.41
729.82	45.88
730.001	45.77
730.183	46.46
730.365	46.08
730.546	46.27
730.728	45.83
730.91	45.6
731.091	45.26
731.273	44.89
731.455	45.15
731.636	45.04
731.818	45.34
731.999	45.47
732.181	45.31
732.362	45.85
732.544	45.3
732.725	45.35
732.907	45.14
733.088	45.78
733.27	45.98
733.451	45.97
733.633	47.13
733.814	46.78
733.995	46.12
734.177	46.55
734.358	46.01
734.539	47.31
734.721	47.56
734.902	47.57
735.083	47.2
735.264	46.66
735.446	46.74
735.627	45.86
735.808	46.11
735.989	46.79
736.17	45.59
736.351	46.09
736.533	45.78
736.714	45.89
736.895	45.4
737.076	45.58
737.257	45.43
737.438	44.38
737.619	43.95
737.8	44.3
737.981	43.2
738.162	43.8
738.343	43.77
738.524	43.6
738.705	44.08
738.886	44.31
739.067	43.57
739.247	44.03
739.428	44.27
739.609	44.82
739.79	45.34
739.971	47.23
740.151	46.93
740.332	47.4
740.513	46.63
740.694	45.92
740.874	45.7
741.055	46.64
741.236	47.44
741.417	48.3
741.597	47.93
741.778	47.18
741.958	45.89
742.139	46.3
742.32	45.35
742.5	45.67
742.681	45.99
742.861	46.83
743.042	46.43
743.222	45.48
743.403	45.92
743.583	46.32
743.764	47.3
743.944	47.14
744.124	46.75
744.305	48.03
744.485	48
744.666	47.32
744.846	47.31
745.026	47.16
745.207	46.59
745.387	45.88
745.567	44.76
745.747	43.01
745.928	43.55
746.108	44.25
746.288	42.36
746.468	43.13
746.648	43.21
746.829	43.09
747.009	43.42
747.189	44.07
747.369	44.58
747.549	45.05
747.729	45.68
747.909	45.84
748.089	45.88
748.269	46.46
748.449	46.66
748.629	47.56
748.809	47.66
748.989	46.21
749.169	46.65
749.349	45.95
749.529	46.92
749.709	47.61
749.889	47.73
750.068	47.71
750.248	48.38
750.428	47.56
750.608	47.57
750.788	47.54
750.967	49.06
751.147	48.85
751.327	48.71
751.507	47.8
751.686	47.16
751.866	46.77
752.046	46.28
752.225	47.29
752.405	48.13
752.585	47.04
752.764	47.24
752.944	46.92
753.123	47.46
753.303	48.95
753.482	48.96
753.662	49.76
753.841	49.24
754.021	48.62
754.2	48.39
754.38	48.1
754.559	48.79
754.739	47.58
754.918	47.44
755.097	46.63
755.277	45.32
755.456	45.11
755.635	44.67
755.815	45.57
755.994	46.12
756.173	45.52
756.352	45.83
756.532	46.22
756.711	47.7
756.89	47.79
757.069	47.66
757.248	46.67
757.427	46.93
757.607	46.84
757.786	47.43
757.965	48.18
758.144	47.27
758.323	46.49
758.502	45.99
758.681	45.42
758.86	45.3
759.039	46.02
759.218	47.87
759.397	47.92
759.576	47.53
759.755	46.4
759.934	45.75
760.113	45.04
760.291	45.08
760.47	45.38
760.649	46.06
760.828	46.04
761.007	45.26
761.186	45.1
761.364	44.67
761.543	44.89
761.722	45.16
761.901	44.89
762.079	46.15
762.258	45.78
762.437	46.03
762.615	45.79
762.794	46.68
762.972	47.28
763.151	47.06
763.33	47.34
763.508	47.73
763.687	48.12
763.865	48.81
764.044	49.04
764.222	49.16
764.401	49.01
764.579	48.89
764.758	48.04
764.936	48.06
765.114	48.15
765.293	48.25
765.471	48.15
765.65	47.84
765.828	47.5
766.006	46.96
766.184	46.96
766.363	46.51
766.541	46.38
766.719	47.37
766.898	46.77
767.076	47.2
767.254	46.96
767.432	47.22
767.61	47.24
767.788	46.57
767.967	46.88
768.145	47.48
768.323	47.95
768.501	47.77
768.679	46.95
768.857	47.51
769.035	46.97
769.213	48.03
769.391	47.81
769.569	47.87
769.747	48.41
769.925	48.07
770.103	46.73
770.281	46.81
770.459	46.99
770.636	48.39
770.814	48.82
770.992	47.67
771.17	46.62
771.348	45.26
771.525	45.38
771.703	46.27
771.881	46.14
772.059	47.64
772.236	47.09
772.414	47.82
772.592	46.25
772.769	44.2
772.947	45.94
773.125	46.39
773.302	49.47
773.48	48.71
773.657	48.31
773.835	48.91
774.013	47.78
774.19	47.9
774.368	47.08
774.545	47.04
774.723	47.48
774.9	46.11
775.077	48.06
775.255	46.86
775.432	47.13
775.61	47.01
775.787	45.95
775.964	46.25
776.142	48.21
776.319	48.32
776.496	49.31
776.674	52.29
776.851	53.71
777.028	52.22
777.205	52.29
777.382	52.22
777.56	52.33
777.737	52.91
777.914	52.8
778.091	51.64
778.268	52.2
778.445	51.95
778.622	49.35
778.8	49.88
778.977	48.01
779.154	56.46
779.331	56.77
779.508	56.68
779.685	57.27
779.862	57.21
780.038	57.05
780.215	56.99
780.392	56.1
780.569	58.93
780.746	57.04
780.923	58.08
781.1	49.63
781.277	49.63
781.453	49.16
781.63	49.03
781.807	49.4
781.984	50.77
782.16	50.78
782.337	51
782.514	48.57
782.691	49.92
782.867	47.61
783.044	46.25
783.221	45.54
783.397	46.55
783.574	46.47
783.75	47.99
783.927	45.27
784.103	45.8
784.28	45.47
784.456	46.23
784.633	44.2
784.809	46.31
784.986	45.6
785.162	45.78
785.339	46.2
785.515	47.2
785.692	45.47
785.868	46.46
786.044	42.49
786.221	42.97
786.397	43.21
786.573	44.87
786.749	45.73
786.926	45.35
787.102	46.46
787.278	45.5
787.454	45.28
787.631	46.26
787.807	45.88
787.983	47.43
788.159	47.44
788.335	47.28
788.511	47.13
788.687	47.66
788.863	48.14
789.039	48.26
789.216	47.97
789.392	46.71
789.568	45.88
789.744	47.1
789.919	48.44
790.095	47.88
790.271	47.68
790.447	46.72
790.623	46.65
790.799	45.95
790.975	44.95
791.151	45.39
791.327	46.29
791.502	45.54
791.678	46.03
791.854	46.55
792.03	47.58
792.205	47.47
792.381	48.81
792.557	48.79
792.733	50.27
792.908	50.91
793.084	50.5
793.259	49.58
793.435	51.9
793.611	50.77
793.786	50.7
793.962	49.86
794.137	50.34
794.313	49
794.488	48
794.664	47.59
794.839	48.33
795.015	48.27
795.19	48.53
795.366	47.75
795.541	48.24
795.716	47.93
795.892	47.39
796.067	46.54
796.242	46.8
796.418	47.38
796.593	47.94
796.768	45.83
796.944	45.63
797.119	45.44
797.294	45.98
797.469	46.93
797.644	48.15
797.82	48.47
797.995	48.76
798.17	50.54
798.345	50.04
798.52	49.45
798.695	51.32
798.87	52.92
799.045	54.45
799.22	53.7
799.395	51.86
799.57	51.56
799.745	53.38
799.92	53.07
800.095	51.72
800.27	50.46
800.445	49.82
800.62	45.29
800.795	44.27
800.97	43.85
801.145	44.22
801.319	43.01
801.494	42.06
801.669	40.16
801.844	42.49
802.018	43.21
802.193	44.57
802.368	45.24
802.543	46.45
802.717	44.17
802.892	45.21
803.067	45.32
803.241	46.5
803.416	47.64
803.59	48.09
803.765	46.48
803.94	44.91
804.114	45.97
804.289	46.93
804.463	50.57
804.638	51.92
804.812	51.77
804.986	50.63
805.161	50.96
805.335	51.25
805.51	51.87
805.684	50.73
805.858	52.64
806.033	52.32
806.207	48.59
806.381	47.89
806.556	48.14
806.73	48.77
806.904	50.52
807.078	50.42
807.253	50.36
807.427	49.65
807.601	49.49
807.775	47.99
807.949	45.71
808.123	48.92
808.298	48.65
808.472	49.81
808.646	46.6
808.82	44.62
808.994	46.77
809.168	45.64
809.342	44.52
809.516	45.43
809.69	46.69
809.864	48.34
810.038	48.72
810.212	48.39
810.385	47.64
810.559	47.93
810.733	47.98
810.907	46.37
811.081	49.51
811.255	51.56
811.428	51.78
811.602	52.91
811.776	52.55
811.95	50.36
812.123	50.13
812.297	48.47
812.471	48.09
812.644	50.26
812.818	52.94
812.992	50.94
813.165	51.44
813.339	52.44
813.512	52.74
813.686	50.55
813.86	50.54
814.033	51.67
814.207	57.3
814.38	58.48
814.554	57.76
814.727	56.96
814.9	53.62
815.074	56.3
815.247	54.87
815.421	51.52
815.594	53.29
815.767	57.25
815.941	55.17
816.114	49.95
816.287	50.41
816.46	51.14
816.634	46.79
816.807	46.32
816.98	43.58
817.153	43.24
817.327	44.18
817.5	46.72
817.673	43.62
817.846	42.53
818.019	45.47
818.192	47.86
818.365	43.96
818.538	43.93
818.711	45.99
818.884	44.89
819.057	46
819.23	45.9
819.403	44.94
819.576	44.91
819.749	47.78
819.922	47.95
820.095	45.11
820.268	46.35
820.441	46.04
820.614	44.62
820.786	43.61
820.959	43.99
821.132	44.75
821.305	44.23
821.477	44.61
821.65	44.87
821.823	44.95
821.996	45.21
822.168	45.59
822.341	45.84
822.514	45.25
822.686	46.06
822.859	46.21
823.031	45.91
823.204	46.2
823.376	45.98
823.549	45.81
823.722	45.28
823.894	45.23
824.067	44.89
824.239	45
824.411	45.93
824.584	45.9
824.756	45.49
824.929	45.32
825.101	45.47
825.273	45.47
825.446	45.04
825.618	45.33
825.79	45.46
825.963	46.44
826.135	46.12
826.307	44.88
826.479	44.98
826.652	45.14
826.824	45.46
826.996	45
827.168	46.25
827.34	46.74
827.512	46.8
827.684	46.71
827.856	45.88
828.029	46.38
828.201	47.4
828.373	46.67
828.545	46.16
828.717	46.41
828.889	46.02
829.061	45.36
829.232	46.15
829.404	46.28
829.576	44.87
829.748	45.19
829.92	45.22
830.092	46.76
830.264	47.16
830.436	47.51
830.607	47.89
830.779	47.95
830.951	47.52
831.123	44.02
831.294	44.81
831.466	48.19
831.638	47.15
831.809	46.79
831.981	43.8
832.153	42.11
832.324	44.08
832.496	43.47
832.667	46.89
832.839	45.46
833.011	48.24
833.182	46.69
833.354	46.09
833.525	44.83
833.697	44.19
833.868	46.08
834.039	49.84
834.211	49.15
834.382	47.98
834.554	46.56
834.725	46.72
834.896	46.31
835.068	45.52
835.239	44.07
835.41	46.08
835.581	47.85
835.753	45.74
835.924	43.73
836.095	41.46
836.266	41.32
836.438	39.96
836.609	40.88
836.78	42.45
836.951	43.07
837.122	42.59
837.293	41.4
837.464	39.32
837.635	41.45
837.806	42.84
837.977	43.85
838.148	45.54
838.319	46.39
838.49	46.34
838.661	45.02
838.832	46.83
839.003	52.59
839.174	55.77
839.345	57.33
839.516	58.5
839.687	59.84
839.857	58.74
840.028	54.6
840.199	54.45
840.37	53.23
840.54	52.61
840.711	49.29
840.882	43.28
841.053	40.3
841.223	42.1
841.394	37.14
841.564	33.58
841.735	34.49
841.906	39.29
842.076	41.27
842.247	41.21
842.417	40.42
842.588	42.44
842.758	40.49
842.929	37.53
843.099	34.14
843.27	35.64
843.44	34.17
843.611	36.91
843.781	32.99
843.951	33.66
844.122	35.25
844.292	34.36
844.462	33.76
844.633	40.04
844.803	41.54
844.973	38.45
845.144	42.95
845.314	46.01
845.484	47.4
845.654	48.7
845.824	51.34
845.995	52.55
846.165	52.9
846.335	56.56
846.505	56.03
846.675	56.19
846.845	62.08
847.015	55.79
847.185	58.87
847.355	53.87
847.525	60.08
847.695	48.83
847.865	48.35
848.035	52.71
848.205	51.63
848.375	47.33
848.545	43.82
848.715	46.04
848.884	52.91
849.054	51.1
849.224	60.2
849.394	60.69
849.564	65.56
849.733	62.29
849.903	59.34
850.073	57.03
850.243	60.54
850.412	69.01
850.582	65.14
850.752	63.24
850.921	57.18
851.091	56.91
851.26	53.71
851.43	54.48
851.599	56.56
851.769	60.15
851.939	64.3
852.108	60.5
852.278	60.5
852.447	66.02
852.616	61.37
852.786	64.04
852.955	57.86
853.125	55.96
853.294	56.54
853.463	52.59
853.633	46.23
853.802	51.88
853.971	54.94
854.141	51.29
854.31	60.29
854.479	62.71
854.648	55.73
854.818	55.68
854.987	63.94
855.156	58.34
855.325	63.03
855.494	68.71
855.663	51.61
855.832	49.98
856.001	39.48
856.171	31.76
856.34	30.86
856.509	38.83
856.678	46.1
856.847	46.98
857.016	56.18
857.185	57.24
857.353	50.27
857.522	51.38
857.691	46.43
857.86	46.17
858.029	49.19
858.198	55.29
858.367	49.23
858.535	42.71
858.704	36.48
858.873	30.92
859.042	24.04
859.21	30.86
859.379	34.1
859.548	33.4
859.717	38.03
859.885	38.51
860.054	37.3
860.222	38.98
860.391	48.35
860.56	54.96
860.728	50.46
860.897	58.06
861.065	51.38
861.234	48.46
861.402	45.7
861.571	50.49
861.739	53.26
861.908	53.28
862.076	53.57
862.244	53.11
862.413	49.75
862.581	54.66
862.749	58.85
862.918	68.02
863.086	78.59
863.254	80.94
863.423	72.25
863.591	62.98
863.759	57.84
863.927	62.6
864.096	52.51
864.264	44.79
864.432	45.99
864.6	39.54
864.768	31.92
864.936	26.44
865.104	23.2
865.272	34.05
865.44	32.03
865.608	31.42
865.776	27.2
865.944	31.95
866.112	35.87
866.28	38.25
866.448	40.69
866.616	40.58
866.784	32.38
866.952	32.28
867.12	30.25
867.288	45.24
867.455	46.16
867.623	45.27
867.791	44.16
867.959	50.71
868.127	46.65
868.294	50.1
868.462	46.45
868.63	54.67
868.797	59.45
868.965	69.33
869.133	61.15
869.3	70.32
869.468	61.76
869.636	68.9
869.803	60.78
869.971	63.93
870.138	52.06
870.306	64.91
870.473	55.1
870.641	53.83
870.808	49.06
870.975	51.66
871.143	35.4
871.31	43.07
871.478	47.17
871.645	39.46
871.812	33.88
871.98	43.8
872.147	36.31
872.314	38.77
872.482	33.99
872.649	30.53
872.816	39.03
872.983	46.55
873.15	52.64
873.318	42.87
873.485	49.91
873.652	49.91
873.819	44.09
873.986	40.47
874.153	37.29
874.32	37.1
874.487	36.68
874.654	28.37
874.821	19.04
874.988	13.94
875.155	5.12
875.322	10.73
875.489	8.24
875.656	3.72
875.823	10.05
875.99	15.08
876.157	29.01
876.324	34.92
876.49	28.52
876.657	36.44
876.824	41.35
876.991	45.77
877.157	39.63
877.324	41.5
877.491	41.53
877.658	43.94
877.824	45.97
877.991	41.4
878.157	38.22
878.324	42.13
878.491	43.03
878.657	35.48
878.824	33.59
878.99	31.92
879.157	32.61
879.323	29.63
879.49	36.09
879.656	43.06
879.823	44.64
879.989	42.56
880.156	35.74
880.322	32.02
880.488	34.48
880.655	34.65
880.821	38.17
880.987	35.39
881.154	37.04
881.32	45.66
881.486	42.89
881.652	40.46
881.819	42.85
881.985	48.31
882.151	49.51
882.317	49.06
882.483	49.42
882.649	50.38
882.816	49.97
882.982	50.29
883.148	46.87
883.314	47.32
883.48	47.43
883.646	47.88
883.812	46.9
883.978	47.1
884.144	47.3
884.31	47.71
884.476	45.51
884.642	44.74
884.807	44.35
884.973	45.78
885.139	46.36
885.305	44.78
885.471	43.79
885.637	45.92
885.802	45.41
885.968	46.45
886.134	46.62
886.3	47.24
886.465	48.36
886.631	51.15
886.797	50.04
886.962	48.12
887.128	51.76
887.293	52.14
887.459	49.42
887.625	49.38
887.79	47.75
887.956	45.35
888.121	49.53
888.287	51.32
888.452	46.82
888.618	43.39
888.783	44.43
