Data from LC_266_Reflection_3.txt Node
Date: Sat Nov 21 11:54:19 EST 2015
User: robert
Spectrometer: USB4E03001
Autoset integration time: false
Trigger mode: 4
Integration Time (sec): 1.000000E-1
Scans to average: 15
Electric dark correction enabled: true
Nonlinearity correction enabled: false
Boxcar width: 5
Stray light correction enabled: false
XAxis mode: Wavelengths
Stop averaging: false
Number of Pixels in Spectrum: 3648
>>>>>Begin Spectral Data<<<<<
177.566	232.4
177.785	229
178.005	561.95
178.225	-117.97
178.445	-139.06
178.665	-791.76
178.885	184.54
179.105	-345.45
179.324	-83.03
179.544	-162.28
179.764	-318.46
179.984	-5.98
180.204	-17.52
180.423	-3.02
180.643	13.93
180.863	31.32
181.083	18.9
181.302	48.42
181.522	80.86
181.742	83.07
181.961	84.07
182.181	79
182.401	112.57
182.621	121.73
182.84	122.69
183.06	104.61
183.279	96.99
183.499	79.73
183.719	56.99
183.938	55.81
184.158	55.71
184.377	61.01
184.597	63.31
184.816	62.03
185.036	49.43
185.256	63.23
185.475	47.97
185.695	45.08
185.914	59.61
186.134	54.56
186.353	70.37
186.572	72.57
186.792	72.11
187.011	65.37
187.231	67.17
187.45	84.24
187.67	84.19
187.889	101.09
188.108	115.53
188.328	110.69
188.547	140.38
188.766	117.34
188.986	104.35
189.205	-24.12
189.424	-220.79
189.644	-153.75
189.863	402.1
190.082	696.25
190.302	-1119.03
190.521	-97.76
190.74	-25.66
190.959	-32.43
191.178	-22.26
191.398	24.24
191.617	56.58
191.836	80.46
192.055	84.73
192.274	90.13
192.494	87.91
192.713	82.43
192.932	88.15
193.151	52.36
193.37	51.54
193.589	46.18
193.808	30.34
194.027	30.73
194.246	19.33
194.465	27.72
194.685	29.52
194.904	16.84
195.123	28.52
195.342	20.87
195.561	44.69
195.78	23.81
195.999	8.89
196.218	39.58
196.436	46.29
196.655	34.55
196.874	39.89
197.093	15.3
197.312	33.87
197.531	51.76
197.75	53.97
197.969	38.61
198.188	49.35
198.407	49.57
198.625	37.77
198.844	43.85
199.063	51.56
199.282	35.78
199.501	32.8
199.719	34.14
199.938	44.33
200.157	48.1
200.376	65.41
200.594	65.88
200.813	66.41
201.032	80.34
201.251	60.97
201.469	65.42
201.688	103.55
201.907	110.33
202.125	94.48
202.344	82.02
202.563	106.37
202.781	107.91
203	130.43
203.218	113.74
203.437	157.02
203.656	319.86
203.874	299.24
204.093	152.31
204.311	153.44
204.53	187.69
204.748	121.24
204.967	116.65
205.185	73.2
205.404	74.22
205.622	175.21
205.841	111.64
206.059	95.34
206.278	78.33
206.496	32.16
206.715	-2.71
206.933	22.18
207.151	80.78
207.37	57.62
207.588	69.81
207.806	69.89
208.025	41.77
208.243	47.84
208.461	29.83
208.68	73.73
208.898	97.38
209.116	64.13
209.335	61.43
209.553	59.69
209.771	42.99
209.989	84.01
210.208	66.93
210.426	95.19
210.644	68.72
210.862	105.7
211.081	-55.78
211.299	27.65
211.517	54.88
211.735	26.8
211.953	14.68
212.171	23.66
212.39	12.58
212.608	3.44
212.826	20.75
213.044	25.2
213.262	42.15
213.48	51.27
213.698	50.19
213.916	39.16
214.134	51.67
214.352	47.95
214.57	58.08
214.788	63.22
215.006	68.33
215.224	55.19
215.442	44.8
215.66	50.87
215.878	47.81
216.096	43.44
216.314	61.03
216.532	53.67
216.75	68.95
216.968	59.89
217.185	49.21
217.403	71
217.621	56.03
217.839	69.6
218.057	62.78
218.275	52.74
218.492	33.9
218.71	42.09
218.928	56.92
219.146	38.88
219.363	33.83
219.581	45.07
219.799	12.2
220.017	44.07
220.234	54.71
220.452	35.95
220.67	56.99
220.887	52.82
221.105	48.67
221.323	27.87
221.54	22.04
221.758	18.28
221.976	11.98
222.193	10.17
222.411	10.6
222.629	3
222.846	-6.74
223.064	-13.82
223.281	5.4
223.499	-6.96
223.716	14.77
223.934	24.64
224.151	36.19
224.369	26.59
224.586	18.56
224.804	19.66
225.021	27.02
225.239	40.75
225.456	37.41
225.674	30.56
225.891	36.09
226.108	37.1
226.326	29.6
226.543	26.97
226.76	27.29
226.978	28.58
227.195	23.58
227.413	19.59
227.63	20.69
227.847	21.12
228.064	20.76
228.282	18.74
228.499	15.6
228.716	17.36
228.934	14.76
229.151	15.77
229.368	17.07
229.585	17.97
229.802	18.57
230.02	15.61
230.237	15.92
230.454	17.33
230.671	16.07
230.888	17.12
231.105	16.2
231.323	17.65
231.54	15.38
231.757	14.76
231.974	14.16
232.191	12.5
232.408	17.45
232.625	18.7
232.842	18.82
233.059	18.07
233.276	24.73
233.493	29.07
233.71	31.35
233.927	32.35
234.144	33.38
234.361	33.68
234.578	32.84
234.795	29.82
235.012	26.55
235.229	26.15
235.446	25.56
235.663	17.36
235.879	11.67
236.096	8
236.313	11.83
236.53	7.31
236.747	5.81
236.964	5.96
237.181	8.16
237.397	7.53
237.614	0.82
237.831	0.59
238.048	5.67
238.264	8.36
238.481	4.98
238.698	7.88
238.915	10.92
239.131	6.49
239.348	4.66
239.565	3.7
239.781	7.93
239.998	11.45
240.215	9.22
240.431	5.77
240.648	7.25
240.865	8.17
241.081	4.02
241.298	3.7
241.514	8.79
241.731	8.01
241.947	8.53
242.164	8.87
242.38	9.64
242.597	11.27
242.814	10.94
243.03	11.92
243.246	11.87
243.463	12.66
243.679	13.85
243.896	12.38
244.112	15.21
244.329	15.51
244.545	14.25
244.762	15.01
244.978	13.43
245.194	13.56
245.411	11.73
245.627	12.2
245.843	9.49
246.06	9.56
246.276	7.81
246.492	8.18
246.709	7.4
246.925	8.16
247.141	7.81
247.357	7.99
247.574	7.75
247.79	7.29
248.006	8.2
248.222	8.34
248.439	7.81
248.655	9.73
248.871	9.64
249.087	10.57
249.303	10.69
249.519	10.59
249.736	11.16
249.952	13.17
250.168	14.78
250.384	14.97
250.6	16.51
250.816	18.46
251.032	17.65
251.248	16.93
251.464	16.11
251.68	15.55
251.896	15.84
252.112	14.71
252.328	13.25
252.544	13.67
252.76	13.48
252.976	13.73
253.192	13.27
253.408	13.31
253.624	12.76
253.84	13.2
254.056	13
254.272	10.86
254.487	12.79
254.703	14.16
254.919	13.18
255.135	12.49
255.351	12.71
255.567	10.03
255.782	7.2
255.998	8.62
256.214	6.94
256.43	8.06
256.646	9.77
256.861	11.14
257.077	12.53
257.293	13.16
257.508	13.46
257.724	14.99
257.94	16.83
258.155	16.36
258.371	15.85
258.587	15.97
258.802	14.43
259.018	13.29
259.234	11.77
259.449	10.7
259.665	10
259.88	9.29
260.096	8.36
260.312	9.06
260.527	9.11
260.743	8.31
260.958	7.86
261.174	7.56
261.389	8.01
261.605	8.11
261.82	7.98
262.036	8.56
262.251	8.04
262.466	8.57
262.682	6
262.897	5.9
263.113	7.93
263.328	10.75
263.543	12.37
263.759	12.46
263.974	13.74
264.189	15.36
264.405	16.42
264.62	18.93
264.835	18.91
265.051	19.25
265.266	19.6
265.481	18.33
265.696	16.72
265.912	15.99
266.127	15.34
266.342	14.46
266.557	12.98
266.773	10.96
266.988	10.49
267.203	10.36
267.418	10.13
267.633	9.86
267.848	9.02
268.064	7.73
268.279	7.57
268.494	7.71
268.709	8.48
268.924	8.95
269.139	9.1
269.354	8.67
269.569	8.01
269.784	8.8
269.999	7.63
270.214	8.96
270.429	9.41
270.644	8.79
270.859	7.92
271.074	6.15
271.289	4.91
271.504	4.95
271.719	4.28
271.934	5.26
272.149	5.04
272.363	5.26
272.578	4.24
272.793	3.99
273.008	5.15
273.223	5.72
273.438	6.32
273.653	8.43
273.867	9.13
274.082	9.98
274.297	8.45
274.512	7.94
274.726	8.92
274.941	9.35
275.156	10.05
275.371	9.22
275.585	10.39
275.8	9.77
276.015	7.92
276.229	6.18
276.444	6.4
276.659	7.68
276.873	9.25
277.088	10.46
277.302	10.74
277.517	10.18
277.732	9.52
277.946	8.58
278.161	8.98
278.375	8.62
278.59	10.99
278.804	9.94
279.019	8.62
279.233	7.9
279.448	5.98
279.662	5.93
279.877	5.37
280.091	6.39
280.306	6.66
280.52	7.06
280.735	7.86
280.949	6.56
281.163	6.96
281.378	6.42
281.592	6.4
281.806	7.47
282.021	6.91
282.235	7.37
282.449	7.97
282.664	7.48
282.878	7.58
283.092	8.34
283.307	8.27
283.521	8.94
283.735	9.89
283.949	9.78
284.164	7.65
284.378	8.01
284.592	7.37
284.806	7
285.02	7.29
285.234	7.3
285.449	6.52
285.663	7.07
285.877	7.01
286.091	7.35
286.305	6.87
286.519	7.77
286.733	7.77
286.947	8.54
287.161	8.49
287.375	8.45
287.589	8.43
287.803	8.61
288.017	7.97
288.231	7.79
288.445	7.25
288.659	8.08
288.873	8.46
289.087	8.98
289.301	8.4
289.515	8.48
289.729	9.2
289.943	9.42
290.157	9.36
290.371	10.76
290.584	10.68
290.798	11.23
291.012	11.33
291.226	10.99
291.44	10.36
291.654	10.84
291.867	9.89
292.081	9.71
292.295	10
292.509	11.12
292.722	10.5
292.936	9.79
293.15	9.45
293.364	9.23
293.577	9.58
293.791	10.53
294.005	9.3
294.218	10.21
294.432	10.02
294.645	10.3
294.859	9.16
295.073	8.13
295.286	9.76
295.5	9.61
295.713	8.98
295.927	9.73
296.14	9.6
296.354	10.68
296.568	10.93
296.781	10.99
296.994	10.93
297.208	10.88
297.421	11.49
297.635	10.75
297.848	10.9
298.062	11.72
298.275	11.54
298.489	11.35
298.702	11.44
298.915	10.73
299.129	10.6
299.342	9.97
299.555	9.78
299.769	10.53
299.982	11.2
300.195	11.68
300.409	11.44
300.622	11.97
300.835	11.97
301.048	12.33
301.262	13.41
301.475	13.47
301.688	13.71
301.901	14.16
302.115	12.64
302.328	11.71
302.541	10.83
302.754	10.55
302.967	10.19
303.18	9.7
303.393	9.83
303.607	9.08
303.82	9.44
304.033	9.13
304.246	9.6
304.459	11.05
304.672	12.09
304.885	13.55
305.098	14.36
305.311	13.55
305.524	14.34
305.737	13.88
305.95	13.52
306.163	13.28
306.376	13.13
306.589	12.51
306.802	11.44
307.015	10.27
307.228	10.06
307.44	9.39
307.653	11.39
307.866	11.85
308.079	11.77
308.292	12.21
308.505	12.35
308.718	13.2
308.93	13.69
309.143	12.95
309.356	12.92
309.569	11.75
309.781	12.62
309.994	11.64
310.207	11.17
310.42	11.54
310.632	11.39
310.845	11.64
311.058	11.76
311.27	12.22
311.483	13.7
311.696	13.87
311.908	14.46
312.121	12.86
312.333	13.03
312.546	13.27
312.759	12.8
312.971	13.19
313.184	12.88
313.396	12.62
313.609	11.89
313.821	9.9
314.034	10.88
314.246	11.35
314.459	12.43
314.671	11.65
314.884	11.65
315.096	12.4
315.309	11.93
315.521	11.44
315.733	11.28
315.946	12.11
316.158	12.68
316.371	11.95
316.583	12.36
316.795	12.59
317.008	13.69
317.22	13
317.432	12.78
317.644	14.48
317.857	15.28
318.069	14.04
318.281	13.31
318.494	14.21
318.706	14.6
318.918	13.38
319.13	13.08
319.342	13.01
319.555	12.87
319.767	13.86
319.979	13.58
320.191	13.17
320.403	14.86
320.615	14.36
320.827	13.58
321.039	11.72
321.252	12.41
321.464	11.99
321.676	10.26
321.888	11.18
322.1	10.27
322.312	9.32
322.524	9.23
322.736	9.92
322.948	11.39
323.16	12.2
323.372	13.87
323.584	14.53
323.796	15.1
324.007	16.46
324.219	16.11
324.431	16.67
324.643	17.21
324.855	16.86
325.067	16.13
325.279	15.96
325.491	15.83
325.702	15.95
325.914	15.53
326.126	15.43
326.338	14.03
326.55	14.38
326.761	13.31
326.973	13.45
327.185	14.11
327.396	14.27
327.608	13.86
327.82	14.85
328.032	14.18
328.243	13.47
328.455	13.86
328.666	15.88
328.878	17.19
329.09	17.76
329.301	18.5
329.513	18.6
329.725	18.47
329.936	19.07
330.148	19.03
330.359	20.16
330.571	21.61
330.782	22.63
330.994	23.49
331.205	23.78
331.417	24.45
331.628	24
331.84	24.31
332.051	25.22
332.262	24.73
332.474	24.46
332.685	24.28
332.897	23.89
333.108	22.54
333.319	22.44
333.531	22.17
333.742	23.04
333.953	22.88
334.165	23.04
334.376	21.99
334.587	23.22
334.799	23.83
335.01	24.85
335.221	25.88
335.432	27.14
335.644	26.37
335.855	26.16
336.066	25.64
336.277	26.56
336.488	26.39
336.7	26.8
336.911	26.62
337.122	26.42
337.333	26.02
337.544	25.8
337.755	25.64
337.966	25.88
338.177	25.49
338.388	25.21
338.599	25.41
338.811	26.43
339.022	26.53
339.233	25.79
339.444	24.98
339.655	25.12
339.866	24.75
340.076	24.63
340.287	24.55
340.498	25.16
340.709	24.62
340.92	24.25
341.131	24.25
341.342	24.73
341.553	25.66
341.764	25.69
341.975	25.92
342.185	25.73
342.396	26.2
342.607	27.27
342.818	27.25
343.029	28.12
343.239	27.99
343.45	27.22
343.661	27.7
343.872	26.79
344.082	27.54
344.293	27.17
344.504	27.45
344.714	27.05
344.925	25.85
345.136	26.17
345.346	26.68
345.557	26.31
345.768	26.55
345.978	26.08
346.189	26.09
346.399	25.78
346.61	26.21
346.821	25.49
347.031	24.56
347.242	24.66
347.452	24.04
347.663	23.81
347.873	23.77
348.084	24.11
348.294	23.97
348.504	23.83
348.715	23.94
348.925	23.27
349.136	24
349.346	25.52
349.557	25.82
349.767	26.37
349.977	26.21
350.188	26.48
350.398	25.95
350.608	26.2
350.819	26.76
351.029	26.63
351.239	26.48
351.449	26.21
351.66	25.65
351.87	25.92
352.08	26.16
352.29	25.79
352.501	26.01
352.711	25.97
352.921	25.81
353.131	26.02
353.341	26.2
353.552	26.64
353.762	26.5
353.972	26.98
354.182	27.54
354.392	26.52
354.602	26.81
354.812	26.86
355.022	26.64
355.232	26.74
355.442	26.4
355.652	26.61
355.862	26.28
356.072	26.71
356.282	26.44
356.492	25.56
356.702	25.81
356.912	25.57
357.122	25.7
357.332	25.65
357.542	25.07
357.752	25.16
357.962	24.98
358.171	25
358.381	24.6
358.591	24.4
358.801	24.81
359.011	25.13
359.221	24.79
359.43	24.56
359.64	25.1
359.85	25.44
360.06	25.47
360.269	25.76
360.479	25.64
360.689	25.28
360.899	25.08
361.108	24.91
361.318	24.1
361.528	24.59
361.737	24.69
361.947	24.21
362.156	24.09
362.366	24.01
362.576	23.45
362.785	23.7
362.995	24.1
363.204	24.34
363.414	23.89
363.623	24.58
363.833	24.07
364.042	23.91
364.252	24
364.461	24.17
364.671	24.31
364.88	24.44
365.09	23.69
365.299	23.42
365.509	22.76
365.718	22.85
365.927	23.07
366.137	22.92
366.346	22.75
366.555	22.56
366.765	22.27
366.974	22.13
367.183	21.83
367.393	22.29
367.602	23.18
367.811	23.56
368.021	23.57
368.23	23.17
368.439	23.24
368.648	22.95
368.857	23.22
369.067	22.88
369.276	23.02
369.485	23.32
369.694	23.42
369.903	22.32
370.112	22.75
370.321	22.69
370.531	22.4
370.74	22.47
370.949	22.76
371.158	22.64
371.367	23.08
371.576	22.7
371.785	22.84
371.994	22.63
372.203	22.98
372.412	22.52
372.621	22.5
372.83	22.61
373.039	22.69
373.248	22.54
373.457	22.24
373.666	22.01
373.874	21.29
374.083	20.92
374.292	20.92
374.501	20.77
374.71	20.3
374.919	19.85
375.128	20.04
375.336	19.81
375.545	20.22
375.754	20.7
375.963	20.54
376.171	21.26
376.38	21.17
376.589	20.66
376.798	20.38
377.006	20.58
377.215	21.08
377.424	20.77
377.632	20.6
377.841	20.01
378.05	19.85
378.258	20.1
378.467	19.82
378.675	19.87
378.884	19.95
379.093	20.01
379.301	20.38
379.51	20.04
379.718	20.19
379.927	20.62
380.135	20.81
380.344	20.74
380.552	20.25
380.761	20.25
380.969	20.37
381.177	20.55
381.386	20.22
381.594	20.01
381.803	19.68
382.011	19.82
382.219	19.42
382.428	19.13
382.636	18.85
382.845	19.19
383.053	18.97
383.261	18.55
383.469	18.17
383.678	18.28
383.886	18.11
384.094	17.88
384.302	17.33
384.511	17.24
384.719	17.02
384.927	16.95
385.135	16.83
385.343	16.91
385.552	17.06
385.76	17.42
385.968	17.6
386.176	17.44
386.384	18.02
386.592	17.76
386.8	17.67
387.008	17.83
387.216	18.13
387.424	18.26
387.633	18.1
387.841	17.86
388.049	17.71
388.257	17.68
388.465	17.62
388.672	17.65
388.88	17.7
389.088	17.5
389.296	17.32
389.504	16.96
389.712	16.53
389.92	16.39
390.128	16.37
390.336	16.18
390.544	15.99
390.751	16.14
390.959	16.11
391.167	16.18
391.375	16.37
391.583	16
391.79	16
391.998	16.15
392.206	16.4
392.414	16.25
392.621	16.07
392.829	15.75
393.037	15.61
393.244	15.42
393.452	15.43
393.66	15.71
393.867	16.26
394.075	16.35
394.283	15.94
394.49	15.9
394.698	15.93
394.905	16.2
395.113	16.4
395.32	16.59
395.528	16.4
395.735	16.32
395.943	15.97
396.15	15.81
396.358	15.38
396.565	15.81
396.773	15.81
396.98	15.77
397.188	15.55
397.395	15.55
397.602	15.31
397.81	15.32
398.017	15.14
398.225	15.13
398.432	15.19
398.639	15.26
398.847	15.25
399.054	15.16
399.261	15.16
399.468	15.44
399.676	15.59
399.883	15.52
400.09	15.67
400.297	15.89
400.505	15.59
400.712	15.42
400.919	15.26
401.126	15.15
401.333	14.99
401.54	15.25
401.748	14.96
401.955	14.87
402.162	14.98
402.369	14.77
402.576	14.42
402.783	14.72
402.99	14.5
403.197	14.56
403.404	14.37
403.611	14.33
403.818	13.96
404.025	13.91
404.232	13.88
404.439	13.71
404.646	13.51
404.853	14.04
405.06	13.95
405.267	14.14
405.474	14.06
405.681	13.96
405.887	13.84
406.094	14.04
406.301	14.05
406.508	13.94
406.715	13.85
406.922	13.91
407.128	13.68
407.335	13.75
407.542	13.96
407.749	14.27
407.955	14.27
408.162	14.27
408.369	14.28
408.575	14.43
408.782	14.34
408.989	14.51
409.195	14.4
409.402	14.3
409.609	14.32
409.815	13.77
410.022	13.66
410.228	13.88
410.435	14.09
410.642	14
410.848	14.06
411.055	14.03
411.261	13.72
411.468	13.79
411.674	13.79
411.881	13.65
412.087	13.86
412.294	14.02
412.5	13.9
412.706	13.77
412.913	13.69
413.119	13.42
413.326	13.57
413.532	13.62
413.738	13.72
413.945	13.89
414.151	13.64
414.357	13.55
414.564	13.41
414.77	13.75
414.976	13.76
415.182	13.75
415.389	13.93
415.595	13.77
415.801	13.78
416.007	13.77
416.214	13.51
416.42	13.54
416.626	13.68
416.832	13.55
417.038	13.36
417.244	13.34
417.45	13.39
417.657	13.23
417.863	13.27
418.069	13.61
418.275	13.66
418.481	13.76
418.687	13.71
418.893	13.49
419.099	13.52
419.305	13.45
419.511	13.39
419.717	13.31
419.923	13.16
420.129	13.25
420.335	13.03
420.541	12.92
420.746	12.73
420.952	12.87
421.158	12.92
421.364	12.95
421.57	12.85
421.776	12.9
421.982	12.93
422.187	12.92
422.393	12.73
422.599	12.61
422.805	12.6
423.01	12.73
423.216	12.67
423.422	12.72
423.628	12.69
423.833	12.71
424.039	12.65
424.245	12.55
424.45	12.72
424.656	12.73
424.862	12.81
425.067	12.82
425.273	12.65
425.478	12.64
425.684	12.57
425.889	12.5
426.095	12.45
426.301	12.52
426.506	12.61
426.712	12.39
426.917	12.29
427.123	12.32
427.328	12.37
427.533	12.56
427.739	12.53
427.944	12.64
428.15	12.66
428.355	12.79
428.561	12.8
428.766	12.7
428.971	12.66
429.177	13
429.382	12.96
429.587	12.7
429.793	12.59
429.998	12.69
430.203	12.37
430.408	12.34
430.614	12.14
430.819	12.15
431.024	12.16
431.229	12.29
431.434	12.05
431.64	11.87
431.845	11.91
432.05	11.89
432.255	11.73
432.46	11.96
432.665	11.87
432.87	12.02
433.076	11.82
433.281	11.69
433.486	11.66
433.691	11.74
433.896	11.72
434.101	11.72
434.306	11.71
434.511	11.74
434.716	11.46
434.921	11.42
435.126	11.39
435.331	11.51
435.535	11.55
435.74	11.55
435.945	11.56
436.15	11.7
436.355	11.75
436.56	11.87
436.765	11.94
436.97	12.03
437.174	12.19
437.379	12.32
437.584	12.27
437.789	12.25
437.993	12.35
438.198	12.31
438.403	12.24
438.608	12.3
438.812	12.15
439.017	12.16
439.222	12.23
439.426	12.25
439.631	12.18
439.836	12.25
440.04	12.37
440.245	12.37
440.45	12.36
440.654	12.3
440.859	12.22
441.063	12.23
441.268	12.14
441.472	12.13
441.677	12.05
441.881	12
442.086	11.89
442.29	11.91
442.495	11.78
442.699	11.72
442.904	11.77
443.108	11.71
443.312	11.74
443.517	11.86
443.721	11.9
443.925	11.86
444.13	11.73
444.334	11.75
444.538	11.64
444.743	11.72
444.947	11.81
445.151	11.84
445.356	11.81
445.56	11.84
445.764	11.67
445.968	11.66
446.173	11.73
446.377	11.73
446.581	11.68
446.785	11.61
446.989	11.59
447.193	11.57
447.398	11.58
447.602	11.59
447.806	11.47
448.01	11.53
448.214	11.51
448.418	11.36
448.622	11.25
448.826	11.19
449.03	11.25
449.234	11.28
449.438	11.19
449.642	10.97
449.846	11.04
450.05	11.1
450.254	11.19
450.458	10.93
450.662	11.25
450.866	11.4
451.069	11.42
451.273	11.49
451.477	11.33
451.681	11.28
451.885	11.5
452.089	11.45
452.292	11.58
452.496	11.43
452.7	11.71
452.904	11.45
453.107	11.39
453.311	11.49
453.515	11.3
453.719	11.38
453.922	11.57
454.126	11.47
454.33	11.55
454.533	11.39
454.737	11.49
454.94	11.49
455.144	11.59
455.348	11.68
455.551	11.57
455.755	11.8
455.958	11.75
456.162	11.72
456.365	11.63
456.569	11.66
456.772	11.64
456.976	11.5
457.179	11.37
457.383	11.32
457.586	11.2
457.79	11.26
457.993	11.2
458.196	11.23
458.4	11.12
458.603	11.23
458.807	11.24
459.01	11.36
459.213	11.45
459.417	11.48
459.62	11.51
459.823	11.62
460.026	11.65
460.23	11.54
460.433	11.47
460.636	11.45
460.839	11.49
461.042	11.5
461.246	11.41
461.449	11.37
461.652	11.29
461.855	11.25
462.058	11.38
462.261	11.26
462.464	11.52
462.668	11.6
462.871	11.73
463.074	11.56
463.277	11.46
463.48	11.49
463.683	11.4
463.886	11.4
464.089	11.46
464.292	11.26
464.495	11.23
464.698	11.27
464.901	11.34
465.104	11.35
465.306	11.52
465.509	11.49
465.712	11.54
465.915	11.58
466.118	11.76
466.321	11.66
466.524	11.55
466.726	11.68
466.929	11.48
467.132	11.41
467.335	11.37
467.538	11.51
467.74	11.47
467.943	11.44
468.146	11.37
468.348	11.3
468.551	11.32
468.754	11.54
468.956	11.62
469.159	11.56
469.362	11.65
469.564	11.6
469.767	11.45
469.969	11.59
470.172	11.61
470.375	11.71
470.577	11.75
470.78	11.68
470.982	11.5
471.185	11.38
471.387	11.52
471.59	11.53
471.792	11.52
471.995	11.46
472.197	11.34
472.399	11.3
472.602	11.36
472.804	11.25
473.007	11.34
473.209	11.55
473.411	11.59
473.614	11.62
473.816	11.58
474.018	11.6
474.22	11.71
474.423	11.74
474.625	11.75
474.827	11.72
475.03	11.84
475.232	11.95
475.434	11.71
475.636	11.66
475.838	11.52
476.04	11.4
476.243	11.39
476.445	11.45
476.647	11.5
476.849	11.41
477.051	11.3
477.253	11.35
477.455	11.19
477.657	11.23
477.859	11.28
478.061	11.32
478.263	11.46
478.465	11.39
478.667	11.11
478.869	11.14
479.071	11.24
479.273	11.36
479.475	11.2
479.677	11.14
479.879	11.18
480.081	11.16
480.283	11.21
480.485	11.28
480.686	11.37
480.888	11.54
481.09	11.44
481.292	11.52
481.494	11.38
481.695	11.39
481.897	11.49
482.099	11.55
482.301	11.48
482.502	11.5
482.704	11.43
482.906	11.38
483.107	11.37
483.309	11.39
483.511	11.34
483.712	11.3
483.914	11.34
484.115	11.26
484.317	11.21
484.519	11.24
484.72	11.17
484.922	11.13
485.123	11.13
485.325	11.13
485.526	11.07
485.728	10.99
485.929	11.01
486.131	10.96
486.332	11.06
486.534	11.04
486.735	11
486.936	11.09
487.138	11.06
487.339	11.1
487.541	11.11
487.742	11.17
487.943	11.25
488.144	11.27
488.346	11.28
488.547	11.18
488.748	11.17
488.95	11.17
489.151	11.1
489.352	11.14
489.553	11.13
489.755	11.08
489.956	11.08
490.157	11.04
490.358	10.99
490.559	11
490.76	11.13
490.961	11.14
491.163	11.16
491.364	11.17
491.565	11.21
491.766	11.17
491.967	11.18
492.168	11.07
492.369	11.09
492.57	11.16
492.771	11.14
492.972	11.09
493.173	11.08
493.374	11.01
493.575	11.05
493.776	10.97
493.976	11.04
494.177	11.07
494.378	11.24
494.579	11.34
494.78	11.27
494.981	11.39
495.182	11.35
495.382	11.51
495.583	11.59
495.784	11.53
495.985	11.63
496.185	11.67
496.386	11.7
496.587	11.63
496.788	11.58
496.988	11.61
497.189	11.63
497.39	11.76
497.59	11.71
497.791	11.8
497.992	11.84
498.192	11.84
498.393	11.79
498.593	11.89
498.794	11.95
498.994	11.92
499.195	11.9
499.395	11.88
499.596	11.91
499.796	11.95
499.997	12.08
500.197	12.12
500.398	12.05
500.598	12.08
500.799	12.02
500.999	12.16
501.199	12.39
501.4	12.62
501.6	12.57
501.801	12.59
502.001	12.68
502.201	12.66
502.402	12.78
502.602	13.05
502.802	13.2
503.002	13.33
503.203	13.32
503.403	13.13
503.603	13.18
503.803	13.35
504.003	13.45
504.204	13.34
504.404	13.28
504.604	13.16
504.804	13.26
505.004	13.19
505.204	13.23
505.404	13.23
505.604	13.36
505.804	13.23
506.005	13.24
506.205	13.33
506.405	13.45
506.605	13.56
506.805	13.76
507.005	13.6
507.204	13.78
507.404	13.79
507.604	13.94
507.804	13.97
508.004	14.04
508.204	14.22
508.404	14.1
508.604	14.27
508.804	14.39
509.003	14.47
509.203	14.68
509.403	14.8
509.603	14.93
509.803	14.97
510.002	14.96
510.202	15.16
510.402	15.13
510.602	15.24
510.801	15.28
511.001	15.32
511.201	15.36
511.4	15.42
511.6	15.37
511.8	15.36
511.999	15.32
512.199	15.43
512.398	15.34
512.598	15.55
512.797	15.73
512.997	15.68
513.197	15.65
513.396	15.73
513.596	15.85
513.795	15.97
513.994	15.97
514.194	16.2
514.393	16.37
514.593	16.62
514.792	16.63
514.992	16.65
515.191	16.71
515.39	17
515.59	17.17
515.789	17.15
515.988	17.32
516.188	17.6
516.387	17.78
516.586	17.89
516.786	17.97
516.985	18.05
517.184	18.24
517.383	18.53
517.582	18.54
517.782	18.53
517.981	18.63
518.18	18.62
518.379	18.71
518.578	18.63
518.777	18.7
518.976	18.77
519.176	18.85
519.375	18.85
519.574	18.85
519.773	18.88
519.972	18.94
520.171	19.03
520.37	19.16
520.569	19.33
520.768	19.56
520.967	19.71
521.166	19.79
521.365	19.91
521.564	20.08
521.762	20.13
521.961	20.29
522.16	20.45
522.359	20.58
522.558	20.71
522.757	20.61
522.956	20.79
523.154	20.9
523.353	21.02
523.552	21.07
523.751	21.23
523.949	21.42
524.148	21.57
524.347	21.82
524.546	21.93
524.744	22.04
524.943	22.21
525.142	22.29
525.34	22.34
525.539	22.37
525.737	22.55
525.936	22.71
526.135	22.8
526.333	22.77
526.532	22.73
526.73	22.88
526.929	23
527.127	23.09
527.326	23.16
527.524	23.33
527.723	23.52
527.921	23.6
528.12	23.61
528.318	23.67
528.516	23.77
528.715	23.89
528.913	23.94
529.112	24
529.31	23.98
529.508	24.05
529.707	24.11
529.905	24.15
530.103	24.2
530.301	24.34
530.5	24.44
530.698	24.5
530.896	24.54
531.094	24.48
531.293	24.59
531.491	24.83
531.689	24.92
531.887	25.02
532.085	25.1
532.283	25.25
532.481	25.26
532.68	25.42
532.878	25.61
533.076	25.73
533.274	25.97
533.472	26.01
533.67	26.01
533.868	26.12
534.066	26.22
534.264	26.25
534.462	26.22
534.66	26.26
534.858	26.28
535.056	26.36
535.253	26.4
535.451	26.54
535.649	26.56
535.847	26.72
536.045	26.83
536.243	26.89
536.441	27
536.638	27.18
536.836	27.28
537.034	27.29
537.232	27.33
537.43	27.39
537.627	27.31
537.825	27.46
538.023	27.4
538.22	27.29
538.418	27.29
538.616	27.39
538.813	27.51
539.011	27.72
539.209	27.75
539.406	27.91
539.604	28.03
539.801	28.29
539.999	28.42
540.196	28.63
540.394	28.73
540.591	28.77
540.789	28.81
540.986	28.83
541.184	28.72
541.381	28.78
541.579	28.75
541.776	28.65
541.974	28.66
542.171	28.61
542.368	28.56
542.566	28.63
542.763	28.68
542.96	28.77
543.158	28.71
543.355	28.83
543.552	28.95
543.75	29.07
543.947	29.3
544.144	29.32
544.341	29.46
544.539	29.57
544.736	29.6
544.933	29.6
545.13	29.56
545.327	29.8
545.524	29.81
545.722	29.81
545.919	29.85
546.116	29.91
546.313	29.97
546.51	30.04
546.707	30.18
546.904	30.3
547.101	30.45
547.298	30.49
547.495	30.48
547.692	30.53
547.889	30.52
548.086	30.56
548.283	30.57
548.48	30.69
548.677	30.69
548.874	30.64
549.07	30.81
549.267	30.83
549.464	30.98
549.661	30.96
549.858	31.14
550.055	31.3
550.251	31.27
550.448	31.2
550.645	31.31
550.842	31.33
551.038	31.42
551.235	31.38
551.432	31.43
551.628	31.48
551.825	31.57
552.022	31.79
552.218	31.97
552.415	32.04
552.612	32.26
552.808	32.29
553.005	32.27
553.201	32.28
553.398	32.12
553.594	32.08
553.791	32.22
553.987	32.17
554.184	31.99
554.38	31.8
554.577	31.9
554.773	31.82
554.97	31.91
555.166	32.19
555.362	32.34
555.559	32.46
555.755	32.5
555.952	32.63
556.148	32.78
556.344	32.89
556.541	32.99
556.737	32.9
556.933	33.03
557.129	32.94
557.326	32.82
557.522	32.91
557.718	33.06
557.914	33.1
558.11	33.02
558.307	33.02
558.503	33.12
558.699	33.19
558.895	33.36
559.091	33.58
559.287	33.67
559.483	33.65
559.679	33.74
559.876	33.95
560.072	34.09
560.268	34.17
560.464	34.35
560.66	34.39
560.856	34.67
561.052	34.77
561.247	34.69
561.443	34.65
561.639	34.9
561.835	34.83
562.031	34.7
562.227	34.69
562.423	34.78
562.619	34.75
562.815	34.8
563.01	34.49
563.206	34.49
563.402	34.43
563.598	34.38
563.793	34.3
563.989	34.36
564.185	34.42
564.381	34.5
564.576	34.49
564.772	34.6
564.968	34.67
565.163	34.95
565.359	35.05
565.555	35.13
565.75	35.31
565.946	35.42
566.141	35.58
566.337	35.53
566.532	35.65
566.728	35.55
566.923	35.4
567.119	35.26
567.314	35.16
567.51	35.19
567.705	35.41
567.901	35.41
568.096	35.46
568.292	35.33
568.487	35.37
568.682	35.29
568.878	35.5
569.073	35.79
569.268	36.02
569.464	36.12
569.659	36.24
569.854	36.19
570.05	36.34
570.245	36.35
570.44	36.4
570.635	36.47
570.831	36.51
571.026	36.6
571.221	36.65
571.416	36.76
571.611	36.97
571.806	37.03
572.002	37.21
572.197	37.22
572.392	37.15
572.587	37.22
572.782	37.31
572.977	37.5
573.172	37.48
573.367	37.45
573.562	37.38
573.757	37.19
573.952	37.2
574.147	37.11
574.342	37.19
574.537	37.25
574.732	37.31
574.927	37.58
575.121	37.48
575.316	37.62
575.511	37.81
575.706	37.96
575.901	38.06
576.096	38.03
576.29	38.05
576.485	37.99
576.68	38.15
576.875	38.17
577.069	37.94
577.264	38.13
577.459	38
577.654	38.07
577.848	38.23
578.043	38.42
578.238	38.46
578.432	38.51
578.627	38.51
578.821	38.41
579.016	38.47
579.21	38.37
579.405	38.18
579.6	38.14
579.794	38.02
579.989	37.78
580.183	37.74
580.378	37.83
580.572	37.8
580.766	37.98
580.961	38.07
581.155	38.15
581.35	38.61
581.544	38.98
581.738	39.22
581.933	39.26
582.127	39.38
582.321	39.46
582.516	39.44
582.71	39.55
582.904	39.36
583.099	39.45
583.293	39.43
583.487	39.38
583.681	39.01
583.875	39.01
584.07	39.1
584.264	39.07
584.458	38.89
584.652	38.96
584.846	39.02
585.04	39.3
585.234	39.32
585.428	39.45
585.623	39.34
585.817	39.39
586.011	39.41
586.205	39.46
586.399	39.49
586.593	39.74
586.787	39.88
586.981	39.79
587.174	39.77
587.368	39.78
587.562	39.52
587.756	39.48
587.95	39.78
588.144	39.87
588.338	39.86
588.532	39.9
588.725	39.87
588.919	39.83
589.113	40.05
589.307	40.23
589.501	40.19
589.694	40.46
589.888	40.54
590.082	40.42
590.275	40.33
590.469	40.41
590.663	40.52
590.856	40.6
591.05	40.62
591.244	40.54
591.437	40.29
591.631	40.37
591.824	40.4
592.018	40.67
592.212	40.81
592.405	40.9
592.599	40.71
592.792	40.71
592.986	40.77
593.179	40.79
593.372	40.71
593.566	40.83
593.759	41.13
593.953	41.12
594.146	40.91
594.339	40.93
594.533	40.96
594.726	41.22
594.92	41.21
595.113	41.17
595.306	41.21
595.499	41.53
595.693	41.59
595.886	41.29
596.079	41.29
596.272	41.17
596.466	41.23
596.659	41.21
596.852	41.14
597.045	41.15
597.238	41.1
597.431	41.13
597.624	40.79
597.818	40.83
598.011	40.99
598.204	41.22
598.397	41.47
598.59	41.33
598.783	41.38
598.976	41.37
599.169	41.6
599.362	41.67
599.555	41.78
599.748	42.16
599.941	42.27
600.134	42.32
600.326	42.11
600.519	42.2
600.712	42.36
600.905	42.61
601.098	42.94
601.291	42.74
601.483	42.73
601.676	42.56
601.869	42.4
602.062	42.33
602.255	42.41
602.447	42.47
602.64	42.49
602.833	42.38
603.025	42.38
603.218	42.24
603.411	42.4
603.603	42.62
603.796	42.49
603.989	42.61
604.181	42.59
604.374	42.59
604.566	42.66
604.759	42.5
604.951	42.53
605.144	42.41
605.336	42.42
605.529	42.32
605.721	42.19
605.914	42.46
606.106	42.49
606.299	42.55
606.491	42.51
606.683	42.53
606.876	42.6
607.068	42.65
607.26	42.86
607.453	42.75
607.645	42.84
607.837	42.85
608.03	42.87
608.222	43.01
608.414	43.2
608.606	43.46
608.799	43.46
608.991	43.44
609.183	43.62
609.375	43.58
609.567	43.75
609.759	43.78
609.952	43.92
610.144	43.75
610.336	43.64
610.528	43.57
610.72	43.39
610.912	43.34
611.104	43.49
611.296	43.48
611.488	43.3
611.68	43.17
611.872	43.12
612.064	43.1
612.256	43.27
612.448	43.27
612.64	43.26
612.832	43.32
613.023	43.41
613.215	43.55
613.407	43.56
613.599	43.63
613.791	43.75
613.983	43.72
614.174	43.8
614.366	43.7
614.558	43.68
614.75	43.56
614.941	43.67
615.133	43.66
615.325	43.64
615.516	43.58
615.708	43.71
615.9	43.69
616.091	43.73
616.283	43.3
616.475	43.46
616.666	43.31
616.858	43.51
617.049	43.31
617.241	43.48
617.432	43.28
617.624	43.59
617.815	43.54
618.007	43.58
618.198	43.74
618.39	44.09
618.581	44.19
618.773	44.35
618.964	44.25
619.155	44.66
619.347	44.21
619.538	44.23
619.729	44.03
619.921	44.29
620.112	44.33
620.303	44.15
620.494	44.13
620.686	44.17
620.877	44.33
621.068	44.37
621.259	44.19
621.451	44.61
621.642	44.65
621.833	44.52
622.024	44.68
622.215	44.75
622.406	44.93
622.597	44.92
622.788	44.85
622.98	44.74
623.171	44.65
623.362	44.93
623.553	44.91
623.744	45.11
623.935	44.96
624.126	44.9
624.317	44.81
624.508	44.88
624.698	45.21
624.889	44.91
625.08	45.04
625.271	45.34
625.462	45.13
625.653	45.18
625.844	45.01
626.034	45.23
626.225	45.1
626.416	45.22
626.607	45.32
626.798	45.15
626.988	45.66
627.179	45.65
627.37	45.62
627.56	45.44
627.751	45.57
627.942	45.53
628.132	45.55
628.323	45.64
628.514	45.55
628.704	45.53
628.895	45.54
629.085	45.21
629.276	45.44
629.466	45.02
629.657	45.12
629.847	44.83
630.038	45.04
630.228	45.12
630.419	44.98
630.609	45.02
630.8	44.92
630.99	44.97
631.181	45.17
631.371	45.05
631.561	45.76
631.752	45.96
631.942	45.87
632.132	45.7
632.323	45.74
632.513	45.78
632.703	45.88
632.893	46.04
633.084	46.21
633.274	46.01
633.464	45.9
633.654	45.49
633.844	45.53
634.034	45.75
634.225	45.81
634.415	45.87
634.605	45.93
634.795	45.89
634.985	45.71
635.175	45.58
635.365	45.6
635.555	45.46
635.745	45.49
635.935	45.42
636.125	45.2
636.315	45.37
636.505	45.32
636.695	45.37
636.885	45.36
637.075	45.12
637.265	44.97
637.455	45.13
637.644	45.62
637.834	45.62
638.024	45.46
638.214	45.88
638.404	45.46
638.593	45.46
638.783	45.43
638.973	45.42
639.163	45.62
639.352	45.57
639.542	45.68
639.732	45.31
639.921	45.64
640.111	45.75
640.301	45.65
640.49	45.93
640.68	46.02
640.87	46.01
641.059	46.11
641.249	46.44
641.438	46.58
641.628	46.33
641.817	46.35
642.007	45.83
642.196	45.94
642.386	45.78
642.575	45.55
642.764	45.5
642.954	45.56
643.143	45.82
643.333	45.63
643.522	45.7
643.711	45.7
643.901	46.02
644.09	46.36
644.279	46.34
644.469	46.63
644.658	47.09
644.847	47.29
645.036	47.37
645.226	47.01
645.415	47.35
645.604	47.51
645.793	47.76
645.982	47.58
646.171	47.35
646.361	47.37
646.55	47.42
646.739	47.46
646.928	46.89
647.117	46.81
647.306	47.42
647.495	47.03
647.684	47.14
647.873	46.87
648.062	46.91
648.251	46.98
648.44	46.82
648.629	46.64
648.818	46.17
649.007	46.81
649.196	46.57
649.384	46.29
649.573	46.7
649.762	46.71
649.951	46.65
650.14	46.36
650.328	46.62
650.517	46.8
650.706	46.98
650.895	47.16
651.083	47.17
651.272	47.44
651.461	47.3
651.65	47.04
651.838	47.12
652.027	47.36
652.216	47.69
652.404	47.69
652.593	47.87
652.781	47.66
652.97	47.66
653.158	47.58
653.347	47.36
653.535	47.38
653.724	47.49
653.912	47.15
654.101	47.03
654.289	47.09
654.478	47.07
654.666	46.82
654.855	46.92
655.043	47.29
655.231	47.56
655.42	47.68
655.608	47.66
655.796	47.57
655.985	47.94
656.173	48.19
656.361	48.2
656.55	48.26
656.738	48.29
656.926	48.47
657.114	48.43
657.302	48.21
657.491	48.21
657.679	48.39
657.867	48.39
658.055	48.42
658.243	48.01
658.431	47.97
658.619	48.04
658.807	47.98
658.996	47.87
659.184	47.83
659.372	47.72
659.56	47.85
659.748	47.8
659.936	47.73
660.124	47.52
660.311	47.73
660.499	47.83
660.687	47.76
660.875	47.96
661.063	47.95
661.251	47.81
661.439	47.98
661.627	47.89
661.814	47.61
662.002	47.63
662.19	47.57
662.378	47.86
662.565	47.74
662.753	47.53
662.941	47.21
663.129	47.47
663.316	47.38
663.504	46.97
663.692	46.99
663.879	47.2
664.067	47.34
664.254	47.38
664.442	47.31
664.63	47.66
664.817	47.6
665.005	48.13
665.192	47.5
665.38	47.74
665.567	47.62
665.755	47.82
665.942	48.12
666.13	48.09
666.317	48.18
666.504	48.04
666.692	47.7
666.879	47.74
667.067	47.77
667.254	47.97
667.441	48.25
667.629	48.42
667.816	48.56
668.003	48.24
668.19	48.2
668.378	48.09
668.565	48.16
668.752	48.26
668.939	48.3
669.127	48.06
669.314	48.44
669.501	48.1
669.688	48.58
669.875	48.63
670.062	48.53
670.249	48.47
670.436	48.54
670.623	48.29
670.81	48.15
670.997	48.13
671.184	48.04
671.371	47.6
671.558	47.73
671.745	47.48
671.932	47.04
672.119	47.36
672.306	47.56
672.493	47.68
672.68	48.14
672.867	48.4
673.054	48.84
673.24	49.04
673.427	49.01
673.614	48.87
673.801	49.09
673.988	49.53
674.174	49.49
674.361	49.62
674.548	49.62
674.734	49.51
674.921	49.65
675.108	49.06
675.294	49.07
675.481	49.29
675.668	49.58
675.854	49.74
676.041	49.37
676.227	49.11
676.414	49.04
676.601	49.1
676.787	49.36
676.974	48.97
677.16	49.34
677.347	49.25
677.533	49.3
677.719	49.25
677.906	49
678.092	48.91
678.279	48.9
678.465	48.83
678.651	48.75
678.838	48.63
679.024	48.61
679.21	48.46
679.397	48.65
679.583	48.63
679.769	48.41
679.955	48.42
680.142	48.55
680.328	48.56
680.514	48.77
680.7	48.42
680.886	48.1
681.073	47.85
681.259	48.09
681.445	47.79
681.631	47.93
681.817	48.03
682.003	47.99
682.189	48.17
682.375	48.2
682.561	47.87
682.747	48.1
682.933	48.18
683.119	48.45
683.305	48.02
683.491	48.33
683.677	47.98
683.863	47.97
684.049	47.99
684.235	48.03
684.42	47.77
684.606	47.6
684.792	47.72
684.978	47.99
685.164	48.14
685.349	48.69
685.535	48.4
685.721	48.44
685.907	48.34
686.092	48.1
686.278	48.01
686.464	48.59
686.649	48.98
686.835	48.92
687.021	48.87
687.206	49.05
687.392	49.06
687.577	49.06
687.763	49.35
687.948	49.46
688.134	49.99
688.319	49.93
688.505	50.15
688.69	50.2
688.876	49.98
689.061	49.82
689.247	49.91
689.432	49.27
689.618	49.09
689.803	48.98
689.988	48.82
690.174	48.43
690.359	48.21
690.544	47.69
690.73	47.26
690.915	47.12
691.1	47.12
691.285	46.71
691.471	47.1
691.656	47.54
691.841	47.62
692.026	47.89
692.211	47.84
692.396	47.89
692.582	48.19
692.767	48.62
692.952	48.96
693.137	49.02
693.322	48.78
693.507	48.68
693.692	48.43
693.877	48.7
694.062	48.53
694.247	48.7
694.432	48.45
694.617	48.48
694.802	48.7
694.987	48.61
695.172	48.84
695.357	49
695.541	49.47
695.726	49.4
695.911	49.16
696.096	49.15
696.281	49.34
696.466	50.12
696.65	49.9
696.835	49.79
697.02	49.89
697.204	49.69
697.389	50.04
697.574	49.61
697.759	49.42
697.943	49.52
698.128	49.69
698.312	49.45
698.497	48.97
698.682	49.17
698.866	49.13
699.051	49.2
699.235	49.13
699.42	48.97
699.604	49.47
699.789	49.81
699.973	49.6
700.158	49.39
700.342	49.74
700.527	49.9
700.711	50.03
700.895	49.96
701.08	50.01
701.264	50.53
701.448	50.8
701.633	50.34
701.817	50.43
702.001	50.41
702.186	50.46
702.37	50.12
702.554	50.16
702.738	49.78
702.923	50.01
703.107	49.84
703.291	49.96
703.475	49.35
703.659	49.39
703.843	49.37
704.027	49.43
704.212	49.65
704.396	49.73
704.58	50.52
704.764	50.72
704.948	50.58
705.132	51.01
705.316	50.96
705.5	51.22
705.684	51.6
705.868	51.18
706.052	51.72
706.235	52.04
706.419	51.64
706.603	51
706.787	51.04
706.971	51.16
707.155	51.31
707.339	51.18
707.522	51.32
707.706	51.11
707.89	51.55
708.074	51.25
708.257	50.22
708.441	50.41
708.625	50.26
708.808	49.09
708.992	48.94
709.176	48.33
709.359	47.81
709.543	47.65
709.727	47.69
709.91	48.45
710.094	48.13
710.277	48.99
710.461	49.11
710.644	49.47
710.828	50.41
711.011	50.17
711.195	50.2
711.378	50.53
711.562	50.85
711.745	50.75
711.928	49.89
712.112	50.2
712.295	50.27
712.478	50.84
712.662	50.74
712.845	50.53
713.028	50.62
713.212	50.7
713.395	49.78
713.578	49.21
713.761	49.62
713.945	49.84
714.128	50.38
714.311	49.92
714.494	49.73
714.677	49.98
714.86	49.92
715.043	50
715.227	49.97
715.41	50.69
715.593	51.1
715.776	50.89
715.959	51.04
716.142	50.67
716.325	51.22
716.508	50.99
716.691	50.64
716.874	50.87
717.057	51.22
717.239	51.2
717.422	51.14
717.605	50.91
717.788	50.45
717.971	49.58
718.154	49.88
718.337	49.67
718.519	49.36
718.702	49.53
718.885	49.96
719.068	49.83
719.25	50.05
719.433	50.11
719.616	50.21
719.798	50.28
719.981	51.13
720.164	49.86
720.346	49.44
720.529	48.96
720.712	49.01
720.894	48.36
721.077	48.44
721.259	47.89
721.442	48.23
721.624	48.95
721.807	49.49
721.989	49.48
722.172	50.99
722.354	51.1
722.537	51.92
722.719	52.28
722.901	53.02
723.084	53.06
723.266	54.05
723.448	54.63
723.631	54.23
723.813	54.31
723.995	53.85
724.178	53.56
724.36	53.66
724.542	53.01
724.724	52.98
724.907	52.53
725.089	52.06
725.271	51.66
725.453	51.46
725.635	51.71
725.817	52.37
725.999	52.45
726.181	52.31
726.364	52.38
726.546	53.3
726.728	52.96
726.91	53.26
727.092	53.45
727.274	53.54
727.456	53.29
727.638	52.8
727.819	51.88
728.001	51.54
728.183	51.5
728.365	51.85
728.547	51.5
728.729	51.5
728.911	51.99
729.093	52.22
729.274	52.16
729.456	51.93
729.638	52.27
729.82	52.36
730.001	52.72
730.183	52.89
730.365	52.52
730.546	52.84
730.728	52.36
730.91	51.38
731.091	50.79
731.273	50.74
731.455	50.4
731.636	50.25
731.818	50.29
731.999	50.61
732.181	49.86
732.362	49.51
732.544	49.31
732.725	49.54
732.907	49.8
733.088	50.36
733.27	50.25
733.451	50.67
733.633	51.23
733.814	51.18
733.995	51.2
734.177	51.04
734.358	51.11
734.539	50.7
734.721	51.38
734.902	51.96
735.083	51.82
735.264	53.06
735.446	53.01
735.627	52.4
735.808	52.52
735.989	51.62
736.17	52.17
736.351	53.04
736.533	53.79
736.714	52.94
736.895	52.94
737.076	52.75
737.257	51.7
737.438	51.35
737.619	52.06
737.8	51.75
737.981	52.4
738.162	52.24
738.343	53.12
738.524	52.37
738.705	53.47
738.886	52.87
739.067	53.15
739.247	53.59
739.428	53.57
739.609	53.27
739.79	53.21
739.971	53.6
740.151	54.99
740.332	54
740.513	54.66
740.694	53.6
740.874	53.84
741.055	54.26
741.236	54.28
741.417	54.34
741.597	54.2
741.778	55.07
741.958	54.31
742.139	53.02
742.32	52.53
742.5	52.29
742.681	52.67
742.861	52.49
743.042	52.04
743.222	50.83
743.403	51.18
743.583	51.64
743.764	50.75
743.944	51.32
744.124	51.15
744.305	51.87
744.485	52.11
744.666	52.54
744.846	52.14
745.026	52.24
745.207	52.95
745.387	53.96
745.567	53.13
745.747	53.69
745.928	54.32
746.108	54.91
746.288	55.21
746.468	54.62
746.648	54.55
746.829	54.92
747.009	54.85
747.189	55.32
747.369	53.86
747.549	53.75
747.729	53.77
747.909	53.14
748.089	53.26
748.269	51.96
748.449	52.14
748.629	52.16
748.809	51.74
748.989	52.51
749.169	51.66
749.349	52.11
749.529	52.33
749.709	52.2
749.889	51.87
750.068	51.27
750.248	52.86
750.428	53.48
750.608	52.35
750.788	53.92
750.967	52.76
751.147	53.53
751.327	54.55
751.507	55.02
751.686	54.13
751.866	54.15
752.046	54.85
752.225	52.96
752.405	52.72
752.585	53.47
752.764	52.36
752.944	53.28
753.123	52.92
753.303	51.88
753.482	51.72
753.662	52.9
753.841	53.8
754.021	53.75
754.2	54.8
754.38	55.16
754.559	55.95
754.739	56.04
754.918	55.1
755.097	54.65
755.277	55.05
755.456	55.1
755.635	54.7
755.815	54.95
755.994	54.58
756.173	54.81
756.352	55.63
756.532	54.89
756.711	54.41
756.89	55.21
757.069	55.85
757.248	55.45
757.427	55.26
757.607	55.29
757.786	54.75
757.965	54.42
758.144	53.99
758.323	52.27
758.502	52.75
758.681	53.17
758.86	52.56
759.039	52.15
759.218	51.98
759.397	51.04
759.576	50.33
759.755	49.63
759.934	50.46
760.113	50.34
760.291	49.94
760.47	49.98
760.649	49.19
760.828	48.79
761.007	48.78
761.186	48.15
761.364	48.93
761.543	48.82
761.722	48.76
761.901	48.71
762.079	48.71
762.258	49.67
762.437	48.84
762.615	50.4
762.794	51.17
762.972	51
763.151	51.61
763.33	51.64
763.508	51.88
763.687	52.15
763.865	52.23
764.044	52.79
764.222	52.44
764.401	52.95
764.579	52.26
764.758	51.23
764.936	51.89
765.114	52.28
765.293	52.3
765.471	52.32
765.65	52.59
765.828	51.3
766.006	50.15
766.184	49.78
766.363	48.54
766.541	48.62
766.719	49.38
766.898	48.74
767.076	48.15
767.254	48.66
767.432	48.13
767.61	47.83
767.788	48.27
767.967	48.84
768.145	49.27
768.323	50.11
768.501	50.03
768.679	49.56
768.857	49.76
769.035	49.99
769.213	48.78
769.391	49.54
769.569	50.29
769.747	52.03
769.925	52.96
770.103	53.44
770.281	53.62
770.459	53.32
770.636	53.81
770.814	53.45
770.992	53.71
771.17	54.72
771.348	55.04
771.525	54.67
771.703	52.68
771.881	51.75
772.059	51.43
772.236	52.36
772.414	53.22
772.592	54.36
772.769	55.22
772.947	56.04
773.125	55.04
773.302	54.42
773.48	55.32
773.657	57.34
773.835	58.67
774.013	58.6
774.19	58.31
774.368	57.93
774.545	57.17
774.723	56.68
774.9	55.25
775.077	57.62
775.255	57.81
775.432	57.28
775.61	56.09
775.787	55.19
775.964	55.77
776.142	55.95
776.319	54.53
776.496	54.09
776.674	54.55
776.851	55.27
777.028	54.45
777.205	55.48
777.382	55.59
777.56	57.3
777.737	58.61
777.914	58.05
778.091	57.56
778.268	57.69
778.445	59.19
778.622	57.56
778.8	57.82
778.977	56.31
779.154	55.45
779.331	55.37
779.508	54.41
779.685	54.2
779.862	54.26
780.038	54.08
780.215	54.49
780.392	54.71
780.569	56.68
780.746	55.68
780.923	55.91
781.1	56.79
781.277	56.3
781.453	56.55
781.63	56
781.807	55.91
781.984	54.03
782.16	55.28
782.337	53.72
782.514	53.22
782.691	54.11
782.867	55.57
783.044	54.32
783.221	53.16
783.397	52.5
783.574	50.62
783.75	52.44
783.927	54.45
784.103	54.03
784.28	55.28
784.456	54.26
784.633	53.45
784.809	51.28
784.986	51.54
785.162	52.72
785.339	52.69
785.515	53.42
785.692	50.89
785.868	51.76
786.044	51.2
786.221	50.98
786.397	51.56
786.573	51.58
786.749	52.46
786.926	53.98
787.102	56.1
787.278	56.27
787.454	56.57
787.631	57.06
787.807	55.58
787.983	56.25
788.159	54.65
788.335	55.52
788.511	57.02
788.687	57.58
788.863	57.21
789.039	54.51
789.216	54.24
789.392	54.89
789.568	56.15
789.744	56.74
789.919	57.97
790.095	59.23
790.271	57.3
790.447	54.71
790.623	53.44
790.799	53.18
790.975	53.12
791.151	54.37
791.327	53.57
791.502	52.04
791.678	52.15
791.854	51.27
792.03	50.91
792.205	52.05
792.381	52.94
792.557	53.35
792.733	53.24
792.908	54.02
793.084	53.65
793.259	54.85
793.435	55.24
793.611	55.86
793.786	55.52
793.962	56.02
794.137	55.12
794.313	55.2
794.488	55.62
794.664	56.04
794.839	55.21
795.015	54.55
795.19	53.22
795.366	52.69
795.541	52.9
795.716	51.62
795.892	50.53
796.067	51.86
796.242	51.92
796.418	52.03
796.593	52.17
796.768	51.78
796.944	51.72
797.119	52.61
797.294	52.87
797.469	52.38
797.644	51.82
797.82	52.21
797.995	51.31
798.17	51.5
798.345	50.28
798.52	49.71
798.695	50.81
798.87	49.42
799.045	48.04
799.22	47.96
799.395	46.21
799.57	45.81
799.745	47.72
799.92	49.6
800.095	49.51
800.27	49.76
800.445	48.8
800.62	49.44
800.795	50.89
800.97	50.47
801.145	51.46
801.319	52.51
801.494	54.55
801.669	52.97
801.844	52.74
802.018	51.64
802.193	51.39
802.368	52.74
802.543	51.85
802.717	52.75
802.892	52.37
803.067	52.57
803.241	53.67
803.416	55.22
803.59	56.62
803.765	55.11
803.94	55.79
804.114	56.69
804.289	56.14
804.463	54.32
804.638	52.74
804.812	54.94
804.986	55.98
805.161	55.07
805.335	53.24
805.51	52.76
805.684	52.42
805.858	52.84
806.033	53.33
806.207	52.84
806.381	54.64
806.556	53.91
806.73	53.24
806.904	52.26
807.078	54.63
807.253	54.37
807.427	52.92
807.601	53.67
807.775	55.73
807.949	55.66
808.123	55.63
808.298	56.38
808.472	57.18
808.646	57.84
808.82	59.99
808.994	57.42
809.168	58.35
809.342	60.37
809.516	58.01
809.69	55.6
809.864	56.64
810.038	55.74
810.212	54.32
810.385	54.35
810.559	54.08
810.733	53.86
810.907	54.21
811.081	53.68
811.255	51.92
811.428	53.43
811.602	53.01
811.776	50.5
811.95	51.57
812.123	53.57
812.297	53.58
812.471	53.99
812.644	51.45
812.818	51.9
812.992	50.57
813.165	51.52
813.339	51.52
813.512	53.49
813.686	57.11
813.86	58.47
814.033	55.41
814.207	53.38
814.38	53.43
814.554	51.29
814.727	48.9
814.9	52.1
815.074	51.53
815.247	53.57
815.421	53.24
815.594	51.51
815.767	48.14
815.941	50.65
816.114	50.68
816.287	50.39
816.46	50.51
816.634	51.16
816.807	47.8
816.98	48.3
817.153	48.55
817.327	47.28
817.5	46.18
817.673	49.83
817.846	47.5
818.019	50.15
818.192	49.74
818.365	48.72
818.538	51.25
818.711	51.48
818.884	51.8
819.057	51.04
819.23	52.11
819.403	51.79
819.576	49.75
819.749	51.69
819.922	51.36
820.095	53.36
820.268	56.89
820.441	57.24
820.614	57.97
820.786	56.56
820.959	56.94
821.132	54.25
821.305	54.05
821.477	53.45
821.65	52.39
821.823	52.51
821.996	51.5
822.168	50.84
822.341	49.41
822.514	48.52
822.686	48.88
822.859	48.11
823.031	48.64
823.204	48.66
823.376	48.87
823.549	48.73
823.722	48.17
823.894	48.09
824.067	47.72
824.239	47.83
824.411	48.48
824.584	47.83
824.756	48.08
824.929	48.08
825.101	48.32
825.273	47.87
825.446	48.13
825.618	48.45
825.79	47.72
825.963	48.39
826.135	48.11
826.307	47.56
826.479	48.24
826.652	48.77
826.824	48.64
826.996	48.61
827.168	48.97
827.34	49.63
827.512	49.66
827.684	50.44
827.856	49.74
828.029	50.18
828.201	50
828.373	49.61
828.545	48.88
828.717	49.36
828.889	49.03
829.061	49.35
829.232	48.72
829.404	48.23
829.576	48.35
829.748	48.74
829.92	48.95
830.092	50.15
830.264	49.93
830.436	50.94
830.607	49.64
830.779	50.18
830.951	49.52
831.123	48.05
831.294	47.23
831.466	47.92
831.638	48.16
831.809	48.65
831.981	49.32
832.153	49.41
832.324	47.02
832.496	48.84
832.667	49.19
832.839	51.41
833.011	50.97
833.182	52.96
833.354	49.54
833.525	48.88
833.697	46.98
833.868	45.86
834.039	45.94
834.211	44.69
834.382	44.45
834.554	43.56
834.725	41.62
834.896	43.89
835.068	44.43
835.239	45.83
835.41	44.76
835.581	45.1
835.753	45.95
835.924	47.77
836.095	51.15
836.266	51.5
836.438	50.72
836.609	51.27
836.78	49.14
836.951	46.56
837.122	46.8
837.293	47.72
837.464	49.43
837.635	46.41
837.806	44.91
837.977	44.07
838.148	43.41
838.319	47.03
838.49	47.96
838.661	49.13
838.832	52.05
839.003	53.05
839.174	54.72
839.345	53.18
839.516	55.79
839.687	55.01
839.857	52.95
840.028	50.35
840.199	48.4
840.37	47.77
840.54	49.7
840.711	49.55
840.882	45.83
841.053	45.33
841.223	44.13
841.394	46.73
841.564	48.31
841.735	50.13
841.906	52.94
842.076	49.72
842.247	50.54
842.417	51.7
842.588	54.66
842.758	62.19
842.929	64.15
843.099	63.95
843.27	64.41
843.44	63.82
843.611	63.36
843.781	65.43
843.951	69.58
844.122	68.31
844.292	66.39
844.462	62.12
844.633	55.29
844.803	49.07
844.973	51.64
845.144	49.96
845.314	49.17
845.484	46.62
845.654	44.19
845.824	48.28
845.995	49.03
846.165	52.23
846.335	50.11
846.505	50.02
846.675	52.75
846.845	42.56
847.015	45.66
847.185	46.58
847.355	44.77
847.525	44.22
847.695	39.65
847.865	40.96
848.035	36.76
848.205	42.66
848.375	42.68
848.545	50.04
848.715	62.49
848.884	62.71
849.054	64.85
849.224	70.96
849.394	69.98
849.564	67.58
849.733	68.88
849.903	78.74
850.073	77.67
850.243	81.71
850.412	79.79
850.582	73.78
850.752	61.2
850.921	50.56
851.091	53.42
851.26	50.17
851.43	51.84
851.599	58.7
851.769	53.4
851.939	48.32
852.108	51.07
852.278	46.95
852.447	48.41
852.616	54.27
852.786	57.19
852.955	51.2
853.125	58.25
853.294	57.52
853.463	53.57
853.633	56.1
853.802	57.2
853.971	49.33
854.141	55.63
854.31	59.57
854.479	57.98
854.648	56.34
854.818	57.94
854.987	46.05
855.156	49.08
855.325	45.54
855.494	43.99
855.663	51.03
855.832	51.53
856.001	51.26
856.171	49.17
856.34	48.45
856.509	47.07
856.678	47.22
856.847	47.39
857.016	40.85
857.185	40.48
857.353	40.03
857.522	34.43
857.691	38.99
857.86	36.01
858.029	42.17
858.198	40.22
858.367	42.84
858.535	46.84
858.704	52.35
858.873	55.73
859.042	54.39
859.21	59.03
859.379	59.19
859.548	56.94
859.717	51.85
859.885	47.33
860.054	52.52
860.222	47.76
860.391	45.83
860.56	45.59
860.728	50.14
860.897	47.86
861.065	44.91
861.234	49.25
861.402	52.25
861.571	59.86
861.739	59.01
861.908	59.81
862.076	65.9
862.244	66.54
862.413	62.8
862.581	60.17
862.749	64.88
862.918	62.43
863.086	58.69
863.254	55.07
863.423	54.06
863.591	62.62
863.759	57.62
863.927	55.18
864.096	54.39
864.264	54.3
864.432	51.67
864.6	52.46
864.768	54.16
864.936	52.92
865.104	57.29
865.272	60.69
865.44	54.77
865.608	55.63
865.776	55.58
865.944	58.19
866.112	63.31
866.28	69.4
866.448	66.43
866.616	70.58
866.784	78.42
866.952	76.25
867.12	75.68
867.288	77.63
867.455	77.65
867.623	80.74
867.791	76.06
867.959	68.15
868.127	63.9
868.294	65.64
868.462	57.05
868.63	51.95
868.797	48.98
868.965	48.35
869.133	52.34
869.3	47.25
869.468	46.57
869.636	42.77
869.803	49.06
869.971	53.06
870.138	55.72
870.306	56.85
870.473	49.24
870.641	51.76
870.808	50.4
870.975	47.35
871.143	52.26
871.31	53.51
871.478	58.43
871.645	57.8
871.812	57.79
871.98	50.12
872.147	58.29
872.314	65.49
872.482	71.27
872.649	66.85
872.816	62.29
872.983	61.54
873.15	61.14
873.318	65.25
873.485	60.67
873.652	63.72
873.819	67.61
873.986	64.01
874.153	60.39
874.32	52.82
874.487	55.01
874.654	58.09
874.821	59.79
874.988	63.07
875.155	55.64
875.322	62.72
875.489	52.03
875.656	46.39
875.823	38.16
875.99	40.02
876.157	46.14
876.324	48.9
876.49	43.04
876.657	41.84
876.824	35.54
876.991	34.87
877.157	30.23
877.324	34.61
877.491	33.03
877.658	41.69
877.824	43.51
877.991	47.19
878.157	50.26
878.324	59.59
878.491	57.86
878.657	63.38
878.824	66.48
878.99	68.55
879.157	67.44
879.323	73
879.49	62.36
879.656	62.33
879.823	51.74
879.989	45.23
880.156	38.73
880.322	42.16
880.488	38.71
880.655	41.03
880.821	43.07
880.987	42.34
881.154	37.23
881.32	42.74
881.486	40.28
881.652	43.37
881.819	45.05
881.985	46.31
882.151	44.12
882.317	43.27
882.483	41.49
882.649	41.28
882.816	41.61
882.982	44.05
883.148	42.78
883.314	43.17
883.48	42.39
883.646	43.72
883.812	43.31
883.978	43.91
884.144	45.95
884.31	46.1
884.476	46.34
884.642	47.78
884.807	46.89
884.973	47.17
885.139	46.66
885.305	49.06
885.471	48.01
885.637	47.5
885.802	47.26
885.968	46.19
886.134	46.54
886.3	45.46
886.465	44.59
886.631	46.26
886.797	46.59
886.962	48.29
887.128	47.84
887.293	49.2
887.459	51.81
887.625	51
887.79	53.05
887.956	56.77
888.121	59.22
888.287	60.14
888.452	59.36
888.618	61.57
888.783	62.51
