Data from LC_270_Reflection_2.txt Node
Date: Sat Nov 21 12:08:33 EST 2015
User: robert
Spectrometer: USB4E03001
Autoset integration time: false
Trigger mode: 4
Integration Time (sec): 1.000000E-1
Scans to average: 15
Electric dark correction enabled: true
Nonlinearity correction enabled: false
Boxcar width: 5
Stray light correction enabled: false
XAxis mode: Wavelengths
Stop averaging: false
Number of Pixels in Spectrum: 3648
>>>>>Begin Spectral Data<<<<<
177.566	75.16
177.785	87.84
178.005	209.59
178.225	-32.24
178.445	-185.28
178.665	-1012.94
178.885	813.92
179.105	72.98
179.324	41.23
179.544	42.12
179.764	508.37
179.984	20.41
180.204	11.39
180.423	14.01
180.643	30.21
180.863	50.4
181.083	29.75
181.302	42.41
181.522	105.73
181.742	127.95
181.961	129.15
182.181	104.56
182.401	235.79
182.621	198.92
182.84	242.69
183.06	205.3
183.279	151.36
183.499	127.45
183.719	109.37
183.938	94.46
184.158	100.49
184.377	98.98
184.597	104.17
184.816	94.5
185.036	104.24
185.256	95.92
185.475	100.4
185.695	110.26
185.914	125.73
186.134	135.56
186.353	130.82
186.572	126.98
186.792	130.76
187.011	129.83
187.231	143.63
187.45	140.68
187.67	160.84
187.889	137.29
188.108	172.85
188.328	183.77
188.547	219.69
188.766	245.55
188.986	242.52
189.205	321.92
189.424	305.87
189.644	99.62
189.863	96.98
190.082	265.04
190.302	297.33
190.521	45.79
190.74	94.82
190.959	55.54
191.178	43.62
191.398	47.66
191.617	49.85
191.836	79.99
192.055	64.71
192.274	55.13
192.494	66.26
192.713	29.61
192.932	41.81
193.151	29.29
193.37	49.06
193.589	49.61
193.808	81.24
194.027	75.8
194.246	61.99
194.465	80.13
194.685	84.08
194.904	81.9
195.123	115.94
195.342	152.74
195.561	178.35
195.78	170.36
195.999	220.68
196.218	172.49
196.436	211.95
196.655	216.8
196.874	206.03
197.093	257.81
197.312	305.63
197.531	289.28
197.75	215.2
197.969	188.66
198.188	206.24
198.407	189.99
198.625	187.66
198.844	183.65
199.063	176.04
199.282	174.42
199.501	156.35
199.719	132.72
199.938	102.73
200.157	89.17
200.376	110.11
200.594	103.43
200.813	110.63
201.032	125.98
201.251	122.32
201.469	138.31
201.688	177.98
201.907	192.26
202.125	142.11
202.344	152.63
202.563	184.59
202.781	160.38
203	173.09
203.218	151.49
203.437	233.93
203.656	273.98
203.874	311.54
204.093	109.5
204.311	83.22
204.53	179.65
204.748	146.79
204.967	170.3
205.185	125.55
205.404	105.26
205.622	252.09
205.841	155.42
206.059	174.83
206.278	198.82
206.496	276.48
206.715	532.65
206.933	318.45
207.151	281.4
207.37	185.54
207.588	229.63
207.806	232.4
208.025	129.09
208.243	115.42
208.461	110.53
208.68	129.89
208.898	166.2
209.116	124.02
209.335	129.82
209.553	130.93
209.771	145.65
209.989	174.73
210.208	206.31
210.426	276.09
210.644	284.77
210.862	365.56
211.081	259.4
211.299	122.15
211.517	166.49
211.735	158.95
211.953	115.2
212.171	113.11
212.39	109
212.608	91.54
212.826	96.78
213.044	92.75
213.262	89.3
213.48	78.97
213.698	81.37
213.916	68.41
214.134	69.71
214.352	77.35
214.57	79.47
214.788	70.4
215.006	77.29
215.224	62.86
215.442	68.16
215.66	92.46
215.878	99.48
216.096	119.94
216.314	137.42
216.532	142.22
216.75	141.54
216.968	153.91
217.185	148.61
217.403	147.64
217.621	160.34
217.839	156.7
218.057	142.8
218.275	121.3
218.492	90.02
218.71	80.88
218.928	89.78
219.146	89.12
219.363	97.22
219.581	137.45
219.799	123.52
220.017	87.3
220.234	90.69
220.452	86.62
220.67	92.73
220.887	116.81
221.105	103.31
221.323	114.03
221.54	92.62
221.758	74.19
221.976	67.07
222.193	59.78
222.411	72.92
222.629	64.29
222.846	72.12
223.064	73.85
223.281	72.22
223.499	79.49
223.716	78.2
223.934	81.12
224.151	83.89
224.369	76.71
224.586	86.21
224.804	77.78
225.021	93.79
225.239	84.96
225.456	84.02
225.674	71.11
225.891	65.41
226.108	59.83
226.326	62.44
226.543	60.05
226.76	59.68
226.978	52.57
227.195	45.21
227.413	36.5
227.63	38.38
227.847	38.13
228.064	38.04
228.282	32.25
228.499	29.96
228.716	28.26
228.934	24.8
229.151	21.35
229.368	19.41
229.585	20.06
229.802	21.39
230.02	20.4
230.237	19.84
230.454	20.45
230.671	21.43
230.888	22.36
231.105	20.57
231.323	24.36
231.54	30.96
231.757	32.09
231.974	37.08
232.191	33.19
232.408	34.06
232.625	27.7
232.842	26
233.059	27.52
233.276	24.84
233.493	33.61
233.71	35.17
233.927	32
234.144	34.07
234.361	30.61
234.578	33.88
234.795	32.14
235.012	36.8
235.229	38.16
235.446	36.25
235.663	33.98
235.879	26.39
236.096	22.39
236.313	26.76
236.53	27.42
236.747	28.66
236.964	26.88
237.181	28.08
237.397	24.75
237.614	23.27
237.831	25.54
238.048	27.63
238.264	29.16
238.481	28.04
238.698	29.48
238.915	25.99
239.131	22.89
239.348	26.59
239.565	26.26
239.781	29.22
239.998	28.36
240.215	26.15
240.431	24.52
240.648	26.18
240.865	25.61
241.081	20.45
241.298	20.03
241.514	22.51
241.731	19.6
241.947	17.74
242.164	18.21
242.38	17.19
242.597	17.65
242.814	16.73
243.03	17.45
243.246	18.32
243.463	18.56
243.679	20.28
243.896	19.41
244.112	20.83
244.329	22.21
244.545	20.12
244.762	23.07
244.978	23.11
245.194	24.03
245.411	22.32
245.627	21.12
245.843	19.16
246.06	15.29
246.276	14.42
246.492	13.86
246.709	12.33
246.925	13.2
247.141	12.51
247.357	12.09
247.574	11.53
247.79	10.94
248.006	11
248.222	10.81
248.439	12.21
248.655	12.66
248.871	13.4
249.087	14.39
249.303	14.3
249.519	13.49
249.736	14.64
249.952	14.26
250.168	14.31
250.384	13.45
250.6	14.94
250.816	15.68
251.032	15.58
251.248	14.97
251.464	15.3
251.68	15.02
251.896	15.99
252.112	15.62
252.328	15.38
252.544	16.71
252.76	16.43
252.976	17.38
253.192	16.33
253.408	16.64
253.624	15.39
253.84	15.78
254.056	16.76
254.272	15.55
254.487	15.67
254.703	18.14
254.919	17.66
255.135	16.75
255.351	14.26
255.567	13.37
255.782	13.6
255.998	15
256.214	12.73
256.43	12.38
256.646	14.01
256.861	10.88
257.077	12.59
257.293	13.4
257.508	12.8
257.724	12.88
257.94	14.32
258.155	12.8
258.371	12.05
258.587	12.58
258.802	11.51
259.018	11.37
259.234	12.39
259.449	11.06
259.665	10.49
259.88	11.83
260.096	12.16
260.312	12.58
260.527	12.85
260.743	12.54
260.958	12.41
261.174	11.95
261.389	12.55
261.605	12.84
261.82	13.4
262.036	13.68
262.251	12.34
262.466	11.84
262.682	10.44
262.897	9.48
263.113	11.48
263.328	11.59
263.543	12.98
263.759	11.97
263.974	12.5
264.189	14.72
264.405	15.49
264.62	18.03
264.835	19.93
265.051	19.52
265.266	22.13
265.481	20.86
265.696	20.87
265.912	21.23
266.127	19.6
266.342	19.12
266.557	17.69
266.773	16.56
266.988	15.38
267.203	12.66
267.418	13.24
267.633	11.41
267.848	10.77
268.064	9.71
268.279	9.55
268.494	10.89
268.709	11.24
268.924	10.54
269.139	11.2
269.354	10.84
269.569	11.96
269.784	11.54
269.999	11.04
270.214	12.29
270.429	14.13
270.644	13.14
270.859	11.79
271.074	10.74
271.289	10.56
271.504	10.56
271.719	10.32
271.934	11.19
272.149	10.26
272.363	11.08
272.578	9.78
272.793	9.05
273.008	10.6
273.223	11.04
273.438	11.5
273.653	12.63
273.867	12.42
274.082	13.65
274.297	12.65
274.512	12.94
274.726	12.82
274.941	13.87
275.156	14.82
275.371	13.84
275.585	14.56
275.8	14.11
276.015	12.63
276.229	12.99
276.444	12.92
276.659	13.47
276.873	14.73
277.088	14.86
277.302	15.57
277.517	14.37
277.732	14.25
277.946	13.73
278.161	13.39
278.375	12.91
278.59	12.86
278.804	11.9
279.019	11.54
279.233	9.76
279.448	9.82
279.662	9.08
279.877	8.24
280.091	7.9
280.306	7.48
280.52	7.53
280.735	9.89
280.949	8.66
281.163	10.66
281.378	10.6
281.592	11.15
281.806	11.1
282.021	11.03
282.235	11.62
282.449	11.45
282.664	11.02
282.878	10.57
283.092	10.84
283.307	11.34
283.521	10
283.735	9.65
283.949	9.58
284.164	8.51
284.378	8.41
284.592	7.72
284.806	8.26
285.02	8.97
285.234	9.78
285.449	7.79
285.663	8.36
285.877	8.32
286.091	8.88
286.305	9.3
286.519	11.02
286.733	11.49
286.947	12.38
287.161	12.49
287.375	12.49
287.589	13.13
287.803	14.05
288.017	13.57
288.231	12.86
288.445	12.58
288.659	12.07
288.873	10.97
289.087	10.46
289.301	10.44
289.515	11
289.729	11.31
289.943	10.74
290.157	11.08
290.371	11.03
290.584	12.17
290.798	12.64
291.012	13.23
291.226	13.52
291.44	12.85
291.654	13.57
291.867	13.28
292.081	13.75
292.295	13.81
292.509	14.34
292.722	14.62
292.936	14.58
293.15	14.15
293.364	14.41
293.577	13.42
293.791	14.28
294.005	13.18
294.218	12.81
294.432	11.77
294.645	13.25
294.859	12.83
295.073	12.41
295.286	12.15
295.5	13.26
295.713	13.03
295.927	13.44
296.14	13.71
296.354	13.62
296.568	14.28
296.781	14.82
296.994	13.91
297.208	13.38
297.421	14.44
297.635	14.17
297.848	13.66
298.062	14.06
298.275	14.38
298.489	14.01
298.702	14.63
298.915	14.3
299.129	14.16
299.342	13.91
299.555	15.03
299.769	14.74
299.982	15.5
300.195	15.36
300.409	15.04
300.622	16.05
300.835	17.17
301.048	17.42
301.262	17.33
301.475	18.01
301.688	18.19
301.901	17.12
302.115	16.56
302.328	16.96
302.541	16.05
302.754	16.22
302.967	15.68
303.18	15.57
303.393	15.97
303.607	15.39
303.82	14.03
304.033	13.61
304.246	14.12
304.459	15.44
304.672	14.92
304.885	16.22
305.098	16.6
305.311	15.77
305.524	14.72
305.737	14.24
305.95	14.32
306.163	14.82
306.376	15.44
306.589	14.83
306.802	13.73
307.015	12.37
307.228	12.12
307.44	11.09
307.653	13.06
307.866	13.61
308.079	13.27
308.292	12.61
308.505	12.41
308.718	12.57
308.93	13.28
309.143	12.39
309.356	12.61
309.569	12.16
309.781	12.72
309.994	11.16
310.207	10.78
310.42	10.36
310.632	11.09
310.845	11.51
311.058	11.18
311.27	11.06
311.483	12.48
311.696	12.84
311.908	13.11
312.121	12.51
312.333	13.06
312.546	13.28
312.759	14.27
312.971	14.35
313.184	15.19
313.396	15.33
313.609	15.07
313.821	13.81
314.034	14.8
314.246	15.56
314.459	16.65
314.671	15.25
314.884	15.92
315.096	16.44
315.309	15.84
315.521	15.28
315.733	15.29
315.946	15.73
316.158	15.07
316.371	15.41
316.583	15.67
316.795	14.91
317.008	16.29
317.22	15.44
317.432	15.49
317.644	16.54
317.857	15.8
318.069	15.12
318.281	14.06
318.494	14.98
318.706	13.77
318.918	13.16
319.13	12.98
319.342	13.24
319.555	13.49
319.767	12.26
319.979	11.61
320.191	12.18
320.403	13.4
320.615	13.34
320.827	13.54
321.039	13.65
321.252	12.32
321.464	11.92
321.676	10.39
321.888	10.8
322.1	10.63
322.312	10.9
322.524	10.18
322.736	10.11
322.948	11.65
323.16	11.59
323.372	12.12
323.584	13.76
323.796	14.79
324.007	15.65
324.219	15.45
324.431	16.64
324.643	17.28
324.855	16.96
325.067	16.64
325.279	16.38
325.491	15.99
325.702	15.47
325.914	15.21
326.126	14.76
326.338	13.7
326.55	13.51
326.761	12.78
326.973	12.54
327.185	13.4
327.396	13.08
327.608	12.18
327.82	13.06
328.032	12.82
328.243	11.81
328.455	12.25
328.666	13.95
328.878	15.02
329.09	14.49
329.301	14.72
329.513	14.59
329.725	15.01
329.936	15.4
330.148	14.47
330.359	15.29
330.571	16.16
330.782	16.12
330.994	15.2
331.205	14.31
331.417	14.47
331.628	14.1
331.84	14.24
332.051	14.03
332.262	13.76
332.474	14.11
332.685	14.54
332.897	14.69
333.108	13.56
333.319	13.83
333.531	13.62
333.742	13.26
333.953	13.35
334.165	13.8
334.376	13.16
334.587	14.52
334.799	15.32
335.01	14.66
335.221	15.02
335.432	15.52
335.644	15.46
335.855	15.72
336.066	16.78
336.277	16.95
336.488	15.61
336.7	15.93
336.911	15.46
337.122	14.94
337.333	15.33
337.544	14.67
337.755	14.7
337.966	14.73
338.177	14.54
338.388	14.06
338.599	13.98
338.811	14.73
339.022	14.76
339.233	13.88
339.444	13.85
339.655	12.98
339.866	13.65
340.076	13.9
340.287	14.32
340.498	14.5
340.709	14.88
340.92	15.45
341.131	15.97
341.342	16.27
341.553	17.61
341.764	17.39
341.975	18.26
342.185	17.18
342.396	17.51
342.607	17.3
342.818	17.17
343.029	17
343.239	16.9
343.45	15.52
343.661	15.52
343.872	14.5
344.082	15.29
344.293	14.37
344.504	14.49
344.714	13.8
344.925	13.38
345.136	13.48
345.346	13.59
345.557	12.67
345.768	12.89
345.978	12.01
346.189	11.87
346.399	11.16
346.61	11.81
346.821	12.11
347.031	11.7
347.242	11.69
347.452	11.61
347.663	10.95
347.873	11.2
348.084	11.57
348.294	12.01
348.504	12.54
348.715	12.47
348.925	12.38
349.136	11.98
349.346	13
349.557	12.64
349.767	11.94
349.977	12.07
350.188	12.76
350.398	13.1
350.608	13.5
350.819	13.84
351.029	14.04
351.239	14.6
351.449	14.86
351.66	14.88
351.87	16.22
352.08	17.11
352.29	17.16
352.501	15.94
352.711	15.92
352.921	15.72
353.131	15.2
353.341	15.44
353.552	14.31
353.762	13.78
353.972	13.18
354.182	12.93
354.392	12.59
354.602	12.35
354.812	12.9
355.022	12.26
355.232	12.17
355.442	12
355.652	11.93
355.862	12.36
356.072	12.74
356.282	12.79
356.492	11.99
356.702	11.96
356.912	11.88
357.122	12.21
357.332	12.26
357.542	11.95
357.752	12.15
357.962	12.07
358.171	12.17
358.381	12.67
358.591	12.72
358.801	13.36
359.011	13.5
359.221	13.35
359.43	13.01
359.64	13.41
359.85	13.86
360.06	13.41
360.269	13.57
360.479	13.64
360.689	12.5
360.899	12.39
361.108	11.77
361.318	11.52
361.528	12.14
361.737	11.8
361.947	11.7
362.156	11.57
362.366	11.88
362.576	11.41
362.785	11
362.995	11.74
363.204	11.46
363.414	11.51
363.623	12.24
363.833	11.75
364.042	11.96
364.252	11.52
364.461	11.12
364.671	10.94
364.88	11.06
365.09	10.54
365.299	10.17
365.509	10.29
365.718	10.35
365.927	9.67
366.137	9.06
366.346	9.11
366.555	9.4
366.765	9.83
366.974	9.95
367.183	9.63
367.393	10.06
367.602	10.38
367.811	10.36
368.021	10.68
368.23	10.67
368.439	11.03
368.648	10.49
368.857	10.3
369.067	9.91
369.276	9.88
369.485	10.19
369.694	10.12
369.903	9.67
370.112	10.5
370.321	10.19
370.531	9.6
370.74	10.05
370.949	10.39
371.158	10.49
371.367	10.92
371.576	10.73
371.785	10.94
371.994	11.45
372.203	11.7
372.412	11.11
372.621	11.06
372.83	11.49
373.039	11.34
373.248	11.19
373.457	11.32
373.666	11.12
373.874	10.69
374.083	10.82
374.292	10.41
374.501	10.54
374.71	10.17
374.919	10.15
375.128	10.37
375.336	10.45
375.545	10.59
375.754	10.17
375.963	10
376.171	10.2
376.38	9.78
376.589	9.58
376.798	9.28
377.006	9.68
377.215	9.61
377.424	9.16
377.632	9
377.841	8.96
378.05	9.14
378.258	9.35
378.467	9.58
378.675	9.34
378.884	9.31
379.093	9.02
379.301	8.93
379.51	8.99
379.718	9.25
379.927	9.38
380.135	9.17
380.344	9.4
380.552	8.88
380.761	8.91
380.969	9.23
381.177	9.35
381.386	9.31
381.594	9.2
381.803	9.1
382.011	9
382.219	8.84
382.428	8.97
382.636	8.5
382.845	9.09
383.053	9.12
383.261	9.17
383.469	8.95
383.678	9.17
383.886	8.97
384.094	8.73
384.302	8.23
384.511	8.41
384.719	8.25
384.927	8.56
385.135	8.56
385.343	8.51
385.552	8.38
385.76	8.69
385.968	8.76
386.176	8.85
386.384	9.2
386.592	9.43
386.8	9.1
387.008	9.26
387.216	9.39
387.424	9.05
387.633	8.66
387.841	8.5
388.049	8.24
388.257	8.21
388.465	8.09
388.672	8.03
388.88	7.88
389.088	7.53
389.296	7.26
389.504	7.05
389.712	6.93
389.92	7.28
390.128	7.21
390.336	7.48
390.544	7.39
390.751	7.56
390.959	7.49
391.167	7.76
391.375	8.08
391.583	8.31
391.79	8.36
391.998	8.71
392.206	8.63
392.414	8.49
392.621	8.08
392.829	7.98
393.037	8.01
393.244	7.98
393.452	7.87
393.66	7.91
393.867	7.97
394.075	8.09
394.283	7.78
394.49	7.64
394.698	8.01
394.905	8.28
395.113	8.59
395.32	8.51
395.528	8.65
395.735	8.58
395.943	8.56
396.15	8.61
396.358	8.19
396.565	8.13
396.773	8.35
396.98	8.46
397.188	8.37
397.395	7.98
397.602	7.84
397.81	7.78
398.017	7.74
398.225	7.78
398.432	7.78
398.639	7.93
398.847	8.06
399.054	7.79
399.261	7.73
399.468	8.01
399.676	8.44
399.883	8.56
400.09	8.72
400.297	9.08
400.505	9.17
400.712	8.66
400.919	8.59
401.126	8.78
401.333	8.96
401.54	8.92
401.748	8.55
401.955	8.32
402.162	8.49
402.369	8.17
402.576	8.03
402.783	7.74
402.99	7.67
403.197	7.89
403.404	7.64
403.611	7.65
403.818	7.29
404.025	7.32
404.232	7.33
404.439	7.03
404.646	7
404.853	6.88
405.06	6.78
405.267	7.33
405.474	7.2
405.681	7.29
405.887	7.09
406.094	7.36
406.301	7.3
406.508	7.25
406.715	7.16
406.922	7.12
407.128	7.33
407.335	7.49
407.542	7.48
407.749	7.48
407.955	7.57
408.162	7.6
408.369	7.84
408.575	7.99
408.782	8.09
408.989	8.28
409.195	8.4
409.402	8.3
409.609	8.54
409.815	7.98
410.022	7.88
410.228	7.8
410.435	7.83
410.642	7.39
410.848	7.42
411.055	7.19
411.261	7.02
411.468	7.11
411.674	6.96
411.881	6.8
412.087	7.06
412.294	7.48
412.5	7.24
412.706	7.37
412.913	7.44
413.119	7.52
413.326	7.71
413.532	7.9
413.738	7.99
413.945	8.15
414.151	8.01
414.357	7.87
414.564	7.72
414.77	8.12
414.976	8.09
415.182	7.99
415.389	7.97
415.595	7.91
415.801	8
416.007	7.65
416.214	7.64
416.42	7.56
416.626	7.8
416.832	7.39
417.038	7.19
417.244	7.2
417.45	7.29
417.657	7.32
417.863	7.21
418.069	7.17
418.275	7.34
418.481	7.27
418.687	7.31
418.893	7.11
419.099	7.13
419.305	7.11
419.511	7.11
419.717	7
419.923	6.86
420.129	6.95
420.335	6.85
420.541	6.77
420.746	6.6
420.952	6.65
421.158	6.65
421.364	6.76
421.57	6.76
421.776	6.72
421.982	6.81
422.187	6.89
422.393	6.79
422.599	6.73
422.805	6.83
423.01	7
423.216	6.98
423.422	7.12
423.628	7.1
423.833	7.11
424.039	7.02
424.245	6.91
424.45	6.93
424.656	6.92
424.862	7.16
425.067	7.07
425.273	7.05
425.478	7.05
425.684	7.07
425.889	7.13
426.095	7.09
426.301	7.19
426.506	7.28
426.712	7.09
426.917	7.04
427.123	6.79
427.328	6.8
427.533	6.87
427.739	6.86
427.944	6.81
428.15	6.59
428.355	6.74
428.561	6.82
428.766	6.9
428.971	6.99
429.177	7.22
429.382	7.47
429.587	7.36
429.793	7.27
429.998	7.4
430.203	7.2
430.408	7.44
430.614	7.34
430.819	7.14
431.024	7.05
431.229	7.24
431.434	7.16
431.64	6.87
431.845	6.95
432.05	7.04
432.255	6.9
432.46	6.85
432.665	6.68
432.87	6.72
433.076	6.75
433.281	6.73
433.486	6.58
433.691	6.71
433.896	6.86
434.101	6.79
434.306	6.59
434.511	6.56
434.716	6.56
434.921	6.41
435.126	6.49
435.331	6.62
435.535	6.68
435.74	6.56
435.945	6.29
436.15	6.12
436.355	6.18
436.56	6.27
436.765	6.28
436.97	6.35
437.174	6.59
437.379	6.56
437.584	6.59
437.789	6.56
437.993	6.77
438.198	6.75
438.403	6.76
438.608	6.8
438.812	6.84
439.017	6.82
439.222	6.87
439.426	6.8
439.631	6.8
439.836	6.7
440.04	6.76
440.245	6.66
440.45	6.72
440.654	6.71
440.859	6.56
441.063	6.58
441.268	6.64
441.472	6.6
441.677	6.61
441.881	6.57
442.086	6.55
442.29	6.56
442.495	6.64
442.699	6.67
442.904	6.72
443.108	6.61
443.312	6.53
443.517	6.51
443.721	6.66
443.925	6.49
444.13	6.44
444.334	6.45
444.538	6.37
444.743	6.32
444.947	6.23
445.151	6.09
445.356	6.28
445.56	6.36
445.764	6.27
445.968	6.17
446.173	6.32
446.377	6.42
446.581	6.47
446.785	6.38
446.989	6.37
447.193	6.55
447.398	6.75
447.602	6.74
447.806	6.67
448.01	6.69
448.214	6.68
448.418	6.59
448.622	6.41
448.826	6.31
449.03	6.43
449.234	6.36
449.438	6.24
449.642	6.01
449.846	6.14
450.05	6.24
450.254	6.34
450.458	6.25
450.662	6.55
450.866	6.56
451.069	6.58
451.273	6.42
451.477	6.39
451.681	6.27
451.885	6.36
452.089	6.24
452.292	6.26
452.496	6.16
452.7	6.18
452.904	5.83
453.107	5.83
453.311	5.82
453.515	5.89
453.719	6.03
453.922	6.13
454.126	6.09
454.33	6.1
454.533	5.85
454.737	5.85
454.94	6.02
455.144	6.36
455.348	6.37
455.551	6.43
455.755	6.46
455.958	6.47
456.162	6.61
456.365	6.7
456.569	6.87
456.772	6.89
456.976	6.83
457.179	6.66
457.383	6.45
457.586	6.46
457.79	6.48
457.993	6.45
458.196	6.53
458.4	6.41
458.603	6.37
458.807	6.2
459.01	6.26
459.213	6.39
459.417	6.39
459.62	6.46
459.823	6.38
460.026	6.31
460.23	6.25
460.433	6.05
460.636	6.02
460.839	6.03
461.042	6.17
461.246	6.11
461.449	6.14
461.652	6.14
461.855	6.09
462.058	6.37
462.261	6.37
462.464	6.55
462.668	6.67
462.871	6.76
463.074	6.72
463.277	6.63
463.48	6.81
463.683	6.73
463.886	6.78
464.089	6.86
464.292	6.74
464.495	6.68
464.698	6.61
464.901	6.72
465.104	6.93
465.306	7.17
465.509	7.07
465.712	6.97
465.915	6.97
466.118	6.93
466.321	6.95
466.524	6.93
466.726	7.11
466.929	7.05
467.132	6.99
467.335	6.77
467.538	6.63
467.74	6.54
467.943	6.59
468.146	6.56
468.348	6.64
468.551	6.6
468.754	6.66
468.956	6.7
469.159	6.69
469.362	6.73
469.564	6.59
469.767	6.68
469.969	6.97
470.172	6.96
470.375	7.07
470.577	7.02
470.78	6.92
470.982	6.98
471.185	6.68
471.387	6.78
471.59	6.72
471.792	6.8
471.995	6.72
472.197	6.62
472.399	6.57
472.602	6.37
472.804	6.34
473.007	6.36
473.209	6.26
473.411	6.35
473.614	6.39
473.816	6.39
474.018	6.36
474.22	6.36
474.423	6.5
474.625	6.49
474.827	6.67
475.03	6.89
475.232	7.06
475.434	6.94
475.636	7.02
475.838	6.95
476.04	6.82
476.243	6.84
476.445	6.79
476.647	6.7
476.849	6.61
477.051	6.36
477.253	6.25
477.455	6.09
477.657	5.97
477.859	5.96
478.061	5.9
478.263	6.12
478.465	6.15
478.667	6.17
478.869	6.1
479.071	6.18
479.273	6.36
479.475	6.18
479.677	6.13
479.879	6.3
480.081	6.35
480.283	6.33
480.485	6.32
480.686	6.37
480.888	6.33
481.09	6.21
481.292	6.29
481.494	6.22
481.695	6.28
481.897	6.21
482.099	6.09
482.301	6.04
482.502	6.11
482.704	6.05
482.906	5.96
483.107	6.01
483.309	6.05
483.511	5.99
483.712	5.95
483.914	5.98
484.115	5.95
484.317	6.03
484.519	6.02
484.72	5.98
484.922	5.94
485.123	5.98
485.325	5.92
485.526	5.92
485.728	5.92
485.929	5.98
486.131	5.95
486.332	6
486.534	5.91
486.735	5.83
486.936	5.92
487.138	5.93
487.339	5.96
487.541	6.05
487.742	6.06
487.943	6.1
488.144	6.03
488.346	6.08
488.547	6.12
488.748	6.12
488.95	6.19
489.151	6.16
489.352	6.14
489.553	6.11
489.755	6.06
489.956	6.05
490.157	5.96
490.358	6.01
490.559	6
490.76	5.97
490.961	6.04
491.163	6.03
491.364	5.97
491.565	6.04
491.766	6.03
491.967	5.98
492.168	5.93
492.369	5.94
492.57	5.94
492.771	5.88
492.972	5.89
493.173	5.86
493.374	5.92
493.575	5.99
493.776	5.95
493.976	6
494.177	6.14
494.378	6.22
494.579	6.31
494.78	6.28
494.981	6.42
495.182	6.41
495.382	6.52
495.583	6.41
495.784	6.36
495.985	6.45
496.185	6.38
496.386	6.26
496.587	6.31
496.788	6.38
496.988	6.39
497.189	6.27
497.39	6.27
497.59	6.2
497.791	6.23
497.992	6.3
498.192	6.27
498.393	6.3
498.593	6.37
498.794	6.35
498.994	6.33
499.195	6.28
499.395	6.46
499.596	6.6
499.796	6.68
499.997	6.84
500.197	6.83
500.398	6.73
500.598	6.84
500.799	6.82
500.999	6.86
501.199	7
501.4	7.23
501.6	7.16
501.801	7.17
502.001	7.19
502.201	7.11
502.402	7.08
502.602	7.09
502.802	7.05
503.002	7.17
503.203	7.17
503.403	7.01
503.603	7
503.803	6.96
504.003	6.95
504.204	6.92
504.404	7.04
504.604	7.14
504.804	7.45
505.004	7.45
505.204	7.45
505.404	7.37
505.604	7.37
505.804	7.33
506.005	7.43
506.205	7.48
506.405	7.55
506.605	7.42
506.805	7.39
507.005	7.18
507.204	7.23
507.404	7.05
507.604	7.19
507.804	7.2
508.004	7.17
508.204	7.14
508.404	7.03
508.604	6.91
508.804	7.03
509.003	7.05
509.203	7.05
509.403	7
509.603	7.07
509.803	7.1
510.002	7.09
510.202	7.09
510.402	7.05
510.602	7
510.801	6.94
511.001	6.93
511.201	6.83
511.4	6.96
511.6	6.87
511.8	6.93
511.999	6.97
512.199	7.02
512.398	6.97
512.598	7.09
512.797	7.34
512.997	7.39
513.197	7.27
513.396	7.36
513.596	7.36
513.795	7.46
513.994	7.52
514.194	7.46
514.393	7.51
514.593	7.64
514.792	7.53
514.992	7.47
515.191	7.58
515.39	7.71
515.59	7.88
515.789	7.89
515.988	7.89
516.188	7.86
516.387	7.92
516.586	7.92
516.786	7.94
516.985	7.98
517.184	7.91
517.383	8.02
517.582	7.97
517.782	7.93
517.981	7.9
518.18	7.89
518.379	7.89
518.578	7.79
518.777	7.81
518.976	7.76
519.176	7.82
519.375	7.79
519.574	7.75
519.773	7.79
519.972	7.64
520.171	7.64
520.37	7.62
520.569	7.68
520.768	7.82
520.967	7.83
521.166	7.88
521.365	7.8
521.564	7.9
521.762	7.83
521.961	7.9
522.16	7.95
522.359	8.04
522.558	8.19
522.757	8.14
522.956	8.15
523.154	8.2
523.353	8.23
523.552	8.27
523.751	8.33
523.949	8.5
524.148	8.35
524.347	8.53
524.546	8.54
524.744	8.51
524.943	8.55
525.142	8.56
525.34	8.48
525.539	8.5
525.737	8.52
525.936	8.53
526.135	8.49
526.333	8.52
526.532	8.48
526.73	8.36
526.929	8.36
527.127	8.36
527.326	8.32
527.524	8.4
527.723	8.47
527.921	8.48
528.12	8.5
528.318	8.44
528.516	8.43
528.715	8.42
528.913	8.48
529.112	8.53
529.31	8.5
529.508	8.53
529.707	8.56
529.905	8.56
530.103	8.56
530.301	8.56
530.5	8.63
530.698	8.69
530.896	8.82
531.094	8.85
531.293	8.87
531.491	9
531.689	9.02
531.887	9.02
532.085	9.04
532.283	9.08
532.481	9.01
532.68	9.11
532.878	9.22
533.076	9.16
533.274	9.22
533.472	9.26
533.67	9.24
533.868	9.3
534.066	9.36
534.264	9.36
534.462	9.43
534.66	9.52
534.858	9.46
535.056	9.43
535.253	9.48
535.451	9.45
535.649	9.43
535.847	9.58
536.045	9.63
536.243	9.78
536.441	9.81
536.638	9.84
536.836	9.89
537.034	9.94
537.232	9.98
537.43	10.03
537.627	10.16
537.825	10.29
538.023	10.19
538.22	10.21
538.418	10.04
538.616	10.12
538.813	10.17
539.011	10.35
539.209	10.33
539.406	10.44
539.604	10.62
539.801	10.68
539.999	10.72
540.196	10.83
540.394	10.77
540.591	10.89
540.789	10.9
540.986	10.84
541.184	10.84
541.381	10.87
541.579	10.8
541.776	10.74
541.974	10.68
542.171	10.73
542.368	10.7
542.566	10.78
542.763	10.82
542.96	10.86
543.158	10.9
543.355	10.98
543.552	11.14
543.75	11.29
543.947	11.41
544.144	11.62
544.341	11.66
544.539	11.83
544.736	11.88
544.933	11.96
545.13	12.05
545.327	12.21
545.524	12.23
545.722	12.21
545.919	12.26
546.116	12.28
546.313	12.31
546.51	12.33
546.707	12.4
546.904	12.51
547.101	12.68
547.298	12.68
547.495	12.68
547.692	12.64
547.889	12.81
548.086	12.85
548.283	12.96
548.48	13.07
548.677	13.05
548.874	13.02
549.07	13.1
549.267	12.96
549.464	13.16
549.661	13.26
549.858	13.5
550.055	13.52
550.251	13.49
550.448	13.43
550.645	13.54
550.842	13.72
551.038	13.84
551.235	13.92
551.432	14.15
551.628	14.2
551.825	14.36
552.022	14.37
552.218	14.51
552.415	14.82
552.612	15.01
552.808	15.05
553.005	14.98
553.201	15.04
553.398	15.11
553.594	15.08
553.791	15.22
553.987	15.28
554.184	15.41
554.38	15.59
554.577	15.5
554.773	15.44
554.97	15.58
555.166	16.04
555.362	16.11
555.559	16.12
555.755	16.12
555.952	16.11
556.148	16.15
556.344	16.25
556.541	16.08
556.737	16.14
556.933	16.39
557.129	16.49
557.326	16.39
557.522	16.72
557.718	16.77
557.914	16.8
558.11	16.96
558.307	16.98
558.503	17.08
558.699	17.4
558.895	17.52
559.091	17.68
559.287	17.67
559.483	17.72
559.679	17.77
559.876	18.15
560.072	18.43
560.268	18.53
560.464	18.98
560.66	18.97
560.856	19.19
561.052	19.55
561.247	19.78
561.443	19.67
561.639	19.75
561.835	19.87
562.031	19.7
562.227	19.8
562.423	19.91
562.619	19.75
562.815	20.05
563.01	19.85
563.206	19.89
563.402	19.64
563.598	19.82
563.793	19.9
563.989	19.88
564.185	20.05
564.381	20.33
564.576	20.56
564.772	20.69
564.968	20.75
565.163	20.89
565.359	21.02
565.555	21.11
565.75	21.24
565.946	21.44
566.141	21.57
566.337	21.55
566.532	21.51
566.728	21.38
566.923	21.28
567.119	21.28
567.314	21.27
567.51	21.13
567.705	21.33
567.901	21.32
568.096	21.5
568.292	21.47
568.487	21.59
568.682	21.63
568.878	21.8
569.073	21.98
569.268	22.14
569.464	22.09
569.659	22.34
569.854	22.44
570.05	22.6
570.245	22.52
570.44	22.67
570.635	22.87
570.831	22.99
571.026	22.97
571.221	22.98
571.416	23.12
571.611	23.54
571.806	23.56
572.002	23.58
572.197	23.57
572.392	23.5
572.587	23.51
572.782	23.63
572.977	23.65
573.172	23.79
573.367	23.92
573.562	23.93
573.757	23.79
573.952	23.92
574.147	24.02
574.342	24.18
574.537	24.39
574.732	24.56
574.927	24.62
575.121	24.63
575.316	24.76
575.511	24.94
575.706	24.98
575.901	25.12
576.096	25.25
576.29	25.38
576.485	25.44
576.68	25.48
576.875	25.23
577.069	25.31
577.264	25.53
577.459	25.49
577.654	25.59
577.848	25.47
578.043	25.71
578.238	25.37
578.432	25.22
578.627	25.43
578.821	25.52
579.016	25.82
579.21	25.44
579.405	25.3
579.6	25.4
579.794	25.49
579.989	25.67
580.183	25.65
580.378	25.95
580.572	26.29
580.766	26.25
580.961	26.47
581.155	26.61
581.35	27.19
581.544	27.28
581.738	27.43
581.933	27.35
582.127	27.47
582.321	27.18
582.516	27.21
582.71	26.89
582.904	27.03
583.099	26.97
583.293	27.04
583.487	26.9
583.681	27.07
583.875	27.11
584.07	27.23
584.264	27.27
584.458	27.7
584.652	27.87
584.846	28.11
585.04	27.87
585.234	28.04
585.428	27.95
585.623	28.06
585.817	27.98
586.011	27.93
586.205	27.89
586.399	28.09
586.593	27.85
586.787	27.76
586.981	27.78
587.174	27.9
587.368	27.77
587.562	27.76
587.756	27.68
587.95	27.9
588.144	28.06
588.338	27.93
588.532	27.77
588.725	27.9
588.919	28.2
589.113	28.2
589.307	28.18
589.501	28.1
589.694	28.28
589.888	28.39
590.082	28.32
590.275	28.33
590.469	28.59
590.663	28.78
590.856	28.83
591.05	28.69
591.244	28.78
591.437	28.88
591.631	29.03
591.824	29.03
592.018	29.03
592.212	29.16
592.405	29.04
592.599	28.99
592.792	28.93
592.986	28.92
593.179	29.03
593.372	28.91
593.566	28.95
593.759	29.24
593.953	29.34
594.146	29.55
594.339	29.69
594.533	30.01
594.726	30.02
594.92	29.94
595.113	30.11
595.306	30.12
595.499	30.31
595.693	30.22
595.886	30
596.079	30.06
596.272	30.03
596.466	29.92
596.659	29.87
596.852	30.1
597.045	30.41
597.238	30.23
597.431	30.27
597.624	30.35
597.818	30.43
598.011	30.6
598.204	30.49
598.397	30.52
598.59	30.44
598.783	30.31
598.976	30.25
599.169	30.15
599.362	30.21
599.555	30.34
599.748	30.15
599.941	30.42
600.134	30.47
600.326	30.47
600.519	30.61
600.712	30.99
600.905	31.4
601.098	31.3
601.291	31.34
601.483	31.38
601.676	31.2
601.869	31.34
602.062	31.32
602.255	31.18
602.447	31.4
602.64	31.19
602.833	30.89
603.025	30.7
603.218	30.86
603.411	30.8
603.603	30.84
603.796	30.96
603.989	30.82
604.181	30.85
604.374	30.85
604.566	30.79
604.759	30.81
604.951	30.78
605.144	30.63
605.336	30.65
605.529	30.78
605.721	30.83
605.914	30.59
606.106	30.82
606.299	30.81
606.491	30.78
606.683	30.78
606.876	30.93
607.068	31.09
607.26	31.29
607.453	31.14
607.645	31.02
607.837	30.95
608.03	30.93
608.222	30.93
608.414	30.86
608.606	31.04
608.799	31.19
608.991	31.08
609.183	31.2
609.375	31.32
609.567	31.28
609.759	31.44
609.952	31.55
610.144	31.71
610.336	31.82
610.528	31.82
610.72	31.8
610.912	31.86
611.104	32.07
611.296	31.94
611.488	31.91
611.68	31.82
611.872	31.65
612.064	31.71
612.256	31.74
612.448	31.73
612.64	32.05
612.832	32.18
613.023	32.26
613.215	32.06
613.407	32.26
613.599	32.18
613.791	32.67
613.983	32.46
614.174	32.55
614.366	32.82
614.558	32.69
614.75	32.48
614.941	32.43
615.133	32.19
615.325	32.47
615.516	32.45
615.708	32.36
615.9	32.27
616.091	32.58
616.283	32.46
616.475	32.29
616.666	32.37
616.858	32.33
617.049	32.19
617.241	32.29
617.432	31.97
617.624	32.02
617.815	32.07
618.007	32.12
618.198	31.91
618.39	32.14
618.581	32.2
618.773	32.48
618.964	32.52
619.155	32.81
619.347	32.67
619.538	32.85
619.729	32.88
619.921	33.23
620.112	33.16
620.303	33.32
620.494	33.18
620.686	33.19
620.877	33.1
621.068	33.2
621.259	33.25
621.451	33.45
621.642	33.63
621.833	33.44
622.024	33.31
622.215	33.38
622.406	33.46
622.597	33.51
622.788	33.71
622.98	33.54
623.171	33.54
623.362	33.49
623.553	33.58
623.744	33.37
623.935	33.46
624.126	33.48
624.317	33.4
624.508	33.45
624.698	33.66
624.889	33.29
625.08	33.5
625.271	33.55
625.462	33.57
625.653	33.44
625.844	33.56
626.034	33.57
626.225	33.6
626.416	33.68
626.607	33.69
626.798	33.53
626.988	33.86
627.179	33.92
627.37	33.89
627.56	33.66
627.751	33.79
627.942	33.84
628.132	33.75
628.323	33.5
628.514	33.55
628.704	33.37
628.895	33.4
629.085	33.16
629.276	32.85
629.466	32.59
629.657	33.08
629.847	33.03
630.038	32.91
630.228	33.04
630.419	33.33
630.609	33.23
630.8	33.46
630.99	33.52
631.181	33.77
631.371	33.77
631.561	34.43
631.752	34.23
631.942	34.02
632.132	34.19
632.323	34.4
632.513	34.46
632.703	34.45
632.893	34.55
633.084	34.38
633.274	34.19
633.464	34.16
633.654	33.76
633.844	33.78
634.034	34.01
634.225	33.92
634.415	33.88
634.605	33.73
634.795	33.8
634.985	33.59
635.175	33.85
635.365	33.83
635.555	33.88
635.745	33.87
635.935	34.03
636.125	33.63
636.315	33.56
636.505	33.68
636.695	33.86
636.885	33.53
637.075	33.6
637.265	33.26
637.455	33.31
637.644	33.53
637.834	33.57
638.024	33.34
638.214	33.64
638.404	33.48
638.593	33.41
638.783	33.27
638.973	33.58
639.163	33.46
639.352	33.55
639.542	33.62
639.732	33.39
639.921	33.54
640.111	33.51
640.301	33.45
640.49	33.73
640.68	33.79
640.87	33.94
641.059	33.96
641.249	34.61
641.438	34.64
641.628	34.41
641.817	34.66
642.007	34.32
642.196	34.3
642.386	34.62
642.575	34.37
642.764	34.53
642.954	34.42
643.143	34.44
643.333	33.81
643.522	33.59
643.711	33.68
643.901	33.8
644.09	34.42
644.279	34.61
644.469	34.33
644.658	34.51
644.847	34.42
645.036	34.37
645.226	34.41
645.415	34.3
645.604	34.51
645.793	34.76
645.982	34.93
646.171	34.54
646.361	34.29
646.55	34.48
646.739	34.73
646.928	34.38
647.117	34.87
647.306	35.17
647.495	35.36
647.684	35.6
647.873	35.29
648.062	35.03
648.251	34.67
648.44	34.74
648.629	34.73
648.818	34.27
649.007	34.58
649.196	34.37
649.384	34.24
649.573	34.43
649.762	34.48
649.951	34.91
650.14	34.73
650.328	35.38
650.517	35.43
650.706	35.8
650.895	36.02
651.083	35.96
651.272	35.69
651.461	35.79
651.65	36.2
651.838	35.65
652.027	35.28
652.216	35.2
652.404	34.78
652.593	34.92
652.781	34.4
652.97	34.38
653.158	34.13
653.347	34.09
653.535	33.81
653.724	33.52
653.912	33.89
654.101	33.99
654.289	34.47
654.478	34.88
654.666	34.75
654.855	34.88
655.043	35.01
655.231	35.47
655.42	35.62
655.608	35.85
655.796	35.87
655.985	35.9
656.173	36.21
656.361	36.24
656.55	35.93
656.738	35.87
656.926	35.92
657.114	35.89
657.302	35.7
657.491	35.84
657.679	36.01
657.867	36
658.055	36.33
658.243	36.12
658.431	35.93
658.619	35.9
658.807	36.09
658.996	36.31
659.184	36.36
659.372	36.44
659.56	35.94
659.748	35.75
659.936	35.64
660.124	35.72
660.311	35.66
660.499	35.59
660.687	35.56
660.875	35.26
661.063	35.24
661.251	35.05
661.439	35.19
661.627	35.89
661.814	35.54
662.002	35.7
662.19	35.47
662.378	35.48
662.565	35.82
662.753	35.6
662.941	35.89
663.129	35.64
663.316	35.68
663.504	34.79
663.692	34.44
663.879	35.07
664.067	35.03
664.254	34.93
664.442	35.57
664.63	35.24
664.817	35.43
665.005	35.5
665.192	35.44
665.38	35.72
665.567	36.27
665.755	36.85
665.942	36.79
666.13	36.46
666.317	36.19
666.504	35.86
666.692	35.89
666.879	36.21
667.067	36.38
667.254	36.36
667.441	36.08
667.629	35.87
667.816	35.57
668.003	35.11
668.19	35.41
668.378	35.49
668.565	35.3
668.752	35.49
668.939	35.51
669.127	35.43
669.314	35.58
669.501	35.81
669.688	35.97
669.875	35.95
670.062	36.34
670.249	36
670.436	36.28
670.623	36.37
670.81	36.04
670.997	35.68
671.184	35.43
671.371	35.73
671.558	35.7
671.745	35.72
671.932	35.93
672.119	35.79
672.306	36.23
672.493	36.05
672.68	36.13
672.867	36.45
673.054	37.04
673.24	36.95
673.427	36.45
673.614	36.88
673.801	37.14
673.988	36.8
674.174	36.88
674.361	36.55
674.548	36.46
674.734	36.7
674.921	36.2
675.108	35.92
675.294	36.52
675.481	36.49
675.668	36.35
675.854	36.7
676.041	36.67
676.227	36.29
676.414	36.59
676.601	37.33
676.787	37.04
676.974	37.26
677.16	37.43
677.347	37.15
677.533	37.35
677.719	37.04
677.906	36.41
678.092	36.24
678.279	36.54
678.465	36.81
678.651	36.31
678.838	36.5
679.024	36.57
679.21	36.33
679.397	36.1
679.583	36.28
679.769	36.06
679.955	36.11
680.142	36.1
680.328	36.07
680.514	35.82
680.7	35.59
680.886	35.41
681.073	35.17
681.259	35.38
681.445	35.61
681.631	35.28
681.817	35.36
682.003	35.44
682.189	35.19
682.375	35.39
682.561	35.35
682.747	35.61
682.933	35.26
683.119	35.41
683.305	35.06
683.491	34.91
683.677	35.28
683.863	35.56
684.049	35.64
684.235	36.16
684.42	35.62
684.606	35.3
684.792	35.7
684.978	36.3
685.164	36.52
685.349	36.79
685.535	36.86
685.721	36.74
685.907	36.22
686.092	36.18
686.278	36.34
686.464	36.61
686.649	36.59
686.835	36.23
687.021	36.06
687.206	36.34
687.392	35.97
687.577	35.73
687.763	35.37
687.948	36.1
688.134	36.27
688.319	36.2
688.505	36.55
688.69	36.8
688.876	36.53
689.061	36.34
689.247	36.04
689.432	36.28
689.618	36.18
689.803	36.45
689.988	36.1
690.174	35.76
690.359	35.87
690.544	35.36
690.73	35.28
690.915	35.5
691.1	35.54
691.285	35.59
691.471	35.99
691.656	36.38
691.841	35.96
692.026	36.29
692.211	36.4
692.396	36.24
692.582	36.78
692.767	36.99
692.952	36.53
693.137	36.56
693.322	36.12
693.507	36.02
693.692	35.8
693.877	36.22
694.062	35.91
694.247	36.04
694.432	36.24
694.617	35.79
694.802	36.15
694.987	36.35
695.172	36.47
695.357	36.72
695.541	36.39
695.726	36.5
695.911	36.56
696.096	36.67
696.281	36.31
696.466	36.49
696.65	36.5
696.835	36.18
697.02	36.86
697.204	36.56
697.389	37.16
697.574	37.13
697.759	36.9
697.943	36.8
698.128	36.39
698.312	36.53
698.497	36.18
698.682	36.51
698.866	36.74
699.051	36.48
699.235	36.55
699.42	36.39
699.604	36.83
699.789	36.94
699.973	37.07
700.158	37.58
700.342	37.64
700.527	38.15
700.711	38.17
700.895	38.03
701.08	37.94
701.264	38.18
701.448	38.1
701.633	37.41
701.817	37.73
702.001	37.8
702.186	37.59
702.37	37.13
702.554	36.35
702.738	36.08
702.923	36.64
703.107	36.97
703.291	37.51
703.475	37.27
703.659	37.64
703.843	37.93
704.027	37.81
704.212	37.81
704.396	38.15
704.58	39.26
704.764	39.12
704.948	37.81
705.132	37.82
705.316	37.93
705.5	38.26
705.684	39.02
705.868	38.48
706.052	38.43
706.235	39.21
706.419	39.36
706.603	38.24
706.787	38.12
706.971	38.52
707.155	37.92
707.339	37.04
707.522	36.33
707.706	35.91
707.89	36.21
708.074	36.36
708.257	35.51
708.441	36.36
708.625	36.79
708.808	37.09
708.992	37.49
709.176	37.33
709.359	37.85
709.543	38.37
709.727	38.41
709.91	38.55
710.094	38.23
710.277	38.33
710.461	37.88
710.644	37.81
710.828	37.63
711.011	37.28
711.195	37.74
711.378	37.83
711.562	37.93
711.745	37.63
711.928	37.04
712.112	37.2
712.295	36.97
712.478	36.95
712.662	36.68
712.845	36.72
713.028	36.54
713.212	37.11
713.395	36.64
713.578	36.4
713.761	36.83
713.945	37.35
714.128	37.37
714.311	37.7
714.494	37.53
714.677	38.37
714.86	38.28
715.043	38.46
715.227	37.84
715.41	37.74
715.593	37.38
715.776	37.06
715.959	37.01
716.142	37.15
716.325	37.12
716.508	37.22
716.691	36.89
716.874	37.55
717.057	37.93
717.239	38.45
717.422	38.97
717.605	39.6
717.788	39.56
717.971	39.99
718.154	40.07
718.337	40.14
718.519	40.04
718.702	40.17
718.885	40.29
719.068	39.95
719.25	39.46
719.433	39.46
719.616	39.2
719.798	38.47
719.981	38.21
720.164	37.57
720.346	37.36
720.529	37.27
720.712	36.71
720.894	36.06
721.077	36.17
721.259	35.98
721.442	35.91
721.624	36.21
721.807	37.6
721.989	37.73
722.172	38.4
722.354	38.5
722.537	38.9
722.719	39.31
722.901	39.43
723.084	39.83
723.266	39.98
723.448	40.24
723.631	40.25
723.813	39.97
723.995	39.69
724.178	39.66
724.36	39.78
724.542	39.42
724.724	40.33
724.907	40.77
725.089	40.02
725.271	39.98
725.453	40.17
725.635	40.44
725.817	40.71
725.999	40.31
726.181	40.39
726.364	40.55
726.546	40.54
726.728	39.72
726.91	39.39
727.092	39.74
727.274	39.93
727.456	39.47
727.638	39.3
727.819	38.89
728.001	38.81
728.183	39.02
728.365	38.71
728.547	38.51
728.729	38.41
728.911	38.75
729.093	38.91
729.274	39.54
729.456	39.78
729.638	39.96
729.82	40.15
730.001	40.41
730.183	40.71
730.365	41.03
730.546	41.02
730.728	41.08
730.91	40.2
731.091	40.27
731.273	39.38
731.455	39
731.636	39.16
731.818	38.68
731.999	38.88
732.181	38.31
732.362	37.77
732.544	38.57
732.725	37.98
732.907	38.18
733.088	37.96
733.27	38.61
733.451	38.34
733.633	38.84
733.814	38.55
733.995	38.02
734.177	37.67
734.358	37.86
734.539	38.06
734.721	38.5
734.902	39.28
735.083	39.46
735.264	39.48
735.446	39.96
735.627	39.16
735.808	39.77
735.989	40.08
736.17	40.85
736.351	41.46
736.533	40.59
736.714	40.63
736.895	39.59
737.076	39.18
737.257	38.9
737.438	38.87
737.619	39.03
737.8	38.8
737.981	39.6
738.162	39.74
738.343	40
738.524	39.86
738.705	40.23
738.886	40.51
739.067	40
739.247	40.24
739.428	39.65
739.609	39.17
739.79	38.78
739.971	38.77
740.151	38.55
740.332	38
740.513	39.05
740.694	38.29
740.874	38.96
741.055	39.79
741.236	40.03
741.417	40.18
741.597	40.51
741.778	41.32
741.958	39.84
742.139	39.44
742.32	38.7
742.5	37.93
742.681	37.85
742.861	37.11
743.042	37.13
743.222	36.74
743.403	36.17
743.583	36.49
743.764	35.64
743.944	36.87
744.124	37.43
744.305	38.23
744.485	38.66
744.666	39.11
744.846	40.43
745.026	40.64
745.207	40.8
745.387	42.1
745.567	42.46
745.747	42.72
745.928	42.38
746.108	42.52
746.288	42.65
746.468	41.69
746.648	41.73
746.829	41.18
747.009	41.72
747.189	41.25
747.369	41
747.549	40.77
747.729	41.54
747.909	40.97
748.089	40.64
748.269	39.43
748.449	39.66
748.629	39.17
748.809	38.31
748.989	37.86
749.169	37.79
749.349	37.47
749.529	36.62
749.709	36.19
749.889	36.26
750.068	35.99
750.248	36.82
750.428	38.27
750.608	38.22
750.788	40.24
750.967	40.57
751.147	41.25
751.327	41.78
751.507	42.18
751.686	42.76
751.866	43.11
752.046	43.5
752.225	44.21
752.405	43.01
752.585	44.09
752.764	43.03
752.944	43.22
753.123	42.43
753.303	42.16
753.482	42.23
753.662	42.26
753.841	42.56
754.021	42.68
754.2	42.15
754.38	43.01
754.559	43.45
754.739	42.88
754.918	42.31
755.097	42.58
755.277	42.33
755.456	42.58
755.635	41.32
755.815	41.63
755.994	41.16
756.173	40.14
756.352	39.74
756.532	38.73
756.711	39
756.89	39.94
757.069	39.66
757.248	39.7
757.427	39.68
757.607	40.76
757.786	40.24
757.965	40.04
758.144	40.53
758.323	40.05
758.502	40.89
758.681	40.45
758.86	40.06
759.039	40.24
759.218	40.15
759.397	39.28
759.576	38.34
759.755	38.63
759.934	38.59
760.113	39.24
760.291	39.07
760.47	38.03
760.649	38.37
760.828	37.21
761.007	37.3
761.186	37.84
761.364	38.57
761.543	39.11
761.722	38.74
761.901	39.17
762.079	39.19
762.258	39.35
762.437	39.13
762.615	39.14
762.794	39.57
762.972	39.27
763.151	39.25
763.33	38.77
763.508	38.54
763.687	38.86
763.865	39.03
764.044	38.82
764.222	39.05
764.401	39.57
764.579	39.84
764.758	39.29
764.936	40.08
765.114	39.88
765.293	39.96
765.471	40.56
765.65	40.53
765.828	39.96
766.006	39.45
766.184	39.14
766.363	39.37
766.541	38.39
766.719	39.17
766.898	39.09
767.076	38.57
767.254	38.81
767.432	37.56
767.61	37.84
767.788	37.42
767.967	37.97
768.145	37.49
768.323	36.75
768.501	37.76
768.679	37.34
768.857	36.54
769.035	37.43
769.213	38.05
769.391	39.46
769.569	38.99
769.747	40.53
769.925	40.97
770.103	42.25
770.281	41.83
770.459	42.19
770.636	41.9
770.814	41.85
770.992	41.7
771.17	41.44
771.348	41.26
771.525	41.2
771.703	41
771.881	41.32
772.059	40.78
772.236	42.07
772.414	40.11
772.592	40.73
772.769	41.97
772.947	42.77
773.125	40.88
773.302	41.52
773.48	42.29
773.657	41.99
773.835	42.02
774.013	41.07
774.19	41.93
774.368	43.93
774.545	43.44
774.723	42.38
774.9	41.62
775.077	44.4
775.255	43.43
775.432	43.36
775.61	43.32
775.787	43.11
775.964	44.47
776.142	44.19
776.319	42.63
776.496	42.62
776.674	42.56
776.851	42.65
777.028	42.45
777.205	41.72
777.382	40.97
777.56	41.86
777.737	42.65
777.914	41.95
778.091	41.12
778.268	41.25
778.445	41.43
778.622	41.99
778.8	41.7
778.977	39.89
779.154	47.58
779.331	47.84
779.508	47.39
779.685	46.97
779.862	45.9
780.038	44.87
780.215	46.47
780.392	46.93
780.569	45.82
780.746	45.37
780.923	46.78
781.1	39.29
781.277	40.15
781.453	39.53
781.63	37.67
781.807	40.53
781.984	40.4
782.16	39.19
782.337	39.12
782.514	40.4
782.691	41.02
782.867	41.56
783.044	42.49
783.221	41.84
783.397	43.91
783.574	43.23
783.75	42.34
783.927	44.64
784.103	45.67
784.28	45.38
784.456	44.07
784.633	43.85
784.809	41.75
784.986	41.88
785.162	41.66
785.339	39.88
785.515	43.09
785.692	42.18
785.868	41.42
786.044	40.39
786.221	41.47
786.397	42.88
786.573	45.18
786.749	46.12
786.926	44.38
787.102	45.53
787.278	44.92
787.454	44.4
787.631	44.86
787.807	44.3
787.983	44.48
788.159	43.91
788.335	45.05
788.511	44.76
788.687	45.36
788.863	46.15
789.039	44.97
789.216	44.45
789.392	43.23
789.568	46.24
789.744	47.33
789.919	48.99
790.095	49.27
790.271	47.43
790.447	45.37
790.623	43.24
790.799	42.35
790.975	42.73
791.151	45.16
791.327	46.07
791.502	43.52
791.678	41.34
791.854	42.35
792.03	41.44
792.205	41.11
792.381	41.56
792.557	44.61
792.733	46.33
792.908	47.28
793.084	44.77
793.259	44.09
793.435	41.69
793.611	43.57
793.786	40.94
793.962	43
794.137	44.06
794.313	44.05
794.488	41.05
794.664	41.07
794.839	40.82
795.015	43.42
795.19	44.5
795.366	46.04
795.541	47.6
795.716	46.91
795.892	46.3
796.067	46.66
796.242	46.32
796.418	49.37
796.593	48.72
796.768	47.02
796.944	46.01
797.119	44.28
797.294	45.58
797.469	44.16
797.644	45.81
797.82	45.49
797.995	44.5
798.17	44.6
798.345	40.79
798.52	40.55
798.695	40.45
798.87	39.77
799.045	40.46
799.22	41.63
799.395	39.42
799.57	37.94
799.745	38.2
799.92	39.01
800.095	39.91
800.27	41.33
800.445	40.13
800.62	40.41
800.795	41.2
800.97	39.66
801.145	38.09
801.319	40.6
801.494	40.17
801.669	40.73
801.844	40.99
802.018	41.49
802.193	40.96
802.368	42.47
802.543	44.19
802.717	46.05
802.892	47.57
803.067	47.55
803.241	47.11
803.416	49.19
803.59	47.31
803.765	47.43
803.94	45.04
804.114	49.85
804.289	49.96
804.463	46.91
804.638	44.97
804.812	45.14
804.986	44.92
805.161	45.22
805.335	43.59
805.51	44.01
805.684	43.39
805.858	45.34
806.033	41.55
806.207	39.62
806.381	41.26
806.556	39.98
806.73	40.35
806.904	41.57
807.078	40.15
807.253	40.38
807.427	40.23
807.601	40.45
807.775	40.98
807.949	42.32
808.123	44.67
808.298	43.48
808.472	43.58
808.646	43.16
808.82	42.33
808.994	42.97
809.168	44.02
809.342	44.64
809.516	42.09
809.69	40.59
809.864	39.59
810.038	38.57
810.212	40.62
810.385	41.87
810.559	40.79
810.733	40.2
810.907	40.96
811.081	39.11
811.255	38.82
811.428	39.19
811.602	39.09
811.776	40.56
811.95	41.99
812.123	42.53
812.297	41.72
812.471	42.43
812.644	43.1
812.818	41.76
812.992	42.64
813.165	41.85
813.339	43.34
813.512	45.34
813.686	44.02
813.86	44.07
814.033	44.38
814.207	45.61
814.38	46.71
814.554	43.84
814.727	44.88
814.9	43.08
815.074	45.09
815.247	45.19
815.421	43.26
815.594	43.05
815.767	42.37
815.941	40.88
816.114	38.3
816.287	39.34
816.46	40.54
816.634	38.92
816.807	40.75
816.98	40.22
817.153	41.17
817.327	41.46
817.5	42.03
817.673	42.79
817.846	42.69
818.019	45.87
818.192	44.45
818.365	40.73
818.538	43.64
818.711	42.69
818.884	42.8
819.057	42.03
819.23	43.13
819.403	40.69
819.576	40.12
819.749	42.37
819.922	40.28
820.095	40.5
820.268	44.05
820.441	43.99
820.614	43.39
820.786	43.21
820.959	41.65
821.132	39.15
821.305	39.93
821.477	39.49
821.65	37.65
821.823	38.43
821.996	38.33
822.168	38.58
822.341	38.08
822.514	38
822.686	37.44
822.859	37.7
823.031	37.91
823.204	37.86
823.376	37.4
823.549	37.5
823.722	37.02
823.894	37.35
824.067	36.49
824.239	35.98
824.411	36.32
824.584	36.06
824.756	35.82
824.929	36.02
825.101	36.25
825.273	36.4
825.446	36.97
825.618	36.62
825.79	35.79
825.963	36.39
826.135	37.47
826.307	37.03
826.479	37.66
826.652	38.36
826.824	38.26
826.996	38.03
827.168	38.3
827.34	37.78
827.512	38.71
827.684	38.94
827.856	39.08
828.029	38.14
828.201	37.75
828.373	37.57
828.545	36.93
828.717	37.58
828.889	37.28
829.061	37.81
829.232	37.33
829.404	36.49
829.576	36.42
829.748	35.89
829.92	35.87
830.092	37.05
830.264	38.26
830.436	39.6
830.607	38.46
830.779	39.81
830.951	40
831.123	40.5
831.294	42.13
831.466	43.92
831.638	45.12
831.809	46.74
831.981	47.37
832.153	46.26
832.324	45.62
832.496	47.06
832.667	47.67
832.839	47.26
833.011	47.55
833.182	47.34
833.354	46.37
833.525	44.39
833.697	42.22
833.868	40.93
834.039	40.15
834.211	39.19
834.382	38.53
834.554	37.57
834.725	35.96
834.896	37.26
835.068	36.93
835.239	35.59
835.41	36.6
835.581	38.43
835.753	39.34
835.924	40.22
836.095	40.61
836.266	41.67
836.438	40.18
836.609	43.54
836.78	41.84
836.951	40.6
837.122	40.62
837.293	40.16
837.464	39.85
837.635	38.75
837.806	40.06
837.977	41.57
838.148	41.19
838.319	44.58
838.49	42.84
838.661	43.31
838.832	46.04
839.003	48.1
839.174	50.37
839.345	50.8
839.516	49.32
839.687	45.43
839.857	42.8
840.028	40.79
840.199	39.75
840.37	38.27
840.54	40.7
840.711	41.48
840.882	45.13
841.053	43.94
841.223	38.01
841.394	43.45
841.564	48.14
841.735	51.01
841.906	51.77
842.076	49.95
842.247	52.99
842.417	51.53
842.588	50.18
842.758	49.06
842.929	48.76
843.099	53.71
843.27	54.18
843.44	54.38
843.611	53.61
843.781	54.83
843.951	57.76
844.122	57.44
844.292	60.25
844.462	60.23
844.633	57.09
844.803	54.88
844.973	54.4
845.144	53.09
845.314	53.24
845.484	52.49
845.654	50.08
845.824	55.5
845.995	54.46
846.165	53.38
846.335	58.95
846.505	57.07
846.675	60.53
846.845	59.93
847.015	59.04
847.185	56.51
847.355	54.15
847.525	51.02
847.695	46.54
847.865	46.46
848.035	47.61
848.205	39.31
848.375	40.48
848.545	38.9
848.715	38.35
848.884	40.33
849.054	39.23
849.224	39.36
849.394	48.02
849.564	45.69
849.733	41.66
849.903	40.53
850.073	41.25
850.243	43.6
850.412	44.4
850.582	47.95
850.752	37.55
850.921	40.18
851.091	49.81
851.26	48.42
851.43	49.15
851.599	58.89
851.769	57.85
851.939	53.35
852.108	53.77
852.278	54.97
852.447	56.28
852.616	60
852.786	57.07
852.955	48.16
853.125	50.5
853.294	48.33
853.463	41.27
853.633	41.44
853.802	51.85
853.971	51.47
854.141	51.4
854.31	55.4
854.479	57.93
854.648	64.3
854.818	73.15
854.987	70.95
855.156	71.66
855.325	70.86
855.494	73.56
855.663	76.56
855.832	69.63
856.001	71.76
856.171	66.55
856.34	67.99
856.509	63.77
856.678	67.25
856.847	71.86
857.016	73.75
857.185	79.37
857.353	69.23
857.522	66.51
857.691	76.02
857.86	74.92
858.029	71.72
858.198	70.18
858.367	69.1
858.535	67.77
858.704	62.03
858.873	65.34
859.042	66.58
859.21	70.64
859.379	73.3
859.548	70.87
859.717	70.19
859.885	75.32
860.054	74.01
860.222	77.37
860.391	74.46
860.56	73.38
860.728	70.4
860.897	69.29
861.065	71.34
861.234	63.11
861.402	66.26
861.571	63.34
861.739	60.24
861.908	59.34
862.076	59.28
862.244	64.19
862.413	67.83
862.581	60.92
862.749	58.97
862.918	56.63
863.086	55.98
863.254	53.13
863.423	57.49
863.591	60.29
863.759	58
863.927	60.75
864.096	58.8
864.264	56.1
864.432	67.44
864.6	67.12
864.768	64.14
864.936	61.7
865.104	57.41
865.272	59.98
865.44	60.07
865.608	56.67
865.776	56.02
865.944	55.83
866.112	50.18
866.28	38.18
866.448	35.13
866.616	39.21
866.784	43.62
866.952	48.14
867.12	46.79
867.288	48.75
867.455	53.57
867.623	59.28
867.791	56.33
867.959	61.32
868.127	69
868.294	67.49
868.462	58.36
868.63	59.28
868.797	57.36
868.965	50.46
869.133	49.18
869.3	51
869.468	44.02
869.636	45.02
869.803	44.23
869.971	45.98
870.138	51.42
870.306	57.93
870.473	56
870.641	55.44
870.808	64.11
870.975	68.35
871.143	69.02
871.31	75.5
871.478	73.36
871.645	78.11
871.812	81.45
871.98	77.28
872.147	80.82
872.314	79.39
872.482	84.89
872.649	83.07
872.816	73.47
872.983	71.37
873.15	65.83
873.318	67.01
873.485	59.77
873.652	57.54
873.819	54.88
873.986	54.19
874.153	54.25
874.32	51.37
874.487	52.7
874.654	56.18
874.821	56.34
874.988	59.25
875.155	60.38
875.322	63.98
875.489	58.7
875.656	60.7
875.823	63.46
875.99	61.76
876.157	61.94
876.324	54.16
876.49	51.8
876.657	53.55
876.824	51.94
876.991	46.41
877.157	54.59
877.324	54.29
877.491	56.05
877.658	57.43
877.824	59.57
877.991	58.22
878.157	66.19
878.324	67.9
878.491	69.42
878.657	78.95
878.824	81.74
878.99	81.11
879.157	88.52
879.323	86.25
879.49	79.78
879.656	76.58
879.823	74.71
879.989	61.67
880.156	55.76
880.322	48.22
880.488	37.31
880.655	39.04
880.821	35.45
880.987	33.93
881.154	35.33
881.32	36.99
881.486	36.95
881.652	33.96
881.819	39.02
881.985	37.89
882.151	40.47
882.317	40.98
882.483	39.18
882.649	39.68
882.816	38.38
882.982	37.07
883.148	37.72
883.314	36.25
883.48	36.61
883.646	34.31
883.812	34.16
883.978	34.33
884.144	34.62
884.31	34.37
884.476	34.32
884.642	35.72
884.807	36.85
884.973	36.64
885.139	36.59
885.305	38.52
885.471	38.93
885.637	39.72
885.802	39.23
885.968	39.04
886.134	38.21
886.3	37.33
886.465	37.21
886.631	36.61
886.797	36.76
886.962	38.03
887.128	37.98
887.293	41.88
887.459	41.26
887.625	42.01
887.79	43.24
887.956	49.9
888.121	51.58
888.287	52.41
888.452	53.14
888.618	53.43
888.783	57.44
