Data from LC_251_Reflection_1.txt Node
Date: Thu Nov 19 23:04:15 EST 2015
User: robert
Spectrometer: USB4E03001
Autoset integration time: false
Trigger mode: 4
Integration Time (sec): 1.000000E-1
Scans to average: 15
Electric dark correction enabled: true
Nonlinearity correction enabled: false
Boxcar width: 5
Stray light correction enabled: false
XAxis mode: Wavelengths
Stop averaging: false
Number of Pixels in Spectrum: 3648
>>>>>Begin Spectral Data<<<<<
177.566	-66.24
177.785	-8.63
178.005	14.1
178.225	3.47
178.445	17.34
178.665	10.79
178.885	33.31
179.105	269.05
179.324	139.93
179.544	117.61
179.764	136.93
179.984	162.07
180.204	299.39
180.423	296.52
180.643	248.9
180.863	153.61
181.083	225.3
181.302	142.84
181.522	105.86
181.742	121.04
181.961	134.51
182.181	163.76
182.401	196.54
182.621	181.49
182.84	302.83
183.06	228.39
183.279	261.43
183.499	206.86
183.719	750.22
183.938	2208.42
184.158	-772.69
184.377	-1023.72
184.597	526.69
184.816	-6089.62
185.036	-240.69
185.256	3217.78
185.475	269.49
185.695	231.13
185.914	267.54
186.134	426.23
186.353	298.77
186.572	272.51
186.792	529.45
187.011	-4184.74
187.231	-1108.52
187.45	-1179.81
187.67	-69.2
187.889	-66.76
188.108	-13.71
188.328	-5.72
188.547	-149.89
188.766	-327.22
188.986	-398.87
189.205	6736.27
189.424	238.73
189.644	246.04
189.863	160.55
190.082	119.4
190.302	155.34
190.521	168.49
190.74	172.8
190.959	155.38
191.178	151.38
191.398	176.43
191.617	158.19
191.836	517.87
192.055	192.38
192.274	253.75
192.494	225.99
192.713	115.75
192.932	82.64
193.151	96.21
193.37	107.72
193.589	102.87
193.808	94.43
194.027	96.79
194.246	77.3
194.465	86.08
194.685	80.09
194.904	80.59
195.123	94.85
195.342	117.28
195.561	96.3
195.78	85.66
195.999	92.85
196.218	86.47
196.436	77.81
196.655	83.1
196.874	69.34
197.093	85.31
197.312	104.99
197.531	97.08
197.75	192
197.969	261.11
198.188	-710.83
198.407	-169.22
198.625	-358.78
198.844	-218.57
199.063	-1967.1
199.282	-266.6
199.501	-301.64
199.719	-484.21
199.938	-166.76
200.157	-418.61
200.376	-501.48
200.594	3128.27
200.813	2173.95
201.032	1785.71
201.251	1775.03
201.469	1054.11
201.688	364.59
201.907	561.44
202.125	2148.93
202.344	528.24
202.563	708.23
202.781	529.38
203	387.36
203.218	353.5
203.437	274.8
203.656	280.18
203.874	461.89
204.093	617.95
204.311	218.54
204.53	185.46
204.748	189.37
204.967	177.98
205.185	226.28
205.404	255.14
205.622	265.18
205.841	229.75
206.059	262.01
206.278	230.03
206.496	286.27
206.715	358.34
206.933	279.5
207.151	200.25
207.37	199.92
207.588	147.62
207.806	205.32
208.025	207.21
208.243	181.82
208.461	328.34
208.68	109.65
208.898	73.6
209.116	58.17
209.335	129.12
209.553	296.35
209.771	-1972.27
209.989	301.52
210.208	-15.64
210.426	219.55
210.644	184.4
210.862	161
211.081	225.7
211.299	205.78
211.517	198.26
211.735	160.25
211.953	117.04
212.171	97.22
212.39	97.67
212.608	92.59
212.826	116.77
213.044	138.01
213.262	132.28
213.48	105.66
213.698	92.75
213.916	86.49
214.134	62.26
214.352	180.57
214.57	337.85
214.788	997.29
215.006	741.62
215.224	624.5
215.442	1147.77
215.66	389.27
215.878	775.39
216.096	830.19
216.314	749.21
216.532	984.67
216.75	1521.48
216.968	-232.01
217.185	-283.73
217.403	-108.64
217.621	-211.65
217.839	33.84
218.057	16.56
218.275	49.72
218.492	66.97
218.71	85.76
218.928	74.88
219.146	58.97
219.363	65.73
219.581	89.08
219.799	88.8
220.017	92.55
220.234	98.7
220.452	122.42
220.67	127.85
220.887	106.5
221.105	104.96
221.323	89.99
221.54	105.88
221.758	88.29
221.976	64.98
222.193	74.15
222.411	60.18
222.629	63.87
222.846	52.05
223.064	63.53
223.281	58.87
223.499	51.93
223.716	53.12
223.934	29.91
224.151	34.89
224.369	37.54
224.586	23.79
224.804	39.92
225.021	52.12
225.239	50.14
225.456	29.05
225.674	24.13
225.891	37.06
226.108	47.51
226.326	45.63
226.543	47.9
226.76	37.31
226.978	50.01
227.195	39.51
227.413	18.21
227.63	17.19
227.847	22.23
228.064	21.39
228.282	18.25
228.499	17.83
228.716	20.19
228.934	18.37
229.151	20.07
229.368	17.53
229.585	18.71
229.802	18.2
230.02	18.09
230.237	17.43
230.454	16.71
230.671	13.93
230.888	13.59
231.105	9.79
231.323	12.67
231.54	11.35
231.757	12.93
231.974	12.46
232.191	15.51
232.408	16.36
232.625	18.68
232.842	21.81
233.059	26.23
233.276	27.46
233.493	28.46
233.71	24.29
233.927	24.88
234.144	26.61
234.361	21.53
234.578	19.25
234.795	19.92
235.012	18.02
235.229	13.25
235.446	19.05
235.663	17.31
235.879	20.38
236.096	22.22
236.313	18.31
236.53	17.63
236.747	23.75
236.964	27.75
237.181	23.74
237.397	23.02
237.614	28.58
237.831	26.32
238.048	24.9
238.264	19.16
238.481	19.32
238.698	23.88
238.915	25.86
239.131	22.49
239.348	17.62
239.565	19.56
239.781	22.38
239.998	21.76
240.215	18.72
240.431	17.81
240.648	20.64
240.865	18.1
241.081	16.24
241.298	15.34
241.514	16
241.731	16.78
241.947	16.6
242.164	15.29
242.38	15.36
242.597	14.69
242.814	14.73
243.03	13.97
243.246	15.51
243.463	14.87
243.679	14.45
243.896	14.55
244.112	15.06
244.329	15.49
244.545	17.31
244.762	16.68
244.978	17.61
245.194	17.5
245.411	17.37
245.627	17.69
245.843	17.62
246.06	17.63
246.276	14.79
246.492	14.28
246.709	14.16
246.925	12.93
247.141	12.34
247.357	12.15
247.574	12.19
247.79	11.65
248.006	11.1
248.222	10.61
248.439	10.27
248.655	11.07
248.871	11.48
249.087	10.56
249.303	10.46
249.519	10.19
249.736	10.76
249.952	10.57
250.168	10.45
250.384	8.48
250.6	10.33
250.816	9.92
251.032	10.85
251.248	9.5
251.464	9.84
251.68	10.06
251.896	11.08
252.112	10.9
252.328	11.96
252.544	12.66
252.76	15.41
252.976	16.44
253.192	15.81
253.408	14.97
253.624	15.68
253.84	15.3
254.056	15.39
254.272	15.32
254.487	14.43
254.703	13.65
254.919	13.3
255.135	13.06
255.351	12.6
255.567	14.7
255.782	15.55
255.998	16.13
256.214	18.81
256.43	17.85
256.646	20.61
256.861	20.13
257.077	19.93
257.293	20.93
257.508	21.1
257.724	18.68
257.94	17.31
258.155	18.65
258.371	18.43
258.587	17.56
258.802	16.62
259.018	15.03
259.234	14.36
259.449	13.98
259.665	12.87
259.88	11.48
260.096	11.57
260.312	10.6
260.527	9.38
260.743	8.76
260.958	8.63
261.174	9.18
261.389	9.03
261.605	9.7
261.82	9.12
262.036	9.11
262.251	9.78
262.466	10.04
262.682	10.85
262.897	12.97
263.113	13.88
263.328	15.58
263.543	15.26
263.759	15.27
263.974	15.3
264.189	15.94
264.405	17.25
264.62	17.13
264.835	17.99
265.051	17.7
265.266	15.62
265.481	14.07
265.696	12.15
265.912	11.68
266.127	12.13
266.342	9.66
266.557	10.02
266.773	8.98
266.988	8.67
267.203	7.13
267.418	7.86
267.633	8.5
267.848	8.48
268.064	8.46
268.279	7.35
268.494	7.32
268.709	8.48
268.924	7.69
269.139	8.34
269.354	7.17
269.569	7.33
269.784	7.6
269.999	6.8
270.214	7.9
270.429	7.5
270.644	8.48
270.859	7.71
271.074	7.38
271.289	7.34
271.504	7.73
271.719	9.39
271.934	9.26
272.149	8.98
272.363	9.43
272.578	9.69
272.793	9.79
273.008	9.91
273.223	10.39
273.438	11.89
273.653	11.67
273.867	11.11
274.082	11.01
274.297	11.35
274.512	11.26
274.726	11.66
274.941	10.33
275.156	10.23
275.371	10.46
275.585	9.14
275.8	6.99
276.015	7.09
276.229	8.34
276.444	8.12
276.659	7.89
276.873	7.9
277.088	8.2
277.302	8.48
277.517	8.8
277.732	9.02
277.946	11.24
278.161	12.25
278.375	12.87
278.59	12.46
278.804	12.44
279.019	12.23
279.233	12.21
279.448	12.46
279.662	13.14
279.877	13.12
280.091	14.08
280.306	12.28
280.52	11.6
280.735	12.39
280.949	11.67
281.163	11.74
281.378	13.18
281.592	13.92
281.806	12.65
282.021	12.79
282.235	12.36
282.449	10.98
282.664	11.61
282.878	11.18
283.092	10.44
283.307	10.96
283.521	10.98
283.735	9.92
283.949	9.26
284.164	9.05
284.378	8.47
284.592	7.59
284.806	7.41
285.02	6.56
285.234	8
285.449	7.99
285.663	8.15
285.877	8.03
286.091	8.23
286.305	8.55
286.519	8.82
286.733	8.63
286.947	10.09
287.161	9.65
287.375	10.61
287.589	8.53
287.803	8.22
288.017	7.83
288.231	8.33
288.445	8.29
288.659	8.42
288.873	7.26
289.087	7.41
289.301	7.48
289.515	8.77
289.729	8.53
289.943	9.62
290.157	10.57
290.371	10.53
290.584	9.64
290.798	10.34
291.012	10.04
291.226	10.64
291.44	11.64
291.654	10.31
291.867	9.66
292.081	9.07
292.295	9.47
292.509	8.34
292.722	8.3
292.936	8.77
293.15	7.53
293.364	8.19
293.577	9.57
293.791	8.56
294.005	9.49
294.218	10.39
294.432	10.9
294.645	11.12
294.859	10.8
295.073	10
295.286	10.29
295.5	10.33
295.713	9.13
295.927	8.07
296.14	8.2
296.354	7.08
296.568	7.32
296.781	7.43
296.994	7.62
297.208	7.91
297.421	8.61
297.635	8.84
297.848	8.59
298.062	9.49
298.275	9.83
298.489	10.06
298.702	11.28
298.915	10.98
299.129	11.25
299.342	10.66
299.555	10.85
299.769	11.12
299.982	10.38
300.195	10.67
300.409	9.95
300.622	9.52
300.835	9.78
301.048	9.41
301.262	9.18
301.475	8.65
301.688	8.12
301.901	8.74
302.115	8.4
302.328	9.73
302.541	9.32
302.754	10.14
302.967	11.46
303.18	10.64
303.393	10.56
303.607	11.08
303.82	10.87
304.033	12.09
304.246	12.38
304.459	12.51
304.672	11.67
304.885	12.99
305.098	12.57
305.311	12.25
305.524	12.23
305.737	12.13
305.95	11.51
306.163	11.03
306.376	9.63
306.589	9.44
306.802	8.29
307.015	8.35
307.228	7.88
307.44	7.87
307.653	8.36
307.866	8.41
308.079	9.6
308.292	9.61
308.505	10.86
308.718	11.04
308.93	10.36
309.143	10.74
309.356	10.34
309.569	10.76
309.781	10.68
309.994	9.32
310.207	8.86
310.42	8.97
310.632	9.24
310.845	8.88
311.058	10.08
311.27	9.93
311.483	9.95
311.696	9.64
311.908	9.43
312.121	9.43
312.333	9.65
312.546	10.02
312.759	9.39
312.971	9.55
313.184	9
313.396	8.47
313.609	8.35
313.821	8.51
314.034	9.09
314.246	8.51
314.459	8.75
314.671	9.82
314.884	9.84
315.096	9.35
315.309	8.58
315.521	9.49
315.733	9.33
315.946	10.81
316.158	11.71
316.371	11.97
316.583	11.67
316.795	10.9
317.008	10.4
317.22	10.6
317.432	10.83
317.644	11.68
317.857	10.44
318.069	10.03
318.281	8.62
318.494	8.29
318.706	8.22
318.918	8.92
319.13	9.11
319.342	8.46
319.555	8.99
319.767	9.61
319.979	8.73
320.191	10.2
320.403	11.21
320.615	11.67
320.827	10.94
321.039	9.12
321.252	9.32
321.464	10.31
321.676	10.32
321.888	9.63
322.1	10.07
322.312	10.67
322.524	10.81
322.736	9.98
322.948	10.5
323.16	10.5
323.372	11.18
323.584	11.04
323.796	10.83
324.007	10.71
324.219	10.88
324.431	10.37
324.643	10.04
324.855	10.04
325.067	10.21
325.279	9.63
325.491	10.49
325.702	11.43
325.914	10.57
326.126	10.63
326.338	12.53
326.55	12.53
326.761	12.02
326.973	12.27
327.185	12.16
327.396	12.28
327.608	12.26
327.82	12.23
328.032	11.69
328.243	12.99
328.455	13.66
328.666	12.47
328.878	12.99
329.09	13.83
329.301	14.45
329.513	14.57
329.725	14.34
329.936	14.44
330.148	14.14
330.359	14.21
330.571	14.42
330.782	13.82
330.994	14.79
331.205	13.83
331.417	13.55
331.628	13.45
331.84	13.41
332.051	13.86
332.262	14.69
332.474	15.53
332.685	16.74
332.897	16.84
333.108	16.68
333.319	16.11
333.531	16.97
333.742	17.32
333.953	17.19
334.165	17.7
334.376	17.63
334.587	17.4
334.799	16.56
335.01	16.05
335.221	14.75
335.432	15.16
335.644	14.59
335.855	13.73
336.066	13.4
336.277	12.76
336.488	12.26
336.7	11.48
336.911	11.03
337.122	11.67
337.333	12
337.544	11.64
337.755	10.52
337.966	10.18
338.177	10.36
338.388	10.5
338.599	10.72
338.811	10.76
339.022	11.14
339.233	10.47
339.444	10.32
339.655	9.81
339.866	10.76
340.076	10.95
340.287	11.38
340.498	11.57
340.709	11.65
340.92	11.68
341.131	11.56
341.342	11.69
341.553	12.8
341.764	12.11
341.975	12.55
342.185	13.16
342.396	13.22
342.607	13.34
342.818	12.86
343.029	13.17
343.239	13.46
343.45	12.88
343.661	13.19
343.872	12.71
344.082	12.83
344.293	12.73
344.504	12.29
344.714	12.36
344.925	13.2
345.136	13.18
345.346	11.4
345.557	11.64
345.768	12.28
345.978	12.16
346.189	11.86
346.399	12.01
346.61	11.18
346.821	10.73
347.031	10.75
347.242	9.87
347.452	10.55
347.663	12.14
347.873	12.55
348.084	12.73
348.294	12.1
348.504	12.51
348.715	12.71
348.925	12.62
349.136	13.49
349.346	13.29
349.557	13.62
349.767	13.65
349.977	14.07
350.188	13.14
350.398	12.3
350.608	12.91
350.819	13.21
351.029	12.87
351.239	13.23
351.449	12.28
351.66	12.65
351.87	12.37
352.08	11.56
352.29	11.88
352.501	11.73
352.711	12.29
352.921	12.24
353.131	11.35
353.341	10.73
353.552	10.82
353.762	10.99
353.972	11.36
354.182	11
354.392	11.55
354.602	9.96
354.812	9.79
355.022	9.03
355.232	9.03
355.442	9.67
355.652	10.05
355.862	10.21
356.072	10.68
356.282	10.73
356.492	11.06
356.702	11.3
356.912	11.65
357.122	12.43
357.332	12.71
357.542	12.25
357.752	12.2
357.962	12.43
358.171	12.54
358.381	12.51
358.591	11.97
358.801	11.52
359.011	11.51
359.221	11.35
359.43	10.32
359.64	10.52
359.85	10.57
360.06	10.49
360.269	10.28
360.479	9.89
360.689	9.64
360.899	9.75
361.108	9.94
361.318	9.43
361.528	9.49
361.737	9.9
361.947	9.62
362.156	9.46
362.366	10.03
362.576	10.15
362.785	10.17
362.995	9.72
363.204	9.44
363.414	8.97
363.623	8.85
363.833	9.07
364.042	9.04
364.252	9.7
364.461	9.7
364.671	8.6
364.88	8.97
365.09	8.96
365.299	10.1
365.509	10.77
365.718	10.81
365.927	11.36
366.137	11.33
366.346	11.11
366.555	10.28
366.765	10.93
366.974	11.19
367.183	10.22
367.393	9.94
367.602	9.62
367.811	9.53
368.021	10.17
368.23	9.24
368.439	9.16
368.648	9.28
368.857	9.96
369.067	9.48
369.276	9.98
369.485	9.89
369.694	10.27
369.903	9.76
370.112	9.56
370.321	9.1
370.531	9.79
370.74	9.59
370.949	9.38
371.158	9.22
371.367	9.58
371.576	8.52
371.785	9.07
371.994	8.8
372.203	8.75
372.412	8.67
372.621	8.8
372.83	8.7
373.039	8.72
373.248	8.95
373.457	9.02
373.666	8.72
373.874	9.43
374.083	8.96
374.292	9.14
374.501	9.41
374.71	9.55
374.919	9.1
375.128	9.37
375.336	9.37
375.545	9.44
375.754	8.85
375.963	8.76
376.171	8.45
376.38	9.17
376.589	8.93
376.798	8.7
377.006	8.42
377.215	8.65
377.424	7.89
377.632	8.05
377.841	7.93
378.05	8.29
378.258	8.15
378.467	8.37
378.675	7.49
378.884	7.8
379.093	7.82
379.301	7.97
379.51	8.1
379.718	8.58
379.927	8.22
380.135	8.32
380.344	8.21
380.552	8.92
380.761	8.88
380.969	9.45
381.177	9.25
381.386	9.25
381.594	9.44
381.803	9.15
382.011	8.84
382.219	9.08
382.428	9.27
382.636	9.18
382.845	8.94
383.053	8.78
383.261	8.21
383.469	8.3
383.678	8.25
383.886	7.99
384.094	8.35
384.302	8.65
384.511	8.14
384.719	7.94
384.927	8.12
385.135	8.03
385.343	8.22
385.552	8.75
385.76	8.56
385.968	8.65
386.176	8.81
386.384	8.6
386.592	8.73
386.8	9.23
387.008	8.97
387.216	8.57
387.424	8.75
387.633	8.64
387.841	8.54
388.049	8.4
388.257	8.16
388.465	7.92
388.672	7.78
388.88	7.26
389.088	6.99
389.296	7.25
389.504	7.4
389.712	6.9
389.92	6.72
390.128	6.56
390.336	6.81
390.544	7.03
390.751	7.19
390.959	7.29
391.167	7.68
391.375	7.59
391.583	7.27
391.79	7.2
391.998	7.49
392.206	7.52
392.414	7.7
392.621	7.62
392.829	7.62
393.037	7.66
393.244	7.74
393.452	7.66
393.66	7.76
393.867	7.81
394.075	7.85
394.283	7.5
394.49	7.6
394.698	7.53
394.905	7.53
395.113	7.52
395.32	7.57
395.528	7.57
395.735	7.76
395.943	7.72
396.15	7.66
396.358	7.69
396.565	8.14
396.773	8.04
396.98	8
397.188	7.95
397.395	7.73
397.602	7.33
397.81	7.2
398.017	6.83
398.225	6.83
398.432	6.99
398.639	7.09
398.847	6.93
399.054	7.1
399.261	7.1
399.468	7.17
399.676	7.38
399.883	7.48
400.09	7.76
400.297	8.22
400.505	8.38
400.712	8.58
400.919	8.61
401.126	8.7
401.333	8.85
401.54	8.85
401.748	8.85
401.955	8.66
402.162	8.72
402.369	8.63
402.576	8.26
402.783	8.1
402.99	8.11
403.197	8.01
403.404	7.6
403.611	7.35
403.818	7.39
404.025	7.46
404.232	7.19
404.439	7.28
404.646	7.15
404.853	7.32
405.06	7.22
405.267	7.24
405.474	7.23
405.681	7.33
405.887	7.43
406.094	7.39
406.301	7.18
406.508	7.47
406.715	7.16
406.922	6.75
407.128	6.42
407.335	6.58
407.542	6.3
407.749	6.28
407.955	6.49
408.162	6.61
408.369	6.63
408.575	6.75
408.782	6.76
408.989	7.03
409.195	7.22
409.402	7.38
409.609	7.16
409.815	7.13
410.022	6.94
410.228	6.84
410.435	6.7
410.642	6.78
410.848	6.87
411.055	6.82
411.261	7.03
411.468	7.3
411.674	7.16
411.881	7.56
412.087	7.59
412.294	7.54
412.5	7.38
412.706	7.07
412.913	6.96
413.119	7.05
413.326	7.01
413.532	6.79
413.738	6.78
413.945	6.8
414.151	6.79
414.357	6.92
414.564	7.03
414.77	7.09
414.976	7.21
415.182	7.19
415.389	6.92
415.595	6.95
415.801	7
416.007	6.97
416.214	6.97
416.42	6.73
416.626	6.44
416.832	6.69
417.038	6.68
417.244	6.66
417.45	6.72
417.657	6.89
417.863	7
418.069	6.87
418.275	6.97
418.481	7.01
418.687	7.1
418.893	7.26
419.099	6.98
419.305	7
419.511	6.93
419.717	6.8
419.923	6.64
420.129	6.46
420.335	6.5
420.541	6.35
420.746	6.27
420.952	6.35
421.158	6.31
421.364	6.33
421.57	6.43
421.776	6.51
421.982	6.66
422.187	6.75
422.393	6.79
422.599	6.72
422.805	6.79
423.01	6.81
423.216	6.61
423.422	6.52
423.628	6.68
423.833	6.48
424.039	6.54
424.245	6.46
424.45	6.48
424.656	6.6
424.862	6.67
425.067	6.59
425.273	6.71
425.478	6.87
425.684	7.04
425.889	7.09
426.095	7.13
426.301	7.14
426.506	7.16
426.712	7.12
426.917	7.2
427.123	7.25
427.328	7.33
427.533	7.31
427.739	7.36
427.944	7.28
428.15	7.1
428.355	7.15
428.561	7.01
428.766	7.1
428.971	7.09
429.177	6.94
429.382	6.77
429.587	6.93
429.793	6.73
429.998	6.6
430.203	6.55
430.408	6.63
430.614	6.76
430.819	6.86
431.024	6.84
431.229	6.72
431.434	6.54
431.64	6.7
431.845	6.66
432.05	6.8
432.255	6.74
432.46	6.79
432.665	6.86
432.87	6.71
433.076	6.64
433.281	6.48
433.486	6.64
433.691	6.74
433.896	6.62
434.101	6.5
434.306	6.54
434.511	6.48
434.716	6.62
434.921	6.53
435.126	6.76
435.331	6.76
435.535	6.95
435.74	6.83
435.945	6.93
436.15	7.08
436.355	7.29
436.56	7.19
436.765	7.44
436.97	7.39
437.174	7.51
437.379	7.35
437.584	7.43
437.789	7.41
437.993	7.35
438.198	7.27
438.403	7.03
438.608	6.83
438.812	6.93
439.017	6.73
439.222	6.68
439.426	6.52
439.631	6.49
439.836	6.61
440.04	6.57
440.245	6.79
440.45	6.76
440.654	6.85
440.859	6.9
441.063	7.02
441.268	7.08
441.472	7.07
441.677	7
441.881	7.01
442.086	6.79
442.29	6.7
442.495	6.43
442.699	6.38
442.904	6.38
443.108	6.48
443.312	6.27
443.517	6.16
443.721	6.35
443.925	6.53
444.13	6.62
444.334	6.88
444.538	7
444.743	7.11
444.947	7.19
445.151	7.18
445.356	7.19
445.56	7.25
445.764	7.28
445.968	7.18
446.173	7.17
446.377	7.14
446.581	6.99
446.785	7.01
446.989	7.02
447.193	6.89
447.398	6.78
447.602	6.71
447.806	6.68
448.01	6.62
448.214	6.56
448.418	6.39
448.622	6.31
448.826	6.35
449.03	6.44
449.234	6.33
449.438	6.5
449.642	6.69
449.846	6.63
450.05	6.65
450.254	6.89
450.458	6.93
450.662	7.08
450.866	7.03
451.069	7.03
451.273	6.85
451.477	6.86
451.681	6.79
451.885	6.85
452.089	6.97
452.292	6.97
452.496	6.85
452.7	6.71
452.904	6.61
453.107	6.83
453.311	6.9
453.515	6.91
453.719	7.09
453.922	7.13
454.126	6.96
454.33	6.91
454.533	6.74
454.737	6.65
454.94	6.67
455.144	6.84
455.348	6.83
455.551	6.74
455.755	6.52
455.958	6.5
456.162	6.49
456.365	6.66
456.569	6.7
456.772	6.71
456.976	6.9
457.179	6.99
457.383	6.91
457.586	6.76
457.79	6.82
457.993	6.97
458.196	6.74
458.4	6.84
458.603	6.78
458.807	6.81
459.01	6.84
459.213	6.78
459.417	6.81
459.62	6.8
459.823	6.88
460.026	6.79
460.23	6.85
460.433	6.91
460.636	6.82
460.839	6.76
461.042	6.72
461.246	6.69
461.449	6.58
461.652	6.59
461.855	6.64
462.058	6.55
462.261	6.69
462.464	6.56
462.668	6.74
462.871	6.84
463.074	6.83
463.277	6.69
463.48	6.8
463.683	6.98
463.886	6.97
464.089	6.84
464.292	6.99
464.495	6.95
464.698	6.92
464.901	6.82
465.104	6.95
465.306	7.05
465.509	7.2
465.712	7.15
465.915	6.96
466.118	7.02
466.321	7.1
466.524	7.08
466.726	6.91
466.929	7
467.132	6.97
467.335	6.67
467.538	6.57
467.74	6.58
467.943	6.68
468.146	6.77
468.348	6.71
468.551	6.72
468.754	6.6
468.956	6.7
469.159	6.78
469.362	6.79
469.564	6.86
469.767	7.12
469.969	7.12
470.172	7.18
470.375	7.05
470.577	7.18
470.78	7.25
470.982	7.48
471.185	7.56
471.387	7.27
471.59	7.35
471.792	7.38
471.995	7.16
472.197	7.06
472.399	7.05
472.602	7.21
472.804	6.88
473.007	6.79
473.209	6.47
473.411	6.33
473.614	6.56
473.816	6.57
474.018	6.53
474.22	6.71
474.423	6.78
474.625	6.67
474.827	6.58
475.03	6.7
475.232	6.68
475.434	6.92
475.636	6.93
475.838	6.93
476.04	6.83
476.243	6.85
476.445	6.66
476.647	6.7
476.849	6.62
477.051	6.66
477.253	6.66
477.455	6.75
477.657	6.56
477.859	6.61
478.061	6.65
478.263	6.66
478.465	6.62
478.667	6.71
478.869	6.8
479.071	6.76
479.273	6.72
479.475	6.61
479.677	6.61
479.879	6.8
480.081	6.79
480.283	6.78
480.485	6.75
480.686	6.84
480.888	6.78
481.09	6.77
481.292	6.9
481.494	6.87
481.695	7.03
481.897	6.99
482.099	6.8
482.301	6.78
482.502	6.67
482.704	6.67
482.906	6.59
483.107	6.63
483.309	6.63
483.511	6.56
483.712	6.54
483.914	6.54
484.115	6.51
484.317	6.56
484.519	6.54
484.72	6.58
484.922	6.57
485.123	6.61
485.325	6.58
485.526	6.54
485.728	6.61
485.929	6.62
486.131	6.53
486.332	6.55
486.534	6.52
486.735	6.54
486.936	6.53
487.138	6.52
487.339	6.52
487.541	6.54
487.742	6.5
487.943	6.49
488.144	6.52
488.346	6.58
488.547	6.6
488.748	6.67
488.95	6.68
489.151	6.64
489.352	6.65
489.553	6.73
489.755	6.68
489.956	6.77
490.157	6.77
490.358	6.76
490.559	6.74
490.76	6.74
490.961	6.67
491.163	6.74
491.364	6.75
491.565	6.78
491.766	6.68
491.967	6.75
492.168	6.74
492.369	6.73
492.57	6.73
492.771	6.79
492.972	6.79
493.173	6.83
493.374	6.84
493.575	6.95
493.776	6.96
493.976	6.88
494.177	6.89
494.378	6.93
494.579	6.86
494.78	6.87
494.981	6.82
495.182	6.82
495.382	6.72
495.583	6.58
495.784	6.56
495.985	6.56
496.185	6.58
496.386	6.69
496.587	6.7
496.788	6.78
496.988	6.98
497.189	6.92
497.39	7.02
497.59	7.03
497.791	7.13
497.992	7.04
498.192	7.03
498.393	7.16
498.593	7.09
498.794	7.05
498.994	7.04
499.195	6.91
499.395	6.92
499.596	6.79
499.796	6.81
499.997	6.87
500.197	6.92
500.398	7.02
500.598	6.93
500.799	6.96
500.999	6.9
501.199	6.95
501.4	6.88
501.6	6.84
501.801	6.86
502.001	6.85
502.201	6.77
502.402	6.88
502.602	6.77
502.802	6.88
503.002	6.91
503.203	7.09
503.403	7.15
503.603	7.14
503.803	7.28
504.003	7.31
504.204	7.36
504.404	7.26
504.604	7.14
504.804	7.38
505.004	7.39
505.204	7.38
505.404	7.25
505.604	7.28
505.804	7.43
506.005	7.43
506.205	7.41
506.405	7.42
506.605	7.65
506.805	7.73
507.005	7.47
507.204	7.46
507.404	7.38
507.604	7.35
507.804	7.33
508.004	7.31
508.204	7.29
508.404	7.26
508.604	7.29
508.804	7.17
509.003	7.27
509.203	7.41
509.403	7.31
509.603	7.29
509.803	7.43
510.002	7.35
510.202	7.25
510.402	7.25
510.602	7.32
510.801	7.34
511.001	7.32
511.201	7.29
511.4	7.26
511.6	7.48
511.8	7.58
511.999	7.42
512.199	7.49
512.398	7.56
512.598	7.58
512.797	7.66
512.997	7.55
513.197	7.6
513.396	7.54
513.596	7.42
513.795	7.2
513.994	7.12
514.194	7.4
514.393	7.4
514.593	7.37
514.792	7.44
514.992	7.37
515.191	7.55
515.39	7.58
515.59	7.68
515.789	7.74
515.988	7.92
516.188	8.05
516.387	7.89
516.586	7.9
516.786	7.97
516.985	7.95
517.184	7.98
517.383	7.88
517.582	7.81
517.782	7.7
517.981	7.71
518.18	7.63
518.379	7.63
518.578	7.62
518.777	7.58
518.976	7.58
519.176	7.67
519.375	7.63
519.574	7.65
519.773	7.73
519.972	7.88
520.171	7.91
520.37	7.99
520.569	7.98
520.768	8.07
520.967	8.13
521.166	8.09
521.365	8.12
521.564	8.19
521.762	8.15
521.961	8.13
522.16	8.04
522.359	8.12
522.558	8.17
522.757	8.1
522.956	8.13
523.154	8.11
523.353	8.3
523.552	8.27
523.751	8.25
523.949	8.33
524.148	8.35
524.347	8.44
524.546	8.51
524.744	8.54
524.943	8.74
525.142	8.71
525.34	8.77
525.539	8.67
525.737	8.62
525.936	8.69
526.135	8.82
526.333	8.83
526.532	8.81
526.73	8.81
526.929	8.84
527.127	8.79
527.326	8.76
527.524	8.83
527.723	8.79
527.921	8.85
528.12	8.88
528.318	8.84
528.516	8.83
528.715	8.81
528.913	8.83
529.112	8.8
529.31	8.8
529.508	8.86
529.707	8.79
529.905	8.86
530.103	8.9
530.301	8.88
530.5	8.91
530.698	8.97
530.896	9.04
531.094	9.07
531.293	9.16
531.491	9.23
531.689	9.27
531.887	9.43
532.085	9.49
532.283	9.47
532.481	9.47
532.68	9.56
532.878	9.62
533.076	9.62
533.274	9.61
533.472	9.55
533.67	9.6
533.868	9.56
534.066	9.48
534.264	9.49
534.462	9.54
534.66	9.59
534.858	9.44
535.056	9.4
535.253	9.39
535.451	9.47
535.649	9.6
535.847	9.65
536.045	9.73
536.243	9.91
536.441	10.03
536.638	10.04
536.836	10.02
537.034	10.2
537.232	10.32
537.43	10.43
537.627	10.38
537.825	10.42
538.023	10.36
538.22	10.46
538.418	10.35
538.616	10.27
538.813	10.25
539.011	10.46
539.209	10.56
539.406	10.59
539.604	10.67
539.801	10.86
539.999	10.78
540.196	10.87
540.394	10.91
540.591	10.97
540.789	11.04
540.986	11.11
541.184	11.04
541.381	11.03
541.579	11.06
541.776	11.11
541.974	11.09
542.171	11.14
542.368	11.2
542.566	11.24
542.763	11.28
542.96	11.33
543.158	11.47
543.355	11.61
543.552	11.73
543.75	11.77
543.947	11.84
544.144	11.91
544.341	12.02
544.539	12.08
544.736	12.09
544.933	12.12
545.13	12.22
545.327	12.12
545.524	12.09
545.722	12.11
545.919	12.2
546.116	12.15
546.313	12.29
546.51	12.26
546.707	12.42
546.904	12.49
547.101	12.68
547.298	12.64
547.495	12.74
547.692	12.89
547.889	12.94
548.086	13.05
548.283	13.29
548.48	13.46
548.677	13.67
548.874	13.58
549.07	13.76
549.267	13.78
549.464	14.05
549.661	14.16
549.858	14.39
550.055	14.48
550.251	14.63
550.448	14.72
550.645	14.72
550.842	14.85
551.038	14.87
551.235	15.05
551.432	15.27
551.628	15.22
551.825	15.33
552.022	15.35
552.218	15.4
552.415	15.44
552.612	15.3
552.808	15.2
553.005	15.16
553.201	15.32
553.398	15.44
553.594	15.29
553.791	15.43
553.987	15.56
554.184	15.56
554.38	15.58
554.577	15.53
554.773	15.77
554.97	16.07
555.166	16.28
555.362	16.26
555.559	16.05
555.755	16.32
555.952	16.53
556.148	16.44
556.344	16.57
556.541	16.67
556.737	16.72
556.933	16.8
557.129	16.72
557.326	16.77
557.522	16.93
557.718	17
557.914	17.17
558.11	16.99
558.307	17.28
558.503	17.35
558.699	17.47
558.895	17.54
559.091	17.62
559.287	17.83
559.483	18.02
559.679	18.25
559.876	18.36
560.072	18.31
560.268	18.46
560.464	18.59
560.66	18.74
560.856	18.99
561.052	19.02
561.247	19.17
561.443	19.01
561.639	18.88
561.835	18.93
562.031	19.15
562.227	19.17
562.423	19.26
562.619	19.33
562.815	19.43
563.01	19.43
563.206	19.84
563.402	19.98
563.598	20.13
563.793	20.49
563.989	20.55
564.185	20.54
564.381	20.78
564.576	20.93
564.772	20.95
564.968	20.87
565.163	20.8
565.359	20.71
565.555	20.64
565.75	20.88
565.946	20.86
566.141	21.04
566.337	21.12
566.532	21.33
566.728	21.35
566.923	21.37
567.119	21.49
567.314	21.72
567.51	21.79
567.705	21.89
567.901	21.86
568.096	21.99
568.292	21.96
568.487	21.98
568.682	21.88
568.878	22
569.073	22.17
569.268	22.38
569.464	22.41
569.659	22.67
569.854	22.83
570.05	22.96
570.245	23.21
570.44	23.28
570.635	23.61
570.831	23.68
571.026	23.88
571.221	24.03
571.416	23.96
571.611	24.2
571.806	24.16
572.002	24.17
572.197	24.36
572.392	24.26
572.587	24.45
572.782	24.3
572.977	24.44
573.172	24.46
573.367	24.43
573.562	24.64
573.757	24.79
573.952	24.97
574.147	25.09
574.342	25.17
574.537	25.33
574.732	25.39
574.927	25.43
575.121	25.39
575.316	25.57
575.511	25.57
575.706	25.52
575.901	25.34
576.096	25.37
576.29	25.52
576.485	25.42
576.68	25.27
576.875	25.28
577.069	25.64
577.264	25.78
577.459	25.76
577.654	25.93
577.848	25.98
578.043	26.13
578.238	26.17
578.432	25.82
578.627	25.95
578.821	26.17
579.016	26.11
579.21	26.24
579.405	26.39
579.6	26.25
579.794	26.35
579.989	26.57
580.183	26.43
580.378	26.69
580.572	27.2
580.766	27.26
580.961	27.16
581.155	27.35
581.35	27.17
581.544	27.15
581.738	27.29
581.933	27.28
582.127	27.17
582.321	27.4
582.516	27.62
582.71	27.57
582.904	27.71
583.099	27.93
583.293	28.17
583.487	28.09
583.681	28.37
583.875	28.52
584.07	28.64
584.264	28.72
584.458	28.67
584.652	28.59
584.846	28.69
585.04	28.88
585.234	29.08
585.428	28.97
585.623	29.02
585.817	28.86
586.011	28.95
586.205	28.99
586.399	29.21
586.593	29.36
586.787	29.19
586.981	29.14
587.174	29.04
587.368	28.88
587.562	28.92
587.756	29.21
587.95	29.16
588.144	29.13
588.338	29.22
588.532	29.34
588.725	29.43
588.919	29.41
589.113	29.72
589.307	29.63
589.501	29.85
589.694	29.97
589.888	30.15
590.082	30.27
590.275	30.17
590.469	30.15
590.663	30.09
590.856	30.17
591.05	30.31
591.244	30.27
591.437	30.46
591.631	30.37
591.824	30.18
592.018	29.87
592.212	29.93
592.405	30.07
592.599	30.12
592.792	30.24
592.986	30.15
593.179	29.99
593.372	30.05
593.566	30.07
593.759	30.26
593.953	30.43
594.146	30.43
594.339	30.55
594.533	30.62
594.726	30.53
594.92	30.34
595.113	30.45
595.306	30.57
595.499	30.37
595.693	30.36
595.886	30.47
596.079	30.73
596.272	30.95
596.466	30.93
596.659	30.93
596.852	30.94
597.045	31.15
597.238	31.09
597.431	31.05
597.624	31.14
597.818	31.36
598.011	31.24
598.204	31.14
598.397	31.19
598.59	31.18
598.783	31.43
598.976	31.39
599.169	31.4
599.362	31.44
599.555	31.51
599.748	31.58
599.941	31.27
600.134	31.58
600.326	31.48
600.519	31.29
600.712	31.09
600.905	30.86
601.098	31.06
601.291	31.04
601.483	31.39
601.676	31.69
601.869	31.68
602.062	31.69
602.255	31.45
602.447	31.61
602.64	31.86
602.833	31.95
603.025	32.18
603.218	32.16
603.411	32.07
603.603	31.96
603.796	31.9
603.989	31.75
604.181	31.8
604.374	31.95
604.566	31.93
604.759	31.87
604.951	31.84
605.144	31.79
605.336	31.77
605.529	31.76
605.721	31.7
605.914	31.57
606.106	31.72
606.299	31.81
606.491	31.57
606.683	31.49
606.876	31.63
607.068	31.82
607.26	31.71
607.453	31.93
607.645	31.94
607.837	31.83
608.03	32.08
608.222	32.18
608.414	32.23
608.606	32.35
608.799	32.47
608.991	32.52
609.183	32.73
609.375	32.76
609.567	32.71
609.759	32.57
609.952	32.75
610.144	32.71
610.336	32.72
610.528	32.63
610.72	32.71
610.912	32.77
611.104	32.59
611.296	32.28
611.488	32.3
611.68	32.25
611.872	32.55
612.064	32.71
612.256	32.68
612.448	32.59
612.64	32.73
612.832	32.86
613.023	32.84
613.215	32.96
613.407	33.02
613.599	33.23
613.791	33.36
613.983	33.39
614.174	33.12
614.366	32.93
614.558	33.03
614.75	33.02
614.941	32.91
615.133	32.82
615.325	32.58
615.516	32.99
615.708	32.82
615.9	32.73
616.091	32.66
616.283	32.81
616.475	33.21
616.666	33.35
616.858	33.56
617.049	33.71
617.241	33.73
617.432	33.9
617.624	33.84
617.815	34.1
618.007	33.99
618.198	33.92
618.39	33.95
618.581	34.05
618.773	34
618.964	33.92
619.155	33.74
619.347	33.52
619.538	33.81
619.729	33.88
619.921	33.79
620.112	33.87
620.303	33.99
620.494	34.22
620.686	33.87
620.877	33.82
621.068	33.72
621.259	33.81
621.451	34.27
621.642	34.1
621.833	34.04
622.024	33.84
622.215	33.77
622.406	33.69
622.597	33.53
622.788	33.46
622.98	33.09
623.171	33.09
623.362	33.2
623.553	33.13
623.744	33.13
623.935	32.98
624.126	33.24
624.317	33.61
624.508	33.69
624.698	33.49
624.889	33.77
625.08	34.22
625.271	34.31
625.462	34.36
625.653	34.26
625.844	34.39
626.034	34.58
626.225	34.31
626.416	34.26
626.607	34.32
626.798	34.43
626.988	34.35
627.179	34.34
627.37	34.32
627.56	34.11
627.751	34.21
627.942	34.18
628.132	33.92
628.323	34.05
628.514	33.94
628.704	34.04
628.895	34.06
629.085	34.08
629.276	34.12
629.466	34.05
629.657	34.11
629.847	34.32
630.038	34.37
630.228	34.59
630.419	34.66
630.609	34.76
630.8	34.91
630.99	35.16
631.181	35.22
631.371	35.16
631.561	35.2
631.752	35.32
631.942	34.99
632.132	34.76
632.323	34.68
632.513	34.71
632.703	34.73
632.893	34.34
633.084	34.2
633.274	34.25
633.464	34.5
633.654	34.69
633.844	34.41
634.034	34.26
634.225	34.46
634.415	34.59
634.605	34.5
634.795	34.73
634.985	34.77
635.175	34.57
635.365	34.69
635.555	34.42
635.745	34.51
635.935	34.83
636.125	35.1
636.315	35.09
636.505	34.83
636.695	34.61
636.885	34.26
637.075	34.55
637.265	34.8
637.455	34.64
637.644	34.61
637.834	34.3
638.024	34.05
638.214	33.91
638.404	33.84
638.593	34.01
638.783	34.55
638.973	34.85
639.163	34.73
639.352	34.87
639.542	34.99
639.732	34.97
639.921	35.23
640.111	35.43
640.301	35.52
640.49	35.8
640.68	35.58
640.87	35.5
641.059	35.46
641.249	35.55
641.438	35.17
641.628	34.84
641.817	35.19
642.007	35.37
642.196	35.57
642.386	35.85
642.575	35.78
642.764	36.37
642.954	36.09
643.143	35.88
643.333	36.05
643.522	36.05
643.711	36.41
643.901	35.98
644.09	35.94
644.279	36.1
644.469	35.9
644.658	35.7
644.847	35.34
645.036	35.43
645.226	35.73
645.415	35.37
645.604	35.67
645.793	35.99
645.982	36.28
646.171	36.04
646.361	35.9
646.55	35.91
646.739	36.3
646.928	36.6
647.117	36.96
647.306	36.57
647.495	36.91
647.684	36.82
647.873	36.77
648.062	37.21
648.251	37.55
648.44	37.32
648.629	37.47
648.818	37.48
649.007	37.31
649.196	37.12
649.384	37.52
649.573	37.23
649.762	37.29
649.951	37.25
650.14	36.84
650.328	36.7
650.517	36.64
650.706	36.68
650.895	36.37
651.083	36.45
651.272	35.98
651.461	35.98
651.65	36.13
651.838	36.18
652.027	35.67
652.216	35.56
652.404	35.24
652.593	35.42
652.781	34.86
652.97	35.15
653.158	34.93
653.347	35.26
653.535	35.14
653.724	35.21
653.912	35.08
654.101	35.41
654.289	35.44
654.478	35.63
654.666	35.46
654.855	35.81
655.043	35.47
655.231	35.48
655.42	35.51
655.608	35.43
655.796	35.28
655.985	35.51
656.173	35.64
656.361	36.02
656.55	36.17
656.738	36.52
656.926	36.53
657.114	36.6
657.302	36.7
657.491	36.8
657.679	37
657.867	37.07
658.055	36.8
658.243	36.95
658.431	36.74
658.619	36.73
658.807	36.28
658.996	36.82
659.184	36.87
659.372	36.64
659.56	36.55
659.748	36.35
659.936	36.46
660.124	36.41
660.311	36.45
660.499	36.49
660.687	36.54
660.875	36.95
661.063	36.6
661.251	36.73
661.439	37.06
661.627	37.16
661.814	37.19
662.002	36.78
662.19	37.21
662.378	37.22
662.565	36.96
662.753	37.06
662.941	36.96
663.129	36.82
663.316	36.44
663.504	36.26
663.692	36.29
663.879	36.41
664.067	36.77
664.254	36.65
664.442	36.37
664.63	36.46
664.817	36.39
665.005	36.1
665.192	36.37
665.38	36.24
665.567	36.84
665.755	36.89
665.942	37.36
666.13	37.8
666.317	37.55
666.504	37.51
666.692	37.53
666.879	37.49
667.067	37.81
667.254	37.74
667.441	38.35
667.629	37.84
667.816	37.95
668.003	37.34
668.19	37.41
668.378	37.68
668.565	37.62
668.752	37.92
668.939	37.97
669.127	37.84
669.314	38.03
669.501	37.93
669.688	38.2
669.875	38.23
670.062	38.41
670.249	37.89
670.436	37.78
670.623	38.1
670.81	38.01
670.997	38.13
671.184	38.11
671.371	38.24
671.558	38.22
671.745	38.66
671.932	38.67
672.119	38.52
672.306	38.73
672.493	38.44
672.68	38.33
672.867	38.53
673.054	38.07
673.24	38.51
673.427	37.9
673.614	37.77
673.801	37.45
673.988	37.54
674.174	38.01
674.361	38.14
674.548	38.37
674.734	38.48
674.921	38.3
675.108	38.92
675.294	38.77
675.481	39.29
675.668	39.09
675.854	39.15
676.041	38.84
676.227	38.65
676.414	38.77
676.601	38.73
676.787	38.86
676.974	38.74
677.16	38.2
677.347	38.16
677.533	37.76
677.719	37.79
677.906	37.45
678.092	37.36
678.279	37.56
678.465	37.11
678.651	37.34
678.838	37.04
679.024	37.16
679.21	37.44
679.397	37.3
679.583	37.55
679.769	37.87
679.955	38
680.142	38.29
680.328	38.32
680.514	38.15
680.7	38.03
680.886	38.12
681.073	37.72
681.259	37.71
681.445	37.97
681.631	37.85
681.817	37.94
682.003	37.97
682.189	37.88
682.375	37.85
682.561	38.38
682.747	38.39
682.933	38.39
683.119	38.91
683.305	38.79
683.491	38.56
683.677	38.91
683.863	38.42
684.049	38.36
684.235	38.48
684.42	38.1
684.606	38.06
684.792	38.41
684.978	38.73
685.164	39.07
685.349	39.27
685.535	39.23
685.721	38.93
685.907	39.52
686.092	39.56
686.278	39.42
686.464	39.66
686.649	39.4
686.835	39.02
687.021	38.65
687.206	38.07
687.392	38.32
687.577	38.45
687.763	38.43
687.948	38.26
688.134	38.55
688.319	38.47
688.505	38.41
688.69	38.63
688.876	38.88
689.061	38.66
689.247	38.8
689.432	38.15
689.618	38.34
689.803	37.92
689.988	38.03
690.174	37.82
690.359	37.95
690.544	38.03
690.73	37.78
690.915	37.79
691.1	37.76
691.285	38.21
691.471	38.98
691.656	38.75
691.841	39.3
692.026	39.24
692.211	39.05
692.396	38.9
692.582	38.72
692.767	38.17
692.952	37.79
693.137	38.15
693.322	38
693.507	37.81
693.692	37.83
693.877	37.67
694.062	37.69
694.247	37.62
694.432	38.03
694.617	38.51
694.802	39.39
694.987	40.23
695.172	40.26
695.357	40.11
695.541	39.91
695.726	40.44
695.911	41.05
696.096	40.88
696.281	40.78
696.466	40.59
696.65	40.53
696.835	40.77
697.02	40.22
697.204	40.4
697.389	40.18
697.574	40.01
697.759	39.3
697.943	38.99
698.128	39.18
698.312	39.19
698.497	39.07
698.682	38.92
698.866	38.89
699.051	38.89
699.235	38.83
699.42	38.89
699.604	38.53
699.789	38.73
699.973	38.73
700.158	38.69
700.342	38.72
700.527	38.72
700.711	38.1
700.895	37.78
701.08	37.7
701.264	37.61
701.448	37.98
701.633	38.46
701.817	38.81
702.001	38.28
702.186	38.23
702.37	38.39
702.554	38.35
702.738	39.38
702.923	40
703.107	40.13
703.291	40.25
703.475	39.59
703.659	39.63
703.843	39.81
704.027	40.46
704.212	40.16
704.396	40.8
704.58	41.01
704.764	40.68
704.948	39.16
705.132	39.41
705.316	38.6
705.5	39.15
705.684	39.41
705.868	38.87
706.052	39.21
706.235	39.11
706.419	38.36
706.603	38.62
706.787	38.3
706.971	38.84
707.155	38.85
707.339	39.87
707.522	39.8
707.706	39.96
707.89	39.76
708.074	39.41
708.257	39.68
708.441	40.42
708.625	40.39
708.808	40.56
708.992	40.96
709.176	40.44
709.359	39.94
709.543	40.09
709.727	39.95
709.91	40.32
710.094	40.71
710.277	41.02
710.461	40.02
710.644	39.8
710.828	40.07
711.011	40.24
711.195	40.37
711.378	40.77
711.562	40.56
711.745	40.29
711.928	40.49
712.112	40.22
712.295	39.8
712.478	39.7
712.662	39.78
712.845	39.82
713.028	39.43
713.212	39.56
713.395	39.87
713.578	39.67
713.761	39.61
713.945	39.16
714.128	39.27
714.311	39.52
714.494	39.89
714.677	39.62
714.86	39.87
715.043	40.51
715.227	40.53
715.41	39.91
715.593	40.09
715.776	40.46
715.959	40.62
716.142	40.29
716.325	40.64
716.508	40.68
716.691	41.1
716.874	40.85
717.057	40.6
717.239	40.79
717.422	40.54
717.605	40.83
717.788	40.7
717.971	40.87
718.154	41.42
718.337	40.76
718.519	40.77
718.702	40.43
718.885	40.36
719.068	40.85
719.25	41.23
719.433	41.96
719.616	41.43
719.798	41.58
719.981	41.67
720.164	41.21
720.346	41.56
720.529	40.61
720.712	40.39
720.894	40.19
721.077	39.18
721.259	39.14
721.442	38.79
721.624	39.2
721.807	39.51
721.989	39.56
722.172	39.91
722.354	39.59
722.537	40.83
722.719	41.65
722.901	41.71
723.084	42.06
723.266	41.18
723.448	41.55
723.631	41.74
723.813	41.07
723.995	40.7
724.178	39.89
724.36	40.01
724.542	40.23
724.724	39.91
724.907	40.38
725.089	40.22
725.271	40.5
725.453	40.08
725.635	39.78
725.817	40.8
725.999	40.95
726.181	41.96
726.364	42.53
726.546	41.62
726.728	42.47
726.91	41.8
727.092	41.47
727.274	41.8
727.456	42.06
727.638	42.15
727.819	41.66
728.001	41.88
728.183	40.99
728.365	40.38
728.547	40.75
728.729	39.72
728.911	40.14
729.093	40.73
729.274	40.89
729.456	40.38
729.638	39.98
729.82	39.65
730.001	39.2
730.183	39.27
730.365	39.1
730.546	39.34
730.728	38.79
730.91	39.36
731.091	39.16
731.273	38.47
731.455	38.08
731.636	38.37
731.818	38.62
731.999	38.48
732.181	38.49
732.362	39.41
732.544	39.7
732.725	40.4
732.907	39.88
733.088	40.13
733.27	41.2
733.451	42.24
733.633	43.17
733.814	43.47
733.995	43.48
734.177	43.63
734.358	43.38
734.539	43.05
734.721	43.38
734.902	43.4
735.083	43.04
735.264	42.82
735.446	42.51
735.627	42.06
735.808	41.68
735.989	42.04
736.17	42.66
736.351	42.23
736.533	42.17
736.714	42.45
736.895	42.36
737.076	43.04
737.257	41.85
737.438	41.52
737.619	40.65
737.8	40.7
737.981	39.81
738.162	39.86
738.343	39.53
738.524	40.15
738.705	39.77
738.886	39.47
739.067	38.51
739.247	39.6
739.428	39.56
739.609	39.41
739.79	40.17
739.971	41.81
740.151	41.32
740.332	42.48
740.513	41.69
740.694	41.23
740.874	40.87
741.055	41.87
741.236	41.95
741.417	41.97
741.597	42.83
741.778	41.43
741.958	40.75
742.139	40.66
742.32	40.26
742.5	40.41
742.681	40.96
742.861	41.8
743.042	41.45
743.222	40
743.403	40.27
743.583	39.99
743.764	41.13
743.944	41.09
744.124	40.8
744.305	41.24
744.485	42.2
744.666	41.98
744.846	42.39
745.026	42.55
745.207	43.84
745.387	43.27
745.567	42.79
745.747	41.92
745.928	42.15
746.108	42.99
746.288	41.61
746.468	41.81
746.648	41.95
746.829	41.09
747.009	40.66
747.189	40.31
747.369	41.11
747.549	41.51
747.729	41.43
747.909	41.4
748.089	41.8
748.269	43.29
748.449	42.75
748.629	43.33
748.809	43.9
748.989	43.63
749.169	43.53
749.349	43.11
749.529	43.79
749.709	43.78
749.889	43.65
750.068	43.46
750.248	42.73
750.428	43.02
750.608	43.1
750.788	42.6
750.967	43
751.147	43.21
751.327	42.75
751.507	41.7
751.686	41.89
751.866	41.84
752.046	41.4
752.225	41.98
752.405	41.11
752.585	39.44
752.764	40.43
752.944	40.64
753.123	41.19
753.303	42.89
753.482	42.67
753.662	42.8
753.841	42.45
754.021	42.79
754.2	42.76
754.38	42.73
754.559	43.23
754.739	42.07
754.918	41.67
755.097	40.57
755.277	40.02
755.456	40.79
755.635	40.93
755.815	41.22
755.994	41.03
756.173	40.82
756.352	41.52
756.532	41.88
756.711	43.28
756.89	43.1
757.069	43.57
757.248	42.4
757.427	42.94
757.607	41.74
757.786	42.11
757.965	42.54
758.144	41.75
758.323	41.29
758.502	40.57
758.681	39.47
758.86	40.18
759.039	40.5
759.218	41.29
759.397	40.76
759.576	41.83
759.755	40.48
759.934	39.9
760.113	40.83
760.291	40.53
760.47	41.11
760.649	42.21
760.828	41.3
761.007	40.38
761.186	40.04
761.364	39.92
761.543	40.16
761.722	41.09
761.901	40.8
762.079	40.17
762.258	40.57
762.437	40.41
762.615	40.11
762.794	40.77
762.972	41.13
763.151	41.13
763.33	41.38
763.508	41.12
763.687	41.17
763.865	41.9
764.044	41.76
764.222	41.75
764.401	42.14
764.579	41.78
764.758	41.51
764.936	41.21
765.114	41.84
765.293	41.26
765.471	40.81
765.65	40.5
765.828	40.41
766.006	40.76
766.184	40.27
766.363	40
766.541	39.92
766.719	39.97
766.898	40.82
767.076	40.57
767.254	40.81
767.432	42.35
767.61	43.35
767.788	42.81
767.967	43.14
768.145	43.83
768.323	44.35
768.501	44.83
768.679	44.93
768.857	44.13
769.035	43.36
769.213	44.89
769.391	44.79
769.569	44.1
769.747	45.36
769.925	44.77
770.103	43.92
770.281	43.91
770.459	43.77
770.636	44.02
770.814	46.23
770.992	45.14
771.17	43.39
771.348	41.31
771.525	40.56
771.703	39.32
771.881	40.14
772.059	40.7
772.236	40.31
772.414	40.93
772.592	40.46
772.769	38.44
772.947	39.76
773.125	41.46
773.302	42.69
773.48	43.97
773.657	43.71
773.835	43.59
774.013	44.73
774.19	44.6
774.368	44.51
774.545	44.95
774.723	45.64
774.9	46.43
775.077	45.7
775.255	45.45
775.432	45.21
775.61	44.59
775.787	42.93
775.964	42.28
776.142	43.57
776.319	43.18
776.496	42.14
776.674	41.13
776.851	40.95
777.028	40.02
777.205	41.81
777.382	41
777.56	41.91
777.737	42.06
777.914	41.1
778.091	40.85
778.268	41.48
778.445	44.22
778.622	44.89
778.8	46.85
778.977	47.66
779.154	54.25
779.331	55.81
779.508	57.06
779.685	59.37
779.862	61.72
780.038	62.19
780.215	63.73
780.392	62.96
780.569	63.38
780.746	61.05
780.923	61
781.1	52.39
781.277	51.12
781.453	50.93
781.63	49.99
781.807	49.68
781.984	49.16
782.16	48.02
782.337	47.15
782.514	47.43
782.691	49.33
782.867	48.22
783.044	47.26
783.221	47.73
783.397	46.33
783.574	45.78
783.75	45.09
783.927	46.35
784.103	44.84
784.28	45.38
784.456	45.45
784.633	42.89
784.809	44.26
784.986	44.08
785.162	44.5
785.339	45.24
785.515	47.24
785.692	48.55
785.868	47.1
786.044	46.57
786.221	45.07
786.397	45.41
786.573	46.91
786.749	46.26
786.926	46.87
787.102	45.36
787.278	45.88
787.454	44.09
787.631	42.71
787.807	43.84
787.983	43.83
788.159	44.97
788.335	44.43
788.511	46.27
788.687	47.67
788.863	47.33
789.039	49.52
789.216	49.23
789.392	49.73
789.568	50.45
789.744	50.61
789.919	52.78
790.095	52.27
790.271	52.55
790.447	50
790.623	48.64
790.799	48.66
790.975	46.15
791.151	47.28
791.327	46.07
791.502	43.66
791.678	44.2
791.854	43.3
792.03	45.22
792.205	43.67
792.381	45.47
792.557	46.42
792.733	46.18
792.908	48.63
793.084	47.97
793.259	48.73
793.435	51.55
793.611	49.3
793.786	49.64
793.962	47.38
794.137	49.74
794.313	47.57
794.488	47.35
794.664	48.59
794.839	47.01
795.015	44.59
795.19	44.9
795.366	45.36
795.541	46.6
795.716	46.41
795.892	46.7
796.067	46.07
796.242	46.73
796.418	46.62
796.593	46.36
796.768	47.61
796.944	48.38
797.119	47.47
797.294	46.58
797.469	46.72
797.644	46.53
797.82	47.1
797.995	46.15
798.17	44.48
798.345	44.71
798.52	45.48
798.695	44.81
798.87	46.2
799.045	47.12
799.22	46.92
799.395	45.67
799.57	47.03
799.745	47.34
799.92	46.44
800.095	47.55
800.27	46
800.445	45.96
800.62	45.57
800.795	44.87
800.97	43.08
801.145	42.86
801.319	42.17
801.494	40.08
801.669	39.16
801.844	41.89
802.018	42.26
802.193	43.32
802.368	42.42
802.543	41.39
802.717	40.79
802.892	45.37
803.067	46.57
803.241	47.04
803.416	46.63
803.59	47.59
803.765	45.89
803.94	46.02
804.114	45.55
804.289	47.03
804.463	48.48
804.638	48.17
804.812	45.73
804.986	44.34
805.161	44.89
805.335	45.68
805.51	45.44
805.684	44.18
805.858	44.95
806.033	45.27
806.207	44.6
806.381	45.51
806.556	48.73
806.73	50.93
806.904	50.47
807.078	50.61
807.253	50.39
807.427	49.1
807.601	51.89
807.775	51.56
807.949	51.98
808.123	50.96
808.298	49.62
808.472	46.42
808.646	43.64
808.82	46.34
808.994	46.97
809.168	49.33
809.342	48.8
809.516	48.16
809.69	47.35
809.864	47.06
810.038	50.24
810.212	50.55
810.385	50.84
810.559	49.6
810.733	45.89
810.907	44.94
811.081	43.3
811.255	43.48
811.428	43.34
811.602	44.5
811.776	45.68
811.95	45.66
812.123	45.07
812.297	46.13
812.471	48.54
812.644	50.55
812.818	54.19
812.992	53.2
813.165	54.26
813.339	52.43
813.512	51.15
813.686	49.98
813.86	49.91
814.033	51.7
814.207	51.08
814.38	50.26
814.554	49.47
814.727	45.96
814.9	48.59
815.074	50.96
815.247	50.73
815.421	50.7
815.594	50.74
815.767	49.45
815.941	46.79
816.114	47.49
816.287	46.52
816.46	49.89
816.634	50.49
816.807	48.26
816.98	48.17
817.153	48.14
817.327	49.21
817.5	51.56
817.673	53.14
817.846	54.12
818.019	55.14
818.192	57.77
818.365	52.39
818.538	51.26
818.711	52.65
818.884	51.3
819.057	54.31
819.23	53.23
819.403	50.21
819.576	49.44
819.749	48.75
819.922	48.26
820.095	47.99
820.268	50.52
820.441	50.43
820.614	48.32
820.786	46.4
820.959	45.15
821.132	44.99
821.305	44.95
821.477	43.42
821.65	43.66
821.823	42.11
821.996	41.14
822.168	39.84
822.341	39.17
822.514	38.97
822.686	39.39
822.859	39.02
823.031	38.69
823.204	38.5
823.376	38.41
823.549	37.9
823.722	38.09
823.894	38.08
824.067	38.42
824.239	38.53
824.411	38.51
824.584	38.25
824.756	38.18
824.929	37.73
825.101	37.71
825.273	37.76
825.446	37.67
825.618	37.38
825.79	37.29
825.963	37.21
826.135	36.98
826.307	37.88
826.479	38.45
826.652	38.21
826.824	39.06
826.996	38.86
827.168	39.13
827.34	39.19
827.512	39.72
827.684	40.05
827.856	40.21
828.029	41.15
828.201	40.33
828.373	40.74
828.545	41.63
828.717	41.49
828.889	41.69
829.061	41.58
829.232	43.35
829.404	43.49
829.576	42.9
829.748	43.24
829.92	43.3
830.092	44.19
830.264	43.26
830.436	43.12
830.607	43.24
830.779	43.48
830.951	43.63
831.123	39.95
831.294	39.74
831.466	42.18
831.638	41.33
831.809	40.58
831.981	39.19
832.153	38.61
832.324	39.06
832.496	40.58
832.667	41.72
832.839	41.39
833.011	43.04
833.182	44.46
833.354	42.58
833.525	42.51
833.697	43.42
833.868	44.15
834.039	44.78
834.211	44.14
834.382	42
834.554	42.79
834.725	42.6
834.896	43.63
835.068	41.24
835.239	40.35
835.41	41.21
835.581	41.06
835.753	40.76
835.924	40.76
836.095	40.3
836.266	41.25
836.438	39.31
836.609	40.97
836.78	41.85
836.951	44.07
837.122	44.22
837.293	43.42
837.464	43.34
837.635	46.81
837.806	47.57
837.977	49.98
838.148	52.19
838.319	54.67
838.49	54.28
838.661	54.45
838.832	54.86
839.003	56.43
839.174	59.78
839.345	63
839.516	61.68
839.687	62.17
839.857	59.71
840.028	55.78
840.199	54.37
840.37	50.83
840.54	50.04
840.711	49.52
840.882	51.77
841.053	47.56
841.223	43.39
841.394	38.52
841.564	37.03
841.735	39.05
841.906	43.09
842.076	45.56
842.247	48.3
842.417	50.65
842.588	52.07
842.758	48.62
842.929	51.67
843.099	52.71
843.27	57.72
843.44	62.36
843.611	63.44
843.781	62.73
843.951	63.8
844.122	64.38
844.292	64.03
844.462	63.35
844.633	68.13
844.803	65.63
844.973	69.28
845.144	65.65
845.314	67.27
845.484	64.63
845.654	59.56
845.824	57.07
845.995	56.83
846.165	54.44
846.335	58.48
846.505	59.46
846.675	62.81
846.845	62.55
847.015	61.01
847.185	55.27
847.355	58.93
847.525	71.93
847.695	68.94
847.865	79.75
848.035	80.47
848.205	70.28
848.375	67.94
848.545	69.57
848.715	69.6
848.884	72.19
849.054	69.41
849.224	68.02
849.394	67.27
849.564	71.62
849.733	61.07
849.903	68.66
850.073	72.43
850.243	70.48
850.412	67.92
850.582	68.19
850.752	73.38
850.921	78.96
851.091	81.48
851.26	76.42
851.43	78.81
851.599	85.17
851.769	79.25
851.939	80.28
852.108	83.18
852.278	90.73
852.447	93.01
852.616	86.17
852.786	87.96
852.955	82.6
853.125	79.93
853.294	81.65
853.463	73.07
853.633	71.79
853.802	82.56
853.971	84.4
854.141	80.9
854.31	64.41
854.479	68.42
854.648	51.28
854.818	48.73
854.987	44.9
855.156	31.37
855.325	35.76
855.494	33.7
855.663	19.17
855.832	17.37
856.001	8.41
856.171	19.41
856.34	19.67
856.509	18.86
856.678	23.85
856.847	34.63
857.016	31.84
857.185	30.75
857.353	33.28
857.522	38.18
857.691	38.88
857.86	38.26
858.029	42.83
858.198	43.9
858.367	45.63
858.535	41.76
858.704	42.22
858.873	53.36
859.042	48.19
859.21	50.19
859.379	52.18
859.548	54.67
859.717	67.4
859.885	62.12
860.054	63.23
860.222	61.9
860.391	68.62
860.56	61.67
860.728	56.81
860.897	65.58
861.065	58.19
861.234	59.21
861.402	59.21
861.571	54.12
861.739	52.07
861.908	51.58
862.076	53.49
862.244	52.07
862.413	54.5
862.581	53.54
862.749	51.23
862.918	55.41
863.086	59.06
863.254	59.01
863.423	54.86
863.591	51
863.759	50.08
863.927	57
864.096	50.74
864.264	52.11
864.432	51.99
864.6	56.65
864.768	57.53
864.936	56.28
865.104	56.95
865.272	63.76
865.44	71.93
865.608	73.08
865.776	68.52
865.944	70.08
866.112	64.74
866.28	73.77
866.448	71.57
866.616	74.09
866.784	50.8
866.952	39.2
867.12	42.98
867.288	48.53
867.455	47.52
867.623	42.21
867.791	50.21
867.959	54.24
868.127	56.74
868.294	58.42
868.462	62.3
868.63	73.8
868.797	78.42
868.965	84.28
869.133	75.07
869.3	79.18
869.468	74
869.636	68.9
869.803	61.87
869.971	47.72
870.138	42.66
870.306	51.45
870.473	47.52
870.641	52.51
870.808	49.69
870.975	56.52
871.143	46.26
871.31	65.7
871.478	66.07
871.645	78.75
871.812	97.97
871.98	105.37
872.147	87.98
872.314	101.48
872.482	88.23
872.649	88.13
872.816	82.39
872.983	82.42
873.15	63.3
873.318	61.94
873.485	64.49
873.652	57.29
873.819	61.9
873.986	49.36
874.153	49.51
874.32	56.08
874.487	52.39
874.654	49.64
874.821	49.21
874.988	56.56
875.155	60.79
875.322	58.37
875.489	60.45
875.656	47.84
875.823	48.39
875.99	59.25
876.157	47.7
876.324	53.05
876.49	47.88
876.657	53
876.824	54.45
876.991	51.05
877.157	48.12
877.324	49.39
877.491	50.42
877.658	55.49
877.824	51.2
877.991	59.93
878.157	60.35
878.324	79.71
878.491	79.8
878.657	77.04
878.824	77.61
878.99	73.52
879.157	74.58
879.323	84.07
879.49	76.25
879.656	85.16
879.823	78.06
879.989	77.07
880.156	64.04
880.322	58.68
880.488	56.76
880.655	55.42
880.821	55.01
880.987	57.5
881.154	53.68
881.32	66.26
881.486	56.33
881.652	54.76
881.819	50.48
881.985	50.57
882.151	51.05
882.317	47.96
882.483	47.27
882.649	47.42
882.816	44.1
882.982	43.84
883.148	40.22
883.314	41.36
883.48	42.1
883.646	41.95
883.812	41.58
883.978	41.24
884.144	42.37
884.31	42.86
884.476	41.86
884.642	42.87
884.807	41.14
884.973	41.54
885.139	41.49
885.305	40.15
885.471	41.73
885.637	41.92
885.802	42.54
885.968	42.47
886.134	43.15
886.3	42.86
886.465	42.99
886.631	46.53
886.797	48.03
886.962	48.04
887.128	51.2
887.293	50.95
887.459	51.52
887.625	50.41
887.79	53.59
887.956	52.45
888.121	57.51
888.287	58.26
888.452	56.52
888.618	51.53
888.783	48.64
