Data from LC_249_Reflection_2.txt Node
Date: Thu Nov 19 22:58:18 EST 2015
User: robert
Spectrometer: USB4E03001
Autoset integration time: false
Trigger mode: 4
Integration Time (sec): 1.000000E-1
Scans to average: 15
Electric dark correction enabled: true
Nonlinearity correction enabled: false
Boxcar width: 5
Stray light correction enabled: false
XAxis mode: Wavelengths
Stop averaging: false
Number of Pixels in Spectrum: 3648
>>>>>Begin Spectral Data<<<<<
177.566	-51.08
177.785	1.94
178.005	34.46
178.225	32.92
178.445	72.86
178.665	18.56
178.885	44.74
179.105	227.38
179.324	78.94
179.544	97.25
179.764	65.38
179.984	38.15
180.204	-31.88
180.423	-31.86
180.643	-31.17
180.863	-39.94
181.083	-63.29
181.302	-20.86
181.522	9.28
181.742	16.18
181.961	9.26
182.181	20.62
182.401	22.05
182.621	53.95
182.84	-24.45
183.06	4.48
183.279	-55.28
183.499	27.57
183.719	-149.96
183.938	-1856.9
184.158	897.05
184.377	762.04
184.597	-438.63
184.816	4025.47
185.036	352.17
185.256	-2926.67
185.475	-201.14
185.695	-36.4
185.914	-52.03
186.134	-34.26
186.353	108.55
186.572	39.5
186.792	58.29
187.011	-191.97
187.231	120.1
187.45	-458.69
187.67	-13.81
187.889	-38.24
188.108	12.64
188.328	16.38
188.547	29.35
188.766	68.08
188.986	-57.56
189.205	659.8
189.424	122.81
189.644	120.49
189.863	69.77
190.082	58.16
190.302	62.16
190.521	64.4
190.74	58.28
190.959	59.36
191.178	83.29
191.398	80.96
191.617	63.96
191.836	64.81
192.055	-3.04
192.274	0.34
192.494	-2.58
192.713	15
192.932	35.09
193.151	46.17
193.37	44.58
193.589	31.58
193.808	33.44
194.027	78.69
194.246	74.51
194.465	88.51
194.685	82.86
194.904	91.29
195.123	109.61
195.342	109.25
195.561	88.6
195.78	74.09
195.999	55.23
196.218	52.6
196.436	34.25
196.655	16.48
196.874	23.58
197.093	12.16
197.312	-28.26
197.531	-2.67
197.75	4.25
197.969	88.01
198.188	-141.73
198.407	-44.29
198.625	-109.46
198.844	-8.3
199.063	-461.12
199.282	-63.03
199.501	-132.76
199.719	-126.24
199.938	-2.49
200.157	-174.39
200.376	13.62
200.594	80.36
200.813	139.96
201.032	280.66
201.251	196.73
201.469	-49.78
201.688	26.52
201.907	22.43
202.125	159.04
202.344	47.27
202.563	-124.43
202.781	-46.19
203	-39.34
203.218	-54.17
203.437	-163.34
203.656	-52.37
203.874	-21.45
204.093	-271.58
204.311	-77.71
204.53	-31.34
204.748	-39.37
204.967	3.93
205.185	-17.84
205.404	-80.26
205.622	-102.83
205.841	23.23
206.059	-13.69
206.278	-10.23
206.496	88.2
206.715	111.35
206.933	29.18
207.151	64
207.37	16.08
207.588	-36.32
207.806	35.59
208.025	43.51
208.243	-134.48
208.461	-301.6
208.68	-290.62
208.898	-164.47
209.116	-161.43
209.335	-214.66
209.553	-851.89
209.771	2700.84
209.989	-260.05
210.208	249.81
210.426	336.63
210.644	54.47
210.862	90.53
211.081	99.39
211.299	51.55
211.517	90.73
211.735	74.53
211.953	45.13
212.171	33.06
212.39	28.83
212.608	25.16
212.826	43.73
213.044	14.1
213.262	-21.93
213.48	-46.3
213.698	-32.58
213.916	-35.32
214.134	-75.63
214.352	-143.73
214.57	-179.54
214.788	-50.29
215.006	-13.24
215.224	-160.72
215.442	-223.12
215.66	-53.66
215.878	-93.8
216.096	-153.09
216.314	-480.55
216.532	-218.2
216.75	-654.87
216.968	266.58
217.185	975.72
217.403	1599.41
217.621	2585.54
217.839	-233.03
218.057	-41.49
218.275	23.01
218.492	36.63
218.71	33.23
218.928	15.57
219.146	11.74
219.363	26.52
219.581	9.1
219.799	19.18
220.017	12.14
220.234	17.08
220.452	2.73
220.67	-27.93
220.887	-23.3
221.105	-10.45
221.323	-14.13
221.54	9.18
221.758	13.87
221.976	8.99
222.193	-1.02
222.411	0.5
222.629	-1.26
222.846	-10.12
223.064	-7.32
223.281	-1.72
223.499	-4.21
223.716	6.2
223.934	-0.73
224.151	13.15
224.369	14.66
224.586	13.68
224.804	21.19
225.021	40.87
225.239	43.92
225.456	34.74
225.674	31.25
225.891	35.93
226.108	42.91
226.326	39.76
226.543	34.2
226.76	44.05
226.978	45.01
227.195	38.11
227.413	20.33
227.63	10.79
227.847	12.25
228.064	12.55
228.282	10.7
228.499	8.78
228.716	10.43
228.934	9.76
229.151	9.87
229.368	9.05
229.585	9.05
229.802	8.79
230.02	9.71
230.237	9.74
230.454	9.28
230.671	8.56
230.888	8.68
231.105	7.15
231.323	8.41
231.54	5.67
231.757	4.15
231.974	5.27
232.191	5.03
232.408	5.46
232.625	7.95
232.842	11.47
233.059	14.28
233.276	16.79
233.493	18.48
233.71	15.57
233.927	17.55
234.144	17.02
234.361	12.88
234.578	13.41
234.795	12.59
235.012	12.34
235.229	4.06
235.446	3.62
235.663	-5.98
235.879	-6.68
236.096	-10.73
236.313	-10.8
236.53	-5.84
236.747	-5.54
236.964	-2.82
237.181	-5.75
237.397	-9.32
237.614	-4.49
237.831	-4.46
238.048	-4.19
238.264	-5.25
238.481	1.13
238.698	1.4
238.915	2.07
239.131	3.86
239.348	3.94
239.565	7.88
239.781	10.98
239.998	7.26
240.215	7.17
240.431	8.19
240.648	10.57
240.865	8.83
241.081	8.93
241.298	8.56
241.514	8.9
241.731	9.11
241.947	8.18
242.164	6.75
242.38	8.79
242.597	8.09
242.814	8.76
243.03	8.31
243.246	9.11
243.463	7.86
243.679	6.89
243.896	6.56
244.112	5.58
244.329	5.05
244.545	6.2
244.762	5.18
244.978	3.94
245.194	5.33
245.411	6.09
245.627	5.28
245.843	7.12
246.06	9.2
246.276	9.8
246.492	10.26
246.709	11.07
246.925	10.39
247.141	10.6
247.357	11.03
247.574	10.57
247.79	10.12
248.006	11.42
248.222	11.26
248.439	10.67
248.655	10.07
248.871	10.37
249.087	10.14
249.303	10.13
249.519	9.74
249.736	10.41
249.952	10.18
250.168	9.6
250.384	7.22
250.6	7.22
250.816	6.95
251.032	7.67
251.248	6.91
251.464	6
251.68	6.7
251.896	7.53
252.112	7.55
252.328	7.37
252.544	8.23
252.76	9.1
252.976	9.5
253.192	9.72
253.408	9.18
253.624	9.56
253.84	9.05
254.056	9.3
254.272	8.89
254.487	6.44
254.703	7.07
254.919	6.48
255.135	7.01
255.351	7.02
255.567	8.56
255.782	9.31
255.998	10.43
256.214	12.94
256.43	9.16
256.646	12.54
256.861	13.69
257.077	13.37
257.293	13.33
257.508	13
257.724	12.14
257.94	10.53
258.155	10.02
258.371	9.62
258.587	8.42
258.802	9.45
259.018	8.03
259.234	8.41
259.449	8.54
259.665	8.69
259.88	8.15
260.096	8.64
260.312	7.58
260.527	7.28
260.743	7.36
260.958	7.51
261.174	7.86
261.389	7.45
261.605	7.66
261.82	7.54
262.036	7.28
262.251	7.5
262.466	7.26
262.682	9.7
262.897	9.98
263.113	8.95
263.328	9.86
263.543	10.11
263.759	10.92
263.974	11.25
264.189	12.13
264.405	11.38
264.62	11.17
264.835	10.81
265.051	8.87
265.266	8.82
265.481	10.07
265.696	9.2
265.912	8.16
266.127	8.7
266.342	6.45
266.557	7.03
266.773	6.93
266.988	6.62
267.203	5.39
267.418	5.79
267.633	5.94
267.848	4.65
268.064	4.29
268.279	3.89
268.494	3.85
268.709	4.37
268.924	2.06
269.139	2.51
269.354	2.22
269.569	2.57
269.784	2.8
269.999	2.66
270.214	4.17
270.429	4.38
270.644	3.82
270.859	3.55
271.074	4.19
271.289	4.97
271.504	5.17
271.719	5.75
271.934	5.82
272.149	6.26
272.363	7.32
272.578	7.23
272.793	7.4
273.008	7.7
273.223	8.12
273.438	8.81
273.653	9.13
273.867	9.23
274.082	8.53
274.297	8.98
274.512	8.48
274.726	8.05
274.941	6.54
275.156	5.66
275.371	7.25
275.585	7.06
275.8	5.78
276.015	5.55
276.229	5.72
276.444	6.99
276.659	6.41
276.873	6.31
277.088	6.35
277.302	7.82
277.517	9.15
277.732	9.07
277.946	9.53
278.161	9.6
278.375	9.99
278.59	9.48
278.804	8.8
279.019	9.72
279.233	10.46
279.448	10.04
279.662	10.26
279.877	10.14
280.091	9.24
280.306	7.44
280.52	7.39
280.735	6.61
280.949	7
281.163	7.09
281.378	7.1
281.592	6.86
281.806	7.51
282.021	7.55
282.235	7.06
282.449	6.64
282.664	8.01
282.878	6.99
283.092	7.45
283.307	8.57
283.521	8.21
283.735	7.4
283.949	7.85
284.164	7.13
284.378	6.86
284.592	6.2
284.806	6.96
285.02	6.85
285.234	8.44
285.449	8.16
285.663	7.53
285.877	8.65
286.091	9.3
286.305	8.86
286.519	9
286.733	8.55
286.947	9.37
287.161	8.78
287.375	8.02
287.589	6.24
287.803	6.32
288.017	5.46
288.231	4.9
288.445	4.64
288.659	4.5
288.873	4.06
289.087	3.74
289.301	3.61
289.515	3.93
289.729	3.98
289.943	4.78
290.157	5.65
290.371	6.08
290.584	5.95
290.798	5.73
291.012	5.92
291.226	6.41
291.44	7.56
291.654	7.85
291.867	7.97
292.081	8.4
292.295	9.03
292.509	8.4
292.722	9.02
292.936	9.21
293.15	9.07
293.364	10.13
293.577	10.36
293.791	9.91
294.005	9.69
294.218	10.1
294.432	10.2
294.645	9.67
294.859	9.46
295.073	8.85
295.286	9.21
295.5	9.41
295.713	8.64
295.927	8.51
296.14	8.68
296.354	8.18
296.568	8.34
296.781	7.82
296.994	8.79
297.208	8.65
297.421	10
297.635	10.22
297.848	10.17
298.062	10.17
298.275	10.11
298.489	9.97
298.702	11.41
298.915	11.27
299.129	12.46
299.342	12.36
299.555	12.59
299.769	11.36
299.982	11.37
300.195	11.7
300.409	13.14
300.622	13.03
300.835	13.39
301.048	12.58
301.262	12.79
301.475	11.64
301.688	10.8
301.901	11.51
302.115	11.43
302.328	11.53
302.541	11
302.754	9.54
302.967	11.15
303.18	10.93
303.393	10.16
303.607	10.25
303.82	10.6
304.033	11.61
304.246	11.87
304.459	12.5
304.672	12.16
304.885	13.61
305.098	13.99
305.311	12.85
305.524	12.48
305.737	12.98
305.95	12.47
306.163	11.97
306.376	12
306.589	11.01
306.802	9.67
307.015	9.41
307.228	9.03
307.44	9.21
307.653	9.42
307.866	10.82
308.079	11.04
308.292	11.44
308.505	12.17
308.718	11.12
308.93	10.99
309.143	11.47
309.356	11.39
309.569	11.27
309.781	10.77
309.994	10.57
310.207	10.04
310.42	10.79
310.632	10.65
310.845	11
311.058	11.62
311.27	11.59
311.483	11.05
311.696	10.95
311.908	11.1
312.121	11.28
312.333	11.46
312.546	11.32
312.759	10.52
312.971	11.4
313.184	10.99
313.396	11.32
313.609	11.89
313.821	13.14
314.034	13.34
314.246	12.75
314.459	12.34
314.671	11.7
314.884	11.39
315.096	11.03
315.309	10.5
315.521	11.08
315.733	10.33
315.946	10.54
316.158	11.08
316.371	11.7
316.583	11.53
316.795	11.26
317.008	11.4
317.22	11.87
317.432	12.79
317.644	13.25
317.857	11.25
318.069	10.96
318.281	10.49
318.494	9.8
318.706	8.66
318.918	9.04
319.13	9.83
319.342	8.53
319.555	8.34
319.767	7.74
319.979	5.87
320.191	7.79
320.403	8.97
320.615	8.91
320.827	8.83
321.039	7.87
321.252	8.59
321.464	9.05
321.676	10.57
321.888	9.71
322.1	10.36
322.312	10.93
322.524	10.65
322.736	9.97
322.948	11.23
323.16	11.48
323.372	12.61
323.584	12.7
323.796	11.7
324.007	11.18
324.219	12.36
324.431	11.71
324.643	12.02
324.855	12.13
325.067	12.39
325.279	11.66
325.491	12.08
325.702	12
325.914	10.67
326.126	11.81
326.338	12.85
326.55	12.51
326.761	13.72
326.973	13.9
327.185	13.75
327.396	13.52
327.608	14.14
327.82	13.96
328.032	14.38
328.243	15.99
328.455	15.56
328.666	14.89
328.878	14.77
329.09	13.69
329.301	14.43
329.513	14.58
329.725	14.13
329.936	13.6
330.148	14.18
330.359	13.73
330.571	13.15
330.782	12.85
330.994	13.88
331.205	14.05
331.417	13.75
331.628	12.95
331.84	13.11
332.051	13.34
332.262	14.77
332.474	14.75
332.685	15.4
332.897	15.11
333.108	15.33
333.319	14.75
333.531	14.93
333.742	15.33
333.953	15.85
334.165	15.85
334.376	17.01
334.587	15.48
334.799	14.27
335.01	13.25
335.221	13.09
335.432	13.17
335.644	13.01
335.855	12.51
336.066	12.57
336.277	11.51
336.488	11.18
336.7	10.25
336.911	10.44
337.122	11.29
337.333	11.85
337.544	11.66
337.755	11.16
337.966	10.46
338.177	10.69
338.388	11.17
338.599	11.8
338.811	12.74
339.022	12.93
339.233	11.58
339.444	11.31
339.655	11.06
339.866	10.94
340.076	11.57
340.287	12.76
340.498	12.98
340.709	12.35
340.92	12.06
341.131	11.25
341.342	11.5
341.553	13.16
341.764	12.33
341.975	12.92
342.185	13.99
342.396	13.29
342.607	12.82
342.818	12.68
343.029	13.61
343.239	13.08
343.45	12.37
343.661	12.24
343.872	11.31
344.082	12.24
344.293	11.73
344.504	11.72
344.714	11.86
344.925	11.65
345.136	11.63
345.346	9.89
345.557	10.09
345.768	10.56
345.978	10.51
346.189	10.22
346.399	9.97
346.61	9.49
346.821	8.87
347.031	9.36
347.242	9.94
347.452	9.94
347.663	10.68
347.873	11.96
348.084	12.35
348.294	11.67
348.504	12.78
348.715	13.24
348.925	14.05
349.136	14.04
349.346	13.81
349.557	13.98
349.767	13.44
349.977	13.61
350.188	12.58
350.398	12.56
350.608	13.22
350.819	12.87
351.029	12.13
351.239	11.69
351.449	11.63
351.66	11.34
351.87	10.71
352.08	10.71
352.29	11
352.501	10.72
352.711	11.33
352.921	11.08
353.131	10.67
353.341	10.78
353.552	11.31
353.762	11.16
353.972	11.19
354.182	11.6
354.392	12.52
354.602	11.82
354.812	11.98
355.022	10.85
355.232	10.91
355.442	11.19
355.652	11.2
355.862	10.9
356.072	10.95
356.282	11.72
356.492	11.66
356.702	11.38
356.912	11.59
357.122	11.78
357.332	12.48
357.542	12
357.752	12.08
357.962	12.51
358.171	12.43
358.381	12.99
358.591	12.41
358.801	12.18
359.011	12.29
359.221	12.14
359.43	12.11
359.64	11.51
359.85	11.9
360.06	12.17
360.269	12.08
360.479	11.75
360.689	11.19
360.899	10.96
361.108	10.58
361.318	10.34
361.528	10.49
361.737	10.92
361.947	10.99
362.156	10.89
362.366	10.6
362.576	10.25
362.785	10.16
362.995	9.91
363.204	9.96
363.414	10.41
363.623	10.07
363.833	9.93
364.042	9.36
364.252	9.57
364.461	9.29
364.671	8.94
364.88	9.3
365.09	9.9
365.299	10.3
365.509	10.8
365.718	10.41
365.927	10.89
366.137	10.92
366.346	11.48
366.555	11.47
366.765	12.03
366.974	12.34
367.183	12.18
367.393	11.78
367.602	12.26
367.811	12.58
368.021	13.51
368.23	12.16
368.439	11.83
368.648	11.27
368.857	11.26
369.067	10.81
369.276	11.3
369.485	11.25
369.694	11.21
369.903	10.57
370.112	9.59
370.321	8.75
370.531	9.8
370.74	9.56
370.949	9.62
371.158	9.33
371.367	9.59
371.576	8.97
371.785	8.85
371.994	9.21
372.203	9.41
372.412	9.64
372.621	9.7
372.83	9.55
373.039	9.74
373.248	9.48
373.457	9.61
373.666	9.55
373.874	9.85
374.083	9.93
374.292	9.42
374.501	9.29
374.71	9.34
374.919	9.21
375.128	9.8
375.336	9.95
375.545	10.22
375.754	9.61
375.963	9.77
376.171	9.38
376.38	8.94
376.589	8.77
376.798	8.55
377.006	8.36
377.215	8.49
377.424	7.78
377.632	8.21
377.841	8.2
378.05	9.16
378.258	8.77
378.467	9.1
378.675	9.28
378.884	9.8
379.093	10.05
379.301	10.23
379.51	10.05
379.718	10.14
379.927	9.67
380.135	9.54
380.344	8.84
380.552	9.48
380.761	9.4
380.969	9.64
381.177	9.36
381.386	9.02
381.594	9.08
381.803	9.27
382.011	9.43
382.219	9.35
382.428	9.72
382.636	9.67
382.845	9.39
383.053	8.98
383.261	8.18
383.469	8.42
383.678	8.36
383.886	8.21
384.094	8.29
384.302	8.35
384.511	8.4
384.719	7.88
384.927	7.86
385.135	7.69
385.343	7.84
385.552	8.63
385.76	8.22
385.968	8.49
386.176	8.13
386.384	7.78
386.592	7.95
386.8	8.3
387.008	8.46
387.216	8.42
387.424	8.33
387.633	8.34
387.841	8.03
388.049	8.22
388.257	8.03
388.465	8.17
388.672	8.39
388.88	8.11
389.088	8.08
389.296	7.95
389.504	8.02
389.712	8.13
389.92	7.95
390.128	7.87
390.336	7.86
390.544	7.86
390.751	7.99
390.959	7.91
391.167	8.17
391.375	7.63
391.583	7.38
391.79	7.32
391.998	7.38
392.206	7.51
392.414	7.58
392.621	7.39
392.829	7.3
393.037	7.57
393.244	7.63
393.452	7.3
393.66	7.43
393.867	7.6
394.075	7.48
394.283	7.17
394.49	7.01
394.698	7.13
394.905	7.18
395.113	7.14
395.32	6.86
395.528	6.61
395.735	6.84
395.943	6.92
396.15	6.72
396.358	6.85
396.565	7
396.773	7.01
396.98	7
397.188	7.1
397.395	7.25
397.602	7.13
397.81	7.1
398.017	6.74
398.225	6.72
398.432	6.97
398.639	6.76
398.847	6.6
399.054	6.87
399.261	7.03
399.468	6.92
399.676	6.81
399.883	6.88
400.09	6.94
400.297	7.39
400.505	7.06
400.712	7.01
400.919	7.41
401.126	7.65
401.333	7.46
401.54	7.27
401.748	7.48
401.955	7.5
402.162	7.49
402.369	7.62
402.576	7.5
402.783	7.82
402.99	7.98
403.197	7.87
403.404	7.88
403.611	8.12
403.818	7.84
404.025	7.99
404.232	7.83
404.439	8.11
404.646	8.07
404.853	7.93
405.06	7.81
405.267	8
405.474	8.06
405.681	8.18
405.887	8.07
406.094	8.16
406.301	8
406.508	8.4
406.715	8.17
406.922	7.76
407.128	7.53
407.335	7.63
407.542	7.35
407.749	7.24
407.955	6.93
408.162	7.05
408.369	7.02
408.575	7.2
408.782	6.84
408.989	6.58
409.195	6.91
409.402	7.24
409.609	7.11
409.815	6.81
410.022	6.8
410.228	6.97
410.435	6.78
410.642	6.76
410.848	6.61
411.055	6.7
411.261	7.08
411.468	7.08
411.674	6.97
411.881	7.2
412.087	7.18
412.294	7.25
412.5	6.98
412.706	6.75
412.913	6.85
413.119	6.69
413.326	6.65
413.532	6.64
413.738	6.53
413.945	6.5
414.151	6.55
414.357	6.76
414.564	6.69
414.77	6.79
414.976	7.16
415.182	7.13
415.389	7.36
415.595	7.35
415.801	7.08
416.007	7.36
416.214	7.41
416.42	7.17
416.626	7.14
416.832	7.38
417.038	7.42
417.244	7.26
417.45	7.43
417.657	7.42
417.863	7.49
418.069	7.54
418.275	7.54
418.481	7.67
418.687	7.79
418.893	8.01
419.099	7.76
419.305	7.85
419.511	7.86
419.717	7.7
419.923	7.56
420.129	7.49
420.335	7.4
420.541	7.3
420.746	7.13
420.952	7.22
421.158	7.12
421.364	7.09
421.57	7
421.776	6.99
421.982	6.98
422.187	7.1
422.393	7.03
422.599	7.14
422.805	7.15
423.01	7.2
423.216	7.06
423.422	6.94
423.628	7.06
423.833	7.08
424.039	7.13
424.245	7.15
424.45	7.2
424.656	7.25
424.862	7.21
425.067	7.19
425.273	7.16
425.478	7.18
425.684	7.34
425.889	7.42
426.095	7.44
426.301	7.4
426.506	7.38
426.712	7.12
426.917	7.3
427.123	7.41
427.328	7.35
427.533	7.48
427.739	7.48
427.944	7.38
428.15	7.18
428.355	6.92
428.561	6.88
428.766	7
428.971	7.25
429.177	7.1
429.382	7.06
429.587	7.15
429.793	7.02
429.998	7.09
430.203	7.17
430.408	7.21
430.614	7.57
430.819	7.52
431.024	7.33
431.229	7.17
431.434	7.12
431.64	6.96
431.845	7.03
432.05	7.21
432.255	7.04
432.46	7.01
432.665	7.11
432.87	6.94
433.076	6.99
433.281	7.01
433.486	7.15
433.691	7.19
433.896	7.28
434.101	7.17
434.306	6.99
434.511	7.09
434.716	7.17
434.921	7.08
435.126	7.2
435.331	7.14
435.535	7.2
435.74	7.13
435.945	7.3
436.15	7.25
436.355	7.3
436.56	7.29
436.765	7.37
436.97	7.18
437.174	7.21
437.379	7.09
437.584	7.22
437.789	7.17
437.993	7.04
438.198	6.83
438.403	6.77
438.608	6.86
438.812	6.95
439.017	6.93
439.222	6.96
439.426	6.79
439.631	6.95
439.836	7.06
440.04	7.07
440.245	7.18
440.45	7.31
440.654	7.35
440.859	7.38
441.063	7.49
441.268	7.48
441.472	7.59
441.677	7.76
441.881	7.63
442.086	7.31
442.29	7.32
442.495	7.25
442.699	7.17
442.904	7.13
443.108	7.07
443.312	6.87
443.517	6.83
443.721	6.81
443.925	6.83
444.13	6.88
444.334	7.16
444.538	7.19
444.743	7.17
444.947	7.15
445.151	7.24
445.356	7.3
445.56	7.39
445.764	7.31
445.968	7.4
446.173	7.43
446.377	7.47
446.581	7.43
446.785	7.44
446.989	7.47
447.193	7.46
447.398	7.41
447.602	7.28
447.806	7.11
448.01	7.08
448.214	6.9
448.418	6.76
448.622	6.68
448.826	6.71
449.03	6.69
449.234	6.58
449.438	6.56
449.642	6.56
449.846	6.56
450.05	6.63
450.254	6.89
450.458	6.94
450.662	6.83
450.866	6.77
451.069	6.64
451.273	6.57
451.477	6.66
451.681	6.66
451.885	6.63
452.089	6.83
452.292	6.89
452.496	6.77
452.7	6.74
452.904	6.79
453.107	6.95
453.311	7.08
453.515	7.04
453.719	7.16
453.922	7.18
454.126	6.98
454.33	6.94
454.533	6.82
454.737	6.72
454.94	6.67
455.144	6.84
455.348	6.8
455.551	6.66
455.755	6.64
455.958	6.48
456.162	6.45
456.365	6.7
456.569	6.58
456.772	6.65
456.976	6.8
457.179	6.91
457.383	6.81
457.586	6.81
457.79	6.86
457.993	6.93
458.196	6.96
458.4	7.19
458.603	7.18
458.807	7.24
459.01	7.27
459.213	7.2
459.417	7.25
459.62	7.26
459.823	7.22
460.026	7.13
460.23	7.21
460.433	7.26
460.636	7.08
460.839	7.09
461.042	7.08
461.246	7.05
461.449	6.97
461.652	6.94
461.855	6.91
462.058	6.88
462.261	7.03
462.464	6.92
462.668	6.91
462.871	7.09
463.074	7.04
463.277	6.97
463.48	7.07
463.683	7.16
463.886	7.16
464.089	7.22
464.292	7.24
464.495	7.29
464.698	7.15
464.901	7.12
465.104	7.15
465.306	7.3
465.509	7.3
465.712	7.17
465.915	7.12
466.118	7.05
466.321	7
466.524	6.94
466.726	6.84
466.929	6.91
467.132	7
467.335	6.83
467.538	6.64
467.74	6.66
467.943	6.64
468.146	6.7
468.348	6.66
468.551	6.55
468.754	6.61
468.956	6.65
469.159	6.67
469.362	6.6
469.564	6.61
469.767	6.81
469.969	6.79
470.172	6.89
470.375	6.74
470.577	6.88
470.78	7.18
470.982	7.37
471.185	7.41
471.387	7.5
471.59	7.63
471.792	7.73
471.995	7.6
472.197	7.69
472.399	7.72
472.602	7.91
472.804	7.62
473.007	7.32
473.209	7.02
473.411	6.94
473.614	6.97
473.816	7.01
474.018	7.02
474.22	7.19
474.423	7.07
474.625	7.04
474.827	6.92
475.03	7.14
475.232	7.23
475.434	7.51
475.636	7.56
475.838	7.52
476.04	7.34
476.243	7.16
476.445	6.99
476.647	7.02
476.849	7.02
477.051	7.08
477.253	7.14
477.455	7.14
477.657	6.97
477.859	6.9
478.061	6.79
478.263	6.72
478.465	6.72
478.667	6.73
478.869	6.74
479.071	6.7
479.273	6.57
479.475	6.44
479.677	6.4
479.879	6.52
480.081	6.61
480.283	6.72
480.485	6.65
480.686	6.75
480.888	6.7
481.09	6.74
481.292	6.8
481.494	6.97
481.695	7.01
481.897	7.14
482.099	7.06
482.301	7.05
482.502	7.07
482.704	7.09
482.906	7.1
483.107	7.2
483.309	7.18
483.511	7.14
483.712	7.11
483.914	7.11
484.115	7.04
484.317	7.08
484.519	7.09
484.72	7.11
484.922	7.12
485.123	7.1
485.325	7.04
485.526	7.01
485.728	7.06
485.929	7.09
486.131	7.08
486.332	7.15
486.534	7.12
486.735	7.05
486.936	6.99
487.138	7.02
487.339	7
487.541	7.05
487.742	7.07
487.943	7.08
488.144	7.02
488.346	7.05
488.547	7.04
488.748	7.06
488.95	7.1
489.151	7.12
489.352	7.12
489.553	7.2
489.755	7.17
489.956	7.19
490.157	7.14
490.358	7.2
490.559	7.21
490.76	7.22
490.961	7.19
491.163	7.18
491.364	7.2
491.565	7.23
491.766	7.18
491.967	7.2
492.168	7.19
492.369	7.11
492.57	7.08
492.771	7.05
492.972	6.99
493.173	7
493.374	7.01
493.575	7.01
493.776	6.91
493.976	6.83
494.177	6.79
494.378	6.88
494.579	6.9
494.78	6.88
494.981	6.82
495.182	6.96
495.382	6.81
495.583	6.76
495.784	6.69
495.985	6.82
496.185	6.84
496.386	6.92
496.587	6.85
496.788	6.8
496.988	6.94
497.189	6.99
497.39	7
497.59	7.09
497.791	7.08
497.992	7.17
498.192	7.19
498.393	7.31
498.593	7.27
498.794	7.37
498.994	7.6
499.195	7.57
499.395	7.6
499.596	7.62
499.796	7.63
499.997	7.77
500.197	7.79
500.398	7.73
500.598	7.66
500.799	7.8
500.999	7.57
501.199	7.49
501.4	7.52
501.6	7.48
501.801	7.31
502.001	7.41
502.201	7.31
502.402	7.31
502.602	7.43
502.802	7.49
503.002	7.45
503.203	7.67
503.403	7.74
503.603	7.68
503.803	7.71
504.003	7.84
504.204	7.77
504.404	7.71
504.604	7.73
504.804	7.67
505.004	7.66
505.204	7.75
505.404	7.75
505.604	7.64
505.804	7.79
506.005	7.77
506.205	7.85
506.405	7.92
506.605	8.14
506.805	8.08
507.005	8.02
507.204	8.14
507.404	7.97
507.604	7.96
507.804	8.01
508.004	8.08
508.204	8.18
508.404	8.09
508.604	8.19
508.804	8.07
509.003	8.18
509.203	8.18
509.403	8.12
509.603	8.11
509.803	8.16
510.002	8.15
510.202	7.99
510.402	8.02
510.602	8.08
510.801	7.96
511.001	8
511.201	8
511.4	8.2
511.6	8.26
511.8	8.34
511.999	8.37
512.199	8.53
512.398	8.65
512.598	8.66
512.797	8.66
512.997	8.72
513.197	8.65
513.396	8.58
513.596	8.37
513.795	8.41
513.994	8.48
514.194	8.51
514.393	8.39
514.593	8.45
514.792	8.36
514.992	8.34
515.191	8.5
515.39	8.75
515.59	8.93
515.789	9.17
515.988	9.1
516.188	9.11
516.387	9.06
516.586	9.21
516.786	9.22
516.985	9.3
517.184	9.35
517.383	9.24
517.582	9.16
517.782	9.12
517.981	9.15
518.18	9.1
518.379	9.15
518.578	9.24
518.777	9.16
518.976	9.2
519.176	9.27
519.375	9.34
519.574	9.37
519.773	9.42
519.972	9.48
520.171	9.39
520.37	9.47
520.569	9.47
520.768	9.43
520.967	9.5
521.166	9.56
521.365	9.7
521.564	9.71
521.762	9.65
521.961	9.75
522.16	9.7
522.359	9.78
522.558	9.97
522.757	9.99
522.956	10.12
523.154	10.08
523.353	10
523.552	9.81
523.751	9.8
523.949	9.83
524.148	9.74
524.347	9.85
524.546	9.85
524.744	9.86
524.943	9.95
525.142	9.95
525.34	10.16
525.539	10.21
525.737	10.33
525.936	10.44
526.135	10.57
526.333	10.62
526.532	10.56
526.73	10.69
526.929	10.71
527.127	10.68
527.326	10.67
527.524	10.63
527.723	10.62
527.921	10.69
528.12	10.68
528.318	10.66
528.516	10.69
528.715	10.76
528.913	10.74
529.112	10.75
529.31	10.78
529.508	10.83
529.707	10.83
529.905	10.94
530.103	10.99
530.301	10.98
530.5	11.02
530.698	11.11
530.896	11.23
531.094	11.28
531.293	11.29
531.491	11.4
531.689	11.45
531.887	11.51
532.085	11.45
532.283	11.44
532.481	11.52
532.68	11.64
532.878	11.62
533.076	11.59
533.274	11.64
533.472	11.75
533.67	11.71
533.868	11.64
534.066	11.69
534.264	11.78
534.462	11.85
534.66	11.93
534.858	11.85
535.056	11.89
535.253	11.92
535.451	12.05
535.649	12.14
535.847	12.26
536.045	12.39
536.243	12.44
536.441	12.6
536.638	12.6
536.836	12.67
537.034	12.88
537.232	13.01
537.43	13.13
537.627	13.02
537.825	13
538.023	12.93
538.22	13.07
538.418	13.1
538.616	13.01
538.813	13.04
539.011	12.99
539.209	13.05
539.406	13.01
539.604	12.95
539.801	13.1
539.999	13.17
540.196	13.32
540.394	13.37
540.591	13.44
540.789	13.49
540.986	13.54
541.184	13.63
541.381	13.66
541.579	13.77
541.776	13.79
541.974	13.84
542.171	13.76
542.368	13.8
542.566	13.86
542.763	13.9
542.96	13.96
543.158	14.04
543.355	14.12
543.552	14.15
543.75	14.18
543.947	14.3
544.144	14.35
544.341	14.6
544.539	14.75
544.736	14.83
544.933	14.8
545.13	14.91
545.327	14.96
545.524	14.96
545.722	15
545.919	15.03
546.116	15.1
546.313	15.24
546.51	15.23
546.707	15.17
546.904	15.25
547.101	15.47
547.298	15.43
547.495	15.42
547.692	15.48
547.889	15.66
548.086	15.78
548.283	15.84
548.48	15.88
548.677	16.07
548.874	16.27
549.07	16.4
549.267	16.39
549.464	16.78
549.661	16.88
549.858	17.09
550.055	16.97
550.251	16.94
550.448	17.02
550.645	17.28
550.842	17.43
551.038	17.37
551.235	17.58
551.432	17.87
551.628	17.71
551.825	17.85
552.022	17.8
552.218	18
552.415	18.09
552.612	18.08
552.808	17.93
553.005	17.86
553.201	18.05
553.398	18.07
553.594	17.89
553.791	18.04
553.987	18.22
554.184	18.35
554.38	18.43
554.577	18.52
554.773	18.69
554.97	18.9
555.166	19.16
555.362	19.05
555.559	19.07
555.755	19.28
555.952	19.44
556.148	19.49
556.344	19.65
556.541	19.63
556.737	19.81
556.933	19.98
557.129	19.97
557.326	19.84
557.522	19.99
557.718	20
557.914	20.23
558.11	20.1
558.307	20.25
558.503	20.19
558.699	20.35
558.895	20.35
559.091	20.48
559.287	20.57
559.483	20.78
559.679	20.94
559.876	21.09
560.072	21.08
560.268	21.23
560.464	21.14
560.66	21.38
560.856	21.54
561.052	21.75
561.247	21.94
561.443	22.09
561.639	21.99
561.835	22.27
562.031	22.37
562.227	22.6
562.423	22.73
562.619	23.11
562.815	23.25
563.01	23.59
563.206	23.67
563.402	23.62
563.598	23.63
563.793	24.06
563.989	24.04
564.185	24.15
564.381	24.14
564.576	24.49
564.772	24.64
564.968	24.55
565.163	24.39
565.359	24.51
565.555	24.61
565.75	24.74
565.946	24.75
566.141	24.97
566.337	25.08
566.532	25.38
566.728	25.34
566.923	25.15
567.119	25.42
567.314	25.51
567.51	25.58
567.705	25.73
567.901	25.83
568.096	25.96
568.292	25.83
568.487	25.77
568.682	25.61
568.878	25.8
569.073	25.92
569.268	25.95
569.464	26.13
569.659	26.24
569.854	26.23
570.05	26.26
570.245	26.15
570.44	26.3
570.635	26.6
570.831	26.78
571.026	26.74
571.221	27.07
571.416	27.11
571.611	27.16
571.806	27.24
572.002	27.33
572.197	27.46
572.392	27.78
572.587	27.93
572.782	27.84
572.977	27.9
573.172	28.06
573.367	27.96
573.562	28.2
573.757	28.21
573.952	28.25
574.147	28.39
574.342	28.73
574.537	28.61
574.732	28.74
574.927	28.75
575.121	28.82
575.316	28.88
575.511	28.97
575.706	28.87
575.901	29.05
576.096	29.34
576.29	29.43
576.485	29.39
576.68	29.53
576.875	29.57
577.069	29.67
577.264	29.69
577.459	29.6
577.654	29.7
577.848	29.87
578.043	30.08
578.238	30.07
578.432	29.98
578.627	29.87
578.821	30.1
579.016	30.06
579.21	30.22
579.405	30.49
579.6	30.6
579.794	30.66
579.989	30.52
580.183	30.68
580.378	30.75
580.572	30.99
580.766	31.2
580.961	31.06
581.155	31.04
581.35	31.25
581.544	31.27
581.738	31.24
581.933	31.41
582.127	31.73
582.321	31.66
582.516	31.87
582.71	31.86
582.904	31.92
583.099	31.9
583.293	32.01
583.487	31.91
583.681	32.02
583.875	32.23
584.07	32.04
584.264	31.91
584.458	31.8
584.652	31.64
584.846	31.59
585.04	31.51
585.234	31.7
585.428	31.77
585.623	31.96
585.817	31.78
586.011	31.81
586.205	31.94
586.399	32.19
586.593	32.03
586.787	31.9
586.981	31.8
587.174	31.98
587.368	31.86
587.562	31.88
587.756	31.68
587.95	31.85
588.144	31.8
588.338	31.83
588.532	31.84
588.725	32.06
588.919	32.26
589.113	32.86
589.307	32.8
589.501	33
589.694	33.07
589.888	33.36
590.082	33.43
590.275	33.29
590.469	33.37
590.663	33.43
590.856	33.39
591.05	33.25
591.244	33.05
591.437	32.86
591.631	33.01
591.824	32.94
592.018	32.52
592.212	32.32
592.405	32.7
592.599	32.6
592.792	32.61
592.986	32.72
593.179	32.83
593.372	33.14
593.566	33.43
593.759	33.35
593.953	33.6
594.146	34.02
594.339	34.23
594.533	34.15
594.726	34.32
594.92	34
595.113	34.07
595.306	34.16
595.499	33.83
595.693	33.92
595.886	34.15
596.079	34
596.272	34.02
596.466	34.1
596.659	34.19
596.852	34.31
597.045	34.54
597.238	34.47
597.431	34.36
597.624	34.42
597.818	34.57
598.011	34.24
598.204	34.4
598.397	34.42
598.59	34.41
598.783	34.49
598.976	34.38
599.169	34.58
599.362	34.55
599.555	34.63
599.748	34.79
599.941	34.41
600.134	34.87
600.326	34.71
600.519	34.78
600.712	34.6
600.905	34.68
601.098	34.87
601.291	34.62
601.483	34.83
601.676	34.85
601.869	34.72
602.062	34.91
602.255	34.94
602.447	35.14
602.64	35.13
602.833	35.34
603.025	35.36
603.218	35.21
603.411	35.25
603.603	35.29
603.796	35.36
603.989	35.45
604.181	35.4
604.374	35.3
604.566	35.19
604.759	34.94
604.951	34.87
605.144	34.88
605.336	34.91
605.529	34.82
605.721	34.76
605.914	34.71
606.106	34.63
606.299	34.75
606.491	34.71
606.683	34.61
606.876	35.09
607.068	35.08
607.26	34.79
607.453	34.84
607.645	35.01
607.837	35.02
608.03	34.97
608.222	35.17
608.414	34.93
608.606	34.93
608.799	35.29
608.991	35.18
609.183	35.24
609.375	35.31
609.567	35.49
609.759	35.33
609.952	35.49
610.144	35.43
610.336	35.3
610.528	35.38
610.72	35.45
610.912	35.35
611.104	35.57
611.296	35.41
611.488	35.45
611.68	35.2
611.872	35.45
612.064	35.14
612.256	35.37
612.448	35.42
612.64	35.5
612.832	35.7
613.023	35.61
613.215	35.22
613.407	35.25
613.599	35.19
613.791	35.27
613.983	35.4
614.174	35.83
614.366	35.64
614.558	35.58
614.75	35.54
614.941	35.21
615.133	35.15
615.325	35.04
615.516	35.39
615.708	35.5
615.9	35.43
616.091	35.36
616.283	35.26
616.475	35.37
616.666	35.6
616.858	35.85
617.049	36.01
617.241	36.34
617.432	36.51
617.624	36.49
617.815	36.87
618.007	37.05
618.198	36.89
618.39	36.72
618.581	36.96
618.773	37.02
618.964	37.07
619.155	37.18
619.347	36.98
619.538	37.18
619.729	37.05
619.921	36.9
620.112	36.99
620.303	37.11
620.494	37.18
620.686	37.22
620.877	36.9
621.068	36.51
621.259	36.62
621.451	37.01
621.642	36.8
621.833	37.04
622.024	36.82
622.215	36.56
622.406	36.58
622.597	36.41
622.788	36.24
622.98	36.17
623.171	36.43
623.362	36.27
623.553	36.11
623.744	36.32
623.935	36.11
624.126	36.49
624.317	36.63
624.508	36.81
624.698	37.03
624.889	37.09
625.08	37.51
625.271	37.52
625.462	37.62
625.653	37.4
625.844	37.5
626.034	37.37
626.225	37.17
626.416	37.28
626.607	37.2
626.798	37.22
626.988	37.31
627.179	37.22
627.37	37.07
627.56	36.84
627.751	37.07
627.942	36.94
628.132	37.06
628.323	37.02
628.514	37
628.704	37.16
628.895	37.04
629.085	36.99
629.276	37.04
629.466	37.25
629.657	37.46
629.847	37.22
630.038	37.17
630.228	37.43
630.419	37.4
630.609	37.41
630.8	37.38
630.99	37.74
631.181	37.76
631.371	37.78
631.561	37.75
631.752	37.67
631.942	37.99
632.132	38.06
632.323	38
632.513	38.1
632.703	37.93
632.893	37.68
633.084	37.48
633.274	37.47
633.464	37.44
633.654	37.55
633.844	37.55
634.034	37.34
634.225	37.26
634.415	37.17
634.605	37.07
634.795	37.46
634.985	37.45
635.175	37.47
635.365	37.51
635.555	37.62
635.745	37.52
635.935	37.61
636.125	37.77
636.315	38.04
636.505	37.97
636.695	37.98
636.885	37.68
637.075	37.82
637.265	38.03
637.455	38.02
637.644	37.8
637.834	37.97
638.024	37.93
638.214	37.91
638.404	37.92
638.593	37.94
638.783	38.05
638.973	38.25
639.163	38.19
639.352	37.9
639.542	37.82
639.732	37.98
639.921	37.97
640.111	38.02
640.301	37.85
640.49	37.72
640.68	37.69
640.87	37.63
641.059	37.77
641.249	37.88
641.438	37.84
641.628	37.84
641.817	37.72
642.007	37.82
642.196	37.72
642.386	37.91
642.575	38
642.764	38.2
642.954	38.31
643.143	38.3
643.333	38.59
643.522	38.95
643.711	38.85
643.901	38.6
644.09	38.71
644.279	39.08
644.469	38.76
644.658	38.68
644.847	38.52
645.036	38.5
645.226	38.5
645.415	38.03
645.604	37.94
645.793	38.31
645.982	38.71
646.171	38.47
646.361	38.41
646.55	38.62
646.739	38.61
646.928	39.12
647.117	39.52
647.306	39.27
647.495	39.3
647.684	39.13
647.873	39.27
648.062	39.58
648.251	39.67
648.44	39.48
648.629	39.56
648.818	39.56
649.007	39.3
649.196	39.04
649.384	39.08
649.573	39.04
649.762	38.99
649.951	38.7
650.14	38.45
650.328	38.35
650.517	38.33
650.706	38.3
650.895	38.47
651.083	38.4
651.272	37.84
651.461	37.89
651.65	38.1
651.838	38.25
652.027	38.21
652.216	37.94
652.404	37.93
652.593	37.88
652.781	37.65
652.97	37.54
653.158	37.43
653.347	37.86
653.535	37.71
653.724	37.67
653.912	37.51
654.101	37.88
654.289	38.22
654.478	38.31
654.666	38.22
654.855	38.48
655.043	38.55
655.231	38.72
655.42	38.98
655.608	39.29
655.796	39.29
655.985	40.02
656.173	39.9
656.361	40.08
656.55	40.34
656.738	40.39
656.926	40.24
657.114	39.99
657.302	39.77
657.491	39.84
657.679	39.66
657.867	39.69
658.055	38.96
658.243	38.99
658.431	38.71
658.619	38.88
658.807	39
658.996	39.29
659.184	39.3
659.372	39.37
659.56	39.12
659.748	39.22
659.936	39.59
660.124	39.88
660.311	39.94
660.499	39.91
660.687	39.61
660.875	39.78
661.063	39.63
661.251	39.65
661.439	39.57
661.627	39.71
661.814	39.85
662.002	39.33
662.19	39.38
662.378	39.24
662.565	39.08
662.753	38.9
662.941	38.77
663.129	38.55
663.316	38.41
663.504	38.16
663.692	38.2
663.879	37.86
664.067	37.71
664.254	37.31
664.442	37.15
664.63	37.16
664.817	37.52
665.005	37.3
665.192	37.7
665.38	37.84
665.567	38.31
665.755	38.23
665.942	38.69
666.13	39.68
666.317	40.14
666.504	40.2
666.692	40.17
666.879	39.95
667.067	40.28
667.254	40.7
667.441	41.25
667.629	41.03
667.816	41.21
668.003	41.05
668.19	40.92
668.378	40.71
668.565	40.85
668.752	41.06
668.939	40.81
669.127	40.54
669.314	40.04
669.501	39.77
669.688	40.06
669.875	39.94
670.062	39.82
670.249	39.12
670.436	39.1
670.623	39.3
670.81	39.41
670.997	39.53
671.184	39.64
671.371	40.24
671.558	40.36
671.745	40.17
671.932	40.1
672.119	39.54
672.306	39.49
672.493	39.25
672.68	39.11
672.867	39.26
673.054	39.2
673.24	39.61
673.427	39.25
673.614	39.07
673.801	39.14
673.988	39.34
674.174	39.71
674.361	40.04
674.548	40.52
674.734	40.41
674.921	40.64
675.108	41.03
675.294	40.8
675.481	40.99
675.668	40.79
675.854	40.82
676.041	40.43
676.227	40.67
676.414	40.86
676.601	40.57
676.787	40.5
676.974	39.81
677.16	39.55
677.347	39.34
677.533	38.89
677.719	39.12
677.906	39.26
678.092	39.49
678.279	39.77
678.465	39.42
678.651	39.36
678.838	39.27
679.024	39.4
679.21	39.35
679.397	39.52
679.583	39.58
679.769	39.76
679.955	39.68
680.142	39.67
680.328	39.62
680.514	39.68
680.7	39.54
680.886	39.52
681.073	39.58
681.259	39.57
681.445	39.33
681.631	39.36
681.817	39.38
682.003	39.42
682.189	39.45
682.375	39.42
682.561	39.66
682.747	40.05
682.933	39.99
683.119	40.3
683.305	40.61
683.491	40.8
683.677	40.8
683.863	40.6
684.049	40.62
684.235	40.76
684.42	40.75
684.606	40.82
684.792	40.97
684.978	41.46
685.164	41.34
685.349	41.13
685.535	41.29
685.721	41.24
685.907	41.19
686.092	41.07
686.278	41.33
686.464	41.49
686.649	40.92
686.835	40.83
687.021	40.77
687.206	40.94
687.392	40.78
687.577	40.65
687.763	40.42
687.948	40.8
688.134	40.79
688.319	40.41
688.505	40.08
688.69	40.38
688.876	40.22
689.061	39.9
689.247	40.07
689.432	39.74
689.618	39.4
689.803	40.01
689.988	39.75
690.174	39.96
690.359	39.77
690.544	39.98
690.73	40.29
690.915	40.6
691.1	40.71
691.285	40.62
691.471	41.5
691.656	41.9
691.841	41.83
692.026	41.88
692.211	41.76
692.396	42.07
692.582	41.72
692.767	41.58
692.952	41.23
693.137	41.55
693.322	41.31
693.507	40.83
693.692	41.21
693.877	40.72
694.062	40.28
694.247	40.28
694.432	40.49
694.617	40.76
694.802	40.65
694.987	41.05
695.172	40.79
695.357	40.73
695.541	40.7
695.726	40.48
695.911	40.73
696.096	40.99
696.281	41.21
696.466	40.84
696.65	40.92
696.835	40.93
697.02	40.58
697.204	40.32
697.389	40.61
697.574	40.85
697.759	40.52
697.943	40.78
698.128	40.66
698.312	40.39
698.497	40.56
698.682	40.61
698.866	40.75
699.051	40.82
699.235	41.48
699.42	41.29
699.604	41.36
699.789	41.59
699.973	41.8
700.158	42.12
700.342	42.12
700.527	42.13
700.711	42.19
700.895	42.08
701.08	41.95
701.264	41.32
701.448	41.63
701.633	41.59
701.817	41.55
702.001	40.94
702.186	40.93
702.37	41.34
702.554	41.54
702.738	40.95
702.923	40.99
703.107	41.2
703.291	41.42
703.475	41.06
703.659	40.98
703.843	41.18
704.027	41.58
704.212	41.44
704.396	41.71
704.58	41.97
704.764	42.4
704.948	41.92
705.132	42.06
705.316	41.84
705.5	41.78
705.684	42.18
705.868	42.41
706.052	42.52
706.235	42.33
706.419	41.74
706.603	41.44
706.787	41.41
706.971	41.95
707.155	41.89
707.339	42.5
707.522	42.25
707.706	41.83
707.89	41.19
708.074	40.96
708.257	40.75
708.441	41.13
708.625	40.97
708.808	40.93
708.992	40.67
709.176	40.43
709.359	40.23
709.543	40.66
709.727	40.32
709.91	40.49
710.094	40.25
710.277	40.49
710.461	40.25
710.644	40.49
710.828	40.19
711.011	40.5
711.195	40.94
711.378	41.12
711.562	41.54
711.745	41.73
711.928	41.52
712.112	41.46
712.295	41.71
712.478	41.3
712.662	41.31
712.845	41.33
713.028	40.98
713.212	40.86
713.395	40.78
713.578	40.56
713.761	40.66
713.945	40.97
714.128	41.6
714.311	41.68
714.494	42.36
714.677	41.7
714.86	42.33
715.043	42.66
715.227	42.52
715.41	42.65
715.593	42.79
715.776	43.11
715.959	43.76
716.142	43.49
716.325	42.98
716.508	42.65
716.691	43.38
716.874	43.34
717.057	43.48
717.239	43.62
717.422	43.26
717.605	43.25
717.788	43.1
717.971	42.54
718.154	43.08
718.337	43.26
718.519	42.97
718.702	42.81
718.885	42.54
719.068	42.59
719.25	42.95
719.433	42.81
719.616	42.16
719.798	41.68
719.981	41.81
720.164	40.92
720.346	41.39
720.529	41.34
720.712	40.95
720.894	40.9
721.077	40.3
721.259	39.93
721.442	40.13
721.624	40.54
721.807	41.37
721.989	40.89
722.172	41.08
722.354	40.75
722.537	41.47
722.719	41.79
722.901	41.78
723.084	42.05
723.266	42.05
723.448	42.18
723.631	43.39
723.813	43.38
723.995	43.59
724.178	43.55
724.36	43.8
724.542	43.55
724.724	43.6
724.907	44.26
725.089	43.65
725.271	42.96
725.453	42.27
725.635	41.22
725.817	41.94
725.999	42.09
726.181	42.74
726.364	42.13
726.546	42.28
726.728	42.42
726.91	42.03
727.092	42.44
727.274	42.53
727.456	42.9
727.638	43.07
727.819	41.65
728.001	41.81
728.183	40.97
728.365	41.79
728.547	41.94
728.729	42.28
728.911	42.5
729.093	42.75
729.274	43.9
729.456	44.09
729.638	43.14
729.82	43.8
730.001	43.24
730.183	43.09
730.365	42.53
730.546	42.17
730.728	41.66
730.91	41.44
731.091	41.75
731.273	40.91
731.455	40.58
731.636	41.01
731.818	40.71
731.999	40.37
732.181	40.79
732.362	41.35
732.544	41.57
732.725	41.42
732.907	41.18
733.088	40.68
733.27	41.15
733.451	41.46
733.633	42.27
733.814	42.72
733.995	43.15
734.177	43.03
734.358	42.82
734.539	42.92
734.721	43.31
734.902	43.37
735.083	43.07
735.264	42.88
735.446	43.11
735.627	42.89
735.808	43.01
735.989	43.37
736.17	43.82
736.351	43.2
736.533	42.92
736.714	42.63
736.895	42.51
737.076	43.47
737.257	43.12
737.438	42.63
737.619	41.74
737.8	40.83
737.981	40.44
738.162	39.86
738.343	40.34
738.524	40.54
738.705	41.15
738.886	41.96
739.067	41.47
739.247	42.56
739.428	42.21
739.609	42.47
739.79	43.49
739.971	44.35
740.151	44.33
740.332	44.64
740.513	44.77
740.694	44.42
740.874	43.12
741.055	44.25
741.236	43.78
741.417	43.9
741.597	43.43
741.778	42.12
741.958	41.03
742.139	40.65
742.32	40.25
742.5	40.01
742.681	39.26
742.861	39.89
743.042	38.39
743.222	37.86
743.403	37.85
743.583	37.61
743.764	38.78
743.944	39.51
744.124	39.86
744.305	40.02
744.485	40.27
744.666	40.51
744.846	40.9
745.026	40.82
745.207	40.79
745.387	40.89
745.567	41.68
745.747	40.67
745.928	41.17
746.108	41.67
746.288	41.15
746.468	40.66
746.648	40.25
746.829	39.07
747.009	39.38
747.189	38.89
747.369	40.4
747.549	39.99
747.729	41.26
747.909	41.55
748.089	41.26
748.269	41.98
748.449	42.52
748.629	43.36
748.809	44.31
748.989	44.23
749.169	44.44
749.349	44.24
749.529	45.26
749.709	45.13
749.889	43.91
750.068	44.49
750.248	44.11
750.428	44.02
750.608	43.84
750.788	43.45
750.967	43.5
751.147	43.79
751.327	42.4
751.507	41.23
751.686	40.44
751.866	41.1
752.046	41.08
752.225	41.56
752.405	41.45
752.585	41.33
752.764	41.99
752.944	41.88
753.123	42.34
753.303	43.31
753.482	43.66
753.662	43.42
753.841	42.59
754.021	42.48
754.2	42.69
754.38	42.51
754.559	42.39
754.739	42.06
754.918	42.28
755.097	41.6
755.277	40.83
755.456	41.11
755.635	42.06
755.815	42.36
755.994	42.79
756.173	42.4
756.352	43.36
756.532	43.95
756.711	44.59
756.89	45.01
757.069	45.88
757.248	45.43
757.427	45.42
757.607	45.54
757.786	46.36
757.965	45.64
758.144	45.09
758.323	44.96
758.502	43.56
758.681	43.19
758.86	42.7
759.039	41.94
759.218	43.34
759.397	43.83
759.576	43.42
759.755	42.07
759.934	41
760.113	40.9
760.291	40.53
760.47	41.22
760.649	41.44
760.828	40.87
761.007	40.78
761.186	41.06
761.364	41.08
761.543	40.79
761.722	41.99
761.901	42.35
762.079	42.02
762.258	41.09
762.437	42.26
762.615	42.37
762.794	43.29
762.972	43.83
763.151	43
763.33	42.71
763.508	42.39
763.687	42.25
763.865	43.1
764.044	44.03
764.222	44.62
764.401	43.93
764.579	42.94
764.758	42.67
764.936	42.68
765.114	43.11
765.293	43.05
765.471	43.13
765.65	42.95
765.828	42.62
766.006	42.24
766.184	41.59
766.363	41.67
766.541	42.76
766.719	42.79
766.898	42.96
767.076	43.08
767.254	43.66
767.432	43.81
767.61	43.83
767.788	44.18
767.967	44.44
768.145	45.52
768.323	45.38
768.501	46.03
768.679	46.58
768.857	46.2
769.035	44.61
769.213	43.91
769.391	44.35
769.569	43.88
769.747	42.77
769.925	41.84
770.103	40.41
770.281	41.12
770.459	40.21
770.636	39.47
770.814	39.96
770.992	40.96
771.17	39.96
771.348	38.28
771.525	37.79
771.703	39.17
771.881	40.11
772.059	42.56
772.236	41.55
772.414	42.18
772.592	42.29
772.769	41.24
772.947	41.74
773.125	43.51
773.302	46.05
773.48	46.25
773.657	45.54
773.835	45.98
774.013	46
774.19	45.57
774.368	44.41
774.545	44.95
774.723	44.15
774.9	42.8
775.077	42.82
775.255	41.4
775.432	43.48
775.61	43.34
775.787	41.83
775.964	39.71
776.142	41.26
776.319	41.24
776.496	41.19
776.674	42.36
776.851	44.39
777.028	44.13
777.205	44.58
777.382	42.63
777.56	43.38
777.737	43.65
777.914	43.94
778.091	44.02
778.268	43.82
778.445	43.96
778.622	44.55
778.8	45.48
778.977	43.65
779.154	53.66
779.331	54.82
779.508	54.61
779.685	56.23
779.862	56.66
780.038	55.92
780.215	55.1
780.392	55.64
780.569	55.93
780.746	53.56
780.923	54.6
781.1	43.66
781.277	41.53
781.453	41.62
781.63	41.1
781.807	42.72
781.984	42.7
782.16	45.55
782.337	45.64
782.514	43.16
782.691	45.33
782.867	45.18
783.044	45.84
783.221	47.63
783.397	47.9
783.574	48.8
783.75	47.01
783.927	47.68
784.103	47.06
784.28	44.88
784.456	47.49
784.633	46.33
784.809	46.29
784.986	45.31
785.162	45.95
785.339	45.26
785.515	45.66
785.692	46.07
785.868	44.13
786.044	41.34
786.221	42.75
786.397	40.9
786.573	40.55
786.749	41.41
786.926	41.76
787.102	41.41
787.278	42.4
787.454	41.12
787.631	40.31
787.807	41.46
787.983	43.62
788.159	44.23
788.335	46.66
788.511	47.07
788.687	47.87
788.863	49.56
789.039	49.96
789.216	48.33
789.392	48.92
789.568	48.99
789.744	50.58
789.919	50.92
790.095	49.69
790.271	48.72
790.447	49.08
790.623	48.36
790.799	46.09
790.975	44.67
791.151	45.36
791.327	44.18
791.502	44.85
791.678	44.46
791.854	44.01
792.03	45.33
792.205	45.32
792.381	45.8
792.557	45.62
792.733	45.15
792.908	45.67
793.084	46.73
793.259	44.82
793.435	45.04
793.611	44.19
793.786	44.8
793.962	44.01
794.137	43.82
794.313	43.62
794.488	44.51
794.664	46.38
794.839	46.6
795.015	46.78
795.19	48.86
795.366	48.7
795.541	46.53
795.716	44.63
795.892	44.36
796.067	42.95
796.242	41.87
796.418	42.09
796.593	41.1
796.768	39.03
796.944	37.54
797.119	37.22
797.294	39.05
797.469	41.76
797.644	41.78
797.82	41.81
797.995	42.59
798.17	43.55
798.345	43.29
798.52	45.11
798.695	45.98
798.87	47.6
799.045	49.8
799.22	46.36
799.395	45.65
799.57	47.53
799.745	48.33
799.92	47.7
800.095	44.92
800.27	43.79
800.445	43.24
800.62	43.06
800.795	41.36
800.97	37.51
801.145	39.16
801.319	37.99
801.494	36.02
801.669	33.8
801.844	34.93
802.018	36.49
802.193	39.84
802.368	37.02
802.543	36.84
802.717	37.3
802.892	39.43
803.067	39.35
803.241	39.6
803.416	40.49
803.59	42.56
803.765	42.18
803.94	41.74
804.114	39.8
804.289	41.92
804.463	44.16
804.638	43.86
804.812	43.2
804.986	41.63
805.161	43.28
805.335	44.26
805.51	44.99
805.684	43.66
805.858	43.16
806.033	42.4
806.207	43.66
806.381	43.34
806.556	43.72
806.73	45.39
806.904	47.86
807.078	47.95
807.253	47.66
807.427	46.75
807.601	48.62
807.775	49.97
807.949	47.1
808.123	45.82
808.298	45.64
808.472	46.69
808.646	44.41
808.82	44.46
808.994	43.94
809.168	43.78
809.342	42.58
809.516	41.55
809.69	40.47
809.864	42.64
810.038	43.48
810.212	42.95
810.385	41.47
810.559	43.65
810.733	41.89
810.907	41.21
811.081	40.9
811.255	42.08
811.428	44.18
811.602	45.69
811.776	45.47
811.95	43.38
812.123	43.67
812.297	41.06
812.471	39.77
812.644	40
812.818	41.88
812.992	42.87
813.165	43.67
813.339	40.08
813.512	38.71
813.686	36.69
813.86	40.58
814.033	40.78
814.207	46.37
814.38	47.03
814.554	47.08
814.727	47.54
814.9	47.91
815.074	47.3
815.247	50.93
815.421	50.72
815.594	50.9
815.767	48.07
815.941	46.65
816.114	43.73
816.287	43.92
816.46	45.1
816.634	43.51
816.807	42.98
816.98	42.9
817.153	40.3
817.327	43.24
817.5	46.57
817.673	47.62
817.846	47.86
818.019	46.55
818.192	47.68
818.365	46.45
818.538	43.53
818.711	40.35
818.884	39.67
819.057	38.62
819.23	37.36
819.403	35.97
819.576	35.51
819.749	35.49
819.922	37.81
820.095	35.57
820.268	35.4
820.441	37.59
820.614	38.64
820.786	39.56
820.959	40.57
821.132	41.27
821.305	40.88
821.477	40.9
821.65	42.54
821.823	42.59
821.996	43.11
822.168	43.31
822.341	42.42
822.514	42.61
822.686	42.91
822.859	42.95
823.031	42.67
823.204	43.32
823.376	43.12
823.549	42.53
823.722	42.5
823.894	42.56
824.067	42.58
824.239	43.14
824.411	43.62
824.584	43.67
824.756	43.21
824.929	43.66
825.101	43.89
825.273	44.38
825.446	43.92
825.618	43.63
825.79	43.56
825.963	43.83
826.135	44.23
826.307	43.7
826.479	43.18
826.652	43.63
826.824	43.5
826.996	42.97
827.168	42.96
827.34	43.73
827.512	44.36
827.684	44.38
827.856	43.75
828.029	43.58
828.201	43.74
828.373	43.41
828.545	44.19
828.717	43.2
828.889	42.97
829.061	43.04
829.232	43.3
829.404	43.79
829.576	43.23
829.748	44.05
829.92	44.55
830.092	45.41
830.264	45.31
830.436	43.98
830.607	44.97
830.779	44.9
830.951	45.13
831.123	44.89
831.294	41.3
831.466	41.6
831.638	40.73
831.809	39.67
831.981	37.31
832.153	36.57
832.324	37.79
832.496	37.2
832.667	39.19
832.839	39.82
833.011	39.07
833.182	41.48
833.354	42.04
833.525	40.9
833.697	41.75
833.868	42.18
834.039	45.99
834.211	45.93
834.382	45.73
834.554	44.68
834.725	43.29
834.896	43.24
835.068	42.58
835.239	40.55
835.41	41.63
835.581	41.63
835.753	41.87
835.924	40.8
836.095	39.82
836.266	39.79
836.438	39.01
836.609	39.48
836.78	41.14
836.951	40.08
837.122	39.17
837.293	38.54
837.464	35.91
837.635	37.25
837.806	35.48
837.977	35.59
838.148	35.01
838.319	35.56
838.49	34.82
838.661	32.14
838.832	36.59
839.003	42.17
839.174	43.9
839.345	47.44
839.516	45.6
839.687	46.77
839.857	45.02
840.028	39.96
840.199	36.66
840.37	35.46
840.54	34.33
840.711	31.55
840.882	29.68
841.053	31.36
841.223	30.49
841.394	25.77
841.564	26.01
841.735	29.37
841.906	38.33
842.076	40.26
842.247	41.52
842.417	42.92
842.588	40.95
842.758	37.19
842.929	33.57
843.099	32.77
843.27	41.54
843.44	39.42
843.611	38.04
843.781	31.78
843.951	34.14
844.122	32.62
844.292	30.95
844.462	33.4
844.633	41.62
844.803	42.76
844.973	41.87
845.144	35.13
845.314	36.79
845.484	38.32
845.654	45.38
845.824	45.72
845.995	47.44
846.165	46.33
846.335	46.53
846.505	41.37
846.675	38.86
846.845	43.82
847.015	41.4
847.185	44.99
847.355	44.13
847.525	45.51
847.695	45.88
847.865	51.67
848.035	47.23
848.205	41.17
848.375	42.12
848.545	47.31
848.715	43.04
848.884	46.9
849.054	44.19
849.224	44.86
849.394	43.18
849.564	38.23
849.733	38.62
849.903	46.25
850.073	46.07
850.243	42.71
850.412	44
850.582	46.39
850.752	43.59
850.921	42.34
851.091	39.38
851.26	43.79
851.43	45.03
851.599	38.3
851.769	33.02
851.939	34.66
852.108	32.38
852.278	31.84
852.447	30.03
852.616	36.42
852.786	40.22
852.955	40.95
853.125	33.04
853.294	34.68
853.463	34.13
853.633	31.96
853.802	37.39
853.971	40.71
854.141	37.68
854.31	32.33
854.479	20.86
854.648	20.48
854.818	16.61
854.987	16.59
855.156	2.12
855.325	2.6
855.494	12.18
855.663	8.61
855.832	5.31
856.001	5.51
856.171	12.61
856.34	12.99
856.509	5.79
856.678	14.96
856.847	26.2
857.016	36.01
857.185	38.35
857.353	31.24
857.522	31.18
857.691	31.67
857.86	25.7
858.029	24.32
858.198	27.12
858.367	29.22
858.535	28.32
858.704	23.33
858.873	18.41
859.042	18.83
859.21	19.19
859.379	18.38
859.548	23.49
859.717	28.9
859.885	29.19
860.054	35.79
860.222	34.95
860.391	33.45
860.56	24.6
860.728	27.45
860.897	29.3
861.065	26.91
861.234	36.74
861.402	28.14
861.571	30.59
861.739	34.29
861.908	25.95
862.076	24.83
862.244	29.36
862.413	38.53
862.581	31.67
862.749	34.11
862.918	43.42
863.086	33.83
863.254	41.32
863.423	32.4
863.591	21.74
863.759	30.08
863.927	39.12
864.096	28.55
864.264	31.97
864.432	46.11
864.6	49.26
864.768	47.78
864.936	48.47
865.104	35.57
865.272	44.53
865.44	49.71
865.608	40.25
865.776	32.31
865.944	36.92
866.112	29.1
866.28	28.63
866.448	20.82
866.616	24.52
866.784	5.03
866.952	17.83
867.12	18.56
867.288	19.3
867.455	33.18
867.623	35.38
867.791	34.2
867.959	39.61
868.127	42.32
868.294	36.24
868.462	39.1
868.63	46.2
868.797	41.38
868.965	38.14
869.133	35.42
869.3	34.9
869.468	32.02
869.636	30.96
869.803	32.79
869.971	22.14
870.138	24.93
870.306	23.32
870.473	25.74
870.641	29.66
870.808	34.61
870.975	41.27
871.143	36.59
871.31	35.44
871.478	33.42
871.645	28.62
871.812	45.2
871.98	52.91
872.147	46.06
872.314	49.27
872.482	51.81
872.649	52.3
872.816	43.91
872.983	38.71
873.15	34.18
873.318	35.16
873.485	34.93
873.652	27.47
873.819	21.13
873.986	17.77
874.153	20.03
874.32	19.31
874.487	17.74
874.654	15.47
874.821	13.53
874.988	11.69
875.155	9.68
875.322	14.79
875.489	7.47
875.656	0.85
875.823	8.1
875.99	8.94
876.157	9.13
876.324	5.73
876.49	7.04
876.657	11.28
876.824	28.56
876.991	30.81
877.157	25.99
877.324	32.99
877.491	40.79
877.658	42.88
877.824	48.37
877.991	59.69
878.157	67.69
878.324	76.68
878.491	80.52
878.657	69.46
878.824	63.61
878.99	63.88
879.157	69.19
879.323	59.61
879.49	52.47
879.656	55.33
879.823	39.66
879.989	36.22
880.156	36.62
880.322	37.78
880.488	30.86
880.655	34.21
880.821	35.09
880.987	33.23
881.154	35.43
881.32	38.59
881.486	33.68
881.652	33.9
881.819	36.8
881.985	37.2
882.151	39.1
882.317	39.7
882.483	42.9
882.649	43.35
882.816	40.99
882.982	42.38
883.148	41.51
883.314	41.13
883.48	43.41
883.646	43.62
883.812	44.45
883.978	44.07
884.144	43.22
884.31	42.39
884.476	41.76
884.642	43.64
884.807	43.08
884.973	43.97
885.139	44.8
885.305	42.52
885.471	41.52
885.637	40.91
885.802	41.15
885.968	42.88
886.134	43.75
886.3	44.6
886.465	44.05
886.631	44.15
886.797	44.05
886.962	43.26
887.128	47.41
887.293	51.96
887.459	53.43
887.625	53.57
887.79	54.77
887.956	50.56
888.121	51.76
888.287	52.37
888.452	54.41
888.618	53.61
888.783	61.8
