Data from LC_277_Reflection_3.txt Node
Date: Sat Nov 21 12:32:14 EST 2015
User: robert
Spectrometer: USB4E03001
Autoset integration time: false
Trigger mode: 4
Integration Time (sec): 1.000000E-1
Scans to average: 15
Electric dark correction enabled: true
Nonlinearity correction enabled: false
Boxcar width: 5
Stray light correction enabled: false
XAxis mode: Wavelengths
Stop averaging: false
Number of Pixels in Spectrum: 3648
>>>>>Begin Spectral Data<<<<<
177.566	42.76
177.785	150.11
178.005	515.61
178.225	-125.07
178.445	-375.26
178.665	-273.53
178.885	755.67
179.105	267.17
179.324	114.87
179.544	152.11
179.764	931.87
179.984	106.81
180.204	98.25
180.423	91.55
180.643	120.98
180.863	206.55
181.083	279.18
181.302	322.96
181.522	307.8
181.742	363.65
181.961	305.62
182.181	279.8
182.401	599.8
182.621	474.03
182.84	513.44
183.06	408.15
183.279	316.69
183.499	281.93
183.719	242.74
183.938	240.89
184.158	279.12
184.377	268.71
184.597	268.6
184.816	246.55
185.036	268.72
185.256	267.11
185.475	230.87
185.695	227.25
185.914	217.02
186.134	224.99
186.353	251.36
186.572	228.7
186.792	212.05
187.011	198.65
187.231	209.16
187.45	212.45
187.67	232.7
187.889	283.43
188.108	376.7
188.328	483.67
188.547	527.86
188.766	538.77
188.986	595.89
189.205	1082.91
189.424	2011.65
189.644	1416.28
189.863	-892.72
190.082	-1615.28
190.302	2534.12
190.521	398.82
190.74	342.03
190.959	447.19
191.178	381.53
191.398	218.73
191.617	250.68
191.836	272.3
192.055	252.72
192.274	181.12
192.494	178.77
192.713	182.23
192.932	208.24
193.151	211.95
193.37	171.69
193.589	169.47
193.808	240.72
194.027	241.5
194.246	210.31
194.465	205.93
194.685	201.38
194.904	185.17
195.123	193.38
195.342	248.93
195.561	262.22
195.78	230.62
195.999	280.93
196.218	212.67
196.436	237.4
196.655	259.86
196.874	211.46
197.093	250.91
197.312	294.3
197.531	305
197.75	207.67
197.969	194.05
198.188	225.79
198.407	212.28
198.625	224.02
198.844	199.79
199.063	204.29
199.282	221.64
199.501	247.34
199.719	260
199.938	282.71
200.157	274.78
200.376	288.39
200.594	286.17
200.813	271.43
201.032	283.17
201.251	259.86
201.469	336.89
201.688	452.5
201.907	389.98
202.125	282.87
202.344	269.63
202.563	359.08
202.781	410.47
203	409.48
203.218	402.04
203.437	763.87
203.656	1358.59
203.874	1157.2
204.093	555.78
204.311	497.92
204.53	765.98
204.748	715.31
204.967	674.17
205.185	455.15
205.404	462.55
205.622	997.76
205.841	640.94
206.059	497.25
206.278	524.57
206.496	543.48
206.715	1072.48
206.933	677
207.151	490.79
207.37	367.93
207.588	508.91
207.806	448.64
208.025	269.79
208.243	244.86
208.461	260.37
208.68	249.48
208.898	291.72
209.116	216.68
209.335	241.23
209.553	300
209.771	364.34
209.989	357.72
210.208	440.43
210.426	538.27
210.644	548.42
210.862	805.09
211.081	710.36
211.299	377.08
211.517	392.67
211.735	321.64
211.953	267.53
212.171	201.79
212.39	191.61
212.608	173.35
212.826	182.68
213.044	178.39
213.262	151.96
213.48	148.6
213.698	156.74
213.916	191.36
214.134	171.8
214.352	174.48
214.57	177.78
214.788	159.11
215.006	154.95
215.224	142.96
215.442	153.48
215.66	197.92
215.878	194.79
216.096	241.95
216.314	214.87
216.532	225.97
216.75	237.06
216.968	272.95
217.185	259.54
217.403	299.25
217.621	314.08
217.839	286.03
218.057	282.59
218.275	281.76
218.492	247.44
218.71	247.95
218.928	263.59
219.146	242.53
219.363	250.47
219.581	452.06
219.799	279.84
220.017	199.99
220.234	223.18
220.452	212.82
220.67	198.33
220.887	221.9
221.105	217.29
221.323	254.89
221.54	266.54
221.758	213.61
221.976	182.1
222.193	212.21
222.411	222.72
222.629	177.41
222.846	180.7
223.064	166.63
223.281	147.23
223.499	156.06
223.716	131.82
223.934	137.89
224.151	142.25
224.369	155.26
224.586	149.92
224.804	142.01
225.021	165.9
225.239	162.71
225.456	167.12
225.674	146.15
225.891	122.77
226.108	113.54
226.326	106.37
226.543	95.58
226.76	82.54
226.978	71.58
227.195	66.54
227.413	58.52
227.63	50.71
227.847	48.18
228.064	46.79
228.282	44.63
228.499	45.81
228.716	44.76
228.934	43.16
229.151	39.89
229.368	38.79
229.585	38.94
229.802	39.66
230.02	40.17
230.237	39.29
230.454	42.35
230.671	45.77
230.888	43.14
231.105	38.96
231.323	41.46
231.54	49.12
231.757	51.31
231.974	54.11
232.191	50.01
232.408	51.59
232.625	53.32
232.842	49.72
233.059	47.18
233.276	53.61
233.493	60.12
233.71	60.71
233.927	55.14
234.144	54.6
234.361	49.37
234.578	53.89
234.795	54.3
235.012	53.47
235.229	53.67
235.446	50.73
235.663	48.45
235.879	43.94
236.096	42.97
236.313	43
236.53	42.18
236.747	44.58
236.964	43.06
237.181	42.71
237.397	41.01
237.614	45.47
237.831	41.4
238.048	41.51
238.264	42.74
238.481	39.4
238.698	41.03
238.915	41.96
239.131	36.8
239.348	38.35
239.565	35.11
239.781	37.79
239.998	34.18
240.215	35.94
240.431	31.83
240.648	31.17
240.865	29.5
241.081	25.58
241.298	24.82
241.514	28.11
241.731	23.78
241.947	24.25
242.164	23.82
242.38	21.85
242.597	22.73
242.814	22.67
243.03	22.35
243.246	23.7
243.463	24.32
243.679	26.04
243.896	25.21
244.112	28.38
244.329	30.44
244.545	30.76
244.762	34.49
244.978	33.81
245.194	34.91
245.411	34.87
245.627	32.86
245.843	29.37
246.06	25.16
246.276	23.42
246.492	21.77
246.709	18.68
246.925	17.75
247.141	16.36
247.357	15.74
247.574	15.23
247.79	14.25
248.006	14.49
248.222	14.96
248.439	16.08
248.655	16.42
248.871	17.16
249.087	18.19
249.303	18.81
249.519	19.61
249.736	20.9
249.952	22.35
250.168	25.63
250.384	26.74
250.6	27.83
250.816	27.3
251.032	27.94
251.248	26.72
251.464	26.06
251.68	24.86
251.896	25.14
252.112	25.6
252.328	23.81
252.544	23.27
252.76	22.72
252.976	22.98
253.192	22.15
253.408	22.37
253.624	24.29
253.84	26.72
254.056	27.81
254.272	27.72
254.487	27.82
254.703	30.27
254.919	31.19
255.135	33.09
255.351	34.39
255.567	33.66
255.782	33.37
255.998	32.84
256.214	31.37
256.43	32.15
256.646	32.04
256.861	31.55
257.077	30.89
257.293	29.87
257.508	26.89
257.724	25.26
257.94	26.34
258.155	24.56
258.371	21.96
258.587	19.71
258.802	18.48
259.018	17.42
259.234	16.68
259.449	15.9
259.665	14.44
259.88	14.18
260.096	13.64
260.312	13.29
260.527	13.43
260.743	13.46
260.958	13.67
261.174	12.97
261.389	13.37
261.605	13.23
261.82	13.78
262.036	14.96
262.251	15.3
262.466	17.31
262.682	17.95
262.897	17.62
263.113	19.29
263.328	21.35
263.543	22.98
263.759	24.02
263.974	25.56
264.189	27.43
264.405	28.16
264.62	31.17
264.835	30.38
265.051	30.4
265.266	31.97
265.481	29.45
265.696	28.65
265.912	28.01
266.127	26.1
266.342	24.81
266.557	23.04
266.773	22.4
266.988	19.95
267.203	18.91
267.418	18.62
267.633	18.1
267.848	18.99
268.064	18.22
268.279	18.68
268.494	18.99
268.709	19.77
268.924	19.49
269.139	18.86
269.354	19.36
269.569	18.88
269.784	19.08
269.999	18.38
270.214	18.94
270.429	18.08
270.644	16.46
270.859	15.9
271.074	13.91
271.289	13.55
271.504	14.35
271.719	14.37
271.934	15.67
272.149	15.37
272.363	14.79
272.578	13.23
272.793	13.43
273.008	15.7
273.223	16.11
273.438	17.74
273.653	19.53
273.867	20.01
274.082	20.57
274.297	19.13
274.512	20.03
274.726	21.59
274.941	22.99
275.156	25.07
275.371	23.17
275.585	24.19
275.8	23.35
276.015	20.72
276.229	19.13
276.444	19.49
276.659	20.71
276.873	20.9
277.088	21.9
277.302	21.75
277.517	20.2
277.732	21.14
277.946	20.21
278.161	20.38
278.375	20.42
278.59	21.71
278.804	21
279.019	21.32
279.233	20.74
279.448	18.46
279.662	17.62
279.877	16.94
280.091	16.52
280.306	17.02
280.52	16.38
280.735	17.77
280.949	16.6
281.163	16.3
281.378	15.73
281.592	14.84
281.806	15.44
282.021	15.66
282.235	16.33
282.449	16.55
282.664	16.31
282.878	17.24
283.092	17.57
283.307	18.36
283.521	18.67
283.735	17.78
283.949	17.74
284.164	16.17
284.378	15.98
284.592	14.56
284.806	15.05
285.02	14.84
285.234	14.49
285.449	13.04
285.663	12.67
285.877	12.79
286.091	14.19
286.305	14.67
286.519	16.15
286.733	16.47
286.947	17.46
287.161	16.39
287.375	16.43
287.589	17.16
287.803	17.85
288.017	17.51
288.231	17.5
288.445	17.01
288.659	16.66
288.873	16.48
289.087	16.71
289.301	16.56
289.515	16.82
289.729	16.85
289.943	16.02
290.157	16.3
290.371	16.43
290.584	16.84
290.798	17.06
291.012	17.3
291.226	17.08
291.44	16.91
291.654	17.42
291.867	17
292.081	17.25
292.295	17.12
292.509	17.67
292.722	18.32
292.936	17.79
293.15	17.46
293.364	17.84
293.577	17.51
293.791	17.5
294.005	17.35
294.218	17.73
294.432	16.53
294.645	17.25
294.859	16.71
295.073	15.24
295.286	15.03
295.5	14.68
295.713	13.67
295.927	13.66
296.14	13.82
296.354	13.65
296.568	14.18
296.781	14.46
296.994	14.75
297.208	14.78
297.421	15.63
297.635	15.69
297.848	15.49
298.062	15.7
298.275	16.02
298.489	15.94
298.702	15.76
298.915	14.86
299.129	15.23
299.342	15.1
299.555	14.83
299.769	15.47
299.982	15.4
300.195	15.76
300.409	16.97
300.622	16.61
300.835	16.67
301.048	17.74
301.262	17.74
301.475	18.78
301.688	18.32
301.901	18.18
302.115	17.85
302.328	18.25
302.541	17.79
302.754	17.84
302.967	19.56
303.18	18.97
303.393	18.28
303.607	18.6
303.82	17.89
304.033	17.81
304.246	19.27
304.459	20.27
304.672	20.55
304.885	21.15
305.098	20.82
305.311	19.51
305.524	20.09
305.737	20.15
305.95	20.35
306.163	20.21
306.376	20.1
306.589	19.08
306.802	18.39
307.015	17.43
307.228	17.13
307.44	16
307.653	17.53
307.866	17.67
308.079	16.27
308.292	15.43
308.505	15.32
308.718	15.4
308.93	15.5
309.143	13.88
309.356	14.61
309.569	14.41
309.781	15.52
309.994	14.56
310.207	14.12
310.42	14.62
310.632	15.43
310.845	15.61
311.058	16
311.27	15.55
311.483	16.72
311.696	16.14
311.908	16.95
312.121	16.24
312.333	16.6
312.546	17.2
312.759	18.35
312.971	19.43
313.184	20.65
313.396	19.94
313.609	20.65
313.821	20.34
314.034	21.1
314.246	20.64
314.459	21.19
314.671	20.25
314.884	20.65
315.096	20.02
315.309	18.72
315.521	18.13
315.733	18.25
315.946	18.6
316.158	17.6
316.371	19.14
316.583	19.97
316.795	20.06
317.008	22
317.22	21.59
317.432	21.99
317.644	23.58
317.857	22.99
318.069	22.07
318.281	21.96
318.494	24.29
318.706	22.9
318.918	22.12
319.13	21.61
319.342	20.84
319.555	20.98
319.767	21.3
319.979	20.47
320.191	21.37
320.403	23.72
320.615	22.98
320.827	22.81
321.039	23.6
321.252	24.31
321.464	24.45
321.676	24.19
321.888	23.67
322.1	23.84
322.312	23.14
322.524	21.45
322.736	20.55
322.948	22.46
323.16	21.94
323.372	21
323.584	21.76
323.796	23.59
324.007	23.79
324.219	23.69
324.431	23.61
324.643	25.1
324.855	25.82
325.067	27.08
325.279	25.99
325.491	26.76
325.702	26.94
325.914	27.14
326.126	26.93
326.338	26.81
326.55	28.32
326.761	28.06
326.973	28.14
327.185	29.75
327.396	29.22
327.608	29.17
327.82	29.75
328.032	30.79
328.243	29.99
328.455	29.91
328.666	30.86
328.878	31.57
329.09	32.68
329.301	33.3
329.513	32.68
329.725	33.04
329.936	35.05
330.148	34.87
330.359	35.41
330.571	36.85
330.782	36.35
330.994	36.77
331.205	36.09
331.417	36.73
331.628	37.47
331.84	38.42
332.051	39.86
332.262	39.64
332.474	39.88
332.685	39.59
332.897	39.24
333.108	39.22
333.319	39.79
333.531	40.91
333.742	40.5
333.953	39.66
334.165	39.1
334.376	38.35
334.587	38.45
334.799	38.1
335.01	38.9
335.221	39.59
335.432	40.04
335.644	39.68
335.855	39.26
336.066	40.6
336.277	41.21
336.488	41.21
336.7	41.14
336.911	41.33
337.122	41.93
337.333	41.94
337.544	41.49
337.755	42.51
337.966	42.52
338.177	42.04
338.388	40.76
338.599	41.01
338.811	40.69
339.022	41.11
339.233	40.88
339.444	39.73
339.655	39.52
339.866	39.68
340.076	39.33
340.287	39.5
340.498	40.48
340.709	40.28
340.92	39.2
341.131	40.51
341.342	40.49
341.553	41.54
341.764	42.81
341.975	43.1
342.185	42.09
342.396	41.63
342.607	41.67
342.818	41.46
343.029	42.44
343.239	42.91
343.45	41.53
343.661	40.99
343.872	39.78
344.082	39.82
344.293	38.89
344.504	39.89
344.714	39.78
344.925	40.4
345.136	39.71
345.346	38.07
345.557	38.04
345.768	37.63
345.978	37.91
346.189	37.65
346.399	36.78
346.61	37.35
346.821	36.35
347.031	36.2
347.242	35.28
347.452	35.46
347.663	36.71
347.873	36.93
348.084	37.9
348.294	37.63
348.504	38.12
348.715	38.96
348.925	38.26
349.136	38.74
349.346	39.12
349.557	38.79
349.767	38.93
349.977	39.19
350.188	39.11
350.398	39.4
350.608	39.15
350.819	39.57
351.029	38.26
351.239	39.14
351.449	39.48
351.66	39.48
351.87	39.5
352.08	39.57
352.29	39.35
352.501	38.58
352.711	38.67
352.921	39.41
353.131	39.05
353.341	39.69
353.552	38.79
353.762	39.48
353.972	39.44
354.182	39.98
354.392	39.98
354.602	40.34
354.812	40.79
355.022	40.51
355.232	40.53
355.442	40.35
355.652	40.49
355.862	40.67
356.072	39.96
356.282	39.61
356.492	39.31
356.702	39.13
356.912	38.16
357.122	38.25
357.332	37.66
357.542	36.65
357.752	36.74
357.962	36.52
358.171	36.05
358.381	36.05
358.591	36.28
358.801	36.41
359.011	36.34
359.221	36.22
359.43	36.28
359.64	36.63
359.85	36.92
360.06	36.69
360.269	37.04
360.479	37.09
360.689	36.56
360.899	36.75
361.108	36.42
361.318	35.85
361.528	35.99
361.737	35.7
361.947	35.53
362.156	35.43
362.366	35.36
362.576	34.68
362.785	34.51
362.995	34.74
363.204	34.29
363.414	34.01
363.623	34.96
363.833	34.74
364.042	35.1
364.252	35.21
364.461	35.2
364.671	35.27
364.88	35.35
365.09	35.23
365.299	35.59
365.509	35.63
365.718	35.53
365.927	34.73
366.137	34.69
366.346	34.14
366.555	33.71
366.765	34.17
366.974	33.81
367.183	33.76
367.393	34.13
367.602	33.82
367.811	33.65
368.021	33.73
368.23	34.04
368.439	34.05
368.648	33.77
368.857	33.88
369.067	33.13
369.276	33.29
369.485	33.97
369.694	33.77
369.903	33.4
370.112	33.02
370.321	33.08
370.531	31.99
370.74	31.96
370.949	31.85
371.158	31.98
371.367	32.1
371.576	31.97
371.785	31.51
371.994	31.42
372.203	31.7
372.412	32.39
372.621	32.18
372.83	32.38
373.039	32.3
373.248	32.22
373.457	32.02
373.666	31.53
373.874	31.08
374.083	30.8
374.292	30.85
374.501	30.36
374.71	29.76
374.919	29.46
375.128	29.96
375.336	29.9
375.545	30.2
375.754	29.64
375.963	29.87
376.171	29.83
376.38	29.69
376.589	28.98
376.798	28.73
377.006	28.52
377.215	28.19
377.424	27.98
377.632	28.1
377.841	27.81
378.05	28.1
378.258	27.53
378.467	27.17
378.675	27.19
378.884	27.39
379.093	27.42
379.301	27.41
379.51	27.68
379.718	27.72
379.927	27.49
380.135	27.24
380.344	26.91
380.552	27.05
380.761	27.74
380.969	27.46
381.177	27.58
381.386	27.6
381.594	27.35
381.803	27.28
382.011	26.95
382.219	26.73
382.428	26.49
382.636	26.21
382.845	26.48
383.053	25.92
383.261	25.72
383.469	25.36
383.678	25.13
383.886	25.13
384.094	24.78
384.302	24.37
384.511	24.32
384.719	24.33
384.927	24.53
385.135	24.41
385.343	24.17
385.552	24.29
385.76	24.15
385.968	24.19
386.176	24.16
386.384	24.19
386.592	24.08
386.8	23.76
387.008	23.76
387.216	23.81
387.424	23.61
387.633	23.38
387.841	23.29
388.049	22.93
388.257	22.81
388.465	22.47
388.672	22.21
388.88	22.23
389.088	22.24
389.296	21.88
389.504	21.68
389.712	21.52
389.92	21.81
390.128	21.47
390.336	21.64
390.544	21.57
390.751	21.36
390.959	21.51
391.167	21.44
391.375	21.29
391.583	21.3
391.79	20.96
391.998	20.81
392.206	20.55
392.414	20.49
392.621	20.51
392.829	20.2
393.037	20.46
393.244	20.39
393.452	20.21
393.66	20.26
393.867	20.31
394.075	20.71
394.283	20.74
394.49	20.62
394.698	20.6
394.905	20.57
395.113	20.63
395.32	20.44
395.528	20.54
395.735	20.61
395.943	20.52
396.15	20.58
396.358	19.93
396.565	19.78
396.773	19.93
396.98	20.11
397.188	20.25
397.395	20.14
397.602	20.07
397.81	19.84
398.017	19.69
398.225	19.7
398.432	19.81
398.639	19.82
398.847	20
399.054	19.92
399.261	19.55
399.468	19.54
399.676	19.81
399.883	19.99
400.09	19.98
400.297	20.1
400.505	20.03
400.712	19.81
400.919	20.01
401.126	19.84
401.333	19.71
401.54	19.95
401.748	19.7
401.955	19.42
402.162	19.41
402.369	19.41
402.576	19.29
402.783	19.05
402.99	18.68
403.197	18.38
403.404	18.33
403.611	18.62
403.818	18.36
404.025	18.22
404.232	18.21
404.439	17.97
404.646	17.71
404.853	17.99
405.06	18.01
405.267	18.32
405.474	18.55
405.681	18.65
405.887	18.02
406.094	18.25
406.301	18.43
406.508	18.41
406.715	18.36
406.922	18.48
407.128	18.32
407.335	18.45
407.542	18.37
407.749	18.32
407.955	18.18
408.162	18.46
408.369	18.49
408.575	18.49
408.782	18.28
408.989	18.38
409.195	18.47
409.402	18.39
409.609	18.35
409.815	17.82
410.022	17.84
410.228	17.93
410.435	18.14
410.642	18
410.848	18.08
411.055	18.28
411.261	18.1
411.468	17.99
411.674	17.87
411.881	17.76
412.087	18.1
412.294	18.22
412.5	18
412.706	17.77
412.913	17.71
413.119	17.65
413.326	17.86
413.532	18.18
413.738	18.39
413.945	18.7
414.151	18.84
414.357	18.88
414.564	18.96
414.77	19.18
414.976	19.14
415.182	19.03
415.389	19.03
415.595	18.79
415.801	18.59
416.007	18.19
416.214	17.88
416.42	17.67
416.626	17.7
416.832	17.39
417.038	17.22
417.244	17.42
417.45	17.5
417.657	17.32
417.863	17.18
418.069	17.11
418.275	17.36
418.481	17.25
418.687	17.16
418.893	16.85
419.099	16.76
419.305	16.83
419.511	16.8
419.717	16.72
419.923	16.66
420.129	16.77
420.335	16.77
420.541	16.56
420.746	16.53
420.952	16.57
421.158	16.57
421.364	16.65
421.57	16.49
421.776	16.39
421.982	16.31
422.187	16.28
422.393	16.11
422.599	15.99
422.805	16.06
423.01	16.06
423.216	16.08
423.422	16.12
423.628	16.16
423.833	16.21
424.039	16.27
424.245	16.25
424.45	16.37
424.656	16.47
424.862	16.67
425.067	16.68
425.273	16.78
425.478	16.78
425.684	16.91
425.889	16.92
426.095	16.94
426.301	16.9
426.506	16.84
426.712	16.69
426.917	16.51
427.123	16.36
427.328	16.33
427.533	16.37
427.739	16.51
427.944	16.54
428.15	16.45
428.355	16.52
428.561	16.63
428.766	16.82
428.971	16.96
429.177	17.27
429.382	17.54
429.587	17.41
429.793	17.46
429.998	17.46
430.203	17.37
430.408	17.26
430.614	17.15
430.819	17.04
431.024	16.92
431.229	16.81
431.434	16.5
431.64	16.18
431.845	16.49
432.05	16.38
432.255	16.21
432.46	16.17
432.665	16.06
432.87	15.89
433.076	15.97
433.281	16.11
433.486	16.08
433.691	16.35
433.896	16.44
434.101	16.21
434.306	16.06
434.511	16.03
434.716	16.07
434.921	16.17
435.126	16.3
435.331	16.38
435.535	16.27
435.74	16.33
435.945	16.07
436.15	15.96
436.355	16.13
436.56	16.4
436.765	16.56
436.97	16.63
437.174	16.82
437.379	16.73
437.584	16.66
437.789	16.62
437.993	16.66
438.198	16.71
438.403	16.84
438.608	16.75
438.812	16.44
439.017	16.36
439.222	16.41
439.426	16.34
439.631	16.43
439.836	16.27
440.04	16.35
440.245	16.3
440.45	16.27
440.654	16.14
440.859	16.05
441.063	16.15
441.268	16.01
441.472	15.89
441.677	15.92
441.881	15.97
442.086	15.87
442.29	15.93
442.495	15.88
442.699	16.01
442.904	16.02
443.108	15.99
443.312	16.05
443.517	16.36
443.721	16.42
443.925	16.23
444.13	16.02
444.334	16.11
444.538	15.96
444.743	15.85
444.947	15.73
445.151	15.55
445.356	15.44
445.56	15.31
445.764	14.96
445.968	14.94
446.173	14.96
446.377	14.94
446.581	14.98
446.785	14.91
446.989	14.88
447.193	14.95
447.398	15.07
447.602	15.12
447.806	15.17
448.01	15.26
448.214	15.16
448.418	15.09
448.622	15.19
448.826	15.12
449.03	15.11
449.234	15.19
449.438	15.01
449.642	14.89
449.846	15.03
450.05	15.01
450.254	15.04
450.458	14.97
450.662	15.24
450.866	15.19
451.069	15.19
451.273	15.24
451.477	15.2
451.681	15.16
451.885	15.32
452.089	15.28
452.292	15.34
452.496	15.23
452.7	15.29
452.904	15.09
453.107	15.06
453.311	15.03
453.515	14.99
453.719	15.12
453.922	15.28
454.126	15.02
454.33	15.08
454.533	15.02
454.737	14.95
454.94	15.03
455.144	15.15
455.348	15.15
455.551	15.22
455.755	15.47
455.958	15.46
456.162	15.58
456.365	15.83
456.569	15.74
456.772	15.59
456.976	15.73
457.179	15.67
457.383	15.48
457.586	15.43
457.79	15.26
457.993	15.1
458.196	15.08
458.4	15.01
458.603	14.96
458.807	14.91
459.01	15.07
459.213	15.1
459.417	15.04
459.62	15.13
459.823	15.12
460.026	15.27
460.23	15.24
460.433	15.3
460.636	15.28
460.839	15.33
461.042	15.46
461.246	15.42
461.449	15.52
461.652	15.58
461.855	15.56
462.058	15.76
462.261	15.55
462.464	15.69
462.668	15.59
462.871	15.75
463.074	15.91
463.277	16.03
463.48	16.12
463.683	16.04
463.886	16.08
464.089	16.25
464.292	16.27
464.495	16.39
464.698	16.48
464.901	16.66
465.104	16.88
465.306	16.86
465.509	16.49
465.712	16.63
465.915	16.62
466.118	16.65
466.321	16.52
466.524	16.48
466.726	16.52
466.929	16.52
467.132	16.49
467.335	16.24
467.538	16.27
467.74	16.34
467.943	16.31
468.146	16.51
468.348	16.67
468.551	16.73
468.754	16.76
468.956	16.95
469.159	16.89
469.362	16.88
469.564	16.84
469.767	16.95
469.969	17.16
470.172	17.11
470.375	16.98
470.577	17.12
470.78	17.14
470.982	17.27
471.185	17.26
471.387	17.29
471.59	17.32
471.792	17.43
471.995	17.31
472.197	17.36
472.399	17.41
472.602	17.43
472.804	17.22
473.007	17.32
473.209	17.31
473.411	17.26
473.614	17.25
473.816	17.22
474.018	17.12
474.22	17.15
474.423	17.08
474.625	16.99
474.827	17.02
475.03	17.07
475.232	17.12
475.434	17.18
475.636	17.24
475.838	17.29
476.04	17.42
476.243	17.37
476.445	17.41
476.647	17.58
476.849	17.54
477.051	17.39
477.253	17.48
477.455	17.25
477.657	17.07
477.859	16.98
478.061	16.9
478.263	16.72
478.465	16.9
478.667	16.71
478.869	16.52
479.071	16.6
479.273	16.65
479.475	16.43
479.677	16.51
479.879	16.64
480.081	16.64
480.283	16.7
480.485	16.8
480.686	16.72
480.888	16.7
481.09	16.6
481.292	16.53
481.494	16.63
481.695	16.65
481.897	16.64
482.099	16.6
482.301	16.58
482.502	16.46
482.704	16.41
482.906	16.32
483.107	16.29
483.309	16.26
483.511	16.22
483.712	16.08
483.914	16.11
484.115	16.04
484.317	15.99
484.519	15.98
484.72	15.97
484.922	15.95
485.123	15.96
485.325	15.96
485.526	15.99
485.728	16.06
485.929	16.18
486.131	16.13
486.332	16.19
486.534	16.18
486.735	16.16
486.936	16.24
487.138	16.22
487.339	16.25
487.541	16.28
487.742	16.25
487.943	16.26
488.144	16.24
488.346	16.23
488.547	16.28
488.748	16.35
488.95	16.41
489.151	16.37
489.352	16.43
489.553	16.45
489.755	16.49
489.956	16.58
490.157	16.65
490.358	16.75
490.559	16.86
490.76	16.86
490.961	16.95
491.163	16.96
491.364	17.03
491.565	17.13
491.766	17.17
491.967	17.23
492.168	17.27
492.369	17.22
492.57	17.28
492.771	17.3
492.972	17.35
493.173	17.38
493.374	17.48
493.575	17.61
493.776	17.62
493.976	17.69
494.177	17.79
494.378	17.85
494.579	18.12
494.78	18.21
494.981	18.38
495.182	18.55
495.382	18.73
495.583	18.88
495.784	19
495.985	19.28
496.185	19.34
496.386	19.33
496.587	19.51
496.788	19.45
496.988	19.52
497.189	19.69
497.39	19.76
497.59	19.75
497.791	19.75
497.992	19.75
498.192	19.81
498.393	19.91
498.593	20.1
498.794	20.15
498.994	20.38
499.195	20.45
499.395	20.57
499.596	20.79
499.796	20.87
499.997	21.15
500.197	21.34
500.398	21.42
500.598	21.76
500.799	21.86
500.999	22.1
501.199	22.19
501.4	22.48
501.6	22.52
501.801	22.69
502.001	23.05
502.201	23.2
502.402	23.46
502.602	23.65
502.802	23.61
503.002	23.78
503.203	24
503.403	24.2
503.603	24.36
503.803	24.31
504.003	24.44
504.204	24.49
504.404	24.72
504.604	24.77
504.804	25.02
505.004	25.3
505.204	25.44
505.404	25.45
505.604	25.56
505.804	25.53
506.005	25.83
506.205	25.98
506.405	26.27
506.605	26.38
506.805	26.55
507.005	26.53
507.204	26.55
507.404	26.83
507.604	27.16
507.804	27.32
508.004	27.6
508.204	27.9
508.404	27.97
508.604	28.02
508.804	28.17
509.003	28.28
509.203	28.49
509.403	28.81
509.603	29.01
509.803	29.16
510.002	29.39
510.202	29.58
510.402	29.62
510.602	29.79
510.801	29.95
511.001	30.15
511.201	30.34
511.4	30.45
511.6	30.7
511.8	30.86
511.999	31.1
512.199	31.17
512.398	31.2
512.598	31.52
512.797	31.89
512.997	32.01
513.197	32.11
513.396	32.45
513.596	32.72
513.795	32.73
513.994	32.8
514.194	32.83
514.393	33.19
514.593	33.55
514.792	33.44
514.992	33.51
515.191	33.71
515.39	33.93
515.59	34.08
515.789	34.31
515.988	34.57
516.188	34.85
516.387	35.1
516.586	35.23
516.786	35.34
516.985	35.76
517.184	35.89
517.383	36.1
517.582	36.34
517.782	36.56
517.981	36.73
518.18	36.83
518.379	36.96
518.578	36.93
518.777	37.04
518.976	37.25
519.176	37.38
519.375	37.45
519.574	37.63
519.773	37.6
519.972	37.57
520.171	37.65
520.37	37.74
520.569	37.97
520.768	38.24
520.967	38.31
521.166	38.33
521.365	38.42
521.564	38.69
521.762	38.78
521.961	38.99
522.16	39.22
522.359	39.29
522.558	39.38
522.757	39.38
522.956	39.56
523.154	39.71
523.353	39.8
523.552	39.85
523.751	39.98
523.949	40.13
524.148	40.37
524.347	40.44
524.546	40.51
524.744	40.73
524.943	40.95
525.142	41.1
525.34	41.16
525.539	41.31
525.737	41.48
525.936	41.57
526.135	41.63
526.333	41.65
526.532	41.79
526.73	41.94
526.929	42.01
527.127	42.1
527.326	42.13
527.524	42.28
527.723	42.33
527.921	42.29
528.12	42.33
528.318	42.26
528.516	42.22
528.715	42.2
528.913	42.26
529.112	42.25
529.31	42.17
529.508	42.19
529.707	42.24
529.905	42.34
530.103	42.42
530.301	42.56
530.5	42.73
530.698	42.91
530.896	43.13
531.094	43.19
531.293	43.28
531.491	43.52
531.689	43.66
531.887	43.78
532.085	43.8
532.283	43.87
532.481	43.75
532.68	43.96
532.878	43.98
533.076	43.96
533.274	43.96
533.472	44.02
533.67	43.88
533.868	43.9
534.066	43.89
534.264	43.94
534.462	43.97
534.66	44.1
534.858	43.9
535.056	43.89
535.253	43.91
535.451	44.01
535.649	44.13
535.847	44.46
536.045	44.51
536.243	44.68
536.441	44.72
536.638	44.81
536.836	44.8
537.034	44.94
537.232	45.01
537.43	45.15
537.627	45.27
537.825	45.31
538.023	45.18
538.22	45.2
538.418	45.06
538.616	45.11
538.813	45.23
539.011	45.38
539.209	45.43
539.406	45.45
539.604	45.49
539.801	45.5
539.999	45.58
540.196	45.72
540.394	45.83
540.591	45.87
540.789	45.86
540.986	45.8
541.184	45.78
541.381	45.71
541.579	45.69
541.776	45.64
541.974	45.56
542.171	45.54
542.368	45.46
542.566	45.4
542.763	45.37
542.96	45.41
543.158	45.42
543.355	45.39
543.552	45.58
543.75	45.67
543.947	45.68
544.144	45.85
544.341	45.91
544.539	46.05
544.736	46.18
544.933	46.3
545.13	46.33
545.327	46.34
545.524	46.33
545.722	46.17
545.919	46.17
546.116	46.22
546.313	46.2
546.51	46.24
546.707	46.2
546.904	46.21
547.101	46.22
547.298	46.29
547.495	46.32
547.692	46.16
547.889	46.36
548.086	46.38
548.283	46.42
548.48	46.36
548.677	46.17
548.874	46.27
549.07	46.23
549.267	46.18
549.464	46.06
549.661	46.04
549.858	46.41
550.055	46.37
550.251	46.36
550.448	46.15
550.645	46.26
550.842	46.33
551.038	46.2
551.235	46.41
551.432	46.37
551.628	46.29
551.825	46.52
552.022	46.34
552.218	46.36
552.415	46.44
552.612	46.56
552.808	46.52
553.005	46.51
553.201	46.62
553.398	46.3
553.594	46.33
553.791	46.4
553.987	46.34
554.184	46.32
554.38	46.38
554.577	46.49
554.773	46.54
554.97	46.47
555.166	46.65
555.362	46.79
555.559	46.78
555.755	46.83
555.952	47.01
556.148	47.15
556.344	47.26
556.541	47.21
556.737	47.14
556.933	47.23
557.129	47.65
557.326	47.41
557.522	47.29
557.718	47.61
557.914	47.63
558.11	47.59
558.307	47.35
558.503	47.65
558.699	47.66
558.895	47.78
559.091	47.58
559.287	47.53
559.483	47.9
559.679	48
559.876	48.03
560.072	48.09
560.268	48.01
560.464	48.29
560.66	48.18
560.856	48.23
561.052	48.15
561.247	48.44
561.443	48.4
561.639	48.32
561.835	48.3
562.031	48.06
562.227	48.04
562.423	48.2
562.619	48.17
562.815	48.25
563.01	48.17
563.206	48.3
563.402	48.11
563.598	47.92
563.793	47.84
563.989	47.72
564.185	47.88
564.381	47.86
564.576	47.84
564.772	47.93
564.968	47.81
565.163	47.72
565.359	47.65
565.555	47.57
565.75	47.66
565.946	47.84
566.141	47.91
566.337	48.07
566.532	48.13
566.728	47.96
566.923	47.84
567.119	47.82
567.314	47.88
567.51	47.86
567.705	48.07
567.901	47.94
568.096	47.77
568.292	47.77
568.487	47.59
568.682	47.66
568.878	47.82
569.073	47.84
569.268	47.79
569.464	47.79
569.659	47.95
569.854	47.89
570.05	48.07
570.245	48.2
570.44	48.29
570.635	48.37
570.831	48.46
571.026	48.4
571.221	48.36
571.416	48.53
571.611	48.54
571.806	48.52
572.002	48.65
572.197	48.67
572.392	48.53
572.587	48.51
572.782	48.5
572.977	48.44
573.172	48.46
573.367	48.44
573.562	48.44
573.757	48.49
573.952	48.37
574.147	48.29
574.342	48.31
574.537	48.4
574.732	48.32
574.927	48.63
575.121	48.43
575.316	48.54
575.511	48.6
575.706	48.54
575.901	48.58
576.096	48.7
576.29	48.67
576.485	48.73
576.68	48.79
576.875	48.68
577.069	48.33
577.264	48.5
577.459	48.48
577.654	48.39
577.848	48.46
578.043	48.65
578.238	48.76
578.432	48.77
578.627	48.69
578.821	48.76
579.016	49.01
579.21	49.11
579.405	49.12
579.6	49.16
579.794	49.38
579.989	49.31
580.183	49.35
580.378	49.29
580.572	49.47
580.766	49.49
580.961	49.53
581.155	49.57
581.35	49.75
581.544	49.79
581.738	49.71
581.933	49.62
582.127	49.53
582.321	49.39
582.516	49.44
582.71	49.08
582.904	49.11
583.099	49.18
583.293	49.07
583.487	49.04
583.681	49.19
583.875	49.55
584.07	49.67
584.264	49.89
584.458	49.92
584.652	49.75
584.846	50.05
585.04	50.06
585.234	50.03
585.428	49.99
585.623	49.9
585.817	49.69
586.011	49.5
586.205	49.48
586.399	49.72
586.593	49.58
586.787	49.91
586.981	49.79
587.174	49.79
587.368	49.75
587.562	49.87
587.756	49.96
587.95	50.1
588.144	50.17
588.338	50.19
588.532	49.87
588.725	49.96
588.919	49.96
589.113	50.13
589.307	50.08
589.501	50.12
589.694	50.16
589.888	50.13
590.082	50.35
590.275	50.21
590.469	50.14
590.663	50.4
590.856	50.37
591.05	50.13
591.244	50.42
591.437	50.8
591.631	50.69
591.824	50.79
592.018	50.97
592.212	50.83
592.405	50.93
592.599	51.08
592.792	50.94
592.986	51.1
593.179	51.14
593.372	50.66
593.566	50.47
593.759	50.46
593.953	50.5
594.146	50.34
594.339	50.16
594.533	50.38
594.726	50.42
594.92	50.32
595.113	50.45
595.306	50.5
595.499	50.66
595.693	50.52
595.886	50.49
596.079	50.39
596.272	50.39
596.466	50.36
596.659	50.23
596.852	50.08
597.045	50.23
597.238	49.98
597.431	50.28
597.624	50.36
597.818	50.44
598.011	50.56
598.204	50.62
598.397	50.73
598.59	50.78
598.783	50.75
598.976	50.94
599.169	50.72
599.362	50.8
599.555	50.64
599.748	50.41
599.941	50.57
600.134	50.54
600.326	50.51
600.519	50.53
600.712	50.63
600.905	50.79
601.098	50.79
601.291	51.19
601.483	51.27
601.676	50.95
601.869	51.21
602.062	51.06
602.255	51.04
602.447	50.95
602.64	50.78
602.833	50.54
603.025	50.59
603.218	50.57
603.411	50.55
603.603	50.43
603.796	50.5
603.989	50.32
604.181	50.37
604.374	50.36
604.566	50.34
604.759	50.28
604.951	50.4
605.144	50.12
605.336	50.19
605.529	50.01
605.721	50.08
605.914	50.05
606.106	50.02
606.299	50.01
606.491	50.02
606.683	50.33
606.876	50.38
607.068	50.36
607.26	50.41
607.453	50.27
607.645	50.44
607.837	50.65
608.03	50.56
608.222	50.62
608.414	50.59
608.606	50.64
608.799	50.46
608.991	50.51
609.183	50.63
609.375	50.68
609.567	50.7
609.759	50.76
609.952	50.61
610.144	50.59
610.336	50.58
610.528	50.6
610.72	50.43
610.912	50.48
611.104	50.5
611.296	50.55
611.488	50.67
611.68	50.78
611.872	50.64
612.064	50.68
612.256	50.8
612.448	50.82
612.64	50.93
612.832	51.27
613.023	51.11
613.215	51.07
613.407	50.98
613.599	50.77
613.791	50.8
613.983	50.53
614.174	50.5
614.366	50.53
614.558	50.4
614.75	50.21
614.941	50.09
615.133	50.12
615.325	50.36
615.516	50.15
615.708	50.35
615.9	49.9
616.091	50.58
616.283	50.66
616.475	50.89
616.666	50.99
616.858	50.93
617.049	50.8
617.241	50.88
617.432	50.91
617.624	51.4
617.815	51.21
618.007	51.5
618.198	51.5
618.39	51.29
618.581	51.45
618.773	51.42
618.964	51.5
619.155	51.59
619.347	51.46
619.538	51.36
619.729	50.95
619.921	51
620.112	51.24
620.303	50.82
620.494	50.99
620.686	50.78
620.877	51.18
621.068	51.26
621.259	51.21
621.451	51.53
621.642	51.58
621.833	51.74
622.024	52.14
622.215	51.74
622.406	51.72
622.597	51.74
622.788	51.62
622.98	51.58
623.171	51.43
623.362	51.66
623.553	51.35
623.744	51.12
623.935	50.91
624.126	50.78
624.317	50.87
624.508	51.03
624.698	51.01
624.889	50.75
625.08	50.78
625.271	51.14
625.462	50.96
625.653	51.04
625.844	51.12
626.034	50.97
626.225	51.06
626.416	51.24
626.607	51.27
626.798	51.24
626.988	51.71
627.179	51.53
627.37	51.37
627.56	51.39
627.751	51.5
627.942	51.59
628.132	51.67
628.323	51.33
628.514	51.48
628.704	51.41
628.895	51.41
629.085	51.12
629.276	50.95
629.466	50.87
629.657	51
629.847	50.74
630.038	50.6
630.228	50.84
630.419	51.01
630.609	50.88
630.8	50.81
630.99	50.86
631.181	50.62
631.371	50.69
631.561	50.73
631.752	50.49
631.942	50.48
632.132	50.84
632.323	50.91
632.513	50.85
632.703	50.71
632.893	50.78
633.084	50.55
633.274	50.58
633.464	50.6
633.654	50.74
633.844	50.7
634.034	50.66
634.225	50.21
634.415	50.17
634.605	50.33
634.795	49.93
634.985	49.83
635.175	49.97
635.365	50.09
635.555	50.18
635.745	49.94
635.935	50
636.125	49.89
636.315	50.07
636.505	49.91
636.695	49.66
636.885	49.64
637.075	49.19
637.265	49.11
637.455	49.11
637.644	49.19
637.834	49.11
638.024	49.39
638.214	49.84
638.404	49.43
638.593	49.33
638.783	49.47
638.973	50.05
639.163	50.5
639.352	50.42
639.542	50.57
639.732	50.26
639.921	50.53
640.111	50.5
640.301	50.14
640.49	50.82
640.68	50.92
640.87	50.64
641.059	50.46
641.249	50.98
641.438	50.69
641.628	50.45
641.817	50.6
642.007	50.31
642.196	50.08
642.386	50.3
642.575	49.77
642.764	49.96
642.954	49.99
643.143	50.05
643.333	49.63
643.522	49.99
643.711	50.1
643.901	50.47
644.09	50.82
644.279	50.94
644.469	50.94
644.658	50.98
644.847	51.04
645.036	51.01
645.226	50.9
645.415	50.68
645.604	50.76
645.793	50.76
645.982	50.31
646.171	50.02
646.361	49.61
646.55	49.8
646.739	49.75
646.928	49.27
647.117	49.58
647.306	49.84
647.495	49.94
647.684	49.99
647.873	50.02
648.062	50.35
648.251	50.08
648.44	50.14
648.629	49.7
648.818	49.56
649.007	49.87
649.196	49.87
649.384	49.21
649.573	49.28
649.762	49.02
649.951	49.11
650.14	48.55
650.328	49.13
650.517	49.24
650.706	49.28
650.895	49.67
651.083	49.74
651.272	49.51
651.461	50.08
651.65	50.29
651.838	50.4
652.027	50.19
652.216	50.04
652.404	49.45
652.593	49.67
652.781	49.58
652.97	49.48
653.158	49.17
653.347	48.87
653.535	48.52
653.724	48.36
653.912	48.8
654.101	48.67
654.289	49.15
654.478	49.53
654.666	49.17
654.855	49.32
655.043	49.52
655.231	49.56
655.42	50.13
655.608	50.15
655.796	50
655.985	49.57
656.173	49.87
656.361	49.75
656.55	49.98
656.738	50.22
656.926	50.34
657.114	50.19
657.302	49.93
657.491	49.97
657.679	49.83
657.867	50.17
658.055	50.25
658.243	49.94
658.431	49.97
658.619	49.48
658.807	49.41
658.996	49.34
659.184	49.04
659.372	49.07
659.56	48.71
659.748	49.01
659.936	48.62
660.124	48.3
660.311	48.27
660.499	48.13
660.687	48.19
660.875	48.23
661.063	47.78
661.251	48.02
661.439	48.33
661.627	48.49
661.814	48.18
662.002	48.21
662.19	48.15
662.378	48.29
662.565	48.34
662.753	48.25
662.941	48.26
663.129	48.45
663.316	48.1
663.504	47.83
663.692	47.72
663.879	48.02
664.067	47.83
664.254	47.91
664.442	48.12
664.63	47.93
664.817	47.65
665.005	47.3
665.192	47.4
665.38	47.98
665.567	47.96
665.755	48.15
665.942	48.03
666.13	48.11
666.317	48.45
666.504	48.33
666.692	48.66
666.879	49.24
667.067	49.39
667.254	49.29
667.441	49
667.629	48.87
667.816	48.49
668.003	48.19
668.19	48.15
668.378	47.76
668.565	47.65
668.752	47.43
668.939	47.26
669.127	47.12
669.314	47.39
669.501	47.31
669.688	47.58
669.875	47.33
670.062	47.31
670.249	47.32
670.436	47.49
670.623	47.39
670.81	47.11
670.997	46.48
671.184	46.4
671.371	46.33
671.558	45.99
671.745	46.06
671.932	46.47
672.119	46.24
672.306	46.54
672.493	46.57
672.68	46.77
672.867	46.85
673.054	47.16
673.24	47.23
673.427	47.03
673.614	47.21
673.801	47.05
673.988	46.98
674.174	47.04
674.361	46.77
674.548	46.65
674.734	46.42
674.921	46.68
675.108	46.83
675.294	46.84
675.481	46.88
675.668	47.26
675.854	47.25
676.041	46.97
676.227	46.85
676.414	46.63
676.601	46.53
676.787	46.79
676.974	46.51
677.16	46.26
677.347	46.47
677.533	46.29
677.719	45.77
677.906	45.4
678.092	45.17
678.279	45.5
678.465	45.76
678.651	45.68
678.838	45.4
679.024	45.43
679.21	45.34
679.397	44.96
679.583	44.95
679.769	44.92
679.955	45.02
680.142	45.11
680.328	45.2
680.514	45.1
680.7	44.62
680.886	44.67
681.073	44.72
681.259	44.65
681.445	44.76
681.631	44.81
681.817	44.62
682.003	44.59
682.189	44.57
682.375	44.41
682.561	44.2
682.747	44.67
682.933	44.39
683.119	44.09
683.305	44.43
683.491	44.38
683.677	44.1
683.863	44.46
684.049	44.7
684.235	44.94
684.42	44.78
684.606	44.44
684.792	44.86
684.978	45.25
685.164	45.37
685.349	44.95
685.535	44.93
685.721	45.05
685.907	44.73
686.092	44.19
686.278	44.02
686.464	44.11
686.649	44.39
686.835	44.11
687.021	44.24
687.206	44.4
687.392	44.5
687.577	44.24
687.763	44.42
687.948	44.47
688.134	44.88
688.319	45.01
688.505	44.96
688.69	45.32
688.876	45.02
689.061	44.66
689.247	45
689.432	44.85
689.618	44.54
689.803	44.2
689.988	44.5
690.174	44.11
690.359	43.54
690.544	43.33
690.73	42.74
690.915	42.61
691.1	42.72
691.285	42.4
691.471	42.71
691.656	42.92
691.841	43
692.026	42.77
692.211	42.71
692.396	43.15
692.582	42.92
692.767	43.14
692.952	43.08
693.137	42.64
693.322	42.23
693.507	42.49
693.692	42.41
693.877	42.73
694.062	42.74
694.247	43.35
694.432	43.25
694.617	43.53
694.802	43.82
694.987	43.89
695.172	44.06
695.357	43.96
695.541	43.8
695.726	44.09
695.911	43.88
696.096	43.71
696.281	43
696.466	42.83
696.65	42.45
696.835	42.26
697.02	42.19
697.204	42.19
697.389	42.58
697.574	42.03
697.759	41.83
697.943	41.58
698.128	41.35
698.312	41.57
698.497	41.58
698.682	41.8
698.866	41.57
699.051	41.75
699.235	41.3
699.42	41.05
699.604	41.16
699.789	40.95
699.973	40.93
700.158	40.85
700.342	40.69
700.527	40.87
700.711	41.05
700.895	41.36
701.08	41.08
701.264	41.48
701.448	41.43
701.633	41.26
701.817	41.55
702.001	41.83
702.186	42.41
702.37	42.4
702.554	41.64
702.738	41.76
702.923	41.55
703.107	41.46
703.291	42.19
703.475	42.21
703.659	41.96
703.843	42.43
704.027	42.81
704.212	42.48
704.396	42.93
704.58	43.71
704.764	42.95
704.948	43.37
705.132	42.87
705.316	42.42
705.5	43.38
705.684	44.21
705.868	43.79
706.052	42.97
706.235	43.16
706.419	42.82
706.603	42.66
706.787	42.82
706.971	42.46
707.155	42.94
707.339	42.21
707.522	41.22
707.706	41.01
707.89	41.4
708.074	41.63
708.257	41.18
708.441	41.56
708.625	41.83
708.808	41.58
708.992	41.56
709.176	41.67
709.359	41.71
709.543	41.66
709.727	41.98
709.91	41.96
710.094	42.03
710.277	42.26
710.461	41.75
710.644	41.84
710.828	41.67
711.011	41.63
711.195	41.54
711.378	41.69
711.562	41.58
711.745	41.38
711.928	40.56
712.112	40.61
712.295	39.86
712.478	39.92
712.662	39.38
712.845	39.66
713.028	39.23
713.212	39.31
713.395	39.16
713.578	39.42
713.761	39.37
713.945	40.02
714.128	39.91
714.311	40.88
714.494	41.15
714.677	41.28
714.86	41.45
715.043	41.58
715.227	41.75
715.41	41.99
715.593	42.12
715.776	42.08
715.959	41.9
716.142	41.89
716.325	41.45
716.508	40.81
716.691	40.76
716.874	40.63
717.057	41.19
717.239	41.32
717.422	41.17
717.605	41.22
717.788	40.91
717.971	41.07
718.154	40.96
718.337	41.52
718.519	41.78
718.702	42.04
718.885	42.48
719.068	41.6
719.25	41.31
719.433	41.75
719.616	41.2
719.798	41.54
719.981	41.85
720.164	41.9
720.346	41.1
720.529	41.55
720.712	41.04
720.894	40.31
721.077	40.91
721.259	41
721.442	40.79
721.624	41.26
721.807	41.25
721.989	40.82
722.172	41.33
722.354	42.05
722.537	42.11
722.719	42.33
722.901	42.09
723.084	41.69
723.266	41.4
723.448	41.72
723.631	41.83
723.813	42.12
723.995	42.04
724.178	42.2
724.36	41.33
724.542	40.52
724.724	40.54
724.907	41.45
725.089	41.76
725.271	42.07
725.453	41.44
725.635	41.75
725.817	41.4
725.999	40.92
726.181	40.5
726.364	39.96
726.546	40.66
726.728	40.2
726.91	40
727.092	38.97
727.274	38.93
727.456	39.44
727.638	39.13
727.819	39.05
728.001	38.56
728.183	38.4
728.365	39.61
728.547	39.6
728.729	40.23
728.911	40.61
729.093	40.71
729.274	40.26
729.456	39.63
729.638	38.87
729.82	39.01
730.001	39.12
730.183	39.21
730.365	39.29
730.546	39.14
730.728	38.57
730.91	36.92
731.091	37.98
731.273	38.21
731.455	38.04
731.636	38.89
731.818	39.05
731.999	39.73
732.181	39.52
732.362	38.47
732.544	38.58
732.725	38.75
732.907	39.9
733.088	39.51
733.27	39.33
733.451	39.03
733.633	38.92
733.814	37.81
733.995	37.39
734.177	37.46
734.358	37.69
734.539	37.14
734.721	37.17
734.902	36.52
735.083	36.4
735.264	36.79
735.446	37.27
735.627	37.15
735.808	38.19
735.989	38.27
736.17	37.92
736.351	39
736.533	39.3
736.714	39.55
736.895	40.75
737.076	40.72
737.257	40.3
737.438	40.24
737.619	39.38
737.8	39.2
737.981	40.44
738.162	40.45
738.343	40.03
738.524	39.28
738.705	39.51
738.886	38.74
739.067	38.76
739.247	38.2
739.428	37.93
739.609	39.03
739.79	38.78
739.971	37.88
740.151	38.44
740.332	38.86
740.513	40.11
740.694	39.2
740.874	39.68
741.055	40.59
741.236	41.76
741.417	41.88
741.597	41.09
741.778	41.68
741.958	41.25
742.139	40.93
742.32	40
742.5	40.14
742.681	39.81
742.861	38.27
743.042	37.42
743.222	36.83
743.403	37.23
743.583	37.58
743.764	37.86
743.944	38.06
744.124	38.34
744.305	39.57
744.485	39.34
744.666	40.86
744.846	42.28
745.026	43.09
745.207	42.46
745.387	43.9
745.567	43.02
745.747	42.34
745.928	42.36
746.108	42.58
746.288	40.65
746.468	40.35
746.648	39.74
746.829	38.72
747.009	37.84
747.189	38.04
747.369	37.24
747.549	37.82
747.729	37.47
747.909	37.02
748.089	36.83
748.269	37.25
748.449	37.83
748.629	38.13
748.809	38.59
748.989	39.55
749.169	39.95
749.349	39.27
749.529	39.14
749.709	39.01
749.889	39.75
750.068	39.57
750.248	40.38
750.428	40.23
750.608	38.87
750.788	40.46
750.967	40.3
751.147	40.72
751.327	40.84
751.507	41.01
751.686	41.16
751.866	40.52
752.046	39.79
752.225	39
752.405	38.44
752.585	40.06
752.764	38.59
752.944	38.42
753.123	38.18
753.303	37.81
753.482	37.77
753.662	37.83
753.841	38.43
754.021	39.29
754.2	40.43
754.38	41.16
754.559	41.14
754.739	41.09
754.918	39.91
755.097	38.78
755.277	39.77
755.456	39.89
755.635	39.25
755.815	39.94
755.994	39.21
756.173	39.29
756.352	39.7
756.532	38.75
756.711	38.61
756.89	39.22
757.069	40.34
757.248	39.52
757.427	39.23
757.607	40.41
757.786	39.64
757.965	39.44
758.144	38.59
758.323	37.05
758.502	37.87
758.681	37.21
758.86	37.19
759.039	37.11
759.218	37.75
759.397	37.2
759.576	35.87
759.755	36.16
759.934	37.31
760.113	38.36
760.291	38.59
760.47	38.1
760.649	38.81
760.828	38.61
761.007	38.81
761.186	38.87
761.364	39.89
761.543	40.9
761.722	39.66
761.901	38.88
762.079	37.7
762.258	37.41
762.437	37.34
762.615	37.41
762.794	37.62
762.972	36.81
763.151	36.2
763.33	35.72
763.508	34.93
763.687	35.26
763.865	35.58
764.044	34.82
764.222	35.12
764.401	35.61
764.579	35.44
764.758	35.1
764.936	36.27
765.114	35.94
765.293	35.98
765.471	36.46
765.65	36.52
765.828	36.2
766.006	37.59
766.184	37.5
766.363	37.19
766.541	37
766.719	37.15
766.898	36.38
767.076	36.88
767.254	37.81
767.432	37.35
767.61	38.13
767.788	38.52
767.967	37.8
768.145	37.8
768.323	37.3
768.501	38.03
768.679	37.82
768.857	37.72
769.035	38.68
769.213	37.88
769.391	38.55
769.569	38.94
769.747	39.83
769.925	41.11
770.103	41.5
770.281	40.74
770.459	40.84
770.636	41.32
770.814	40.03
770.992	40.04
771.17	39.77
771.348	40.62
771.525	39.61
771.703	39
771.881	37.88
772.059	38.27
772.236	39.42
772.414	39.33
772.592	39.66
772.769	42.43
772.947	41.84
773.125	41.87
773.302	42.2
773.48	42.86
773.657	43.63
773.835	43.5
774.013	42.28
774.19	42.26
774.368	42.48
774.545	41.99
774.723	40.19
774.9	40.82
775.077	41.91
775.255	40.63
775.432	41.44
775.61	40.05
775.787	41.32
775.964	42.81
776.142	42.79
776.319	42.33
776.496	41.91
776.674	43.07
776.851	43.17
777.028	43.78
777.205	43.94
777.382	42.18
777.56	41.83
777.737	43.46
777.914	42.62
778.091	44.1
778.268	43.63
778.445	45.71
778.622	45.06
778.8	44.49
778.977	42.24
779.154	48.37
779.331	48.1
779.508	47.94
779.685	46
779.862	46.04
780.038	44.14
780.215	45.42
780.392	45.61
780.569	45.6
780.746	45.32
780.923	47.01
781.1	39.81
781.277	40.58
781.453	41.57
781.63	41.82
781.807	42.46
781.984	42.33
782.16	42.62
782.337	41.1
782.514	41.6
782.691	44.6
782.867	45.87
783.044	46.94
783.221	48.41
783.397	48.94
783.574	45.69
783.75	46.04
783.927	48.37
784.103	47.03
784.28	46.87
784.456	47.37
784.633	45.55
784.809	42.32
784.986	42.51
785.162	41.31
785.339	40.74
785.515	45.3
785.692	44.44
785.868	42.49
786.044	43.29
786.221	44
786.397	43.86
786.573	44.45
786.749	44.73
786.926	43.98
787.102	45
787.278	45.25
787.454	43.14
787.631	43.63
787.807	43.5
787.983	44.25
788.159	44.01
788.335	43.73
788.511	43.61
788.687	44.71
788.863	43.75
789.039	43.8
789.216	43.01
789.392	42.85
789.568	43.92
789.744	44.14
789.919	44.51
790.095	44.19
790.271	43.19
790.447	41.16
790.623	40.34
790.799	40.55
790.975	40.38
791.151	42.85
791.327	42.74
791.502	41.09
791.678	41.57
791.854	41.63
792.03	40.18
792.205	40.36
792.381	40.9
792.557	41.87
792.733	42.53
792.908	41.87
793.084	39.96
793.259	41.05
793.435	41.97
793.611	42.85
793.786	42.38
793.962	44.74
794.137	43.48
794.313	44.28
794.488	43.42
794.664	44.81
794.839	45.74
795.015	46.83
795.19	47.5
795.366	47.69
795.541	45.19
795.716	44.28
795.892	45.49
796.067	47.27
796.242	46.62
796.418	48.33
796.593	47.99
796.768	47.28
796.944	46.96
797.119	46.46
797.294	46.13
797.469	49.5
797.644	49.28
797.82	47.81
797.995	48.27
798.17	48.04
798.345	45.74
798.52	46.47
798.695	46.34
798.87	43.95
799.045	43.32
799.22	42.38
799.395	40.33
799.57	41.33
799.745	41.54
799.92	42.62
800.095	43.16
800.27	45.83
800.445	43.7
800.62	43.34
800.795	45.15
800.97	46.05
801.145	46.93
801.319	48.22
801.494	46.68
801.669	46.4
801.844	46.47
802.018	45.95
802.193	42.89
802.368	43.02
802.543	44.67
802.717	44.85
802.892	42.94
803.067	43.34
803.241	41.67
803.416	42.27
803.59	42.66
803.765	41.58
803.94	42.45
804.114	43.75
804.289	47.5
804.463	47.84
804.638	46.61
804.812	48.46
804.986	47.67
805.161	48.26
805.335	48.07
805.51	47.46
805.684	47.05
805.858	46.49
806.033	46.01
806.207	42.53
806.381	39.92
806.556	39.13
806.73	38.1
806.904	40.79
807.078	41.83
807.253	42.46
807.427	43.47
807.601	42.54
807.775	43.29
807.949	45.72
808.123	46.57
808.298	47.49
808.472	49.86
808.646	51.58
808.82	52.28
808.994	50
809.168	51.68
809.342	51.38
809.516	52.09
809.69	49.39
809.864	50.34
810.038	52
810.212	51.79
810.385	50.72
810.559	51.18
810.733	49.31
810.907	50.44
811.081	48.07
811.255	48.89
811.428	50.58
811.602	54.48
811.776	54.46
811.95	54.48
812.123	55.86
812.297	56.25
812.471	53.51
812.644	53.42
812.818	52.71
812.992	53.61
813.165	51.05
813.339	48.39
813.512	48.51
813.686	47.46
813.86	46.46
814.033	48.23
814.207	49.2
814.38	52.95
814.554	49.93
814.727	52.22
814.9	50.06
815.074	53.39
815.247	56.47
815.421	53.9
815.594	51.52
815.767	51.97
815.941	50.18
816.114	48.72
816.287	49.58
816.46	51.28
816.634	48.75
816.807	50.7
816.98	49.96
817.153	50.57
817.327	51.43
817.5	51.68
817.673	49.37
817.846	47.88
818.019	48.07
818.192	42.74
818.365	41.33
818.538	41.9
818.711	40.74
818.884	41.84
819.057	40.04
819.23	39.99
819.403	39.92
819.576	41.18
819.749	44.18
819.922	43.77
820.095	43.82
820.268	45.48
820.441	45.76
820.614	44.32
820.786	42.29
820.959	40.24
821.132	38.97
821.305	37.47
821.477	36.37
821.65	34.78
821.823	34.59
821.996	34.25
822.168	33.52
822.341	32.09
822.514	32.42
822.686	31.87
822.859	31.62
823.031	31.78
823.204	32
823.376	31.9
823.549	31.31
823.722	31.47
823.894	31.89
824.067	31.79
824.239	31.53
824.411	31.62
824.584	31.36
824.756	31.4
824.929	31.08
825.101	31.52
825.273	31.74
825.446	32.62
825.618	31.73
825.79	31.59
825.963	32.55
826.135	33.96
826.307	33.77
826.479	35.1
826.652	35.75
826.824	36.11
826.996	35.68
827.168	36.1
827.34	35.51
827.512	36.25
827.684	36.06
827.856	35.47
828.029	36.01
828.201	35.73
828.373	35.35
828.545	34.98
828.717	35.31
828.889	35.42
829.061	35.75
829.232	36.02
829.404	36.19
829.576	36.9
829.748	36.28
829.92	36.79
830.092	37.78
830.264	37.96
830.436	39.34
830.607	38.98
830.779	40.13
830.951	40.78
831.123	41.57
831.294	42.75
831.466	43.07
831.638	45.04
831.809	43.12
831.981	45.01
832.153	44.75
832.324	44.17
832.496	44.6
832.667	47.49
832.839	46.51
833.011	47.2
833.182	47.7
833.354	47.01
833.525	46.82
833.697	47.25
833.868	45.19
834.039	43.73
834.211	40.77
834.382	40.09
834.554	37.31
834.725	35.77
834.896	34.9
835.068	34.83
835.239	35.14
835.41	34.55
835.581	35.39
835.753	34.94
835.924	36.08
836.095	40.05
836.266	39.67
836.438	40.64
836.609	42.79
836.78	44.14
836.951	42.42
837.122	42.38
837.293	43.33
837.464	44.63
837.635	46.47
837.806	49.17
837.977	50.4
838.148	54.25
838.319	53.44
838.49	55.54
838.661	56.37
838.832	60.26
839.003	61.31
839.174	62.73
839.345	63.23
839.516	62.37
839.687	61.56
839.857	54.81
840.028	55.76
840.199	57.44
840.37	53.96
840.54	55.52
840.711	56.49
840.882	59.02
841.053	55.91
841.223	52.85
841.394	56.17
841.564	56.19
841.735	61.6
841.906	58.53
842.076	59.23
842.247	61.58
842.417	58.5
842.588	58.71
842.758	57.6
842.929	61.48
843.099	67.18
843.27	69.06
843.44	72.76
843.611	73.43
843.781	77.57
843.951	80.73
844.122	83.75
844.292	92.64
844.462	91.05
844.633	90.52
844.803	90.21
844.973	89.09
845.144	84.16
845.314	87.16
845.484	94.37
845.654	91.54
845.824	95.73
845.995	95.94
846.165	91.72
846.335	94.01
846.505	91.63
846.675	90.55
846.845	86.69
847.015	87.63
847.185	85.56
847.355	79.91
847.525	81.04
847.695	73.64
847.865	73
848.035	71.57
848.205	74.26
848.375	79.8
848.545	79.48
848.715	83.27
848.884	83.82
849.054	78.23
849.224	77.93
849.394	84
849.564	87.18
849.733	85.03
849.903	94.97
850.073	95.83
850.243	89.76
850.412	94.81
850.582	99.94
850.752	98.73
850.921	104.55
851.091	100.68
851.26	93.44
851.43	85.19
851.599	82.72
851.769	75.61
851.939	70.01
852.108	75.28
852.278	77.08
852.447	72.4
852.616	78.89
852.786	77.66
852.955	76.42
853.125	78.31
853.294	80.07
853.463	86.37
853.633	99.58
853.802	101.42
853.971	100.08
854.141	102.32
854.31	112.36
854.479	103.25
854.648	98.7
854.818	104.16
854.987	104.41
855.156	108.69
855.325	98.47
855.494	86.92
855.663	94.06
855.832	86.02
856.001	83.1
856.171	78.98
856.34	82.89
856.509	86.75
856.678	86.62
856.847	81.09
857.016	76.71
857.185	82.57
857.353	85.35
857.522	82.21
857.691	85.84
857.86	84.76
858.029	83.31
858.198	81.4
858.367	78.85
858.535	82.96
858.704	88.44
858.873	95.15
859.042	89.03
859.21	87.92
859.379	88.18
859.548	95.51
859.717	96.02
859.885	99.08
860.054	105.75
860.222	102.46
860.391	104.25
860.56	111.11
860.728	106.99
860.897	117.64
861.065	121.29
861.234	123.63
861.402	120.14
861.571	118.27
861.739	120.23
861.908	120.12
862.076	127.29
862.244	116.16
862.413	109.23
862.581	100.74
862.749	98.36
862.918	90.09
863.086	93.15
863.254	87.29
863.423	94.64
863.591	96.95
863.759	99.3
863.927	99.49
864.096	103.43
864.264	102.19
864.432	106.53
864.6	100.42
864.768	108.86
864.936	105.47
865.104	100.74
865.272	95.29
865.44	95.05
865.608	90.06
865.776	82.24
865.944	81.12
866.112	81.24
866.28	80.43
866.448	85.69
866.616	87.85
866.784	97.12
866.952	100.07
867.12	99.77
867.288	101.68
867.455	106.14
867.623	118.15
867.791	120.68
867.959	128.22
868.127	131.11
868.294	124.8
868.462	112.94
868.63	103.48
868.797	106.33
868.965	107.83
869.133	101.29
869.3	100.25
869.468	95.44
869.636	92.43
869.803	92.08
869.971	93.4
870.138	97.99
870.306	97.94
870.473	100.28
870.641	91.79
870.808	97.95
870.975	103.5
871.143	100.16
871.31	100.42
871.478	103.42
871.645	108.46
871.812	111.27
871.98	110.24
872.147	114.56
872.314	111.26
872.482	127.52
872.649	123.08
872.816	117.48
872.983	124.46
873.15	122.75
873.318	121.43
873.485	113.33
873.652	109.25
873.819	101.97
873.986	104.74
874.153	102.84
874.32	92.95
874.487	93.86
874.654	100.68
874.821	96.43
874.988	102.78
875.155	107.66
875.322	115.35
875.489	113.99
875.656	125.09
875.823	126.65
875.99	124.76
876.157	126.91
876.324	118.36
876.49	116.02
876.657	115.48
876.824	111.02
876.991	97.63
877.157	97.26
877.324	96.96
877.491	98.76
877.658	94.76
877.824	102.81
877.991	109.66
878.157	108.67
878.324	108.3
878.491	108.84
878.657	114.55
878.824	120.52
878.99	118.8
879.157	126.96
879.323	120.65
879.49	122.83
879.656	114.63
879.823	112.58
879.989	101.92
880.156	98.66
880.322	99.84
880.488	88.02
880.655	85.69
880.821	84.66
880.987	77.74
881.154	73.53
881.32	70.99
881.486	65.38
881.652	57.12
881.819	60.02
881.985	54.15
882.151	52.44
882.317	50.18
882.483	46.94
882.649	45.74
882.816	42.84
882.982	43.78
883.148	44.27
883.314	43.48
883.48	42.36
883.646	41.72
883.812	40.17
883.978	39.12
884.144	40.33
884.31	40.44
884.476	40.18
884.642	43.85
884.807	43.5
884.973	42.84
885.139	44.02
885.305	46.2
885.471	45.83
885.637	47.8
885.802	49.65
885.968	50.6
886.134	51.3
886.3	51.46
886.465	49.47
886.631	50.69
886.797	52.43
886.962	54.8
887.128	56.72
887.293	59.61
887.459	61.67
887.625	60.84
887.79	63.27
887.956	69.54
888.121	72.59
888.287	75.62
888.452	78.36
888.618	79.31
888.783	76.98
