Data from LC_239_Reflection_1.txt Node
Date: Thu Nov 19 22:18:52 EST 2015
User: robert
Spectrometer: USB4E03001
Autoset integration time: false
Trigger mode: 4
Integration Time (sec): 1.000000E-1
Scans to average: 15
Electric dark correction enabled: true
Nonlinearity correction enabled: false
Boxcar width: 5
Stray light correction enabled: false
XAxis mode: Wavelengths
Stop averaging: false
Number of Pixels in Spectrum: 3648
>>>>>Begin Spectral Data<<<<<
177.566	-12.82
177.785	13.91
178.005	47.77
178.225	51.38
178.445	80.33
178.665	56.73
178.885	63.19
179.105	58.93
179.324	6.33
179.544	-4.26
179.764	84.92
179.984	83.7
180.204	102.68
180.423	67.97
180.643	63.33
180.863	44.95
181.083	73.76
181.302	48.9
181.522	41.59
181.742	49.79
181.961	72.91
182.181	45.03
182.401	25.07
182.621	0.06
182.84	-127.66
183.06	-167.44
183.279	-212.73
183.499	-111.09
183.719	-549
183.938	-2305.72
184.158	1529.27
184.377	1225.91
184.597	-640.94
184.816	6215.09
185.036	392.45
185.256	-4468.89
185.475	-108.94
185.695	-105.8
185.914	-137.4
186.134	-337.17
186.353	-107.32
186.572	-144.69
186.792	-320.63
187.011	2108.03
187.231	1261.84
187.45	696.82
187.67	104.77
187.889	126
188.108	95.55
188.328	112.06
188.547	188.58
188.766	378.82
188.986	230.96
189.205	-1297.06
189.424	41.41
189.644	73.69
189.863	28.57
190.082	50.14
190.302	76.48
190.521	86.14
190.74	97.3
190.959	99.53
191.178	106.41
191.398	104.19
191.617	77.64
191.836	158.22
192.055	60.96
192.274	141.09
192.494	92.72
192.713	47.59
192.932	50.21
193.151	69.21
193.37	68.19
193.589	85.8
193.808	81.68
194.027	82.63
194.246	75.19
194.465	85.5
194.685	77.21
194.904	48.94
195.123	39.5
195.342	26.98
195.561	-5.22
195.78	14.81
195.999	1.86
196.218	-1.85
196.436	-9.66
196.655	-47.61
196.874	-22.48
197.093	-40.14
197.312	-6.93
197.531	4.81
197.75	-21.23
197.969	32.32
198.188	98.23
198.407	-47.94
198.625	-34.05
198.844	-99.19
199.063	-1203.36
199.282	-70.69
199.501	-63.11
199.719	-91.9
199.938	-13.53
200.157	-175.58
200.376	-106.78
200.594	747.62
200.813	-389.62
201.032	177.88
201.251	-84.58
201.469	-85.28
201.688	16.54
201.907	66.37
202.125	222.25
202.344	38.89
202.563	-89.42
202.781	25.88
203	3.94
203.218	55.99
203.437	-43.92
203.656	-26.56
203.874	-26.14
204.093	-123.92
204.311	-47.17
204.53	-21.99
204.748	-11.57
204.967	26.14
205.185	-20.08
205.404	-70.89
205.622	-71.92
205.841	9.49
206.059	2.92
206.278	7.78
206.496	37.76
206.715	109.67
206.933	41.61
207.151	74.66
207.37	120.79
207.588	61.47
207.806	80.24
208.025	64.47
208.243	-19.87
208.461	-85.76
208.68	-191.59
208.898	-62.84
209.116	-115.85
209.335	-223.46
209.553	-889.34
209.771	4443.7
209.989	-408.18
210.208	346.55
210.426	615.84
210.644	-26.1
210.862	-6.42
211.081	55.36
211.299	74.43
211.517	100.09
211.735	102.24
211.953	67.83
212.171	38.34
212.39	41.76
212.608	39.86
212.826	52.96
213.044	44.71
213.262	23.61
213.48	9.87
213.698	-1.16
213.916	-40.01
214.134	-45.68
214.352	-30.97
214.57	15.16
214.788	96.65
215.006	51.18
215.224	33.07
215.442	-177.69
215.66	111.79
215.878	-14.46
216.096	-123.18
216.314	-103.81
216.532	142.25
216.75	-60.57
216.968	112.96
217.185	351.09
217.403	911.2
217.621	1961.85
217.839	-84.98
218.057	-80.53
218.275	28.08
218.492	11.54
218.71	3.23
218.928	-26.3
219.146	-43.77
219.363	-4.15
219.581	-16.7
219.799	8.67
220.017	9.53
220.234	-1.86
220.452	6.03
220.67	-33.41
220.887	-15.82
221.105	-0.64
221.323	-10.06
221.54	17.3
221.758	16.49
221.976	4.92
222.193	8.24
222.411	0.54
222.629	5.41
222.846	-4.68
223.064	3.05
223.281	12.28
223.499	7.41
223.716	11.14
223.934	-7.86
224.151	4.51
224.369	23.33
224.586	21.48
224.804	24.59
225.021	38.73
225.239	46.19
225.456	41.37
225.674	41.46
225.891	47.57
226.108	43.67
226.326	47.29
226.543	42.45
226.76	40.52
226.978	29.95
227.195	37.67
227.413	22.96
227.63	17.49
227.847	20.87
228.064	21.38
228.282	20.11
228.499	21.04
228.716	21.99
228.934	20.18
229.151	18.76
229.368	19.23
229.585	17.31
229.802	16.53
230.02	17.09
230.237	14.82
230.454	14.88
230.671	11.29
230.888	9.86
231.105	7.83
231.323	9.31
231.54	6.54
231.757	4.53
231.974	6.77
232.191	9.84
232.408	10.93
232.625	11.83
232.842	9.11
233.059	15.39
233.276	18.76
233.493	20.15
233.71	20.7
233.927	25.07
234.144	26.94
234.361	23.6
234.578	20.73
234.795	19.91
235.012	22.13
235.229	18.43
235.446	20.96
235.663	15.02
235.879	11.42
236.096	6.41
236.313	0.69
236.53	2.25
236.747	6.01
236.964	9.88
237.181	8.52
237.397	8.17
237.614	9.71
237.831	5.93
238.048	13.26
238.264	14.18
238.481	15.87
238.698	19.44
238.915	19
239.131	16
239.348	14.27
239.565	15.68
239.781	16.46
239.998	14.3
240.215	12.6
240.431	9.72
240.648	11.45
240.865	10.96
241.081	8.72
241.298	8.66
241.514	7.79
241.731	8.42
241.947	9.67
242.164	8.77
242.38	11.58
242.597	11.79
242.814	12.85
243.03	12.13
243.246	12.02
243.463	12.86
243.679	13
243.896	13.89
244.112	13.03
244.329	11.5
244.545	13.31
244.762	11.92
244.978	10.5
245.194	10.11
245.411	11.25
245.627	12.13
245.843	13
246.06	13.4
246.276	12.93
246.492	14.23
246.709	14.7
246.925	13.18
247.141	13.45
247.357	14.3
247.574	14.31
247.79	13.96
248.006	14.34
248.222	13.48
248.439	12.63
248.655	12.88
248.871	12.17
249.087	10.69
249.303	11.32
249.519	9.73
249.736	8.72
249.952	7.77
250.168	6.62
250.384	4.38
250.6	5.52
250.816	5.8
251.032	4.55
251.248	5.63
251.464	7.09
251.68	6.73
251.896	7.61
252.112	6.74
252.328	7.18
252.544	7.83
252.76	8.56
252.976	7.54
253.192	7.64
253.408	9.05
253.624	9.37
253.84	9.4
254.056	8.84
254.272	8.57
254.487	9.48
254.703	9.09
254.919	10.37
255.135	10.64
255.351	11.53
255.567	12.2
255.782	9.79
255.998	8.25
256.214	7.46
256.43	5.31
256.646	7.41
256.861	6.71
257.077	6.36
257.293	7.21
257.508	8.35
257.724	8.74
257.94	8.53
258.155	9.77
258.371	9
258.587	8.44
258.802	10.13
259.018	9.97
259.234	10.23
259.449	10.78
259.665	10.29
259.88	9.9
260.096	10.19
260.312	9.52
260.527	9.19
260.743	9.31
260.958	9.7
261.174	9.67
261.389	9.75
261.605	10.82
261.82	10.48
262.036	10.45
262.251	9.88
262.466	9.67
262.682	10.81
262.897	12.03
263.113	12.47
263.328	12.91
263.543	12.25
263.759	11.32
263.974	9.36
264.189	9.47
264.405	7.94
264.62	9.48
264.835	9.06
265.051	8.57
265.266	7.7
265.481	8.49
265.696	9.26
265.912	7.47
266.127	9.6
266.342	10.38
266.557	10.69
266.773	11.45
266.988	11.01
267.203	10.85
267.418	12.12
267.633	11.9
267.848	10.73
268.064	9.84
268.279	11.46
268.494	9.74
268.709	9.55
268.924	8.33
269.139	8.27
269.354	8.6
269.569	7.68
269.784	5.65
269.999	5.54
270.214	6.1
270.429	5.71
270.644	4.79
270.859	5.85
271.074	5.15
271.289	6.15
271.504	6.63
271.719	7.33
271.934	7.73
272.149	7.93
272.363	8.23
272.578	9.28
272.793	9.68
273.008	9.9
273.223	9.87
273.438	11.51
273.653	11.09
273.867	11.21
274.082	10.05
274.297	10.45
274.512	11.4
274.726	10.99
274.941	9.65
275.156	8.68
275.371	8.9
275.585	9.26
275.8	8.32
276.015	9.24
276.229	9.82
276.444	10.61
276.659	10.24
276.873	10.65
277.088	11.42
277.302	10.71
277.517	11.81
277.732	12.69
277.946	12.86
278.161	13.32
278.375	13.43
278.59	12
278.804	12.43
279.019	13
279.233	12.22
279.448	12.8
279.662	14.07
279.877	13.72
280.091	12.69
280.306	11.22
280.52	10.1
280.735	10.24
280.949	11.65
281.163	10.63
281.378	10.43
281.592	11.6
281.806	11.13
282.021	10.76
282.235	10.58
282.449	10.52
282.664	10.42
282.878	10.53
283.092	9.29
283.307	9.16
283.521	8.87
283.735	8.81
283.949	7.98
284.164	7.28
284.378	7.09
284.592	7.14
284.806	7.84
285.02	8.71
285.234	9.33
285.449	9.48
285.663	8.86
285.877	9.48
286.091	9.22
286.305	9.42
286.519	10.11
286.733	10.84
286.947	11.21
287.161	10.17
287.375	9.84
287.589	8.54
287.803	9.38
288.017	9.71
288.231	9.13
288.445	9.1
288.659	8.59
288.873	7.95
289.087	6.73
289.301	6.99
289.515	8.07
289.729	7.27
289.943	7.64
290.157	8.14
290.371	7.99
290.584	8.33
290.798	8.49
291.012	8.24
291.226	8.36
291.44	9.89
291.654	8.77
291.867	9.11
292.081	9.42
292.295	9.97
292.509	8.77
292.722	9.33
292.936	9.13
293.15	8.5
293.364	10.23
293.577	10.18
293.791	8.91
294.005	9.93
294.218	9.7
294.432	10.21
294.645	9.83
294.859	9.38
295.073	9.36
295.286	9.89
295.5	10.39
295.713	8.55
295.927	9.01
296.14	9.11
296.354	8.43
296.568	8.08
296.781	8.99
296.994	9.6
297.208	9.57
297.421	9.52
297.635	9.61
297.848	10.15
298.062	11.07
298.275	11.12
298.489	11.04
298.702	11.53
298.915	12.12
299.129	11.55
299.342	11.25
299.555	11.78
299.769	10.84
299.982	10.37
300.195	9.68
300.409	9.37
300.622	8.77
300.835	9.06
301.048	9.49
301.262	9.26
301.475	9.05
301.688	8.36
301.901	8.53
302.115	9.21
302.328	9.26
302.541	8.72
302.754	8.01
302.967	9.16
303.18	9.15
303.393	8.38
303.607	8.6
303.82	7.93
304.033	8.11
304.246	8.22
304.459	7.99
304.672	7.93
304.885	8.49
305.098	8.23
305.311	6.7
305.524	6.93
305.737	7.09
305.95	7
306.163	7.27
306.376	7.75
306.589	7.71
306.802	6.96
307.015	6.91
307.228	6.89
307.44	7.63
307.653	8.08
307.866	7.56
308.079	8.38
308.292	8.61
308.505	9.26
308.718	9
308.93	8.75
309.143	9.11
309.356	8.15
309.569	7.85
309.781	8.04
309.994	7.71
310.207	7.6
310.42	7.53
310.632	6.99
310.845	6.56
311.058	7.19
311.27	6.83
311.483	7.14
311.696	7.81
311.908	8.46
312.121	7.74
312.333	8.39
312.546	8.72
312.759	8.16
312.971	8.65
313.184	8.57
313.396	7.83
313.609	8.77
313.821	9.02
314.034	9.53
314.246	8.65
314.459	9.07
314.671	9.02
314.884	8.99
315.096	10.12
315.309	9.53
315.521	9.66
315.733	9.36
315.946	9.76
316.158	8.92
316.371	8.31
316.583	9.18
316.795	8.77
317.008	7.71
317.22	8.01
317.432	7.22
317.644	8.81
317.857	7.98
318.069	7.94
318.281	6.65
318.494	7.74
318.706	7.06
318.918	6.53
319.13	6.22
319.342	6.11
319.555	5.32
319.767	5.82
319.979	3.75
320.191	5.39
320.403	6.4
320.615	6.95
320.827	6.55
321.039	6.51
321.252	6.14
321.464	7.47
321.676	8.03
321.888	7.94
322.1	7.56
322.312	7.34
322.524	7.67
322.736	7.02
322.948	7.34
323.16	7.24
323.372	7.76
323.584	7.53
323.796	5.55
324.007	5.86
324.219	5.94
324.431	5.28
324.643	5.92
324.855	5.06
325.067	6.03
325.279	5.57
325.491	5.95
325.702	6.67
325.914	6.77
326.126	8.08
326.338	8.25
326.55	8.34
326.761	8.73
326.973	8.61
327.185	8.45
327.396	8.23
327.608	8.78
327.82	8.59
328.032	7.84
328.243	7.82
328.455	8.5
328.666	8.54
328.878	9.1
329.09	9.67
329.301	10.38
329.513	10.91
329.725	9.55
329.936	9.39
330.148	10.93
330.359	11.58
330.571	12.12
330.782	11.61
330.994	11.92
331.205	12.08
331.417	11.69
331.628	10.82
331.84	10.73
332.051	11.72
332.262	10.96
332.474	10.09
332.685	9.77
332.897	10.52
333.108	10.77
333.319	10.28
333.531	9.47
333.742	9.26
333.953	10.13
334.165	10.7
334.376	10.73
334.587	11.02
334.799	10.14
335.01	9.36
335.221	8.87
335.432	8.75
335.644	8.47
335.855	8.71
336.066	9.37
336.277	8.49
336.488	8
336.7	7.31
336.911	8.03
337.122	9.05
337.333	10.21
337.544	9.71
337.755	9.36
337.966	8.97
338.177	8.92
338.388	8.59
338.599	8.99
338.811	9.62
339.022	9.52
339.233	9.27
339.444	9.03
339.655	8.46
339.866	9.02
340.076	9.09
340.287	9.69
340.498	9.99
340.709	9.8
340.92	9.59
341.131	8.8
341.342	9.88
341.553	9.84
341.764	9.02
341.975	9.32
342.185	8.95
342.396	8.64
342.607	9.23
342.818	8.72
343.029	9.27
343.239	9.27
343.45	9.04
343.661	9.09
343.872	8.96
344.082	9.23
344.293	9.53
344.504	9.22
344.714	9.56
344.925	8.69
345.136	8.44
345.346	8.57
345.557	8.7
345.768	8.91
345.978	7.89
346.189	7.08
346.399	6.72
346.61	6.08
346.821	6.34
347.031	6.73
347.242	7.53
347.452	8.37
347.663	7.47
347.873	8.17
348.084	8.36
348.294	8.43
348.504	8.77
348.715	10.22
348.925	10.71
349.136	11.42
349.346	10.57
349.557	10.28
349.767	10.17
349.977	10.41
350.188	9.62
350.398	8.89
350.608	9.08
350.819	9.22
351.029	8.06
351.239	7.73
351.449	6.85
351.66	7.14
351.87	7.1
352.08	6.45
352.29	7.12
352.501	6.86
352.711	7.31
352.921	7.35
353.131	7.6
353.341	7.35
353.552	7.7
353.762	8.05
353.972	8.24
354.182	8.18
354.392	8.61
354.602	7.31
354.812	7.39
355.022	6.82
355.232	7.25
355.442	6.94
355.652	6.91
355.862	6.48
356.072	6.61
356.282	6.83
356.492	6.88
356.702	6.59
356.912	7.11
357.122	7.64
357.332	8.8
357.542	8.28
357.752	8.11
357.962	8.31
358.171	8.58
358.381	8.39
358.591	7.75
358.801	7.91
359.011	8.42
359.221	8.03
359.43	7.12
359.64	6.75
359.85	7.07
360.06	7.03
360.269	7.26
360.479	6.85
360.689	6.73
360.899	7.07
361.108	6.8
361.318	6.66
361.528	6.98
361.737	7.56
361.947	7.39
362.156	7.85
362.366	8.4
362.576	8.49
362.785	8.27
362.995	8.29
363.204	8.4
363.414	8.23
363.623	7.92
363.833	8.02
364.042	7.75
364.252	7.74
364.461	6.82
364.671	6.68
364.88	7.08
365.09	7.68
365.299	8.01
365.509	8.01
365.718	8.2
365.927	8.51
366.137	8.32
366.346	8.59
366.555	8.75
366.765	9.13
366.974	8.72
367.183	7.72
367.393	7.13
367.602	7.38
367.811	7.38
368.021	7.7
368.23	6.68
368.439	6.49
368.648	6.46
368.857	6.46
369.067	6.26
369.276	7.13
369.485	7.32
369.694	7.64
369.903	7
370.112	6.75
370.321	5.99
370.531	6.68
370.74	6.25
370.949	6.05
371.158	5.63
371.367	5.63
371.576	4.87
371.785	5.3
371.994	5.52
372.203	5.96
372.412	6.17
372.621	6.53
372.83	6.75
373.039	7.37
373.248	7.42
373.457	7.96
373.666	8.68
373.874	8.52
374.083	8.19
374.292	8.38
374.501	8.13
374.71	8.34
374.919	8.08
375.128	8.05
375.336	7.96
375.545	7.75
375.754	7.3
375.963	6.54
376.171	6.46
376.38	6.53
376.589	5.85
376.798	5.82
377.006	5.5
377.215	5.87
377.424	5.59
377.632	5.44
377.841	5.61
378.05	5.75
378.258	6.15
378.467	6.06
378.675	6.04
378.884	6.33
379.093	6.53
379.301	6.82
379.51	6.44
379.718	6.62
379.927	6.85
380.135	6.95
380.344	6.76
380.552	6.95
380.761	7.08
380.969	7.32
381.177	7.15
381.386	6.7
381.594	6.54
381.803	6.45
382.011	6.55
382.219	6.32
382.428	6.33
382.636	6.43
382.845	5.81
383.053	5.46
383.261	4.94
383.469	5.26
383.678	5.29
383.886	5.28
384.094	5.88
384.302	5.94
384.511	5.91
384.719	5.76
384.927	5.65
385.135	5.79
385.343	6.08
385.552	6.34
385.76	6.01
385.968	6.19
386.176	6.1
386.384	5.53
386.592	5.43
386.8	5.63
387.008	5.55
387.216	5.61
387.424	5.5
387.633	5.56
387.841	5.16
388.049	5.31
388.257	5.24
388.465	5.25
388.672	5.51
388.88	5.33
389.088	5.16
389.296	5.44
389.504	5.2
389.712	5.27
389.92	5.19
390.128	5.31
390.336	5.17
390.544	5.1
390.751	4.99
390.959	5.01
391.167	5.24
391.375	5.11
391.583	4.74
391.79	4.88
391.998	5.17
392.206	5.29
392.414	5.43
392.621	5.73
392.829	5.7
393.037	5.7
393.244	5.77
393.452	5.5
393.66	5.41
393.867	5.63
394.075	5.88
394.283	5.2
394.49	5.18
394.698	5.24
394.905	4.79
395.113	4.75
395.32	4.94
395.528	4.84
395.735	5.03
395.943	5.2
396.15	4.69
396.358	4.48
396.565	4.8
396.773	4.63
396.98	4.74
397.188	5.01
397.395	4.99
397.602	4.75
397.81	4.7
398.017	4.38
398.225	4.51
398.432	4.9
398.639	4.75
398.847	4.62
399.054	4.76
399.261	4.43
399.468	4.61
399.676	4.49
399.883	4.36
400.09	4.35
400.297	4.76
400.505	4.72
400.712	4.76
400.919	4.87
401.126	5.01
401.333	5.15
401.54	5.31
401.748	5.15
401.955	5.4
402.162	5.56
402.369	5.72
402.576	5.68
402.783	5.46
402.99	5.62
403.197	5.74
403.404	5.62
403.611	5.36
403.818	5.27
404.025	5.36
404.232	5.29
404.439	5.28
404.646	5.16
404.853	5.13
405.06	5.01
405.267	5.07
405.474	4.87
405.681	5.06
405.887	5.2
406.094	5.42
406.301	5.16
406.508	5.08
406.715	5.04
406.922	4.78
407.128	4.67
407.335	5.07
407.542	4.88
407.749	5.03
407.955	4.93
408.162	5.09
408.369	5.03
408.575	5.34
408.782	5.2
408.989	5.17
409.195	5.41
409.402	5.45
409.609	5.34
409.815	5.11
410.022	5.07
410.228	5.29
410.435	5.12
410.642	4.85
410.848	4.76
411.055	4.75
411.261	5.03
411.468	4.87
411.674	4.78
411.881	4.93
412.087	5.05
412.294	4.94
412.5	4.74
412.706	4.46
412.913	4.62
413.119	4.41
413.326	4.57
413.532	4.49
413.738	4.68
413.945	4.64
414.151	4.41
414.357	4.49
414.564	4.64
414.77	4.65
414.976	4.8
415.182	4.86
415.389	4.97
415.595	4.98
415.801	4.93
416.007	4.86
416.214	5.01
416.42	4.93
416.626	4.87
416.832	4.91
417.038	4.94
417.244	5.01
417.45	5.08
417.657	5.34
417.863	5.37
418.069	5.36
418.275	5.35
418.481	5.36
418.687	5.4
418.893	5.48
419.099	5.43
419.305	5.41
419.511	5.29
419.717	5.01
419.923	4.85
420.129	4.73
420.335	4.72
420.541	4.75
420.746	4.61
420.952	4.67
421.158	4.62
421.364	4.6
421.57	4.57
421.776	4.71
421.982	4.85
422.187	4.86
422.393	4.81
422.599	4.69
422.805	4.69
423.01	4.76
423.216	4.47
423.422	4.31
423.628	4.2
423.833	4.14
424.039	3.98
424.245	3.96
424.45	3.94
424.656	4.06
424.862	4.14
425.067	3.95
425.273	3.92
425.478	4.04
425.684	4.28
425.889	4.42
426.095	4.44
426.301	4.54
426.506	4.61
426.712	4.57
426.917	4.61
427.123	4.58
427.328	4.65
427.533	4.7
427.739	4.93
427.944	4.82
428.15	4.58
428.355	4.45
428.561	4.47
428.766	4.44
428.971	4.48
429.177	4.32
429.382	4.32
429.587	4.48
429.793	4.41
429.998	4.13
430.203	3.98
430.408	4.18
430.614	4.4
430.819	4.42
431.024	4.27
431.229	4.17
431.434	4.09
431.64	4.15
431.845	4.25
432.05	4.4
432.255	4.37
432.46	4.37
432.665	4.33
432.87	4.3
433.076	4.14
433.281	4.29
433.486	4.32
433.691	4.44
433.896	4.38
434.101	4.24
434.306	4.08
434.511	4.17
434.716	4.26
434.921	4.2
435.126	4.29
435.331	4.26
435.535	4.08
435.74	3.98
435.945	4.07
436.15	4.02
436.355	4.29
436.56	4.46
436.765	4.49
436.97	4.41
437.174	4.44
437.379	4.33
437.584	4.51
437.789	4.58
437.993	4.54
438.198	4.32
438.403	4.21
438.608	4.06
438.812	3.87
439.017	4
439.222	4.11
439.426	4.02
439.631	3.94
439.836	4.09
440.04	4.11
440.245	4.29
440.45	4.45
440.654	4.54
440.859	4.39
441.063	4.57
441.268	4.5
441.472	4.5
441.677	4.54
441.881	4.63
442.086	4.29
442.29	4.22
442.495	4.15
442.699	4.13
442.904	4.16
443.108	4.31
443.312	4.18
443.517	4.09
443.721	4.17
443.925	4.2
444.13	4.21
444.334	4.35
444.538	4.41
444.743	4.42
444.947	4.28
445.151	4.24
445.356	4.3
445.56	4.4
445.764	4.44
445.968	4.37
446.173	4.37
446.377	4.33
446.581	4.39
446.785	4.44
446.989	4.44
447.193	4.5
447.398	4.44
447.602	4.39
447.806	4.26
448.01	4.08
448.214	4.11
448.418	4.03
448.622	4.01
448.826	3.99
449.03	3.98
449.234	3.88
449.438	3.84
449.642	3.87
449.846	3.88
450.05	3.93
450.254	4.16
450.458	4.01
450.662	4.14
450.866	4.1
451.069	4.11
451.273	3.96
451.477	4.02
451.681	3.99
451.885	4.05
452.089	4
452.292	3.98
452.496	4.05
452.7	3.93
452.904	3.77
453.107	3.85
453.311	4.01
453.515	4.02
453.719	4.12
453.922	4.16
454.126	4.15
454.33	4.09
454.533	3.96
454.737	3.56
454.94	3.8
455.144	3.9
455.348	3.86
455.551	3.72
455.755	3.8
455.958	3.53
456.162	3.54
456.365	3.67
456.569	3.6
456.772	3.65
456.976	4.02
457.179	4.02
457.383	4.04
457.586	4.08
457.79	4.07
457.993	3.94
458.196	4.03
458.4	4.15
458.603	4.09
458.807	4.26
459.01	4.33
459.213	4.22
459.417	4.24
459.62	4.2
459.823	4.19
460.026	4.12
460.23	4.15
460.433	4.2
460.636	4.08
460.839	4.02
461.042	3.97
461.246	3.98
461.449	4.03
461.652	3.91
461.855	4.06
462.058	4.02
462.261	4.07
462.464	4.17
462.668	4.13
462.871	4.21
463.074	4.22
463.277	4.1
463.48	4.03
463.683	4.03
463.886	4.18
464.089	4.11
464.292	4.17
464.495	4.26
464.698	4.08
464.901	4.15
465.104	4.29
465.306	4.38
465.509	4.37
465.712	4.45
465.915	4.22
466.118	4.23
466.321	4.28
466.524	4.2
466.726	4.03
466.929	4.07
467.132	3.99
467.335	3.95
467.538	3.82
467.74	3.74
467.943	3.72
468.146	3.95
468.348	3.85
468.551	3.61
468.754	3.7
468.956	3.8
469.159	3.89
469.362	3.94
469.564	3.71
469.767	3.83
469.969	3.98
470.172	4
470.375	3.89
470.577	3.92
470.78	4.12
470.982	4.15
471.185	4.21
471.387	3.99
471.59	4.02
471.792	4.15
471.995	4.13
472.197	4.1
472.399	4.18
472.602	4.31
472.804	4.18
473.007	4.07
473.209	3.86
473.411	3.81
473.614	4.01
473.816	4.03
474.018	4.13
474.22	4.16
474.423	4.16
474.625	4.05
474.827	3.95
475.03	3.89
475.232	3.97
475.434	4.15
475.636	4.1
475.838	4.2
476.04	4.14
476.243	4.01
476.445	4.03
476.647	4.04
476.849	4.08
477.051	4.19
477.253	4.4
477.455	4.4
477.657	4.31
477.859	4.38
478.061	4.16
478.263	4.17
478.465	4.11
478.667	4.11
478.869	4.31
479.071	4.22
479.273	4.11
479.475	3.97
479.677	3.95
479.879	4.04
480.081	4.04
480.283	4.21
480.485	4.19
480.686	4.26
480.888	4.18
481.09	4.04
481.292	4.19
481.494	4.22
481.695	4.2
481.897	4.19
482.099	4.15
482.301	4.13
482.502	4.1
482.704	4.06
482.906	4.1
483.107	4.15
483.309	4.1
483.511	4.03
483.712	4.03
483.914	4.08
484.115	4.06
484.317	4.08
484.519	4.08
484.72	4.07
484.922	4.11
485.123	4.13
485.325	4.1
485.526	4.13
485.728	4.16
485.929	4.19
486.131	4.1
486.332	4.18
486.534	4.17
486.735	4.22
486.936	4.29
487.138	4.29
487.339	4.2
487.541	4.26
487.742	4.24
487.943	4.26
488.144	4.25
488.346	4.34
488.547	4.33
488.748	4.36
488.95	4.33
489.151	4.28
489.352	4.26
489.553	4.38
489.755	4.35
489.956	4.46
490.157	4.45
490.358	4.41
490.559	4.41
490.76	4.44
490.961	4.47
491.163	4.48
491.364	4.45
491.565	4.48
491.766	4.42
491.967	4.46
492.168	4.37
492.369	4.33
492.57	4.37
492.771	4.4
492.972	4.32
493.173	4.29
493.374	4.32
493.575	4.34
493.776	4.28
493.976	4.22
494.177	4.13
494.378	4.1
494.579	4.07
494.78	4
494.981	3.94
495.182	4.02
495.382	3.95
495.583	3.85
495.784	3.76
495.985	3.85
496.185	3.86
496.386	3.98
496.587	3.98
496.788	4.06
496.988	4.2
497.189	4.19
497.39	4.21
497.59	4.24
497.791	4.27
497.992	4.4
498.192	4.42
498.393	4.49
498.593	4.47
498.794	4.54
498.994	4.58
499.195	4.57
499.395	4.53
499.596	4.39
499.796	4.23
499.997	4.23
500.197	4.22
500.398	4.15
500.598	4.09
500.799	4.07
500.999	4.07
501.199	4.13
501.4	4.05
501.6	4.14
501.801	4.28
502.001	4.43
502.201	4.41
502.402	4.49
502.602	4.59
502.802	4.66
503.002	4.73
503.203	4.79
503.403	4.64
503.603	4.7
503.803	4.78
504.003	4.73
504.204	4.7
504.404	4.71
504.604	4.71
504.804	4.78
505.004	4.7
505.204	4.61
505.404	4.61
505.604	4.66
505.804	4.6
506.005	4.57
506.205	4.61
506.405	4.61
506.605	4.72
506.805	4.61
507.005	4.52
507.204	4.59
507.404	4.57
507.604	4.54
507.804	4.59
508.004	4.72
508.204	4.75
508.404	4.7
508.604	4.81
508.804	4.77
509.003	4.81
509.203	4.7
509.403	4.69
509.603	4.64
509.803	4.66
510.002	4.65
510.202	4.45
510.402	4.48
510.602	4.52
510.801	4.43
511.001	4.35
511.201	4.25
511.4	4.42
511.6	4.6
511.8	4.67
511.999	4.61
512.199	4.8
512.398	4.9
512.598	4.86
512.797	5.02
512.997	5.15
513.197	5.39
513.396	5.45
513.596	5.37
513.795	5.21
513.994	5.29
514.194	5.56
514.393	5.44
514.593	5.55
514.792	5.56
514.992	5.32
515.191	5.4
515.39	5.31
515.59	5.52
515.789	5.62
515.988	5.77
516.188	5.85
516.387	5.72
516.586	5.84
516.786	5.77
516.985	5.84
517.184	5.83
517.383	5.71
517.582	5.68
517.782	5.56
517.981	5.69
518.18	5.62
518.379	5.54
518.578	5.6
518.777	5.52
518.976	5.49
519.176	5.57
519.375	5.71
519.574	5.8
519.773	5.87
519.972	6.01
520.171	5.95
520.37	6.02
520.569	6.12
520.768	6.24
520.967	6.22
521.166	6.35
521.365	6.39
521.564	6.41
521.762	6.42
521.961	6.48
522.16	6.38
522.359	6.43
522.558	6.53
522.757	6.42
522.956	6.36
523.154	6.34
523.353	6.47
523.552	6.39
523.751	6.42
523.949	6.43
524.148	6.39
524.347	6.5
524.546	6.51
524.744	6.57
524.943	6.79
525.142	6.76
525.34	6.92
525.539	6.81
525.737	6.84
525.936	6.91
526.135	7.01
526.333	7.01
526.532	7.01
526.73	7.07
526.929	7.06
527.127	7.04
527.326	7.06
527.524	7.1
527.723	7.2
527.921	7.22
528.12	7.26
528.318	7.27
528.516	7.32
528.715	7.33
528.913	7.31
529.112	7.34
529.31	7.35
529.508	7.34
529.707	7.31
529.905	7.32
530.103	7.42
530.301	7.38
530.5	7.39
530.698	7.33
530.896	7.42
531.094	7.48
531.293	7.54
531.491	7.58
531.689	7.73
531.887	7.87
532.085	7.93
532.283	7.86
532.481	7.87
532.68	7.92
532.878	8.04
533.076	8.01
533.274	8.04
533.472	8.01
533.67	8.05
533.868	8
534.066	7.96
534.264	7.97
534.462	8.07
534.66	8.18
534.858	8.2
535.056	8.22
535.253	8.24
535.451	8.23
535.649	8.31
535.847	8.38
536.045	8.48
536.243	8.64
536.441	8.65
536.638	8.68
536.836	8.73
537.034	8.78
537.232	8.82
537.43	8.94
537.627	9.03
537.825	9.02
538.023	8.97
538.22	9.01
538.418	8.94
538.616	8.94
538.813	8.93
539.011	8.95
539.209	9.06
539.406	9.11
539.604	9
539.801	9.19
539.999	9.33
540.196	9.5
540.394	9.52
540.591	9.52
540.789	9.63
540.986	9.54
541.184	9.57
541.381	9.54
541.579	9.62
541.776	9.8
541.974	9.77
542.171	9.8
542.368	9.8
542.566	9.88
542.763	9.97
542.96	10.03
543.158	10.26
543.355	10.29
543.552	10.42
543.75	10.44
543.947	10.51
544.144	10.57
544.341	10.65
544.539	10.69
544.736	10.71
544.933	10.72
545.13	10.7
545.327	10.65
545.524	10.77
545.722	10.75
545.919	10.77
546.116	10.65
546.313	10.73
546.51	10.73
546.707	10.73
546.904	10.82
547.101	10.9
547.298	11.02
547.495	11.07
547.692	11.11
547.889	11.23
548.086	11.3
548.283	11.48
548.48	11.5
548.677	11.52
548.874	11.79
549.07	11.97
549.267	12.01
549.464	12.15
549.661	12.14
549.858	12.34
550.055	12.34
550.251	12.33
550.448	12.25
550.645	12.6
550.842	12.63
551.038	12.49
551.235	12.32
551.432	12.43
551.628	12.42
551.825	12.52
552.022	12.4
552.218	12.55
552.415	12.71
552.612	12.82
552.808	12.61
553.005	12.69
553.201	12.81
553.398	12.95
553.594	12.92
553.791	13.02
553.987	13.16
554.184	13.06
554.38	13.1
554.577	13.14
554.773	13.29
554.97	13.48
555.166	13.7
555.362	13.68
555.559	13.66
555.755	13.65
555.952	13.59
556.148	13.64
556.344	13.9
556.541	13.78
556.737	13.76
556.933	13.77
557.129	13.62
557.326	13.55
557.522	13.54
557.718	13.6
557.914	13.88
558.11	13.82
558.307	13.88
558.503	13.92
558.699	14.17
558.895	14.33
559.091	14.17
559.287	14.34
559.483	14.4
559.679	14.56
559.876	14.76
560.072	14.65
560.268	14.82
560.464	14.63
560.66	14.75
560.856	14.79
561.052	14.91
561.247	15.24
561.443	15.24
561.639	15.18
561.835	15.29
562.031	15.43
562.227	15.53
562.423	15.89
562.619	16.23
562.815	16.31
563.01	16.27
563.206	16.23
563.402	16.17
563.598	16.35
563.793	16.56
563.989	16.74
564.185	16.75
564.381	16.94
564.576	16.88
564.772	16.98
564.968	16.97
565.163	17.29
565.359	17.45
565.555	17.69
565.75	17.77
565.946	17.93
566.141	17.88
566.337	17.96
566.532	18.09
566.728	18.13
566.923	18.05
567.119	18.24
567.314	18.16
567.51	18.19
567.705	18.24
567.901	18.38
568.096	18.39
568.292	18.35
568.487	18.23
568.682	18.21
568.878	18.29
569.073	18.47
569.268	18.43
569.464	18.53
569.659	18.58
569.854	18.52
570.05	18.4
570.245	18.43
570.44	18.61
570.635	18.88
570.831	19.02
571.026	19.02
571.221	19.2
571.416	19.22
571.611	19.47
571.806	19.35
572.002	19.41
572.197	19.43
572.392	19.63
572.587	19.81
572.782	19.73
572.977	19.86
573.172	19.93
573.367	19.92
573.562	20.15
573.757	20.03
573.952	20.18
574.147	20.18
574.342	20.49
574.537	20.42
574.732	20.4
574.927	20.44
575.121	20.53
575.316	20.69
575.511	20.7
575.706	20.56
575.901	20.57
576.096	20.7
576.29	20.92
576.485	20.89
576.68	20.82
576.875	20.75
577.069	20.97
577.264	20.89
577.459	20.89
577.654	20.92
577.848	21
578.043	21.25
578.238	21.33
578.432	21.19
578.627	21.14
578.821	21.28
579.016	21.29
579.21	21.25
579.405	21.39
579.6	21.45
579.794	21.51
579.989	21.53
580.183	21.45
580.378	21.5
580.572	21.75
580.766	21.93
580.961	21.86
581.155	22.01
581.35	22.17
581.544	22.28
581.738	22.45
581.933	22.51
582.127	22.35
582.321	22.48
582.516	22.71
582.71	22.83
582.904	22.78
583.099	22.96
583.293	23.16
583.487	23.04
583.681	23
583.875	22.99
584.07	22.99
584.264	23.37
584.458	23.17
584.652	22.96
584.846	23.06
585.04	23.33
585.234	23.48
585.428	23.36
585.623	23.34
585.817	23.16
586.011	23.11
586.205	23.3
586.399	23.47
586.593	23.65
586.787	23.73
586.981	23.64
587.174	23.3
587.368	23.12
587.562	23.31
587.756	23.54
587.95	23.68
588.144	23.61
588.338	23.5
588.532	23.58
588.725	23.62
588.919	23.52
589.113	23.45
589.307	23.42
589.501	23.56
589.694	23.61
589.888	23.85
590.082	23.97
590.275	23.93
590.469	24.02
590.663	24
590.856	23.86
591.05	24
591.244	24.14
591.437	24.55
591.631	24.72
591.824	24.6
592.018	24.2
592.212	24.04
592.405	24.11
592.599	24.04
592.792	24.1
592.986	24.49
593.179	24.62
593.372	24.81
593.566	24.75
593.759	24.64
593.953	24.88
594.146	25.17
594.339	25.48
594.533	25.54
594.726	25.51
594.92	25.62
595.113	25.61
595.306	25.68
595.499	25.5
595.693	25.63
595.886	25.73
596.079	25.78
596.272	25.85
596.466	25.91
596.659	26.14
596.852	26.28
597.045	26.23
597.238	26.06
597.431	26.07
597.624	26.19
597.818	26.17
598.011	26.15
598.204	26.12
598.397	26.15
598.59	25.95
598.783	25.75
598.976	25.73
599.169	25.85
599.362	25.95
599.555	25.64
599.748	25.76
599.941	25.66
600.134	25.79
600.326	25.96
600.519	25.88
600.712	25.85
600.905	25.85
601.098	25.83
601.291	25.67
601.483	25.6
601.676	25.98
601.869	25.8
602.062	25.84
602.255	25.91
602.447	25.74
602.64	25.81
602.833	25.84
603.025	26.13
603.218	26.29
603.411	26.41
603.603	26.5
603.796	26.58
603.989	26.64
604.181	26.66
604.374	26.83
604.566	26.88
604.759	26.87
604.951	27.07
605.144	27.05
605.336	27.08
605.529	27.04
605.721	27.23
605.914	27.23
606.106	27.16
606.299	27.27
606.491	27.13
606.683	27.17
606.876	27.2
607.068	27.17
607.26	27.06
607.453	27
607.645	26.92
607.837	26.91
608.03	27.07
608.222	27.24
608.414	27.14
608.606	27.26
608.799	27.31
608.991	27.55
609.183	27.58
609.375	27.81
609.567	27.93
609.759	28.05
609.952	27.99
610.144	27.92
610.336	27.94
610.528	28.06
610.72	27.87
610.912	27.98
611.104	27.91
611.296	27.81
611.488	27.66
611.68	27.61
611.872	27.59
612.064	27.72
612.256	27.65
612.448	27.83
612.64	27.9
612.832	28.21
613.023	28.11
613.215	27.87
613.407	27.88
613.599	27.81
613.791	27.66
613.983	28.06
614.174	27.82
614.366	27.77
614.558	27.48
614.75	27.36
614.941	27.5
615.133	27.68
615.325	27.95
615.516	28.24
615.708	28.24
615.9	28.36
616.091	28.12
616.283	28.31
616.475	28.65
616.666	28.95
616.858	29.25
617.049	28.9
617.241	28.7
617.432	28.65
617.624	28.62
617.815	28.76
618.007	28.92
618.198	28.83
618.39	28.73
618.581	28.85
618.773	28.81
618.964	28.65
619.155	28.74
619.347	28.64
619.538	28.87
619.729	28.91
619.921	29.08
620.112	29.1
620.303	29.26
620.494	29.49
620.686	29.47
620.877	29.37
621.068	29.34
621.259	29.29
621.451	29.47
621.642	29.47
621.833	29.66
622.024	29.63
622.215	29.63
622.406	29.55
622.597	29.35
622.788	29.1
622.98	29.09
623.171	29.28
623.362	29.35
623.553	29.52
623.744	29.51
623.935	29.52
624.126	29.71
624.317	29.82
624.508	29.82
624.698	30.02
624.889	30.22
625.08	30.72
625.271	30.9
625.462	31.11
625.653	31.28
625.844	31.49
626.034	31.19
626.225	31.13
626.416	31.27
626.607	31.76
626.798	31.9
626.988	31.88
627.179	31.77
627.37	31.45
627.56	31.25
627.751	31.23
627.942	31.27
628.132	31.45
628.323	31.36
628.514	31.21
628.704	31.05
628.895	30.74
629.085	30.84
629.276	30.82
629.466	31.25
629.657	31.44
629.847	31.41
630.038	31.26
630.228	31.34
630.419	31.47
630.609	31.55
630.8	31.35
630.99	31.64
631.181	31.73
631.371	31.53
631.561	31.27
631.752	31.19
631.942	31.3
632.132	31.2
632.323	31.2
632.513	31.14
632.703	31.16
632.893	31.08
633.084	31.1
633.274	31.16
633.464	31.52
633.654	31.54
633.844	31.48
634.034	31.18
634.225	31.23
634.415	31.35
634.605	31.31
634.795	31.49
634.985	31.32
635.175	31.03
635.365	31
635.555	30.71
635.745	30.7
635.935	30.99
636.125	31.3
636.315	31.31
636.505	31.13
636.695	31.24
636.885	31.26
637.075	31.55
637.265	31.87
637.455	31.67
637.644	31.62
637.834	31.82
638.024	31.63
638.214	31.63
638.404	31.58
638.593	31.53
638.783	31.61
638.973	31.5
639.163	31.67
639.352	31.76
639.542	31.81
639.732	31.87
639.921	31.59
640.111	31.89
640.301	31.91
640.49	32.14
640.68	32.05
640.87	32.13
641.059	32.4
641.249	32.44
641.438	32.21
641.628	32.2
641.817	32.38
642.007	32.44
642.196	32.4
642.386	32.31
642.575	32.45
642.764	32.97
642.954	32.95
643.143	32.79
643.333	32.77
643.522	32.67
643.711	32.82
643.901	32.5
644.09	32.89
644.279	33.01
644.469	33.04
644.658	32.92
644.847	32.45
645.036	32.47
645.226	32.63
645.415	32.28
645.604	32.72
645.793	32.91
645.982	32.9
646.171	32.74
646.361	32.81
646.55	32.75
646.739	32.99
646.928	33.35
647.117	33.42
647.306	33.19
647.495	33.37
647.684	33.19
647.873	33.29
648.062	33.45
648.251	33.34
648.44	33.22
648.629	33.4
648.818	33.51
649.007	33.4
649.196	33.43
649.384	33.35
649.573	33.55
649.762	33.69
649.951	33.42
650.14	33.87
650.328	34.18
650.517	34.04
650.706	34.07
650.895	33.68
651.083	33.68
651.272	33.09
651.461	33.43
651.65	33.44
651.838	33.47
652.027	33.66
652.216	33.36
652.404	33.53
652.593	33.57
652.781	33.23
652.97	33.48
653.158	33.53
653.347	34.42
653.535	33.97
653.724	33.76
653.912	34
654.101	34.28
654.289	34.4
654.478	34.26
654.666	34.25
654.855	34.5
655.043	34.07
655.231	34.19
655.42	33.62
655.608	33.85
655.796	33.97
655.985	34.2
656.173	34.03
656.361	34.32
656.55	34.07
656.738	34.18
656.926	34.17
657.114	34.7
657.302	34.39
657.491	34.5
657.679	34.65
657.867	34.6
658.055	34.19
658.243	34.2
658.431	34.03
658.619	34.14
658.807	34.09
658.996	34.27
659.184	33.94
659.372	33.97
659.56	34.13
659.748	34.28
659.936	34.62
660.124	34.51
660.311	34.48
660.499	34.32
660.687	34.43
660.875	34.77
661.063	34.66
661.251	35.08
661.439	35.12
661.627	35.17
661.814	34.94
662.002	34.64
662.19	35.09
662.378	35.37
662.565	35.16
662.753	35.18
662.941	34.92
663.129	34.77
663.316	34.45
663.504	34.86
663.692	34.68
663.879	34.56
664.067	34.92
664.254	34.48
664.442	34.09
664.63	34.41
664.817	34.03
665.005	34.09
665.192	34.56
665.38	34.53
665.567	35.02
665.755	35.27
665.942	35.62
666.13	35.34
666.317	35.79
666.504	35.53
666.692	35.41
666.879	35.71
667.067	35.96
667.254	35.53
667.441	35.56
667.629	34.9
667.816	34.51
668.003	34.37
668.19	34.84
668.378	34.7
668.565	35.04
668.752	35.47
668.939	35.68
669.127	35.4
669.314	36.08
669.501	36.14
669.688	36.36
669.875	36.62
670.062	36.75
670.249	36.14
670.436	35.92
670.623	35.95
670.81	36
670.997	35.88
671.184	35.75
671.371	35.61
671.558	35.84
671.745	35.81
671.932	35.98
672.119	35.83
672.306	36.03
672.493	36.11
672.68	36.05
672.867	36.24
673.054	36.34
673.24	36.78
673.427	36.55
673.614	36.54
673.801	36.44
673.988	36.52
674.174	36.67
674.361	36.91
674.548	36.88
674.734	36.97
674.921	36.7
675.108	36.59
675.294	36.66
675.481	36.76
675.668	36.62
675.854	36.82
676.041	36.69
676.227	36.83
676.414	36.93
676.601	37.3
676.787	37.35
676.974	37.26
677.16	37.22
677.347	36.75
677.533	36.74
677.719	36.54
677.906	36.31
678.092	36.39
678.279	36.1
678.465	35.91
678.651	35.98
678.838	35.59
679.024	35.93
679.21	35.96
679.397	36.13
679.583	36.35
679.769	36.83
679.955	37.01
680.142	37.16
680.328	37.63
680.514	37.26
680.7	37.04
680.886	37.42
681.073	37.38
681.259	37.44
681.445	37.52
681.631	37.48
681.817	37.36
682.003	37.21
682.189	37.17
682.375	36.91
682.561	37.38
682.747	37.32
682.933	37.33
683.119	37.35
683.305	37.38
683.491	37.18
683.677	37.34
683.863	36.76
684.049	37.24
684.235	36.97
684.42	36.9
684.606	37.05
684.792	37.73
684.978	37.91
685.164	37.46
685.349	37.54
685.535	37.84
685.721	37.41
685.907	38.2
686.092	37.52
686.278	37.75
686.464	37.97
686.649	37.71
686.835	37.11
687.021	37.04
687.206	37.08
687.392	36.97
687.577	36.77
687.763	36.89
687.948	36.9
688.134	37.21
688.319	37.06
688.505	37.08
688.69	37.48
688.876	37.76
689.061	37.48
689.247	37.37
689.432	37.5
689.618	37.26
689.803	37.2
689.988	37.22
690.174	37.49
690.359	37.5
690.544	37.51
690.73	37.26
690.915	37.18
691.1	37.4
691.285	38.24
691.471	38.26
691.656	38.77
691.841	38.63
692.026	38.44
692.211	38.18
692.396	38.44
692.582	38.05
692.767	38.34
692.952	38.01
693.137	38.26
693.322	38.16
693.507	37.85
693.692	37.97
693.877	37.98
694.062	38.17
694.247	38.37
694.432	38.41
694.617	38.75
694.802	38.82
694.987	39.68
695.172	39.65
695.357	39.28
695.541	39.73
695.726	39.67
695.911	40.19
696.096	40.09
696.281	40
696.466	39.97
696.65	39.79
696.835	39.65
697.02	39.2
697.204	39.11
697.389	39.2
697.574	39.49
697.759	39.23
697.943	39.47
698.128	39.32
698.312	39.27
698.497	39.19
698.682	39.44
698.866	39.75
699.051	39.58
699.235	39.7
699.42	39.65
699.604	39.3
699.789	39.66
699.973	39.73
700.158	40.05
700.342	39.97
700.527	40.53
700.711	40.44
700.895	40.08
701.08	40.26
701.264	39.75
701.448	39.59
701.633	39.45
701.817	39.47
702.001	38.57
702.186	38.57
702.37	38.76
702.554	38.42
702.738	38.17
702.923	38.27
703.107	38.53
703.291	38.69
703.475	39.12
703.659	39.97
703.843	40.1
704.027	40.48
704.212	40.47
704.396	40.52
704.58	40.27
704.764	40.66
704.948	40.53
705.132	40.35
705.316	40.62
705.5	40.39
705.684	40.16
705.868	40.09
706.052	40.1
706.235	39.89
706.419	39.81
706.603	40.02
706.787	39.89
706.971	39.72
707.155	39.73
707.339	40.22
707.522	40.52
707.706	40.24
707.89	39.88
708.074	40.11
708.257	39.93
708.441	40.26
708.625	39.99
708.808	39.75
708.992	39.82
709.176	39.6
709.359	38.7
709.543	38.59
709.727	38.54
709.91	38.49
710.094	37.92
710.277	38.01
710.461	36.97
710.644	37.27
710.828	37.95
711.011	38.45
711.195	38.77
711.378	39.29
711.562	39.19
711.745	38.88
711.928	38.67
712.112	38.89
712.295	39.18
712.478	39.64
712.662	39.75
712.845	39.41
713.028	39.08
713.212	38.92
713.395	39.53
713.578	39.71
713.761	40.32
713.945	40.36
714.128	41.13
714.311	41.51
714.494	41.86
714.677	41.07
714.86	41.61
715.043	41.33
715.227	41.39
715.41	40.87
715.593	40.98
715.776	41.15
715.959	41.81
716.142	41.35
716.325	40.39
716.508	40.5
716.691	41.26
716.874	40.66
717.057	40.87
717.239	40.51
717.422	40.24
717.605	40.42
717.788	40.44
717.971	40.66
718.154	40.55
718.337	40.73
718.519	40.19
718.702	39.88
718.885	40.03
719.068	39.87
719.25	40.18
719.433	40.19
719.616	39.46
719.798	38.71
719.981	38.31
720.164	38.29
720.346	38.37
720.529	37.58
720.712	36.99
720.894	36.5
721.077	36.87
721.259	37.58
721.442	37.73
721.624	38.52
721.807	39.18
721.989	38.66
722.172	38.74
722.354	39.35
722.537	40.88
722.719	41.2
722.901	41.77
723.084	41.55
723.266	41.12
723.448	40.8
723.631	40.76
723.813	40.4
723.995	40.38
724.178	39.99
724.36	39.47
724.542	39.11
724.724	39.58
724.907	39.47
725.089	39.64
725.271	38.87
725.453	39.45
725.635	39.16
725.817	39.54
725.999	40.56
726.181	41.84
726.364	42.06
726.546	42.09
726.728	42.52
726.91	42.48
727.092	42.37
727.274	43.03
727.456	42.65
727.638	42.05
727.819	41.88
728.001	41.17
728.183	40.14
728.365	40.02
728.547	40.73
728.729	40.61
728.911	40.96
729.093	41.06
729.274	41.41
729.456	41.51
729.638	41.33
729.82	41.31
730.001	41.56
730.183	42.08
730.365	42.41
730.546	41.42
730.728	41.16
730.91	40.71
731.091	40.5
731.273	40.39
731.455	40.33
731.636	41.35
731.818	41.18
731.999	40.76
732.181	40.31
732.362	40.17
732.544	40.45
732.725	40.38
732.907	40.96
733.088	41.29
733.27	41.45
733.451	41.87
733.633	41.64
733.814	41.59
733.995	42
734.177	42.38
734.358	43.22
734.539	43.45
734.721	42.97
734.902	42.34
735.083	42.03
735.264	41.98
735.446	41.25
735.627	41.07
735.808	41.23
735.989	40.64
736.17	40.7
736.351	39.29
736.533	39.81
736.714	41.05
736.895	41.25
737.076	41.88
737.257	40.42
737.438	40.76
737.619	40.89
737.8	40.66
737.981	40.92
738.162	40.64
738.343	40.9
738.524	41.47
738.705	41.62
738.886	41.29
739.067	41.12
739.247	42.38
739.428	42.58
739.609	43.07
739.79	43.54
739.971	43.91
740.151	43.16
740.332	43.8
740.513	43.11
740.694	41.82
740.874	42.13
741.055	41.52
741.236	41.32
741.417	41.31
741.597	40.48
741.778	39.89
741.958	39.62
742.139	39.94
742.32	39.63
742.5	38.78
742.681	38.72
742.861	38.68
743.042	39
743.222	39.01
743.403	38.68
743.583	40.06
743.764	40.49
743.944	41.5
744.124	41.97
744.305	42
744.485	42.93
744.666	43.56
744.846	43.49
745.026	43.4
745.207	43.4
745.387	43.85
745.567	43.07
745.747	42.02
745.928	41.3
746.108	41.66
746.288	40.85
746.468	40.05
746.648	40.34
746.829	40.28
747.009	41.12
747.189	40.39
747.369	40.54
747.549	39.75
747.729	39.67
747.909	40.09
748.089	39.56
748.269	40.15
748.449	40.59
748.629	40.33
748.809	41.19
748.989	40.43
749.169	40.96
749.349	40.56
749.529	41.78
749.709	43.58
749.889	43.25
750.068	43.27
750.248	43.49
750.428	43.09
750.608	43.34
750.788	43.03
750.967	44.23
751.147	44.09
751.327	43.64
751.507	42.91
751.686	41.98
751.866	41.7
752.046	42.42
752.225	42.53
752.405	42.81
752.585	41.65
752.764	41.16
752.944	40.03
753.123	41.05
753.303	43.12
753.482	42.58
753.662	42.53
753.841	42.3
754.021	40.97
754.2	40.64
754.38	40.62
754.559	41.28
754.739	40.18
754.918	40.93
755.097	39.79
755.277	38.46
755.456	38.85
755.635	38.03
755.815	38.21
755.994	39.36
756.173	39.54
756.352	39.89
756.532	40.78
756.711	43.06
756.89	42.91
757.069	43.26
757.248	42.63
757.427	43.51
757.607	44.4
757.786	44.08
757.965	43.97
758.144	43.75
758.323	43.61
758.502	42.07
758.681	41.25
758.86	40.05
759.039	40.64
759.218	40.9
759.397	40.54
759.576	40.71
759.755	40.47
759.934	39.71
760.113	39.74
760.291	39.63
760.47	39.96
760.649	40.47
760.828	40.35
761.007	39.58
761.186	40.28
761.364	39.93
761.543	39.97
761.722	40.94
761.901	41.41
762.079	40.85
762.258	40.58
762.437	41.23
762.615	40.96
762.794	41.72
762.972	42.58
763.151	42.43
763.33	42.65
763.508	42.74
763.687	42.54
763.865	42.61
764.044	43.8
764.222	44.11
764.401	44.4
764.579	43.95
764.758	43.62
764.936	43.7
765.114	43.87
765.293	43.11
765.471	43.21
765.65	43.01
765.828	43.32
766.006	42.21
766.184	41.81
766.363	41.83
766.541	42.49
766.719	42.98
766.898	42.69
767.076	42.44
767.254	43.57
767.432	43.83
767.61	44.48
767.788	43.79
767.967	44.73
768.145	45.65
768.323	44.81
768.501	44.88
768.679	44.02
768.857	43.42
769.035	43.36
769.213	43.53
769.391	43.54
769.569	42.86
769.747	43.77
769.925	42.64
770.103	41.26
770.281	41.85
770.459	41.26
770.636	42.32
770.814	43.3
770.992	42.25
771.17	40.73
771.348	39.23
771.525	39.08
771.703	38.64
771.881	39.33
772.059	40.25
772.236	38.74
772.414	40.17
772.592	40.36
772.769	39.62
772.947	40.56
773.125	41.5
773.302	42.92
773.48	43.26
773.657	44.22
773.835	44.1
774.013	44.17
774.19	44.98
774.368	43.38
774.545	43.15
774.723	41.21
774.9	41.49
775.077	41.7
775.255	38.88
775.432	39.62
775.61	38.87
775.787	38
775.964	37.61
776.142	39.47
776.319	40.64
776.496	39.43
776.674	42.55
776.851	43.15
777.028	42.8
777.205	46.54
777.382	45.49
777.56	45.98
777.737	46.45
777.914	46.85
778.091	45.97
778.268	44.79
778.445	46.95
778.622	45.67
778.8	45.64
778.977	45.38
779.154	50.06
779.331	51.14
779.508	50.6
779.685	50.23
779.862	49.52
780.038	48.45
780.215	49.14
780.392	45.93
780.569	47.24
780.746	45.37
780.923	45.02
781.1	38.98
781.277	36.72
781.453	36.36
781.63	36.53
781.807	37.85
781.984	39.01
782.16	37.94
782.337	40.08
782.514	38.84
782.691	41.3
782.867	41.54
783.044	41.54
783.221	44.04
783.397	45.34
783.574	48.11
783.75	48.36
783.927	47.54
784.103	51.08
784.28	49.62
784.456	49.17
784.633	48.3
784.809	48.33
784.986	48.29
785.162	48.33
785.339	46.63
785.515	45.53
785.692	44.74
785.868	44.77
786.044	41.29
786.221	44.22
786.397	44.94
786.573	44.55
786.749	45.43
786.926	43.42
787.102	42.18
787.278	43.57
787.454	42.49
787.631	42.76
787.807	43.4
787.983	44
788.159	42.99
788.335	42.94
788.511	43.29
788.687	44.19
788.863	45.45
789.039	46.67
789.216	46.07
789.392	46.16
789.568	46.29
789.744	47.48
789.919	48.68
790.095	49.25
790.271	49.18
790.447	48.46
790.623	48.12
790.799	47.82
790.975	46.28
791.151	46.66
791.327	46.09
791.502	44.72
791.678	44.7
791.854	42.96
792.03	42.46
792.205	41.47
792.381	43.23
792.557	43.59
792.733	43.08
792.908	42.8
793.084	43.62
793.259	44.17
793.435	46.35
793.611	44.09
793.786	43.67
793.962	43.85
794.137	44.78
794.313	43.48
794.488	43.16
794.664	44.45
794.839	43.84
795.015	43.22
795.19	44.32
795.366	42.8
795.541	43.93
795.716	45.06
795.892	44.01
796.067	42.78
796.242	42.39
796.418	42.47
796.593	41.35
796.768	43.02
796.944	41.59
797.119	38.53
797.294	38.75
797.469	38.33
797.644	38.88
797.82	39.5
797.995	40.16
798.17	41.71
798.345	41.75
798.52	42.96
798.695	42.1
798.87	43.87
799.045	46.47
799.22	45.92
799.395	45.81
799.57	45.28
799.745	46.06
799.92	45.51
800.095	43.48
800.27	41.92
800.445	41.66
800.62	42.6
800.795	40.87
800.97	41.14
801.145	41.64
801.319	39.3
801.494	39.91
801.669	40.71
801.844	41.77
802.018	43.79
802.193	45.09
802.368	43.38
802.543	42.13
802.717	42.01
802.892	41.15
803.067	42.25
803.241	43.44
803.416	43.76
803.59	42.14
803.765	44.38
803.94	42.49
804.114	41.62
804.289	42.45
804.463	43.66
804.638	44.62
804.812	44.13
804.986	44.67
805.161	45.59
805.335	43.51
805.51	42.86
805.684	40.56
805.858	40.56
806.033	41.15
806.207	42.29
806.381	41.8
806.556	43.27
806.73	43.97
806.904	42.51
807.078	42.59
807.253	46.08
807.427	46.69
807.601	48.61
807.775	50.41
807.949	48.41
808.123	47.85
808.298	46.52
808.472	44.77
808.646	42.21
808.82	42.31
808.994	41.07
809.168	39.06
809.342	37.19
809.516	34.21
809.69	31.41
809.864	34.29
810.038	35.07
810.212	34.03
810.385	33.75
810.559	35.07
810.733	33.98
810.907	34.19
811.081	36.39
811.255	36.82
811.428	38.95
811.602	41.41
811.776	41.99
811.95	40.67
812.123	42.71
812.297	41.91
812.471	45.83
812.644	46.96
812.818	49.86
812.992	46.15
813.165	48.37
813.339	47.23
813.512	48.91
813.686	48.23
813.86	49.23
814.033	50.11
814.207	52.45
814.38	49.34
814.554	49.08
814.727	49.32
814.9	50.58
815.074	50.48
815.247	50.52
815.421	47.2
815.594	44.83
815.767	45.98
815.941	43.09
816.114	44.53
816.287	46.1
816.46	47.02
816.634	44.29
816.807	43.7
816.98	43.84
817.153	43.46
817.327	45.63
817.5	47.89
817.673	45.73
817.846	48.25
818.019	45.63
818.192	45.13
818.365	43.54
818.538	43.78
818.711	44.14
818.884	43.63
819.057	43.77
819.23	42.47
819.403	40.88
819.576	42.6
819.749	41.71
819.922	43.45
820.095	42.8
820.268	43.18
820.441	43.52
820.614	42.18
820.786	40.32
820.959	39.92
821.132	41.37
821.305	40.8
821.477	41.36
821.65	42.36
821.823	41.49
821.996	41.55
822.168	41.93
822.341	42.29
822.514	42.2
822.686	43.27
822.859	43.76
823.031	43.82
823.204	44.58
823.376	43.96
823.549	43.32
823.722	43.9
823.894	43.97
824.067	43.99
824.239	43.29
824.411	43.78
824.584	43.81
824.756	43.06
824.929	42.33
825.101	41.94
825.273	42
825.446	42.11
825.618	41.36
825.79	41.39
825.963	41.57
826.135	41.96
826.307	42.12
826.479	41.66
826.652	42.61
826.824	42.32
826.996	42.79
827.168	43.25
827.34	43.67
827.512	44.9
827.684	45.37
827.856	44.34
828.029	44.6
828.201	44.18
828.373	44.53
828.545	44.82
828.717	45.28
828.889	44.9
829.061	44.61
829.232	45.1
829.404	44.56
829.576	43.84
829.748	45.72
829.92	46.07
830.092	47.03
830.264	46.69
830.436	45.84
830.607	47.09
830.779	47.27
830.951	46.83
831.123	45.6
831.294	43.23
831.466	45.12
831.638	43.59
831.809	45.12
831.981	43.87
832.153	43.45
832.324	44.97
832.496	45.41
832.667	45.78
832.839	45.9
833.011	46.62
833.182	47.28
833.354	47.34
833.525	46
833.697	42.99
833.868	44.79
834.039	47.41
834.211	46.28
834.382	44.64
834.554	45.5
834.725	46.66
834.896	45.66
835.068	44.92
835.239	42.65
835.41	43.5
835.581	44.75
835.753	43.33
835.924	41.6
836.095	41.94
836.266	42.38
836.438	40.07
836.609	40.18
836.78	41.89
836.951	42.01
837.122	40.97
837.293	40.5
837.464	40
837.635	41.56
837.806	42.48
837.977	40.59
838.148	39.71
838.319	39.47
838.49	38.32
838.661	39.52
838.832	43.97
839.003	48.81
839.174	52.84
839.345	54.85
839.516	53.33
839.687	50.9
839.857	48.99
840.028	49.26
840.199	50.78
840.37	50.32
840.54	47.36
840.711	43.93
840.882	41.09
841.053	34.55
841.223	31.7
841.394	26.75
841.564	31.2
841.735	34.7
841.906	33.39
842.076	34.03
842.247	34.4
842.417	35.22
842.588	35.77
842.758	35.48
842.929	38.8
843.099	35.52
843.27	43.49
843.44	41.54
843.611	44.79
843.781	46.76
843.951	45.09
844.122	43.02
844.292	42.96
844.462	39.47
844.633	43.15
844.803	40.35
844.973	42.54
845.144	39.3
845.314	36.55
845.484	34.26
845.654	34.65
845.824	40.25
845.995	42.6
846.165	38.88
846.335	44.12
846.505	40.68
846.675	39.83
846.845	48.32
847.015	45.96
847.185	47.78
847.355	45.71
847.525	49.65
847.695	47.98
847.865	56.18
848.035	57.68
848.205	50.12
848.375	50.97
848.545	58.9
848.715	52.01
848.884	47.8
849.054	47.73
849.224	49.61
849.394	40.87
849.564	50.53
849.733	45.85
849.903	46.88
850.073	50.6
850.243	54.71
850.412	53
850.582	53.87
850.752	57.05
850.921	56.44
851.091	58.18
851.26	64.96
851.43	51.61
851.599	51.32
851.769	54.74
851.939	55.85
852.108	50.9
852.278	50.45
852.447	49.84
852.616	54.12
852.786	52.4
852.955	51.66
853.125	42.36
853.294	52.4
853.463	56.03
853.633	48.84
853.802	49.14
853.971	46.96
854.141	50.43
854.31	59.85
854.479	55.11
854.648	53.82
854.818	49.04
854.987	55.04
855.156	48.4
855.325	40.92
855.494	46.75
855.663	47.28
855.832	49.11
856.001	39.11
856.171	27.81
856.34	23.44
856.509	22.37
856.678	26.28
856.847	24.07
857.016	23.89
857.185	23.91
857.353	20.74
857.522	16.7
857.691	25.49
857.86	27.95
858.029	27.71
858.198	32.37
858.367	28.16
858.535	22.71
858.704	31.81
858.873	30.52
859.042	23.49
859.21	23.71
859.379	24.4
859.548	11.71
859.717	3.54
859.885	14.28
860.054	13.45
860.222	24.86
860.391	30.21
860.56	24.98
860.728	20.73
860.897	28
861.065	27.16
861.234	27.73
861.402	26.87
861.571	31.32
861.739	24.87
861.908	22.41
862.076	11.09
862.244	8.61
862.413	7.32
862.581	13.37
862.749	13.75
862.918	19.54
863.086	22.82
863.254	24.41
863.423	16.81
863.591	17.67
863.759	18.91
863.927	27.73
864.096	34.76
864.264	32.06
864.432	33.12
864.6	47.47
864.768	46.52
864.936	34.63
865.104	36.51
865.272	46.46
865.44	51.33
865.608	48.81
865.776	39.81
865.944	34.83
866.112	35.42
866.28	34.14
866.448	19.69
866.616	21.73
866.784	17.47
866.952	17.12
867.12	14.12
867.288	12.59
867.455	22.64
867.623	22.44
867.791	28.48
867.959	31.58
868.127	38.51
868.294	36.26
868.462	34.25
868.63	46.8
868.797	46.86
868.965	55.24
869.133	52.21
869.3	58.26
869.468	61.59
869.636	61.29
869.803	57.26
869.971	55.2
870.138	50.83
870.306	52.01
870.473	37.67
870.641	37.28
870.808	40.96
870.975	42.02
871.143	27.32
871.31	29.47
871.478	25.32
871.645	30.59
871.812	26.13
871.98	28.4
872.147	31.14
872.314	50.19
872.482	42.61
872.649	34.77
872.816	33.7
872.983	34.81
873.15	23.22
873.318	24.86
873.485	17.32
873.652	14.12
873.819	12.37
873.986	22.32
874.153	17.18
874.32	20.75
874.487	19.64
874.654	14.82
874.821	21.1
874.988	28.19
875.155	32.46
875.322	37.75
875.489	26.94
875.656	25.15
875.823	15.48
875.99	15.3
876.157	23.92
876.324	24.89
876.49	35.79
876.657	33.3
876.824	36.5
876.991	39.54
877.157	42.9
877.324	49.74
877.491	56.06
877.658	57.28
877.824	57.71
877.991	56.96
878.157	54.8
878.324	50.19
878.491	50.75
878.657	49.56
878.824	37.14
878.99	31.65
879.157	30.08
879.323	28.01
879.49	26.53
879.656	32.16
879.823	28.04
879.989	27.32
880.156	33.29
880.322	33.13
880.488	33.65
880.655	32.52
880.821	32.85
880.987	39.56
881.154	41.83
881.32	51.63
881.486	50.85
881.652	45.15
881.819	49.29
881.985	45.12
882.151	44.28
882.317	42.8
882.483	44.78
882.649	44.41
882.816	41.83
882.982	40.45
883.148	39.1
883.314	39.1
883.48	41.08
883.646	40.6
883.812	41.88
883.978	42.45
884.144	43.43
884.31	42.99
884.476	42.17
884.642	42.09
884.807	42.14
884.973	42.61
885.139	42.72
885.305	41.43
885.471	41.23
885.637	40.7
885.802	39.61
885.968	39.32
886.134	40.6
886.3	42.91
886.465	45.48
886.631	45.71
886.797	44.86
886.962	44.23
887.128	46.47
887.293	44.02
887.459	45.58
887.625	47.83
887.79	51.24
887.956	44.37
888.121	41.9
888.287	38.45
888.452	38.49
888.618	35.67
888.783	37.3
