Data from 2937898_Reflection_1.txt Node
Date: Wed Jul 15 13:46:37 EDT 2015
User: robert
Spectrometer: USB4E03001
Autoset integration time: false
Trigger mode: 4
Integration Time (sec): 1.000000E-1
Scans to average: 10
Electric dark correction enabled: true
Nonlinearity correction enabled: false
Boxcar width: 5
Stray light correction enabled: false
XAxis mode: Wavelengths
Stop averaging: false
Number of Pixels in Spectrum: 3648
>>>>>Begin Spectral Data<<<<<
177.566	42.23
177.785	3.81
178.005	23.39
178.225	39.79
178.445	102.25
178.665	107.09
178.885	152.42
179.105	109.42
179.324	91.44
179.544	48.61
179.764	-8.79
179.984	-99.33
180.204	-248.69
180.423	-161.25
180.643	-195.4
180.863	-239.93
181.083	-349.85
181.302	-113.92
181.522	-141.94
181.742	-43.51
181.961	-55.58
182.181	-505.41
182.401	-270.75
182.621	-1313.51
182.84	338.12
183.06	-1462.61
183.279	572.52
183.499	172.26
183.719	131
183.938	-816.41
184.158	76.57
184.377	103.32
184.597	-119.9
184.816	84.16
185.036	36.77
185.256	75.13
185.475	237.88
185.695	138.93
185.914	176.86
186.134	157.14
186.353	358.8
186.572	431.15
186.792	656.02
187.011	515.23
187.231	648.45
187.45	331.29
187.67	311.61
187.889	285.2
188.108	14252.08
188.328	243.27
188.547	216.82
188.766	260.31
188.986	268.65
189.205	207.81
189.424	177.95
189.644	375.77
189.863	356.13
190.082	823.05
190.302	493.75
190.521	33.13
190.74	150.72
190.959	355.94
191.178	42.42
191.398	51.7
191.617	66.35
191.836	-30.04
192.055	58.96
192.274	44.43
192.494	29.63
192.713	25.93
192.932	17.94
193.151	14.44
193.37	11.88
193.589	6.86
193.808	1.59
194.027	-38.05
194.246	-44.24
194.465	-219.86
194.685	-436.44
194.904	2492.67
195.123	437.32
195.342	305.98
195.561	385.44
195.78	203.32
195.999	152.07
196.218	101.93
196.436	53.4
196.655	-26.11
196.874	-48.18
197.093	-10.25
197.312	-1871.05
197.531	-158.58
197.75	-145.81
197.969	-145.24
198.188	-105.15
198.407	-63.77
198.625	-125.86
198.844	103.7
199.063	51.66
199.282	16.97
199.501	72.91
199.719	2281.25
199.938	283.83
200.157	2340.54
200.376	6677.78
200.594	612.1
200.813	-108.75
201.032	-88.13
201.251	274.24
201.469	-135.59
201.688	-66.82
201.907	-69.24
202.125	-69.83
202.344	-17.24
202.563	2.33
202.781	4.17
203	2.79
203.218	9.16
203.437	-0.5
203.656	-0.26
203.874	22.72
204.093	34.17
204.311	90.75
204.53	-54.37
204.748	21.34
204.967	125.35
205.185	-473.86
205.404	114.79
205.622	-34.72
205.841	58.76
206.059	115.03
206.278	29.04
206.496	-121.89
206.715	1438.82
206.933	-240.18
207.151	-4.92
207.37	-15.62
207.588	293.17
207.806	322.22
208.025	-226.82
208.243	-28.34
208.461	80.6
208.68	40.98
208.898	297.14
209.116	-414.63
209.335	-411.99
209.553	-119.65
209.771	-177.61
209.989	-403.93
210.208	963.35
210.426	-1442.61
210.644	-2503.14
210.862	-130.6
211.081	-166.21
211.299	27.17
211.517	114.26
211.735	115.83
211.953	-30.44
212.171	-165.95
212.39	-37125
212.608	102.57
212.826	-199.26
213.044	-88.85
213.262	191
213.48	-34.31
213.698	41
213.916	19.86
214.134	-11.14
214.352	14.83
214.57	9.12
214.788	27.34
215.006	13.38
215.224	-19.99
215.442	-35.14
215.66	15.55
215.878	16.86
216.096	-97.8
216.314	-242.24
216.532	-44.95
216.75	-69.18
216.968	-122.39
217.185	-314.39
217.403	-86.86
217.621	-46.96
217.839	-48.77
218.057	-205.64
218.275	-309.74
218.492	-85.7
218.71	-125.94
218.928	-352.47
219.146	-1085.45
219.363	-472.52
219.581	-831.41
219.799	72111.11
220.017	1506.67
220.234	-1383.71
220.452	-354.6
220.67	-92.44
220.887	-43.7
221.105	-9.36
221.323	-116.11
221.54	-72.23
221.758	8.8
221.976	39.88
222.193	31.42
222.411	98.52
222.629	52.93
222.846	55.08
223.064	48.82
223.281	45.04
223.499	42.22
223.716	48.48
223.934	59.44
224.151	60.79
224.369	52.82
224.586	42.87
224.804	30.84
225.021	43.96
225.239	40.09
225.456	8.98
225.674	-0.66
225.891	11.95
226.108	12.31
226.326	10.49
226.543	2.76
226.76	-3.95
226.978	-4.25
227.195	6.5
227.413	-11.64
227.63	-14.84
227.847	0.81
228.064	0.37
228.282	-3.15
228.499	3.09
228.716	4.73
228.934	7.54
229.151	11.87
229.368	12.62
229.585	9.49
229.802	11.79
230.02	14.19
230.237	14.77
230.454	15.34
230.671	14.88
230.888	16.33
231.105	13.61
231.323	9.19
231.54	8.42
231.757	3.43
231.974	9.43
232.191	10.35
232.408	4.93
232.625	3.75
232.842	8.08
233.059	5.45
233.276	-4.87
233.493	-2.77
233.71	1.92
233.927	1.69
234.144	5.87
234.361	2.25
234.578	-1.75
234.795	4.53
235.012	4.75
235.229	10.53
235.446	10.42
235.663	10.89
235.879	8.43
236.096	5.25
236.313	-0.91
236.53	1.55
236.747	4.15
236.964	5.03
237.181	2.36
237.397	4.87
237.614	0.57
237.831	7.01
238.048	7.78
238.264	10.03
238.481	14.51
238.698	16.57
238.915	12.97
239.131	23.79
239.348	20.68
239.565	22.93
239.781	19.3
239.998	17.29
240.215	13.25
240.431	19.94
240.648	21.75
240.865	18.92
241.081	19.82
241.298	18.57
241.514	15.21
241.731	18.18
241.947	16.27
242.164	17.5
242.38	17.94
242.597	20.84
242.814	18.19
243.03	17.15
243.246	18.02
243.463	16.87
243.679	18.9
243.896	18.89
244.112	16.62
244.329	15.23
244.545	13.54
244.762	11.45
244.978	7.24
245.194	7.14
245.411	9.81
245.627	10.6
245.843	10.35
246.06	9.83
246.276	9.42
246.492	10.52
246.709	12.52
246.925	12.37
247.141	13.15
247.357	12.75
247.574	12.2
247.79	12.3
248.006	12.22
248.222	14.02
248.439	12.66
248.655	12.85
248.871	13.89
249.087	13.05
249.303	12.36
249.519	11.68
249.736	12.59
249.952	12.32
250.168	9.8
250.384	9.51
250.6	4.94
250.816	5.92
251.032	4.31
251.248	4.43
251.464	5
251.68	8.33
251.896	9.04
252.112	8.96
252.328	12.42
252.544	14.53
252.76	12.31
252.976	12.58
253.192	12.98
253.408	12.56
253.624	11.46
253.84	11.52
254.056	10.75
254.272	10.19
254.487	8.67
254.703	6.82
254.919	5.06
255.135	9.47
255.351	10.4
255.567	10.59
255.782	13.58
255.998	12.59
256.214	10.52
256.43	8.57
256.646	11.56
256.861	12.7
257.077	9.49
257.293	6.41
257.508	5.02
257.724	5.42
257.94	7.19
258.155	5.45
258.371	6.89
258.587	8.45
258.802	9.52
259.018	9.52
259.234	10.72
259.449	11.7
259.665	11.7
259.88	12.11
260.096	12.61
260.312	11.68
260.527	11.8
260.743	11.12
260.958	10.51
261.174	10.33
261.389	9.44
261.605	7.47
261.82	7.1
262.036	7.49
262.251	6.84
262.466	6.04
262.682	7.17
262.897	7.81
263.113	8.43
263.328	8.75
263.543	6.78
263.759	6.53
263.974	8.65
264.189	6.19
264.405	5.66
264.62	6.11
264.835	6.84
265.051	6.01
265.266	6.45
265.481	7.45
265.696	8.59
265.912	10.42
266.127	11.36
266.342	12.13
266.557	13.3
266.773	12.94
266.988	13.17
267.203	13.06
267.418	14.43
267.633	13.32
267.848	13.48
268.064	12.46
268.279	13.31
268.494	11.85
268.709	11.43
268.924	12.3
269.139	12.1
269.354	11.1
269.569	9.63
269.784	8.89
269.999	8.52
270.214	6.57
270.429	6.63
270.644	6.9
270.859	9.4
271.074	9.46
271.289	7.78
271.504	8.36
271.719	7.49
271.934	8.15
272.149	6.92
272.363	8.23
272.578	9.07
272.793	9.67
273.008	7.56
273.223	5.25
273.438	5.97
273.653	5.54
273.867	4.37
274.082	6.36
274.297	6.51
274.512	7.93
274.726	6.88
274.941	7.67
275.156	6.51
275.371	7.68
275.585	9.7
275.8	8.34
276.015	9.62
276.229	11.91
276.444	9.27
276.659	8.59
276.873	7.73
277.088	5.97
277.302	5.62
277.517	8.15
277.732	9.77
277.946	8.42
278.161	7.2
278.375	5.72
278.59	4.39
278.804	4.85
279.019	6.04
279.233	6.68
279.448	8.91
279.662	8.95
279.877	6.95
280.091	5.14
280.306	6.51
280.52	9.03
280.735	9.37
280.949	10.36
281.163	10.67
281.378	10.66
281.592	11.09
281.806	10.81
282.021	9.58
282.235	10.6
282.449	10.65
282.664	11.03
282.878	10.12
283.092	11.75
283.307	10.79
283.521	11.48
283.735	10.65
283.949	9.31
284.164	10.82
284.378	11.32
284.592	11.12
284.806	12.09
285.02	10
285.234	9.56
285.449	8.26
285.663	8.63
285.877	7.25
286.091	7.5
286.305	8.7
286.519	8.06
286.733	8.99
286.947	8.06
287.161	8.4
287.375	10.54
287.589	11.99
287.803	12.06
288.017	10.39
288.231	11.74
288.445	12.88
288.659	12.36
288.873	10.66
289.087	10.56
289.301	9.87
289.515	9.53
289.729	7.67
289.943	7.1
290.157	8.49
290.371	11.86
290.584	11.2
290.798	9.29
291.012	9.25
291.226	9.93
291.44	8.31
291.654	8.87
291.867	6.96
292.081	7.76
292.295	7.51
292.509	7.14
292.722	4.8
292.936	6.23
293.15	6.88
293.364	7.06
293.577	7.99
293.791	10.06
294.005	10.57
294.218	13.02
294.432	13.62
294.645	13.32
294.859	12.35
295.073	12.73
295.286	12.34
295.5	13.61
295.713	12.62
295.927	13.82
296.14	12.66
296.354	12.71
296.568	12.18
296.781	11.61
296.994	12.08
297.208	12.45
297.421	13.09
297.635	12.83
297.848	11.17
298.062	11.31
298.275	8.56
298.489	9.08
298.702	8.64
298.915	8.75
299.129	8.78
299.342	9.31
299.555	8.6
299.769	6.78
299.982	7.42
300.195	9.89
300.409	10.16
300.622	12.09
300.835	11.94
301.048	12.9
301.262	12.56
301.475	11.08
301.688	8.73
301.901	10.37
302.115	10.26
302.328	9.75
302.541	7.48
302.754	8.5
302.967	8.68
303.18	7.48
303.393	7.98
303.607	5.97
303.82	6.96
304.033	8.66
304.246	7.36
304.459	8.86
304.672	8.55
304.885	8.62
305.098	8.86
305.311	9.61
305.524	9.37
305.737	9.86
305.95	13.75
306.163	14.24
306.376	13.61
306.589	13.56
306.802	13.03
307.015	13.18
307.228	14.25
307.44	13.64
307.653	12.96
307.866	13.62
308.079	13.36
308.292	12.47
308.505	12.58
308.718	13.55
308.93	12.63
309.143	12.32
309.356	12.14
309.569	11.51
309.781	11.36
309.994	10.68
310.207	10.9
310.42	9.58
310.632	9.74
310.845	9.12
311.058	8.75
311.27	10.23
311.483	10.47
311.696	11.1
311.908	10.09
312.121	9.53
312.333	11.24
312.546	11.08
312.759	11.5
312.971	11.24
313.184	11.5
313.396	10.74
313.609	8.6
313.821	7.81
314.034	6.23
314.246	7.55
314.459	7.82
314.671	6.56
314.884	6.27
315.096	4.85
315.309	3.88
315.521	5.01
315.733	5.03
315.946	6.92
316.158	8.61
316.371	7.23
316.583	6.02
316.795	7.11
317.008	6.48
317.22	7.47
317.432	8.24
317.644	7.65
317.857	5.9
318.069	5.18
318.281	4.9
318.494	4.81
318.706	5.75
318.918	7.02
319.13	7.25
319.342	7.07
319.555	5.68
319.767	8.1
319.979	7.54
320.191	9.75
320.403	11.26
320.615	12.79
320.827	11.56
321.039	13.85
321.252	13.95
321.464	12.83
321.676	13.29
321.888	13.98
322.1	13.89
322.312	15.66
322.524	15.52
322.736	14.43
322.948	12.17
323.16	11.62
323.372	11.23
323.584	10.67
323.796	11.08
324.007	10.83
324.219	11.86
324.431	11.25
324.643	10.16
324.855	8.43
325.067	9.18
325.279	11.24
325.491	11.13
325.702	10.19
325.914	10.45
326.126	10.42
326.338	9.45
326.55	7.33
326.761	7.05
326.973	7.98
327.185	10.26
327.396	10.18
327.608	6.8
327.82	7.58
328.032	7.2
328.243	7.33
328.455	7.36
328.666	10.41
328.878	11.48
329.09	12.49
329.301	10.83
329.513	9.62
329.725	10.39
329.936	12.95
330.148	13.9
330.359	14.81
330.571	16.52
330.782	16.61
330.994	15.73
331.205	16.6
331.417	16.1
331.628	18.23
331.84	19.23
332.051	19.32
332.262	19.75
332.474	18.47
332.685	18.35
332.897	18.02
333.108	17.82
333.319	16.71
333.531	16.26
333.742	16.2
333.953	15.58
334.165	14.89
334.376	12.91
334.587	12.88
334.799	12.31
335.01	12.24
335.221	9.93
335.432	9.59
335.644	10.76
335.855	9.82
336.066	8.72
336.277	9.05
336.488	9.06
336.7	10.08
336.911	8.94
337.122	9.84
337.333	9.95
337.544	10.86
337.755	11.24
337.966	10.75
338.177	11.34
338.388	12.33
338.599	12.5
338.811	12.78
339.022	12.73
339.233	13.11
339.444	13.54
339.655	13.94
339.866	14.63
340.076	13.37
340.287	13.67
340.498	14.85
340.709	13.45
340.92	12.96
341.131	11.21
341.342	11.48
341.553	11.65
341.764	11.08
341.975	10.33
342.185	9.25
342.396	10.38
342.607	10.77
342.818	9.44
343.029	10.26
343.239	10.59
343.45	11.1
343.661	11.22
343.872	10.96
344.082	10.98
344.293	10.58
344.504	12.77
344.714	13.53
344.925	12.01
345.136	12.32
345.346	12.68
345.557	12.89
345.768	13.29
345.978	12.47
346.189	13.04
346.399	12.76
346.61	14.69
346.821	13
347.031	11.59
347.242	11.89
347.452	11.58
347.663	11.1
347.873	10.13
348.084	9.76
348.294	9.62
348.504	8.58
348.715	8.56
348.925	6.69
349.136	7.68
349.346	9.09
349.557	9.55
349.767	9.62
349.977	9.97
350.188	11.02
350.398	12.32
350.608	12.75
350.819	12.78
351.029	13.01
351.239	13.96
351.449	13.21
351.66	11.58
351.87	11.54
352.08	10.74
352.29	11.83
352.501	10.59
352.711	10.09
352.921	10.68
353.131	10.58
353.341	9.73
353.552	9.21
353.762	9.08
353.972	10.8
354.182	10.73
354.392	11.93
354.602	11.1
354.812	11.85
355.022	11.15
355.232	9.53
355.442	11.18
355.652	11.64
355.862	11.6
356.072	11.97
356.282	11.21
356.492	10.09
356.702	10.59
356.912	10.49
357.122	9.57
357.332	9.22
357.542	9.89
357.752	8.86
357.962	8.93
358.171	8.74
358.381	8.41
358.591	8.98
358.801	9.88
359.011	9.42
359.221	8.93
359.43	9.18
359.64	10.08
359.85	9.51
360.06	8.63
360.269	8.27
360.479	8.65
360.689	9.46
360.899	9.15
361.108	9.26
361.318	9.94
361.528	9.77
361.737	10.46
361.947	9.82
362.156	10.45
362.366	11.32
362.576	11.59
362.785	11.02
362.995	11.15
363.204	11.33
363.414	11.59
363.623	11.46
363.833	11.71
364.042	11.29
364.252	12.08
364.461	11.86
364.671	11.71
364.88	12.4
365.09	13.24
365.299	11.8
365.509	12.33
365.718	11.9
365.927	11.44
366.137	11.72
366.346	11.79
366.555	10.86
366.765	11.18
366.974	11.09
367.183	11.05
367.393	10.59
367.602	11.66
367.811	11.09
368.021	11.39
368.23	10.79
368.439	10.2
368.648	9.97
368.857	10.04
369.067	10.12
369.276	9.9
369.485	9.38
369.694	9.46
369.903	8.83
370.112	8.58
370.321	7.79
370.531	7.77
370.74	8.14
370.949	8.29
371.158	8.44
371.367	8.14
371.576	8.71
371.785	8.07
371.994	8.58
372.203	8.99
372.412	9.43
372.621	9.75
372.83	9.91
373.039	9.99
373.248	9.43
373.457	9.7
373.666	9.47
373.874	9.85
374.083	10.44
374.292	9.67
374.501	9.66
374.71	8.52
374.919	8.03
375.128	8.82
375.336	8.7
375.545	8.59
375.754	8.81
375.963	8.19
376.171	7.64
376.38	8.4
376.589	8.11
376.798	7.62
377.006	8.91
377.215	9.34
377.424	8.83
377.632	8.6
377.841	8.71
378.05	8.16
378.258	9.06
378.467	8.91
378.675	8.11
378.884	8.34
379.093	8.48
379.301	7.29
379.51	7.28
379.718	7.6
379.927	8.34
380.135	7.97
380.344	7.77
380.552	7.96
380.761	8.2
380.969	7.85
381.177	8.44
381.386	8.25
381.594	8.69
381.803	8.39
382.011	7.85
382.219	7.53
382.428	7.82
382.636	7.8
382.845	7.3
383.053	7.03
383.261	7.69
383.469	7.15
383.678	7.67
383.886	7.13
384.094	7.17
384.302	6.93
384.511	5.95
384.719	6.27
384.927	6.49
385.135	6.52
385.343	6.46
385.552	5.94
385.76	6.21
385.968	6.13
386.176	6.48
386.384	6.53
386.592	6.43
386.8	7.02
387.008	6.68
387.216	6.76
387.424	6.42
387.633	6.63
387.841	6.65
388.049	6.47
388.257	5.98
388.465	6.18
388.672	6.69
388.88	6.54
389.088	6.08
389.296	6.28
389.504	5.61
389.712	5.61
389.92	5.28
390.128	5.01
390.336	4.53
390.544	4.95
390.751	4.28
390.959	3.83
391.167	4.36
391.375	4.67
391.583	4.5
391.79	5.08
391.998	5.22
392.206	4.94
392.414	5.1
392.621	5.37
392.829	5.33
393.037	5.55
393.244	5.28
393.452	5.16
393.66	5.11
393.867	4.9
394.075	4.79
394.283	4.93
394.49	5.38
394.698	5.36
394.905	5.32
395.113	4.87
395.32	5.2
395.528	5.4
395.735	5.37
395.943	5.49
396.15	5.75
396.358	5.56
396.565	5.1
396.773	4.95
396.98	5.03
397.188	5.48
397.395	5.62
397.602	5.17
397.81	5.32
398.017	5.38
398.225	5.52
398.432	5.67
398.639	5.9
398.847	6.35
399.054	6.33
399.261	6.37
399.468	5.7
399.676	5.7
399.883	5.81
400.09	5.73
400.297	5.37
400.505	5.67
400.712	5.5
400.919	5.7
401.126	5.37
401.333	5.29
401.54	5.3
401.748	5.7
401.955	5.21
402.162	5.21
402.369	5.02
402.576	5.16
402.783	4.56
402.99	4.75
403.197	4.1
403.404	4.13
403.611	3.89
403.818	3.79
404.025	3.71
404.232	4.15
404.439	4.17
404.646	4.25
404.853	4.44
405.06	4.38
405.267	4.53
405.474	5.1
405.681	5.28
405.887	5.79
406.094	5.87
406.301	5.88
406.508	6.13
406.715	6.23
406.922	6.3
407.128	5.93
407.335	6.23
407.542	6.14
407.749	6.18
407.955	6.06
408.162	5.98
408.369	5.71
408.575	5.59
408.782	5.37
408.989	5.3
409.195	4.89
409.402	5.15
409.609	4.86
409.815	4.75
410.022	4.44
410.228	4.26
410.435	3.94
410.642	4.03
410.848	4.32
411.055	4.34
411.261	4.36
411.468	4.39
411.674	4.02
411.881	3.88
412.087	3.75
412.294	3.84
412.5	3.89
412.706	4.22
412.913	4.29
413.119	4.42
413.326	3.93
413.532	3.78
413.738	4.04
413.945	4.42
414.151	4.61
414.357	4.57
414.564	4.48
414.77	4.29
414.976	4.15
415.182	4.25
415.389	4.11
415.595	4.22
415.801	4.17
416.007	3.96
416.214	3.72
416.42	3.73
416.626	3.92
416.832	4.07
417.038	4.21
417.244	4.06
417.45	4.07
417.657	4.19
417.863	4.16
418.069	4.34
418.275	4.47
418.481	4.31
418.687	4.35
418.893	4.19
419.099	4.01
419.305	4.27
419.511	4.3
419.717	4.09
419.923	3.95
420.129	4.09
420.335	3.96
420.541	3.93
420.746	4.11
420.952	4.24
421.158	4.22
421.364	4.33
421.57	4.09
421.776	4.1
421.982	4.37
422.187	4.45
422.393	4.51
422.599	4.56
422.805	4.63
423.01	4.66
423.216	4.55
423.422	4.55
423.628	4.51
423.833	4.59
424.039	4.68
424.245	4.37
424.45	4.32
424.656	4.28
424.862	4.33
425.067	4.3
425.273	4.2
425.478	4.09
425.684	4.16
425.889	4.17
426.095	4.18
426.301	4.03
426.506	4.21
426.712	4.13
426.917	4.07
427.123	3.94
427.328	3.99
427.533	4.14
427.739	4.41
427.944	4.33
428.15	4.28
428.355	4.2
428.561	4.32
428.766	4.28
428.971	4.18
429.177	4.38
429.382	4.47
429.587	4.44
429.793	4.41
429.998	4.21
430.203	4.09
430.408	4.14
430.614	4
430.819	4.04
431.024	4.05
431.229	4.3
431.434	4.14
431.64	3.93
431.845	3.88
432.05	3.82
432.255	3.88
432.46	4.08
432.665	4.13
432.87	4.16
433.076	4.08
433.281	4.01
433.486	4.09
433.691	4.23
433.896	4.32
434.101	4.33
434.306	4.36
434.511	4.18
434.716	4.08
434.921	3.9
435.126	4.1
435.331	4.08
435.535	4.1
435.74	3.85
435.945	3.75
436.15	3.8
436.355	3.69
436.56	3.91
436.765	4.02
436.97	4.03
437.174	3.96
437.379	3.88
437.584	3.98
437.789	4.02
437.993	3.94
438.198	3.83
438.403	3.86
438.608	3.97
438.812	3.81
439.017	3.78
439.222	3.79
439.426	3.88
439.631	3.98
439.836	3.9
440.04	3.91
440.245	4.08
440.45	4.06
440.654	4.08
440.859	4.08
441.063	4.02
441.268	4.12
441.472	3.95
441.677	4.1
441.881	3.93
442.086	4.06
442.29	4.05
442.495	4.02
442.699	4.08
442.904	4.1
443.108	4.1
443.312	4.11
443.517	3.89
443.721	4.03
443.925	3.66
444.13	3.75
444.334	3.68
444.538	3.7
444.743	3.62
444.947	3.65
445.151	3.5
445.356	3.55
445.56	3.48
445.764	3.64
445.968	3.64
446.173	3.68
446.377	3.72
446.581	3.63
446.785	3.67
446.989	3.8
447.193	3.81
447.398	3.86
447.602	3.9
447.806	4.01
448.01	4.14
448.214	4.16
448.418	4.26
448.622	4.16
448.826	4.32
449.03	4.25
449.234	4.13
449.438	4.18
449.642	4.13
449.846	3.91
450.05	3.79
450.254	3.71
450.458	3.76
450.662	3.87
450.866	3.82
451.069	3.61
451.273	3.57
451.477	3.61
451.681	3.52
451.885	3.65
452.089	3.73
452.292	3.92
452.496	3.81
452.7	3.84
452.904	3.87
453.107	3.94
453.311	4.04
453.515	4.15
453.719	4.2
453.922	4.29
454.126	4.28
454.33	4.04
454.533	3.97
454.737	3.95
454.94	3.95
455.144	4.03
455.348	3.93
455.551	3.83
455.755	3.65
455.958	3.47
456.162	3.24
456.365	3.35
456.569	3.75
456.772	3.86
456.976	3.79
457.179	3.7
457.383	3.44
457.586	3.57
457.79	3.77
457.993	3.79
458.196	4.01
458.4	4.29
458.603	4.12
458.807	3.99
459.01	3.96
459.213	4.11
459.417	4.12
459.62	4.08
459.823	4.05
460.026	3.9
460.23	3.95
460.433	3.8
460.636	3.68
460.839	3.72
461.042	3.81
461.246	3.72
461.449	3.73
461.652	3.71
461.855	3.88
462.058	3.87
462.261	3.79
462.464	3.75
462.668	3.87
462.871	3.74
463.074	3.67
463.277	3.55
463.48	3.49
463.683	3.33
463.886	3.25
464.089	3.23
464.292	3.4
464.495	3.63
464.698	3.67
464.901	3.54
465.104	3.74
465.306	3.73
465.509	3.85
465.712	3.96
465.915	3.92
466.118	4.08
466.321	3.89
466.524	3.83
466.726	3.75
466.929	3.77
467.132	3.9
467.335	3.76
467.538	3.91
467.74	3.93
467.943	3.9
468.146	3.95
468.348	3.89
468.551	4.12
468.754	4.14
468.956	4.29
469.159	4.22
469.362	4.18
469.564	4.2
469.767	4.19
469.969	3.88
470.172	3.99
470.375	4.07
470.577	4.2
470.78	4.09
470.982	4.08
471.185	4.02
471.387	3.95
471.59	4.1
471.792	4.25
471.995	4.24
472.197	4.61
472.399	4.45
472.602	4.64
472.804	4.5
473.007	4.64
473.209	4.46
473.411	4.41
473.614	4.54
473.816	4.24
474.018	4.16
474.22	4.27
474.423	4
474.625	4.04
474.827	3.74
475.03	3.77
475.232	3.71
475.434	3.74
475.636	3.77
475.838	3.9
476.04	3.87
476.243	3.82
476.445	3.55
476.647	3.77
476.849	3.72
477.051	3.76
477.253	3.65
477.455	3.52
477.657	3.74
477.859	3.69
478.061	3.42
478.263	3.57
478.465	3.76
478.667	3.86
478.869	3.68
479.071	3.78
479.273	3.68
479.475	3.71
479.677	3.71
479.879	3.61
480.081	3.58
480.283	3.72
480.485	3.84
480.686	3.5
480.888	3.47
481.09	3.48
481.292	3.49
481.494	3.53
481.695	3.54
481.897	3.61
482.099	3.61
482.301	3.71
482.502	3.7
482.704	3.62
482.906	3.74
483.107	3.75
483.309	3.79
483.511	3.7
483.712	3.76
483.914	3.77
484.115	3.75
484.317	3.77
484.519	3.74
484.72	3.73
484.922	3.75
485.123	3.74
485.325	3.69
485.526	3.7
485.728	3.76
485.929	3.69
486.131	3.65
486.332	3.61
486.534	3.59
486.735	3.66
486.936	3.72
487.138	3.75
487.339	3.72
487.541	3.74
487.742	3.68
487.943	3.66
488.144	3.71
488.346	3.72
488.547	3.77
488.748	3.71
488.95	3.61
489.151	3.57
489.352	3.48
489.553	3.46
489.755	3.54
489.956	3.55
490.157	3.59
490.358	3.53
490.559	3.47
490.76	3.44
490.961	3.45
491.163	3.43
491.364	3.47
491.565	3.51
491.766	3.57
491.967	3.57
492.168	3.6
492.369	3.55
492.57	3.56
492.771	3.59
492.972	3.62
493.173	3.69
493.374	3.78
493.575	3.69
493.776	3.74
493.976	3.76
494.177	3.74
494.378	3.75
494.579	3.74
494.78	3.76
494.981	3.97
495.182	3.89
495.382	3.85
495.583	3.76
495.784	3.78
495.985	3.65
496.185	3.54
496.386	3.48
496.587	3.33
496.788	3.45
496.988	3.47
497.189	3.37
497.39	3.42
497.59	3.45
497.791	3.44
497.992	3.46
498.192	3.63
498.393	3.73
498.593	3.85
498.794	3.93
498.994	3.85
499.195	3.88
499.395	3.92
499.596	4.01
499.796	4.12
499.997	4.25
500.197	4.28
500.398	4.15
500.598	3.97
500.799	3.91
500.999	3.94
501.199	3.97
501.4	4.12
501.6	4.11
501.801	3.97
502.001	3.85
502.201	3.67
502.402	3.65
502.602	3.58
502.802	3.53
503.002	3.54
503.203	3.46
503.403	3.5
503.603	3.43
503.803	3.49
504.003	3.64
504.204	3.58
504.404	3.56
504.604	3.52
504.804	3.72
505.004	3.97
505.204	3.81
505.404	3.98
505.604	3.86
505.804	3.73
506.005	3.65
506.205	3.67
506.405	3.81
506.605	3.96
506.805	4.07
507.005	3.92
507.204	3.8
507.404	3.98
507.604	3.88
507.804	3.96
508.004	3.95
508.204	3.94
508.404	3.93
508.604	3.92
508.804	3.9
509.003	3.81
509.203	3.85
509.403	3.84
509.603	3.77
509.803	3.67
510.002	3.71
510.202	3.72
510.402	3.64
510.602	3.62
510.801	3.6
511.001	3.58
511.201	3.63
511.4	3.52
511.6	3.6
511.8	3.63
511.999	3.8
512.199	3.76
512.398	3.82
512.598	3.94
512.797	3.86
512.997	4.05
513.197	3.95
513.396	3.87
513.596	4
513.795	3.96
513.994	3.99
514.194	4.01
514.393	3.96
514.593	3.97
514.792	3.99
514.992	4.12
515.191	4.01
515.39	4.27
515.59	4.38
515.789	4.46
515.988	4.42
516.188	4.3
516.387	4.3
516.586	4.34
516.786	4.28
516.985	4.34
517.184	4.24
517.383	4.09
517.582	3.93
517.782	3.98
517.981	3.81
518.18	3.88
518.379	3.93
518.578	3.89
518.777	4.01
518.976	4.06
519.176	4.01
519.375	4.07
519.574	4.13
519.773	4.22
519.972	4.19
520.171	4.26
520.37	4.25
520.569	4.32
520.768	4.43
520.967	4.26
521.166	4.26
521.365	4.17
521.564	3.98
521.762	4.01
521.961	3.97
522.16	3.96
522.359	3.96
522.558	4.2
522.757	4.1
522.956	4.14
523.154	4.19
523.353	4.28
523.552	4.27
523.751	4.36
523.949	4.32
524.148	4.42
524.347	4.56
524.546	4.71
524.744	4.64
524.943	4.76
525.142	4.71
525.34	4.73
525.539	4.66
525.737	4.78
525.936	4.84
526.135	4.78
526.333	4.72
526.532	4.62
526.73	4.56
526.929	4.49
527.127	4.39
527.326	4.3
527.524	4.3
527.723	4.31
527.921	4.23
528.12	4.24
528.318	4.27
528.516	4.28
528.715	4.24
528.913	4.28
529.112	4.26
529.31	4.24
529.508	4.33
529.707	4.35
529.905	4.37
530.103	4.4
530.301	4.36
530.5	4.44
530.698	4.44
530.896	4.46
531.094	4.44
531.293	4.46
531.491	4.65
531.689	4.62
531.887	4.6
532.085	4.66
532.283	4.75
532.481	4.84
532.68	4.77
532.878	4.74
533.076	4.85
533.274	4.82
533.472	4.84
533.67	4.78
533.868	4.76
534.066	4.71
534.264	4.62
534.462	4.55
534.66	4.5
534.858	4.53
535.056	4.44
535.253	4.43
535.451	4.43
535.649	4.47
535.847	4.44
536.045	4.52
536.243	4.54
536.441	4.7
536.638	4.67
536.836	4.77
537.034	4.8
537.232	4.93
537.43	4.92
537.627	5.05
537.825	5
538.023	5.15
538.22	5.17
538.418	5.3
538.616	5.32
538.813	5.42
539.011	5.3
539.209	5.2
539.406	5.23
539.604	5.21
539.801	5.21
539.999	5.16
540.196	5.06
540.394	4.91
540.591	4.86
540.789	4.8
540.986	4.8
541.184	4.85
541.381	4.84
541.579	4.87
541.776	4.93
541.974	4.9
542.171	4.92
542.368	4.91
542.566	4.98
542.763	5.05
542.96	5.05
543.158	5.08
543.355	5.18
543.552	5.22
543.75	5.17
543.947	5.1
544.144	5.16
544.341	5.21
544.539	5.23
544.736	5.22
544.933	5.15
545.13	5.16
545.327	5.23
545.524	5.24
545.722	5.3
545.919	5.4
546.116	5.56
546.313	5.51
546.51	5.59
546.707	5.59
546.904	5.78
547.101	5.76
547.298	5.69
547.495	5.69
547.692	5.61
547.889	5.57
548.086	5.53
548.283	5.44
548.48	5.42
548.677	5.4
548.874	5.52
549.07	5.39
549.267	5.43
549.464	5.59
549.661	5.87
549.858	5.83
550.055	5.94
550.251	6.15
550.448	6.03
550.645	6.3
550.842	6.25
551.038	6.22
551.235	6.31
551.432	6.54
551.628	6.52
551.825	6.19
552.022	6.13
552.218	6.13
552.415	6.06
552.612	6.24
552.808	6.08
553.005	6.2
553.201	6.13
553.398	6.05
553.594	5.88
553.791	6.05
553.987	6.09
554.184	6.13
554.38	6.05
554.577	6.08
554.773	6.15
554.97	6.05
555.166	5.89
555.362	6.02
555.559	6.12
555.755	6.23
555.952	6.13
556.148	6.28
556.344	6.37
556.541	6.44
556.737	6.47
556.933	6.54
557.129	6.77
557.326	6.89
557.522	7.06
557.718	7.25
557.914	7.26
558.11	7.21
558.307	7.22
558.503	7.36
558.699	7.46
558.895	7.41
559.091	7.19
559.287	7.31
559.483	7.4
559.679	7.24
559.876	7.1
560.072	7.19
560.268	7.26
560.464	7.38
560.66	7.34
560.856	7.34
561.052	7.21
561.247	7.25
561.443	6.95
561.639	7.02
561.835	7.03
562.031	7
562.227	6.94
562.423	7.08
562.619	6.95
562.815	6.9
563.01	7.09
563.206	7.37
563.402	7.45
563.598	7.73
563.793	7.8
563.989	7.87
564.185	7.79
564.381	7.56
564.576	7.48
564.772	7.51
564.968	7.6
565.163	7.31
565.359	7.27
565.555	7.39
565.75	7.32
565.946	7.26
566.141	7.35
566.337	7.53
566.532	7.73
566.728	7.65
566.923	7.72
567.119	7.97
567.314	8
567.51	7.99
567.705	7.93
567.901	7.87
568.096	7.91
568.292	7.85
568.487	7.69
568.682	7.68
568.878	7.67
569.073	7.64
569.268	7.38
569.464	7.55
569.659	7.48
569.854	7.53
570.05	7.61
570.245	7.61
570.44	7.79
570.635	8.04
570.831	8.12
571.026	8.32
571.221	8.35
571.416	8.49
571.611	8.5
571.806	8.58
572.002	8.51
572.197	8.44
572.392	8.39
572.587	8.32
572.782	8.16
572.977	8.33
573.172	8.24
573.367	8.27
573.562	8.23
573.757	8.2
573.952	8.2
574.147	8.26
574.342	8.37
574.537	8.42
574.732	8.37
574.927	8.34
575.121	8.13
575.316	8.13
575.511	8.03
575.706	7.88
575.901	7.96
576.096	7.97
576.29	7.97
576.485	7.91
576.68	7.97
576.875	7.85
577.069	7.96
577.264	8.14
577.459	8.27
577.654	8.19
577.848	8.36
578.043	8.31
578.238	8.28
578.432	8.38
578.627	8.58
578.821	8.61
579.016	8.73
579.21	8.8
579.405	8.88
579.6	8.87
579.794	9.08
579.989	9.28
580.183	9.28
580.378	9.43
580.572	9.36
580.766	9.24
580.961	9.22
581.155	9.17
581.35	9.24
581.544	9.25
581.738	9.18
581.933	9.27
582.127	8.95
582.321	9.06
582.516	8.99
582.71	8.87
582.904	9.09
583.099	9.18
583.293	9.47
583.487	9.29
583.681	9.21
583.875	9.16
584.07	9.19
584.264	9.24
584.458	9.01
584.652	9.08
584.846	9.21
585.04	9.35
585.234	9.23
585.428	9.14
585.623	9.44
585.817	9.64
586.011	9.67
586.205	9.49
586.399	9.66
586.593	9.75
586.787	9.8
586.981	9.99
587.174	9.64
587.368	9.68
587.562	9.71
587.756	9.32
587.95	8.92
588.144	8.98
588.338	9.2
588.532	9.23
588.725	9.33
588.919	9.14
589.113	8.84
589.307	8.85
589.501	8.99
589.694	8.83
589.888	9.01
590.082	9.12
590.275	9.04
590.469	8.82
590.663	8.93
590.856	8.76
591.05	8.96
591.244	9.03
591.437	8.97
591.631	8.83
591.824	8.66
592.018	8.43
592.212	8.22
592.405	8.23
592.599	8.31
592.792	7.97
592.986	8.3
593.179	8.44
593.372	8.86
593.566	8.84
593.759	8.57
593.953	8.98
594.146	9.08
594.339	9.39
594.533	9.32
594.726	9.31
594.92	9.39
595.113	9.46
595.306	9.41
595.499	8.93
595.693	8.98
595.886	9.19
596.079	9.24
596.272	9.3
596.466	9.12
596.659	9.27
596.852	9.28
597.045	9.46
597.238	9.07
597.431	8.93
597.624	9.07
597.818	9.37
598.011	9.29
598.204	9.09
598.397	9
598.59	9.14
598.783	9.02
598.976	8.94
599.169	8.6
599.362	8.9
599.555	8.88
599.748	8.79
599.941	8.61
600.134	8.67
600.326	8.64
600.519	8.9
600.712	8.81
600.905	8.92
601.098	8.99
601.291	9.37
601.483	9.52
601.676	9.42
601.869	9.59
602.062	9.39
602.255	9.44
602.447	9.49
602.64	9.27
602.833	9.6
603.025	9.47
603.218	9.43
603.411	9.26
603.603	9.19
603.796	9.3
603.989	9.24
604.181	9.24
604.374	9.22
604.566	9.17
604.759	9.07
604.951	8.75
605.144	8.75
605.336	8.7
605.529	8.72
605.721	8.66
605.914	8.56
606.106	8.52
606.299	8.78
606.491	8.9
606.683	9
606.876	9.08
607.068	9.24
607.26	9.28
607.453	9.47
607.645	9.63
607.837	9.62
608.03	9.84
608.222	9.82
608.414	9.49
608.606	9.33
608.799	9.24
608.991	9.37
609.183	9.33
609.375	9.4
609.567	9.45
609.759	9.34
609.952	9.27
610.144	8.94
610.336	9
610.528	9
610.72	8.88
610.912	8.86
611.104	8.95
611.296	8.74
611.488	8.98
611.68	8.82
611.872	8.86
612.064	8.99
612.256	9.25
612.448	9.56
612.64	9.74
612.832	9.81
613.023	10.04
613.215	9.85
613.407	10.29
613.599	10.02
613.791	10.06
613.983	9.8
614.174	9.49
614.366	9.55
614.558	9.13
614.75	8.88
614.941	9.09
615.133	8.92
615.325	9.08
615.516	9.16
615.708	9.02
615.9	9.07
616.091	9.35
616.283	9.53
616.475	9.5
616.666	9.64
616.858	9.83
617.049	9.7
617.241	9.79
617.432	9.6
617.624	9.3
617.815	9.28
618.007	8.99
618.198	8.89
618.39	9.03
618.581	8.82
618.773	9.04
618.964	8.82
619.155	8.85
619.347	8.67
619.538	8.63
619.729	8.62
619.921	8.87
620.112	9.22
620.303	9.49
620.494	9.61
620.686	9.62
620.877	9.19
621.068	9.46
621.259	9.38
621.451	9.54
621.642	9.57
621.833	9.74
622.024	9.84
622.215	9.55
622.406	9.74
622.597	9.58
622.788	9.85
622.98	10.14
623.171	10.18
623.362	10.5
623.553	10.49
623.744	10.77
623.935	10.46
624.126	10.48
624.317	10.73
624.508	10.49
624.698	10.56
624.889	10.58
625.08	10.58
625.271	10.4
625.462	10.19
625.653	10.21
625.844	10.05
626.034	10.12
626.225	9.78
626.416	9.82
626.607	9.8
626.798	9.56
626.988	9.3
627.179	9.16
627.37	9.19
627.56	9.25
627.751	8.91
627.942	9.02
628.132	9.15
628.323	9.14
628.514	8.76
628.704	8.84
628.895	8.86
629.085	9.06
629.276	9.22
629.466	9.28
629.657	8.72
629.847	9.07
630.038	9.15
630.228	9.32
630.419	9.46
630.609	9.63
630.8	9.28
630.99	9.5
631.181	9.52
631.371	9.17
631.561	9.16
631.752	9.91
631.942	10.16
632.132	10.17
632.323	9.86
632.513	9.71
632.703	9.88
632.893	10.02
633.084	10.16
633.274	9.9
633.464	9.8
633.654	10.1
633.844	9.95
634.034	9.79
634.225	9.43
634.415	9.45
634.605	9.95
634.795	10.01
634.985	9.89
635.175	9.58
635.365	9.9
635.555	10.07
635.745	10.01
635.935	10.13
636.125	9.77
636.315	10.01
636.505	10.15
636.695	9.74
636.885	9.53
637.075	9.69
637.265	9.88
637.455	9.61
637.644	9.39
637.834	9.3
638.024	9.25
638.214	9.29
638.404	9.07
638.593	9.07
638.783	9.35
638.973	9.56
639.163	9.36
639.352	9.49
639.542	9.72
639.732	10.09
639.921	9.82
640.111	10.1
640.301	10.2
640.49	10.37
640.68	10.48
640.87	10.26
641.059	10.13
641.249	10.58
641.438	10.36
641.628	10.03
641.817	9.92
642.007	10.05
642.196	9.6
642.386	9.62
642.575	9.55
642.764	9.15
642.954	9.27
643.143	9.35
643.333	8.89
643.522	8.92
643.711	9.25
643.901	9.53
644.09	9.2
644.279	9.24
644.469	9.43
644.658	9.72
644.847	10.01
645.036	10.05
645.226	9.82
645.415	9.32
645.604	9.22
645.793	8.96
645.982	9.23
646.171	9.55
646.361	9.51
646.55	9.51
646.739	9.23
646.928	9.07
647.117	9.24
647.306	9.42
647.495	10.47
647.684	10.85
647.873	10.99
648.062	10.5
648.251	10.47
648.44	10.27
648.629	10.27
648.818	10.24
649.007	10.36
649.196	10.28
649.384	9.95
649.573	9.43
649.762	8.9
649.951	8.98
650.14	9.16
650.328	9.13
650.517	9.55
650.706	9.5
650.895	9.85
651.083	10.07
651.272	9.56
651.461	10.31
651.65	10.2
651.838	10.35
652.027	10.36
652.216	10.4
652.404	10.07
652.593	9.78
652.781	9.69
652.97	9.42
653.158	8.91
653.347	9.39
653.535	8.6
653.724	8.62
653.912	8.61
654.101	8.92
654.289	8.4
654.478	8.42
654.666	8.72
654.855	8.77
655.043	8.79
655.231	9
655.42	8.56
655.608	9.02
655.796	9.4
655.985	9.33
656.173	9.13
656.361	9.4
656.55	9.96
656.738	9.87
656.926	10.15
657.114	9.92
657.302	10.03
657.491	10.33
657.679	10.16
657.867	10.09
658.055	9.97
658.243	9.92
658.431	10.49
658.619	10.11
658.807	10.01
658.996	9.7
659.184	10.34
659.372	10.01
659.56	10
659.748	9.94
659.936	10.12
660.124	10.17
660.311	9.93
660.499	9.49
660.687	9.62
660.875	9.46
661.063	9.44
661.251	9.07
661.439	9.32
661.627	9.23
661.814	9.31
662.002	9.21
662.19	9.42
662.378	9.62
662.565	9.33
662.753	9.35
662.941	9.72
663.129	10.01
663.316	9.96
663.504	9.76
663.692	9.75
663.879	9.97
664.067	9.65
664.254	9.56
664.442	9.99
664.63	10.33
664.817	10.53
665.005	10.57
665.192	10.22
665.38	10.37
665.567	10.52
665.755	10.33
665.942	10.34
666.13	10.66
666.317	10.74
666.504	10.44
666.692	10.27
666.879	10.15
667.067	10.1
667.254	10.32
667.441	10.18
667.629	10.15
667.816	10.71
668.003	10.81
668.19	10.98
668.378	10.95
668.565	10.71
668.752	10.63
668.939	10.41
669.127	10.37
669.314	10.51
669.501	10.24
669.688	10.11
669.875	9.43
670.062	8.99
670.249	8.74
670.436	8.59
670.623	8.73
670.81	8.96
670.997	8.95
671.184	9.09
671.371	9.06
671.558	9.64
671.745	10.16
671.932	10.44
672.119	10.62
672.306	10.92
672.493	11.35
672.68	11.62
672.867	11.65
673.054	11.74
673.24	11.29
673.427	11.56
673.614	11.26
673.801	10.51
673.988	10.7
674.174	10.75
674.361	10.5
674.548	10.49
674.734	10.53
674.921	10.25
675.108	10.88
675.294	11.31
675.481	11.29
675.668	10.89
675.854	11.65
676.041	11.72
676.227	11.62
676.414	11.65
676.601	10.87
676.787	10.59
676.974	11.25
677.16	10.8
677.347	10.61
677.533	10.69
677.719	11.38
677.906	10.98
678.092	10.75
678.279	10.77
678.465	11.11
678.651	11.4
678.838	11.51
679.024	11.19
679.21	11.57
679.397	11.34
679.583	11.06
679.769	10.75
679.955	10.77
680.142	11.26
680.328	11.18
680.514	10.99
680.7	10.97
680.886	10.89
681.073	10.61
681.259	10.34
681.445	10.09
681.631	10.01
681.817	10.21
682.003	10.45
682.189	10.42
682.375	10.45
682.561	9.89
682.747	9.84
682.933	10.08
683.119	10.46
683.305	10.51
683.491	11.08
683.677	10.44
683.863	10.35
684.049	10.44
684.235	10.18
684.42	10.05
684.606	10.48
684.792	11.32
684.978	11.33
685.164	11.21
685.349	11.05
685.535	10.94
685.721	11.44
685.907	10.86
686.092	10.46
686.278	10.38
686.464	10.82
686.649	10.41
686.835	10.28
687.021	9.86
687.206	10.01
687.392	10.31
687.577	10.39
687.763	10.57
687.948	11.01
688.134	11.12
688.319	10.88
688.505	10.41
688.69	10.91
688.876	10.37
689.061	10.18
689.247	10.2
689.432	9.98
689.618	9.56
689.803	9.97
689.988	10.42
690.174	10.23
690.359	10.06
690.544	10.66
690.73	11.12
690.915	11.3
691.1	11.64
691.285	11.45
691.471	11.36
691.656	11.32
691.841	11.45
692.026	10.69
692.211	11.08
692.396	11.16
692.582	10.23
692.767	9.83
692.952	9.59
693.137	9.58
693.322	9.94
693.507	10.33
693.692	10.58
693.877	10.23
694.062	10.62
694.247	9.83
694.432	9.66
694.617	10.31
694.802	9.85
694.987	9.94
695.172	9.71
695.357	9.52
695.541	9.52
695.726	9.71
695.911	9.27
696.096	8.92
696.281	9.6
696.466	9.81
696.65	9.58
696.835	9.85
697.02	9.97
697.204	10.15
697.389	10.3
697.574	10.26
697.759	10.02
697.943	10.28
698.128	10.88
698.312	10.94
698.497	11.09
698.682	11.35
698.866	11.03
699.051	11.09
699.235	10.91
699.42	10.94
699.604	10.79
699.789	11.31
699.973	10.89
700.158	10.31
700.342	10.26
700.527	10.79
700.711	10.63
700.895	10.92
701.08	10.66
701.264	10.71
701.448	10.4
701.633	10.08
701.817	9.36
702.001	10.08
702.186	10.9
702.37	11.28
702.554	10.79
702.738	10.82
702.923	11.14
703.107	11.46
703.291	11.65
703.475	12.03
703.659	12.28
703.843	13.02
704.027	12.83
704.212	12.07
704.396	11.68
704.58	11.69
704.764	12.39
704.948	12.2
705.132	12.52
705.316	12.63
705.5	12.26
705.684	12.79
705.868	12.33
706.052	11.86
706.235	11.63
706.419	11.31
706.603	10.96
706.787	10.99
706.971	11.02
707.155	10.95
707.339	10.81
707.522	10.46
707.706	10.23
707.89	10.81
708.074	11.58
708.257	11.97
708.441	12.74
708.625	13.07
708.808	12.44
708.992	11.85
709.176	11.36
709.359	12.05
709.543	12.41
709.727	12.34
709.91	11.42
710.094	11.32
710.277	11.2
710.461	11.67
710.644	11.88
710.828	11.56
711.011	12.65
711.195	12.64
711.378	11.76
711.562	12.19
711.745	12.28
711.928	12.99
712.112	12.76
712.295	13.14
712.478	12.48
712.662	11.67
712.845	12.14
713.028	11.36
713.212	11.25
713.395	11.37
713.578	10.85
713.761	11.15
713.945	10.77
714.128	10.49
714.311	9.78
714.494	9.22
714.677	9.83
714.86	9.52
715.043	10.31
715.227	10.84
715.41	11.41
715.593	11.12
715.776	10.76
715.959	11.04
716.142	11.13
716.325	11.81
716.508	12.36
716.691	12.49
716.874	13.12
717.057	12.87
717.239	12.54
717.422	12.69
717.605	12.87
717.788	11.8
717.971	11
718.154	11.13
718.337	10.9
718.519	10.34
718.702	10.29
718.885	10.3
719.068	10.34
719.25	10.2
719.433	9.13
719.616	9.74
719.798	10.9
719.981	11.98
720.164	11.92
720.346	11.96
720.529	11.36
720.712	11.18
720.894	10.7
721.077	9.92
721.259	10.03
721.442	10.21
721.624	10
721.807	10.26
721.989	9.51
722.172	9.17
722.354	9.29
722.537	10.06
722.719	9.65
722.901	8.07
723.084	8.23
723.266	8.62
723.448	8.2
723.631	7.85
723.813	8.3
723.995	8.71
724.178	9.56
724.36	8.67
724.542	8.47
724.724	9.05
724.907	10.48
725.089	9.78
725.271	10.1
725.453	11.19
725.635	11.31
725.817	10.77
725.999	10.01
726.181	10.56
726.364	12.02
726.546	11.59
726.728	11.77
726.91	12.24
727.092	13.16
727.274	12.77
727.456	13.93
727.638	14.34
727.819	14.13
728.001	15.06
728.183	13.79
728.365	13.93
728.547	14.45
728.729	13.28
728.911	12.84
729.093	12.55
729.274	12.91
729.456	11.86
729.638	12.47
729.82	13.01
730.001	12.86
730.183	13.21
730.365	12.55
730.546	12.37
730.728	12.36
730.91	12.39
731.091	13.23
731.273	12.51
731.455	12.45
731.636	11.99
731.818	11.45
731.999	11.85
732.181	11.17
732.362	10.9
732.544	11.06
732.725	11.18
732.907	11.24
733.088	11.2
733.27	11.58
733.451	11.08
733.633	10.19
733.814	10.52
733.995	10.64
734.177	11.82
734.358	12.4
734.539	12.5
734.721	14.47
734.902	13.86
735.083	14.22
735.264	13.84
735.446	14.18
735.627	14.42
735.808	14.46
735.989	13.21
736.17	13.12
736.351	12.95
736.533	12.99
736.714	10.51
736.895	11.92
737.076	10.49
737.257	11.47
737.438	11.42
737.619	12.35
737.8	12.93
737.981	14.26
738.162	13.88
738.343	13.5
738.524	13.92
738.705	14.5
738.886	13.7
739.067	14.73
739.247	14.41
739.428	13.45
739.609	13.07
739.79	12.3
739.971	10.27
740.151	10.7
740.332	10.23
740.513	9.87
740.694	10.2
740.874	9.95
741.055	8.24
741.236	7.88
741.417	9.06
741.597	8.62
741.778	8.95
741.958	9.88
742.139	9.6
742.32	10.36
742.5	10.39
742.681	10.32
742.861	9.35
743.042	11.38
743.222	10.87
743.403	11.06
743.583	11.91
743.764	11.76
743.944	12.39
744.124	14.18
744.305	14.08
744.485	14.4
744.666	15.04
744.846	16.88
745.026	15.55
745.207	16.23
745.387	16.81
745.567	16.45
745.747	15.89
745.928	15.25
746.108	12.36
746.288	11.58
746.468	11.11
746.648	9.84
746.829	9.16
747.009	10.19
747.189	9.85
747.369	9.76
747.549	9.93
747.729	11.05
747.909	11.72
748.089	12.06
748.269	12.92
748.449	13.55
748.629	13.81
748.809	13.92
748.989	13.7
749.169	13.85
749.349	14.36
749.529	15.04
749.709	14.24
749.889	13.99
750.068	14.83
750.248	15.67
750.428	14.64
750.608	14.89
750.788	15.71
750.967	16.27
751.147	16.89
751.327	16.21
751.507	15.45
751.686	16.33
751.866	17.61
752.046	17.62
752.225	18.11
752.405	19.73
752.585	19.44
752.764	19.05
752.944	17.61
753.123	16.67
753.303	16.25
753.482	17.04
753.662	17.16
753.841	16.34
754.021	16.31
754.2	14.97
754.38	13.9
754.559	14.19
754.739	13.26
754.918	14.38
755.097	15.31
755.277	14.84
755.456	14.1
755.635	14.04
755.815	13.62
755.994	13.84
756.173	13.8
756.352	14.14
756.532	13.54
756.711	13.83
756.89	13.59
757.069	12.24
757.248	12.04
757.427	11.39
757.607	10.59
757.786	10.43
757.965	10.55
758.144	10.42
758.323	9.65
758.502	11.27
758.681	12.47
758.86	11.96
759.039	12.91
759.218	12.56
759.397	14.12
759.576	14.65
759.755	15.1
759.934	14.86
760.113	14.82
760.291	16.13
760.47	15.2
760.649	14.34
760.828	13.91
761.007	13.36
761.186	12.86
761.364	11.04
761.543	10.39
761.722	10.08
761.901	8.79
762.079	8.18
762.258	6.83
762.437	8.01
762.615	8.05
762.794	8.35
762.972	8.59
763.151	9.29
763.33	10.29
763.508	10.16
763.687	10.36
763.865	10.65
764.044	11.24
764.222	12.13
764.401	11.05
764.579	11.05
764.758	10.64
764.936	11.12
765.114	11.7
765.293	11.61
765.471	10.89
765.65	11.35
765.828	12.39
766.006	12.57
766.184	11.76
766.363	13.73
766.541	12.53
766.719	13.87
766.898	14.02
767.076	14.5
767.254	14.03
767.432	15.18
767.61	14.92
767.788	14.43
767.967	13.22
768.145	13.35
768.323	11.56
768.501	13.67
768.679	12.56
768.857	11.18
769.035	9
769.213	9.27
769.391	8.63
769.569	8.23
769.747	7.83
769.925	7.01
770.103	6.48
770.281	6.85
770.459	6.03
770.636	6.22
770.814	8.27
770.992	11.93
771.17	12.69
771.348	13.86
771.525	13.81
771.703	15.88
771.881	17.31
772.059	18.09
772.236	20.96
772.414	22.15
772.592	22.85
772.769	21.92
772.947	19.04
773.125	16.59
773.302	17.71
773.48	16.72
773.657	16.71
773.835	17.86
774.013	17.88
774.19	15.55
774.368	14.59
774.545	16.06
774.723	16.02
774.9	16.83
775.077	18.5
775.255	15.79
775.432	15.3
775.61	13.76
775.787	12.42
775.964	10.54
776.142	10.39
776.319	10.56
776.496	10.9
776.674	10.42
776.851	11.87
777.028	9.56
777.205	10.04
777.382	11.59
777.56	9.89
777.737	9
777.914	9.45
778.091	7
778.268	8.37
778.445	8
778.622	8.12
778.8	4.57
778.977	6.11
779.154	5.86
779.331	3.6
779.508	6.2
779.685	8.4
779.862	11.12
780.038	12.25
780.215	9.93
780.392	10.39
780.569	10.37
780.746	12.79
780.923	15.73
781.1	16.09
781.277	18.07
781.453	15.77
781.63	13.07
781.807	10.04
781.984	10.32
782.16	8.7
782.337	7.73
782.514	9.06
782.691	7.22
782.867	4.75
783.044	3.45
783.221	3.79
783.397	5.27
783.574	8.5
783.75	11.11
783.927	12.84
784.103	14.52
784.28	15.91
784.456	14.61
784.633	15.63
784.809	15.74
784.986	18.31
785.162	19.38
785.339	19.43
785.515	18.24
785.692	18.77
785.868	14.25
786.044	14.59
786.221	15.19
786.397	15.34
786.573	15.1
786.749	14.07
786.926	14.14
787.102	13.18
787.278	10.75
787.454	11.14
787.631	10.12
787.807	12.19
787.983	10.62
788.159	8.46
788.335	5.97
788.511	4.58
788.687	7.86
788.863	7.92
789.039	9.88
789.216	14.74
789.392	14.02
789.568	12.99
789.744	17.1
789.919	18.03
790.095	15.56
790.271	19.56
790.447	21.15
790.623	20.72
790.799	19.64
790.975	18.02
791.151	14.96
791.327	15.22
791.502	16.51
791.678	12.66
791.854	13.82
792.03	16.61
792.205	15.79
792.381	15.68
792.557	12.37
792.733	13.22
792.908	8.84
793.084	11.26
793.259	12.03
793.435	9.98
793.611	7.77
793.786	6.48
793.962	5.57
794.137	5.33
794.313	9.97
794.488	10.77
794.664	12.76
794.839	14.2
795.015	11.43
795.19	14.25
795.366	15.56
795.541	16.31
795.716	19.05
795.892	20.12
796.067	18.88
796.242	15.61
796.418	15.69
796.593	13.9
796.768	17.81
796.944	18.03
797.119	14.68
797.294	14.76
797.469	16.04
797.644	14.23
797.82	11.23
797.995	10.23
798.17	8.91
798.345	8.68
798.52	7.53
798.695	6.21
798.87	5.03
799.045	5.6
799.22	3.77
799.395	3.01
799.57	3.3
799.745	5.57
799.92	9.19
800.095	11.38
800.27	15.91
800.445	16.27
800.62	17.5
800.795	19.22
800.97	18.74
801.145	22.21
801.319	23.43
801.494	21.02
801.669	18.66
801.844	15.18
802.018	16.11
802.193	14.3
802.368	14.19
802.543	11.76
802.717	10.7
802.892	12.29
803.067	12.52
803.241	11.44
803.416	11.24
803.59	11.71
803.765	12.56
803.94	11.58
804.114	10.75
804.289	8.46
804.463	10.27
804.638	11.91
804.812	9.45
804.986	9.54
805.161	8.87
805.335	8.46
805.51	10.01
805.684	8.15
805.858	4.75
806.033	7.93
806.207	7.05
806.381	5.67
806.556	5.76
806.73	5.65
806.904	4.3
807.078	7.02
807.253	12.63
807.427	12.81
807.601	15.75
807.775	18.75
807.949	16.17
808.123	19.66
808.298	23.13
808.472	21.09
808.646	23.77
808.82	21.49
808.994	21.22
809.168	19.05
809.342	16.39
809.516	14.63
809.69	15.12
809.864	17.36
810.038	18.36
810.212	17.25
810.385	18.15
810.559	16.41
810.733	16.56
810.907	13.89
811.081	10.67
811.255	15.41
811.428	15.84
811.602	13.96
811.776	10.29
811.95	9.18
812.123	4.1
812.297	2.68
812.471	5.33
812.644	6.85
812.818	7.39
812.992	7.82
813.165	3.84
813.339	5.38
813.512	5.5
813.686	4.2
813.86	3.19
814.033	2.5
814.207	4.71
814.38	3.33
814.554	5.97
814.727	6.73
814.9	7.22
815.074	7.18
815.247	9.43
815.421	7.86
815.594	8.88
815.767	11.06
815.941	10.97
816.114	10.54
816.287	9
816.46	4.53
816.634	5.39
816.807	8.42
816.98	7.19
817.153	4.46
817.327	0.69
817.5	0.35
817.673	-2.45
817.846	3.09
818.019	4.35
818.192	5.24
818.365	6.73
818.538	5.64
818.711	10.6
818.884	13.01
819.057	12.01
819.23	18.38
819.403	19.08
819.576	20.03
819.749	16.04
819.922	18.9
820.095	17.51
820.268	18.07
820.441	15.98
820.614	11.33
820.786	11.53
820.959	11.96
821.132	10.98
821.305	11.27
821.477	13.71
821.65	14.4
821.823	13.81
821.996	14.8
822.168	14.53
822.341	14.66
822.514	14.31
822.686	14.22
822.859	15.31
823.031	16.28
823.204	16.49
823.376	15.86
823.549	15.85
823.722	15.19
823.894	14.29
824.067	14.67
824.239	14.93
824.411	16.22
824.584	16.83
824.756	15.42
824.929	13.61
825.101	12.58
825.273	11.7
825.446	12.08
825.618	12.12
825.79	13.39
825.963	12.86
826.135	12.31
826.307	9.39
826.479	9.45
826.652	10.6
826.824	11.74
826.996	11.76
827.168	12.83
827.34	13.47
827.512	12.38
827.684	12.38
827.856	11.46
828.029	13.13
828.201	15.54
828.373	14.3
828.545	14.52
828.717	14.92
828.889	16.18
829.061	16.31
829.232	16.99
829.404	19.64
829.576	20.63
829.748	20.81
829.92	19.69
830.092	20.78
830.264	21.39
830.436	18.57
830.607	15.93
830.779	18.89
830.951	16.94
831.123	9.14
831.294	9.02
831.466	7.16
831.638	9.45
831.809	10.8
831.981	8.39
832.153	11.45
832.324	10.43
832.496	16.17
832.667	9.82
832.839	10.67
833.011	13.13
833.182	13.93
833.354	13.22
833.525	13.96
833.697	12.13
833.868	13.41
834.039	11.73
834.211	14.8
834.382	11.47
834.554	14.18
834.725	15.44
834.896	14.05
835.068	11.61
835.239	12.04
835.41	8.99
835.581	12.61
835.753	12.42
835.924	14.05
836.095	13.46
836.266	14.85
836.438	10.82
836.609	6.79
836.78	12.6
836.951	12.74
837.122	13.18
837.293	15.83
837.464	11.95
837.635	12.05
837.806	12.86
837.977	10.36
838.148	9.03
838.319	13.89
838.49	18.85
838.661	18.66
838.832	23.89
839.003	21.94
839.174	21.62
839.345	25.63
839.516	25.2
839.687	18.35
839.857	20.83
840.028	22.62
840.199	11.65
840.37	7.75
840.54	5.37
840.711	-0.9
840.882	-3.24
841.053	-1.4
841.223	-7.81
841.394	-5.29
841.564	-1.32
841.735	-5.4
841.906	-11.65
842.076	2.15
842.247	6.26
842.417	9.9
842.588	9.07
842.758	7.38
842.929	0.94
843.099	-4.34
843.27	-12.62
843.44	-16.81
843.611	-17.28
843.781	-4.56
843.951	0.81
844.122	1.88
844.292	-2.39
844.462	-1.13
844.633	7.57
844.803	6.29
844.973	10.45
845.144	20.22
845.314	18.04
845.484	21.08
845.654	14
845.824	2.54
845.995	-2.31
846.165	-4.89
846.335	9.98
846.505	10.86
846.675	29.29
846.845	20.37
847.015	22.57
847.185	38.04
847.355	34.9
847.525	33.83
847.695	32.97
847.865	25.38
848.035	25.57
848.205	22.86
848.375	14.07
848.545	4.23
848.715	6.97
848.884	-8.64
849.054	-17.32
849.224	-7.15
849.394	-3.68
849.564	3.77
849.733	4.59
849.903	-8.3
850.073	-26.3
850.243	-23.87
850.412	-6.05
850.582	-10.73
850.752	-2.08
850.921	-2.12
851.091	-12.25
851.26	-15.82
851.43	-18.47
851.599	-28.08
851.769	-27.61
851.939	-26.54
852.108	-21.39
852.278	-27.31
852.447	-6.62
852.616	-7.98
852.786	-26.68
852.955	-21.6
853.125	-22.77
853.294	-33.18
853.463	-35.66
853.633	-22.88
853.802	-28.44
853.971	-28.94
854.141	-20.51
854.31	-35.38
854.479	-35.31
854.648	-23.61
854.818	-47.37
854.987	-25.68
855.156	-39.56
855.325	-30.97
855.494	-18.03
855.663	-23.97
855.832	-37.78
856.001	-62.43
856.171	-16.01
856.34	-9.36
856.509	-9.17
856.678	7.38
856.847	-1.67
857.016	23.35
857.185	20.66
857.353	8.86
857.522	27.11
857.691	25.07
857.86	29.19
858.029	14.73
858.198	27.68
858.367	31.41
858.535	32.81
858.704	36.1
858.873	26.72
859.042	43.61
859.21	51.63
859.379	44.83
859.548	59.3
859.717	69.88
859.885	83.64
860.054	63.42
860.222	51.26
860.391	34.28
860.56	0.94
860.728	19.17
860.897	3.3
861.065	2.94
861.234	-5.1
861.402	4.91
861.571	-22.18
861.739	-30.54
861.908	-51.58
862.076	-49.48
862.244	-30.75
862.413	17.5
862.581	-1.22
862.749	1.55
862.918	8.97
863.086	65.28
863.254	44.35
863.423	31.85
863.591	55.1
863.759	50.67
863.927	40.18
864.096	41.15
864.264	29.02
864.432	22.26
864.6	11.47
864.768	15.23
864.936	4.98
865.104	-0.66
865.272	-2.27
865.44	-1.2
865.608	-10.05
865.776	-17.3
865.944	-42.08
866.112	-35.59
866.28	-53.46
866.448	-45.17
866.616	-46.14
866.784	-72.13
866.952	-68.44
867.12	-74.54
867.288	-81.99
867.455	-45.83
867.623	-16.33
867.791	14.75
867.959	3.14
868.127	28.42
868.294	18.39
868.462	4.4
868.63	33.65
868.797	38.94
868.965	47.24
869.133	43.45
869.3	33.25
869.468	20.38
869.636	6.44
869.803	12.22
869.971	13.37
870.138	19.21
870.306	32.73
870.473	32.96
870.641	31.45
870.808	9.99
870.975	28.83
871.143	24.21
871.31	36.06
871.478	66.86
871.645	111.19
871.812	87.95
871.98	99.85
872.147	42.17
872.314	40.77
872.482	41.09
872.649	29.66
872.816	6.66
872.983	-12.87
873.15	-3.37
873.318	-15.83
873.485	-29.05
873.652	-22.34
873.819	8.5
873.986	43.69
874.153	23.78
874.32	47.39
874.487	85.36
874.654	87.5
874.821	94.27
874.988	95.82
875.155	99.79
875.322	105.24
875.489	87.69
875.656	67.66
875.823	33.24
875.99	51.27
876.157	22.84
876.324	37.14
876.49	23.65
876.657	20.6
876.824	22.51
876.991	8.31
877.157	6.82
877.324	4.22
877.491	27.3
877.658	34.22
877.824	29.7
877.991	43.32
878.157	20.78
878.324	21.07
878.491	7.96
878.657	6.93
878.824	15.54
878.99	3.64
879.157	1.97
879.323	-13.27
879.49	-4.81
879.656	0.08
879.823	-11.88
879.989	0.36
880.156	14.77
880.322	13.95
880.488	20.11
880.655	17.88
880.821	15.44
880.987	11.06
881.154	11.1
881.32	2.84
881.486	-4.54
881.652	4.47
881.819	5.27
881.985	1.51
882.151	5.01
882.317	6.4
882.483	9.87
882.649	13.42
882.816	12.24
882.982	9.63
883.148	15.11
883.314	16.62
883.48	15
883.646	18.32
883.812	19.92
883.978	19.78
884.144	20.28
884.31	15.87
884.476	14.87
884.642	16.03
884.807	18.31
884.973	14.89
885.139	15.71
885.305	11.26
885.471	8.43
885.637	3.79
885.802	9.24
885.968	9.36
886.134	10.15
886.3	13.65
886.465	14.05
886.631	15.2
886.797	14.4
886.962	9.42
887.128	11.97
887.293	14.53
887.459	16.15
887.625	7.05
887.79	5.04
887.956	14.7
888.121	7.79
888.287	10.58
888.452	6.2
888.618	9.4
888.783	22.69
