Data from 2937891_Reflection_1.txt Node
Date: Wed Jul 15 14:23:17 EDT 2015
User: robert
Spectrometer: USB4E03001
Autoset integration time: false
Trigger mode: 4
Integration Time (sec): 1.000000E-1
Scans to average: 10
Electric dark correction enabled: true
Nonlinearity correction enabled: false
Boxcar width: 5
Stray light correction enabled: false
XAxis mode: Wavelengths
Stop averaging: false
Number of Pixels in Spectrum: 3648
>>>>>Begin Spectral Data<<<<<
177.566	13704.44
177.785	-922.82
178.005	-132.82
178.225	-131.06
178.445	-311.56
178.665	-116.39
178.885	392.86
179.105	-1421.13
179.324	-542.49
179.544	-4412.5
179.764	950.77
179.984	-364.25
180.204	-172.27
180.423	-41.95
180.643	-35.93
180.863	-25.37
181.083	-47.48
181.302	-42.87
181.522	-17.02
181.742	-28.85
181.961	-26.25
182.181	-22.85
182.401	-25.77
182.621	-2.26
182.84	-22.21
183.06	-32.35
183.279	-16.71
183.499	-6.87
183.719	-6.73
183.938	1.5
184.158	1.53
184.377	-0.42
184.597	2.24
184.816	6
185.036	-4.44
185.256	2.65
185.475	1.25
185.695	-15.06
185.914	-0.38
186.134	0.53
186.353	-19.14
186.572	-8.83
186.792	-21.3
187.011	-35.13
187.231	-112.19
187.45	-124.25
187.67	-143.88
187.889	-48.6
188.108	-72.59
188.328	-55.15
188.547	-76.89
188.766	-59.25
188.986	-52.29
189.205	-28.74
189.424	4.51
189.644	32.72
189.863	13.22
190.082	16.21
190.302	24.52
190.521	39.45
190.74	20.17
190.959	20.9
191.178	11.57
191.398	-15.09
191.617	-59.41
191.836	-161.92
192.055	-159.89
192.274	-64.25
192.494	-69.25
192.713	-122.79
192.932	-180.05
193.151	-211.95
193.37	-115.66
193.589	-58.19
193.808	-35.43
194.027	-2.47
194.246	17.82
194.465	33.69
194.685	24.87
194.904	73.09
195.123	40.48
195.342	-16.5
195.561	1.19
195.78	-26.27
195.999	-33.36
196.218	-35.37
196.436	-33.66
196.655	-25.56
196.874	-76.95
197.093	-42.62
197.312	-35.87
197.531	-7.86
197.75	-1.89
197.969	-3.86
198.188	16.8
198.407	10.73
198.625	4.4
198.844	22.92
199.063	22.27
199.282	29.58
199.501	23.9
199.719	1.06
199.938	-50.95
200.157	-102.97
200.376	-93.23
200.594	-220.67
200.813	-84.32
201.032	-118.36
201.251	-119.94
201.469	-1064.34
201.688	-4134.75
201.907	2446.18
202.125	2992.86
202.344	682.84
202.563	508.88
202.781	622.6
203	639.88
203.218	653.39
203.437	-323.87
203.656	272650
203.874	-192.49
204.093	-266.09
204.311	-144.29
204.53	-233.69
204.748	-21.18
204.967	23.82
205.185	39.49
205.404	35.77
205.622	30.34
205.841	-1.2
206.059	9.95
206.278	17.78
206.496	-2.93
206.715	17.73
206.933	36.97
207.151	65.04
207.37	32.44
207.588	40.21
207.806	28.97
208.025	20.34
208.243	31.25
208.461	-2.88
208.68	11.57
208.898	19.08
209.116	-17.87
209.335	-31.06
209.553	-33.86
209.771	-88.54
209.989	-74.39
210.208	-77.79
210.426	-536.7
210.644	-795.76
210.862	-527.89
211.081	-762.25
211.299	-538.54
211.517	-104.09
211.735	-126.84
211.953	-515.88
212.171	-364.74
212.39	-916.78
212.608	-171.63
212.826	-102.92
213.044	-92.02
213.262	-61.14
213.48	-284.75
213.698	-372.79
213.916	-419.88
214.134	-127.31
214.352	-77.55
214.57	-119.02
214.788	-67.16
215.006	-94.75
215.224	-269.43
215.442	-369.37
215.66	-207.05
215.878	-103.95
216.096	-171.3
216.314	-1608.42
216.532	681.2
216.75	264.51
216.968	297.74
217.185	219.49
217.403	265.07
217.621	87.91
217.839	132.44
218.057	10.46
218.275	249.92
218.492	401.46
218.71	178.29
218.928	179.42
219.146	160.5
219.363	448.1
219.581	179.76
219.799	117.27
220.017	18.2
220.234	-139.54
220.452	-339.97
220.67	185.56
220.887	617.07
221.105	-86.37
221.323	-106.35
221.54	-97.79
221.758	-15.27
221.976	0.97
222.193	39.32
222.411	63.49
222.629	90.18
222.846	81.8
223.064	51.1
223.281	36.99
223.499	-37.3
223.716	-192.45
223.934	-24.28
224.151	38.92
224.369	28.6
224.586	30.54
224.804	40.5
225.021	42.93
225.239	31.93
225.456	25.87
225.674	11.92
225.891	25.69
226.108	34.61
226.326	25.14
226.543	18.86
226.76	35.26
226.978	37.45
227.195	27.27
227.413	22.96
227.63	26.48
227.847	23.6
228.064	25.25
228.282	23.14
228.499	22.09
228.716	24.84
228.934	23.17
229.151	20.17
229.368	19.75
229.585	16.56
229.802	14.9
230.02	9
230.237	10.24
230.454	9.11
230.671	8.5
230.888	7.9
231.105	7.66
231.323	7.73
231.54	3.58
231.757	-3.53
231.974	2.55
232.191	-2.21
232.408	9.48
232.625	6.23
232.842	10.16
233.059	2.32
233.276	4.1
233.493	-10.6
233.71	-10.13
233.927	-0.69
234.144	0.25
234.361	-5.24
234.578	-0.02
234.795	-6.03
235.012	-3.93
235.229	-5.29
235.446	2.75
235.663	6.61
235.879	17
236.096	12.83
236.313	6.42
236.53	8.69
236.747	10.71
236.964	14.46
237.181	18.94
237.397	11.28
237.614	17.55
237.831	15.15
238.048	10.85
238.264	4.49
238.481	5.44
238.698	11.13
238.915	9.72
239.131	10.98
239.348	9.62
239.565	5.09
239.781	11.25
239.998	11.7
240.215	10.2
240.431	8.41
240.648	7.61
240.865	9.38
241.081	11.12
241.298	10.89
241.514	12.92
241.731	12.83
241.947	14.82
242.164	13.52
242.38	11.71
242.597	12.01
242.814	12.4
243.03	11.46
243.246	12.84
243.463	12.11
243.679	13.16
243.896	12.41
244.112	12.07
244.329	9.82
244.545	8.89
244.762	10.44
244.978	10.6
245.194	13.32
245.411	15.18
245.627	11.73
245.843	11.06
246.06	10.87
246.276	10.28
246.492	9.23
246.709	11.15
246.925	12.1
247.141	12.79
247.357	12.81
247.574	12.3
247.79	12.11
248.006	12.58
248.222	12.44
248.439	11.94
248.655	13.19
248.871	14.17
249.087	13.66
249.303	13.67
249.519	9.37
249.736	11.27
249.952	9.64
250.168	9.05
250.384	9.11
250.6	11.66
250.816	12.84
251.032	10.32
251.248	10.55
251.464	10.03
251.68	10
251.896	12.89
252.112	11.56
252.328	12.49
252.544	13.15
252.76	12.41
252.976	9.86
253.192	10.26
253.408	11.95
253.624	13.49
253.84	14.59
254.056	13.19
254.272	13.17
254.487	10.18
254.703	11.19
254.919	12.51
255.135	11.79
255.351	11.85
255.567	9.5
255.782	6.61
255.998	0.45
256.214	-3.7
256.43	-1.75
256.646	1.14
256.861	2.09
257.077	2.07
257.293	0.25
257.508	3.57
257.724	3.91
257.94	4.05
258.155	4.32
258.371	6.1
258.587	9.4
258.802	9.73
259.018	10.73
259.234	12.55
259.449	12.25
259.665	11.78
259.88	10.77
260.096	11.27
260.312	11.59
260.527	12.13
260.743	12.28
260.958	11.51
261.174	11.59
261.389	11.04
261.605	9.86
261.82	9.05
262.036	9.8
262.251	10.46
262.466	9.8
262.682	10
262.897	11.27
263.113	12.67
263.328	13.49
263.543	12.85
263.759	13.29
263.974	12.58
264.189	12.81
264.405	11.45
264.62	10.92
264.835	11.81
265.051	8.75
265.266	8.02
265.481	7.85
265.696	9.45
265.912	9.9
266.127	8.61
266.342	8.61
266.557	8.28
266.773	8.66
266.988	8.66
267.203	8.19
267.418	10.78
267.633	9.37
267.848	9
268.064	7.47
268.279	7.93
268.494	7.51
268.709	7.73
268.924	8.48
269.139	9.44
269.354	10.38
269.569	7.99
269.784	7.43
269.999	8.98
270.214	8.69
270.429	6.97
270.644	4.98
270.859	6.3
271.074	6
271.289	7.04
271.504	7.06
271.719	7.15
271.934	9.07
272.149	8.66
272.363	7.17
272.578	7.3
272.793	8.47
273.008	10.4
273.223	10.43
273.438	11.26
273.653	11.64
273.867	10.5
274.082	10.49
274.297	10.78
274.512	11.14
274.726	11.09
274.941	11.36
275.156	10.7
275.371	10
275.585	10.46
275.8	11.06
276.015	9.56
276.229	10.22
276.444	7.88
276.659	6.88
276.873	5.74
277.088	5.71
277.302	5.21
277.517	6.65
277.732	6.6
277.946	5.21
278.161	5.79
278.375	5.44
278.59	6.24
278.804	7.03
279.019	7.6
279.233	8.47
279.448	9.23
279.662	10.27
279.877	10.12
280.091	10.02
280.306	9.66
280.52	9.05
280.735	11.14
280.949	9.71
281.163	10.22
281.378	9.86
281.592	11.44
281.806	10.38
282.021	8.13
282.235	7.03
282.449	7.38
282.664	8.76
282.878	8.02
283.092	7.07
283.307	9.01
283.521	8.92
283.735	9.76
283.949	8.91
284.164	10.64
284.378	10.63
284.592	10.54
284.806	9.53
285.02	8.86
285.234	9.03
285.449	8.65
285.663	7.75
285.877	7.75
286.091	7.54
286.305	8.28
286.519	7.44
286.733	7.78
286.947	9.4
287.161	10.22
287.375	9.33
287.589	7.39
287.803	6.09
288.017	6.33
288.231	4.74
288.445	6.07
288.659	4.61
288.873	5.77
289.087	4.29
289.301	3.91
289.515	3.68
289.729	4.75
289.943	7.9
290.157	9.72
290.371	9.01
290.584	10.78
290.798	10.16
291.012	10.08
291.226	9.77
291.44	12.53
291.654	12.68
291.867	12.13
292.081	12.94
292.295	11.65
292.509	10.29
292.722	9.96
292.936	10.04
293.15	9.35
293.364	9.11
293.577	8.66
293.791	8.6
294.005	8.81
294.218	9.2
294.432	8.31
294.645	8.4
294.859	7.97
295.073	8.88
295.286	9.05
295.5	8.39
295.713	8.81
295.927	9.07
296.14	8.11
296.354	7.02
296.568	7.71
296.781	7.89
296.994	8.4
297.208	9.7
297.421	9.55
297.635	9.62
297.848	10
298.062	9.59
298.275	8.9
298.489	9.35
298.702	10.31
298.915	9.75
299.129	9.82
299.342	9.44
299.555	8.85
299.769	8.33
299.982	9.31
300.195	10.23
300.409	11.13
300.622	12.24
300.835	12.14
301.048	10.5
301.262	11.39
301.475	11.49
301.688	11.69
301.901	12.26
302.115	12.12
302.328	10.54
302.541	8.73
302.754	8.84
302.967	8.3
303.18	7.15
303.393	7.25
303.607	7.17
303.82	7.14
304.033	7.82
304.246	7.14
304.459	8.37
304.672	9.18
304.885	10.75
305.098	10.31
305.311	10.52
305.524	11.12
305.737	12.55
305.95	12.58
306.163	11.87
306.376	12.88
306.589	12.6
306.802	13.24
307.015	12.37
307.228	11.56
307.44	12
307.653	11.66
307.866	10.36
308.079	10.72
308.292	10.41
308.505	13.07
308.718	11.48
308.93	12.02
309.143	10.33
309.356	11.49
309.569	11.08
309.781	11.91
309.994	13.55
310.207	14.49
310.42	14.08
310.632	13.7
310.845	12.42
311.058	12.01
311.27	12.35
311.483	12.93
311.696	12.79
311.908	13.55
312.121	11.94
312.333	10.67
312.546	11.41
312.759	11.34
312.971	11.46
313.184	11.9
313.396	13.03
313.609	12.93
313.821	14.67
314.034	13.16
314.246	13.49
314.459	14.73
314.671	15.39
314.884	14.19
315.096	13.73
315.309	14.28
315.521	13.33
315.733	11.15
315.946	11.34
316.158	9.06
316.371	10.05
316.583	8.25
316.795	8.64
317.008	7.41
317.22	8.62
317.432	9.25
317.644	9.15
317.857	9.57
318.069	10.71
318.281	9.09
318.494	11.56
318.706	12.33
318.918	12.85
319.13	12.13
319.342	12.58
319.555	12.8
319.767	12.16
319.979	12.27
320.191	11.7
320.403	13.03
320.615	15.38
320.827	12.3
321.039	13.41
321.252	13.6
321.464	13.63
321.676	13.13
321.888	11.81
322.1	13.9
322.312	13.63
322.524	15.1
322.736	13.25
322.948	11.86
323.16	11.9
323.372	10.28
323.584	9.92
323.796	10.2
324.007	10.33
324.219	11.29
324.431	9.83
324.643	9
324.855	6.39
325.067	6.58
325.279	6.27
325.491	6.94
325.702	6.03
325.914	7.46
326.126	5.93
326.338	7.43
326.55	7.01
326.761	7.56
326.973	7.99
327.185	9.1
327.396	9.96
327.608	11.49
327.82	13.03
328.032	13.66
328.243	12.9
328.455	15.66
328.666	14.44
328.878	15.2
329.09	13.44
329.301	14.45
329.513	15.82
329.725	15.4
329.936	15.26
330.148	14.73
330.359	16.33
330.571	16.12
330.782	15.82
330.994	15.7
331.205	15.64
331.417	17.46
331.628	16.72
331.84	16.07
332.051	17.03
332.262	18.34
332.474	17.1
332.685	15.8
332.897	15.72
333.108	14.88
333.319	15.54
333.531	15.69
333.742	16.42
333.953	16.27
334.165	15.87
334.376	14.74
334.587	13
334.799	14.77
335.01	15.39
335.221	14.8
335.432	14.43
335.644	14.13
335.855	13.46
336.066	11.99
336.277	11.76
336.488	12.58
336.7	12.91
336.911	13.37
337.122	11.88
337.333	10.83
337.544	12.27
337.755	12.95
337.966	12.24
338.177	13.17
338.388	14.62
338.599	15.34
338.811	13.97
339.022	13.66
339.233	13.39
339.444	14.57
339.655	15.4
339.866	14.55
340.076	14
340.287	14.32
340.498	14.67
340.709	12.23
340.92	11.88
341.131	13.22
341.342	14.04
341.553	14.58
341.764	14.06
341.975	14.44
342.185	14.01
342.396	14.63
342.607	15.12
342.818	14.61
343.029	16.62
343.239	17.67
343.45	17.69
343.661	17.63
343.872	16.01
344.082	15.31
344.293	15.35
344.504	16.42
344.714	16.09
344.925	16.5
345.136	16.67
345.346	16.15
345.557	15.73
345.768	16.17
345.978	14.99
346.189	16.42
346.399	16.5
346.61	15.5
346.821	14.91
347.031	15.24
347.242	14.15
347.452	13.37
347.663	13.68
347.873	13.49
348.084	11.93
348.294	13.33
348.504	12.23
348.715	13.01
348.925	14.36
349.136	14.63
349.346	14.63
349.557	14.92
349.767	14.96
349.977	14.5
350.188	13.85
350.398	14.89
350.608	14.17
350.819	15.13
351.029	14.99
351.239	14.59
351.449	14.52
351.66	13.49
351.87	13.6
352.08	13.29
352.29	13.13
352.501	13.99
352.711	12.96
352.921	13
353.131	12.36
353.341	12.4
353.552	11.8
353.762	11.97
353.972	12.61
354.182	12.81
354.392	13.6
354.602	13.96
354.812	13.27
355.022	14.68
355.232	13.97
355.442	14.11
355.652	13.67
355.862	13.6
356.072	12.47
356.282	12.04
356.492	12
356.702	10.99
356.912	11.32
357.122	11.96
357.332	11.47
357.542	12.22
357.752	12.17
357.962	12.65
358.171	12.81
358.381	13.04
358.591	13.54
358.801	13.21
359.011	13.66
359.221	13.11
359.43	12.65
359.64	12.67
359.85	12
360.06	11.85
360.269	11.48
360.479	11.78
360.689	11.97
360.899	12.04
361.108	12.49
361.318	12.29
361.528	11.87
361.737	12.22
361.947	11.49
362.156	12.1
362.366	12.08
362.576	12.44
362.785	12.3
362.995	12.66
363.204	12.12
363.414	11.64
363.623	12.59
363.833	12.52
364.042	12.63
364.252	13.52
364.461	13.46
364.671	13.07
364.88	12.45
365.09	12.2
365.299	12.06
365.509	12.84
365.718	13.66
365.927	13.02
366.137	13.6
366.346	13
366.555	12.53
366.765	12.61
366.974	12.85
367.183	12.99
367.393	13.03
367.602	12.74
367.811	12.19
368.021	11.14
368.23	11.1
368.439	10.85
368.648	11.21
368.857	11.09
369.067	10.8
369.276	11.55
369.485	11.23
369.694	11.07
369.903	10.81
370.112	10.99
370.321	11.4
370.531	11.58
370.74	12.01
370.949	11.96
371.158	11.9
371.367	12.02
371.576	10.76
371.785	11.08
371.994	10.62
372.203	11.34
372.412	10.83
372.621	11.06
372.83	11.1
373.039	10.55
373.248	11.08
373.457	10.33
373.666	10.64
373.874	11.27
374.083	11.48
374.292	11.72
374.501	11.95
374.71	12
374.919	12.27
375.128	11.36
375.336	11.54
375.545	11.08
375.754	11.63
375.963	11.12
376.171	11.05
376.38	10.81
376.589	11.7
376.798	10.51
377.006	10.4
377.215	10.21
377.424	10.73
377.632	10.71
377.841	10.3
378.05	11.22
378.258	11.24
378.467	11.43
378.675	11.22
378.884	10.32
379.093	10.89
379.301	11.14
379.51	10.93
379.718	10.41
379.927	10.26
380.135	10.62
380.344	9.63
380.552	9.19
380.761	9.14
380.969	9.18
381.177	8.71
381.386	8.73
381.594	8.94
381.803	8.94
382.011	9.38
382.219	9.25
382.428	8.65
382.636	8.61
382.845	9.44
383.053	8.99
383.261	9.4
383.469	9.78
383.678	9.51
383.886	9.75
384.094	9.2
384.302	8.77
384.511	8.37
384.719	8.41
384.927	8.32
385.135	7.76
385.343	7.94
385.552	7.35
385.76	7.91
385.968	8.22
386.176	7.73
386.384	7.71
386.592	7.87
386.8	8.45
387.008	8.67
387.216	8.56
387.424	8.66
387.633	8.46
387.841	8.52
388.049	8.04
388.257	7.28
388.465	7.81
388.672	8.15
388.88	8.23
389.088	8.04
389.296	7.67
389.504	7.62
389.712	7.91
389.92	7.59
390.128	7.5
390.336	7.4
390.544	8.28
390.751	7.66
390.959	7.79
391.167	7.53
391.375	7.69
391.583	7.98
391.79	8.42
391.998	8.09
392.206	8.28
392.414	8.52
392.621	8.62
392.829	8.42
393.037	8.46
393.244	8.4
393.452	8.33
393.66	8.01
393.867	7.99
394.075	7.67
394.283	7.69
394.49	7.92
394.698	7.94
394.905	8.05
395.113	7.93
395.32	7.7
395.528	7.5
395.735	7.66
395.943	7.56
396.15	7.61
396.358	7.67
396.565	7.49
396.773	7.72
396.98	7.35
397.188	7.18
397.395	6.94
397.602	7.34
397.81	7.04
398.017	7.07
398.225	7.06
398.432	6.89
398.639	7.05
398.847	6.97
399.054	6.51
399.261	6.49
399.468	6.2
399.676	6.51
399.883	6.28
400.09	6.07
400.297	6.48
400.505	6.81
400.712	6.86
400.919	6.94
401.126	6.8
401.333	6.74
401.54	7.02
401.748	7.36
401.955	7.02
402.162	7.07
402.369	7.61
402.576	7.34
402.783	7.15
402.99	7.03
403.197	6.77
403.404	6.92
403.611	7.01
403.818	6.71
404.025	6.46
404.232	6.84
404.439	7.01
404.646	7.12
404.853	7.05
405.06	7.31
405.267	7.38
405.474	7.12
405.681	7.12
405.887	7.12
406.094	7.36
406.301	7.29
406.508	6.93
406.715	6.69
406.922	6.7
407.128	6.33
407.335	5.8
407.542	5.45
407.749	5.94
407.955	5.98
408.162	6.02
408.369	5.84
408.575	6.12
408.782	5.89
408.989	5.86
409.195	5.3
409.402	5.6
409.609	5.9
409.815	6.14
410.022	6.13
410.228	6.43
410.435	6.21
410.642	6.13
410.848	6.17
411.055	6.45
411.261	6.32
411.468	6.38
411.674	6.45
411.881	6.24
412.087	6.38
412.294	6.04
412.5	5.6
412.706	6.04
412.913	6.37
413.119	6.09
413.326	6.11
413.532	6.34
413.738	6.63
413.945	6.4
414.151	6.47
414.357	6.33
414.564	6.58
414.77	6.68
414.976	6.47
415.182	6.17
415.389	6.59
415.595	6.46
415.801	6.26
416.007	6.35
416.214	6.26
416.42	6.26
416.626	6.31
416.832	5.83
417.038	5.84
417.244	5.69
417.45	5.84
417.657	5.69
417.863	5.86
418.069	5.75
418.275	5.69
418.481	5.93
418.687	5.86
418.893	6.02
419.099	6.27
419.305	6.3
419.511	6.29
419.717	6.42
419.923	6.47
420.129	6.47
420.335	6.67
420.541	6.63
420.746	6.65
420.952	6.9
421.158	6.78
421.364	6.77
421.57	6.92
421.776	7.04
421.982	6.83
422.187	6.7
422.393	6.47
422.599	6.42
422.805	6.49
423.01	6.34
423.216	6.25
423.422	6.2
423.628	6.22
423.833	6.1
424.039	6.15
424.245	6.39
424.45	6.4
424.656	6.6
424.862	6.52
425.067	6.48
425.273	6.53
425.478	6.46
425.684	6.44
425.889	6.39
426.095	6.33
426.301	6.27
426.506	6.11
426.712	6.1
426.917	6.13
427.123	6.3
427.328	6.42
427.533	6.3
427.739	6.37
427.944	6.26
428.15	6.32
428.355	6.33
428.561	6.17
428.766	6.04
428.971	6.08
429.177	5.96
429.382	5.77
429.587	5.51
429.793	5.58
429.998	5.47
430.203	5.85
430.408	5.78
430.614	5.87
430.819	5.99
431.024	5.94
431.229	5.96
431.434	6.02
431.64	6.2
431.845	6.27
432.05	6.42
432.255	6.42
432.46	6.32
432.665	6.67
432.87	6.63
433.076	6.79
433.281	6.83
433.486	6.83
433.691	6.83
433.896	6.56
434.101	6.58
434.306	6.58
434.511	6.52
434.716	6.69
434.921	6.59
435.126	6.51
435.331	6.38
435.535	6.46
435.74	6.49
435.945	6.49
436.15	6.88
436.355	7.03
436.56	6.87
436.765	6.98
436.97	6.73
437.174	6.62
437.379	6.64
437.584	6.58
437.789	6.49
437.993	6.57
438.198	6.44
438.403	6.12
438.608	5.95
438.812	5.99
439.017	6.1
439.222	6.02
439.426	6.03
439.631	6
439.836	5.95
440.04	5.88
440.245	5.77
440.45	5.76
440.654	5.87
440.859	5.91
441.063	6.05
441.268	5.86
441.472	5.85
441.677	5.87
441.881	5.92
442.086	5.99
442.29	6.06
442.495	6.12
442.699	6.19
442.904	6.29
443.108	6.3
443.312	6.21
443.517	6.29
443.721	6.2
443.925	6.15
444.13	6.29
444.334	6.27
444.538	6.31
444.743	6.42
444.947	6.48
445.151	6.21
445.356	6.21
445.56	6.33
445.764	6.36
445.968	6.5
446.173	6.5
446.377	6.41
446.581	6.45
446.785	6.37
446.989	6.25
447.193	6.27
447.398	6.58
447.602	6.52
447.806	6.39
448.01	6.38
448.214	6.29
448.418	6.24
448.622	6.07
448.826	5.97
449.03	5.96
449.234	6.1
449.438	6.15
449.642	5.87
449.846	6
450.05	5.93
450.254	5.89
450.458	5.93
450.662	5.86
450.866	6.03
451.069	6.04
451.273	6.08
451.477	5.96
451.681	5.76
451.885	5.8
452.089	5.72
452.292	5.5
452.496	5.46
452.7	5.53
452.904	5.54
453.107	5.58
453.311	5.53
453.515	5.55
453.719	5.61
453.922	5.68
454.126	5.68
454.33	5.64
454.533	5.91
454.737	5.96
454.94	5.99
455.144	6.21
455.348	6.15
455.551	6.18
455.755	6.15
455.958	6.08
456.162	5.9
456.365	5.88
456.569	5.94
456.772	5.99
456.976	6.04
457.179	5.88
457.383	5.75
457.586	5.97
457.79	5.99
457.993	5.97
458.196	5.87
458.4	6.1
458.603	6.15
458.807	6
459.01	5.78
459.213	5.87
459.417	5.99
459.62	6.06
459.823	6
460.026	5.95
460.23	5.91
460.433	5.76
460.636	5.64
460.839	5.6
461.042	5.72
461.246	5.74
461.449	5.76
461.652	5.79
461.855	5.71
462.058	5.47
462.261	5.49
462.464	5.54
462.668	5.71
462.871	5.59
463.074	5.68
463.277	5.57
463.48	5.87
463.683	5.68
463.886	5.63
464.089	5.61
464.292	5.75
464.495	5.92
464.698	5.93
464.901	5.9
465.104	6.21
465.306	6.1
465.509	6.23
465.712	6.18
465.915	6.28
466.118	6.14
466.321	6.08
466.524	6.05
466.726	5.88
466.929	5.78
467.132	5.73
467.335	5.56
467.538	5.47
467.74	5.46
467.943	5.34
468.146	5.25
468.348	5.11
468.551	5.06
468.754	5.09
468.956	5.15
469.159	5.01
469.362	5.02
469.564	5.22
469.767	5.3
469.969	5.28
470.172	5.36
470.375	5.49
470.577	5.58
470.78	5.64
470.982	5.45
471.185	5.44
471.387	5.81
471.59	6.06
471.792	5.72
471.995	5.94
472.197	5.83
472.399	5.75
472.602	5.61
472.804	5.72
473.007	5.75
473.209	5.93
473.411	5.9
473.614	5.85
473.816	5.6
474.018	5.76
474.22	5.77
474.423	5.77
474.625	5.77
474.827	5.71
475.03	5.75
475.232	5.85
475.434	5.83
475.636	5.97
475.838	6.12
476.04	6.27
476.243	6.27
476.445	6.07
476.647	6.07
476.849	6.11
477.051	6.2
477.253	6.32
477.455	6.12
477.657	6.15
477.859	6.07
478.061	5.82
478.263	5.84
478.465	5.85
478.667	6
478.869	6.02
479.071	6.06
479.273	5.94
479.475	5.77
479.677	5.96
479.879	5.96
480.081	5.95
480.283	5.95
480.485	5.87
480.686	5.88
480.888	5.71
481.09	5.74
481.292	5.77
481.494	5.85
481.695	6.03
481.897	5.92
482.099	5.99
482.301	5.98
482.502	5.99
482.704	5.96
482.906	5.98
483.107	6
483.309	5.98
483.511	6.07
483.712	6.02
483.914	5.99
484.115	6
484.317	6.01
484.519	6.01
484.72	5.99
484.922	5.99
485.123	5.99
485.325	5.97
485.526	5.89
485.728	5.83
485.929	5.8
486.131	5.83
486.332	5.8
486.534	5.71
486.735	5.72
486.936	5.78
487.138	5.75
487.339	5.67
487.541	5.72
487.742	5.82
487.943	5.75
488.144	5.86
488.346	5.78
488.547	5.8
488.748	5.79
488.95	5.79
489.151	5.78
489.352	5.83
489.553	5.87
489.755	5.83
489.956	5.82
490.157	5.84
490.358	5.83
490.559	5.83
490.76	5.73
490.961	5.78
491.163	5.83
491.364	5.84
491.565	5.8
491.766	5.86
491.967	5.9
492.168	6
492.369	5.99
492.57	5.99
492.771	6.04
492.972	6.13
493.173	6.12
493.374	6.12
493.575	6.04
493.776	6.25
493.976	6.12
494.177	6.18
494.378	5.96
494.579	6.03
494.78	5.99
494.981	5.86
495.182	5.92
495.382	6.01
495.583	5.88
495.784	5.9
495.985	5.74
496.185	5.88
496.386	5.68
496.587	5.79
496.788	5.7
496.988	5.63
497.189	5.69
497.39	5.68
497.59	5.64
497.791	5.74
497.992	5.88
498.192	5.94
498.393	5.9
498.593	6.08
498.794	6.16
498.994	6.24
499.195	6.38
499.395	6.3
499.596	6.33
499.796	6.3
499.997	6.16
500.197	5.96
500.398	5.86
500.598	5.72
500.799	5.69
500.999	5.62
501.199	5.68
501.4	5.58
501.6	5.64
501.801	5.78
502.001	5.91
502.201	6.14
502.402	6.38
502.602	6.25
502.802	6.32
503.002	6.27
503.203	6.28
503.403	6.35
503.603	6.49
503.803	6.51
504.003	6.44
504.204	6.24
504.404	6.17
504.604	5.97
504.804	6.19
505.004	6.36
505.204	6.67
505.404	6.62
505.604	6.58
505.804	6.56
506.005	6.55
506.205	6.6
506.405	6.6
506.605	6.57
506.805	6.66
507.005	6.56
507.204	6.55
507.404	6.32
507.604	6.49
507.804	6.54
508.004	6.46
508.204	6.54
508.404	6.4
508.604	6.65
508.804	6.61
509.003	6.67
509.203	6.76
509.403	6.85
509.603	6.85
509.803	6.78
510.002	6.65
510.202	6.67
510.402	6.71
510.602	6.79
510.801	6.66
511.001	6.7
511.201	6.73
511.4	6.82
511.6	6.73
511.8	6.83
511.999	6.66
512.199	6.61
512.398	6.6
512.598	6.56
512.797	6.67
512.997	6.75
513.197	6.77
513.396	6.73
513.596	6.8
513.795	6.9
513.994	6.9
514.194	7.05
514.393	7.25
514.593	7.33
514.792	7.43
514.992	7.26
515.191	7.22
515.39	7.18
515.59	7.3
515.789	7.15
515.988	7.04
516.188	7.09
516.387	7.27
516.586	7.17
516.786	7.15
516.985	7.01
517.184	7.22
517.383	7.15
517.582	7.29
517.782	7.26
517.981	7.19
518.18	7.33
518.379	7.21
518.578	7.07
518.777	7.06
518.976	7.03
519.176	7.08
519.375	7.01
519.574	7.01
519.773	7.01
519.972	7.01
520.171	7.14
520.37	7.02
520.569	7.08
520.768	7.08
520.967	7.14
521.166	7.17
521.365	7.24
521.564	7.25
521.762	7.27
521.961	7.22
522.16	7.24
522.359	7.16
522.558	7.08
522.757	6.95
522.956	7.03
523.154	7
523.353	7.04
523.552	7.04
523.751	7.12
523.949	7.14
524.148	7.05
524.347	7.04
524.546	7.05
524.744	7.08
524.943	7.15
525.142	7.15
525.34	7.14
525.539	7.08
525.737	6.98
525.936	6.92
526.135	6.94
526.333	7.09
526.532	7.09
526.73	7.08
526.929	7.13
527.127	7.24
527.326	7.25
527.524	7.29
527.723	7.3
527.921	7.4
528.12	7.36
528.318	7.34
528.516	7.31
528.715	7.31
528.913	7.27
529.112	7.23
529.31	7.17
529.508	7.16
529.707	7.17
529.905	7.22
530.103	7.2
530.301	7.2
530.5	7.18
530.698	7.1
530.896	7.13
531.094	7.28
531.293	7.44
531.491	7.46
531.689	7.44
531.887	7.45
532.085	7.43
532.283	7.53
532.481	7.65
532.68	7.7
532.878	7.86
533.076	7.84
533.274	7.77
533.472	7.68
533.67	7.75
533.868	7.83
534.066	7.77
534.264	7.79
534.462	7.76
534.66	7.75
534.858	7.72
535.056	7.63
535.253	7.68
535.451	7.68
535.649	7.75
535.847	7.71
536.045	7.63
536.243	7.73
536.441	7.71
536.638	7.71
536.836	7.8
537.034	7.97
537.232	7.96
537.43	7.98
537.627	8.07
537.825	8.12
538.023	8.18
538.22	8.32
538.418	8.26
538.616	8.37
538.813	8.33
539.011	8.07
539.209	7.99
539.406	8.01
539.604	7.92
539.801	7.89
539.999	7.83
540.196	7.9
540.394	7.96
540.591	8.09
540.789	8.16
540.986	8.12
541.184	8.24
541.381	8.29
541.579	8.34
541.776	8.36
541.974	8.39
542.171	8.43
542.368	8.44
542.566	8.43
542.763	8.36
542.96	8.3
543.158	8.39
543.355	8.36
543.552	8.35
543.75	8.25
543.947	8.29
544.144	8.27
544.341	8.31
544.539	8.23
544.736	8.24
544.933	8.22
545.13	8.29
545.327	8.3
545.524	8.3
545.722	8.35
545.919	8.52
546.116	8.57
546.313	8.52
546.51	8.54
546.707	8.6
546.904	8.56
547.101	8.62
547.298	8.61
547.495	8.61
547.692	8.61
547.889	8.52
548.086	8.52
548.283	8.49
548.48	8.55
548.677	8.6
548.874	8.59
549.07	8.62
549.267	8.6
549.464	8.6
549.661	8.49
549.858	8.54
550.055	8.45
550.251	8.44
550.448	8.51
550.645	8.56
550.842	8.5
551.038	8.61
551.235	8.65
551.432	8.89
551.628	8.98
551.825	9.2
552.022	9.44
552.218	9.55
552.415	9.53
552.612	9.63
552.808	9.63
553.005	9.68
553.201	9.65
553.398	9.63
553.594	9.62
553.791	9.58
553.987	9.46
554.184	9.38
554.38	9.43
554.577	9.32
554.773	9.38
554.97	9.35
555.166	9.24
555.362	9.17
555.559	9.4
555.755	9.37
555.952	9.25
556.148	9.39
556.344	9.39
556.541	9.53
556.737	9.72
556.933	9.65
557.129	9.78
557.326	9.81
557.522	10
557.718	9.91
557.914	10.03
558.11	10.15
558.307	10.04
558.503	10.09
558.699	10.04
558.895	10.08
559.091	10.09
559.287	10.12
559.483	10.23
559.679	10.19
559.876	10.37
560.072	10.17
560.268	10.09
560.464	10.05
560.66	10.13
560.856	10.2
561.052	10.38
561.247	10.58
561.443	10.45
561.639	10.48
561.835	10.69
562.031	10.56
562.227	10.97
562.423	11.04
562.619	11.34
562.815	11.41
563.01	11.43
563.206	11.39
563.402	11.22
563.598	11.32
563.793	11.14
563.989	10.95
564.185	11.05
564.381	10.81
564.576	10.96
564.772	10.97
564.968	10.84
565.163	10.82
565.359	10.96
565.555	10.98
565.75	11.1
565.946	11.42
566.141	11.61
566.337	11.49
566.532	11.65
566.728	11.66
566.923	11.55
567.119	11.44
567.314	11.57
567.51	11.51
567.705	11.55
567.901	11.49
568.096	11.58
568.292	11.53
568.487	11.54
568.682	11.4
568.878	11.44
569.073	11.62
569.268	11.86
569.464	12.06
569.659	12.16
569.854	12.19
570.05	12.42
570.245	12.22
570.44	12.13
570.635	12.21
570.831	12.41
571.026	12.41
571.221	12.27
571.416	12.32
571.611	11.96
571.806	11.81
572.002	11.83
572.197	11.73
572.392	11.73
572.587	11.87
572.782	12.02
572.977	11.82
573.172	11.86
573.367	11.94
573.562	11.84
573.757	11.98
573.952	11.98
574.147	11.88
574.342	11.93
574.537	11.91
574.732	11.79
574.927	11.59
575.121	11.58
575.316	11.6
575.511	11.58
575.706	11.62
575.901	11.57
576.096	11.64
576.29	11.68
576.485	11.44
576.68	11.37
576.875	11.64
577.069	11.77
577.264	11.86
577.459	11.83
577.654	11.93
577.848	11.97
578.043	12.1
578.238	12.22
578.432	12.17
578.627	12.36
578.821	12.48
579.016	12.44
579.21	12.41
579.405	12.35
579.6	12.21
579.794	12.01
579.989	11.92
580.183	11.81
580.378	11.7
580.572	11.87
580.766	11.94
580.961	11.91
581.155	11.69
581.35	11.77
581.544	11.93
581.738	12.33
581.933	12.21
582.127	12.17
582.321	12.13
582.516	12.21
582.71	11.96
582.904	12.01
583.099	12.14
583.293	12.12
583.487	12.01
583.681	12.07
583.875	11.62
584.07	11.88
584.264	11.77
584.458	12.01
584.652	12.06
584.846	12.21
585.04	12.34
585.234	12.41
585.428	12.37
585.623	12.31
585.817	12.16
586.011	12.47
586.205	12.48
586.399	12.65
586.593	12.62
586.787	12.23
586.981	12.53
587.174	12.58
587.368	12.79
587.562	13.2
587.756	13.36
587.95	13.56
588.144	13.71
588.338	13.62
588.532	13.86
588.725	13.67
588.919	13.92
589.113	13.79
589.307	13.5
589.501	13.13
589.694	12.85
589.888	12.87
590.082	12.78
590.275	12.4
590.469	12.55
590.663	12.85
590.856	12.95
591.05	12.89
591.244	12.83
591.437	13.24
591.631	13.29
591.824	13.41
592.018	13.22
592.212	13.01
592.405	13.3
592.599	13.42
592.792	12.99
592.986	13.07
593.179	13.03
593.372	13.06
593.566	12.87
593.759	13.07
593.953	12.86
594.146	12.95
594.339	13.25
594.533	13.21
594.726	13.06
594.92	13.07
595.113	12.97
595.306	13.22
595.499	13.44
595.693	13.59
595.886	13.45
596.079	13.67
596.272	13.66
596.466	13.45
596.659	13.57
596.852	13.76
597.045	13.79
597.238	13.66
597.431	13.45
597.624	13.29
597.818	13.08
598.011	13.08
598.204	13.08
598.397	13.08
598.59	12.95
598.783	12.59
598.976	12.26
599.169	12.09
599.362	12.5
599.555	12.71
599.748	12.75
599.941	13.01
600.134	13.2
600.326	13.04
600.519	13.03
600.712	13.45
600.905	13.28
601.098	13.36
601.291	13.5
601.483	13.47
601.676	13.43
601.869	13.35
602.062	13.16
602.255	13.02
602.447	13.03
602.64	12.91
602.833	12.66
603.025	12.96
603.218	13.1
603.411	13.33
603.603	13.1
603.796	13.15
603.989	13.12
604.181	13.17
604.374	13.32
604.566	13.39
604.759	13.6
604.951	13.76
605.144	13.72
605.336	13.74
605.529	13.49
605.721	13.58
605.914	13.39
606.106	13.49
606.299	13.41
606.491	13.25
606.683	13.21
606.876	13.28
607.068	13.24
607.26	13.23
607.453	13.3
607.645	13.38
607.837	13.38
608.03	13.34
608.222	13.18
608.414	13.3
608.606	13.27
608.799	13.39
608.991	13.34
609.183	13.42
609.375	13.46
609.567	13.32
609.759	13.4
609.952	13.3
610.144	13.4
610.336	13.56
610.528	13.45
610.72	13.62
610.912	13.6
611.104	13.81
611.296	13.75
611.488	13.68
611.68	13.66
611.872	13.62
612.064	13.75
612.256	13.51
612.448	13.16
612.64	13.09
612.832	13.19
613.023	13.12
613.215	12.66
613.407	12.88
613.599	13.08
613.791	13.22
613.983	12.98
614.174	13.24
614.366	13.59
614.558	13.61
614.75	13.71
614.941	13.34
615.133	13.34
615.325	13.29
615.516	12.98
615.708	12.69
615.9	12.15
616.091	12.12
616.283	11.87
616.475	11.99
616.666	12.08
616.858	12.07
617.049	12.22
617.241	12.02
617.432	12.24
617.624	12.33
617.815	12.68
618.007	13.02
618.198	13.3
618.39	13.23
618.581	13.07
618.773	13.15
618.964	13.5
619.155	13.32
619.347	13.61
619.538	13.67
619.729	13.71
619.921	13.64
620.112	13.6
620.303	13.56
620.494	13.7
620.686	13.65
620.877	13.75
621.068	13.41
621.259	13.69
621.451	13.36
621.642	13.25
621.833	13.22
622.024	13.32
622.215	13.54
622.406	13.34
622.597	13.36
622.788	13.64
622.98	13.81
623.171	13.98
623.362	13.95
623.553	14.2
623.744	14.31
623.935	14.3
624.126	13.98
624.317	13.83
624.508	13.83
624.698	13.61
624.889	13.36
625.08	13.36
625.271	13.35
625.462	13.29
625.653	13.33
625.844	13.29
626.034	13.53
626.225	13.76
626.416	13.94
626.607	14.07
626.798	14.18
626.988	14.19
627.179	14.24
627.37	14.2
627.56	14.02
627.751	13.86
627.942	14.08
628.132	14.05
628.323	14.06
628.514	13.92
628.704	14.16
628.895	14.24
629.085	14.44
629.276	14.42
629.466	14.34
629.657	14.66
629.847	14.74
630.038	14.22
630.228	14.14
630.419	14.16
630.609	14.32
630.8	14.08
630.99	13.83
631.181	13.62
631.371	13.13
631.561	13.3
631.752	12.96
631.942	12.89
632.132	13.09
632.323	12.87
632.513	12.79
632.703	12.43
632.893	12.54
633.084	13.07
633.274	13.26
633.464	13.58
633.654	13.61
633.844	13.87
634.034	13.89
634.225	14.15
634.415	14.51
634.605	14.5
634.795	14.66
634.985	15.04
635.175	14.69
635.365	14.5
635.555	14.58
635.745	14.54
635.935	14.28
636.125	14.12
636.315	13.93
636.505	13.74
636.695	13.43
636.885	13.69
637.075	13.17
637.265	12.92
637.455	12.74
637.644	12.78
637.834	12.53
638.024	12.89
638.214	13.28
638.404	13.55
638.593	13.52
638.783	13.7
638.973	13.47
639.163	13.38
639.352	13.65
639.542	14.22
639.732	13.77
639.921	14.2
640.111	14.18
640.301	14.26
640.49	13.77
640.68	13.44
640.87	13.36
641.059	13.37
641.249	13.4
641.438	13.63
641.628	12.9
641.817	13.16
642.007	12.56
642.196	12.56
642.386	12.57
642.575	12.73
642.764	13.07
642.954	13.55
643.143	13.29
643.333	13.21
643.522	12.98
643.711	13.27
643.901	13.43
644.09	13.92
644.279	13.85
644.469	13.18
644.658	13.07
644.847	13.1
645.036	13.23
645.226	13.42
645.415	13.7
645.604	13.97
645.793	14.19
645.982	14.02
646.171	13.92
646.361	13.99
646.55	14.35
646.739	14.43
646.928	14.51
647.117	14.4
647.306	14.2
647.495	13.95
647.684	13.81
647.873	13.6
648.062	13.91
648.251	13.91
648.44	13.74
648.629	13.87
648.818	13.58
649.007	13.3
649.196	13.13
649.384	13.6
649.573	14.08
649.762	14.03
649.951	14.1
650.14	14.19
650.328	14.31
650.517	14.66
650.706	14.79
650.895	14.85
651.083	14.89
651.272	14.87
651.461	14.76
651.65	14.56
651.838	14.68
652.027	14.94
652.216	14.3
652.404	13.92
652.593	13.79
652.781	13.73
652.97	13.85
653.158	13.57
653.347	13.6
653.535	13.64
653.724	13.52
653.912	13.23
654.101	12.81
654.289	13.61
654.478	13.48
654.666	13.43
654.855	13.43
655.043	13.59
655.231	13.87
655.42	14.11
655.608	13.85
655.796	14.02
655.985	14.35
656.173	14.69
656.361	14.75
656.55	15.14
656.738	14.95
656.926	14.94
657.114	15.37
657.302	15.51
657.491	15.45
657.679	15.56
657.867	15.3
658.055	15.25
658.243	15.28
658.431	14.84
658.619	14.76
658.807	14.67
658.996	14.72
659.184	14.48
659.372	14.47
659.56	14.41
659.748	14.44
659.936	14.57
660.124	14.55
660.311	14.52
660.499	14.42
660.687	14.52
660.875	14.52
661.063	14.41
661.251	14.44
661.439	14.4
661.627	14.14
661.814	14.46
662.002	14.62
662.19	14.6
662.378	14.63
662.565	14.75
662.753	15.11
662.941	15.21
663.129	15.44
663.316	15.67
663.504	15.91
663.692	15.83
663.879	15.67
664.067	15.07
664.254	14.92
664.442	14.58
664.63	14.67
664.817	14.14
665.005	13.75
665.192	13.56
665.38	13.15
665.567	12.8
665.755	12.89
665.942	12.59
666.13	12.78
666.317	12.48
666.504	12.61
666.692	12.6
666.879	12.49
667.067	12.86
667.254	12.89
667.441	13.07
667.629	13.05
667.816	13.11
668.003	13.08
668.19	13.29
668.378	13.19
668.565	13.45
668.752	13.78
668.939	13.77
669.127	13.68
669.314	13.66
669.501	13.81
669.688	13.78
669.875	14.04
670.062	14.52
670.249	14.62
670.436	15.03
670.623	14.67
670.81	14.1
670.997	14.39
671.184	14.63
671.371	14.74
671.558	14.86
671.745	15.21
671.932	15.15
672.119	14.46
672.306	14.57
672.493	14.51
672.68	15.03
672.867	14.96
673.054	15.01
673.24	15.33
673.427	15.17
673.614	14.78
673.801	14.72
673.988	14.99
674.174	15.07
674.361	15.24
674.548	15.54
674.734	15.21
674.921	16.08
675.108	16.02
675.294	15.8
675.481	15.71
675.668	15.8
675.854	15.47
676.041	15.07
676.227	15.26
676.414	15.35
676.601	15.23
676.787	15.58
676.974	14.79
677.16	14.8
677.347	14.78
677.533	14.95
677.719	14.88
677.906	15.31
678.092	15.39
678.279	15.44
678.465	15
678.651	14.88
678.838	14.79
679.024	14.85
679.21	14.59
679.397	14.55
679.583	14.68
679.769	14.32
679.955	14.38
680.142	14.44
680.328	14.64
680.514	14.41
680.7	14.71
680.886	14.85
681.073	15.18
681.259	15.37
681.445	15.22
681.631	14.83
681.817	15.16
682.003	14.92
682.189	14.96
682.375	14.55
682.561	14.75
682.747	14.6
682.933	14.08
683.119	14.05
683.305	14.23
683.491	14.46
683.677	14.45
683.863	14.01
684.049	14.24
684.235	13.92
684.42	14.02
684.606	13.91
684.792	13.85
684.978	13.53
685.164	13.25
685.349	13
685.535	13.22
685.721	13.09
685.907	13.47
686.092	13.58
686.278	13.58
686.464	13.53
686.649	13.53
686.835	13.62
687.021	14.26
687.206	14.14
687.392	14.17
687.577	13.76
687.763	14.71
687.948	14.76
688.134	15.36
688.319	15.19
688.505	15.43
688.69	16.03
688.876	16.12
689.061	16.3
689.247	16.72
689.432	16.51
689.618	16.35
689.803	15.92
689.988	15.61
690.174	14.54
690.359	14.55
690.544	15.4
690.73	15.28
690.915	15.44
691.1	15.21
691.285	15.5
691.471	15.64
691.656	16.39
691.841	16.01
692.026	16.46
692.211	16.62
692.396	16.7
692.582	15.9
692.767	16.22
692.952	15.66
693.137	16.18
693.322	15.88
693.507	15.86
693.692	15.27
693.877	15.35
694.062	15.45
694.247	15.22
694.432	15.84
694.617	15.65
694.802	15
694.987	15.55
695.172	14.8
695.357	15.02
695.541	15.21
695.726	15.88
695.911	15.76
696.096	16.18
696.281	15.57
696.466	14.88
696.65	14.78
696.835	14.99
697.02	14.76
697.204	14.93
697.389	14.57
697.574	14.43
697.759	14.03
697.943	14.03
698.128	13.72
698.312	14.2
698.497	14.71
698.682	14.81
698.866	15.12
699.051	15.32
699.235	15.24
699.42	15.48
699.604	15.47
699.789	15.32
699.973	16.09
700.158	16.06
700.342	15.75
700.527	15.21
700.711	15.54
700.895	15.14
701.08	15.11
701.264	15.44
701.448	14.79
701.633	14.82
701.817	15.19
702.001	14.08
702.186	14.55
702.37	15.05
702.554	15.11
702.738	14.44
702.923	14.37
703.107	14.34
703.291	14.15
703.475	14.79
703.659	14.96
703.843	14.44
704.027	15.08
704.212	14.24
704.396	14.79
704.58	14.99
704.764	16.04
704.948	16.31
705.132	16.31
705.316	16.31
705.5	17.02
705.684	17.8
705.868	17.95
706.052	17.69
706.235	18.01
706.419	17.6
706.603	17.73
706.787	17.31
706.971	17.04
707.155	17.05
707.339	15.58
707.522	14.69
707.706	14.1
707.89	14.07
708.074	14.25
708.257	14.09
708.441	14.3
708.625	14.18
708.808	13.85
708.992	14.33
709.176	14.32
709.359	14.88
709.543	14.86
709.727	14.79
709.91	15.63
710.094	15.25
710.277	14.98
710.461	15.13
710.644	15.83
710.828	15.25
711.011	14.93
711.195	14.67
711.378	15.39
711.562	15.41
711.745	15.1
711.928	13.42
712.112	14.16
712.295	14.3
712.478	13.76
712.662	13.5
712.845	14.31
713.028	14.5
713.212	14.75
713.395	14.05
713.578	14.32
713.761	13.96
713.945	15.74
714.128	15.51
714.311	14.91
714.494	15.58
714.677	15.45
714.86	14.89
715.043	13.81
715.227	13.64
715.41	15.27
715.593	15.02
715.776	15.44
715.959	14.88
716.142	14.35
716.325	15.13
716.508	15.3
716.691	15.6
716.874	16.03
717.057	16.28
717.239	16.58
717.422	15.19
717.605	15.42
717.788	14.9
717.971	14.89
718.154	15.57
718.337	15.66
718.519	14.94
718.702	14.24
718.885	13.89
719.068	14.14
719.25	14.31
719.433	14.9
719.616	15.73
719.798	16.65
719.981	16.7
720.164	16.79
720.346	17.08
720.529	17.76
720.712	18.24
720.894	18.32
721.077	18.67
721.259	17.54
721.442	16.57
721.624	16.22
721.807	16.5
721.989	15.94
722.172	15.29
722.354	15.72
722.537	15.82
722.719	15.95
722.901	16.57
723.084	16.04
723.266	16.65
723.448	16.91
723.631	16.21
723.813	15.2
723.995	15.36
724.178	14.98
724.36	14.94
724.542	14.76
724.724	14.87
724.907	13.95
725.089	13.83
725.271	14.5
725.453	15.69
725.635	15.67
725.817	15.51
725.999	16.28
726.181	16.16
726.364	14.79
726.546	13.83
726.728	13.24
726.91	14.66
727.092	14.24
727.274	13.26
727.456	12.72
727.638	12
727.819	12.72
728.001	11.89
728.183	12.31
728.365	13
728.547	13.67
728.729	13.62
728.911	12.94
729.093	13.74
729.274	13.95
729.456	14.4
729.638	14.95
729.82	14.34
730.001	14.67
730.183	14.73
730.365	14.26
730.546	14.24
730.728	15.22
730.91	15.63
731.091	16.13
731.273	15.73
731.455	15.65
731.636	16.68
731.818	16.92
731.999	16.75
732.181	16.41
732.362	16.91
732.544	16.91
732.725	16.39
732.907	15.91
733.088	15.05
733.27	16.09
733.451	15.2
733.633	13.91
733.814	13.65
733.995	12.94
734.177	13.78
734.358	14.6
734.539	14.44
734.721	14.3
734.902	14.29
735.083	14.51
735.264	13.28
735.446	13.63
735.627	13.76
735.808	13.53
735.989	15.01
736.17	15.07
736.351	13.9
736.533	13.98
736.714	12.62
736.895	11.96
737.076	11.39
737.257	12.34
737.438	13.7
737.619	14.06
737.8	14.95
737.981	14.9
738.162	14.97
738.343	14.12
738.524	14.13
738.705	15.57
738.886	15.54
739.067	17.49
739.247	16.89
739.428	15.77
739.609	15.36
739.79	15.66
739.971	15.41
740.151	16.11
740.332	16.85
740.513	16.73
740.694	15.56
740.874	15.69
741.055	14.58
741.236	15.03
741.417	14.74
741.597	15.7
741.778	15.02
741.958	15.4
742.139	13.68
742.32	14.59
742.5	15.32
742.681	16.46
742.861	16.39
743.042	17.24
743.222	16.99
743.403	18.45
743.583	17.43
743.764	18.09
743.944	17.11
744.124	17.92
744.305	17.46
744.485	15.71
744.666	16.93
744.846	18.28
745.026	16.9
745.207	15.71
745.387	14.88
745.567	15.87
745.747	14.89
745.928	15.01
746.108	15.06
746.288	16.07
746.468	17.61
746.648	16.42
746.829	16.31
747.009	16.9
747.189	17.62
747.369	17.7
747.549	17.28
747.729	17.36
747.909	18.03
748.089	18.18
748.269	18.33
748.449	17.09
748.629	16.49
748.809	15.18
748.989	14.73
749.169	15.84
749.349	15.28
749.529	14.92
749.709	14.85
749.889	15.25
750.068	14.86
750.248	14.29
750.428	14.56
750.608	15.23
750.788	16
750.967	16.22
751.147	17.71
751.327	18.01
751.507	18.36
751.686	18.37
751.866	18.39
752.046	18.09
752.225	18.68
752.405	19.13
752.585	18.51
752.764	17.66
752.944	19.15
753.123	17.24
753.303	17.44
753.482	16.66
753.662	18.26
753.841	16.57
754.021	16.1
754.2	15.16
754.38	15.03
754.559	16.64
754.739	16.2
754.918	14.28
755.097	13.73
755.277	14.05
755.456	13.98
755.635	11.54
755.815	12.28
755.994	13.92
756.173	13.19
756.352	12.52
756.532	11.03
756.711	12.22
756.89	11.27
757.069	12.06
757.248	11.23
757.427	12.12
757.607	15.86
757.786	16.75
757.965	16.52
758.144	17.02
758.323	17.73
758.502	17.81
758.681	17.15
758.86	19.35
759.039	18.35
759.218	17.6
759.397	17.97
759.576	15.35
759.755	15.1
759.934	14.52
760.113	14.73
760.291	13.93
760.47	14.76
760.649	16.07
760.828	15.15
761.007	16.19
761.186	15.49
761.364	15.34
761.543	16.38
761.722	16.1
761.901	16.97
762.079	17.71
762.258	18.05
762.437	19.13
762.615	18
762.794	19.31
762.972	19.14
763.151	19.86
763.33	18.93
763.508	17.93
763.687	18.13
763.865	17.31
764.044	16.82
764.222	17.76
764.401	15.8
764.579	16.44
764.758	15.14
764.936	15.34
765.114	15.76
765.293	16.19
765.471	16.98
765.65	16.92
765.828	17.29
766.006	17.1
766.184	15.6
766.363	16.75
766.541	15.72
766.719	16.64
766.898	17.55
767.076	17.19
767.254	17.68
767.432	17.82
767.61	17.44
767.788	17.02
767.967	17.06
768.145	18
768.323	16.85
768.501	16.94
768.679	14.99
768.857	13.39
769.035	13.53
769.213	12.53
769.391	12.79
769.569	13.29
769.747	15.09
769.925	15.55
770.103	15.14
770.281	15.51
770.459	17.06
770.636	18.24
770.814	16.99
770.992	17.11
771.17	17.64
771.348	16.65
771.525	14.68
771.703	13.23
771.881	11.22
772.059	10
772.236	12.18
772.414	11.35
772.592	10.98
772.769	12.54
772.947	12.61
773.125	13.89
773.302	13.82
773.48	16.63
773.657	17.48
773.835	17.71
774.013	19.99
774.19	19.37
774.368	20.14
774.545	21.49
774.723	23.52
774.9	24.78
775.077	25.08
775.255	24.74
775.432	23.06
775.61	21.79
775.787	23.3
775.964	22.57
776.142	21.27
776.319	20.69
776.496	22.11
776.674	19.54
776.851	18.6
777.028	18.36
777.205	18.96
777.382	19.32
777.56	19.7
777.737	21.3
777.914	20.59
778.091	21.84
778.268	23.28
778.445	20.58
778.622	20.4
778.8	21.07
778.977	20.96
779.154	20.05
779.331	20.06
779.508	18.3
779.685	15.39
779.862	15.33
780.038	12.61
780.215	10.82
780.392	10.98
780.569	9.2
780.746	7.43
780.923	7.1
781.1	6.98
781.277	9.24
781.453	10.61
781.63	13.25
781.807	14.4
781.984	15.55
782.16	17.52
782.337	19.66
782.514	19.96
782.691	20.89
782.867	19.01
783.044	19.42
783.221	19.34
783.397	20.74
783.574	17.35
783.75	16.2
783.927	17.43
784.103	17.06
784.28	14.94
784.456	15.86
784.633	16.65
784.809	21.16
784.986	22.46
785.162	19.62
785.339	18.74
785.515	22.55
785.692	24.53
785.868	26.27
786.044	26.46
786.221	23.52
786.397	22.97
786.573	22.38
786.749	18.05
786.926	17.1
787.102	17.35
787.278	18.27
787.454	16.42
787.631	15.49
787.807	14.18
787.983	12.32
788.159	18.41
788.335	18.76
788.511	16.61
788.687	19.18
788.863	20.13
789.039	20.88
789.216	21.8
789.392	22.47
789.568	20.66
789.744	20.56
789.919	22.45
790.095	19.44
790.271	19.81
790.447	20.89
790.623	18.7
790.799	15.49
790.975	13
791.151	13.02
791.327	12.63
791.502	15.78
791.678	16.12
791.854	13.17
792.03	10.64
792.205	13.98
792.381	13.51
792.557	10.08
792.733	13.95
792.908	19.43
793.084	15.52
793.259	11.72
793.435	10.19
793.611	8.34
793.786	11.71
793.962	14.61
794.137	12.31
794.313	13.07
794.488	21.33
794.664	20.33
794.839	15.99
795.015	16.6
795.19	19.38
795.366	16.69
795.541	16.75
795.716	16.47
795.892	15.8
796.067	17.45
796.242	19.16
796.418	11.47
796.593	10.44
796.768	13.63
796.944	14.12
797.119	12.52
797.294	19.19
797.469	19.61
797.644	19.1
797.82	18.21
797.995	17.87
798.17	21.49
798.345	22.44
798.52	24.18
798.695	23.02
798.87	21.82
799.045	24.69
799.22	20.96
799.395	19.38
799.57	20.6
799.745	22.66
799.92	23.05
800.095	19.44
800.27	19.11
800.445	16.23
800.62	20.17
800.795	22.33
800.97	21.68
801.145	21.38
801.319	20.66
801.494	19.4
801.669	21.82
801.844	20.1
802.018	19.28
802.193	26.41
802.368	29.28
802.543	22.51
802.717	27.28
802.892	23.49
803.067	22.73
803.241	24.73
803.416	24.87
803.59	23.51
803.765	23.73
803.94	22.9
804.114	20.96
804.289	20.48
804.463	23.69
804.638	16.62
804.812	22.56
804.986	23.86
805.161	26.92
805.335	22.13
805.51	19.49
805.684	19.4
805.858	18.27
806.033	13.97
806.207	13.11
806.381	12.11
806.556	12.35
806.73	10.76
806.904	10.31
807.078	7.26
807.253	6.87
807.427	6.12
807.601	2.91
807.775	0.97
807.949	2.31
808.123	-1.39
808.298	-2.65
808.472	-0.54
808.646	1.65
808.82	-3.46
808.994	-0.53
809.168	-1.96
809.342	-5.1
809.516	2.05
809.69	9.11
809.864	10.39
810.038	14.8
810.212	13.83
810.385	14.68
810.559	12.92
810.733	15.8
810.907	11.6
811.081	14.65
811.255	19.39
811.428	16.27
811.602	11.69
811.776	8.76
811.95	6.97
812.123	12.75
812.297	7.36
812.471	4.3
812.644	8.43
812.818	6.58
812.992	8.74
813.165	12.55
813.339	9.88
813.512	9.53
813.686	7.7
813.86	3.67
814.033	-1.17
814.207	1.91
814.38	-2.79
814.554	-5.28
814.727	1.42
814.9	-3.85
815.074	-16.88
815.247	-13.4
815.421	-10.73
815.594	4.11
815.767	12.43
815.941	15.38
816.114	18.94
816.287	22.66
816.46	24.02
816.634	17.81
816.807	22.42
816.98	24.33
817.153	29.85
817.327	28.43
817.5	29.55
817.673	27.79
817.846	27.64
818.019	24.1
818.192	26.04
818.365	25.51
818.538	28.86
818.711	28.92
818.884	26.02
819.057	24.6
819.23	23.12
819.403	20.66
819.576	20.02
819.749	18.42
819.922	19.38
820.095	18.56
820.268	18.48
820.441	18.34
820.614	21.25
820.786	22.76
820.959	23.2
821.132	23.79
821.305	22.11
821.477	21.61
821.65	22.49
821.823	22.8
821.996	21.63
822.168	21.08
822.341	21.02
822.514	19.38
822.686	19.98
822.859	18.68
823.031	17.86
823.204	17.39
823.376	17.56
823.549	16.5
823.722	15.39
823.894	16.18
824.067	17
824.239	16.94
824.411	18.05
824.584	17.61
824.756	17.12
824.929	17.58
825.101	18.22
825.273	18.44
825.446	19.88
825.618	19.94
825.79	19.65
825.963	18.75
826.135	19.38
826.307	18.65
826.479	18.43
826.652	20.32
826.824	19.87
826.996	19.48
827.168	17.87
827.34	18.71
827.512	20.87
827.684	21.81
827.856	21.44
828.029	20.76
828.201	21.64
828.373	22.75
828.545	21.03
828.717	22.37
828.889	23.04
829.061	24.48
829.232	23.44
829.404	21.21
829.576	22.31
829.748	24.28
829.92	26.82
830.092	25.3
830.264	26.95
830.436	29.63
830.607	29.1
830.779	29.8
830.951	30.89
831.123	30
831.294	31.98
831.466	25.43
831.638	23.47
831.809	19.08
831.981	16.47
832.153	8.87
832.324	6.48
832.496	6.12
832.667	2.57
832.839	1.74
833.011	-0.15
833.182	-2.53
833.354	1.22
833.525	0.87
833.697	-1.33
833.868	-0.33
834.039	0.68
834.211	-1.75
834.382	0.89
834.554	2.76
834.725	5.82
834.896	4.59
835.068	5.89
835.239	6.28
835.41	8.03
835.581	13.83
835.753	15.05
835.924	13.77
836.095	15.67
836.266	14.45
836.438	16.74
836.609	16.6
836.78	21.51
836.951	22.56
837.122	20.44
837.293	17.3
837.464	11.36
837.635	20.91
837.806	26.26
837.977	27.08
838.148	29.3
838.319	30.23
838.49	25.75
838.661	18.37
838.832	17.2
839.003	22.01
839.174	18.4
839.345	18.21
839.516	10.43
839.687	1.86
839.857	4.52
840.028	0.91
840.199	-1.24
840.37	5.31
840.54	10.54
840.711	13.04
840.882	8.46
841.053	17.42
841.223	16.39
841.394	13.28
841.564	19.37
841.735	30.36
841.906	32.74
842.076	33.39
842.247	35.92
842.417	37.64
842.588	39.24
842.758	46.08
842.929	45.7
843.099	53.46
843.27	54.36
843.44	60.05
843.611	41.4
843.781	50.96
843.951	45.66
844.122	34.2
844.292	41.86
844.462	35.95
844.633	33.34
844.803	44.9
844.973	39.53
845.144	36.57
845.314	28.81
845.484	33.12
845.654	16.76
845.824	26.75
845.995	35.12
846.165	18.44
846.335	-5.49
846.505	10.3
846.675	6.93
846.845	9.54
847.015	21.4
847.185	34.68
847.355	27.43
847.525	69.65
847.695	72.63
847.865	76.35
848.035	83.82
848.205	125.76
848.375	151.06
848.545	176.33
848.715	183.26
848.884	142.18
849.054	113.4
849.224	101.53
849.394	45.4
849.564	43.52
849.733	42.57
849.903	51
850.073	33.05
850.243	33.21
850.412	30.21
850.582	14.69
850.752	28.14
850.921	4.55
851.091	1.38
851.26	43.69
851.43	10.77
851.599	16.83
851.769	22.91
851.939	58.95
852.108	70.85
852.278	38.09
852.447	109.86
852.616	81.66
852.786	64.33
852.955	26.65
853.125	37.16
853.294	58.83
853.463	53.48
853.633	11.82
853.802	-40.67
853.971	-5.86
854.141	-57.11
854.31	-64.77
854.479	-56.36
854.648	-32.19
854.818	-32
854.987	-1.73
855.156	14.13
855.325	13.18
855.494	28.96
855.663	33.71
855.832	17.75
856.001	27.08
856.171	25.83
856.34	57.39
856.509	42.25
856.678	26.37
856.847	27.1
857.016	-10.7
857.185	-121.34
857.353	-132.36
857.522	-14.27
857.691	52.61
857.86	55.9
858.029	29.66
858.198	19.82
858.367	-1.97
858.535	14.75
858.704	2.84
858.873	-6.51
859.042	2.1
859.21	27.29
859.379	13.23
859.548	9.97
859.717	26.82
859.885	48.17
860.054	48.96
860.222	54.75
860.391	48.61
860.56	46.51
860.728	60.64
860.897	63.4
861.065	39.77
861.234	44.24
861.402	44.92
861.571	41.33
861.739	24.11
861.908	36.88
862.076	41.13
862.244	42.7
862.413	64.17
862.581	50.58
862.749	46.23
862.918	57.33
863.086	46.33
863.254	27.74
863.423	48.87
863.591	102.12
863.759	111.96
863.927	119.85
864.096	85.42
864.264	55.87
864.432	56.17
864.6	60.85
864.768	50.7
864.936	72.68
865.104	45.75
865.272	34.64
865.44	18.97
865.608	-7.37
865.776	-25.07
865.944	-11.83
866.112	-7.93
866.28	-16.42
866.448	-14.17
866.616	-7.42
866.784	-1.1
866.952	1.22
867.12	-19.94
867.288	-33.36
867.455	-20.78
867.623	-20.7
867.791	-19.84
867.959	-15.32
868.127	0.74
868.294	-17.46
868.462	-15.31
868.63	-109.09
868.797	-11.7
868.965	24.45
869.133	57.24
869.3	67.14
869.468	132.24
869.636	263.4
869.803	169.94
869.971	138.94
870.138	251.42
870.306	183.09
870.473	150.07
870.641	759.15
870.808	189.1
870.975	624.51
871.143	369.78
871.31	-986.13
871.478	1277.57
871.645	232.19
871.812	88.06
871.98	62.63
872.147	99.74
872.314	115.47
872.482	73.99
872.649	95.58
872.816	78.03
872.983	88.26
873.15	88.23
873.318	62.44
873.485	70.57
873.652	70.24
873.819	81.67
873.986	87.28
874.153	99.4
874.32	95
874.487	89.72
874.654	67.75
874.821	49.91
874.988	39.6
875.155	40.38
875.322	23.13
875.489	19.05
875.656	19.67
875.823	-28.23
875.99	-266.85
876.157	579.75
876.324	510.15
876.49	2176.52
876.657	238.93
876.824	-40.04
876.991	-16.62
877.157	-118.55
877.324	-8.44
877.491	-18.19
877.658	-6.48
877.824	-18.54
877.991	4.39
878.157	-8.81
878.324	0.6
878.491	1.01
878.657	23.82
878.824	11.09
878.99	28.41
879.157	-11.83
879.323	-0.87
879.49	-168.23
879.656	-968.67
879.823	249.93
879.989	109.97
880.156	63.36
880.322	124.98
880.488	-78
880.655	-18.87
880.821	17.21
880.987	39.95
881.154	26.97
881.32	25.99
881.486	21.1
881.652	27.22
881.819	13.66
881.985	16.78
882.151	14.09
882.317	12.07
882.483	17.13
882.649	16.64
882.816	15.9
882.982	16.9
883.148	20.09
883.314	21.89
883.48	20.89
883.646	22.86
883.812	22.52
883.978	23.56
884.144	21.69
884.31	22.34
884.476	20.79
884.642	22.03
884.807	22.24
884.973	18.91
885.139	18.61
885.305	21
885.471	18.21
885.637	17.37
885.802	21.67
885.968	24.85
886.134	24.59
886.3	32.18
886.465	29.3
886.631	29.9
886.797	37.38
886.962	34.04
887.128	33.15
887.293	47.2
887.459	44.77
887.625	37.41
887.79	41.21
887.956	37.77
888.121	27.07
888.287	26.34
888.452	32.23
888.618	22.75
888.783	34.01
