Data from 2937898_Reflection_3.txt Node
Date: Wed Jul 15 13:47:14 EDT 2015
User: robert
Spectrometer: USB4E03001
Autoset integration time: false
Trigger mode: 4
Integration Time (sec): 1.000000E-1
Scans to average: 10
Electric dark correction enabled: true
Nonlinearity correction enabled: false
Boxcar width: 5
Stray light correction enabled: false
XAxis mode: Wavelengths
Stop averaging: false
Number of Pixels in Spectrum: 3648
>>>>>Begin Spectral Data<<<<<
177.566	113.9
177.785	155.52
178.005	160.44
178.225	167.15
178.445	177.72
178.665	-763.12
178.885	17.05
179.105	179.87
179.324	182.42
179.544	344.13
179.764	157.78
179.984	247.99
180.204	393.46
180.423	389.03
180.643	341.88
180.863	395.88
181.083	560.76
181.302	326.47
181.522	360.13
181.742	136.3
181.961	101.69
182.181	2467.57
182.401	239
182.621	3047.3
182.84	-56.64
183.06	398.26
183.279	-68.13
183.499	22.66
183.719	87.34
183.938	-683.2
184.158	-5.9
184.377	-40.55
184.597	280.86
184.816	128.25
185.036	83.51
185.256	91.78
185.475	180.87
185.695	111.81
185.914	125.69
186.134	153.88
186.353	494.36
186.572	347.78
186.792	479.51
187.011	354.3
187.231	532.2
187.45	219.24
187.67	191.27
187.889	212.93
188.108	12010.42
188.328	210.13
188.547	194.53
188.766	219.15
188.986	260.5
189.205	241.86
189.424	230.39
189.644	375.93
189.863	570.76
190.082	1957.94
190.302	2008.2
190.521	293.39
190.74	536.58
190.959	1207.46
191.178	431.15
191.398	594.86
191.617	802.65
191.836	-501.06
192.055	-233.76
192.274	-65.88
192.494	-160.3
192.713	-91.17
192.932	-62.06
193.151	-68.72
193.37	-58.77
193.589	-26.38
193.808	-69.07
194.027	-111.33
194.246	-114.57
194.465	-285.39
194.685	-535.28
194.904	3052.36
195.123	613.62
195.342	312.6
195.561	507.5
195.78	298.6
195.999	171.31
196.218	100.61
196.436	110
196.655	197.6
196.874	324.67
197.093	192.64
197.312	2663.82
197.531	181.04
197.75	235.25
197.969	454.87
198.188	672.55
198.407	273.74
198.625	782.7
198.844	250.98
199.063	171.97
199.282	135.31
199.501	324.96
199.719	7487.5
199.938	615.19
200.157	5700
200.376	24188.89
200.594	773.06
200.813	-86.17
201.032	-44.29
201.251	262.03
201.469	-32.7
201.688	13.23
201.907	21.93
202.125	55.92
202.344	38.96
202.563	30.39
202.781	34.02
203	41.46
203.218	21.72
203.437	-16.72
203.656	-11.9
203.874	-2.64
204.093	-199.03
204.311	-33.81
204.53	177.79
204.748	157
204.967	73.99
205.185	-834.47
205.404	816.04
205.622	289.45
205.841	209.49
206.059	-322.27
206.278	-182.24
206.496	-85.5
206.715	3348.03
206.933	-842.88
207.151	-288.28
207.37	-330.4
207.588	862.18
207.806	3492.06
208.025	-783.84
208.243	490.43
208.461	375.77
208.68	370
208.898	-203.49
209.116	408.58
209.335	564.76
209.553	121.08
209.771	140.14
209.989	263.99
210.208	-364.83
210.426	695.49
210.644	1473.3
210.862	390.71
211.081	282.74
211.299	217.82
211.517	-734.74
211.735	-164.5
211.953	-467.14
212.171	-403.74
212.39	-86275
212.608	240.73
212.826	-243.68
213.044	-19.6
213.262	32.08
213.48	-151.06
213.698	15.44
213.916	33.27
214.134	30.52
214.352	76.43
214.57	99.78
214.788	81.45
215.006	67.37
215.224	115.3
215.442	80.23
215.66	45.82
215.878	23.21
216.096	4.61
216.314	-38.5
216.532	31.97
216.75	-15.18
216.968	-138.22
217.185	-342.84
217.403	-141.19
217.621	-129.76
217.839	-175.06
218.057	-241.87
218.275	-336.05
218.492	-171.72
218.71	-262.62
218.928	-615.48
219.146	-1580
219.363	-625.94
219.581	-880.8
219.799	103777.78
220.017	2027.21
220.234	-2003.51
220.452	-737.99
220.67	-386.07
220.887	-195.02
221.105	-73.44
221.323	-243.76
221.54	-267.89
221.758	-108.62
221.976	-146.89
222.193	-269.9
222.411	-51.28
222.629	-55.45
222.846	-16.93
223.064	19.65
223.281	7.43
223.499	-9.01
223.716	0.81
223.934	28.04
224.151	32.25
224.369	25.61
224.586	24.36
224.804	22.54
225.021	23.57
225.239	-1.6
225.456	3.96
225.674	-14.71
225.891	-16.78
226.108	-38.47
226.326	-35.45
226.543	-48.84
226.76	-40.45
226.978	-18.45
227.195	-17.69
227.413	-19.38
227.63	-22.18
227.847	-24.1
228.064	-17.05
228.282	-16.4
228.499	-8.38
228.716	-2.79
228.934	-0.09
229.151	3.4
229.368	2.29
229.585	1.49
229.802	1.44
230.02	5.52
230.237	9.24
230.454	11.57
230.671	9.78
230.888	13.52
231.105	7.74
231.323	6.72
231.54	1.13
231.757	-6.32
231.974	-3.51
232.191	0.74
232.408	1.61
232.625	-0.47
232.842	3.95
233.059	0.07
233.276	-13.18
233.493	-9.18
233.71	-7.7
233.927	-0.69
234.144	8.34
234.361	7.65
234.578	-4.73
234.795	-4.43
235.012	-7.28
235.229	-10.93
235.446	-6.02
235.663	-1.03
235.879	-2.79
236.096	-4.72
236.313	-12.75
236.53	-11.85
236.747	-12.38
236.964	-5.06
237.181	-12.6
237.397	-8.59
237.614	-12.51
237.831	-5.9
238.048	-6.74
238.264	-9.54
238.481	-1.26
238.698	-6.16
238.915	-13.85
239.131	-8.26
239.348	-8.83
239.565	-2.02
239.781	-14.01
239.998	-10.94
240.215	-15.18
240.431	-11.3
240.648	-5.46
240.865	-9.98
241.081	-3.92
241.298	-2.27
241.514	-2.41
241.731	2.45
241.947	2.45
242.164	4.89
242.38	7.1
242.597	8.92
242.814	6.45
243.03	4.97
243.246	6
243.463	5.45
243.679	7.35
243.896	6.68
244.112	2.76
244.329	0.93
244.545	1.35
244.762	-0.95
244.978	-1.95
245.194	-3.7
245.411	-3.28
245.627	-2.25
245.843	-1.45
246.06	-3.41
246.276	-1.95
246.492	0.21
246.709	1.41
246.925	2.63
247.141	3.24
247.357	3.41
247.574	5.16
247.79	5.91
248.006	7.04
248.222	7.78
248.439	7.76
248.655	8.01
248.871	9.3
249.087	9.04
249.303	8.06
249.519	7.61
249.736	6.91
249.952	5.49
250.168	4.62
250.384	2.02
250.6	1.34
250.816	2.49
251.032	1.46
251.248	0.12
251.464	1.29
251.68	2.41
251.896	2.36
252.112	3.61
252.328	5.26
252.544	6.02
252.76	4.49
252.976	3.65
253.192	2.48
253.408	1.03
253.624	0.91
253.84	0.76
254.056	0.22
254.272	-0.2
254.487	1.02
254.703	-1.8
254.919	-4
255.135	0.85
255.351	1.65
255.567	1.78
255.782	1.56
255.998	-4.48
256.214	-6.56
256.43	-6.14
256.646	-4.48
256.861	-3.86
257.077	-4.68
257.293	-5.19
257.508	-9.19
257.724	-8.71
257.94	-4.37
258.155	-3.05
258.371	1.5
258.587	3.19
258.802	3.64
259.018	3.89
259.234	3.51
259.449	4.81
259.665	5.11
259.88	5.82
260.096	5.86
260.312	5.21
260.527	5.2
260.743	4.32
260.958	4.22
261.174	4.37
261.389	4.19
261.605	3.19
261.82	2.27
262.036	2.46
262.251	1.6
262.466	1.15
262.682	1.83
262.897	3.33
263.113	3.09
263.328	3.21
263.543	1.92
263.759	0.22
263.974	-0.14
264.189	-0.43
264.405	-0.03
264.62	1.2
264.835	3.99
265.051	2.05
265.266	0.47
265.481	1.33
265.696	1.47
265.912	1.89
266.127	2.44
266.342	3.76
266.557	4.53
266.773	3.18
266.988	3.19
267.203	2.21
267.418	2.77
267.633	2.76
267.848	3.43
268.064	3.6
268.279	3.89
268.494	4.53
268.709	4.47
268.924	4.78
269.139	5.62
269.354	4.54
269.569	4.16
269.784	4.57
269.999	3.76
270.214	3.55
270.429	3.65
270.644	4.75
270.859	5.06
271.074	5.88
271.289	5.55
271.504	5.38
271.719	5.97
271.934	5.85
272.149	4.96
272.363	4.76
272.578	4.37
272.793	3.86
273.008	2.12
273.223	1.33
273.438	1.77
273.653	1.58
273.867	0.9
274.082	1.01
274.297	1.33
274.512	2.82
274.726	3.77
274.941	4.34
275.156	3.4
275.371	3.97
275.585	4.31
275.8	2.86
276.015	3.11
276.229	4.2
276.444	3.12
276.659	1.61
276.873	0.23
277.088	0.41
277.302	0.02
277.517	2.15
277.732	2.57
277.946	2.42
278.161	3.03
278.375	1.94
278.59	1.94
278.804	3.01
279.019	3.49
279.233	2.9
279.448	3.57
279.662	2.97
279.877	0.73
280.091	-0.1
280.306	0.28
280.52	0.9
280.735	1.46
280.949	0.88
281.163	-0.72
281.378	-0.69
281.592	1.24
281.806	1
282.021	0.93
282.235	3.11
282.449	2.87
282.664	2.32
282.878	2.7
283.092	3.29
283.307	3.59
283.521	4.62
283.735	4.89
283.949	4.3
284.164	5.5
284.378	6
284.592	4.47
284.806	5.72
285.02	4.06
285.234	2.07
285.449	0.92
285.663	1.33
285.877	0.77
286.091	0.83
286.305	1.29
286.519	0.6
286.733	1.4
286.947	2.13
287.161	0.66
287.375	2.79
287.589	3.83
287.803	6.06
288.017	3.84
288.231	4.03
288.445	4.07
288.659	3.68
288.873	2.65
289.087	2
289.301	1.28
289.515	3.21
289.729	1.97
289.943	0.79
290.157	0.5
290.371	3.99
290.584	4.1
290.798	3.23
291.012	2.24
291.226	2.51
291.44	0.57
291.654	-0.27
291.867	-2.38
292.081	-1.44
292.295	-0.59
292.509	-0.85
292.722	-3.16
292.936	-1.89
293.15	-1.62
293.364	-0.29
293.577	-0.25
293.791	2.21
294.005	3.75
294.218	5.08
294.432	5.72
294.645	6
294.859	4.96
295.073	4.62
295.286	4.46
295.5	6.38
295.713	6.46
295.927	8.13
296.14	7.3
296.354	8.57
296.568	8.42
296.781	8.52
296.994	8.99
297.208	9.59
297.421	10.71
297.635	10.53
297.848	8.88
298.062	8.05
298.275	5.39
298.489	5.52
298.702	4.79
298.915	4.56
299.129	4.09
299.342	3.61
299.555	2.44
299.769	0.42
299.982	0.77
300.195	2.92
300.409	3.55
300.622	4.86
300.835	5.61
301.048	5.79
301.262	6.45
301.475	6.25
301.688	6.05
301.901	6.8
302.115	7.67
302.328	8.54
302.541	6.59
302.754	7.64
302.967	8.97
303.18	7.94
303.393	7.87
303.607	5.17
303.82	5.49
304.033	5.81
304.246	4.69
304.459	6.56
304.672	5.12
304.885	5.2
305.098	4.58
305.311	4.34
305.524	6.11
305.737	5.63
305.95	8.72
306.163	8.56
306.376	8.73
306.589	9.82
306.802	8.59
307.015	9.46
307.228	10.8
307.44	10.54
307.653	11.43
307.866	10.97
308.079	10.66
308.292	11.34
308.505	12.02
308.718	12.65
308.93	11.15
309.143	10.23
309.356	9.39
309.569	7.91
309.781	8.43
309.994	8.25
310.207	8.04
310.42	8.61
310.632	7.43
310.845	7.03
311.058	7.65
311.27	9.02
311.483	10.55
311.696	10.2
311.908	10.29
312.121	9.91
312.333	9.69
312.546	10.8
312.759	10.17
312.971	10.57
313.184	10.53
313.396	7.58
313.609	7.96
313.821	7.34
314.034	7.83
314.246	8.16
314.459	8.72
314.671	8.59
314.884	7.05
315.096	7.25
315.309	8.66
315.521	7.73
315.733	9.5
315.946	9.37
316.158	9.67
316.371	8.82
316.583	8.49
316.795	9.23
317.008	8.64
317.22	9.34
317.432	9.54
317.644	8.33
317.857	9.04
318.069	8.36
318.281	9.04
318.494	9
318.706	8.96
318.918	11.78
319.13	13.03
319.342	12.28
319.555	12.69
319.767	12.65
319.979	11.06
320.191	12.67
320.403	13.47
320.615	14.05
320.827	14.03
321.039	14.53
321.252	12.79
321.464	10.25
321.676	10.61
321.888	9.34
322.1	9.69
322.312	11.59
322.524	11.2
322.736	12.46
322.948	10.02
323.16	10.02
323.372	10.19
323.584	10.32
323.796	11.02
324.007	12.72
324.219	14.63
324.431	16.15
324.643	15.18
324.855	14.57
325.067	14.68
325.279	16.24
325.491	15.59
325.702	16.59
325.914	16.65
326.126	16.97
326.338	16.57
326.55	16.32
326.761	16.53
326.973	17.54
327.185	18.72
327.396	18.69
327.608	16.92
327.82	19.16
328.032	20.58
328.243	20.86
328.455	21.5
328.666	22.07
328.878	21.97
329.09	21.91
329.301	22.45
329.513	23.07
329.725	24.36
329.936	27.1
330.148	26.26
330.359	24.63
330.571	26.16
330.782	26.69
330.994	27.38
331.205	28.59
331.417	27.66
331.628	28.83
331.84	29.22
332.051	28.14
332.262	27.31
332.474	27.53
332.685	29.21
332.897	29.65
333.108	30.52
333.319	30.11
333.531	30.1
333.742	30.17
333.953	29.47
334.165	30.31
334.376	29.87
334.587	31.5
334.799	31.97
335.01	31.83
335.221	30.68
335.432	30.15
335.644	31.12
335.855	30.9
336.066	31.25
336.277	32.9
336.488	32.66
336.7	33.82
336.911	33.17
337.122	32.6
337.333	32.55
337.544	33.02
337.755	33.04
337.966	32.7
338.177	33.08
338.388	32.98
338.599	32.31
338.811	31.7
339.022	31.57
339.233	31.32
339.444	31.32
339.655	31.45
339.866	31.24
340.076	31.22
340.287	31.03
340.498	30.46
340.709	30.39
340.92	30.36
341.131	29.06
341.342	30.23
341.553	31.11
341.764	32.11
341.975	33.01
342.185	33.55
342.396	33.23
342.607	33.11
342.818	33.18
343.029	33.84
343.239	33.87
343.45	35.35
343.661	35.25
343.872	34.72
344.082	34.38
344.293	32.74
344.504	34.03
344.714	34.71
344.925	34.84
345.136	35.42
345.346	34.38
345.557	34.78
345.768	35.06
345.978	33.56
346.189	34.04
346.399	34.54
346.61	36.24
346.821	35
347.031	34.73
347.242	34.84
347.452	33.67
347.663	35.25
347.873	35.08
348.084	35.26
348.294	35.21
348.504	35.5
348.715	35.45
348.925	35.07
349.136	35.11
349.346	34.82
349.557	35.54
349.767	36.77
349.977	35.84
350.188	36.05
350.398	36.04
350.608	37.55
350.819	35.73
351.029	35.91
351.239	35.15
351.449	35.24
351.66	35.17
351.87	34.55
352.08	33.91
352.29	36.33
352.501	36.91
352.711	36.67
352.921	36.82
353.131	37.53
353.341	36.54
353.552	36.83
353.762	37.5
353.972	37.82
354.182	38.21
354.392	38.04
354.602	36.63
354.812	35.68
355.022	35.49
355.232	33.67
355.442	35.01
355.652	36.35
355.862	37.16
356.072	36.8
356.282	36.94
356.492	36.41
356.702	37.19
356.912	37.27
357.122	37.42
357.332	37.71
357.542	38.86
357.752	37.76
357.962	37.26
358.171	36.45
358.381	36.47
358.591	36.66
358.801	37.2
359.011	37.33
359.221	36.84
359.43	36.53
359.64	36.56
359.85	36.09
360.06	35.77
360.269	34.45
360.479	34.97
360.689	35.47
360.899	35.52
361.108	34.98
361.318	34.78
361.528	35.16
361.737	35.7
361.947	35.31
362.156	35.35
362.366	36.26
362.576	37.16
362.785	36.65
362.995	36.93
363.204	37.24
363.414	38.07
363.623	38.48
363.833	38.67
364.042	38.19
364.252	38.88
364.461	38.7
364.671	38.3
364.88	38.4
365.09	38.7
365.299	38.43
365.509	38.64
365.718	37.81
365.927	36.8
366.137	37.38
366.346	37.16
366.555	36.72
366.765	37.59
366.974	38.16
367.183	38.72
367.393	37.95
367.602	37.95
367.811	37.55
368.021	37.68
368.23	37.48
368.439	36.64
368.648	37.35
368.857	37.49
369.067	36.88
369.276	36.28
369.485	35.54
369.694	36.64
369.903	35.96
370.112	35.99
370.321	35.22
370.531	36.04
370.74	35.47
370.949	35.42
371.158	34.76
371.367	35.13
371.576	35.66
371.785	35.08
371.994	35.11
372.203	36.12
372.412	35.91
372.621	36.02
372.83	35.26
373.039	35.95
373.248	35.12
373.457	35.74
373.666	35.5
373.874	35.78
374.083	36.43
374.292	36.11
374.501	35.2
374.71	34.42
374.919	34.11
375.128	34.5
375.336	33.99
375.545	33.63
375.754	33.11
375.963	32.56
376.171	32.26
376.38	31.68
376.589	31.06
376.798	30.62
377.006	31.48
377.215	31.84
377.424	32.01
377.632	32.12
377.841	32.54
378.05	32.88
378.258	33.47
378.467	32.85
378.675	33.53
378.884	33.97
379.093	33.86
379.301	33.28
379.51	33.45
379.718	33.07
379.927	33.57
380.135	33.07
380.344	32.07
380.552	31.95
380.761	32.15
380.969	31.84
381.177	32.33
381.386	32.43
381.594	32.24
381.803	32.24
382.011	32.24
382.219	32.09
382.428	32.43
382.636	32.28
382.845	31.61
383.053	31.34
383.261	30.86
383.469	30.41
383.678	30.69
383.886	30.7
384.094	30.83
384.302	30.37
384.511	29.35
384.719	29.1
384.927	29.33
385.135	29.6
385.343	29.6
385.552	29.04
385.76	28.99
385.968	28.7
386.176	28.58
386.384	28.23
386.592	28.31
386.8	28.46
387.008	28.77
387.216	28.95
387.424	28.53
387.633	28.57
387.841	28.86
388.049	28.74
388.257	28.39
388.465	28.31
388.672	28.67
388.88	28.99
389.088	29
389.296	28.75
389.504	28.65
389.712	28.89
389.92	28.88
390.128	28.97
390.336	29.24
390.544	29.68
390.751	29.8
390.959	29.48
391.167	29.95
391.375	29.87
391.583	29.68
391.79	29.88
391.998	29.67
392.206	29.36
392.414	29.36
392.621	28.77
392.829	28.45
393.037	28.23
393.244	28.08
393.452	27.66
393.66	27.62
393.867	27.53
394.075	27.43
394.283	27.82
394.49	27.92
394.698	28.23
394.905	28.56
395.113	28.46
395.32	28.59
395.528	28.7
395.735	28.8
395.943	28.92
396.15	29.36
396.358	29.39
396.565	29.1
396.773	29.14
396.98	29.11
397.188	29.24
397.395	29.56
397.602	29.5
397.81	29.8
398.017	29.52
398.225	29.53
398.432	29.48
398.639	29.47
398.847	29.83
399.054	29.91
399.261	30.01
399.468	30.08
399.676	30.02
399.883	29.97
400.09	29.75
400.297	29.84
400.505	29.97
400.712	29.84
400.919	29.63
401.126	29.3
401.333	29.36
401.54	29.44
401.748	29.22
401.955	29.14
402.162	29.21
402.369	29.23
402.576	29.5
402.783	29.39
402.99	29.6
403.197	29.62
403.404	29.85
403.611	29.48
403.818	29.29
404.025	29.32
404.232	29.43
404.439	29.51
404.646	29.57
404.853	29.44
405.06	29.59
405.267	29.61
405.474	29.88
405.681	29.83
405.887	30.23
406.094	30.43
406.301	30.67
406.508	30.75
406.715	30.98
406.922	30.91
407.128	30.77
407.335	30.74
407.542	31.02
407.749	31.24
407.955	31.18
408.162	31.27
408.369	31.06
408.575	30.74
408.782	30.64
408.989	30.37
409.195	30.13
409.402	30.43
409.609	30.51
409.815	30.27
410.022	29.99
410.228	30.1
410.435	29.79
410.642	29.89
410.848	29.85
411.055	30.06
411.261	30
411.468	30.25
411.674	29.76
411.881	29.67
412.087	29.48
412.294	29.53
412.5	29.46
412.706	29.56
412.913	29.45
413.119	29.53
413.326	29.21
413.532	29.27
413.738	29.24
413.945	29.55
414.151	29.36
414.357	29.39
414.564	29.51
414.77	29.26
414.976	29.35
415.182	29.34
415.389	29.37
415.595	29.05
415.801	29.22
416.007	29.08
416.214	28.76
416.42	28.66
416.626	28.59
416.832	28.32
417.038	28.52
417.244	28.72
417.45	28.64
417.657	28.63
417.863	28.7
418.069	28.63
418.275	28.72
418.481	28.74
418.687	28.94
418.893	28.86
419.099	28.89
419.305	28.74
419.511	28.6
419.717	28.66
419.923	28.54
420.129	28.66
420.335	28.6
420.541	28.48
420.746	28.47
420.952	28.4
421.158	28.42
421.364	28.42
421.57	28.42
421.776	28.4
421.982	28.41
422.187	28.52
422.393	28.43
422.599	28.32
422.805	28.34
423.01	28.6
423.216	28.56
423.422	28.53
423.628	28.54
423.833	28.61
424.039	28.51
424.245	28.26
424.45	28.09
424.656	28.1
424.862	28.12
425.067	28.11
425.273	27.87
425.478	27.78
425.684	27.65
425.889	27.6
426.095	27.56
426.301	27.41
426.506	27.43
426.712	27.36
426.917	27.29
427.123	27.26
427.328	27.28
427.533	27.17
427.739	27.2
427.944	27.33
428.15	27.3
428.355	27.09
428.561	27.19
428.766	27.37
428.971	27.23
429.177	27.27
429.382	27.15
429.587	27.16
429.793	27.19
429.998	27.28
430.203	26.99
430.408	26.69
430.614	26.78
430.819	26.81
431.024	26.76
431.229	26.8
431.434	26.65
431.64	26.64
431.845	26.37
432.05	26.54
432.255	26.66
432.46	26.99
432.665	27.24
432.87	27.21
433.076	27.21
433.281	27.12
433.486	27.25
433.691	27.46
433.896	27.58
434.101	27.86
434.306	27.87
434.511	27.69
434.716	27.68
434.921	27.55
435.126	27.65
435.331	27.76
435.535	27.75
435.74	27.75
435.945	27.63
436.15	27.41
436.355	27.22
436.56	27.03
436.765	27.04
436.97	27.13
437.174	27.05
437.379	26.98
437.584	26.75
437.789	26.86
437.993	26.82
438.198	26.85
438.403	27.03
438.608	26.93
438.812	27.06
439.017	27.12
439.222	27.07
439.426	27.18
439.631	27.24
439.836	27.37
440.04	27.24
440.245	27.14
440.45	27.15
440.654	27.22
440.859	27.23
441.063	27.09
441.268	27.03
441.472	26.92
441.677	26.97
441.881	26.81
442.086	26.73
442.29	26.84
442.495	27.06
442.699	27.07
442.904	26.93
443.108	27
443.312	27.13
443.517	27.1
443.721	27.03
443.925	26.91
444.13	27.05
444.334	26.99
444.538	27.02
444.743	26.8
444.947	26.7
445.151	26.63
445.356	26.67
445.56	26.58
445.764	26.7
445.968	26.79
446.173	26.77
446.377	26.7
446.581	26.7
446.785	26.61
446.989	26.74
447.193	26.86
447.398	26.93
447.602	26.83
447.806	26.86
448.01	26.75
448.214	26.62
448.418	26.64
448.622	26.58
448.826	26.68
449.03	26.68
449.234	26.54
449.438	26.33
449.642	26.24
449.846	26.25
450.05	26.1
450.254	26.16
450.458	26.24
450.662	26.12
450.866	26.03
451.069	25.87
451.273	25.74
451.477	25.89
451.681	25.88
451.885	26.06
452.089	26.01
452.292	26.09
452.496	26.03
452.7	26.12
452.904	26.25
453.107	26.3
453.311	26.33
453.515	26.28
453.719	26.32
453.922	26.3
454.126	26.24
454.33	26.06
454.533	26.17
454.737	26.11
454.94	25.93
455.144	26.02
455.348	25.95
455.551	25.94
455.755	25.99
455.958	25.7
456.162	25.78
456.365	25.69
456.569	25.84
456.772	25.68
456.976	25.68
457.179	25.62
457.383	25.5
457.586	25.51
457.79	25.73
457.993	25.77
458.196	25.95
458.4	25.84
458.603	25.85
458.807	25.94
459.01	26.14
459.213	26.24
459.417	26.31
459.62	26.35
459.823	26.49
460.026	26.25
460.23	26.28
460.433	26.29
460.636	26.39
460.839	26.4
461.042	26.35
461.246	26.2
461.449	26.09
461.652	26.09
461.855	26.13
462.058	26.03
462.261	26.24
462.464	26.29
462.668	26.46
462.871	26.32
463.074	26.48
463.277	26.34
463.48	26.27
463.683	26.49
463.886	26.51
464.089	26.16
464.292	26.33
464.495	26.27
464.698	26.29
464.901	26
465.104	26.19
465.306	26.04
465.509	26.32
465.712	26.58
465.915	26.49
466.118	26.62
466.321	26.77
466.524	26.66
466.726	26.54
466.929	26.67
467.132	26.8
467.335	26.54
467.538	26.56
467.74	26.57
467.943	26.58
468.146	26.56
468.348	26.46
468.551	26.59
468.754	26.39
468.956	26.68
469.159	26.67
469.362	26.75
469.564	27.04
469.767	27.09
469.969	27.05
470.172	27.08
470.375	27.16
470.577	27.16
470.78	27.16
470.982	27.36
471.185	27.16
471.387	26.91
471.59	26.98
471.792	26.95
471.995	26.91
472.197	27.12
472.399	26.85
472.602	26.76
472.804	26.8
473.007	26.97
473.209	26.85
473.411	26.94
473.614	27.1
473.816	27.04
474.018	27.05
474.22	27.29
474.423	27.15
474.625	27.4
474.827	27.45
475.03	27.42
475.232	27.41
475.434	27.72
475.636	27.62
475.838	27.56
476.04	27.4
476.243	27.43
476.445	27.2
476.647	27.19
476.849	27.04
477.051	27
477.253	26.9
477.455	26.73
477.657	26.62
477.859	26.81
478.061	26.81
478.263	27.06
478.465	27.25
478.667	27.43
478.869	27.46
479.071	27.66
479.273	27.61
479.475	27.69
479.677	27.66
479.879	27.81
480.081	27.67
480.283	27.79
480.485	27.78
480.686	27.45
480.888	27.46
481.09	27.45
481.292	27.4
481.494	27.37
481.695	27.33
481.897	27.36
482.099	27.26
482.301	27.33
482.502	27.31
482.704	27.15
482.906	27.15
483.107	27.1
483.309	27.12
483.511	27.07
483.712	27.18
483.914	27.14
484.115	27.14
484.317	27.09
484.519	27.03
484.72	27
484.922	27.06
485.123	27.08
485.325	27.06
485.526	27.04
485.728	27.08
485.929	27.03
486.131	27.03
486.332	27.06
486.534	27.08
486.735	27.1
486.936	27.11
487.138	27.13
487.339	27.17
487.541	27.27
487.742	27.25
487.943	27.18
488.144	27.2
488.346	27.22
488.547	27.23
488.748	27.26
488.95	27.3
489.151	27.3
489.352	27.24
489.553	27.17
489.755	27.09
489.956	27.09
490.157	27.18
490.358	27.12
490.559	26.99
490.76	26.96
490.961	27.02
491.163	26.96
491.364	26.97
491.565	26.95
491.766	27.04
491.967	27.07
492.168	27.08
492.369	27.11
492.57	27.13
492.771	27.27
492.972	27.31
493.173	27.26
493.374	27.29
493.575	27.33
493.776	27.51
493.976	27.6
494.177	27.54
494.378	27.57
494.579	27.5
494.78	27.41
494.981	27.42
495.182	27.43
495.382	27.39
495.583	27.34
495.784	27.27
495.985	27.06
496.185	26.9
496.386	27
496.587	26.92
496.788	26.97
496.988	27.13
497.189	27.3
497.39	27.22
497.59	27.43
497.791	27.52
497.992	27.46
498.192	27.56
498.393	27.77
498.593	27.79
498.794	27.94
498.994	27.99
499.195	28.03
499.395	28
499.596	28.26
499.796	28.25
499.997	28.31
500.197	28.53
500.398	28.47
500.598	28.26
500.799	28.22
500.999	28.25
501.199	28.33
501.4	28.37
501.6	28.45
501.801	28.23
502.001	28.3
502.201	28.36
502.402	28.37
502.602	28.58
502.802	28.86
503.002	29.02
503.203	29.02
503.403	29.05
503.603	29.09
503.803	29.3
504.003	29.51
504.204	29.36
504.404	29.38
504.604	29.48
504.804	29.5
505.004	29.49
505.204	29.45
505.404	29.56
505.604	29.36
505.804	29.24
506.005	29.02
506.205	28.92
506.405	29.15
506.605	29.21
506.805	29.24
507.005	29.14
507.204	29.16
507.404	29.28
507.604	29.41
507.804	29.66
508.004	29.8
508.204	29.78
508.404	29.86
508.604	29.82
508.804	29.81
509.003	29.8
509.203	29.83
509.403	29.82
509.603	29.74
509.803	29.63
510.002	29.53
510.202	29.55
510.402	29.57
510.602	29.69
510.801	29.82
511.001	29.96
511.201	30.06
511.4	30.18
511.6	30.22
511.8	30.34
511.999	30.37
512.199	30.52
512.398	30.62
512.598	30.75
512.797	30.64
512.997	30.65
513.197	30.49
513.396	30.52
513.596	30.66
513.795	30.66
513.994	30.72
514.194	30.92
514.393	31.07
514.593	30.9
514.792	31.05
514.992	31.15
515.191	31.15
515.39	31.27
515.59	31.35
515.789	31.29
515.988	31.38
516.188	31.29
516.387	31.21
516.586	31.15
516.786	31.25
516.985	31.08
517.184	31.11
517.383	31.08
517.582	30.97
517.782	30.98
517.981	30.99
518.18	31.05
518.379	31.15
518.578	31.12
518.777	31.16
518.976	31.17
519.176	31.24
519.375	31.22
519.574	31.23
519.773	31.42
519.972	31.42
520.171	31.47
520.37	31.42
520.569	31.44
520.768	31.43
520.967	31.43
521.166	31.56
521.365	31.58
521.564	31.53
521.762	31.52
521.961	31.5
522.16	31.58
522.359	31.53
522.558	31.65
522.757	31.58
522.956	31.63
523.154	31.53
523.353	31.5
523.552	31.49
523.751	31.66
523.949	31.8
524.148	32
524.347	31.87
524.546	32.05
524.744	32
524.943	32.02
525.142	31.95
525.34	32.08
525.539	32.05
525.737	32.19
525.936	32.15
526.135	32.09
526.333	31.93
526.532	32.04
526.73	31.96
526.929	31.96
527.127	31.95
527.326	32.1
527.524	32.12
527.723	32.15
527.921	32.01
528.12	32
528.318	31.97
528.516	32.03
528.715	32.02
528.913	32.02
529.112	31.96
529.31	31.98
529.508	32
529.707	32
529.905	32.03
530.103	32.07
530.301	32.16
530.5	32.26
530.698	32.26
530.896	32.27
531.094	32.37
531.293	32.54
531.491	32.63
531.689	32.6
531.887	32.56
532.085	32.55
532.283	32.59
532.481	32.53
532.68	32.37
532.878	32.42
533.076	32.42
533.274	32.47
533.472	32.37
533.67	32.32
533.868	32.27
534.066	32.29
534.264	32.31
534.462	32.3
534.66	32.31
534.858	32.43
535.056	32.38
535.253	32.38
535.451	32.16
535.649	32.2
535.847	32.23
536.045	32.25
536.243	32.25
536.441	32.19
536.638	32.17
536.836	32.15
537.034	32.17
537.232	32.09
537.43	32.08
537.627	32.24
537.825	32.31
538.023	32.34
538.22	32.26
538.418	32.39
538.616	32.42
538.813	32.49
539.011	32.53
539.209	32.46
539.406	32.56
539.604	32.65
539.801	32.58
539.999	32.51
540.196	32.38
540.394	32.42
540.591	32.28
540.789	32.36
540.986	32.38
541.184	32.46
541.381	32.53
541.579	32.54
541.776	32.48
541.974	32.52
542.171	32.51
542.368	32.56
542.566	32.61
542.763	32.66
542.96	32.6
543.158	32.53
543.355	32.41
543.552	32.34
543.75	32.24
543.947	32.24
544.144	32.26
544.341	32.32
544.539	32.37
544.736	32.45
544.933	32.45
545.13	32.36
545.327	32.45
545.524	32.56
545.722	32.56
545.919	32.68
546.116	32.73
546.313	32.61
546.51	32.68
546.707	32.66
546.904	32.63
547.101	32.64
547.298	32.92
547.495	33.02
547.692	33.02
547.889	33.02
548.086	32.99
548.283	33.02
548.48	33.1
548.677	33.06
548.874	33.01
549.07	32.93
549.267	32.93
549.464	32.85
549.661	32.7
549.858	32.73
550.055	32.86
550.251	32.82
550.448	32.63
550.645	32.67
550.842	32.58
551.038	32.68
551.235	32.66
551.432	32.7
551.628	32.59
551.825	32.61
552.022	32.53
552.218	32.48
552.415	32.45
552.612	32.52
552.808	32.51
553.005	32.51
553.201	32.59
553.398	32.59
553.594	32.36
553.791	32.18
553.987	32.14
554.184	32.03
554.38	32.05
554.577	32.05
554.773	32.03
554.97	31.91
555.166	31.83
555.362	31.6
555.559	31.6
555.755	31.82
555.952	32.18
556.148	32.26
556.344	32.37
556.541	32.41
556.737	32.54
556.933	32.65
557.129	32.73
557.326	32.91
557.522	33.2
557.718	33.36
557.914	33.33
558.11	33.2
558.307	33.18
558.503	33.25
558.699	33.22
558.895	33.19
559.091	33.22
559.287	33.46
559.483	33.4
559.679	33.3
559.876	33.23
560.072	33.35
560.268	33.33
560.464	33.36
560.66	33.37
560.856	33.33
561.052	33.35
561.247	33.57
561.443	33.49
561.639	33.57
561.835	33.33
562.031	33.25
562.227	33.18
562.423	33.18
562.619	33.21
562.815	33.05
563.01	33.08
563.206	33.03
563.402	32.78
563.598	32.74
563.793	32.58
563.989	32.78
564.185	32.91
564.381	32.72
564.576	32.81
564.772	32.8
564.968	32.94
565.163	32.84
565.359	32.85
565.555	32.89
565.75	32.79
565.946	32.87
566.141	32.98
566.337	32.96
566.532	33.27
566.728	33.18
566.923	33.17
567.119	33.28
567.314	33.32
567.51	33.19
567.705	33.09
567.901	33
568.096	33.03
568.292	33.01
568.487	32.92
568.682	32.67
568.878	32.57
569.073	32.63
569.268	32.59
569.464	32.7
569.659	32.79
569.854	32.94
570.05	32.9
570.245	32.94
570.44	33.01
570.635	33.12
570.831	33.24
571.026	33.45
571.221	33.45
571.416	33.4
571.611	33.37
571.806	33.41
572.002	33.51
572.197	33.75
572.392	33.69
572.587	33.64
572.782	33.55
572.977	33.56
573.172	33.45
573.367	33.42
573.562	33.41
573.757	33.51
573.952	33.48
574.147	33.39
574.342	33.22
574.537	33.18
574.732	33.1
574.927	33.27
575.121	33
575.316	33.01
575.511	33.11
575.706	33.05
575.901	33.01
576.096	33.07
576.29	32.91
576.485	33.09
576.68	33
576.875	33.03
577.069	32.76
577.264	33.07
577.459	33.12
577.654	32.93
577.848	32.77
578.043	32.61
578.238	32.59
578.432	32.75
578.627	32.5
578.821	32.68
579.016	32.59
579.21	32.81
579.405	32.72
579.6	32.99
579.794	33.15
579.989	33.53
580.183	33.62
580.378	33.49
580.572	33.28
580.766	33.56
580.961	33.59
581.155	33.63
581.35	33.59
581.544	33.53
581.738	33.41
581.933	33.2
582.127	33
582.321	32.98
582.516	33.26
582.71	33.52
582.904	33.48
583.099	33.5
583.293	33.52
583.487	33.49
583.681	33.58
583.875	33.36
584.07	33.59
584.264	33.51
584.458	33.39
584.652	33.38
584.846	33.11
585.04	33.08
585.234	33.06
585.428	32.91
585.623	33.22
585.817	33.21
586.011	33.21
586.205	33.13
586.399	33.13
586.593	33.24
586.787	33.3
586.981	33.5
587.174	33.47
587.368	33.42
587.562	33.47
587.756	32.79
587.95	32.83
588.144	32.83
588.338	32.78
588.532	32.82
588.725	32.85
588.919	32.53
589.113	32.77
589.307	32.82
589.501	32.98
589.694	33.14
589.888	33.59
590.082	33.54
590.275	33.66
590.469	33.73
590.663	33.74
590.856	33.7
591.05	33.84
591.244	33.49
591.437	33.44
591.631	33.37
591.824	33.1
592.018	32.86
592.212	32.73
592.405	32.57
592.599	32.37
592.792	32.43
592.986	32.69
593.179	33.03
593.372	33.29
593.566	33.08
593.759	32.99
593.953	33.43
594.146	33.73
594.339	33.9
594.533	33.92
594.726	34.14
594.92	33.92
595.113	33.88
595.306	33.53
595.499	33.3
595.693	33.35
595.886	33.58
596.079	33.42
596.272	33.49
596.466	33.55
596.659	33.75
596.852	33.56
597.045	33.72
597.238	33.61
597.431	33.83
597.624	33.93
597.818	33.92
598.011	33.87
598.204	33.84
598.397	33.68
598.59	33.62
598.783	33.4
598.976	33.61
599.169	33.5
599.362	33.47
599.555	33.36
599.748	33.11
599.941	33.29
600.134	33.13
600.326	32.94
600.519	33.14
600.712	33.17
600.905	33.46
601.098	33.28
601.291	33.54
601.483	33.86
601.676	33.77
601.869	34.05
602.062	34.01
602.255	34.13
602.447	34.16
602.64	33.82
602.833	33.8
603.025	33.52
603.218	33.56
603.411	33.61
603.603	33.26
603.796	33.26
603.989	33.17
604.181	33.25
604.374	33.3
604.566	33.38
604.759	33.46
604.951	33.41
605.144	33.44
605.336	33.42
605.529	33.3
605.721	33.48
605.914	33.43
606.106	33.5
606.299	33.6
606.491	33.46
606.683	33.69
606.876	33.68
607.068	33.68
607.26	33.67
607.453	34.07
607.645	33.99
607.837	33.89
608.03	34.03
608.222	34.14
608.414	33.83
608.606	33.71
608.799	33.58
608.991	33.66
609.183	33.67
609.375	33.77
609.567	33.51
609.759	33.58
609.952	33.49
610.144	33.26
610.336	33.07
610.528	33.03
610.72	33.09
610.912	32.81
611.104	32.72
611.296	32.56
611.488	32.39
611.68	32.3
611.872	32.12
612.064	32.2
612.256	32.04
612.448	32.39
612.64	32.37
612.832	32.46
613.023	32.77
613.215	32.79
613.407	32.86
613.599	32.9
613.791	32.91
613.983	32.83
614.174	32.85
614.366	33.4
614.558	33.02
614.75	33.19
614.941	33.1
615.133	32.91
615.325	32.91
615.516	33.11
615.708	33.31
615.9	32.74
616.091	33.2
616.283	33.37
616.475	33.18
616.666	33.16
616.858	33.15
617.049	33.02
617.241	33.19
617.432	33.47
617.624	33.34
617.815	33.09
618.007	33.55
618.198	33.11
618.39	33.2
618.581	33.1
618.773	33.22
618.964	33.43
619.155	33.58
619.347	33.42
619.538	33.13
619.729	33.28
619.921	33.71
620.112	33.72
620.303	34.18
620.494	34.09
620.686	34.16
620.877	33.7
621.068	33.63
621.259	33.56
621.451	33.78
621.642	33.55
621.833	33.41
622.024	33.46
622.215	33.3
622.406	33.64
622.597	33.65
622.788	33.51
622.98	34.24
623.171	34.17
623.362	34.45
623.553	34.32
623.744	34.63
623.935	34.73
624.126	34.69
624.317	35.23
624.508	34.67
624.698	34.42
624.889	34.75
625.08	34.39
625.271	34.33
625.462	34.09
625.653	34.13
625.844	34.15
626.034	34.1
626.225	33.63
626.416	33.42
626.607	33.33
626.798	33.37
626.988	32.77
627.179	32.99
627.37	32.92
627.56	32.96
627.751	32.57
627.942	32.78
628.132	33.04
628.323	33.2
628.514	32.76
628.704	33.13
628.895	32.94
629.085	33.32
629.276	33.32
629.466	33.44
629.657	33.17
629.847	33.43
630.038	32.88
630.228	32.48
630.419	32.55
630.609	32.96
630.8	32.45
630.99	32.9
631.181	32.94
631.371	32.79
631.561	32.86
631.752	33.37
631.942	33.57
632.132	34.02
632.323	34.21
632.513	33.96
632.703	34.05
632.893	34.15
633.084	33.91
633.274	33.88
633.464	33.83
633.654	33.47
633.844	33.41
634.034	33.2
634.225	33
634.415	33.03
634.605	33.52
634.795	33.29
634.985	33.35
635.175	33.54
635.365	33.59
635.555	33.46
635.745	33.85
635.935	33.62
636.125	33.31
636.315	33.24
636.505	33.31
636.695	33.15
636.885	33.39
637.075	33.65
637.265	33.3
637.455	33.26
637.644	33.15
637.834	33.18
638.024	33.31
638.214	33.8
638.404	33.67
638.593	34.09
638.783	34.15
638.973	34.44
639.163	34.45
639.352	34.82
639.542	34.97
639.732	35.17
639.921	35.31
640.111	35.44
640.301	35.63
640.49	35.87
640.68	35.56
640.87	34.91
641.059	34.47
641.249	34.27
641.438	33.99
641.628	33.85
641.817	34.08
642.007	33.66
642.196	33.6
642.386	33.5
642.575	33.2
642.764	32.71
642.954	32.89
643.143	32.9
643.333	32.92
643.522	33.12
643.711	33.28
643.901	32.85
644.09	33.04
644.279	32.86
644.469	33.1
644.658	33.2
644.847	33.14
645.036	33.59
645.226	33.11
645.415	32.65
645.604	32.14
645.793	32.03
645.982	32.18
646.171	31.85
646.361	31.7
646.55	31.59
646.739	31.65
646.928	31.82
647.117	31.86
647.306	32.86
647.495	33.78
647.684	34.25
647.873	34.35
648.062	34.24
648.251	34.24
648.44	34.19
648.629	34
648.818	33.57
649.007	33.46
649.196	33.27
649.384	32.54
649.573	31.84
649.762	31.84
649.951	31.93
650.14	32.38
650.328	32.87
650.517	33.38
650.706	33.59
650.895	34.17
651.083	34.4
651.272	33.75
651.461	34.45
651.65	34.79
651.838	34.75
652.027	34.97
652.216	34.87
652.404	34.71
652.593	34.54
652.781	34.05
652.97	33.69
653.158	33.52
653.347	34.39
653.535	33.71
653.724	33.51
653.912	33.58
654.101	33.53
654.289	33.49
654.478	33.6
654.666	33.23
654.855	33.74
655.043	34.42
655.231	34.49
655.42	34.29
655.608	34.84
655.796	35.32
655.985	35.02
656.173	35.1
656.361	34.8
656.55	34.89
656.738	34.83
656.926	34.7
657.114	34.19
657.302	34.25
657.491	34.3
657.679	33.88
657.867	33.48
658.055	33.69
658.243	33.33
658.431	33.76
658.619	33.52
658.807	33.85
658.996	33.52
659.184	33.5
659.372	33.34
659.56	33.13
659.748	33.26
659.936	33.21
660.124	33.19
660.311	32.8
660.499	32.35
660.687	32.06
660.875	31.94
661.063	31.96
661.251	32.09
661.439	31.88
661.627	32.11
661.814	31.69
662.002	31.68
662.19	32.22
662.378	32.99
662.565	33.06
662.753	33.29
662.941	33.44
663.129	33.84
663.316	33.73
663.504	33.67
663.692	33.46
663.879	33.56
664.067	33.72
664.254	32.78
664.442	32.93
664.63	32.81
664.817	33.29
665.005	33.31
665.192	32.99
665.38	32.83
665.567	33.28
665.755	33.27
665.942	33.48
666.13	33.26
666.317	33.41
666.504	32.49
666.692	33.03
666.879	32.46
667.067	32.35
667.254	31.97
667.441	32.25
667.629	32.09
667.816	32.14
668.003	32.08
668.19	32.43
668.378	32.68
668.565	33.13
668.752	32.66
668.939	32.61
669.127	32.47
669.314	33.37
669.501	32.81
669.688	33.01
669.875	32.71
670.062	32.77
670.249	32.68
670.436	32.35
670.623	32
670.81	32.28
670.997	32.14
671.184	32.02
671.371	31.56
671.558	32.33
671.745	32.33
671.932	32.5
672.119	32.51
672.306	31.76
672.493	32.29
672.68	32.81
672.867	32.64
673.054	33.24
673.24	32.95
673.427	33.49
673.614	33.42
673.801	33.06
673.988	33.16
674.174	32.89
674.361	33.2
674.548	32.91
674.734	32.88
674.921	32.97
675.108	32.63
675.294	32.69
675.481	31.95
675.668	31.6
675.854	31.8
676.041	31.91
676.227	32.37
676.414	33.11
676.601	32.85
676.787	32.51
676.974	32.66
677.16	32.65
677.347	33.06
677.533	33.52
677.719	33.8
677.906	34.08
678.092	34.06
678.279	33.95
678.465	33.47
678.651	33.72
678.838	33.93
679.024	33.41
679.21	33.22
679.397	33.18
679.583	33.1
679.769	32.8
679.955	32.81
680.142	33.17
680.328	33
680.514	32.86
680.7	32.89
680.886	32.78
681.073	33.39
681.259	33.46
681.445	33
681.631	32.72
681.817	32.8
682.003	32.73
682.189	32.12
682.375	32.45
682.561	32.35
682.747	32.39
682.933	32.59
683.119	32.21
683.305	32.25
683.491	33.02
683.677	33.08
683.863	33.1
684.049	32.99
684.235	33.09
684.42	32.89
684.606	33.06
684.792	33.01
684.978	32.8
685.164	33.15
685.349	33.46
685.535	33.48
685.721	33.31
685.907	33.58
686.092	33.71
686.278	33.81
686.464	33.77
686.649	34.03
686.835	34.1
687.021	33.64
687.206	33.67
687.392	33.41
687.577	33.08
687.763	33.27
687.948	32.87
688.134	32.81
688.319	32.7
688.505	32.72
688.69	32.51
688.876	32.35
689.061	32.74
689.247	32.72
689.432	33.02
689.618	32.63
689.803	32.83
689.988	32.66
690.174	32.58
690.359	32.27
690.544	32.46
690.73	32.79
690.915	32.81
691.1	33.3
691.285	32.29
691.471	31.94
691.656	32.46
691.841	32.78
692.026	32.86
692.211	32.93
692.396	33.41
692.582	33.16
692.767	32.87
692.952	32.97
693.137	32.7
693.322	33.5
693.507	33.55
693.692	33.36
693.877	32.99
694.062	33.11
694.247	33
694.432	32.7
694.617	32.68
694.802	32.34
694.987	32.15
695.172	32.12
695.357	32.54
695.541	32.8
695.726	32.87
695.911	32.55
696.096	32.46
696.281	33.04
696.466	32.98
696.65	32.79
696.835	33.21
697.02	33.16
697.204	32.98
697.389	33.27
697.574	33.08
697.759	32.92
697.943	32.98
698.128	33.58
698.312	33.35
698.497	33.61
698.682	33.86
698.866	33.92
699.051	34
699.235	33.93
699.42	33.31
699.604	33.55
699.789	33.74
699.973	33.78
700.158	33.26
700.342	33.17
700.527	33.36
700.711	32.87
700.895	32.45
701.08	32.49
701.264	32.5
701.448	32.43
701.633	31.86
701.817	31.05
702.001	30.81
702.186	31.52
702.37	31.83
702.554	32.01
702.738	32.47
702.923	32.94
703.107	32.4
703.291	32.97
703.475	33.22
703.659	32.97
703.843	33.62
704.027	33.94
704.212	33.39
704.396	32.72
704.58	32
704.764	32.18
704.948	31.7
705.132	31.8
705.316	31.17
705.5	31.55
705.684	31.73
705.868	31.29
706.052	30.54
706.235	30.96
706.419	30.8
706.603	31.04
706.787	30.63
706.971	30.66
707.155	31.14
707.339	30.86
707.522	30.47
707.706	30.76
707.89	32.12
708.074	32.87
708.257	32.34
708.441	33.07
708.625	32.59
708.808	32.73
708.992	32.55
709.176	32.27
709.359	33.09
709.543	32.17
709.727	31.98
709.91	30.82
710.094	31.22
710.277	31.79
710.461	31.59
710.644	32.02
710.828	31.82
711.011	32.72
711.195	33.03
711.378	32.88
711.562	33.72
711.745	34.17
711.928	35.38
712.112	35.08
712.295	34.41
712.478	34.11
712.662	34.07
712.845	34.23
713.028	34.09
713.212	33.86
713.395	33.33
713.578	33.37
713.761	33.48
713.945	32.92
714.128	32.96
714.311	33.05
714.494	33.17
714.677	33.25
714.86	33.26
715.043	33.4
715.227	33.12
715.41	33.62
715.593	32.24
715.776	31.92
715.959	31.37
716.142	30.75
716.325	30.78
716.508	29.83
716.691	30.29
716.874	31.2
717.057	30.58
717.239	31.32
717.422	30.64
717.605	31.89
717.788	31.03
717.971	31.63
718.154	31.75
718.337	31.81
718.519	32.68
718.702	32.19
718.885	31.69
719.068	32.53
719.25	32.11
719.433	31.61
719.616	31.62
719.798	32.88
719.981	32.83
720.164	32.54
720.346	32.79
720.529	32.82
720.712	31.92
720.894	31.92
721.077	31.32
721.259	31.26
721.442	31.98
721.624	31.82
721.807	30.53
721.989	29.46
722.172	29.72
722.354	28.73
722.537	28.78
722.719	29.51
722.901	28.63
723.084	28.41
723.266	27.9
723.448	27.36
723.631	27.17
723.813	28.22
723.995	29.29
724.178	29.31
724.36	29.66
724.542	29.46
724.724	29.54
724.907	29.87
725.089	29.15
725.271	30.02
725.453	31.25
725.635	31.37
725.817	31.73
725.999	31.04
726.181	31.29
726.364	31.93
726.546	32.7
726.728	32.79
726.91	33.3
727.092	34.44
727.274	34.13
727.456	33.83
727.638	34.84
727.819	35.34
728.001	35.46
728.183	35.45
728.365	35.66
728.547	35.16
728.729	34.52
728.911	33.54
729.093	33.74
729.274	33.68
729.456	32.7
729.638	32.35
729.82	30.88
730.001	31.18
730.183	31.15
730.365	30.59
730.546	30.24
730.728	29.75
730.91	30.01
731.091	30.14
731.273	29.62
731.455	31.56
731.636	31.3
731.818	32.03
731.999	32.73
732.181	32.55
732.362	32.58
732.544	32.76
732.725	33.43
732.907	32.93
733.088	32.56
733.27	33.11
733.451	31.62
733.633	30.99
733.814	30.25
733.995	29.08
734.177	29.92
734.358	29.72
734.539	30.11
734.721	29.83
734.902	29.74
735.083	30.3
735.264	30.23
735.446	30.43
735.627	31.23
735.808	32.36
735.989	33.12
736.17	32.36
736.351	32.81
736.533	32.53
736.714	32.14
736.895	33.07
737.076	31.78
737.257	31.61
737.438	30.57
737.619	30.86
737.8	30.2
737.981	31.14
738.162	31.83
738.343	30.95
738.524	31.38
738.705	31.48
738.886	31.07
739.067	31.6
739.247	30.64
739.428	31.53
739.609	30.82
739.79	30.73
739.971	28.95
740.151	28.5
740.332	28.3
740.513	27.91
740.694	28.47
740.874	29.29
741.055	28.58
741.236	29.36
741.417	30.18
741.597	30.02
741.778	29.5
741.958	30
742.139	30.6
742.32	32.28
742.5	31.19
742.681	30.69
742.861	28.46
743.042	29.25
743.222	29.91
743.403	30.54
743.583	30.56
743.764	30.9
743.944	29.98
744.124	29.87
744.305	29.02
744.485	29.99
744.666	30.82
744.846	31.14
745.026	30.8
745.207	31.27
745.387	30.85
745.567	30.88
745.747	31.79
745.928	31.84
746.108	29.6
746.288	29.29
746.468	29.38
746.648	30.29
746.829	31.9
747.009	31.74
747.189	30.86
747.369	31.02
747.549	31.51
747.729	31.66
747.909	31.94
748.089	32.2
748.269	33.19
748.449	33.04
748.629	31.2
748.809	31.19
748.989	31.67
749.169	30.52
749.349	29.6
749.529	29.1
749.709	27.25
749.889	28.01
750.068	28.76
750.248	29.28
750.428	28.99
750.608	28.51
750.788	28.66
750.967	28.99
751.147	29.95
751.327	30.09
751.507	30.2
751.686	31.59
751.866	32.37
752.046	33.34
752.225	32.3
752.405	34.09
752.585	35.45
752.764	34.97
752.944	34.7
753.123	35.22
753.303	35.72
753.482	36
753.662	36.48
753.841	34.4
754.021	34.67
754.2	35.29
754.38	34.12
754.559	33.89
754.739	34.23
754.918	33.77
755.097	32.65
755.277	31.64
755.456	30.62
755.635	29.91
755.815	31.1
755.994	30.77
756.173	30.09
756.352	30.93
756.532	30.83
756.711	31.04
756.89	30.23
757.069	30.48
757.248	30.28
757.427	31.41
757.607	32.14
757.786	31.94
757.965	31.38
758.144	30.8
758.323	29.44
758.502	29.64
758.681	29.35
758.86	29.77
759.039	30.14
759.218	30.55
759.397	31.19
759.576	29.61
759.755	29.61
759.934	29.15
760.113	29.38
760.291	29.88
760.47	30
760.649	29.83
760.828	28.59
761.007	28.58
761.186	28.75
761.364	27.86
761.543	29.01
761.722	30.12
761.901	30.4
762.079	30.11
762.258	29.93
762.437	30.74
762.615	30.74
762.794	31.71
762.972	32.39
763.151	32.07
763.33	32.24
763.508	32.61
763.687	33.04
763.865	32.83
764.044	33.47
764.222	33.39
764.401	32.02
764.579	32.66
764.758	32.25
764.936	31.57
765.114	31.66
765.293	32.13
765.471	30.52
765.65	29.68
765.828	30.38
766.006	30.71
766.184	30.8
766.363	32.16
766.541	30.92
766.719	31.69
766.898	31.36
767.076	31.36
767.254	30.06
767.432	31.59
767.61	31.43
767.788	31.48
767.967	29.9
768.145	29.76
768.323	27.59
768.501	27.75
768.679	28.18
768.857	28.43
769.035	26.08
769.213	27.83
769.391	26.41
769.569	26.52
769.747	25.49
769.925	25.66
770.103	24.84
770.281	26.57
770.459	27.36
770.636	27.14
770.814	26.43
770.992	29.09
771.17	29.06
771.348	29.91
771.525	28.08
771.703	27.67
771.881	28.28
772.059	30.53
772.236	31.57
772.414	30.32
772.592	30.31
772.769	30.22
772.947	30.75
773.125	27.36
773.302	28.07
773.48	30.01
773.657	32.42
773.835	30.73
774.013	29.49
774.19	29.52
774.368	31.21
774.545	31.93
774.723	32.29
774.9	31.44
775.077	33.25
775.255	31.51
775.432	29.92
775.61	28.55
775.787	29.42
775.964	27.33
776.142	25.48
776.319	23.07
776.496	20.75
776.674	22.84
776.851	23.88
777.028	23.13
777.205	25.32
777.382	26.47
777.56	26.48
777.737	25.97
777.914	27.65
778.091	28.63
778.268	31.59
778.445	32.39
778.622	29.86
778.8	28.13
778.977	28.5
779.154	23.98
779.331	21.63
779.508	21.12
779.685	22.78
779.862	22.87
780.038	22.14
780.215	20.85
780.392	23.31
780.569	24.06
780.746	26.29
780.923	27.69
781.1	29.61
781.277	29.94
781.453	30.1
781.63	27.25
781.807	28.6
781.984	29.63
782.16	28.66
782.337	26.81
782.514	28.02
782.691	24.85
782.867	24.17
783.044	26.13
783.221	25.89
783.397	26.69
783.574	30.46
783.75	28.48
783.927	28.32
784.103	26.83
784.28	28.13
784.456	27.9
784.633	29.74
784.809	29
784.986	28.21
785.162	28.79
785.339	27.69
785.515	26.03
785.692	26.29
785.868	23.85
786.044	26.26
786.221	23.57
786.397	21.12
786.573	19.71
786.749	17.51
786.926	18.27
787.102	20.77
787.278	20.5
787.454	21.49
787.631	20.63
787.807	21.94
787.983	19.57
788.159	21.93
788.335	21.67
788.511	22.66
788.687	26.76
788.863	25.16
789.039	25.35
789.216	26.58
789.392	26.79
789.568	27.42
789.744	27.18
789.919	28.08
790.095	25.01
790.271	27.66
790.447	27.59
790.623	27.84
790.799	27.72
790.975	25.12
791.151	24.63
791.327	23.14
791.502	22.57
791.678	23.96
791.854	26.88
792.03	28.95
792.205	26.15
792.381	24.69
792.557	21.57
792.733	22.13
792.908	21.18
793.084	23.65
793.259	22.53
793.435	24.46
793.611	20.92
793.786	19.1
793.962	18.4
794.137	19.62
794.313	23.39
794.488	27
794.664	28.62
794.839	28.42
795.015	27.72
795.19	31.06
795.366	27.27
795.541	26.22
795.716	28.33
795.892	28.76
796.067	31.72
796.242	30.53
796.418	27.14
796.593	25.02
796.768	28.12
796.944	27.13
797.119	22.29
797.294	24.07
797.469	25.48
797.644	22.29
797.82	19.05
797.995	15.57
798.17	14.94
798.345	14.28
798.52	16.51
798.695	18.24
798.87	18.08
799.045	20.37
799.22	18.45
799.395	19.31
799.57	24.03
799.745	29.76
799.92	33.61
800.095	36.41
800.27	38.08
800.445	36.73
800.62	37.56
800.795	35.6
800.97	39.74
801.145	40.77
801.319	42.63
801.494	38.17
801.669	32.83
801.844	29.8
802.018	26.84
802.193	24.27
802.368	23.84
802.543	18.75
802.717	17.32
802.892	14.5
803.067	18.06
803.241	19.24
803.416	19.31
803.59	20.84
803.765	23.28
803.94	24.23
804.114	27.66
804.289	27.72
804.463	32.47
804.638	33.35
804.812	32.42
804.986	28.21
805.161	22.22
805.335	22.05
805.51	25.12
805.684	23.7
805.858	22.6
806.033	22.55
806.207	22.42
806.381	17.1
806.556	19.2
806.73	23.77
806.904	26.59
807.078	28.51
807.253	29.94
807.427	28.04
807.601	30.26
807.775	28.82
807.949	25.96
808.123	26.35
808.298	30.52
808.472	29.96
808.646	28.3
808.82	27.77
808.994	27.8
809.168	25.14
809.342	21.94
809.516	20.94
809.69	24.17
809.864	27.34
810.038	28.66
810.212	24.8
810.385	21.49
810.559	15.75
810.733	15.68
810.907	14.76
811.081	12.88
811.255	15.38
811.428	13.6
811.602	13.57
811.776	10.48
811.95	11.79
812.123	6.78
812.297	9.78
812.471	16.21
812.644	17.17
812.818	17.58
812.992	22.01
813.165	20.36
813.339	22.91
813.512	20.86
813.686	20.86
813.86	13.19
814.033	19.12
814.207	16.55
814.38	12.38
814.554	13.81
814.727	18.49
814.9	15.39
815.074	14.47
815.247	13.96
815.421	17.41
815.594	18.52
815.767	25.72
815.941	22.58
816.114	26.47
816.287	29.93
816.46	24.06
816.634	19.81
816.807	22.08
816.98	21.34
817.153	19.1
817.327	12.14
817.5	13.38
817.673	9.61
817.846	14.56
818.019	16.14
818.192	10.64
818.365	15.94
818.538	18.87
818.711	23.4
818.884	25.99
819.057	26.38
819.23	29.37
819.403	30.13
819.576	28.04
819.749	27.33
819.922	26.17
820.095	26.44
820.268	24.93
820.441	23.44
820.614	20.31
820.786	21.81
820.959	24.36
821.132	26.13
821.305	26.92
821.477	29.39
821.65	28.94
821.823	29.36
821.996	29.61
822.168	29.82
822.341	30.51
822.514	30.69
822.686	30.48
822.859	30.04
823.031	29.62
823.204	29.2
823.376	29.15
823.549	29.28
823.722	28.87
823.894	28.41
824.067	29.06
824.239	28.29
824.411	27.93
824.584	27.25
824.756	26.74
824.929	27.07
825.101	26.74
825.273	26.16
825.446	27.18
825.618	26.81
825.79	28.21
825.963	27.79
826.135	28.68
826.307	27.08
826.479	29.1
826.652	29.89
826.824	29.67
826.996	29.81
827.168	29.68
827.34	27.8
827.512	28.81
827.684	28.03
827.856	27.16
828.029	27.73
828.201	29.93
828.373	28.53
828.545	28.01
828.717	27.67
828.889	26.58
829.061	26.63
829.232	26.02
829.404	25.34
829.576	25.11
829.748	26.24
829.92	22.3
830.092	22.81
830.264	20.44
830.436	17.64
830.607	13.24
830.779	13.18
830.951	8.19
831.123	8.77
831.294	10.49
831.466	10.08
831.638	6.01
831.809	8.45
831.981	7.16
832.153	11.2
832.324	10.87
832.496	18.05
832.667	20.14
832.839	24.87
833.011	26.54
833.182	23.91
833.354	25.35
833.525	28.49
833.697	27.84
833.868	27.69
834.039	29.56
834.211	31.39
834.382	27.37
834.554	28.83
834.725	28.39
834.896	25.72
835.068	24.03
835.239	22.87
835.41	20.13
835.581	23.16
835.753	23.44
835.924	20.9
836.095	20.24
836.266	21.67
836.438	18.29
836.609	17.82
836.78	22.55
836.951	25.2
837.122	24.4
837.293	24.71
837.464	22.36
837.635	21.2
837.806	21.8
837.977	24.52
838.148	19.86
838.319	22.28
838.49	23.61
838.661	20.1
838.832	23.42
839.003	24.76
839.174	27.25
839.345	25.05
839.516	30.64
839.687	31.72
839.857	33.57
840.028	40.41
840.199	35.08
840.37	31.04
840.54	31.38
840.711	24.5
840.882	23.41
841.053	21.02
841.223	22.44
841.394	19.51
841.564	13.74
841.735	4.37
841.906	1.67
842.076	15.76
842.247	20.98
842.417	22.97
842.588	16.78
842.758	15.74
842.929	19.39
843.099	11.85
843.27	8.82
843.44	6.25
843.611	9.71
843.781	13.08
843.951	6.42
844.122	1.22
844.292	-3.71
844.462	-0.02
844.633	11.99
844.803	5.48
844.973	7.41
845.144	14
845.314	13.91
845.484	11.75
845.654	7.91
845.824	-3.66
845.995	-7.58
846.165	-12.26
846.335	-10.71
846.505	-20.4
846.675	-12.37
846.845	-8.78
847.015	-18.68
847.185	3.36
847.355	8.52
847.525	18.56
847.695	12.98
847.865	19.29
848.035	28.03
848.205	29.7
848.375	23.34
848.545	19.26
848.715	15.88
848.884	6.83
849.054	-3.4
849.224	-3.38
849.394	-16.93
849.564	-3.89
849.733	-13.86
849.903	-35.93
850.073	-38.9
850.243	-48.8
850.412	-36.19
850.582	-34.51
850.752	-22.7
850.921	-15.61
851.091	-11.65
851.26	8.96
851.43	11.93
851.599	19.15
851.769	23.03
851.939	14.04
852.108	32.69
852.278	42.22
852.447	43.65
852.616	51.09
852.786	39.1
852.955	12.74
853.125	-20.47
853.294	-18.34
853.463	-16.46
853.633	-9.42
853.802	-4.54
853.971	-11.22
854.141	-6.18
854.31	-12.76
854.479	-18.09
854.648	-10.46
854.818	-9.25
854.987	17.61
855.156	2.35
855.325	-3.57
855.494	-16.37
855.663	-52.34
855.832	-62.29
856.001	-105.97
856.171	-40.99
856.34	-15.56
856.509	-27.34
856.678	-18.17
856.847	-28.58
857.016	-1.9
857.185	-14.27
857.353	2.61
857.522	16.75
857.691	16.48
857.86	21.09
858.029	3.54
858.198	-28.86
858.367	-23.46
858.535	-14.49
858.704	-13.05
858.873	-38.01
859.042	-9.83
859.21	-5.7
859.379	1.98
859.548	16.71
859.717	19.87
859.885	9.4
860.054	26.19
860.222	24
860.391	3.56
860.56	-13.24
860.728	-25.61
860.897	-38.45
861.065	-32.12
861.234	-46.99
861.402	-46.47
861.571	-64.33
861.739	-45.83
861.908	-63.68
862.076	-109.03
862.244	-115.28
862.413	-81.47
862.581	-91.82
862.749	-57.5
862.918	-68.66
863.086	-30.2
863.254	-80.74
863.423	-68.13
863.591	-101.45
863.759	-13.07
863.927	10.11
864.096	12.83
864.264	22.79
864.432	35.81
864.6	43.31
864.768	34.61
864.936	32.69
865.104	31.57
865.272	31.5
865.44	37.98
865.608	28.52
865.776	27.14
865.944	15.47
866.112	6.95
866.28	-1.41
866.448	-13.2
866.616	-12.28
866.784	-28.48
866.952	-18.55
867.12	-36.4
867.288	-61.31
867.455	-45.73
867.623	-22.33
867.791	0.3
867.959	-4.83
868.127	-12.16
868.294	-14.36
868.462	-14.61
868.63	-21.83
868.797	-17.93
868.965	7.47
869.133	24.51
869.3	7.05
869.468	-1.2
869.636	-5.67
869.803	10.12
869.971	5.07
870.138	19.19
870.306	15.35
870.473	4.1
870.641	-13.41
870.808	-57.64
870.975	-41.14
871.143	-97.81
871.31	-74.89
871.478	-70.27
871.645	-79.9
871.812	-48.04
871.98	-97.27
872.147	-62.33
872.314	-44.93
872.482	-11.31
872.649	-0.4
872.816	-23.57
872.983	-17.65
873.15	-0.57
873.318	-13.81
873.485	-24.92
873.652	-20.2
873.819	-9.45
873.986	-26.37
874.153	-35.26
874.32	-50.4
874.487	-44.11
874.654	-1.24
874.821	33.16
874.988	-3.86
875.155	12.34
875.322	-4.05
875.489	13.55
875.656	8.25
875.823	17.75
875.99	34.47
876.157	32.74
876.324	41.08
876.49	37.1
876.657	-1.27
876.824	21.75
876.991	24.96
877.157	36.29
877.324	24.82
877.491	24.66
877.658	30.95
877.824	29.21
877.991	31.42
878.157	26.32
878.324	34.76
878.491	32.62
878.657	20.82
878.824	13.61
878.99	-10.41
879.157	-1.1
879.323	-1.99
879.49	-11.08
879.656	7.95
879.823	9.83
879.989	11.5
880.156	5.88
880.322	11.15
880.488	19.51
880.655	12.25
880.821	11.4
880.987	-2.89
881.154	-6.91
881.32	-6.07
881.486	-6.73
881.652	-1.7
881.819	2.71
881.985	3.61
882.151	9.29
882.317	11.24
882.483	15.21
882.649	21.9
882.816	25.66
882.982	28.59
883.148	29.66
883.314	29.24
883.48	27.56
883.646	26.17
883.812	26.47
883.978	23.24
884.144	24.76
884.31	24.31
884.476	22.46
884.642	22.59
884.807	22.47
884.973	18.07
885.139	17.16
885.305	16.71
885.471	14.67
885.637	8.65
885.802	12.42
885.968	9.56
886.134	12.19
886.3	14.3
886.465	13.35
886.631	12.94
886.797	15.36
886.962	5.72
887.128	6.78
887.293	10.75
887.459	14.12
887.625	8.51
887.79	-3.97
887.956	-5.08
888.121	-13.26
888.287	-14.6
888.452	-21.85
888.618	-24.88
888.783	-12.44
