Data from 2937890_Reflection_1.txt Node
Date: Wed Jul 15 14:20:32 EDT 2015
User: robert
Spectrometer: USB4E03001
Autoset integration time: false
Trigger mode: 4
Integration Time (sec): 1.000000E-1
Scans to average: 10
Electric dark correction enabled: true
Nonlinearity correction enabled: false
Boxcar width: 5
Stray light correction enabled: false
XAxis mode: Wavelengths
Stop averaging: false
Number of Pixels in Spectrum: 3648
>>>>>Begin Spectral Data<<<<<
177.566	-35.45
177.785	-445.2
178.005	-43.77
178.225	-31.45
178.445	29.27
178.665	27.41
178.885	-98.68
179.105	13.59
179.324	19.94
179.544	14.26
179.764	22.74
179.984	34.79
180.204	-15.13
180.423	23.42
180.643	20.15
180.863	55.86
181.083	64.8
181.302	69.49
181.522	70.5
181.742	68.5
181.961	169.23
182.181	416.94
182.401	97.34
182.621	103.19
182.84	423.23
183.06	160.42
183.279	-3.69
183.499	56.81
183.719	184.05
183.938	102.19
184.158	235.05
184.377	54.93
184.597	122.29
184.816	108.68
185.036	152.89
185.256	195.01
185.475	301.43
185.695	1399.55
185.914	442.92
186.134	-2136.43
186.353	-319.83
186.572	912.75
186.792	-1457.18
187.011	316.51
187.231	552.2
187.45	2419.41
187.67	774.64
187.889	314.79
188.108	1799.17
188.328	314.41
188.547	139.97
188.766	90.1
188.986	120.75
189.205	177.68
189.424	148.73
189.644	49.74
189.863	41.97
190.082	79.16
190.302	137.24
190.521	128.34
190.74	184.66
190.959	183.19
191.178	237.01
191.398	265.9
191.617	225.9
191.836	-304.79
192.055	-96.37
192.274	-70.98
192.494	-0.05
192.713	94.9
192.932	121.11
193.151	188.81
193.37	71.41
193.589	72.88
193.808	121.47
194.027	145.23
194.246	107.54
194.465	63.4
194.685	67.15
194.904	5.52
195.123	-1.69
195.342	-32.12
195.561	-15.85
195.78	-27.77
195.999	-16.75
196.218	-66.81
196.436	-275.82
196.655	-573.45
196.874	-388.92
197.093	-119.74
197.312	43.12
197.531	76.13
197.75	1927.16
197.969	-62.27
198.188	71.2
198.407	12.56
198.625	37.54
198.844	182.12
199.063	26.58
199.282	28.49
199.501	-168.38
199.719	-640.87
199.938	108.82
200.157	143.53
200.376	346.77
200.594	330.81
200.813	-212.8
201.032	61.22
201.251	356.21
201.469	2280.25
201.688	264.82
201.907	158.26
202.125	91.56
202.344	84.09
202.563	105.21
202.781	96.88
203	80.98
203.218	74.17
203.437	62.42
203.656	50.21
203.874	43.81
204.093	62.96
204.311	28.47
204.53	-15.53
204.748	-84.19
204.967	-71.41
205.185	-71.44
205.404	-13.67
205.622	-31.23
205.841	-5.11
206.059	20.28
206.278	31.26
206.496	6.45
206.715	50.73
206.933	89.99
207.151	119.35
207.37	206.05
207.588	176.57
207.806	169.28
208.025	191.38
208.243	160.16
208.461	144.2
208.68	230.38
208.898	126.95
209.116	68.94
209.335	33.46
209.553	9.87
209.771	-80.47
209.989	0.07
210.208	5.17
210.426	761.5
210.644	119.93
210.862	537.31
211.081	-71.47
211.299	38.7
211.517	86.81
211.735	98.64
211.953	103.24
212.171	95.03
212.39	116.3
212.608	99.47
212.826	125.43
213.044	106.35
213.262	136.75
213.48	156.14
213.698	149.12
213.916	118.34
214.134	143.59
214.352	-866.95
214.57	295.38
214.788	42.89
215.006	3.43
215.224	88.15
215.442	109.73
215.66	144.02
215.878	-113.05
216.096	-67.85
216.314	-69.98
216.532	-72.58
216.75	-25.19
216.968	-44.25
217.185	-16.92
217.403	-9.09
217.621	-20.84
217.839	-25.8
218.057	-50.2
218.275	-99.91
218.492	-58.98
218.71	-34.65
218.928	-14.22
219.146	-48.4
219.363	-57.87
219.581	-95.39
219.799	-57.51
220.017	-56.5
220.234	-25.13
220.452	-31.28
220.67	6.98
220.887	-36.27
221.105	-134.01
221.323	-386.53
221.54	-65.7
221.758	-86
221.976	39.99
222.193	-69.87
222.411	-27.26
222.629	-160.46
222.846	-136.39
223.064	-552.66
223.281	-71.18
223.499	-71.45
223.716	-90.6
223.934	-298.64
224.151	-467.84
224.369	-208.3
224.586	-375.78
224.804	-406.65
225.021	8355.1
225.239	1388.99
225.456	-271.58
225.674	-188.91
225.891	-124.76
226.108	-116.37
226.326	-69.66
226.543	-27.46
226.76	-62.79
226.978	-35
227.195	-47.72
227.413	-22.54
227.63	-22.94
227.847	-5.97
228.064	9.63
228.282	16.5
228.499	16.13
228.716	16.12
228.934	16.76
229.151	20.57
229.368	19.84
229.585	22.79
229.802	25.13
230.02	27.57
230.237	25.93
230.454	17.83
230.671	14.59
230.888	17.05
231.105	14.3
231.323	14.46
231.54	18.76
231.757	13.92
231.974	11.74
232.191	9.87
232.408	6.79
232.625	-1.66
232.842	2.96
233.059	7.13
233.276	-10.01
233.493	4.88
233.71	7.69
233.927	8.71
234.144	20.52
234.361	21.55
234.578	18.08
234.795	22.1
235.012	27.28
235.229	24.45
235.446	29.96
235.663	36.33
235.879	40.5
236.096	41.91
236.313	45.55
236.53	39.67
236.747	36.39
236.964	37.26
237.181	47.95
237.397	50.27
237.614	50.44
237.831	45.85
238.048	39.07
238.264	36.01
238.481	33.35
238.698	32.08
238.915	35.45
239.131	32.43
239.348	34.41
239.565	25.19
239.781	27.9
239.998	32
240.215	27.91
240.431	30.13
240.648	23.53
240.865	23.76
241.081	20.64
241.298	16.7
241.514	19.92
241.731	17.39
241.947	15.79
242.164	13.67
242.38	12.46
242.597	14.73
242.814	15.92
243.03	18.06
243.246	16.74
243.463	18.07
243.679	21.09
243.896	19.66
244.112	22.37
244.329	23.52
244.545	22.83
244.762	24.2
244.978	24.72
245.194	24.29
245.411	24.03
245.627	26
245.843	24.54
246.06	23.07
246.276	23.03
246.492	21.18
246.709	18.46
246.925	19.5
247.141	20
247.357	18.86
247.574	18.66
247.79	18.3
248.006	17.06
248.222	16.95
248.439	16.92
248.655	16.93
248.871	16.99
249.087	19.21
249.303	18.26
249.519	18.15
249.736	18.16
249.952	17.78
250.168	16.99
250.384	16.19
250.6	16.28
250.816	15.94
251.032	13.57
251.248	10.56
251.464	10.6
251.68	11.21
251.896	11.11
252.112	12.68
252.328	14.18
252.544	14.3
252.76	16.06
252.976	15.51
253.192	12.92
253.408	13.04
253.624	15.36
253.84	13.01
254.056	10.88
254.272	9.08
254.487	8.23
254.703	8.06
254.919	9.95
255.135	9.9
255.351	3.96
255.567	9.75
255.782	6.74
255.998	6.27
256.214	11.24
256.43	14
256.646	13.03
256.861	14.06
257.077	12.77
257.293	10.15
257.508	9.54
257.724	16.06
257.94	13.48
258.155	17.79
258.371	15.96
258.587	15.22
258.802	14.57
259.018	15.07
259.234	15.78
259.449	15.35
259.665	15.16
259.88	14.79
260.096	13.5
260.312	13.59
260.527	12.49
260.743	13.43
260.958	12.45
261.174	12.95
261.389	13.01
261.605	11.59
261.82	11.31
262.036	12.18
262.251	12.85
262.466	12.99
262.682	14
262.897	14.28
263.113	13.15
263.328	14.67
263.543	16.73
263.759	16.6
263.974	17.54
264.189	19.79
264.405	16.07
264.62	18.21
264.835	19.66
265.051	17.41
265.266	19.32
265.481	22.21
265.696	23.58
265.912	19.9
266.127	20.07
266.342	20.05
266.557	17.93
266.773	20.22
266.988	19.26
267.203	18.55
267.418	20.51
267.633	20.06
267.848	18.7
268.064	17.16
268.279	17.5
268.494	16.11
268.709	16.19
268.924	16.06
269.139	15.39
269.354	15.79
269.569	15.79
269.784	14.55
269.999	13.61
270.214	11.33
270.429	10.56
270.644	11.81
270.859	12.86
271.074	11.93
271.289	11.99
271.504	12.48
271.719	11.78
271.934	11.88
272.149	11.16
272.363	11.51
272.578	12.83
272.793	13.88
273.008	13.72
273.223	13.76
273.438	13.32
273.653	14.99
273.867	14.77
274.082	12.88
274.297	13.55
274.512	14.13
274.726	14.38
274.941	15.13
275.156	14.41
275.371	13.72
275.585	14.51
275.8	15.24
276.015	15.12
276.229	16.04
276.444	16.72
276.659	16.09
276.873	17.32
277.088	18.03
277.302	17.66
277.517	18.64
277.732	18.87
277.946	17.37
278.161	17.88
278.375	17.34
278.59	17.81
278.804	19.74
279.019	19.01
279.233	17.97
279.448	15.94
279.662	14.73
279.877	13.76
280.091	14.25
280.306	13.33
280.52	12.71
280.735	13.53
280.949	12.57
281.163	11
281.378	12
281.592	11.56
281.806	12.81
282.021	13.42
282.235	13.23
282.449	14.01
282.664	15.13
282.878	15.74
283.092	15.5
283.307	15.89
283.521	16.65
283.735	16.49
283.949	16.73
284.164	16.71
284.378	15.91
284.592	15.23
284.806	13.52
285.02	12.89
285.234	11.77
285.449	10.34
285.663	10.34
285.877	10.26
286.091	10.45
286.305	10.68
286.519	9.79
286.733	10.83
286.947	12.17
287.161	12.03
287.375	11.23
287.589	11.67
287.803	12.09
288.017	12.24
288.231	11.83
288.445	11.71
288.659	13.27
288.873	13.97
289.087	11.82
289.301	11.08
289.515	10.96
289.729	11.51
289.943	11.82
290.157	10.78
290.371	10.63
290.584	10.18
290.798	9.15
291.012	7.4
291.226	6.36
291.44	8.09
291.654	9.18
291.867	10.79
292.081	10.95
292.295	9.89
292.509	11.35
292.722	11.19
292.936	11.33
293.15	11.85
293.364	11.27
293.577	11.99
293.791	12.02
294.005	12.92
294.218	11.13
294.432	11.72
294.645	12.55
294.859	10.96
295.073	10.97
295.286	11.37
295.5	11.04
295.713	11.6
295.927	13.88
296.14	13.41
296.354	12.09
296.568	12.56
296.781	11.71
296.994	11.08
297.208	12.08
297.421	12.27
297.635	12.47
297.848	12.79
298.062	12.89
298.275	11.93
298.489	12.07
298.702	13.12
298.915	13.57
299.129	14.64
299.342	16.92
299.555	16.74
299.769	15.98
299.982	16.52
300.195	17.35
300.409	18.14
300.622	16.87
300.835	17.28
301.048	16.17
301.262	15.86
301.475	16.31
301.688	15.4
301.901	15.13
302.115	15.85
302.328	16.45
302.541	17.5
302.754	17.32
302.967	17.87
303.18	17.51
303.393	17.79
303.607	17.8
303.82	17.41
304.033	16.38
304.246	16.82
304.459	15.86
304.672	15.1
304.885	13.07
305.098	12.44
305.311	13.69
305.524	11.68
305.737	11.37
305.95	11.03
306.163	11.47
306.376	11.73
306.589	11.83
306.802	13.78
307.015	14.27
307.228	14.77
307.44	14.25
307.653	14.08
307.866	14.53
308.079	13.68
308.292	13
308.505	11.92
308.718	11.95
308.93	11.41
309.143	10.77
309.356	9.66
309.569	10.49
309.781	11.9
309.994	11.69
310.207	12.63
310.42	12.85
310.632	14.36
310.845	15.57
311.058	15.69
311.27	15.27
311.483	14.81
311.696	14.12
311.908	13.19
312.121	11.58
312.333	10.53
312.546	11.59
312.759	12.93
312.971	11.26
313.184	9.75
313.396	9.21
313.609	9.53
313.821	10.63
314.034	12.06
314.246	13.35
314.459	13.67
314.671	15.12
314.884	14.71
315.096	14.28
315.309	15.37
315.521	15.13
315.733	15.44
315.946	16.59
316.158	17.21
316.371	16.12
316.583	14.98
316.795	16.49
317.008	15.95
317.22	16.6
317.432	16.17
317.644	14.95
317.857	15.54
318.069	14.18
318.281	14.97
318.494	13.51
318.706	15.72
318.918	15.62
319.13	14.15
319.342	14.39
319.555	14.09
319.767	14.05
319.979	17.07
320.191	18.21
320.403	20.77
320.615	19.46
320.827	19.63
321.039	16.81
321.252	16.93
321.464	17.61
321.676	16.27
321.888	15.93
322.1	15.29
322.312	12.22
322.524	11.32
322.736	10.05
322.948	10.23
323.16	9.86
323.372	10.71
323.584	10.84
323.796	11.86
324.007	12.27
324.219	10.91
324.431	10.57
324.643	12.71
324.855	13.48
325.067	14.08
325.279	14.69
325.491	14.93
325.702	15.67
325.914	15.54
326.126	14.38
326.338	13.48
326.55	15.61
326.761	16.59
326.973	15.03
327.185	13.97
327.396	13.51
327.608	12.97
327.82	13.5
328.032	13.37
328.243	14.5
328.455	14.42
328.666	15.43
328.878	13.49
329.09	13.65
329.301	13.46
329.513	13.53
329.725	11.55
329.936	12.91
330.148	12.1
330.359	11.52
330.571	8.56
330.782	9.27
330.994	9.48
331.205	11.11
331.417	8.12
331.628	8.03
331.84	9.32
332.051	11.41
332.262	9.18
332.474	9.59
332.685	9.62
332.897	10.76
333.108	9.48
333.319	8.4
333.531	8.69
333.742	11.5
333.953	12.99
334.165	12.86
334.376	12.8
334.587	12.97
334.799	12.58
335.01	12.27
335.221	12.81
335.432	13.6
335.644	14.09
335.855	12.32
336.066	10.72
336.277	9.99
336.488	10.58
336.7	9.95
336.911	11.09
337.122	12.71
337.333	13.12
337.544	13.68
337.755	14.08
337.966	13.49
338.177	14.72
338.388	15.79
338.599	15.22
338.811	13.53
339.022	14.06
339.233	13.26
339.444	12.55
339.655	11.63
339.866	11.49
340.076	11.04
340.287	12.95
340.498	11.43
340.709	12.05
340.92	11.57
341.131	13.03
341.342	12.34
341.553	12.02
341.764	12.05
341.975	14.19
342.185	13.93
342.396	14.59
342.607	14.23
342.818	15.36
343.029	13.84
343.239	15.21
343.45	13.62
343.661	14.31
343.872	14.69
344.082	14
344.293	13.45
344.504	13.61
344.714	12.43
344.925	12.96
345.136	12.03
345.346	12.59
345.557	12.21
345.768	12
345.978	11.08
346.189	9.83
346.399	9.54
346.61	8.8
346.821	8.2
347.031	8.21
347.242	6.99
347.452	8.36
347.663	8.44
347.873	8.52
348.084	9.39
348.294	10.38
348.504	11.73
348.715	11.49
348.925	12.48
349.136	11.2
349.346	11.19
349.557	10.96
349.767	9.26
349.977	7.78
350.188	7.43
350.398	7.32
350.608	6.86
350.819	5.47
351.029	6.03
351.239	5.17
351.449	6.1
351.66	5.79
351.87	6.95
352.08	8.46
352.29	10
352.501	11.33
352.711	10.91
352.921	11.56
353.131	13.33
353.341	14.36
353.552	14.01
353.762	14.75
353.972	15.68
354.182	14.88
354.392	14.8
354.602	14.96
354.812	14.72
355.022	15.25
355.232	14.38
355.442	13.14
355.652	11.79
355.862	12.6
356.072	11.44
356.282	10.84
356.492	10.73
356.702	10.16
356.912	10.43
357.122	8.94
357.332	7.85
357.542	8.39
357.752	8.95
357.962	8.84
358.171	8.79
358.381	9.58
358.591	9.84
358.801	9.06
359.011	9.17
359.221	8.65
359.43	9.59
359.64	10.34
359.85	10.34
360.06	10.03
360.269	11.07
360.479	10.5
360.689	10.24
360.899	10.12
361.108	10.69
361.318	11.29
361.528	10.98
361.737	10.52
361.947	10.47
362.156	11.02
362.366	11.2
362.576	10.49
362.785	10.93
362.995	11.28
363.204	11
363.414	10.96
363.623	10.6
363.833	11.03
364.042	11.33
364.252	11.54
364.461	9.44
364.671	9.64
364.88	10.14
365.09	9.81
365.299	9.15
365.509	9.12
365.718	9.31
365.927	9.08
366.137	8.41
366.346	7.89
366.555	7.59
366.765	8.72
366.974	9.04
367.183	8.99
367.393	9.68
367.602	10.22
367.811	10.59
368.021	10.32
368.23	10.08
368.439	10
368.648	10.29
368.857	10.29
369.067	10.38
369.276	9.12
369.485	8.65
369.694	8.61
369.903	7.82
370.112	7.26
370.321	7.52
370.531	8.31
370.74	8.58
370.949	8.52
371.158	8.92
371.367	9.52
371.576	10.73
371.785	10.34
371.994	9.51
372.203	9.69
372.412	10.11
372.621	9.69
372.83	9.23
373.039	9.45
373.248	9.05
373.457	8.21
373.666	8.1
373.874	7.35
374.083	7.41
374.292	7.57
374.501	7.18
374.71	6.66
374.919	5.92
375.128	5.56
375.336	5.28
375.545	5.88
375.754	6.11
375.963	5.33
376.171	5.38
376.38	5.39
376.589	5.31
376.798	6.01
377.006	5.8
377.215	6.89
377.424	6.88
377.632	7.29
377.841	6.49
378.05	6.78
378.258	6.6
378.467	6.81
378.675	6.53
378.884	6.66
379.093	6.57
379.301	7.67
379.51	7.21
379.718	7.17
379.927	7.14
380.135	7.93
380.344	7.91
380.552	8.22
380.761	8
380.969	7.64
381.177	7.75
381.386	7.38
381.594	6.75
381.803	6.55
382.011	6.22
382.219	5.58
382.428	5.96
382.636	5.85
382.845	6.05
383.053	6.11
383.261	6.53
383.469	6.81
383.678	7.01
383.886	7.2
384.094	7.18
384.302	7.02
384.511	6.92
384.719	6.22
384.927	6.36
385.135	6
385.343	5.41
385.552	5.72
385.76	5.34
385.968	5.36
386.176	5.29
386.384	5.85
386.592	6.11
386.8	6.31
387.008	5.97
387.216	5.65
387.424	6.01
387.633	6.68
387.841	6.9
388.049	6.93
388.257	6.87
388.465	6.49
388.672	6.27
388.88	6.46
389.088	6.67
389.296	7.05
389.504	7.03
389.712	7.02
389.92	6.89
390.128	6.5
390.336	6.36
390.544	6.39
390.751	6.48
390.959	6.05
391.167	5.91
391.375	5.64
391.583	5.36
391.79	5.36
391.998	5.06
392.206	4.71
392.414	5.02
392.621	4.97
392.829	4.69
393.037	4.36
393.244	4.62
393.452	4.92
393.66	5.26
393.867	5.54
394.075	5.5
394.283	5.6
394.49	5.65
394.698	5.74
394.905	5.83
395.113	5.94
395.32	6.35
395.528	5.86
395.735	5.8
395.943	5.58
396.15	5.26
396.358	5.16
396.565	5.15
396.773	5.4
396.98	4.86
397.188	4.72
397.395	4.74
397.602	4.34
397.81	4.75
398.017	4.25
398.225	4
398.432	4.34
398.639	4.62
398.847	4.57
399.054	4.48
399.261	4.83
399.468	4.83
399.676	4.59
399.883	4.74
400.09	4.97
400.297	4.92
400.505	5.12
400.712	5.11
400.919	5.11
401.126	5.18
401.333	4.95
401.54	4.81
401.748	5.13
401.955	5.2
402.162	5.41
402.369	5.22
402.576	5.36
402.783	5.3
402.99	5.01
403.197	4.84
403.404	4.57
403.611	4.72
403.818	4.59
404.025	4.3
404.232	4.62
404.439	4.36
404.646	4.42
404.853	4.03
405.06	4.13
405.267	4.51
405.474	4.37
405.681	4.72
405.887	4.63
406.094	4.69
406.301	4.78
406.508	4.4
406.715	4.53
406.922	4.28
407.128	4.73
407.335	4.39
407.542	4.17
407.749	4.03
407.955	3.85
408.162	3.96
408.369	3.75
408.575	3.65
408.782	3.97
408.989	4.02
409.195	4.31
409.402	4.64
409.609	4.8
409.815	4.9
410.022	4.98
410.228	4.93
410.435	4.78
410.642	4.7
410.848	4.83
411.055	4.75
411.261	4.84
411.468	4.56
411.674	4.29
411.881	4.32
412.087	4.13
412.294	4.4
412.5	4.55
412.706	4.11
412.913	4.52
413.119	4.86
413.326	4.7
413.532	4.34
413.738	4.57
413.945	4.51
414.151	4.24
414.357	4.18
414.564	4.32
414.77	4.31
414.976	4.69
415.182	4.64
415.389	4.31
415.595	4.58
415.801	4.51
416.007	4.34
416.214	4.64
416.42	4.64
416.626	4.54
416.832	4.36
417.038	3.97
417.244	3.98
417.45	3.75
417.657	3.53
417.863	3.52
418.069	3.67
418.275	3.74
418.481	3.55
418.687	3.74
418.893	3.9
419.099	3.83
419.305	4.08
419.511	4.04
419.717	4.19
419.923	4.38
420.129	4.16
420.335	3.96
420.541	3.88
420.746	3.8
420.952	3.9
421.158	3.77
421.364	3.76
421.57	3.64
421.776	3.81
421.982	3.8
422.187	3.72
422.393	3.73
422.599	3.95
422.805	3.95
423.01	4.06
423.216	3.94
423.422	4.01
423.628	4.15
423.833	4.25
424.039	4.17
424.245	4.14
424.45	4.15
424.656	4.25
424.862	4.01
425.067	4.1
425.273	4.14
425.478	4.15
425.684	4.2
425.889	3.89
426.095	3.91
426.301	3.91
426.506	3.83
426.712	3.81
426.917	3.75
427.123	3.97
427.328	3.98
427.533	3.85
427.739	3.68
427.944	3.44
428.15	3.79
428.355	3.64
428.561	3.56
428.766	3.51
428.971	3.73
429.177	3.83
429.382	3.81
429.587	3.75
429.793	3.86
429.998	4.08
430.203	4.19
430.408	3.98
430.614	4.21
430.819	4.2
431.024	4.21
431.229	3.68
431.434	3.36
431.64	3.24
431.845	3.05
432.05	3.04
432.255	3.02
432.46	3.13
432.665	3.27
432.87	3.1
433.076	3.25
433.281	3.24
433.486	3.53
433.691	3.68
433.896	3.72
434.101	3.82
434.306	3.64
434.511	3.54
434.716	3.54
434.921	3.51
435.126	3.55
435.331	3.46
435.535	3.4
435.74	3.27
435.945	3.39
436.15	3.46
436.355	3.37
436.56	3.67
436.765	3.69
436.97	3.63
437.174	3.59
437.379	3.83
437.584	3.65
437.789	3.82
437.993	3.94
438.198	3.85
438.403	3.77
438.608	3.84
438.812	3.6
439.017	3.66
439.222	3.62
439.426	3.65
439.631	3.44
439.836	3.66
440.04	3.55
440.245	3.54
440.45	3.55
440.654	3.6
440.859	3.61
441.063	3.67
441.268	3.81
441.472	3.86
441.677	3.8
441.881	3.74
442.086	3.5
442.29	3.62
442.495	3.52
442.699	3.63
442.904	3.67
443.108	3.69
443.312	3.63
443.517	3.35
443.721	3.35
443.925	3.55
444.13	3.41
444.334	3.56
444.538	3.52
444.743	3.48
444.947	3.5
445.151	3.37
445.356	3.32
445.56	3.5
445.764	3.6
445.968	3.56
446.173	3.39
446.377	3.57
446.581	3.44
446.785	3.47
446.989	3.57
447.193	3.53
447.398	3.56
447.602	3.58
447.806	3.39
448.01	3.32
448.214	3.39
448.418	3.43
448.622	3.37
448.826	3.45
449.03	3.47
449.234	3.48
449.438	3.4
449.642	3.51
449.846	3.64
450.05	3.78
450.254	3.77
450.458	3.63
450.662	3.68
450.866	3.63
451.069	3.75
451.273	3.81
451.477	3.63
451.681	3.73
451.885	3.65
452.089	3.59
452.292	3.4
452.496	3.35
452.7	3.47
452.904	3.8
453.107	3.78
453.311	3.97
453.515	3.87
453.719	4.02
453.922	3.75
454.126	3.79
454.33	3.77
454.533	3.91
454.737	3.95
454.94	4.04
455.144	3.63
455.348	3.72
455.551	3.37
455.755	3.38
455.958	3.37
456.162	3.66
456.365	3.66
456.569	3.57
456.772	3.56
456.976	3.8
457.179	3.81
457.383	3.79
457.586	3.94
457.79	4.06
457.993	3.95
458.196	3.96
458.4	3.71
458.603	3.83
458.807	4.03
459.01	3.98
459.213	3.87
459.417	3.7
459.62	3.81
459.823	3.65
460.026	3.5
460.23	3.6
460.433	3.52
460.636	3.76
460.839	3.68
461.042	3.48
461.246	3.48
461.449	3.4
461.652	3.31
461.855	3.45
462.058	3.55
462.261	3.59
462.464	3.7
462.668	3.83
462.871	3.67
463.074	3.64
463.277	3.77
463.48	3.84
463.683	3.76
463.886	3.92
464.089	3.77
464.292	3.85
464.495	3.95
464.698	3.78
464.901	3.56
465.104	3.46
465.306	3.27
465.509	3.33
465.712	3.21
465.915	3.37
466.118	3.3
466.321	3.29
466.524	3.19
466.726	3.32
466.929	3.15
467.132	3.02
467.335	2.99
467.538	3.04
467.74	2.92
467.943	2.98
468.146	2.96
468.348	2.88
468.551	2.71
468.754	2.47
468.956	2.36
469.159	2.35
469.362	2.36
469.564	2.4
469.767	2.59
469.969	2.77
470.172	2.69
470.375	2.6
470.577	2.85
470.78	2.71
470.982	3.06
471.185	2.9
471.387	3.06
471.59	3.18
471.792	3.28
471.995	3.33
472.197	3.25
472.399	3.34
472.602	3.33
472.804	3.24
473.007	3.48
473.209	3.33
473.411	3.31
473.614	3.15
473.816	3.09
474.018	3
474.22	2.83
474.423	2.84
474.625	2.91
474.827	2.9
475.03	2.96
475.232	2.9
475.434	2.91
475.636	2.86
475.838	3.11
476.04	3.09
476.243	3.16
476.445	3.05
476.647	2.93
476.849	2.89
477.051	3.02
477.253	3.06
477.455	2.88
477.657	2.89
477.859	3.13
478.061	3.1
478.263	3.27
478.465	3.18
478.667	3.33
478.869	3.33
479.071	3.5
479.273	3.43
479.475	3.28
479.677	3.39
479.879	3.4
480.081	3.42
480.283	3.22
480.485	3.05
480.686	3.18
480.888	3.13
481.09	3.15
481.292	2.95
481.494	2.97
481.695	2.94
481.897	2.97
482.099	2.97
482.301	2.96
482.502	3.2
482.704	3.28
482.906	3.15
483.107	3.2
483.309	3.14
483.511	3.19
483.712	3.2
483.914	3.26
484.115	3.24
484.317	3.21
484.519	3.19
484.72	3.12
484.922	3.1
485.123	3.12
485.325	3.11
485.526	3.17
485.728	3.19
485.929	3.14
486.131	3.15
486.332	3.16
486.534	3.18
486.735	3.23
486.936	3.22
487.138	3.21
487.339	3.3
487.541	3.25
487.742	3.21
487.943	3.18
488.144	3.21
488.346	3.17
488.547	3.17
488.748	3.15
488.95	3.13
489.151	3.14
489.352	3.19
489.553	3.12
489.755	3.16
489.956	3.23
490.157	3.22
490.358	3.2
490.559	3.15
490.76	3.16
490.961	3.22
491.163	3.2
491.364	3.14
491.565	3.04
491.766	3.12
491.967	3.15
492.168	3.15
492.369	3.11
492.57	3.12
492.771	3.14
492.972	3.1
493.173	3.08
493.374	3.1
493.575	3.06
493.776	3.1
493.976	2.99
494.177	2.87
494.378	2.83
494.579	2.82
494.78	2.92
494.981	3.06
495.182	3.18
495.382	3.08
495.583	3.06
495.784	3.1
495.985	3.05
496.185	3.09
496.386	3.1
496.587	3.05
496.788	3.11
496.988	3.15
497.189	2.91
497.39	2.86
497.59	2.99
497.791	2.91
497.992	2.96
498.192	3.01
498.393	2.9
498.593	2.97
498.794	3.09
498.994	3.09
499.195	3
499.395	3.22
499.596	3.39
499.796	3.36
499.997	3.4
500.197	3.55
500.398	3.77
500.598	3.77
500.799	3.88
500.999	3.84
501.199	3.64
501.4	3.62
501.6	3.39
501.801	3.35
502.001	3.29
502.201	3.38
502.402	3.28
502.602	3.19
502.802	3.31
503.002	3.32
503.203	3.35
503.403	3.53
503.603	3.57
503.803	3.61
504.003	3.57
504.204	3.54
504.404	3.5
504.604	3.58
504.804	3.48
505.004	3.47
505.204	3.41
505.404	3.36
505.604	3.36
505.804	3.4
506.005	3.51
506.205	3.37
506.405	3.38
506.605	3.18
506.805	3.09
507.005	3.1
507.204	3.06
507.404	2.97
507.604	3.05
507.804	2.99
508.004	2.88
508.204	2.87
508.404	2.83
508.604	2.73
508.804	2.95
509.003	2.99
509.203	3.03
509.403	3.1
509.603	3.15
509.803	3.03
510.002	3
510.202	3.05
510.402	3.13
510.602	3.17
510.801	3.4
511.001	3.28
511.201	3.23
511.4	3.31
511.6	3.18
511.8	3.24
511.999	3.25
512.199	3.42
512.398	3.32
512.598	3.29
512.797	3.54
512.997	3.44
513.197	3.65
513.396	3.73
513.596	3.67
513.795	3.65
513.994	3.57
514.194	3.68
514.393	3.66
514.593	3.81
514.792	3.85
514.992	3.73
515.191	3.91
515.39	3.74
515.59	3.67
515.789	3.62
515.988	3.85
516.188	3.98
516.387	3.97
516.586	3.93
516.786	4.11
516.985	4.05
517.184	4.1
517.383	4.07
517.582	4.07
517.782	4.02
517.981	4.18
518.18	4.09
518.379	3.98
518.578	3.99
518.777	4.03
518.976	3.85
519.176	3.77
519.375	3.61
519.574	3.6
519.773	3.59
519.972	3.7
520.171	3.56
520.37	3.53
520.569	3.54
520.768	3.53
520.967	3.5
521.166	3.55
521.365	3.72
521.564	3.74
521.762	3.67
521.961	3.72
522.16	3.66
522.359	3.88
522.558	4.05
522.757	4.05
522.956	4.16
523.154	4
523.353	4.02
523.552	4.08
523.751	4.31
523.949	4.33
524.148	4.42
524.347	4.42
524.546	4.26
524.744	4.29
524.943	4.31
525.142	4.16
525.34	4.22
525.539	4.27
525.737	4.2
525.936	4.15
526.135	4.15
526.333	3.97
526.532	4.04
526.73	4.04
526.929	3.95
527.127	3.93
527.326	3.95
527.524	3.92
527.723	3.85
527.921	3.78
528.12	3.76
528.318	3.78
528.516	3.87
528.715	3.86
528.913	3.84
529.112	3.79
529.31	3.79
529.508	3.83
529.707	3.9
529.905	3.9
530.103	3.98
530.301	3.97
530.5	3.95
530.698	4
530.896	3.95
531.094	3.95
531.293	3.99
531.491	3.98
531.689	3.96
531.887	3.98
532.085	4
532.283	4.02
532.481	4.04
532.68	3.95
532.878	3.85
533.076	3.84
533.274	3.85
533.472	3.88
533.67	4.01
533.868	4.03
534.066	3.98
534.264	4.01
534.462	3.99
534.66	4.06
534.858	4.36
535.056	4.36
535.253	4.47
535.451	4.58
535.649	4.7
535.847	4.67
536.045	4.75
536.243	4.77
536.441	4.65
536.638	4.66
536.836	4.54
537.034	4.38
537.232	4.42
537.43	4.51
537.627	4.47
537.825	4.41
538.023	4.49
538.22	4.39
538.418	4.37
538.616	4.47
538.813	4.53
539.011	4.64
539.209	4.63
539.406	4.74
539.604	4.62
539.801	4.65
539.999	4.64
540.196	4.55
540.394	4.59
540.591	4.61
540.789	4.57
540.986	4.51
541.184	4.46
541.381	4.45
541.579	4.38
541.776	4.42
541.974	4.36
542.171	4.43
542.368	4.49
542.566	4.48
542.763	4.46
542.96	4.47
543.158	4.58
543.355	4.65
543.552	4.68
543.75	4.74
543.947	4.74
544.144	4.74
544.341	4.8
544.539	4.64
544.736	4.64
544.933	4.74
545.13	4.85
545.327	4.77
545.524	4.75
545.722	4.88
545.919	4.93
546.116	4.92
546.313	5.12
546.51	5.13
546.707	5.13
546.904	5.21
547.101	5.24
547.298	5.26
547.495	5.33
547.692	5.38
547.889	5.28
548.086	5.27
548.283	5.43
548.48	5.43
548.677	5.37
548.874	5.58
549.07	5.46
549.267	5.55
549.464	5.65
549.661	5.6
549.858	5.59
550.055	5.89
550.251	6.09
550.448	6.18
550.645	6.17
550.842	6.05
551.038	6.08
551.235	6.18
551.432	6.28
551.628	6.31
551.825	6.35
552.022	6.45
552.218	6.31
552.415	6.25
552.612	6.15
552.808	6.01
553.005	6.28
553.201	6.32
553.398	6.41
553.594	6.26
553.791	6.34
553.987	6.37
554.184	6.44
554.38	6.4
554.577	6.49
554.773	6.69
554.97	6.98
555.166	7
555.362	6.93
555.559	6.75
555.755	6.88
555.952	6.85
556.148	7
556.344	6.95
556.541	7.02
556.737	6.99
556.933	6.81
557.129	6.84
557.326	6.98
557.522	7.08
557.718	7.32
557.914	7.45
558.11	7.56
558.307	7.57
558.503	7.68
558.699	7.43
558.895	7.36
559.091	7.55
559.287	7.37
559.483	7.27
559.679	7.34
559.876	7.3
560.072	7.11
560.268	7.14
560.464	7.1
560.66	7.2
560.856	7.62
561.052	7.82
561.247	7.58
561.443	7.63
561.639	7.45
561.835	7.47
562.031	7.69
562.227	7.87
562.423	7.7
562.619	7.67
562.815	7.72
563.01	7.72
563.206	7.91
563.402	8.25
563.598	8.25
563.793	8.23
563.989	8.31
564.185	8.1
564.381	7.89
564.576	8.01
564.772	7.96
564.968	7.91
565.163	7.82
565.359	7.76
565.555	7.55
565.75	7.45
565.946	7.6
566.141	7.67
566.337	7.5
566.532	7.58
566.728	7.61
566.923	7.78
567.119	7.88
567.314	7.9
567.51	7.82
567.705	7.97
567.901	8.24
568.096	8.16
568.292	8.11
568.487	8.58
568.682	8.59
568.878	8.72
569.073	8.89
569.268	9
569.464	9.01
569.659	9.08
569.854	9.14
570.05	9.19
570.245	9.19
570.44	9.08
570.635	9.17
570.831	9.31
571.026	9.15
571.221	9.07
571.416	9.04
571.611	9.13
571.806	8.96
572.002	8.97
572.197	9.05
572.392	9.21
572.587	9.44
572.782	9.43
572.977	9.56
573.172	9.77
573.367	9.79
573.562	9.53
573.757	9.37
573.952	9.6
574.147	9.73
574.342	9.62
574.537	9.6
574.732	9.53
574.927	9.4
575.121	9.43
575.316	9.32
575.511	9.35
575.706	9.56
575.901	9.63
576.096	9.48
576.29	9.12
576.485	8.99
576.68	9.09
576.875	9.17
577.069	9.12
577.264	9.14
577.459	9.13
577.654	9.15
577.848	9.02
578.043	9.29
578.238	9.42
578.432	9.82
578.627	10.2
578.821	10.47
579.016	10.49
579.21	10.6
579.405	10.42
579.6	10.52
579.794	10.38
579.989	10.67
580.183	10.29
580.378	10.3
580.572	10.25
580.766	9.95
580.961	9.27
581.155	9.23
581.35	9.14
581.544	9.01
581.738	9.17
581.933	9.33
582.127	9.28
582.321	9.7
582.516	9.78
582.71	9.72
582.904	10.18
583.099	10.55
583.293	10.42
583.487	10.43
583.681	10.37
583.875	10.16
584.07	9.9
584.264	10.01
584.458	9.68
584.652	9.53
584.846	9.49
585.04	9.21
585.234	9.18
585.428	9.41
585.623	9.7
585.817	9.89
586.011	9.94
586.205	10.14
586.399	10.08
586.593	10.53
586.787	10.5
586.981	10.55
587.174	10.6
587.368	10.52
587.562	10.51
587.756	10.36
587.95	10.49
588.144	10.65
588.338	10.67
588.532	10.79
588.725	10.55
588.919	10.57
589.113	10.73
589.307	10.57
589.501	10.74
589.694	10.94
589.888	10.88
590.082	10.98
590.275	10.85
590.469	10.74
590.663	10.48
590.856	10.85
591.05	11.09
591.244	11.06
591.437	11.37
591.631	11.44
591.824	11.14
592.018	11.15
592.212	11.11
592.405	11.15
592.599	11.28
592.792	11.62
592.986	11.16
593.179	10.97
593.372	10.59
593.566	10.19
593.759	10.21
593.953	10.16
594.146	10.21
594.339	9.97
594.533	9.9
594.726	9.91
594.92	9.84
595.113	10.12
595.306	10.03
595.499	10.38
595.693	10.55
595.886	10.82
596.079	10.9
596.272	10.83
596.466	10.94
596.659	10.88
596.852	10.95
597.045	10.77
597.238	10.57
597.431	10.54
597.624	10.33
597.818	10.27
598.011	10.06
598.204	10.1
598.397	10.21
598.59	10.38
598.783	10.46
598.976	10.37
599.169	10.31
599.362	10.47
599.555	10.71
599.748	11.14
599.941	11.41
600.134	11.2
600.326	11.32
600.519	11.44
600.712	11.42
600.905	11.31
601.098	11.42
601.291	11.32
601.483	10.92
601.676	10.82
601.869	10.84
602.062	10.78
602.255	10.82
602.447	10.83
602.64	10.56
602.833	10.43
603.025	10.62
603.218	10.6
603.411	10.99
603.603	11.12
603.796	11.2
603.989	11
604.181	11
604.374	11.14
604.566	11.2
604.759	11.3
604.951	11.24
605.144	11.25
605.336	11.07
605.529	10.96
605.721	11.08
605.914	10.91
606.106	10.71
606.299	10.71
606.491	10.77
606.683	10.49
606.876	10.6
607.068	10.84
607.26	10.62
607.453	10.75
607.645	10.75
607.837	10.89
608.03	10.88
608.222	11.07
608.414	11.03
608.606	10.81
608.799	10.91
608.991	11
609.183	10.87
609.375	11.08
609.567	11.13
609.759	10.89
609.952	10.75
610.144	10.95
610.336	10.92
610.528	10.98
610.72	11.05
610.912	10.83
611.104	10.58
611.296	10.68
611.488	10.65
611.68	10.44
611.872	10.75
612.064	10.7
612.256	10.58
612.448	10.84
612.64	10.33
612.832	10.4
613.023	10.41
613.215	10.79
613.407	10.54
613.599	10.5
613.791	10.81
613.983	10.65
614.174	10.61
614.366	10.89
614.558	10.75
614.75	11.28
614.941	11.39
615.133	11.76
615.325	11.8
615.516	11.39
615.708	11.01
615.9	10.84
616.091	10.82
616.283	11.02
616.475	10.74
616.666	10.59
616.858	10.6
617.049	10.63
617.241	10.49
617.432	10.1
617.624	10.34
617.815	10.99
618.007	11.05
618.198	11.31
618.39	10.83
618.581	10.96
618.773	11.24
618.964	11.26
619.155	10.99
619.347	11.14
619.538	11.29
619.729	11.4
619.921	11.04
620.112	11.07
620.303	11.02
620.494	11.53
620.686	11.65
620.877	11.38
621.068	11.28
621.259	11.2
621.451	10.69
621.642	10.68
621.833	11.15
622.024	11.32
622.215	11.73
622.406	11.56
622.597	11.33
622.788	11.12
622.98	10.99
623.171	11.18
623.362	11.22
623.553	11.62
623.744	11.69
623.935	11.73
624.126	11.37
624.317	10.95
624.508	10.99
624.698	11.07
624.889	10.87
625.08	10.97
625.271	10.49
625.462	10.47
625.653	10.36
625.844	10.49
626.034	10.3
626.225	10.59
626.416	10.53
626.607	10.78
626.798	10.95
626.988	11.38
627.179	11.28
627.37	11.47
627.56	11.73
627.751	11.72
627.942	11.46
628.132	11.4
628.323	11.5
628.514	11.63
628.704	11.26
628.895	11.04
629.085	10.8
629.276	10.87
629.466	10.98
629.657	10.59
629.847	10.55
630.038	10.71
630.228	10.68
630.419	10.72
630.609	10.76
630.8	11.11
630.99	11.22
631.181	11.31
631.371	11.58
631.561	11.63
631.752	11.83
631.942	11.91
632.132	11.59
632.323	11.69
632.513	11.6
632.703	11.36
632.893	11.13
633.084	11.45
633.274	11.37
633.464	11.24
633.654	11.19
633.844	11.11
634.034	11.3
634.225	11.45
634.415	11.2
634.605	11.18
634.795	11.25
634.985	11.14
635.175	10.99
635.365	10.99
635.555	11.21
635.745	11.12
635.935	11.3
636.125	11.26
636.315	11.29
636.505	11.62
636.695	11.39
636.885	11.72
637.075	11.91
637.265	11.78
637.455	11.61
637.644	11.27
637.834	10.94
638.024	10.66
638.214	10.76
638.404	10.77
638.593	10.39
638.783	10.58
638.973	10.27
639.163	10.48
639.352	10.44
639.542	10.29
639.732	10.17
639.921	10.51
640.111	11.06
640.301	10.94
640.49	10.73
640.68	10.93
640.87	10.94
641.059	11.12
641.249	10.93
641.438	10.55
641.628	10.93
641.817	11.36
642.007	11.56
642.196	11.22
642.386	11.31
642.575	11.56
642.764	11.52
642.954	11.53
643.143	11.96
643.333	11.92
643.522	12.11
643.711	12.6
643.901	12.76
644.09	12.7
644.279	12.6
644.469	12.54
644.658	12.75
644.847	13.01
645.036	12.5
645.226	11.81
645.415	12.18
645.604	12.39
645.793	11.6
645.982	11.22
646.171	11.27
646.361	11.23
646.55	11.46
646.739	11.17
646.928	10.75
647.117	11.25
647.306	10.9
647.495	10.14
647.684	9.97
647.873	10.32
648.062	10.39
648.251	10.36
648.44	10.69
648.629	10.7
648.818	11.08
649.007	11.65
649.196	11.56
649.384	11.79
649.573	12.14
649.762	12.07
649.951	11.56
650.14	11.46
650.328	11.86
650.517	11.49
650.706	11.14
650.895	10.9
651.083	10.68
651.272	10.99
651.461	11.23
651.65	11.51
651.838	11.99
652.027	12.43
652.216	12.35
652.404	11.54
652.593	11.88
652.781	11.68
652.97	11.47
653.158	11.34
653.347	10.68
653.535	10.81
653.724	10.11
653.912	9.93
654.101	9.85
654.289	9.88
654.478	10.5
654.666	10.59
654.855	10.64
655.043	11.25
655.231	11.2
655.42	11.95
655.608	11.7
655.796	12.41
655.985	12.68
656.173	12.91
656.361	12.75
656.55	12.52
656.738	12.63
656.926	13.16
657.114	12.72
657.302	13
657.491	12.49
657.679	12.55
657.867	12.44
658.055	12.09
658.243	11.88
658.431	12.11
658.619	11.93
658.807	11.57
658.996	11.07
659.184	10.7
659.372	10.31
659.56	10.56
659.748	10.74
659.936	10.53
660.124	10.51
660.311	10.76
660.499	10.5
660.687	10.9
660.875	11.07
661.063	11.16
661.251	11.49
661.439	12.05
661.627	11.87
661.814	11.92
662.002	12.06
662.19	12.03
662.378	11.65
662.565	12.01
662.753	11.76
662.941	11.47
663.129	11.77
663.316	11.92
663.504	11.62
663.692	11.79
663.879	11.55
664.067	11.88
664.254	11.96
664.442	12.02
664.63	11.85
664.817	11.58
665.005	11.22
665.192	10.87
665.38	10.96
665.567	11.06
665.755	11.02
665.942	11.24
666.13	10.47
666.317	10.44
666.504	10.08
666.692	10.25
666.879	10.63
667.067	11.53
667.254	11.41
667.441	11.62
667.629	11.03
667.816	11.34
668.003	10.8
668.19	11.15
668.378	11.42
668.565	11.69
668.752	11.69
668.939	11.42
669.127	10.79
669.314	10.86
669.501	10.46
669.688	10.47
669.875	9.98
670.062	10.09
670.249	9.86
670.436	9.3
670.623	9.38
670.81	9.35
670.997	9.27
671.184	9.46
671.371	9.75
671.558	10.07
671.745	10.5
671.932	10.78
672.119	10.52
672.306	10.8
672.493	10.91
672.68	10.52
672.867	10.56
673.054	10.75
673.24	10.8
673.427	10.67
673.614	10.19
673.801	10.63
673.988	10.67
674.174	11.21
674.361	11.08
674.548	11.48
674.734	11.97
674.921	12.17
675.108	11.96
675.294	11.9
675.481	12.62
675.668	13.05
675.854	12.7
676.041	12.44
676.227	12.36
676.414	12.6
676.601	12.37
676.787	11.72
676.974	11.01
677.16	11.25
677.347	11.71
677.533	11.31
677.719	10.98
677.906	11.08
678.092	11.07
678.279	11.26
678.465	10.76
678.651	10.96
678.838	11.53
679.024	12.17
679.21	12.31
679.397	11.4
679.583	11.5
679.769	11.37
679.955	11.44
680.142	11.95
680.328	12.24
680.514	12.5
680.7	12.31
680.886	12.14
681.073	12.15
681.259	12.06
681.445	12.57
681.631	12.08
681.817	12.48
682.003	12.56
682.189	12.2
682.375	11.74
682.561	11.89
682.747	11.78
682.933	11.81
683.119	11.41
683.305	11.15
683.491	11.28
683.677	11.14
683.863	11.29
684.049	10.68
684.235	10.69
684.42	10.82
684.606	10.85
684.792	10.74
684.978	10.64
685.164	11.11
685.349	11.34
685.535	10.67
685.721	11.37
685.907	10.98
686.092	11.26
686.278	11.12
686.464	10.91
686.649	11.29
686.835	11.79
687.021	11.68
687.206	11.5
687.392	11.22
687.577	12.09
687.763	11.73
687.948	11.93
688.134	12.03
688.319	12.41
688.505	12.07
688.69	11.97
688.876	11.87
689.061	12.33
689.247	12.24
689.432	11.81
689.618	11.58
689.803	11.77
689.988	11.88
690.174	11.49
690.359	10.94
690.544	11.92
690.73	11.44
690.915	11.62
691.1	10.61
691.285	10.43
691.471	10.53
691.656	10.53
691.841	10.24
692.026	9.97
692.211	10.24
692.396	10.05
692.582	9.7
692.767	9.57
692.952	9.56
693.137	10.84
693.322	10.84
693.507	11.33
693.692	10.68
693.877	10.96
694.062	10.74
694.247	11.19
694.432	12.01
694.617	11.43
694.802	11.71
694.987	11.68
695.172	12.1
695.357	12.62
695.541	12.14
695.726	12.6
695.911	12.21
696.096	12.46
696.281	11.92
696.466	11.99
696.65	12.48
696.835	12.24
697.02	12.32
697.204	11.43
697.389	10.94
697.574	10.86
697.759	11.09
697.943	10.83
698.128	10.65
698.312	10.43
698.497	10.34
698.682	10.46
698.866	10.85
699.051	10.35
699.235	10.66
699.42	11.18
699.604	11.6
699.789	11.72
699.973	12.1
700.158	12.46
700.342	12.73
700.527	12.54
700.711	11.59
700.895	11.25
701.08	11.34
701.264	11.48
701.448	11.24
701.633	11.94
701.817	11.82
702.001	11.86
702.186	11.81
702.37	12.08
702.554	12.42
702.738	13.65
702.923	13.78
703.107	14.62
703.291	14.21
703.475	14.18
703.659	13.25
703.843	13.22
704.027	13.71
704.212	12.92
704.396	12.79
704.58	12.99
704.764	12.94
704.948	13.26
705.132	13.05
705.316	13.21
705.5	13.55
705.684	13.71
705.868	13.43
706.052	13.29
706.235	14.06
706.419	13.59
706.603	13.61
706.787	13.92
706.971	14.17
707.155	13.83
707.339	13.99
707.522	13.3
707.706	12.76
707.89	12.57
708.074	12.67
708.257	12.92
708.441	13.25
708.625	13.09
708.808	12.95
708.992	12.82
709.176	13.26
709.359	12.83
709.543	12.91
709.727	14.01
709.91	13.8
710.094	13.88
710.277	14.39
710.461	14.84
710.644	13.74
710.828	13.53
711.011	13.46
711.195	13.55
711.378	13.88
711.562	13.98
711.745	13.3
711.928	13.77
712.112	13.32
712.295	13.47
712.478	13.03
712.662	13.82
712.845	13.75
713.028	13.46
713.212	13.47
713.395	12.78
713.578	12.95
713.761	12.83
713.945	13.03
714.128	12.65
714.311	12.36
714.494	12.46
714.677	12.32
714.86	11.95
715.043	12.02
715.227	11.49
715.41	11.74
715.593	11.33
715.776	11.86
715.959	11.91
716.142	12.58
716.325	11.61
716.508	11.59
716.691	11.3
716.874	11.36
717.057	10.9
717.239	11.16
717.422	11.69
717.605	11.06
717.788	10.13
717.971	9.02
718.154	8.25
718.337	8.71
718.519	9.1
718.702	9.51
718.885	8.66
719.068	9.5
719.25	9.56
719.433	8.73
719.616	9.32
719.798	10.39
719.981	11.08
720.164	12.18
720.346	11.77
720.529	10.17
720.712	10.55
720.894	11.4
721.077	10.55
721.259	9.74
721.442	10.68
721.624	10.82
721.807	10.99
721.989	11.65
722.172	11.25
722.354	11.44
722.537	13.27
722.719	13.42
722.901	13.74
723.084	13.78
723.266	14.39
723.448	12.58
723.631	12.89
723.813	13.16
723.995	14.22
724.178	14.36
724.36	14.7
724.542	14.85
724.724	13.92
724.907	13.66
725.089	13.5
725.271	12.62
725.453	13.73
725.635	13.73
725.817	13.22
725.999	11.31
726.181	10.84
726.364	9.73
726.546	9.41
726.728	10.1
726.91	10.75
727.092	10.89
727.274	12.09
727.456	11.79
727.638	11.34
727.819	11.39
728.001	11.66
728.183	11.47
728.365	11.3
728.547	11.76
728.729	11.88
728.911	11.76
729.093	12.06
729.274	11.66
729.456	11.83
729.638	13.26
729.82	13.21
730.001	13.32
730.183	13.86
730.365	14.76
730.546	14.8
730.728	15.21
730.91	14.96
731.091	16.22
731.273	17.14
731.455	16.25
731.636	13.89
731.818	13.02
731.999	12.68
732.181	12.29
732.362	12.48
732.544	12.64
732.725	11.61
732.907	11.02
733.088	9.61
733.27	8.33
733.451	10.14
733.633	11.38
733.814	12.22
733.995	12.9
734.177	12.97
734.358	13.22
734.539	12.48
734.721	13.63
734.902	14.25
735.083	15.54
735.264	16.47
735.446	16.62
735.627	17.21
735.808	16.74
735.989	16.19
736.17	16
736.351	15.11
736.533	13.79
736.714	13.1
736.895	14.15
737.076	13.85
737.257	13.21
737.438	10.4
737.619	9.59
737.8	9.99
737.981	10.14
738.162	10.63
738.343	10.29
738.524	11.13
738.705	12.13
738.886	11.39
739.067	10.27
739.247	9.1
739.428	10.69
739.609	11.48
739.79	11.25
739.971	11.15
740.151	11.36
740.332	11.85
740.513	12.36
740.694	11.15
740.874	12.25
741.055	11.59
741.236	13
741.417	13.31
741.597	11.93
741.778	12.52
741.958	13.22
742.139	11.74
742.32	12.82
742.5	12.92
742.681	13.3
742.861	12.22
743.042	13.37
743.222	12.71
743.403	12.95
743.583	14.37
743.764	14.76
743.944	15.65
744.124	16.94
744.305	16.95
744.485	16.97
744.666	17.63
744.846	17.4
745.026	16.74
745.207	17.87
745.387	17.31
745.567	17.91
745.747	17.71
745.928	15.72
746.108	15.85
746.288	16.03
746.468	14.69
746.648	12.73
746.829	13.51
747.009	14.37
747.189	14
747.369	13.71
747.549	13.35
747.729	13.05
747.909	14.29
748.089	14.47
748.269	12.23
748.449	12.66
748.629	13
748.809	11.92
748.989	11.79
749.169	11.52
749.349	12.02
749.529	11.83
749.709	11.44
749.889	11.42
750.068	10.64
750.248	12.18
750.428	13.74
750.608	14.51
750.788	15.02
750.967	15.29
751.147	15.11
751.327	15.79
751.507	15.51
751.686	16.35
751.866	16.94
752.046	17.88
752.225	16
752.405	14.84
752.585	14.83
752.764	15.3
752.944	14.89
753.123	15.71
753.303	14.35
753.482	13.57
753.662	12.89
753.841	13.3
754.021	12.51
754.2	14.54
754.38	15.38
754.559	15.81
754.739	14.11
754.918	13.25
755.097	11.85
755.277	13.95
755.456	14.72
755.635	14.34
755.815	12.72
755.994	13.09
756.173	13.14
756.352	12.72
756.532	12.09
756.711	13.17
756.89	14.59
757.069	14.55
757.248	14.03
757.427	14.91
757.607	14.56
757.786	14.19
757.965	14.14
758.144	12.52
758.323	12.41
758.502	12.18
758.681	12.14
758.86	12.79
759.039	13.77
759.218	13.43
759.397	12.77
759.576	13.35
759.755	13.57
759.934	13.34
760.113	13.39
760.291	13.62
760.47	14.42
760.649	14.76
760.828	13.59
761.007	12.65
761.186	12.04
761.364	13.25
761.543	13.45
761.722	13.24
761.901	12.6
762.079	14.44
762.258	14.84
762.437	13.06
762.615	13.07
762.794	12.72
762.972	12.81
763.151	13.93
763.33	12.1
763.508	13.58
763.687	13.25
763.865	13.65
764.044	12.89
764.222	12.46
764.401	13.75
764.579	13.32
764.758	13.53
764.936	14.29
765.114	14.71
765.293	15.62
765.471	12.66
765.65	13.35
765.828	13.49
766.006	13.23
766.184	14.19
766.363	14.08
766.541	14.24
766.719	13.4
766.898	12.54
767.076	11.34
767.254	11.43
767.432	14.29
767.61	15.14
767.788	14.57
767.967	13.84
768.145	11.82
768.323	12.11
768.501	13.06
768.679	13.23
768.857	14.08
769.035	12.72
769.213	13.2
769.391	13.88
769.569	10.75
769.747	11.78
769.925	11.98
770.103	12.12
770.281	10.76
770.459	10.14
770.636	11.21
770.814	11.71
770.992	12.26
771.17	14.12
771.348	11.95
771.525	13.66
771.703	13.75
771.881	14.85
772.059	14.41
772.236	15.98
772.414	15.29
772.592	15.17
772.769	16.1
772.947	16.06
773.125	14.47
773.302	15.75
773.48	14.53
773.657	13.52
773.835	13.83
774.013	14.9
774.19	15.3
774.368	17.12
774.545	19.12
774.723	16.31
774.9	16.51
775.077	14.94
775.255	13.41
775.432	16.59
775.61	17.96
775.787	18.29
775.964	16.72
776.142	15.51
776.319	14.97
776.496	13.86
776.674	14.71
776.851	14.98
777.028	14.63
777.205	15.11
777.382	12.07
777.56	13.18
777.737	11.6
777.914	14.37
778.091	14.32
778.268	15.37
778.445	16.87
778.622	18.41
778.8	18.16
778.977	16.62
779.154	16.92
779.331	20.21
779.508	18.97
779.685	19.39
779.862	18.6
780.038	18.88
780.215	19.1
780.392	15.64
780.569	15.5
780.746	16.39
780.923	18.18
781.1	19.12
781.277	18.15
781.453	15.81
781.63	16.94
781.807	18.51
781.984	17.52
782.16	15.53
782.337	17.14
782.514	15.11
782.691	15.36
782.867	15.02
783.044	14.41
783.221	13.74
783.397	16.24
783.574	16.33
783.75	13.75
783.927	15.07
784.103	13.26
784.28	12.76
784.456	14.65
784.633	13.69
784.809	12.82
784.986	10.34
785.162	9.94
785.339	7.33
785.515	6.11
785.692	9.19
785.868	10.41
786.044	15.32
786.221	15.02
786.397	13.98
786.573	13.56
786.749	12.44
786.926	14.28
787.102	15.23
787.278	16.15
787.454	18.27
787.631	16.16
787.807	15.17
787.983	11.11
788.159	11.68
788.335	13.44
788.511	13.27
788.687	18.24
788.863	17.23
789.039	16.8
789.216	18.78
789.392	17.18
789.568	18.66
789.744	18.33
789.919	20.09
790.095	19.16
790.271	19.19
790.447	22.76
790.623	20.94
790.799	20.28
790.975	17.54
791.151	16.59
791.327	17.84
791.502	15.98
791.678	16.22
791.854	17.67
792.03	19.51
792.205	19.18
792.381	16.03
792.557	16.68
792.733	17.34
792.908	22.63
793.084	22.73
793.259	25.58
793.435	27.63
793.611	29.31
793.786	28.17
793.962	27.45
794.137	27.1
794.313	27.18
794.488	28.25
794.664	28.33
794.839	25.56
795.015	26.59
795.19	21.78
795.366	20.76
795.541	19.52
795.716	18.69
795.892	18.06
796.067	18.71
796.242	20.06
796.418	17.27
796.593	15.87
796.768	14.73
796.944	11.68
797.119	17.02
797.294	16.53
797.469	14.46
797.644	16.78
797.82	20.09
797.995	17.31
798.17	16.01
798.345	17.95
798.52	21.44
798.695	24.04
798.87	23.19
799.045	19.09
799.22	18.14
799.395	20.22
799.57	15.4
799.745	10.82
799.92	11.61
800.095	9.65
800.27	4.93
800.445	5.41
800.62	3.82
800.795	5.38
800.97	5.89
801.145	9.61
801.319	7.74
801.494	7.06
801.669	9.3
801.844	9.52
802.018	11.83
802.193	14.77
802.368	13.22
802.543	13.21
802.717	12.91
802.892	11.74
803.067	8.38
803.241	9.55
803.416	15.38
803.59	16.91
803.765	17.75
803.94	15.59
804.114	18.37
804.289	18.65
804.463	20.95
804.638	20.21
804.812	21.38
804.986	22.59
805.161	21.73
805.335	19.5
805.51	18.9
805.684	18.7
805.858	20.43
806.033	17.39
806.207	16.41
806.381	14.79
806.556	17.08
806.73	18.08
806.904	19.86
807.078	18.83
807.253	16.63
807.427	16.5
807.601	20.46
807.775	19.53
807.949	23.13
808.123	21.77
808.298	19.52
808.472	19.9
808.646	21.47
808.82	20.33
808.994	22.91
809.168	24.74
809.342	26.03
809.516	21.55
809.69	20.37
809.864	14.35
810.038	19.12
810.212	24.78
810.385	23.7
810.559	25.45
810.733	22.5
810.907	25.2
811.081	25.29
811.255	23.78
811.428	24.38
811.602	25.53
811.776	28.72
811.95	27.19
812.123	28.12
812.297	23.17
812.471	23.98
812.644	26.39
812.818	22.49
812.992	23.69
813.165	23.19
813.339	22.65
813.512	26.58
813.686	27.43
813.86	27.47
814.033	29.16
814.207	36.18
814.38	30.79
814.554	24.73
814.727	25.36
814.9	23.74
815.074	23.32
815.247	22.81
815.421	16.12
815.594	13.77
815.767	11.18
815.941	0.33
816.114	2.33
816.287	4.81
816.46	14.39
816.634	12.04
816.807	8.66
816.98	12.6
817.153	12.73
817.327	13.66
817.5	8.31
817.673	12.4
817.846	12.04
818.019	11.56
818.192	12.03
818.365	8
818.538	13.02
818.711	8.81
818.884	6.75
819.057	9.92
819.23	12.57
819.403	17.54
819.576	15.76
819.749	17.39
819.922	14.93
820.095	13.54
820.268	14.15
820.441	15.75
820.614	21.33
820.786	19.53
820.959	16.6
821.132	17.51
821.305	18.3
821.477	17.51
821.65	16.62
821.823	17.53
821.996	16.62
822.168	16.26
822.341	15.03
822.514	15.39
822.686	16.45
822.859	17.4
823.031	17.11
823.204	16.52
823.376	16.95
823.549	17.56
823.722	16.63
823.894	17.13
824.067	17.52
824.239	18.15
824.411	17.44
824.584	16.18
824.756	15.24
824.929	14.49
825.101	14.23
825.273	13.21
825.446	12.64
825.618	13.46
825.79	14.1
825.963	13.89
826.135	13.99
826.307	14.93
826.479	14.99
826.652	15.02
826.824	15.79
826.996	15.28
827.168	16.39
827.34	16.58
827.512	17.07
827.684	17.82
827.856	18.08
828.029	16.92
828.201	15.85
828.373	17.76
828.545	18.2
828.717	17.07
828.889	19.96
829.061	20.25
829.232	20.51
829.404	22.62
829.576	21.21
829.748	22.84
829.92	22.78
830.092	21.57
830.264	18.47
830.436	18.38
830.607	19.11
830.779	16.95
830.951	15.69
831.123	16.93
831.294	13.79
831.466	11.52
831.638	8.89
831.809	9.97
831.981	13.57
832.153	13.97
832.324	15.31
832.496	17.4
832.667	16.76
832.839	16.35
833.011	16.27
833.182	16
833.354	17.93
833.525	19.82
833.697	21.07
833.868	22.95
834.039	23.27
834.211	21.23
834.382	21.51
834.554	19.68
834.725	19.42
834.896	19.5
835.068	21.62
835.239	20.4
835.41	19.5
835.581	15.98
835.753	12.01
835.924	12.49
836.095	15.04
836.266	14.04
836.438	16.01
836.609	18.93
836.78	18.13
836.951	16.42
837.122	17.1
837.293	14.52
837.464	15.91
837.635	17.26
837.806	18.37
837.977	17.55
838.148	18.69
838.319	20.57
838.49	19.93
838.661	17.59
838.832	14.7
839.003	16.77
839.174	21.15
839.345	24.5
839.516	26.76
839.687	24.93
839.857	24.01
840.028	22.81
840.199	21.03
840.37	18.83
840.54	23.83
840.711	25.01
840.882	19.94
841.053	17.03
841.223	20.56
841.394	25.56
841.564	29.38
841.735	30.76
841.906	36.42
842.076	38.98
842.247	41.41
842.417	39.09
842.588	40.68
842.758	44.42
842.929	46.68
843.099	44.9
843.27	40.82
843.44	34.23
843.611	25.76
843.781	16.68
843.951	5.37
844.122	15.76
844.292	24.14
844.462	16.33
844.633	14.36
844.803	6.53
844.973	18.28
845.144	6.01
845.314	15.56
845.484	18.26
845.654	15.59
845.824	26.53
845.995	12.46
846.165	4.94
846.335	25.88
846.505	29.53
846.675	23.1
846.845	16.48
847.015	25.72
847.185	16.9
847.355	24.12
847.525	23.24
847.695	22.36
847.865	26.34
848.035	13.71
848.205	-2.81
848.375	-6.79
848.545	8.45
848.715	-28.1
848.884	-23.05
849.054	2.33
849.224	18.19
849.394	22.58
849.564	13.23
849.733	12.29
849.903	18.53
850.073	3.45
850.243	0.53
850.412	-6.39
850.582	2.54
850.752	16.94
850.921	23.99
851.091	25.31
851.26	17.52
851.43	29.26
851.599	28.69
851.769	38.22
851.939	42.05
852.108	45.72
852.278	44.4
852.447	63.12
852.616	49.38
852.786	47.72
852.955	40.83
853.125	47.71
853.294	38.06
853.463	12.77
853.633	20.04
853.802	15.82
853.971	13.65
854.141	21.2
854.31	27.86
854.479	29.48
854.648	29.65
854.818	33.65
854.987	40.34
855.156	62.63
855.325	71.03
855.494	69.1
855.663	72.68
855.832	67.78
856.001	67.01
856.171	52.77
856.34	34.54
856.509	23.61
856.678	18.04
856.847	-1.16
857.016	-22.26
857.185	-31.66
857.353	-11.04
857.522	0.83
857.691	2.06
857.86	3.03
858.029	-11.21
858.198	12.24
858.367	14.78
858.535	35.38
858.704	45.91
858.873	49.42
859.042	54.99
859.21	36.3
859.379	28.75
859.548	18.12
859.717	19.15
859.885	20
860.054	22.32
860.222	30.79
860.391	7.53
860.56	3.75
860.728	8.88
860.897	16.29
861.065	22.91
861.234	24.22
861.402	30.53
861.571	31.68
861.739	39.54
861.908	41.56
862.076	24.27
862.244	53.25
862.413	102.19
862.581	132.22
862.749	87.56
862.918	51.72
863.086	29.96
863.254	29.55
863.423	24.83
863.591	-0.82
863.759	2.33
863.927	-0.3
864.096	-29.61
864.264	-34.47
864.432	-43.21
864.6	-34.01
864.768	10.35
864.936	27.4
865.104	46.87
865.272	46.13
865.44	64.07
865.608	55.58
865.776	47.44
865.944	39.25
866.112	25.6
866.28	16.77
866.448	9.02
866.616	-12.21
866.784	-3.56
866.952	-10.27
867.12	-22.17
867.288	-20.52
867.455	-37.32
867.623	-23.06
867.791	-2.92
867.959	10.91
868.127	31.62
868.294	25.86
868.462	32.74
868.63	35.48
868.797	41.84
868.965	46.91
869.133	46.15
869.3	48.39
869.468	53.11
869.636	26.06
869.803	24.87
869.971	16.18
870.138	18.42
870.306	4.69
870.473	-20.19
870.641	-14.57
870.808	-9.2
870.975	-8.64
871.143	-18.5
871.31	-46.97
871.478	-45.47
871.645	-35.1
871.812	-54.28
871.98	-3.87
872.147	16.56
872.314	33.87
872.482	38.2
872.649	28.41
872.816	38.08
872.983	41.88
873.15	36.14
873.318	42.52
873.485	37.29
873.652	37.36
873.819	27.45
873.986	19.3
874.153	14.63
874.32	11.26
874.487	22.13
874.654	21.36
874.821	27.63
874.988	28.61
875.155	30.42
875.322	37.97
875.489	35.02
875.656	37.55
875.823	43.73
875.99	46.48
876.157	45.62
876.324	24.55
876.49	19.58
876.657	23.78
876.824	27.71
876.991	-6.64
877.157	-27.18
877.324	35.36
877.491	72.38
877.658	66.39
877.824	60.91
877.991	79.99
878.157	76.48
878.324	49.5
878.491	48.35
878.657	53.61
878.824	80.1
878.99	51.81
879.157	47.18
879.323	23.97
879.49	-44.12
879.656	-43.62
879.823	-115.86
879.989	-72.94
880.156	-17.68
880.322	-5.63
880.488	-11.11
880.655	-26.73
880.821	-8.98
880.987	-27.88
881.154	-3.95
881.32	11.39
881.486	14.81
881.652	21.62
881.819	31.57
881.985	30.57
882.151	24.06
882.317	26.79
882.483	20.17
882.649	16.89
882.816	20.43
882.982	15.14
883.148	12.35
883.314	12.12
883.48	11
883.646	6.8
883.812	5.64
883.978	9.75
884.144	10.66
884.31	16.74
884.476	16.87
884.642	17.1
884.807	20.82
884.973	22.48
885.139	23.21
885.305	21.62
885.471	20.93
885.637	23.82
885.802	22.29
885.968	21.33
886.134	16.76
886.3	20.27
886.465	17.94
886.631	13.17
886.797	14.77
886.962	14.32
887.128	22.01
887.293	23.3
887.459	20.33
887.625	25.95
887.79	28.29
887.956	36.17
888.121	35.09
888.287	40.55
888.452	41.84
888.618	45.74
888.783	52.38
