Data from 2937895_Reflection_1.txt Node
Date: Wed Jul 15 13:53:43 EDT 2015
User: robert
Spectrometer: USB4E03001
Autoset integration time: false
Trigger mode: 4
Integration Time (sec): 1.000000E-1
Scans to average: 10
Electric dark correction enabled: true
Nonlinearity correction enabled: false
Boxcar width: 5
Stray light correction enabled: false
XAxis mode: Wavelengths
Stop averaging: false
Number of Pixels in Spectrum: 3648
>>>>>Begin Spectral Data<<<<<
177.566	-201.77
177.785	-571.2
178.005	-761.15
178.225	-54.75
178.445	14.38
178.665	-173.56
178.885	49.78
179.105	25
179.324	16.63
179.544	-13
179.764	-90.43
179.984	-157.95
180.204	-229.65
180.423	-217.25
180.643	-166.83
180.863	-118.67
181.083	-231.29
181.302	-626.83
181.522	-243.63
181.742	5451.89
181.961	685.89
182.181	1329.15
182.401	296.78
182.621	291.7
182.84	281.52
183.06	425.89
183.279	261.5
183.499	418.59
183.719	1682.91
183.938	-374.16
184.158	-112.71
184.377	-26.14
184.597	-48.99
184.816	-32.13
185.036	-37.02
185.256	-56.22
185.475	-45.49
185.695	-23.84
185.914	-19.9
186.134	-37.48
186.353	-316.72
186.572	-202.66
186.792	-142.56
187.011	-104.35
187.231	-69.17
187.45	-216.77
187.67	-114.73
187.889	-205.62
188.108	-101.62
188.328	-103.68
188.547	-78.33
188.766	-86.75
188.986	-34.11
189.205	-105.97
189.424	-115.02
189.644	-311.57
189.863	-392.63
190.082	1481.3
190.302	-751.41
190.521	332.89
190.74	168.49
190.959	216.37
191.178	811.83
191.398	444.74
191.617	809.31
191.836	-812.12
192.055	-76
192.274	-39.7
192.494	-43.06
192.713	-96.71
192.932	-62.14
193.151	-60.62
193.37	-45.67
193.589	2.21
193.808	-6.62
194.027	-74.5
194.246	405.15
194.465	2261.19
194.685	1413
194.904	396.85
195.123	178.27
195.342	124.02
195.561	225.49
195.78	140.79
195.999	110.91
196.218	121.16
196.436	166.32
196.655	-29622.22
196.874	166.9
197.093	200.56
197.312	-73.23
197.531	-114.16
197.75	-68.77
197.969	-216.41
198.188	-223.33
198.407	-109.44
198.625	-10.61
198.844	8.56
199.063	-47.05
199.282	-49.21
199.501	75.14
199.719	285.34
199.938	42.44
200.157	144.01
200.376	-10.48
200.594	-312.24
200.813	162.26
201.032	170.71
201.251	124.69
201.469	-362.98
201.688	-546.45
201.907	-794.3
202.125	565.05
202.344	1204.72
202.563	339.46
202.781	363.37
203	1139.92
203.218	2414.71
203.437	-907.74
203.656	359.18
203.874	315.61
204.093	301.1
204.311	191.1
204.53	341.8
204.748	282.76
204.967	-3383.19
205.185	-221.5
205.404	2280.6
205.622	-106.98
205.841	-118.87
206.059	-43.7
206.278	-962.62
206.496	-143.05
206.715	-127.08
206.933	-66.25
207.151	-1095.15
207.37	39923.53
207.588	-1468.47
207.806	805.2
208.025	597.02
208.243	211.73
208.461	489.93
208.68	-386.43
208.898	-120.67
209.116	-77.65
209.335	-2.1
209.553	-1.34
209.771	-11.58
209.989	-56.34
210.208	-25.67
210.426	-18.11
210.644	-2.24
210.862	-7.76
211.081	-6.36
211.299	-73.86
211.517	-30.62
211.735	-49.35
211.953	-10.52
212.171	-46.14
212.39	-42.69
212.608	-50.89
212.826	-80.85
213.044	-68.19
213.262	-80.68
213.48	-90.4
213.698	-8.39
213.916	1.79
214.134	-0.93
214.352	-19.8
214.57	38.18
214.788	64.14
215.006	50.18
215.224	10.19
215.442	20.16
215.66	39.95
215.878	44.2
216.096	87.23
216.314	102
216.532	59.14
216.75	87.23
216.968	83.79
217.185	65.83
217.403	108.46
217.621	475.21
217.839	-57.26
218.057	59.03
218.275	-43.18
218.492	-483.01
218.71	-257.27
218.928	-500.85
219.146	763.77
219.363	858.66
219.581	-11133.33
219.799	-230.74
220.017	-364.68
220.234	-158.21
220.452	-104.61
220.67	-219.52
220.887	-153.81
221.105	-4709.46
221.323	361.59
221.54	141.14
221.758	229.98
221.976	420.2
222.193	126.56
222.411	168.91
222.629	218.94
222.846	165.78
223.064	170.42
223.281	97.01
223.499	98.38
223.716	144.85
223.934	139.46
224.151	132.52
224.369	293.13
224.586	349.14
224.804	317.78
225.021	197.8
225.239	182.58
225.456	162.45
225.674	157.39
225.891	150.24
226.108	41.95
226.326	34.94
226.543	18.26
226.76	20.3
226.978	1.74
227.195	2.17
227.413	-6.71
227.63	-3.09
227.847	7.24
228.064	8.49
228.282	8.3
228.499	14.81
228.716	19.87
228.934	17.75
229.151	19.66
229.368	22.14
229.585	20.67
229.802	25.42
230.02	25.29
230.237	22.1
230.454	20.53
230.671	22.43
230.888	23.29
231.105	15.19
231.323	21.69
231.54	21.4
231.757	26.69
231.974	30.63
232.191	23.33
232.408	22
232.625	27.06
232.842	29.86
233.059	35.32
233.276	30.85
233.493	41.55
233.71	41.43
233.927	35.59
234.144	29.7
234.361	23.38
234.578	30.57
234.795	35.83
235.012	26.62
235.229	28.93
235.446	30.12
235.663	34.35
235.879	34.5
236.096	31.27
236.313	29.91
236.53	24.59
236.747	26.24
236.964	29.01
237.181	27.88
237.397	36.8
237.614	35.57
237.831	37.5
238.048	40.8
238.264	40.43
238.481	34.19
238.698	34.2
238.915	38.23
239.131	33.76
239.348	31.58
239.565	31.29
239.781	30.02
239.998	31.65
240.215	29.67
240.431	26.69
240.648	28.05
240.865	33.09
241.081	32.71
241.298	29.21
241.514	28.99
241.731	25.04
241.947	22.87
242.164	18.9
242.38	18.69
242.597	17.67
242.814	16.31
243.03	15.27
243.246	13.57
243.463	12.1
243.679	13.49
243.896	16.4
244.112	17.77
244.329	19.11
244.545	23.05
244.762	22.36
244.978	23.5
245.194	23.89
245.411	24.46
245.627	23.18
245.843	21.88
246.06	17.14
246.276	13.28
246.492	13.25
246.709	11.78
246.925	13.61
247.141	14.19
247.357	12.17
247.574	12.07
247.79	11.53
248.006	12.91
248.222	14.03
248.439	16.31
248.655	16.6
248.871	15.69
249.087	18.36
249.303	17.31
249.519	16.6
249.736	18.17
249.952	17.52
250.168	17.52
250.384	14.52
250.6	13.19
250.816	11.21
251.032	10.1
251.248	13.51
251.464	13.7
251.68	13.27
251.896	12.24
252.112	10.08
252.328	11.57
252.544	13.28
252.76	12.87
252.976	13.68
253.192	14.82
253.408	15.58
253.624	16.78
253.84	16.03
254.056	14.84
254.272	15.93
254.487	21.53
254.703	19.76
254.919	17.16
255.135	21.5
255.351	20.3
255.567	19.89
255.782	21.46
255.998	18.12
256.214	13.15
256.43	11.07
256.646	14.54
256.861	9.09
257.077	7.88
257.293	9.9
257.508	7.78
257.724	9.96
257.94	8.41
258.155	8.32
258.371	9.27
258.587	9.74
258.802	11.44
259.018	10.58
259.234	11.84
259.449	12.24
259.665	12.15
259.88	11.74
260.096	10.58
260.312	10.92
260.527	9.75
260.743	9.33
260.958	9.21
261.174	8.14
261.389	8.3
261.605	7.43
261.82	8.3
262.036	7.78
262.251	8.28
262.466	8.94
262.682	7.16
262.897	8.21
263.113	8.42
263.328	10.24
263.543	11.05
263.759	8.66
263.974	7.82
264.189	4.95
264.405	4.36
264.62	5.07
264.835	5.56
265.051	7.33
265.266	6.58
265.481	6.52
265.696	6.46
265.912	7.45
266.127	9.45
266.342	10.46
266.557	11.5
266.773	8.61
266.988	6.99
267.203	7.5
267.418	7.81
267.633	11.27
267.848	9.78
268.064	9.69
268.279	8.64
268.494	7.5
268.709	6.42
268.924	5.23
269.139	8.56
269.354	9.74
269.569	9.62
269.784	8.65
269.999	6.08
270.214	7.66
270.429	6.84
270.644	6.97
270.859	8.3
271.074	10.22
271.289	11.96
271.504	12.36
271.719	11.59
271.934	10.94
272.149	10.49
272.363	10.95
272.578	11.2
272.793	11.38
273.008	11.74
273.223	10.54
273.438	10.53
273.653	9.6
273.867	7.65
274.082	7.86
274.297	8.17
274.512	8.3
274.726	8.51
274.941	7.8
275.156	8.51
275.371	11.63
275.585	12.87
275.8	11.73
276.015	13.23
276.229	13.99
276.444	13.39
276.659	12.71
276.873	15.43
277.088	16.37
277.302	16.53
277.517	16.68
277.732	14.57
277.946	12.14
278.161	13.44
278.375	11.56
278.59	11.46
278.804	13.22
279.019	13.01
279.233	13.62
279.448	12.71
279.662	12.98
279.877	9.41
280.091	11.18
280.306	13.32
280.52	12.87
280.735	14.59
280.949	14.5
281.163	12.25
281.378	13.95
281.592	12.05
281.806	12.49
282.021	12.94
282.235	14.23
282.449	14.94
282.664	15.61
282.878	15.43
283.092	13.91
283.307	13.66
283.521	15.35
283.735	15.67
283.949	15.64
284.164	15.94
284.378	14.07
284.592	14.93
284.806	12.19
285.02	13.46
285.234	13.27
285.449	13.17
285.663	14.27
285.877	13.67
286.091	12.88
286.305	13.78
286.519	14.5
286.733	15.57
286.947	14.93
287.161	16.99
287.375	16.63
287.589	17.43
287.803	18.53
288.017	17.89
288.231	17.55
288.445	16.27
288.659	15.51
288.873	15
289.087	14.19
289.301	14.89
289.515	12.05
289.729	10.88
289.943	8.69
290.157	9.78
290.371	9.46
290.584	10.89
290.798	13.72
291.012	14.91
291.226	13.94
291.44	16.11
291.654	16.92
291.867	18
292.081	16.61
292.295	18.51
292.509	15.97
292.722	17.48
292.936	17.44
293.15	14.13
293.364	11.85
293.577	10.29
293.791	10.31
294.005	10.44
294.218	10.12
294.432	11.46
294.645	10.29
294.859	11.97
295.073	10.75
295.286	9.24
295.5	9.6
295.713	10.34
295.927	11.21
296.14	10.84
296.354	9.5
296.568	9.87
296.781	10.31
296.994	10.73
297.208	9.91
297.421	9.74
297.635	10.36
297.848	11.82
298.062	13.56
298.275	14.01
298.489	12.43
298.702	12.98
298.915	12.49
299.129	12.92
299.342	13.29
299.555	14.22
299.769	16.32
299.982	15.07
300.195	15.21
300.409	12.18
300.622	13.02
300.835	14.32
301.048	14.56
301.262	15.76
301.475	15.56
301.688	16.07
301.901	15.27
302.115	14.74
302.328	15.73
302.541	15.53
302.754	15.46
302.967	14.86
303.18	14.72
303.393	14.39
303.607	15.28
303.82	16.27
304.033	16.9
304.246	16.95
304.459	16.68
304.672	18.28
304.885	16.57
305.098	17.16
305.311	17.46
305.524	18.93
305.737	18.6
305.95	17.09
306.163	15.05
306.376	15.29
306.589	17.33
306.802	15.1
307.015	13.81
307.228	15.17
307.44	14.81
307.653	15.06
307.866	13.89
308.079	16.53
308.292	18.04
308.505	18.28
308.718	17.51
308.93	18.06
309.143	19.95
309.356	20.12
309.569	19.28
309.781	19.45
309.994	19.58
310.207	19.48
310.42	18.02
310.632	17.76
310.845	17.49
311.058	18.63
311.27	18.26
311.483	17.27
311.696	17.25
311.908	17.78
312.121	18.12
312.333	17.29
312.546	16.67
312.759	16.43
312.971	17.44
313.184	18.59
313.396	17.98
313.609	17.25
313.821	18.81
314.034	17.33
314.246	18
314.459	19.88
314.671	21.98
314.884	22.68
315.096	22.89
315.309	22.81
315.521	21.59
315.733	21.59
315.946	20.87
316.158	19.4
316.371	20.47
316.583	20.33
316.795	18.76
317.008	18.32
317.22	19.34
317.432	21.08
317.644	18.19
317.857	15.56
318.069	13.44
318.281	12.86
318.494	14.13
318.706	16.23
318.918	16.9
319.13	15.3
319.342	12.46
319.555	12.78
319.767	10.15
319.979	11.37
320.191	14.05
320.403	14.89
320.615	15.22
320.827	14.78
321.039	12.75
321.252	10.25
321.464	12.01
321.676	14.71
321.888	12.46
322.1	13.98
322.312	14.89
322.524	14.74
322.736	14.76
322.948	14.92
323.16	13.16
323.372	15.34
323.584	16.6
323.796	16.77
324.007	17.22
324.219	18.17
324.431	16.75
324.643	16.54
324.855	17.79
325.067	18.04
325.279	18.45
325.491	20.87
325.702	20.1
325.914	19.23
326.126	20.1
326.338	18.69
326.55	18.55
326.761	20.89
326.973	21.06
327.185	19.71
327.396	19.48
327.608	19.11
327.82	18.06
328.032	17.56
328.243	18.99
328.455	17.26
328.666	17.55
328.878	17.51
329.09	16.53
329.301	16.14
329.513	18.2
329.725	18.16
329.936	18.15
330.148	20.17
330.359	19.6
330.571	18.27
330.782	19.43
330.994	20.03
331.205	21.86
331.417	22.8
331.628	22.92
331.84	22.06
332.051	24.44
332.262	25.83
332.474	25.97
332.685	26.6
332.897	28.22
333.108	27.54
333.319	28.04
333.531	26.33
333.742	25.52
333.953	24.96
334.165	24.67
334.376	23.68
334.587	23.5
334.799	22.43
335.01	24.3
335.221	22.12
335.432	22.49
335.644	21.72
335.855	23.7
336.066	25.24
336.277	25.73
336.488	27.66
336.7	27.45
336.911	27.54
337.122	27.36
337.333	25.61
337.544	27.13
337.755	27.06
337.966	27.2
338.177	26.92
338.388	25.42
338.599	26.38
338.811	26.03
339.022	25.27
339.233	24.34
339.444	24.38
339.655	23.44
339.866	23.65
340.076	23.95
340.287	24.13
340.498	23.99
340.709	24.05
340.92	22.97
341.131	21.72
341.342	21.53
341.553	22.48
341.764	22.46
341.975	24.05
342.185	24.14
342.396	23.12
342.607	23.77
342.818	23.57
343.029	24.05
343.239	25.96
343.45	25.63
343.661	25.9
343.872	24.73
344.082	24.93
344.293	23.61
344.504	22.7
344.714	24.06
344.925	24.14
345.136	22.81
345.346	22.57
345.557	21.32
345.768	21.41
345.978	21.54
346.189	23.16
346.399	22.38
346.61	24.88
346.821	25.05
347.031	25.4
347.242	24.32
347.452	24.42
347.663	23.39
347.873	22.35
348.084	23.59
348.294	23.27
348.504	22.68
348.715	22.76
348.925	20.16
349.136	21.17
349.346	20
349.557	20.83
349.767	21.83
349.977	23.51
350.188	25
350.398	23.37
350.608	24.89
350.819	24.4
351.029	24.89
351.239	26.01
351.449	26.17
351.66	24.65
351.87	22.57
352.08	21.64
352.29	20.68
352.501	20.4
352.711	22.71
352.921	20.81
353.131	20.24
353.341	19.39
353.552	18.88
353.762	17.71
353.972	19.26
354.182	20.42
354.392	20.34
354.602	20.47
354.812	20
355.022	16.74
355.232	17.96
355.442	17.78
355.652	18.75
355.862	18.86
356.072	19.97
356.282	19.88
356.492	19.49
356.702	19.91
356.912	19.82
357.122	19.79
357.332	20.83
357.542	20.44
357.752	21.32
357.962	20.61
358.171	20.91
358.381	20.31
358.591	19.08
358.801	19.91
359.011	20.02
359.221	20.77
359.43	20.92
359.64	21.24
359.85	21.62
360.06	21.75
360.269	21.55
360.479	21.01
360.689	20.73
360.899	22.63
361.108	21.86
361.318	22.3
361.528	21.76
361.737	21.54
361.947	20.61
362.156	20.48
362.366	20.38
362.576	20.81
362.785	21
362.995	21.02
363.204	19.9
363.414	20.33
363.623	20.15
363.833	19.73
364.042	19.56
364.252	19.08
364.461	18.47
364.671	17.93
364.88	18.29
365.09	18.65
365.299	18.7
365.509	19.15
365.718	18.7
365.927	18.49
366.137	18.57
366.346	18.85
366.555	19.71
366.765	19.22
366.974	19.61
367.183	18.73
367.393	18.5
367.602	18.79
367.811	18.32
368.021	17.86
368.23	17.29
368.439	17.97
368.648	17.61
368.857	17.72
369.067	18.46
369.276	17.9
369.485	18.09
369.694	17.13
369.903	16.63
370.112	16.73
370.321	17.25
370.531	17.76
370.74	17.01
370.949	17.3
371.158	17.1
371.367	17.28
371.576	17.28
371.785	16.9
371.994	17.12
372.203	17.45
372.412	18.38
372.621	18.72
372.83	18.23
373.039	18.13
373.248	18.68
373.457	18.57
373.666	18.2
373.874	18.75
374.083	19.05
374.292	19.27
374.501	18.68
374.71	17.25
374.919	16.81
375.128	17.44
375.336	17.95
375.545	17.76
375.754	17.97
375.963	18.26
376.171	17.08
376.38	17.41
376.589	18.22
376.798	18.98
377.006	19.39
377.215	19.06
377.424	18.53
377.632	18.62
377.841	18.48
378.05	17.99
378.258	17.91
378.467	18.6
378.675	18.99
378.884	18.6
379.093	17.65
379.301	16.99
379.51	17.13
379.718	17.58
379.927	16.84
380.135	16.05
380.344	16.58
380.552	16.59
380.761	16.58
380.969	15.4
381.177	14.89
381.386	15.2
381.594	15.17
381.803	15.1
382.011	14.25
382.219	14.61
382.428	15.06
382.636	14.67
382.845	14.73
383.053	14.47
383.261	14.67
383.469	14.87
383.678	14.77
383.886	14.69
384.094	14.73
384.302	14.91
384.511	14.39
384.719	14.69
384.927	14.6
385.135	14.53
385.343	14.4
385.552	14.83
385.76	14.41
385.968	13.88
386.176	14.28
386.384	14.49
386.592	14.62
386.8	14.84
387.008	14.55
387.216	15.11
387.424	14.91
387.633	14.68
387.841	14.37
388.049	14.12
388.257	13.94
388.465	13.53
388.672	13.54
388.88	13.46
389.088	13.62
389.296	13.44
389.504	12.94
389.712	12.92
389.92	12.69
390.128	12.71
390.336	12.81
390.544	12.99
390.751	12.98
390.959	12.36
391.167	12.03
391.375	11.86
391.583	11.96
391.79	12.05
391.998	11.57
392.206	11.9
392.414	11.65
392.621	11.58
392.829	11.53
393.037	11.41
393.244	11.68
393.452	12.01
393.66	11.51
393.867	10.79
394.075	10.62
394.283	10.45
394.49	10.38
394.698	10.38
394.905	10.4
395.113	10.51
395.32	10.65
395.528	10.53
395.735	10.05
395.943	10.41
396.15	10.58
396.358	10.25
396.565	10.42
396.773	10.1
396.98	10.26
397.188	10.08
397.395	9.93
397.602	10.03
397.81	9.89
398.017	10.02
398.225	9.87
398.432	9.65
398.639	9.79
398.847	9.92
399.054	10.36
399.261	10.38
399.468	10.47
399.676	10.4
399.883	10.22
400.09	10.22
400.297	10.33
400.505	10.39
400.712	10.69
400.919	10.91
401.126	11.01
401.333	10.7
401.54	10.58
401.748	10.5
401.955	10.53
402.162	10.66
402.369	10.8
402.576	10.37
402.783	10.28
402.99	10.06
403.197	10.24
403.404	10.47
403.611	10.38
403.818	10.36
404.025	10.52
404.232	10.87
404.439	10.73
404.646	10.74
404.853	10.99
405.06	11.07
405.267	11.39
405.474	11.03
405.681	10.89
405.887	10.74
406.094	10.81
406.301	10.68
406.508	10.13
406.715	10.16
406.922	10.1
407.128	10.06
407.335	9.81
407.542	9.84
407.749	9.87
407.955	9.68
408.162	9.76
408.369	9.53
408.575	9.26
408.782	9.49
408.989	9.22
409.195	9.08
409.402	8.82
409.609	8.67
409.815	8.34
410.022	8.31
410.228	8.38
410.435	8.44
410.642	8.19
410.848	8.81
411.055	8.79
411.261	9.07
411.468	9.07
411.674	9.41
411.881	9.66
412.087	9.44
412.294	9.45
412.5	9.34
412.706	9.34
412.913	9.42
413.119	8.87
413.326	8.87
413.532	8.68
413.738	8.85
413.945	8.83
414.151	8.62
414.357	9.01
414.564	9.07
414.77	9.29
414.976	9.39
415.182	9.55
415.389	9.63
415.595	9.48
415.801	9.37
416.007	9.18
416.214	8.95
416.42	8.97
416.626	8.98
416.832	9.1
417.038	8.85
417.244	8.6
417.45	8.4
417.657	8.46
417.863	8.47
418.069	8.73
418.275	8.86
418.481	9.02
418.687	9.07
418.893	8.99
419.099	8.73
419.305	8.81
419.511	8.98
419.717	9.02
419.923	9.11
420.129	9.11
420.335	8.98
420.541	8.95
420.746	8.93
420.952	8.88
421.158	8.83
421.364	9.09
421.57	8.98
421.776	9.01
421.982	9.16
422.187	8.99
422.393	8.98
422.599	9.02
422.805	8.98
423.01	8.85
423.216	8.86
423.422	8.61
423.628	8.4
423.833	8.4
424.039	8.31
424.245	8.13
424.45	8.18
424.656	8.24
424.862	8.28
425.067	8.22
425.273	8.24
425.478	8.31
425.684	8.63
425.889	8.65
426.095	8.68
426.301	8.69
426.506	8.75
426.712	8.75
426.917	8.76
427.123	8.6
427.328	8.55
427.533	8.16
427.739	8.09
427.944	8.1
428.15	8.04
428.355	7.89
428.561	7.88
428.766	7.7
428.971	7.74
429.177	7.65
429.382	7.77
429.587	7.85
429.793	8.19
429.998	8.2
430.203	8.07
430.408	8.17
430.614	8.49
430.819	8.29
431.024	8.51
431.229	8.45
431.434	8.22
431.64	8.08
431.845	8.22
432.05	8.24
432.255	8.16
432.46	8.26
432.665	8.2
432.87	7.97
433.076	7.93
433.281	7.83
433.486	8.01
433.691	8.12
433.896	8.08
434.101	7.97
434.306	8.22
434.511	8.22
434.716	7.88
434.921	7.73
435.126	7.82
435.331	7.93
435.535	8.04
435.74	7.83
435.945	7.85
436.15	7.86
436.355	7.72
436.56	7.5
436.765	7.49
436.97	7.66
437.174	7.74
437.379	7.75
437.584	7.9
437.789	7.9
437.993	8.13
438.198	8.17
438.403	8.17
438.608	8.1
438.812	8.01
439.017	7.98
439.222	7.93
439.426	7.78
439.631	7.75
439.836	7.51
440.04	7.35
440.245	7.29
440.45	7.24
440.654	7.29
440.859	7.59
441.063	7.49
441.268	7.63
441.472	7.75
441.677	7.82
441.881	7.66
442.086	7.65
442.29	7.91
442.495	7.77
442.699	7.75
442.904	7.6
443.108	7.21
443.312	7.22
443.517	7.07
443.721	7.17
443.925	7.22
444.13	7.42
444.334	7.77
444.538	7.54
444.743	7.53
444.947	7.5
445.151	7.67
445.356	8.02
445.56	8.31
445.764	8.06
445.968	7.82
446.173	7.9
446.377	7.74
446.581	7.5
446.785	7.56
446.989	7.65
447.193	7.53
447.398	7.35
447.602	7.13
447.806	6.98
448.01	7.1
448.214	7.07
448.418	6.92
448.622	6.91
448.826	7.01
449.03	6.9
449.234	6.77
449.438	6.87
449.642	7.23
449.846	7.34
450.05	7.34
450.254	7.67
450.458	7.74
450.662	7.85
450.866	7.8
451.069	7.79
451.273	7.75
451.477	7.97
451.681	7.97
451.885	7.63
452.089	7.52
452.292	7.52
452.496	7.29
452.7	7.33
452.904	7.34
453.107	7.4
453.311	7.23
453.515	7.15
453.719	7.09
453.922	7.25
454.126	7.55
454.33	7.48
454.533	7.5
454.737	7.27
454.94	7.23
455.144	7.05
455.348	7.02
455.551	7.06
455.755	7.21
455.958	7.15
456.162	7.17
456.365	6.69
456.569	6.75
456.772	6.55
456.976	6.93
457.179	6.96
457.383	7.09
457.586	7.23
457.79	7.53
457.993	7.55
458.196	7.35
458.4	7.27
458.603	7.73
458.807	7.65
459.01	7.61
459.213	7.35
459.417	7.4
459.62	7.53
459.823	7.49
460.026	7.39
460.23	7.49
460.433	7.69
460.636	7.76
460.839	7.53
461.042	7.37
461.246	7.47
461.449	7.63
461.652	7.46
461.855	7.38
462.058	7.38
462.261	7.25
462.464	7.02
462.668	6.92
462.871	6.77
463.074	6.65
463.277	7.21
463.48	7.14
463.683	6.93
463.886	7.01
464.089	6.99
464.292	7.01
464.495	7.07
464.698	7.21
464.901	7.17
465.104	7.32
465.306	7.39
465.509	7.12
465.712	7.4
465.915	7.37
466.118	7.43
466.321	7.41
466.524	7.56
466.726	7.54
466.929	7.45
467.132	7.34
467.335	7.09
467.538	7.01
467.74	7.01
467.943	7.07
468.146	7.44
468.348	7.31
468.551	7.09
468.754	6.79
468.956	6.7
469.159	6.81
469.362	7.01
469.564	7.23
469.767	7.2
469.969	6.99
470.172	6.8
470.375	6.5
470.577	6.64
470.78	6.5
470.982	6.61
471.185	6.71
471.387	6.36
471.59	6.18
471.792	6.19
471.995	6.25
472.197	6.38
472.399	6.33
472.602	6.32
472.804	6.35
473.007	6.7
473.209	6.7
473.411	6.84
473.614	7.19
473.816	7.21
474.018	7.3
474.22	7.4
474.423	7.45
474.625	7.33
474.827	7.41
475.03	7.45
475.232	7.49
475.434	7.51
475.636	7.41
475.838	7.36
476.04	7.35
476.243	7.26
476.445	7.4
476.647	7.5
476.849	7.41
477.051	7.36
477.253	7.23
477.455	7.21
477.657	7.13
477.859	7.12
478.061	7.1
478.263	6.95
478.465	6.86
478.667	6.91
478.869	6.71
479.071	7
479.273	6.91
479.475	6.83
479.677	6.64
479.879	6.65
480.081	6.6
480.283	6.52
480.485	6.65
480.686	6.58
480.888	6.42
481.09	6.52
481.292	6.56
481.494	6.58
481.695	6.77
481.897	6.89
482.099	6.92
482.301	7.04
482.502	7.02
482.704	6.99
482.906	6.99
483.107	6.99
483.309	6.95
483.511	6.86
483.712	6.88
483.914	6.84
484.115	6.77
484.317	6.83
484.519	6.75
484.72	6.69
484.922	6.69
485.123	6.65
485.325	6.65
485.526	6.7
485.728	6.71
485.929	6.78
486.131	6.77
486.332	6.91
486.534	6.89
486.735	6.77
486.936	6.88
487.138	6.9
487.339	6.95
487.541	6.98
487.742	6.98
487.943	6.94
488.144	6.86
488.346	6.81
488.547	6.79
488.748	6.81
488.95	6.93
489.151	6.81
489.352	6.78
489.553	6.81
489.755	6.76
489.956	6.76
490.157	6.83
490.358	6.89
490.559	7.05
490.76	6.97
490.961	6.95
491.163	6.98
491.364	7.04
491.565	6.96
491.766	6.94
491.967	6.85
492.168	6.8
492.369	6.75
492.57	6.75
492.771	6.64
492.972	6.78
493.173	6.72
493.374	6.72
493.575	6.65
493.776	6.75
493.976	6.75
494.177	6.81
494.378	6.86
494.579	7.04
494.78	6.96
494.981	6.94
495.182	6.78
495.382	6.82
495.583	6.79
495.784	7.14
495.985	7.16
496.185	7.29
496.386	7.43
496.587	7.42
496.788	7.32
496.988	7.38
497.189	7.32
497.39	7.31
497.59	7.33
497.791	7.44
497.992	7.29
498.192	7.13
498.393	7.05
498.593	6.95
498.794	6.9
498.994	6.74
499.195	6.66
499.395	6.93
499.596	6.89
499.796	6.75
499.997	6.62
500.197	6.44
500.398	6.82
500.598	6.8
500.799	6.72
500.999	6.68
501.199	7.07
501.4	7.26
501.6	7.09
501.801	7.15
502.001	7.3
502.201	7.48
502.402	7.76
502.602	7.45
502.802	7.58
503.002	7.84
503.203	7.95
503.403	7.8
503.603	7.73
503.803	7.75
504.003	7.89
504.204	7.84
504.404	7.65
504.604	7.64
504.804	7.91
505.004	7.99
505.204	7.94
505.404	7.92
505.604	7.87
505.804	7.89
506.005	7.99
506.205	7.96
506.405	7.94
506.605	8.11
506.805	8.08
507.005	7.91
507.204	7.88
507.404	7.87
507.604	7.81
507.804	7.85
508.004	7.94
508.204	7.89
508.404	7.79
508.604	7.76
508.804	7.75
509.003	7.91
509.203	7.92
509.403	7.82
509.603	7.85
509.803	7.89
510.002	7.87
510.202	7.71
510.402	7.77
510.602	7.85
510.801	7.89
511.001	8.04
511.201	7.96
511.4	7.96
511.6	8.06
511.8	7.92
511.999	8.03
512.199	7.82
512.398	7.93
512.598	7.92
512.797	8
512.997	8.04
513.197	7.9
513.396	7.98
513.596	8.09
513.795	8.15
513.994	8.29
514.194	8.11
514.393	8.36
514.593	8.35
514.792	8.3
514.992	8.23
515.191	8.31
515.39	8.3
515.59	8.36
515.789	8.19
515.988	8.08
516.188	7.88
516.387	7.97
516.586	7.85
516.786	8.04
516.985	8.15
517.184	8.09
517.383	8.24
517.582	8.19
517.782	8.14
517.981	8.29
518.18	8.22
518.379	8.25
518.578	8.21
518.777	8.29
518.976	8.12
519.176	8.01
519.375	7.95
519.574	7.83
519.773	7.93
519.972	7.83
520.171	7.77
520.37	7.87
520.569	7.91
520.768	7.9
520.967	7.92
521.166	7.93
521.365	8.02
521.564	8.06
521.762	8.01
521.961	7.93
522.16	7.96
522.359	7.87
522.558	7.78
522.757	7.93
522.956	8.3
523.154	8.5
523.353	8.55
523.552	8.43
523.751	8.57
523.949	8.54
524.148	8.45
524.347	8.5
524.546	8.57
524.744	8.67
524.943	8.61
525.142	8.58
525.34	8.43
525.539	8.38
525.737	8.39
525.936	8.47
526.135	8.5
526.333	8.66
526.532	8.64
526.73	8.62
526.929	8.59
527.127	8.68
527.326	8.6
527.524	8.61
527.723	8.67
527.921	8.72
528.12	8.66
528.318	8.75
528.516	8.71
528.715	8.73
528.913	8.75
529.112	8.75
529.31	8.69
529.508	8.74
529.707	8.73
529.905	8.78
530.103	8.82
530.301	8.86
530.5	8.88
530.698	8.98
530.896	8.95
531.094	8.93
531.293	9.01
531.491	9.14
531.689	9.1
531.887	9.25
532.085	9.31
532.283	9.42
532.481	9.47
532.68	9.35
532.878	9.24
533.076	9.36
533.274	9.46
533.472	9.5
533.67	9.52
533.868	9.5
534.066	9.62
534.264	9.61
534.462	9.59
534.66	9.58
534.858	9.67
535.056	9.86
535.253	9.93
535.451	9.97
535.649	9.97
535.847	10.02
536.045	10.18
536.243	9.94
536.441	10.03
536.638	9.98
536.836	9.97
537.034	9.97
537.232	9.85
537.43	9.77
537.627	9.81
537.825	9.88
538.023	9.71
538.22	9.74
538.418	9.73
538.616	9.62
538.813	9.62
539.011	9.78
539.209	9.91
539.406	10.07
539.604	10.15
539.801	10.19
539.999	10.1
540.196	10.21
540.394	10.18
540.591	10.36
540.789	10.5
540.986	10.56
541.184	10.57
541.381	10.5
541.579	10.48
541.776	10.47
541.974	10.5
542.171	10.63
542.368	10.7
542.566	10.86
542.763	10.89
542.96	10.87
543.158	10.91
543.355	10.96
543.552	11.02
543.75	11.08
543.947	11.12
544.144	11.15
544.341	11.08
544.539	11.04
544.736	11.02
544.933	11.05
545.13	11.04
545.327	10.99
545.524	11
545.722	11.04
545.919	11.16
546.116	11.27
546.313	11.4
546.51	11.64
546.707	11.8
546.904	11.96
547.101	12.05
547.298	12.26
547.495	12.38
547.692	12.45
547.889	12.84
548.086	12.99
548.283	13.12
548.48	13.09
548.677	13.09
548.874	13.18
549.07	13.05
549.267	13.21
549.464	13.2
549.661	13.43
549.858	13.41
550.055	13.32
550.251	13.39
550.448	13.41
550.645	13.43
550.842	13.53
551.038	13.79
551.235	13.89
551.432	13.88
551.628	14.05
551.825	14
552.022	14.07
552.218	14.04
552.415	13.82
552.612	14.21
552.808	14.36
553.005	14.14
553.201	14.19
553.398	14.23
553.594	14.21
553.791	14.21
553.987	14.39
554.184	14.78
554.38	14.8
554.577	15.17
554.773	14.8
554.97	14.99
555.166	15.44
555.362	15.58
555.559	15.8
555.755	15.99
555.952	16.11
556.148	16.01
556.344	15.86
556.541	16.06
556.737	15.73
556.933	15.93
557.129	15.85
557.326	15.65
557.522	15.52
557.718	15.48
557.914	15.59
558.11	15.62
558.307	15.78
558.503	15.86
558.699	15.7
558.895	16.03
559.091	16.15
559.287	16.37
559.483	16.53
559.679	16.56
559.876	16.61
560.072	16.7
560.268	16.65
560.464	16.72
560.66	16.63
560.856	16.92
561.052	17.16
561.247	17.3
561.443	17.18
561.639	17.43
561.835	17.66
562.031	17.75
562.227	17.63
562.423	17.65
562.619	17.98
562.815	18.29
563.01	18.37
563.206	18.02
563.402	18.15
563.598	18.38
563.793	18.36
563.989	18.5
564.185	18.77
564.381	18.95
564.576	19.27
564.772	19.15
564.968	19
565.163	19.12
565.359	19.52
565.555	19.44
565.75	19.58
565.946	19.65
566.141	19.52
566.337	19.4
566.532	19.49
566.728	19.35
566.923	19.46
567.119	19.69
567.314	19.75
567.51	19.63
567.705	19.57
567.901	19.45
568.096	19.39
568.292	19.43
568.487	19.54
568.682	19.57
568.878	19.8
569.073	19.62
569.268	19.55
569.464	19.54
569.659	19.72
569.854	19.97
570.05	20.11
570.245	20.35
570.44	20.3
570.635	20.34
570.831	20.19
571.026	20.1
571.221	20.33
571.416	20.62
571.611	20.67
571.806	20.69
572.002	20.58
572.197	20.77
572.392	20.71
572.587	20.83
572.782	21.06
572.977	21.2
573.172	21.32
573.367	21.37
573.562	21.31
573.757	21.42
573.952	21.5
574.147	21.82
574.342	21.71
574.537	21.71
574.732	21.69
574.927	21.42
575.121	21.57
575.316	21.6
575.511	21.65
575.706	21.66
575.901	21.58
576.096	21.64
576.29	21.62
576.485	21.44
576.68	21.49
576.875	21.74
577.069	21.92
577.264	22.02
577.459	22.18
577.654	22.33
577.848	22.34
578.043	22.26
578.238	22.12
578.432	22.03
578.627	22.21
578.821	22.23
579.016	22.33
579.21	22.37
579.405	22.44
579.6	22.14
579.794	22.09
579.989	22.13
580.183	22.34
580.378	22.66
580.572	22.57
580.766	22.68
580.961	22.87
581.155	22.8
581.35	22.81
581.544	23.06
581.738	23.05
581.933	23.1
582.127	23.24
582.321	23.2
582.516	23.27
582.71	23.53
582.904	23.57
583.099	23.5
583.293	23.53
583.487	23.06
583.681	22.92
583.875	23.01
584.07	22.98
584.264	23.02
584.458	23.31
584.652	23.02
584.846	22.79
585.04	22.82
585.234	22.72
585.428	22.93
585.623	23.32
585.817	23.05
586.011	23.27
586.205	23.25
586.399	23.25
586.593	23.1
586.787	23.14
586.981	23.1
587.174	23.25
587.368	23.5
587.562	23.34
587.756	23.52
587.95	23.67
588.144	23.6
588.338	23.92
588.532	24.11
588.725	24.24
588.919	24.31
589.113	24.39
589.307	24.27
589.501	24.19
589.694	24.05
589.888	23.97
590.082	23.99
590.275	23.95
590.469	23.8
590.663	23.39
590.856	23.35
591.05	23.32
591.244	23.38
591.437	23.53
591.631	23.47
591.824	23.59
592.018	23.88
592.212	23.74
592.405	23.85
592.599	23.78
592.792	23.81
592.986	23.85
593.179	23.88
593.372	24.07
593.566	24.34
593.759	24.46
593.953	24.65
594.146	24.29
594.339	24.36
594.533	24.21
594.726	24.29
594.92	24.28
595.113	24.26
595.306	24.35
595.499	24.32
595.693	24.18
595.886	24.05
596.079	23.8
596.272	23.98
596.466	24.26
596.659	24.44
596.852	24.46
597.045	24.72
597.238	24.77
597.431	24.66
597.624	24.47
597.818	24.57
598.011	24.58
598.204	24.55
598.397	24.67
598.59	24.54
598.783	24.56
598.976	24.43
599.169	24.38
599.362	24.29
599.555	24.56
599.748	24.92
599.941	24.81
600.134	25.03
600.326	25.14
600.519	24.86
600.712	24.77
600.905	24.51
601.098	24.19
601.291	24.07
601.483	24.13
601.676	24.02
601.869	23.79
602.062	23.81
602.255	23.71
602.447	23.96
602.64	24.04
602.833	24.27
603.025	24.42
603.218	24.73
603.411	24.84
603.603	24.81
603.796	24.66
603.989	24.77
604.181	24.64
604.374	24.71
604.566	24.59
604.759	24.46
604.951	24.35
605.144	24.63
605.336	24.74
605.529	24.83
605.721	24.85
605.914	24.99
606.106	24.98
606.299	24.92
606.491	24.76
606.683	24.78
606.876	25.08
607.068	24.96
607.26	24.45
607.453	24.46
607.645	24.33
607.837	24.49
608.03	24.61
608.222	24.38
608.414	24.66
608.606	24.68
608.799	24.52
608.991	24.6
609.183	24.78
609.375	24.82
609.567	24.5
609.759	24.17
609.952	23.9
610.144	23.73
610.336	23.86
610.528	23.81
610.72	23.72
610.912	23.91
611.104	23.7
611.296	23.35
611.488	23.49
611.68	23.63
611.872	23.98
612.064	24.01
612.256	24.11
612.448	24.18
612.64	24.23
612.832	24.32
613.023	24.08
613.215	23.91
613.407	23.96
613.599	24
613.791	24.07
613.983	23.73
614.174	23.91
614.366	23.63
614.558	23.32
614.75	22.99
614.941	23.09
615.133	23.22
615.325	23.43
615.516	23.73
615.708	23.96
615.9	24.27
616.091	24.5
616.283	24.44
616.475	24.62
616.666	24.73
616.858	25.29
617.049	25.59
617.241	25.5
617.432	25.54
617.624	25.39
617.815	25.45
618.007	24.84
618.198	24.55
618.39	24.72
618.581	24.7
618.773	24.82
618.964	24.65
619.155	24.48
619.347	24.88
619.538	24.98
619.729	25.17
619.921	24.75
620.112	24.89
620.303	25.02
620.494	24.75
620.686	24.91
620.877	25.05
621.068	24.57
621.259	24.79
621.451	24.48
621.642	24.61
621.833	24.45
622.024	24.73
622.215	24.91
622.406	25.31
622.597	25.15
622.788	25.3
622.98	25.2
623.171	25.07
623.362	24.6
623.553	24.85
623.744	24.58
623.935	24.95
624.126	24.85
624.317	24.81
624.508	24.52
624.698	24.96
624.889	25.15
625.08	24.93
625.271	25.31
625.462	25.42
625.653	25.32
625.844	25.02
626.034	24.6
626.225	24.76
626.416	24.79
626.607	25.11
626.798	25.03
626.988	24.86
627.179	24.89
627.37	24.94
627.56	24.73
627.751	24.58
627.942	24.94
628.132	25.01
628.323	24.67
628.514	24.79
628.704	24.51
628.895	24.35
629.085	24.17
629.276	24.27
629.466	24.14
629.657	24.22
629.847	24.08
630.038	23.97
630.228	24.07
630.419	24.38
630.609	24.31
630.8	24.29
630.99	24.36
631.181	24.39
631.371	24.67
631.561	24.88
631.752	24.99
631.942	25.35
632.132	25.57
632.323	25.69
632.513	25.26
632.703	25.09
632.893	25.22
633.084	25.67
633.274	25.39
633.464	25.29
633.654	25.34
633.844	25.6
634.034	25.68
634.225	25.58
634.415	25.4
634.605	25.83
634.795	26.2
634.985	26.49
635.175	26.16
635.365	26.42
635.555	26.42
635.745	26.52
635.935	26.31
636.125	26.15
636.315	26.11
636.505	26.37
636.695	26.38
636.885	26.33
637.075	26.03
637.265	25.85
637.455	26.12
637.644	25.93
637.834	25.94
638.024	25.83
638.214	25.57
638.404	25.55
638.593	25.61
638.783	25.76
638.973	25.47
639.163	25.45
639.352	25.7
639.542	25.59
639.732	25.89
639.921	25.45
640.111	25.64
640.301	25.72
640.49	25.61
640.68	25.27
640.87	24.96
641.059	25.03
641.249	25.18
641.438	25.05
641.628	24.95
641.817	24.9
642.007	24.57
642.196	24.51
642.386	24.66
642.575	24.92
642.764	24.92
642.954	25.2
643.143	25.44
643.333	25.3
643.522	25.5
643.711	25.66
643.901	26.03
644.09	26.67
644.279	26.45
644.469	26.39
644.658	26.33
644.847	26.48
645.036	26.64
645.226	26.2
645.415	26.33
645.604	26.3
645.793	25.89
645.982	25.39
646.171	25.19
646.361	25.43
646.55	25.11
646.739	25.04
646.928	24.8
647.117	24.59
647.306	25.07
647.495	25.11
647.684	25.11
647.873	25.24
648.062	25.19
648.251	24.9
648.44	25.02
648.629	25.61
648.818	25.88
649.007	26.05
649.196	25.89
649.384	25.42
649.573	25.34
649.762	24.99
649.951	25
650.14	25.12
650.328	25.24
650.517	25.3
650.706	24.88
650.895	24.38
651.083	24.4
651.272	24.35
651.461	24.85
651.65	24.74
651.838	25.1
652.027	24.86
652.216	25.13
652.404	25.69
652.593	25.79
652.781	26.46
652.97	26.65
653.158	26.81
653.347	27.01
653.535	26.85
653.724	27.2
653.912	27.12
654.101	27.14
654.289	26.88
654.478	26.43
654.666	26.35
654.855	26.17
655.043	26.1
655.231	26.02
655.42	26.12
655.608	26.04
655.796	26.15
655.985	26.17
656.173	26.59
656.361	26.46
656.55	26.5
656.738	26.39
656.926	26.3
657.114	26.11
657.302	26.58
657.491	26.06
657.679	26.17
657.867	25.46
658.055	25.82
658.243	25.24
658.431	25.34
658.619	25.3
658.807	25.39
658.996	25.59
659.184	25.82
659.372	25.38
659.56	25.61
659.748	25.54
659.936	25.87
660.124	25.69
660.311	25.97
660.499	25.77
660.687	25.57
660.875	25.43
661.063	25.17
661.251	25.04
661.439	25.24
661.627	25.31
661.814	25.43
662.002	25.06
662.19	25.15
662.378	25.49
662.565	25.68
662.753	26.13
662.941	26.64
663.129	26.25
663.316	26.24
663.504	26.14
663.692	26.33
663.879	26.07
664.067	26.27
664.254	25.99
664.442	25.89
664.63	25.81
664.817	25.38
665.005	25.41
665.192	25.65
665.38	26.22
665.567	25.9
665.755	25.87
665.942	25.8
666.13	26.2
666.317	26.18
666.504	26.37
666.692	26.64
666.879	26.83
667.067	26.41
667.254	26.45
667.441	26.31
667.629	26.79
667.816	26.56
668.003	26.71
668.19	26.87
668.378	26.24
668.565	26.14
668.752	25.97
668.939	26.25
669.127	26.93
669.314	27.47
669.501	27.39
669.688	27.09
669.875	26.9
670.062	27.16
670.249	26.86
670.436	27.19
670.623	27.17
670.81	27.23
670.997	27.12
671.184	26.5
671.371	26.02
671.558	26.18
671.745	26.28
671.932	26.43
672.119	26.2
672.306	26.32
672.493	27.04
672.68	26.99
672.867	27.28
673.054	27.27
673.24	27.16
673.427	27.62
673.614	27.02
673.801	26.97
673.988	27.15
674.174	27.22
674.361	26.94
674.548	26.68
674.734	26.79
674.921	26.74
675.108	26.88
675.294	27.6
675.481	26.91
675.668	27.22
675.854	26.35
676.041	26.03
676.227	26.06
676.414	25.83
676.601	25.77
676.787	25.58
676.974	25.3
677.16	25.27
677.347	24.55
677.533	25.15
677.719	25.26
677.906	25.85
678.092	25.92
678.279	25.94
678.465	26.19
678.651	27.01
678.838	27.05
679.024	27.2
679.21	27.14
679.397	27.15
679.583	26.8
679.769	26.81
679.955	27.13
680.142	27.11
680.328	26.87
680.514	26.89
680.7	26.15
680.886	26.56
681.073	26.65
681.259	27.06
681.445	27.05
681.631	27.28
681.817	26.87
682.003	27.15
682.189	27.4
682.375	27.62
682.561	27.83
682.747	27.91
682.933	27.34
683.119	27.2
683.305	26.58
683.491	26.88
683.677	26.41
683.863	27.21
684.049	27.13
684.235	26.86
684.42	27.18
684.606	27.18
684.792	27.08
684.978	26.88
685.164	26.77
685.349	26.93
685.535	26.55
685.721	27.17
685.907	26.72
686.092	26.34
686.278	25.92
686.464	25.97
686.649	26.08
686.835	26.32
687.021	26.79
687.206	26.5
687.392	26.35
687.577	26.92
687.763	26.52
687.948	26.63
688.134	26.9
688.319	27.65
688.505	27.58
688.69	27.3
688.876	27.23
689.061	26.66
689.247	26.92
689.432	26.48
689.618	26.34
689.803	26.63
689.988	27.04
690.174	26.96
690.359	27.24
690.544	26.57
690.73	26.41
690.915	26.19
691.1	26.77
691.285	26.8
691.471	28.04
691.656	27.91
691.841	27.77
692.026	26.98
692.211	26.95
692.396	26.21
692.582	27.24
692.767	27.69
692.952	28.4
693.137	28.27
693.322	28.77
693.507	27.84
693.692	27.65
693.877	28.43
694.062	28.42
694.247	28.46
694.432	28.28
694.617	27.46
694.802	27.42
694.987	26.4
695.172	25.99
695.357	25.54
695.541	26.35
695.726	26.26
695.911	24.93
696.096	25.23
696.281	24.81
696.466	25.79
696.65	25.98
696.835	26.47
697.02	26.79
697.204	27.27
697.389	28.07
697.574	27.74
697.759	27.57
697.943	27.85
698.128	28.27
698.312	28.58
698.497	28.35
698.682	28.41
698.866	28.28
699.051	28.51
699.235	28.24
699.42	27.56
699.604	27.53
699.789	27.46
699.973	27.33
700.158	27.17
700.342	26.97
700.527	26.75
700.711	26.87
700.895	26.43
701.08	25.5
701.264	25.17
701.448	25.62
701.633	25.63
701.817	26.08
702.001	26.51
702.186	25.56
702.37	25.16
702.554	25.21
702.738	24.66
702.923	25.16
703.107	26.25
703.291	26.49
703.475	26.07
703.659	26.79
703.843	26.84
704.027	26.5
704.212	27.2
704.396	27.59
704.58	27.05
704.764	26.68
704.948	25.26
705.132	25.19
705.316	25.64
705.5	25.63
705.684	24.92
705.868	24.83
706.052	24.89
706.235	25.49
706.419	25.54
706.603	26.94
706.787	28.61
706.971	29
707.155	27.97
707.339	28.91
707.522	28.79
707.706	28.75
707.89	28.6
708.074	29.02
708.257	28.43
708.441	28.74
708.625	27.8
708.808	26.77
708.992	27.75
709.176	28.25
709.359	27.02
709.543	27.28
709.727	27.12
709.91	27.23
710.094	27.65
710.277	28.16
710.461	27.82
710.644	27.26
710.828	27.53
711.011	27.6
711.195	28.26
711.378	28.44
711.562	28.44
711.745	27.91
711.928	28.02
712.112	27.68
712.295	27.3
712.478	27.33
712.662	28.01
712.845	27.93
713.028	26.92
713.212	26.38
713.395	26.94
713.578	26.96
713.761	27.74
713.945	27.65
714.128	27.33
714.311	27.78
714.494	27.86
714.677	28.35
714.86	27.07
715.043	27.66
715.227	27.13
715.41	27.09
715.593	26.75
715.776	26.67
715.959	26.43
716.142	26.2
716.325	25.54
716.508	25.17
716.691	24.4
716.874	26.06
717.057	26.54
717.239	26.91
717.422	26.34
717.605	26.38
717.788	25.56
717.971	26.62
718.154	27.25
718.337	26.95
718.519	27.31
718.702	27.67
718.885	27.39
719.068	26.92
719.25	27.88
719.433	28.16
719.616	27.94
719.798	29.18
719.981	28.07
720.164	28.21
720.346	29.62
720.529	29.85
720.712	29.6
720.894	29.1
721.077	29.98
721.259	29.48
721.442	29.28
721.624	29.86
721.807	29.79
721.989	29.23
722.172	28.82
722.354	27.63
722.537	28.13
722.719	28.67
722.901	28.8
723.084	27.61
723.266	28.01
723.448	28.07
723.631	28.65
723.813	28.65
723.995	30.06
724.178	29.95
724.36	31.76
724.542	30.58
724.724	29.02
724.907	29.78
725.089	30.04
725.271	29.29
725.453	29.22
725.635	28.05
725.817	28.18
725.999	27.46
726.181	26.6
726.364	25.75
726.546	26.25
726.728	26.67
726.91	26.13
727.092	26.53
727.274	28.11
727.456	28.04
727.638	28.51
727.819	28.29
728.001	27.87
728.183	27.49
728.365	26.68
728.547	27.9
728.729	28.63
728.911	28.69
729.093	28.33
729.274	27.03
729.456	26.78
729.638	27.52
729.82	27.82
730.001	28.81
730.183	30.34
730.365	30.34
730.546	30.19
730.728	29.85
730.91	28.84
731.091	28.33
731.273	28.47
731.455	28.8
731.636	27.89
731.818	27.59
731.999	26.56
732.181	26.9
732.362	27.18
732.544	25.91
732.725	26.46
732.907	27.18
733.088	27.44
733.27	27.29
733.451	27.69
733.633	28.01
733.814	28.98
733.995	29.14
734.177	28.43
734.358	28.87
734.539	29.23
734.721	28.63
734.902	29.1
735.083	29.12
735.264	28.19
735.446	27.61
735.627	27.42
735.808	25.95
735.989	26.9
736.17	27.38
736.351	26.48
736.533	26.51
736.714	27.53
736.895	26.77
737.076	27.71
737.257	28.4
737.438	28.53
737.619	29.9
737.8	28.7
737.981	28.95
738.162	27.49
738.343	28.74
738.524	28.71
738.705	28
738.886	27.53
739.067	27.12
739.247	27.81
739.428	27.8
739.609	27.1
739.79	28.92
739.971	28.14
740.151	27.27
740.332	27.13
740.513	28.17
740.694	28.61
740.874	29.29
741.055	28.93
741.236	28.48
741.417	28.63
741.597	27.64
741.778	28.65
741.958	28.58
742.139	31.26
742.32	29.51
742.5	28.49
742.681	26.62
742.861	27.32
743.042	26.67
743.222	26.82
743.403	26.93
743.583	26.53
743.764	23.94
743.944	25.43
744.124	24.95
744.305	27.05
744.485	26.62
744.666	28.48
744.846	28.3
745.026	28.15
745.207	28.77
745.387	29.42
745.567	30.9
745.747	32.39
745.928	31.36
746.108	31.24
746.288	29.61
746.468	30.15
746.648	30.19
746.829	28.43
747.009	29.33
747.189	29
747.369	28.14
747.549	27.59
747.729	26.67
747.909	26.48
748.089	26.31
748.269	28.32
748.449	27.38
748.629	25.73
748.809	27.56
748.989	27.48
749.169	27.1
749.349	27.65
749.529	27.87
749.709	28.32
749.889	28.04
750.068	27.21
750.248	26.57
750.428	26.74
750.608	29.51
750.788	28.87
750.967	27.84
751.147	28.08
751.327	28.16
751.507	26.62
751.686	26.72
751.866	27.14
752.046	29.26
752.225	29.05
752.405	29.4
752.585	28.15
752.764	27.82
752.944	28.2
753.123	28.18
753.303	27.92
753.482	28.53
753.662	27.2
753.841	27.53
754.021	26.8
754.2	26.98
754.38	26.15
754.559	26.67
754.739	26.36
754.918	27.77
755.097	27.21
755.277	26.82
755.456	27.01
755.635	27.19
755.815	27.6
755.994	27.3
756.173	27.77
756.352	29.71
756.532	28.54
756.711	28.62
756.89	26.93
757.069	26.55
757.248	27.22
757.427	27.91
757.607	30.32
757.786	30.05
757.965	30.2
758.144	28.79
758.323	26.7
758.502	26.93
758.681	26.47
758.86	28.97
759.039	28.81
759.218	27.73
759.397	26.15
759.576	25.24
759.755	24.55
759.934	25.35
760.113	25.69
760.291	26.03
760.47	27.17
760.649	27.79
760.828	25.49
761.007	26.5
761.186	27.65
761.364	28.51
761.543	29.17
761.722	29.36
761.901	28.14
762.079	29.52
762.258	29.92
762.437	29.2
762.615	28.33
762.794	29.05
762.972	28.62
763.151	28.35
763.33	27.97
763.508	27.66
763.687	28.31
763.865	29.29
764.044	29.05
764.222	29.24
764.401	28.97
764.579	30.31
764.758	31.08
764.936	31.48
765.114	31.42
765.293	32.07
765.471	32.06
765.65	31.97
765.828	29.45
766.006	29.54
766.184	29.45
766.363	30.17
766.541	29.49
766.719	28.22
766.898	27.82
767.076	27.25
767.254	27.77
767.432	29.15
767.61	28.63
767.788	29.63
767.967	28.54
768.145	27.34
768.323	26.94
768.501	28.21
768.679	26.36
768.857	26.21
769.035	25.45
769.213	25.49
769.391	22.63
769.569	21.96
769.747	24.79
769.925	26.28
770.103	28.05
770.281	27.62
770.459	25.64
770.636	28.22
770.814	29.21
770.992	30.1
771.17	27.94
771.348	29.15
771.525	29.32
771.703	27.74
771.881	25.6
772.059	24.62
772.236	26.4
772.414	26.55
772.592	26.98
772.769	27.13
772.947	29.07
773.125	32.16
773.302	31.5
773.48	31.04
773.657	29.66
773.835	32.65
774.013	33.33
774.19	32.2
774.368	31.3
774.545	30.78
774.723	31.38
774.9	31.01
775.077	31.52
775.255	31.89
775.432	31.69
775.61	35.78
775.787	34.97
775.964	36.57
776.142	35.17
776.319	35.65
776.496	37.18
776.674	35.9
776.851	36.52
777.028	34.76
777.205	35.53
777.382	36.89
777.56	35.77
777.737	34.05
777.914	33.45
778.091	34.92
778.268	37.04
778.445	35.05
778.622	32.74
778.8	31.7
778.977	32.31
779.154	31.23
779.331	30.82
779.508	29.33
779.685	27.54
779.862	28.94
780.038	29.75
780.215	29.56
780.392	29.41
780.569	31.53
780.746	30.56
780.923	31.94
781.1	31.19
781.277	31.49
781.453	29.9
781.63	33.15
781.807	30.22
781.984	29.55
782.16	29.51
782.337	32.06
782.514	31.67
782.691	33.03
782.867	29.16
783.044	28.29
783.221	26.83
783.397	26.84
783.574	25.39
783.75	25.6
783.927	25.95
784.103	24.27
784.28	20.06
784.456	23.01
784.633	24.49
784.809	26.56
784.986	29.47
785.162	29.01
785.339	30.48
785.515	30.17
785.692	30.41
785.868	26.1
786.044	26.82
786.221	29.38
786.397	29.39
786.573	26.03
786.749	24.15
786.926	23.53
787.102	26.52
787.278	23.78
787.454	26.82
787.631	26.45
787.807	30.83
787.983	31.44
788.159	32.91
788.335	30.55
788.511	33.04
788.687	34.16
788.863	35.03
789.039	34.69
789.216	35.78
789.392	33.22
789.568	31.79
789.744	29.32
789.919	29.41
790.095	28.1
790.271	27.24
790.447	25.48
790.623	26.2
790.799	22.84
790.975	20.86
791.151	21.34
791.327	20.69
791.502	22.06
791.678	21.85
791.854	19.86
792.03	21.3
792.205	22.97
792.381	24.06
792.557	22.82
792.733	25.38
792.908	28.65
793.084	34.77
793.259	38.46
793.435	40.62
793.611	41.39
793.786	44.22
793.962	40.98
794.137	38.8
794.313	35.51
794.488	35.99
794.664	34.74
794.839	31.76
795.015	27.5
795.19	23.85
795.366	21.99
795.541	23.45
795.716	21.24
795.892	22.14
796.067	23.57
796.242	24.68
796.418	24.44
796.593	26.92
796.768	29.84
796.944	29.3
797.119	31.69
797.294	30.51
797.469	28.69
797.644	27.73
797.82	30.41
797.995	33.77
798.17	35.9
798.345	35.25
798.52	34.31
798.695	33.66
798.87	35.76
799.045	32.26
799.22	32.57
799.395	33.8
799.57	33.8
799.745	31.69
799.92	29.27
800.095	29.93
800.27	28.01
800.445	24.82
800.62	24.4
800.795	21.28
800.97	22.44
801.145	24.31
801.319	23.16
801.494	26.8
801.669	29.12
801.844	28.76
802.018	30.11
802.193	34.13
802.368	35.94
802.543	33.45
802.717	30.2
802.892	31.21
803.067	29.31
803.241	32.08
803.416	26.3
803.59	22.19
803.765	25.31
803.94	22.69
804.114	23.12
804.289	23.28
804.463	22.59
804.638	26.8
804.812	25.46
804.986	28.02
805.161	25.54
805.335	30.44
805.51	31.87
805.684	25.5
805.858	23.89
806.033	23.08
806.207	22.05
806.381	24.46
806.556	25.49
806.73	32.16
806.904	33.28
807.078	32.85
807.253	26.79
807.427	31.17
807.601	36.13
807.775	35.39
807.949	33.93
808.123	34.66
808.298	31.64
808.472	27.05
808.646	25.08
808.82	28.09
808.994	33.29
809.168	41.55
809.342	38.15
809.516	38.38
809.69	39.31
809.864	41.98
810.038	38.93
810.212	44.61
810.385	47.06
810.559	43.75
810.733	36.63
810.907	31.35
811.081	26.46
811.255	26.72
811.428	22.04
811.602	26.81
811.776	25.25
811.95	28.98
812.123	21.16
812.297	23.12
812.471	27.23
812.644	33.15
812.818	33.28
812.992	40.89
813.165	42.97
813.339	47.99
813.512	42.87
813.686	47.42
813.86	51.57
814.033	55.9
814.207	50.57
814.38	49.38
814.554	44.78
814.727	43.56
814.9	37.12
815.074	33.44
815.247	31.31
815.421	32.73
815.594	26.54
815.767	19.68
815.941	20.88
816.114	24.99
816.287	23.07
816.46	25.99
816.634	30.78
816.807	33.12
816.98	35.99
817.153	35.14
817.327	35.86
817.5	39.67
817.673	38.96
817.846	37.1
818.019	39.67
818.192	40.95
818.365	36.27
818.538	40.05
818.711	39.41
818.884	36.57
819.057	38.67
819.23	39.45
819.403	32.73
819.576	30.65
819.749	32.46
819.922	29.04
820.095	24.33
820.268	26.53
820.441	26.79
820.614	31.27
820.786	30.6
820.959	31.04
821.132	30.46
821.305	30.29
821.477	30.55
821.65	29.54
821.823	29.39
821.996	30.92
822.168	29.96
822.341	29.59
822.514	27.87
822.686	28.79
822.859	28.1
823.031	27.6
823.204	27.42
823.376	27.37
823.549	27.07
823.722	27.33
823.894	27.42
824.067	28.14
824.239	26.29
824.411	26.94
824.584	25.97
824.756	26.78
824.929	27.81
825.101	29.39
825.273	28.91
825.446	28.68
825.618	28.48
825.79	27.47
825.963	26.15
826.135	28.03
826.307	27.98
826.479	28.44
826.652	27.06
826.824	25.65
826.996	25.16
827.168	25.95
827.34	27.61
827.512	28.34
827.684	29.49
827.856	31.28
828.029	31.77
828.201	30.71
828.373	31.27
828.545	30.78
828.717	32.69
828.889	33.41
829.061	32.9
829.232	33.19
829.404	31.73
829.576	32.81
829.748	32.01
829.92	30.33
830.092	29.88
830.264	28.16
830.436	31.88
830.607	28.89
830.779	29.37
830.951	31.88
831.123	28.9
831.294	28.98
831.466	26.11
831.638	28.13
831.809	32.12
831.981	32.75
832.153	34.81
832.324	31.52
832.496	32.09
832.667	32.6
832.839	35.13
833.011	35.46
833.182	33.55
833.354	30.74
833.525	31.96
833.697	32
833.868	33.12
834.039	30.07
834.211	32.4
834.382	34.76
834.554	32.71
834.725	31.13
834.896	32.03
835.068	31.16
835.239	34.97
835.41	31.35
835.581	26.91
835.753	25.28
835.924	30.82
836.095	28.2
836.266	26.38
836.438	27.1
836.609	28.27
836.78	28.42
836.951	33.26
837.122	25.19
837.293	26.97
837.464	31.89
837.635	30.65
837.806	30.42
837.977	30.98
838.148	30.93
838.319	31.29
838.49	25.47
838.661	25.22
838.832	23.07
839.003	34.53
839.174	34.57
839.345	30.92
839.516	30.26
839.687	30.23
839.857	31.1
840.028	26.24
840.199	25.98
840.37	32.21
840.54	34.13
840.711	37.78
840.882	33.53
841.053	37.28
841.223	42
841.394	42.53
841.564	32.71
841.735	37.95
841.906	44.38
842.076	48.87
842.247	49.85
842.417	46.71
842.588	42.2
842.758	43.74
842.929	41.34
843.099	39.12
843.27	47.83
843.44	62.18
843.611	54.04
843.781	57.31
843.951	57
844.122	52.55
844.292	59.33
844.462	59.9
844.633	63.71
844.803	60.4
844.973	61.18
845.144	47.74
845.314	27.58
845.484	36.33
845.654	47.69
845.824	49.8
845.995	60.27
846.165	38.87
846.335	47.59
846.505	8.76
846.675	33.46
846.845	38.61
847.015	48.78
847.185	51.68
847.355	67.94
847.525	29.81
847.695	27.01
847.865	37.78
848.035	54.17
848.205	59.59
848.375	83.62
848.545	60.34
848.715	62.72
848.884	86.19
849.054	139.89
849.224	146.82
849.394	146.29
849.564	179.83
849.733	155.75
849.903	165.7
850.073	165.61
850.243	116.05
850.412	156.81
850.582	172.38
850.752	148.07
850.921	106.04
851.091	114.43
851.26	105.83
851.43	84.93
851.599	82.15
851.769	82.66
851.939	48.79
852.108	53.04
852.278	29.64
852.447	38.71
852.616	53.39
852.786	55.04
852.955	52.06
853.125	43.79
853.294	43.23
853.463	60.54
853.633	55.53
853.802	59.09
853.971	73.74
854.141	76.85
854.31	82.48
854.479	90.78
854.648	113.25
854.818	115.24
854.987	118.31
855.156	131.07
855.325	78.54
855.494	19.21
855.663	47.43
855.832	9.62
856.001	8.91
856.171	-40.44
856.34	-54.3
856.509	-41.62
856.678	-20.93
856.847	-39.08
857.016	-3.4
857.185	13.79
857.353	8.74
857.522	-12.42
857.691	32.56
857.86	52.2
858.029	65.52
858.198	75.4
858.367	64.45
858.535	72.74
858.704	55.58
858.873	67.49
859.042	79.41
859.21	75.22
859.379	64.67
859.548	41.54
859.717	-1.12
859.885	11
860.054	6.64
860.222	12.52
860.391	-8.18
860.56	10.63
860.728	12.1
860.897	-8.21
861.065	-24.71
861.234	11.49
861.402	28.54
861.571	51.45
861.739	71.39
861.908	89.78
862.076	65.83
862.244	52.94
862.413	46.12
862.581	57.17
862.749	53.89
862.918	53.94
863.086	36.71
863.254	45.55
863.423	39.76
863.591	33.54
863.759	32.99
863.927	43.38
864.096	43.77
864.264	45.31
864.432	26.94
864.6	23.68
864.768	17.1
864.936	59.68
865.104	13.42
865.272	35.75
865.44	3.64
865.608	-58.11
865.776	179.89
865.944	-257.97
866.112	688.28
866.28	658.44
866.448	4881.16
866.616	511.91
866.784	201.27
866.952	149.52
867.12	117.46
867.288	88.87
867.455	94.45
867.623	70.3
867.791	50.53
867.959	51.1
868.127	71.72
868.294	105.29
868.462	89.56
868.63	77.98
868.797	68.25
868.965	78.79
869.133	59.32
869.3	61.6
869.468	67.76
869.636	123.76
869.803	78.23
869.971	83.15
870.138	45.58
870.306	70.16
870.473	57.81
870.641	72.46
870.808	99.45
870.975	100.25
871.143	102.26
871.31	111.17
871.478	102.33
871.645	111.6
871.812	86.69
871.98	104.8
872.147	111.66
872.314	126.14
872.482	114.03
872.649	94.31
872.816	150.8
872.983	73.51
873.15	54.12
873.318	57.86
873.485	75.83
873.652	81.04
873.819	81.77
873.986	74.98
874.153	43.26
874.32	55.95
874.487	39.09
874.654	54.47
874.821	62.76
874.988	78.17
875.155	88.71
875.322	68.75
875.489	24.22
875.656	93.94
875.823	47.49
875.99	-4.96
876.157	264.26
876.324	254.63
876.49	123.14
876.657	236.3
876.824	217.49
876.991	93.26
877.157	80.16
877.324	99.66
877.491	74.91
877.658	73.76
877.824	77.53
877.991	62.25
878.157	49.93
878.324	20.67
878.491	19.23
878.657	26.18
878.824	21.25
878.99	-15.88
879.157	-293.18
879.323	-48.81
879.49	4473.77
879.656	446.73
879.823	65.81
879.989	70.56
880.156	-25.83
880.322	-61.42
880.488	110.48
880.655	129.65
880.821	100.86
880.987	59.75
881.154	76.36
881.32	72.82
881.486	73.09
881.652	57.99
881.819	67.7
881.985	63.19
882.151	51.69
882.317	43.93
882.483	40.27
882.649	37.78
882.816	41.04
882.982	36.68
883.148	33.82
883.314	27.3
883.48	26.59
883.646	25.71
883.812	28.59
883.978	28.43
884.144	28.4
884.31	26.33
884.476	26.7
884.642	27.92
884.807	29.63
884.973	30.43
885.139	39.2
885.305	41.24
885.471	42.7
885.637	42.12
885.802	46.53
885.968	46.46
886.134	46.7
886.3	47.83
886.465	46.77
886.631	56.16
886.797	61.5
886.962	53.53
887.128	51.58
887.293	53.74
887.459	50.37
887.625	52.93
887.79	63.32
887.956	67.13
888.121	78.14
888.287	82.11
888.452	63.12
888.618	48.91
888.783	47.52
