Data from 2937892_Reflection_1.txt Node
Date: Wed Jul 15 14:02:31 EDT 2015
User: robert
Spectrometer: USB4E03001
Autoset integration time: false
Trigger mode: 4
Integration Time (sec): 1.000000E-1
Scans to average: 10
Electric dark correction enabled: true
Nonlinearity correction enabled: false
Boxcar width: 5
Stray light correction enabled: false
XAxis mode: Wavelengths
Stop averaging: false
Number of Pixels in Spectrum: 3648
>>>>>Begin Spectral Data<<<<<
177.566	269.44
177.785	53.66
178.005	727.11
178.225	-278.7
178.445	307.74
178.665	176.77
178.885	563.49
179.105	120.26
179.324	86.39
179.544	100.02
179.764	126.55
179.984	45.7
180.204	34.3
180.423	94.55
180.643	135.01
180.863	84.03
181.083	67.8
181.302	102.09
181.522	1.09
181.742	-297.85
181.961	399.44
182.181	154.61
182.401	51.8
182.621	13.28
182.84	244.9
183.06	155.23
183.279	207.07
183.499	378.77
183.719	50.13
183.938	74.09
184.158	104.85
184.377	169.75
184.597	105.77
184.816	81.53
185.036	89.38
185.256	102.05
185.475	52.09
185.695	40.71
185.914	43.22
186.134	-8.38
186.353	-36.69
186.572	-45.19
186.792	-33.63
187.011	-176.06
187.231	-134.84
187.45	-121.6
187.67	-193.4
187.889	-229.94
188.108	-129.37
188.328	-204.09
188.547	-116.56
188.766	-132.78
188.986	-254.12
189.205	-64.04
189.424	-23.57
189.644	-14.33
189.863	8.35
190.082	7.45
190.302	26.31
190.521	9.2
190.74	25.18
190.959	33.19
191.178	31.41
191.398	49.73
191.617	35.6
191.836	13.22
192.055	54.6
192.274	14.23
192.494	82.47
192.713	49.27
192.932	30.71
193.151	-38.14
193.37	-23.39
193.589	6.7
193.808	-7.01
194.027	-4.26
194.246	-27.72
194.465	-18.34
194.685	20.52
194.904	15.51
195.123	-22.07
195.342	31.69
195.561	96.51
195.78	109.22
195.999	58.53
196.218	13.08
196.436	29.61
196.655	50.04
196.874	40.29
197.093	42.51
197.312	50.3
197.531	63.64
197.75	24.48
197.969	42.39
198.188	61.08
198.407	36.02
198.625	73.81
198.844	60.52
199.063	17.88
199.282	-22.17
199.501	-27.62
199.719	-56.79
199.938	-61.22
200.157	-22.67
200.376	-2.9
200.594	-5.57
200.813	-9.19
201.032	-55.58
201.251	-27.79
201.469	15.03
201.688	37.67
201.907	54.86
202.125	59.48
202.344	84.92
202.563	69.54
202.781	52.2
203	60.86
203.218	56.17
203.437	43.72
203.656	43.93
203.874	19.99
204.093	-46.67
204.311	-146.7
204.53	-179.23
204.748	-100.11
204.967	-304.47
205.185	-198.97
205.404	831.68
205.622	1171.29
205.841	284.04
206.059	536.29
206.278	-12323.26
206.496	-336.11
206.715	535.81
206.933	-603.32
207.151	4971.94
207.37	-466.23
207.588	4344.25
207.806	-155.78
208.025	-56.19
208.243	5.49
208.461	31.14
208.68	-81.62
208.898	-32.32
209.116	18.2
209.335	43.76
209.553	30.47
209.771	53.53
209.989	52.17
210.208	98.17
210.426	120.32
210.644	93.21
210.862	76.59
211.081	88.54
211.299	51.5
211.517	42.9
211.735	37.88
211.953	39.64
212.171	52.43
212.39	41.66
212.608	5.71
212.826	-1.94
213.044	13.23
213.262	-4.28
213.48	1.53
213.698	15.91
213.916	13.03
214.134	13.15
214.352	31.98
214.57	15.03
214.788	15.66
215.006	-11.37
215.224	13.13
215.442	14.7
215.66	55.42
215.878	64.55
216.096	44.88
216.314	48.41
216.532	28.78
216.75	35.78
216.968	52.99
217.185	64.78
217.403	72.16
217.621	68.58
217.839	58.04
218.057	19.32
218.275	33.24
218.492	41.42
218.71	58.81
218.928	53.1
219.146	41.5
219.363	25.31
219.581	23.82
219.799	16.88
220.017	14.5
220.234	12.79
220.452	17.42
220.67	15.75
220.887	36.72
221.105	32.72
221.323	39.89
221.54	25.48
221.758	14.87
221.976	12.21
222.193	19.59
222.411	25.07
222.629	29.33
222.846	45.5
223.064	46.02
223.281	26.1
223.499	21.56
223.716	20.89
223.934	35.59
224.151	29.65
224.369	38.38
224.586	46.1
224.804	41.03
225.021	30.1
225.239	28.96
225.456	15.64
225.674	21.29
225.891	13.79
226.108	4.89
226.326	-1.05
226.543	-5.41
226.76	-4.54
226.978	-7.03
227.195	-6.75
227.413	-6.59
227.63	-6.45
227.847	-4.91
228.064	-0.69
228.282	1.03
228.499	2.84
228.716	-0.42
228.934	2.26
229.151	1.92
229.368	3.63
229.585	4.97
229.802	9.04
230.02	8.97
230.237	7.38
230.454	1.99
230.671	8.58
230.888	11.19
231.105	16.03
231.323	18.36
231.54	24.46
231.757	23.21
231.974	23.3
232.191	20.68
232.408	25.37
232.625	27.47
232.842	31.45
233.059	20.77
233.276	16.72
233.493	14.8
233.71	16.85
233.927	2.4
234.144	0.82
234.361	4.18
234.578	7.17
234.795	4.01
235.012	9.6
235.229	9.85
235.446	12.76
235.663	17.81
235.879	16.37
236.096	8.59
236.313	17.94
236.53	19.49
236.747	13.34
236.964	11.43
237.181	10.8
237.397	7.65
237.614	9.98
237.831	11.31
238.048	7.65
238.264	14.77
238.481	16.32
238.698	19.85
238.915	20.69
239.131	22.22
239.348	21.73
239.565	22.98
239.781	24.55
239.998	25.03
240.215	20.52
240.431	18.78
240.648	13.22
240.865	13.77
241.081	12.39
241.298	12.12
241.514	14.3
241.731	13.29
241.947	12.3
242.164	9.98
242.38	8.96
242.597	11.61
242.814	11.92
243.03	13.01
243.246	12.89
243.463	12.02
243.679	13.64
243.896	12.96
244.112	13.65
244.329	15.09
244.545	18.37
244.762	18.98
244.978	18.7
245.194	19.8
245.411	18.75
245.627	20.27
245.843	22.68
246.06	19.62
246.276	19.06
246.492	18.75
246.709	18.2
246.925	16.79
247.141	16.01
247.357	15.41
247.574	14.26
247.79	14.74
248.006	13.37
248.222	12.05
248.439	12.17
248.655	11.5
248.871	10.75
249.087	9.55
249.303	9.94
249.519	10.29
249.736	9.72
249.952	11.55
250.168	12.91
250.384	15.6
250.6	16.1
250.816	18.33
251.032	18.19
251.248	17.82
251.464	17.63
251.68	15.12
251.896	13.73
252.112	14.24
252.328	12.88
252.544	11.41
252.76	10.87
252.976	8.48
253.192	7.39
253.408	8.16
253.624	8.38
253.84	6.26
254.056	8.9
254.272	11.41
254.487	13.27
254.703	13.36
254.919	10.76
255.135	7.99
255.351	7.97
255.567	6.21
255.782	7.25
255.998	6.31
256.214	11.85
256.43	10.22
256.646	9.04
256.861	11.15
257.077	10.23
257.293	13.41
257.508	15.8
257.724	16.85
257.94	16.76
258.155	15.66
258.371	14.74
258.587	13.71
258.802	13.8
259.018	12.74
259.234	10.75
259.449	11.79
259.665	11.25
259.88	10.59
260.096	10.36
260.312	10.53
260.527	9.74
260.743	10.57
260.958	10.12
261.174	10.13
261.389	10.53
261.605	11.33
261.82	10.59
262.036	12.2
262.251	11.06
262.466	11.67
262.682	12.39
262.897	13.2
263.113	13.91
263.328	11.77
263.543	11.07
263.759	12.14
263.974	10.94
264.189	10.55
264.405	5.35
264.62	8.19
264.835	8.77
265.051	5.6
265.266	5.78
265.481	4.85
265.696	8.14
265.912	7.45
266.127	6.41
266.342	5.04
266.557	7.64
266.773	6.97
266.988	7.17
267.203	7.7
267.418	9.53
267.633	9.31
267.848	9.15
268.064	9.72
268.279	10.34
268.494	9.22
268.709	9.46
268.924	7.55
269.139	9.5
269.354	9.75
269.569	6.67
269.784	6.57
269.999	9.72
270.214	8.93
270.429	8.85
270.644	7.64
270.859	8.23
271.074	8.09
271.289	10.04
271.504	9.39
271.719	9.21
271.934	10.83
272.149	9.58
272.363	7.53
272.578	9.3
272.793	10.62
273.008	11.31
273.223	11.75
273.438	11.91
273.653	11.14
273.867	11.76
274.082	11.37
274.297	10.98
274.512	10.67
274.726	12.2
274.941	10.66
275.156	8.12
275.371	7.62
275.585	6.82
275.8	9.1
276.015	8.49
276.229	7.93
276.444	7.75
276.659	7.48
276.873	7.5
277.088	7
277.302	5.51
277.517	7.6
277.732	6.86
277.946	9.06
278.161	8.26
278.375	8.56
278.59	8.26
278.804	8.4
279.019	9.84
279.233	11.27
279.448	10.48
279.662	10.27
279.877	7.71
280.091	7.1
280.306	5.53
280.52	4.57
280.735	6.3
280.949	7.98
281.163	7.98
281.378	7.68
281.592	7.02
281.806	7.49
282.021	8.58
282.235	11.31
282.449	14.03
282.664	14
282.878	15.54
283.092	14.92
283.307	14.68
283.521	14.7
283.735	14.69
283.949	14.49
284.164	13.91
284.378	13.41
284.592	11.54
284.806	10.91
285.02	11.71
285.234	10.7
285.449	9.58
285.663	9.03
285.877	9.58
286.091	9.21
286.305	10.81
286.519	10.39
286.733	11.71
286.947	11.45
287.161	10.71
287.375	10.14
287.589	10.28
287.803	10.61
288.017	10.55
288.231	10.31
288.445	10.15
288.659	8.36
288.873	10.13
289.087	9.46
289.301	10.76
289.515	11.67
289.729	11.29
289.943	11.09
290.157	11.2
290.371	12.46
290.584	12.2
290.798	12.73
291.012	13.63
291.226	13.5
291.44	13.48
291.654	12.96
291.867	11.75
292.081	11.53
292.295	12.64
292.509	13.72
292.722	13.2
292.936	14.55
293.15	14.71
293.364	15.57
293.577	13.71
293.791	12.58
294.005	12.16
294.218	13.51
294.432	12.45
294.645	10.09
294.859	8.69
295.073	7.89
295.286	7.4
295.5	7.24
295.713	7.43
295.927	7.32
296.14	8.79
296.354	9.8
296.568	9.82
296.781	11.31
296.994	12.72
297.208	13.01
297.421	12.89
297.635	12.39
297.848	13.06
298.062	12.1
298.275	13.65
298.489	14.2
298.702	13.09
298.915	12.94
299.129	12.86
299.342	12.69
299.555	12.19
299.769	11.97
299.982	12.79
300.195	13.15
300.409	13.45
300.622	12.65
300.835	12.73
301.048	13.06
301.262	14.97
301.475	15.45
301.688	14.59
301.901	15.17
302.115	16.24
302.328	15.99
302.541	15.74
302.754	16.23
302.967	16.52
303.18	16.17
303.393	15.68
303.607	14.44
303.82	14.82
304.033	16.03
304.246	15.93
304.459	15.99
304.672	15.33
304.885	15.31
305.098	14.6
305.311	14.78
305.524	14.7
305.737	14.64
305.95	15.31
306.163	13.65
306.376	14.24
306.589	14.62
306.802	14.08
307.015	14.97
307.228	14.59
307.44	15.84
307.653	15.98
307.866	15.83
308.079	16.83
308.292	15.75
308.505	16.15
308.718	14.2
308.93	13.99
309.143	13.87
309.356	13.6
309.569	13.97
309.781	13.69
309.994	13.44
310.207	12.76
310.42	13.12
310.632	13.51
310.845	12.79
311.058	13.75
311.27	14.71
311.483	14.39
311.696	15.65
311.908	15.17
312.121	15.08
312.333	15.15
312.546	15.1
312.759	15.66
312.971	15.26
313.184	15.71
313.396	16.01
313.609	16.18
313.821	18.4
314.034	16.15
314.246	16.08
314.459	16.02
314.671	14.68
314.884	15.43
315.096	14.95
315.309	13.86
315.521	15.13
315.733	13.81
315.946	12.17
316.158	9.79
316.371	11.59
316.583	12.55
316.795	13.5
317.008	16.09
317.22	15.81
317.432	15.28
317.644	16.37
317.857	16.27
318.069	17.94
318.281	19.32
318.494	21.99
318.706	21.74
318.918	20.67
319.13	19.18
319.342	17.7
319.555	17.94
319.767	18.46
319.979	17.29
320.191	17
320.403	15.57
320.615	15.19
320.827	13.23
321.039	13.1
321.252	13.86
321.464	14.12
321.676	14.52
321.888	13.5
322.1	11.03
322.312	11.68
322.524	11.99
322.736	11.82
322.948	12.34
323.16	13.47
323.372	12.59
323.584	11.98
323.796	12.31
324.007	11.53
324.219	11.08
324.431	12.81
324.643	12.84
324.855	12.57
325.067	12.58
325.279	12.17
325.491	11.32
325.702	12.27
325.914	12.98
326.126	13.85
326.338	14.51
326.55	15.36
326.761	15.82
326.973	16.32
327.185	16.82
327.396	17.82
327.608	17.78
327.82	16.89
328.032	16.04
328.243	17.6
328.455	16.5
328.666	15.96
328.878	17.32
329.09	15.27
329.301	13.87
329.513	13.83
329.725	13.73
329.936	11.12
330.148	13.52
330.359	16.18
330.571	15.11
330.782	17.33
330.994	18.45
331.205	15.81
331.417	16.73
331.628	17.77
331.84	16.25
332.051	16.54
332.262	19.71
332.474	18.21
332.685	16.12
332.897	14.83
333.108	12.49
333.319	11.93
333.531	13.43
333.742	14.45
333.953	15.71
334.165	15.49
334.376	13.47
334.587	12.11
334.799	11.82
335.01	11.25
335.221	11.17
335.432	12.03
335.644	12.55
335.855	11.57
336.066	11.75
336.277	9.95
336.488	10.75
336.7	12.46
336.911	12.5
337.122	12.11
337.333	12.2
337.544	12.44
337.755	11.67
337.966	12.06
338.177	13.05
338.388	12.16
338.599	13.54
338.811	13.93
339.022	13.64
339.233	13.85
339.444	15.04
339.655	15.78
339.866	15.39
340.076	15.75
340.287	15.36
340.498	15.01
340.709	15.72
340.92	14.07
341.131	14.04
341.342	14.74
341.553	14.83
341.764	13.81
341.975	13.39
342.185	13.35
342.396	13.96
342.607	13.24
342.818	13.5
343.029	13.65
343.239	14.97
343.45	14.28
343.661	13.06
343.872	12.79
344.082	13.69
344.293	14.83
344.504	15.96
344.714	15.61
344.925	15.37
345.136	15.03
345.346	13.61
345.557	13.65
345.768	13.95
345.978	15.38
346.189	15.78
346.399	14.15
346.61	13.26
346.821	12.7
347.031	12.32
347.242	13.88
347.452	13.93
347.663	16.64
347.873	15.7
348.084	15.24
348.294	14.65
348.504	15.87
348.715	16.79
348.925	17.25
349.136	16.78
349.346	17.68
349.557	16.27
349.767	16.62
349.977	14.47
350.188	15.28
350.398	14.94
350.608	14.79
350.819	13.06
351.029	12.59
351.239	12.69
351.449	12.53
351.66	11.69
351.87	12.49
352.08	12.73
352.29	13.39
352.501	13.58
352.711	13.99
352.921	13.96
353.131	14.85
353.341	15.79
353.552	14.49
353.762	14.53
353.972	14.52
354.182	13.49
354.392	14.16
354.602	14.01
354.812	13.59
355.022	13.88
355.232	13.93
355.442	13.78
355.652	13.94
355.862	13.94
356.072	13.84
356.282	13.11
356.492	13.03
356.702	12.71
356.912	12.52
357.122	12.23
357.332	12.29
357.542	12.15
357.752	10.85
357.962	10.9
358.171	11.28
358.381	11.05
358.591	11.57
358.801	12.41
359.011	11.97
359.221	11.81
359.43	12.97
359.64	13.29
359.85	13.26
360.06	14.21
360.269	14.07
360.479	14.39
360.689	14.75
360.899	14.27
361.108	14.23
361.318	14.63
361.528	15.28
361.737	14.44
361.947	13.99
362.156	14.46
362.366	13.97
362.576	13.84
362.785	13.35
362.995	13.55
363.204	14.2
363.414	13.79
363.623	13.03
363.833	12.81
364.042	12.7
364.252	12.6
364.461	12.84
364.671	13.68
364.88	12.73
365.09	12.11
365.299	11.64
365.509	12.27
365.718	12.47
365.927	12.6
366.137	11.49
366.346	10.77
366.555	10.21
366.765	9.22
366.974	8.61
367.183	8.7
367.393	10.17
367.602	10.63
367.811	9.76
368.021	10.3
368.23	10.39
368.439	11.09
368.648	11.54
368.857	11.82
369.067	11.69
369.276	11.74
369.485	12.56
369.694	12.79
369.903	12.54
370.112	13.05
370.321	11.38
370.531	10.71
370.74	10.67
370.949	10.55
371.158	10.58
371.367	10.49
371.576	10.65
371.785	11.34
371.994	10.21
372.203	9.57
372.412	8.91
372.621	10.09
372.83	10.66
373.039	10.58
373.248	11
373.457	11.26
373.666	11.57
373.874	10.45
374.083	9.53
374.292	9.82
374.501	10.22
374.71	10.47
374.919	10.37
375.128	10.32
375.336	9.89
375.545	9.96
375.754	9.47
375.963	9.15
376.171	9.61
376.38	9.48
376.589	9.54
376.798	10.04
377.006	9.85
377.215	10.01
377.424	9.48
377.632	10.23
377.841	9.66
378.05	9.6
378.258	9.59
378.467	10
378.675	9.9
378.884	10.13
379.093	10.29
379.301	10.26
379.51	9.86
379.718	10.46
379.927	10.59
380.135	10.41
380.344	10.68
380.552	10.82
380.761	10.68
380.969	10.76
381.177	10.27
381.386	9.52
381.594	9.53
381.803	9.3
382.011	9.04
382.219	8.4
382.428	9.14
382.636	8.82
382.845	8.71
383.053	8.89
383.261	9.1
383.469	9.13
383.678	8.96
383.886	8.43
384.094	8.42
384.302	7.52
384.511	7.27
384.719	7.11
384.927	7.45
385.135	6.91
385.343	6.16
385.552	5.84
385.76	6
385.968	6.05
386.176	6.64
386.384	6.71
386.592	7.58
386.8	7.91
387.008	7.81
387.216	7.61
387.424	7.97
387.633	8.37
387.841	8.22
388.049	7.94
388.257	7.78
388.465	7.14
388.672	7.15
388.88	6.79
389.088	6.54
389.296	6.52
389.504	6.42
389.712	6.24
389.92	6.15
390.128	6.27
390.336	6.57
390.544	6.44
390.751	6.69
390.959	6.76
391.167	6.76
391.375	7.13
391.583	6.84
391.79	7.35
391.998	7.72
392.206	7.57
392.414	7.08
392.621	6.64
392.829	6.99
393.037	7.1
393.244	7.13
393.452	7.27
393.66	7.05
393.867	7.32
394.075	6.81
394.283	6.52
394.49	6.78
394.698	6.99
394.905	7.21
395.113	6.87
395.32	7
395.528	6.65
395.735	6.69
395.943	6.59
396.15	6.53
396.358	6.34
396.565	6.41
396.773	6.21
396.98	6.61
397.188	6.54
397.395	6.51
397.602	6.2
397.81	6.45
398.017	6.56
398.225	6.88
398.432	6.95
398.639	7.17
398.847	7.15
399.054	7.24
399.261	7.16
399.468	7.08
399.676	7.2
399.883	7.14
400.09	7.04
400.297	6.76
400.505	6.22
400.712	5.68
400.919	5.63
401.126	5.65
401.333	5.48
401.54	4.96
401.748	4.92
401.955	4.51
402.162	4.54
402.369	4.66
402.576	4.82
402.783	4.99
402.99	5.36
403.197	5.25
403.404	5.06
403.611	4.9
403.818	5.2
404.025	5.61
404.232	5.91
404.439	6.03
404.646	5.78
404.853	5.38
405.06	5.34
405.267	5.03
405.474	4.97
405.681	4.95
405.887	5
406.094	5.03
406.301	4.49
406.508	4.46
406.715	4.46
406.922	4.24
407.128	4.32
407.335	4.47
407.542	4.7
407.749	4.57
407.955	4.48
408.162	4.34
408.369	4.11
408.575	4.44
408.782	4.24
408.989	3.89
409.195	3.7
409.402	3.82
409.609	3.68
409.815	3.88
410.022	3.88
410.228	3.93
410.435	4.19
410.642	4.32
410.848	3.87
411.055	3.86
411.261	3.91
411.468	4.35
411.674	4.21
411.881	4.11
412.087	4.02
412.294	4.36
412.5	4.39
412.706	4.24
412.913	4.13
413.119	4.28
413.326	4.41
413.532	4.58
413.738	4.63
413.945	4.44
414.151	4.68
414.357	4.78
414.564	4.67
414.77	4.68
414.976	4.68
415.182	4.83
415.389	4.75
415.595	4.7
415.801	4.39
416.007	4.2
416.214	4.37
416.42	4.32
416.626	4.34
416.832	4.5
417.038	4.5
417.244	4.68
417.45	4.54
417.657	4.83
417.863	4.91
418.069	5.14
418.275	5.32
418.481	5.3
418.687	5.24
418.893	5.09
419.099	5.04
419.305	5.06
419.511	5.02
419.717	5.14
419.923	4.99
420.129	4.94
420.335	4.89
420.541	4.87
420.746	4.94
420.952	4.94
421.158	4.85
421.364	4.79
421.57	4.75
421.776	4.63
421.982	4.54
422.187	4.52
422.393	4.69
422.599	4.76
422.805	4.78
423.01	4.67
423.216	4.71
423.422	4.83
423.628	4.85
423.833	4.89
424.039	4.97
424.245	5
424.45	4.97
424.656	4.86
424.862	4.69
425.067	4.61
425.273	4.7
425.478	4.55
425.684	4.52
425.889	4.51
426.095	4.48
426.301	4.39
426.506	4.48
426.712	4.55
426.917	4.43
427.123	4.53
427.328	4.44
427.533	4.41
427.739	4.36
427.944	4.29
428.15	4.27
428.355	4.29
428.561	3.99
428.766	3.83
428.971	3.92
429.177	4.06
429.382	4.07
429.587	4.07
429.793	4.05
429.998	4.2
430.203	4.17
430.408	4.32
430.614	4.29
430.819	4.4
431.024	4.26
431.229	4.13
431.434	4.31
431.64	4.26
431.845	4.42
432.05	4.39
432.255	4.36
432.46	4.5
432.665	4.32
432.87	4.36
433.076	4.51
433.281	4.57
433.486	4.44
433.691	4.23
433.896	4.19
434.101	4.16
434.306	4.1
434.511	4.14
434.716	4.08
434.921	3.94
435.126	3.81
435.331	3.99
435.535	4.04
435.74	4.29
435.945	4.03
436.15	4.09
436.355	4.3
436.56	4.41
436.765	4.19
436.97	4.09
437.174	4.39
437.379	4.49
437.584	4.5
437.789	4.69
437.993	4.61
438.198	4.71
438.403	4.9
438.608	4.71
438.812	4.67
439.017	4.73
439.222	4.87
439.426	4.69
439.631	4.69
439.836	4.44
440.04	4.24
440.245	4.23
440.45	4.35
440.654	4.11
440.859	4.14
441.063	4.13
441.268	4.22
441.472	4.12
441.677	4.17
441.881	3.99
442.086	4.01
442.29	4.11
442.495	4.05
442.699	4.03
442.904	4.1
443.108	4.03
443.312	3.91
443.517	3.73
443.721	3.72
443.925	3.9
444.13	4.09
444.334	4.14
444.538	4.26
444.743	4.25
444.947	4.33
445.151	4.38
445.356	4.42
445.56	4.43
445.764	4.48
445.968	4.51
446.173	4.41
446.377	4.28
446.581	4.34
446.785	4.23
446.989	4.23
447.193	4.14
447.398	4.12
447.602	4.06
447.806	4.21
448.01	4.26
448.214	4.2
448.418	4.05
448.622	4.12
448.826	3.97
449.03	3.87
449.234	3.9
449.438	3.96
449.642	3.89
449.846	3.99
450.05	3.8
450.254	3.83
450.458	3.69
450.662	3.84
450.866	3.9
451.069	4.05
451.273	4.04
451.477	4.15
451.681	4.24
451.885	4.24
452.089	4.13
452.292	4.22
452.496	4.23
452.7	4.35
452.904	3.98
453.107	3.85
453.311	3.75
453.515	3.8
453.719	3.81
453.922	3.69
454.126	3.69
454.33	3.63
454.533	3.58
454.737	3.42
454.94	3.55
455.144	3.93
455.348	4.04
455.551	3.99
455.755	4.15
455.958	4.02
456.162	3.92
456.365	4.01
456.569	3.95
456.772	3.98
456.976	4.07
457.179	3.95
457.383	3.82
457.586	3.71
457.79	3.67
457.993	3.43
458.196	3.48
458.4	3.53
458.603	3.35
458.807	3.56
459.01	3.68
459.213	3.64
459.417	3.65
459.62	3.72
459.823	3.92
460.026	3.91
460.23	3.98
460.433	3.83
460.636	3.89
460.839	4.09
461.042	4.07
461.246	3.87
461.449	3.97
461.652	4.02
461.855	4.13
462.058	3.94
462.261	4.1
462.464	4.24
462.668	4.35
462.871	4.35
463.074	4.07
463.277	4.01
463.48	4.05
463.683	4.12
463.886	4.06
464.089	3.84
464.292	3.78
464.495	3.96
464.698	3.72
464.901	3.82
465.104	3.86
465.306	3.84
465.509	3.79
465.712	3.81
465.915	3.71
466.118	3.68
466.321	3.67
466.524	3.7
466.726	3.44
466.929	3.54
467.132	3.51
467.335	3.63
467.538	3.76
467.74	3.72
467.943	3.86
468.146	4
468.348	3.75
468.551	3.79
468.754	3.86
468.956	3.75
469.159	3.78
469.362	3.74
469.564	3.47
469.767	3.56
469.969	3.67
470.172	3.49
470.375	3.21
470.577	3.51
470.78	3.59
470.982	3.48
471.185	3.79
471.387	3.64
471.59	3.74
471.792	3.86
471.995	3.75
472.197	3.75
472.399	3.71
472.602	3.88
472.804	3.74
473.007	3.79
473.209	3.64
473.411	3.47
473.614	3.41
473.816	3.32
474.018	3.23
474.22	3.09
474.423	3.17
474.625	3.13
474.827	3.08
475.03	3.05
475.232	3
475.434	3.16
475.636	3
475.838	3.05
476.04	3.02
476.243	3.14
476.445	3.45
476.647	3.4
476.849	3.6
477.051	3.5
477.253	3.6
477.455	3.52
477.657	3.61
477.859	3.88
478.061	3.9
478.263	3.96
478.465	3.95
478.667	3.84
478.869	3.87
479.071	3.78
479.273	3.82
479.475	3.94
479.677	4.03
479.879	4.13
480.081	4.12
480.283	4.16
480.485	4.11
480.686	3.97
480.888	3.9
481.09	3.7
481.292	3.81
481.494	3.83
481.695	3.76
481.897	3.76
482.099	3.73
482.301	3.76
482.502	3.82
482.704	3.86
482.906	3.84
483.107	3.91
483.309	3.99
483.511	3.95
483.712	3.92
483.914	3.93
484.115	3.92
484.317	3.91
484.519	3.87
484.72	3.81
484.922	3.81
485.123	3.86
485.325	3.75
485.526	3.69
485.728	3.63
485.929	3.57
486.131	3.57
486.332	3.47
486.534	3.4
486.735	3.42
486.936	3.48
487.138	3.48
487.339	3.42
487.541	3.44
487.742	3.47
487.943	3.52
488.144	3.6
488.346	3.6
488.547	3.73
488.748	3.77
488.95	3.73
489.151	3.7
489.352	3.66
489.553	3.81
489.755	3.9
489.956	3.88
490.157	3.86
490.358	3.92
490.559	3.98
490.76	3.92
490.961	3.86
491.163	3.89
491.364	3.86
491.565	3.9
491.766	3.8
491.967	3.82
492.168	3.86
492.369	3.86
492.57	3.86
492.771	3.83
492.972	3.78
493.173	3.88
493.374	3.82
493.575	3.8
493.776	3.8
493.976	3.71
494.177	3.71
494.378	3.64
494.579	3.7
494.78	3.47
494.981	3.33
495.182	3.42
495.382	3.34
495.583	3.5
495.784	3.64
495.985	3.55
496.185	3.63
496.386	3.64
496.587	3.67
496.788	3.76
496.988	3.82
497.189	3.85
497.39	3.71
497.59	3.94
497.791	3.83
497.992	3.65
498.192	3.54
498.393	3.63
498.593	3.63
498.794	3.54
498.994	3.54
499.195	3.61
499.395	3.69
499.596	3.8
499.796	3.55
499.997	3.62
500.197	3.75
500.398	4.01
500.598	3.92
500.799	3.96
500.999	4.02
501.199	3.77
501.4	3.77
501.6	3.65
501.801	3.7
502.001	3.78
502.201	3.8
502.402	3.8
502.602	3.73
502.802	3.71
503.002	3.71
503.203	3.67
503.403	3.67
503.603	3.91
503.803	3.98
504.003	3.96
504.204	3.77
504.404	3.88
504.604	3.95
504.804	3.88
505.004	3.96
505.204	3.9
505.404	4.1
505.604	4.19
505.804	3.88
506.005	3.71
506.205	3.72
506.405	3.73
506.605	3.71
506.805	3.54
507.005	3.74
507.204	3.79
507.404	3.67
507.604	3.62
507.804	3.74
508.004	3.63
508.204	3.77
508.404	3.66
508.604	3.75
508.804	3.62
509.003	3.74
509.203	3.65
509.403	3.62
509.603	3.8
509.803	3.87
510.002	3.85
510.202	4.01
510.402	4.12
510.602	4.14
510.801	4.13
511.001	4.11
511.201	4.27
511.4	4.36
511.6	4.23
511.8	4.15
511.999	4.04
512.199	4.03
512.398	3.99
512.598	3.95
512.797	4.02
512.997	4.08
513.197	4.11
513.396	3.97
513.596	3.77
513.795	3.84
513.994	3.92
514.194	4.01
514.393	4.03
514.593	4.05
514.792	4.05
514.992	4.03
515.191	4.09
515.39	4.22
515.59	4.23
515.789	4.31
515.988	4.32
516.188	4.37
516.387	4.36
516.586	4.29
516.786	4.32
516.985	4.36
517.184	4.35
517.383	4.29
517.582	4.17
517.782	4.21
517.981	4.22
518.18	4.25
518.379	4.06
518.578	4.03
518.777	4.12
518.976	4.22
519.176	4.25
519.375	4.3
519.574	4.26
519.773	4.25
519.972	4.23
520.171	4.36
520.37	4.33
520.569	4.42
520.768	4.35
520.967	4.4
521.166	4.19
521.365	4.16
521.564	4.11
521.762	4.2
521.961	4.29
522.16	4.32
522.359	4.25
522.558	4.37
522.757	4.42
522.956	4.51
523.154	4.37
523.353	4.59
523.552	4.54
523.751	4.58
523.949	4.59
524.148	4.55
524.347	4.49
524.546	4.52
524.744	4.39
524.943	4.47
525.142	4.56
525.34	4.58
525.539	4.51
525.737	4.44
525.936	4.44
526.135	4.47
526.333	4.5
526.532	4.45
526.73	4.41
526.929	4.46
527.127	4.41
527.326	4.38
527.524	4.46
527.723	4.52
527.921	4.64
528.12	4.63
528.318	4.62
528.516	4.66
528.715	4.73
528.913	4.7
529.112	4.69
529.31	4.7
529.508	4.7
529.707	4.68
529.905	4.74
530.103	4.69
530.301	4.74
530.5	4.78
530.698	4.75
530.896	4.71
531.094	4.8
531.293	4.97
531.491	4.96
531.689	4.99
531.887	5.01
532.085	4.87
532.283	4.95
532.481	4.88
532.68	4.88
532.878	5.01
533.076	5.12
533.274	5.1
533.472	5.04
533.67	5.01
533.868	5.09
534.066	5.12
534.264	5.14
534.462	5.01
534.66	5.09
534.858	5.11
535.056	5.06
535.253	5.01
535.451	5.08
535.649	5.07
535.847	5.27
536.045	5.22
536.243	5.31
536.441	5.39
536.638	5.45
536.836	5.61
537.034	5.67
537.232	5.64
537.43	5.7
537.627	5.64
537.825	5.61
538.023	5.74
538.22	5.75
538.418	5.73
538.616	5.72
538.813	5.86
539.011	5.7
539.209	5.64
539.406	5.59
539.604	5.64
539.801	5.72
539.999	5.86
540.196	5.74
540.394	5.87
540.591	5.93
540.789	6.02
540.986	6.02
541.184	6.04
541.381	6.13
541.579	6.24
541.776	6.22
541.974	6.24
542.171	6.19
542.368	6.19
542.566	6.14
542.763	6.12
542.96	6.17
543.158	6.18
543.355	6.22
543.552	6.15
543.75	6.01
543.947	6.02
544.144	6.17
544.341	6.21
544.539	6.39
544.736	6.5
544.933	6.47
545.13	6.32
545.327	6.33
545.524	6.38
545.722	6.48
545.919	6.63
546.116	6.8
546.313	6.51
546.51	6.52
546.707	6.35
546.904	6.41
547.101	6.44
547.298	6.63
547.495	6.85
547.692	6.88
547.889	7.01
548.086	7.12
548.283	6.94
548.48	7.19
548.677	7.35
548.874	7.52
549.07	7.47
549.267	7.62
549.464	7.64
549.661	7.52
549.858	7.53
550.055	7.29
550.251	7.29
550.448	7.56
550.645	7.52
550.842	7.73
551.038	7.55
551.235	7.36
551.432	7.32
551.628	7.36
551.825	7.51
552.022	7.55
552.218	7.73
552.415	7.79
552.612	7.83
552.808	8.02
553.005	7.7
553.201	7.97
553.398	8.25
553.594	8.22
553.791	8.2
553.987	8.21
554.184	8.24
554.38	8.27
554.577	8.45
554.773	8.39
554.97	8.4
555.166	8.76
555.362	8.74
555.559	8.82
555.755	8.94
555.952	9
556.148	9.26
556.344	9.52
556.541	9.78
556.737	9.76
556.933	9.8
557.129	9.67
557.326	9.58
557.522	9.59
557.718	9.72
557.914	9.87
558.11	9.87
558.307	9.8
558.503	9.74
558.699	9.53
558.895	9.48
559.091	9.4
559.287	9.59
559.483	9.64
559.679	9.79
559.876	9.9
560.072	10
560.268	10.04
560.464	9.95
560.66	9.96
560.856	9.97
561.052	10.01
561.247	10.3
561.443	10.37
561.639	10.43
561.835	10.31
562.031	10.09
562.227	10.29
562.423	10.36
562.619	10.37
562.815	10.51
563.01	10.69
563.206	10.83
563.402	11.06
563.598	11.05
563.793	11
563.989	11.18
564.185	11.21
564.381	11
564.576	11.24
564.772	11.4
564.968	11.57
565.163	11.81
565.359	11.95
565.555	11.87
565.75	12.01
565.946	12.17
566.141	12.29
566.337	12.51
566.532	12.52
566.728	12.41
566.923	12.41
567.119	12.32
567.314	12.12
567.51	11.9
567.705	12.04
567.901	12.05
568.096	12.08
568.292	12.1
568.487	11.91
568.682	12.11
568.878	12.17
569.073	12.21
569.268	12.3
569.464	12.57
569.659	12.86
569.854	12.94
570.05	13.01
570.245	13.07
570.44	13.11
570.635	13.42
570.831	13.52
571.026	13.61
571.221	13.77
571.416	13.8
571.611	13.78
571.806	13.62
572.002	13.58
572.197	13.6
572.392	13.69
572.587	13.79
572.782	13.88
572.977	13.96
573.172	14.03
573.367	14.03
573.562	14.14
573.757	14.04
573.952	14.43
574.147	14.53
574.342	14.58
574.537	14.55
574.732	14.52
574.927	14.53
575.121	14.47
575.316	14.46
575.511	14.64
575.706	14.72
575.901	14.8
576.096	14.7
576.29	14.65
576.485	14.8
576.68	14.95
576.875	15.19
577.069	15.28
577.264	15.34
577.459	15.24
577.654	15.1
577.848	15.05
578.043	15.28
578.238	15.34
578.432	15.16
578.627	15.21
578.821	15.22
579.016	15.11
579.21	15.03
579.405	15.12
579.6	15.33
579.794	15.49
579.989	15.56
580.183	15.4
580.378	15.38
580.572	15.79
580.766	15.53
580.961	15.51
581.155	15.34
581.35	15.41
581.544	15.29
581.738	15.24
581.933	15.22
582.127	15.34
582.321	15.51
582.516	15.65
582.71	15.69
582.904	15.82
583.099	15.89
583.293	16.22
583.487	16.2
583.681	16.19
583.875	16.54
584.07	16.48
584.264	16.19
584.458	16.01
584.652	15.92
584.846	15.69
585.04	15.67
585.234	15.38
585.428	15.31
585.623	15.2
585.817	15.41
586.011	15.3
586.205	15.34
586.399	15.26
586.593	15.41
586.787	15.24
586.981	15.43
587.174	15.29
587.368	15.63
587.562	15.69
587.756	15.93
587.95	15.67
588.144	15.48
588.338	15.64
588.532	15.78
588.725	15.41
588.919	15.82
589.113	15.81
589.307	16.23
589.501	16.36
589.694	16.36
589.888	16.37
590.082	16.46
590.275	16.72
590.469	16.61
590.663	16.7
590.856	17.11
591.05	16.94
591.244	17.08
591.437	16.85
591.631	16.85
591.824	16.64
592.018	16.52
592.212	16.46
592.405	16.32
592.599	16.51
592.792	16.61
592.986	16.83
593.179	17.04
593.372	17.12
593.566	17.09
593.759	16.73
593.953	16.98
594.146	16.88
594.339	17.16
594.533	17.33
594.726	17.06
594.92	16.97
595.113	16.93
595.306	16.85
595.499	16.84
595.693	16.93
595.886	17.32
596.079	17.2
596.272	17.35
596.466	17.25
596.659	17.28
596.852	17.51
597.045	17.53
597.238	17.46
597.431	17.23
597.624	17.23
597.818	17.31
598.011	17.07
598.204	17.06
598.397	16.92
598.59	17.03
598.783	17.02
598.976	16.85
599.169	16.86
599.362	16.82
599.555	16.73
599.748	16.48
599.941	16.62
600.134	16.63
600.326	16.49
600.519	16.48
600.712	16.17
600.905	16.11
601.098	15.95
601.291	16.13
601.483	15.95
601.676	16.34
601.869	16.48
602.062	16.47
602.255	16.83
602.447	16.97
602.64	17.43
602.833	17.71
603.025	17.55
603.218	17.56
603.411	17.5
603.603	17.63
603.796	17.64
603.989	17.62
604.181	17.65
604.374	17.57
604.566	17.6
604.759	17.26
604.951	17.2
605.144	17.33
605.336	17.68
605.529	17.72
605.721	17.64
605.914	17.56
606.106	17.63
606.299	17.55
606.491	17.57
606.683	17.72
606.876	17.95
607.068	17.9
607.26	17.99
607.453	17.9
607.645	18.12
607.837	18.34
608.03	18.38
608.222	18.21
608.414	18.04
608.606	18.14
608.799	17.91
608.991	17.82
609.183	17.91
609.375	17.81
609.567	17.56
609.759	17.49
609.952	17.47
610.144	17.59
610.336	17.6
610.528	17.49
610.72	17.49
610.912	17.45
611.104	17.56
611.296	17.64
611.488	17.69
611.68	17.34
611.872	17.08
612.064	17.09
612.256	16.82
612.448	17.02
612.64	17.27
612.832	16.78
613.023	16.85
613.215	16.96
613.407	16.68
613.599	16.58
613.791	17.17
613.983	17.09
614.174	17.24
614.366	17.16
614.558	17.07
614.75	17.08
614.941	17.48
615.133	17.24
615.325	16.95
615.516	17.04
615.708	17.18
615.9	17.38
616.091	17.56
616.283	17.37
616.475	17.58
616.666	17.49
616.858	17.67
617.049	17.61
617.241	17.83
617.432	17.87
617.624	17.8
617.815	17.62
618.007	17.54
618.198	17.6
618.39	17.54
618.581	17.61
618.773	17.6
618.964	17.16
619.155	17.07
619.347	17.31
619.538	17.14
619.729	16.97
619.921	17.38
620.112	17.3
620.303	17.22
620.494	17.19
620.686	17.31
620.877	17.23
621.068	17.4
621.259	17.66
621.451	17.38
621.642	17.74
621.833	17.96
622.024	17.84
622.215	18.12
622.406	18.18
622.597	18.53
622.788	18.48
622.98	18.57
623.171	18.52
623.362	18.25
623.553	17.97
623.744	17.55
623.935	17.64
624.126	17.53
624.317	17.32
624.508	17.48
624.698	17.38
624.889	17.31
625.08	17.53
625.271	17.9
625.462	17.92
625.653	18.38
625.844	18.4
626.034	18.16
626.225	18.08
626.416	18.18
626.607	18.02
626.798	18.03
626.988	17.89
627.179	17.71
627.37	17.38
627.56	17.46
627.751	17.74
627.942	18.03
628.132	18.28
628.323	18.33
628.514	18.25
628.704	18.29
628.895	18.2
629.085	18.47
629.276	18.66
629.466	18.82
629.657	18.82
629.847	18.55
630.038	18.47
630.228	18.38
630.419	18.2
630.609	18.12
630.8	18.4
630.99	18.46
631.181	18.39
631.371	18.33
631.561	18.31
631.752	18.52
631.942	18.36
632.132	18.59
632.323	18.67
632.513	18.8
632.703	18.85
632.893	18.44
633.084	18.48
633.274	18.33
633.464	18.3
633.654	18.19
633.844	17.63
634.034	17.97
634.225	17.9
634.415	17.88
634.605	18.1
634.795	17.72
634.985	17.69
635.175	17.59
635.365	17.78
635.555	17.77
635.745	17.89
635.935	18.06
636.125	17.75
636.315	17.51
636.505	17.86
636.695	17.42
636.885	17.78
637.075	18.17
637.265	18.01
637.455	17.94
637.644	17.95
637.834	18.17
638.024	18.53
638.214	18.61
638.404	19.03
638.593	18.71
638.783	18.69
638.973	18.77
639.163	18.32
639.352	18.1
639.542	17.85
639.732	17.89
639.921	17.61
640.111	17.47
640.301	17.55
640.49	17.57
640.68	17.65
640.87	17.98
641.059	17.68
641.249	17.77
641.438	18.25
641.628	18.39
641.817	18.49
642.007	18.59
642.196	18.49
642.386	18.42
642.575	17.92
642.764	17.6
642.954	17.45
643.143	17.88
643.333	17.76
643.522	17.84
643.711	18.1
643.901	18.02
644.09	17.71
644.279	17.47
644.469	17.15
644.658	16.89
644.847	16.79
645.036	16.68
645.226	16.58
645.415	17.02
645.604	16.51
645.793	16.22
645.982	16
646.171	16.24
646.361	16.96
646.55	17.15
646.739	17.5
646.928	17.67
647.117	17.63
647.306	17.53
647.495	17.28
647.684	17.59
647.873	17.52
648.062	17.71
648.251	17.46
648.44	17.69
648.629	17.61
648.818	17.89
649.007	17.9
649.196	18.2
649.384	18.25
649.573	18.2
649.762	18.2
649.951	18.51
650.14	18.59
650.328	18.98
650.517	18.49
650.706	18.82
650.895	18.45
651.083	18.49
651.272	18.46
651.461	18.5
651.65	18.37
651.838	18.29
652.027	18.61
652.216	18.53
652.404	18.41
652.593	18.03
652.781	17.83
652.97	18.3
653.158	18.02
653.347	18.39
653.535	18.49
653.724	18.61
653.912	18.85
654.101	18.49
654.289	18.28
654.478	18.37
654.666	18.48
654.855	18.69
655.043	18.31
655.231	18.45
655.42	18.06
655.608	18.19
655.796	18.29
655.985	18.18
656.173	18
656.361	18.3
656.55	18.23
656.738	18.67
656.926	18.58
657.114	18.34
657.302	18.56
657.491	18.59
657.679	17.98
657.867	18.25
658.055	18.58
658.243	18.82
658.431	18.66
658.619	18.53
658.807	18.32
658.996	17.96
659.184	18.15
659.372	17.91
659.56	17.82
659.748	18.04
659.936	17.81
660.124	17.28
660.311	17.02
660.499	17.24
660.687	17.39
660.875	17.33
661.063	17.6
661.251	17.38
661.439	17.39
661.627	17.5
661.814	17.77
662.002	18.17
662.19	18.18
662.378	18.4
662.565	18.04
662.753	18.12
662.941	18.12
663.129	18.05
663.316	18.22
663.504	18.54
663.692	19.05
663.879	18.82
664.067	18.29
664.254	18.66
664.442	18.86
664.63	19.17
664.817	19.23
665.005	19.27
665.192	19.37
665.38	19.4
665.567	19.37
665.755	18.9
665.942	18.51
666.13	18.61
666.317	18.29
666.504	17.78
666.692	17.57
666.879	17.09
667.067	17.4
667.254	17.35
667.441	17.75
667.629	17.7
667.816	17.37
668.003	17.86
668.19	17.69
668.378	17.52
668.565	17.85
668.752	17.88
668.939	18.26
669.127	18.18
669.314	18.65
669.501	18.48
669.688	18.69
669.875	19.02
670.062	18.87
670.249	18.53
670.436	18.73
670.623	18.78
670.81	18.64
670.997	18.57
671.184	18.11
671.371	17.44
671.558	17.11
671.745	17.31
671.932	17.27
672.119	16.99
672.306	17.51
672.493	17.66
672.68	17.33
672.867	17.43
673.054	17.3
673.24	18.22
673.427	18.19
673.614	18.3
673.801	17.94
673.988	17.77
674.174	18.17
674.361	17.73
674.548	17.53
674.734	17.53
674.921	17.83
675.108	17.97
675.294	17.11
675.481	17.54
675.668	17.34
675.854	17.59
676.041	17.62
676.227	17.65
676.414	18.1
676.601	18.32
676.787	18.29
676.974	18.41
677.16	18.5
677.347	18.62
677.533	18.35
677.719	18.67
677.906	18.6
678.092	18.8
678.279	18.81
678.465	18.88
678.651	18.79
678.838	18.96
679.024	18.8
679.21	18.6
679.397	18.73
679.583	19.29
679.769	19.12
679.955	18.99
680.142	19.03
680.328	18.89
680.514	18.83
680.7	18.89
680.886	18.88
681.073	18.83
681.259	19.06
681.445	18.95
681.631	18.88
681.817	19.18
682.003	19.2
682.189	19.51
682.375	19.61
682.561	19.54
682.747	19.68
682.933	19.69
683.119	19.53
683.305	19.18
683.491	19.32
683.677	19.06
683.863	18.93
684.049	18.9
684.235	18.37
684.42	17.75
684.606	18.11
684.792	18.07
684.978	18.61
685.164	19.23
685.349	18.77
685.535	18.58
685.721	18.63
685.907	18.78
686.092	18.62
686.278	18.8
686.464	19.54
686.649	19.45
686.835	19.51
687.021	19.36
687.206	18.89
687.392	19.68
687.577	19.74
687.763	19.8
687.948	19.53
688.134	19.93
688.319	19.8
688.505	20.35
688.69	20.31
688.876	20.19
689.061	20.04
689.247	19.89
689.432	20.37
689.618	20.41
689.803	20.12
689.988	20.27
690.174	19.72
690.359	19.86
690.544	18.95
690.73	18.6
690.915	18.28
691.1	18.49
691.285	18.9
691.471	18.76
691.656	18.86
691.841	18.96
692.026	19.26
692.211	19.95
692.396	19.82
692.582	20.44
692.767	21.12
692.952	21.17
693.137	21.02
693.322	20.12
693.507	19.53
693.692	18.94
693.877	18.91
694.062	18.7
694.247	18.22
694.432	18.97
694.617	18.65
694.802	18.61
694.987	18.29
695.172	18.11
695.357	18.32
695.541	18.82
695.726	19.08
695.911	18.84
696.096	18.2
696.281	18.6
696.466	17.81
696.65	17.72
696.835	17.79
697.02	18.25
697.204	18.21
697.389	18.44
697.574	18.71
697.759	19.06
697.943	19.44
698.128	19.82
698.312	19.55
698.497	19.87
698.682	19.65
698.866	19.25
699.051	19.64
699.235	19.54
699.42	19.53
699.604	19.16
699.789	19.09
699.973	18.8
700.158	18.69
700.342	19.16
700.527	18.45
700.711	18.73
700.895	19.1
701.08	19.55
701.264	19.55
701.448	19.34
701.633	19.86
701.817	19.68
702.001	19.6
702.186	19.51
702.37	18.57
702.554	18.81
702.738	18.2
702.923	18.12
703.107	17.11
703.291	16.6
703.475	17.38
703.659	17.43
703.843	16.95
704.027	17.14
704.212	17.32
704.396	17.76
704.58	18.15
704.764	18.72
704.948	18.93
705.132	18.87
705.316	19.83
705.5	18.76
705.684	17.36
705.868	18.07
706.052	18.6
706.235	18.87
706.419	19.19
706.603	19.35
706.787	18.72
706.971	18.15
707.155	17.33
707.339	17.5
707.522	17.84
707.706	18.91
707.89	18.48
708.074	17.96
708.257	17.6
708.441	17.26
708.625	16.83
708.808	17.71
708.992	17.88
709.176	19.28
709.359	19.14
709.543	19.56
709.727	19.24
709.91	18.84
710.094	19.42
710.277	19.7
710.461	19.58
710.644	19.89
710.828	19.9
711.011	19.81
711.195	19.27
711.378	19.21
711.562	18.79
711.745	18.75
711.928	19.44
712.112	18.69
712.295	17.63
712.478	17.83
712.662	18.11
712.845	17.49
713.028	17.37
713.212	16.68
713.395	16.91
713.578	16.89
713.761	17.13
713.945	17.53
714.128	18.18
714.311	19.15
714.494	18.86
714.677	18.43
714.86	18.81
715.043	18.91
715.227	19.43
715.41	19.12
715.593	19.86
715.776	19.08
715.959	18.55
716.142	18.81
716.325	18.72
716.508	18.46
716.691	18.95
716.874	18.61
717.057	18.32
717.239	18.87
717.422	18.59
717.605	18.36
717.788	18.78
717.971	18.54
718.154	17.71
718.337	17.38
718.519	17.84
718.702	17.63
718.885	18.68
719.068	20.07
719.25	19.22
719.433	19.27
719.616	20.27
719.798	21.36
719.981	21.75
720.164	21.8
720.346	22.29
720.529	22.36
720.712	21.24
720.894	21.48
721.077	20.67
721.259	20.65
721.442	21.04
721.624	19.19
721.807	18.17
721.989	17.85
722.172	17.65
722.354	18.17
722.537	17.3
722.719	18.53
722.901	17.88
723.084	17.25
723.266	16.93
723.448	16.73
723.631	17.44
723.813	17.51
723.995	17.46
724.178	17.31
724.36	16.25
724.542	17.11
724.724	17.08
724.907	16.85
725.089	17.61
725.271	18.44
725.453	17.8
725.635	17.42
725.817	17.67
725.999	17.75
726.181	18.39
726.364	18.71
726.546	18.91
726.728	19.18
726.91	19.41
727.092	19.03
727.274	18.02
727.456	19.23
727.638	19.83
727.819	19.67
728.001	19.21
728.183	18.44
728.365	18.23
728.547	18.59
728.729	17.82
728.911	17.68
729.093	18.08
729.274	18.35
729.456	18.55
729.638	18.65
729.82	18.73
730.001	18.67
730.183	18.83
730.365	19.4
730.546	18.31
730.728	17.98
730.91	18.29
731.091	17.52
731.273	17.66
731.455	16.84
731.636	16.49
731.818	16.34
731.999	17.04
732.181	17.63
732.362	17.4
732.544	18.23
732.725	18.77
732.907	17.4
733.088	17.62
733.27	18.07
733.451	19.22
733.633	19.38
733.814	18.83
733.995	19.1
734.177	17.55
734.358	18.04
734.539	18.13
734.721	18.56
734.902	19.41
735.083	19.89
735.264	20.56
735.446	19.02
735.627	18.59
735.808	18.59
735.989	18.22
736.17	20.73
736.351	18.95
736.533	18.71
736.714	18.1
736.895	19.15
737.076	18.68
737.257	18.15
737.438	18.94
737.619	19.27
737.8	19.93
737.981	20.19
738.162	18.95
738.343	20.65
738.524	20.04
738.705	19.54
738.886	19.39
739.067	19.67
739.247	19.04
739.428	19.45
739.609	19.47
739.79	19.25
739.971	18.19
740.151	17.65
740.332	17.1
740.513	18.22
740.694	19.68
740.874	19.58
741.055	19.12
741.236	20.39
741.417	19.26
741.597	19.78
741.778	20.37
741.958	21.35
742.139	22.31
742.32	22.15
742.5	21.73
742.681	20.58
742.861	20.29
743.042	20.89
743.222	19.63
743.403	18.97
743.583	18.34
743.764	16.8
743.944	17.48
744.124	17.52
744.305	18.07
744.485	17.4
744.666	16.89
744.846	16.14
745.026	15.63
745.207	14.88
745.387	14.97
745.567	15.09
745.747	15.37
745.928	15.19
746.108	13.83
746.288	13.65
746.468	14.8
746.648	15.72
746.829	16.19
747.009	17.51
747.189	18.69
747.369	19.4
747.549	19.76
747.729	20.38
747.909	20.83
748.089	21.81
748.269	20.66
748.449	20.13
748.629	19.39
748.809	19.11
748.989	18.75
749.169	19.29
749.349	20.13
749.529	20.24
749.709	20.86
749.889	19.79
750.068	20.2
750.248	20.57
750.428	20.19
750.608	21.18
750.788	20.94
750.967	20.64
751.147	19.99
751.327	18.84
751.507	17.51
751.686	17.85
751.866	18.55
752.046	18.34
752.225	18.45
752.405	18.08
752.585	18.49
752.764	18.54
752.944	18.69
753.123	17.77
753.303	18.2
753.482	19.27
753.662	18.77
753.841	19.02
754.021	18.95
754.2	18.72
754.38	20.12
754.559	19.5
754.739	20.11
754.918	20.8
755.097	22.49
755.277	22.1
755.456	22.23
755.635	21.98
755.815	21
755.994	20.14
756.173	20.84
756.352	20.65
756.532	21.22
756.711	21.01
756.89	19.51
757.069	18.76
757.248	19.23
757.427	18.39
757.607	18.52
757.786	18.73
757.965	19.55
758.144	20.37
758.323	19.64
758.502	18.74
758.681	18.41
758.86	18.77
759.039	18.47
759.218	17.61
759.397	17.61
759.576	18.53
759.755	19.09
759.934	18.62
760.113	18.08
760.291	18.92
760.47	19.2
760.649	19.99
760.828	20.44
761.007	21.62
761.186	22.01
761.364	22.74
761.543	22.34
761.722	21.6
761.901	21.62
762.079	21.3
762.258	20.36
762.437	21.35
762.615	21.25
762.794	20.66
762.972	19.27
763.151	20.03
763.33	20.26
763.508	19.8
763.687	19.88
763.865	20.4
764.044	21.02
764.222	22.01
764.401	20.11
764.579	20.19
764.758	20.01
764.936	20.39
765.114	20.35
765.293	19.82
765.471	19.94
765.65	20.24
765.828	20.71
766.006	19.16
766.184	18.31
766.363	19.9
766.541	19.44
766.719	21.41
766.898	22
767.076	21.96
767.254	22.49
767.432	22.23
767.61	21.38
767.788	20.36
767.967	21.34
768.145	20.88
768.323	21.18
768.501	21.77
768.679	18.97
768.857	18.85
769.035	17.87
769.213	18.07
769.391	16.86
769.569	17.2
769.747	17.96
769.925	19.18
770.103	18.91
770.281	19.09
770.459	18.07
770.636	20.11
770.814	18.81
770.992	19.81
771.17	17.44
771.348	19.98
771.525	19.39
771.703	17.34
771.881	14.73
772.059	16.5
772.236	12.81
772.414	14.66
772.592	14
772.769	15.86
772.947	14.08
773.125	17.3
773.302	14.01
773.48	14.05
773.657	11.47
773.835	11.36
774.013	12.35
774.19	16.38
774.368	14.49
774.545	15.07
774.723	13.73
774.9	12.59
775.077	12.57
775.255	16.33
775.432	18.28
775.61	24.15
775.787	26.45
775.964	24.22
776.142	22.72
776.319	24.38
776.496	23.47
776.674	23.12
776.851	25.35
777.028	23.68
777.205	21.48
777.382	21.75
777.56	18.96
777.737	20.17
777.914	20.28
778.091	20.25
778.268	18.42
778.445	17.81
778.622	17.62
778.8	18.31
778.977	19.21
779.154	20.55
779.331	19.33
779.508	23.31
779.685	21.2
779.862	19.98
780.038	20.69
780.215	23.03
780.392	22.46
780.569	23.67
780.746	22.59
780.923	22.7
781.1	21.77
781.277	23.88
781.453	18.59
781.63	17.63
781.807	18.17
781.984	17.19
782.16	13.47
782.337	13.51
782.514	13.99
782.691	15.53
782.867	13.17
783.044	13.08
783.221	7.95
783.397	10.92
783.574	9.98
783.75	9.61
783.927	10.97
784.103	12.9
784.28	12.86
784.456	10.72
784.633	10.19
784.809	10.46
784.986	7.66
785.162	10.56
785.339	9.29
785.515	10.34
785.692	12.31
785.868	11.12
786.044	11.1
786.221	13.81
786.397	15.85
786.573	15.9
786.749	16.61
786.926	22.22
787.102	20.59
787.278	24.69
787.454	23.87
787.631	22.31
787.807	23.2
787.983	22
788.159	21.06
788.335	19.81
788.511	20.16
788.687	18.38
788.863	17.47
789.039	17.24
789.216	13.52
789.392	13.3
789.568	13.13
789.744	13.12
789.919	13.52
790.095	12.34
790.271	13.11
790.447	14.29
790.623	15.66
790.799	14.76
790.975	16.95
791.151	15.59
791.327	18.61
791.502	17.51
791.678	17.29
791.854	16.87
792.03	18.08
792.205	20.37
792.381	19.34
792.557	19.94
792.733	19.2
792.908	19.88
793.084	20.78
793.259	16.91
793.435	18.59
793.611	18.24
793.786	18.54
793.962	16.56
794.137	11.91
794.313	11.1
794.488	9.16
794.664	7.58
794.839	8.79
795.015	11.4
795.19	13.5
795.366	12.82
795.541	10.01
795.716	12.86
795.892	11.95
796.067	15.28
796.242	16.41
796.418	19.47
796.593	17.88
796.768	15.68
796.944	12.83
797.119	14.93
797.294	13.85
797.469	13.64
797.644	10.91
797.82	13.27
797.995	10.33
798.17	7.7
798.345	4.69
798.52	9.55
798.695	10.44
798.87	11.31
799.045	10.27
799.22	12.54
799.395	14.34
799.57	14.85
799.745	11.65
799.92	14.96
800.095	16.37
800.27	15.52
800.445	10.62
800.62	8.31
800.795	6.97
800.97	7.88
801.145	7.99
801.319	6.05
801.494	6.31
801.669	12.29
801.844	9.1
802.018	11.19
802.193	11.25
802.368	10.3
802.543	12.4
802.717	15.54
802.892	13.63
803.067	14.54
803.241	16.43
803.416	16.09
803.59	15.92
803.765	19.91
803.94	17.63
804.114	20.18
804.289	21.43
804.463	23.86
804.638	23.48
804.812	23.75
804.986	21.84
805.161	19.84
805.335	23.03
805.51	18.17
805.684	17.13
805.858	13.99
806.033	12.95
806.207	16.05
806.381	12.79
806.556	12.74
806.73	12.4
806.904	12.86
807.078	15.53
807.253	12.92
807.427	18.42
807.601	19.96
807.775	24.98
807.949	23.79
808.123	21.54
808.298	20.43
808.472	19.3
808.646	21.81
808.82	23.89
808.994	23.55
809.168	22.49
809.342	22.4
809.516	22.16
809.69	22.48
809.864	24.14
810.038	27.35
810.212	28.04
810.385	28.17
810.559	29.88
810.733	27.86
810.907	29.9
811.081	27.28
811.255	23.88
811.428	21.6
811.602	20.24
811.776	21.77
811.95	20.37
812.123	23.16
812.297	21.34
812.471	15.99
812.644	14.82
812.818	7.64
812.992	3.54
813.165	7.19
813.339	5.51
813.512	5.04
813.686	1.77
813.86	1.62
814.033	5.78
814.207	11.16
814.38	12.81
814.554	14.97
814.727	19.45
814.9	24.78
815.074	20.21
815.247	19.73
815.421	17.33
815.594	18.45
815.767	17.16
815.941	10.71
816.114	8.67
816.287	6.9
816.46	7.57
816.634	10.08
816.807	8.29
816.98	8.53
817.153	8.6
817.327	8.62
817.5	10.07
817.673	13.5
817.846	21
818.019	19.73
818.192	21.82
818.365	21.92
818.538	16.86
818.711	20.06
818.884	22.14
819.057	21.54
819.23	23.11
819.403	22.92
819.576	21.09
819.749	16.44
819.922	18.4
820.095	18.07
820.268	15.67
820.441	16.59
820.614	14.69
820.786	16.42
820.959	18.61
821.132	17.97
821.305	18.66
821.477	19.64
821.65	21.4
821.823	21.29
821.996	22.04
822.168	23.24
822.341	23.54
822.514	23.97
822.686	22.85
822.859	22.32
823.031	22.62
823.204	22.5
823.376	22.57
823.549	21.91
823.722	21.53
823.894	20.7
824.067	20.22
824.239	20.44
824.411	20.32
824.584	20.56
824.756	20.55
824.929	21.03
825.101	20.24
825.273	19.39
825.446	19.81
825.618	20.75
825.79	21.45
825.963	20.82
826.135	20.59
826.307	21.13
826.479	21.38
826.652	22.28
826.824	23.14
826.996	24.24
827.168	24.02
827.34	23.11
827.512	22.08
827.684	22.29
827.856	22.66
828.029	22.48
828.201	21.78
828.373	23.29
828.545	22.97
828.717	21.28
828.889	21.36
829.061	21.15
829.232	22.02
829.404	21.87
829.576	20.52
829.748	19.96
829.92	18.53
830.092	21.67
830.264	21.43
830.436	17.34
830.607	18.88
830.779	18.08
830.951	20.09
831.123	22.19
831.294	22.14
831.466	24.59
831.638	25.84
831.809	28.68
831.981	23.29
832.153	22.27
832.324	26.11
832.496	25.46
832.667	25.32
832.839	24.98
833.011	25.97
833.182	29.24
833.354	24.92
833.525	24.85
833.697	22.08
833.868	24.22
834.039	22.33
834.211	24.33
834.382	22.64
834.554	23.26
834.725	22.36
834.896	21.64
835.068	18.81
835.239	20.05
835.41	19.84
835.581	21.7
835.753	21.38
835.924	20.59
836.095	17.54
836.266	18.17
836.438	17.23
836.609	18.39
836.78	15.97
836.951	19
837.122	19.91
837.293	19.27
837.464	20.47
837.635	16.2
837.806	16.8
837.977	18.34
838.148	17.16
838.319	18.11
838.49	17.4
838.661	13.08
838.832	16.12
839.003	15.54
839.174	14.33
839.345	12.89
839.516	13.83
839.687	15.83
839.857	17.84
840.028	21.03
840.199	19.37
840.37	20.33
840.54	25.25
840.711	20.85
840.882	19.12
841.053	26.37
841.223	24.47
841.394	24.01
841.564	23.82
841.735	23.13
841.906	18.03
842.076	16.6
842.247	12.95
842.417	10.96
842.588	10.6
842.758	13.76
842.929	4.72
843.099	5.61
843.27	11.16
843.44	15.05
843.611	17.36
843.781	18.39
843.951	18.93
844.122	20.52
844.292	19.9
844.462	17.81
844.633	15.6
844.803	21.55
844.973	28.29
845.144	23.13
845.314	21.62
845.484	11.92
845.654	12.22
845.824	13.51
845.995	8.23
846.165	6.79
846.335	12.38
846.505	10.63
846.675	2.6
846.845	2.88
847.015	0.34
847.185	-4.45
847.355	12.21
847.525	18.39
847.695	10.3
847.865	17.21
848.035	26.74
848.205	21.59
848.375	22.99
848.545	30.71
848.715	24.55
848.884	27.51
849.054	31.64
849.224	16.43
849.394	8.59
849.564	17.11
849.733	6.86
849.903	-4.21
850.073	-3.05
850.243	4.06
850.412	0.43
850.582	4.62
850.752	-7.53
850.921	-1.85
851.091	0.03
851.26	4.58
851.43	6.63
851.599	21.73
851.769	24.2
851.939	17.99
852.108	10.47
852.278	9.53
852.447	9.63
852.616	5.73
852.786	8.15
852.955	12.21
853.125	9.37
853.294	-1.73
853.463	1.48
853.633	5.41
853.802	4.2
853.971	8.74
854.141	1.56
854.31	-14.06
854.479	-1.88
854.648	-27.42
854.818	-17.53
854.987	-14.05
855.156	6.6
855.325	-14.59
855.494	-18.85
855.663	-12.01
855.832	-18.24
856.001	-21.6
856.171	-15.36
856.34	-21.25
856.509	2.14
856.678	-7.48
856.847	-0.54
857.016	-4.55
857.185	9.68
857.353	8.67
857.522	19.39
857.691	34.67
857.86	41.88
858.029	43.95
858.198	45.75
858.367	49.1
858.535	47.73
858.704	48.62
858.873	37.63
859.042	43.99
859.21	49.64
859.379	42.96
859.548	25
859.717	26.06
859.885	36.16
860.054	41.13
860.222	31.17
860.391	27.85
860.56	19.91
860.728	34.74
860.897	26.54
861.065	23.42
861.234	23.62
861.402	26.86
861.571	33.18
861.739	2.94
861.908	-12.47
862.076	-14.39
862.244	-13.66
862.413	-33.88
862.581	-63.55
862.749	-67.13
862.918	-102.76
863.086	-104.45
863.254	-92.28
863.423	-103.74
863.591	-64.7
863.759	-57.02
863.927	-28.02
864.096	-46.55
864.264	-61.7
864.432	-63.24
864.6	-86.29
864.768	-6.84
864.936	-35.58
865.104	-17.44
865.272	-66.81
865.44	-45.37
865.608	-69.76
865.776	-58.09
865.944	-30.78
866.112	-6.62
866.28	-3.25
866.448	12.89
866.616	27.4
866.784	31.87
866.952	32.1
867.12	44.85
867.288	38.75
867.455	42.32
867.623	33.2
867.791	31.83
867.959	31.32
868.127	30.15
868.294	32.53
868.462	18.66
868.63	5.74
868.797	9.25
868.965	0.05
869.133	-8.42
869.3	12.41
869.468	16.48
869.636	6.6
869.803	-16.61
869.971	-2.99
870.138	-13.72
870.306	9.31
870.473	22.25
870.641	24.68
870.808	41.1
870.975	53.72
871.143	39.4
871.31	24.42
871.478	19.22
871.645	34.43
871.812	40.49
871.98	37.94
872.147	22.13
872.314	24.22
872.482	33.05
872.649	29.16
872.816	29.57
872.983	29.36
873.15	46.15
873.318	45.6
873.485	43.26
873.652	31.08
873.819	35.87
873.986	37.75
874.153	48.08
874.32	23.78
874.487	14.66
874.654	29.41
874.821	30.35
874.988	15.72
875.155	23.05
875.322	30.33
875.489	24.12
875.656	17.1
875.823	18.1
875.99	16.2
876.157	14.79
876.324	17.22
876.49	14.62
876.657	16.93
876.824	28.28
876.991	24
877.157	13.95
877.324	16.32
877.491	19.29
877.658	5.39
877.824	-7.4
877.991	-4.65
878.157	-2.27
878.324	-12.75
878.491	-7.18
878.657	-10.19
878.824	-4.8
878.99	-2.91
879.157	-1.03
879.323	8.52
879.49	28.82
879.656	40.15
879.823	45
879.989	41.07
880.156	50.68
880.322	42.89
880.488	34.59
880.655	43.73
880.821	39.6
880.987	47.03
881.154	40.58
881.32	28.46
881.486	19.65
881.652	12.71
881.819	21.82
881.985	16.3
882.151	23.8
882.317	30.09
882.483	29.12
882.649	29.33
882.816	26.05
882.982	25.71
883.148	28.89
883.314	30.33
883.48	32.55
883.646	31.95
883.812	31.65
883.978	28.58
884.144	25.21
884.31	24.71
884.476	23.46
884.642	21.13
884.807	21.85
884.973	20.71
885.139	17.86
885.305	14.32
885.471	11.33
885.637	13.21
885.802	10.99
885.968	10.96
886.134	10.03
886.3	12.89
886.465	17.35
886.631	17.05
886.797	18.47
886.962	24.8
887.128	34.89
887.293	36.89
887.459	41.87
887.625	38.28
887.79	39.48
887.956	44.26
888.121	44.57
888.287	48.87
888.452	50.74
888.618	48.47
888.783	50.53
