Data from 2937890_Reflection_2.txt Node
Date: Wed Jul 15 14:20:45 EDT 2015
User: robert
Spectrometer: USB4E03001
Autoset integration time: false
Trigger mode: 4
Integration Time (sec): 1.000000E-1
Scans to average: 10
Electric dark correction enabled: true
Nonlinearity correction enabled: false
Boxcar width: 5
Stray light correction enabled: false
XAxis mode: Wavelengths
Stop averaging: false
Number of Pixels in Spectrum: 3648
>>>>>Begin Spectral Data<<<<<
177.566	106.95
177.785	10.15
178.005	66.29
178.225	71.22
178.445	64.42
178.665	59.95
178.885	372.19
179.105	140.77
179.324	117.55
179.544	77.84
179.764	73.07
179.984	91.06
180.204	100.07
180.423	111.55
180.643	124.53
180.863	120.7
181.083	104.7
181.302	138.62
181.522	144.13
181.742	166.95
181.961	308.97
182.181	1421.86
182.401	-1436.8
182.621	-277.88
182.84	-593.62
183.06	-989.75
183.279	324.95
183.499	-46.46
183.719	217.36
183.938	289.04
184.158	372.29
184.377	170.33
184.597	131.78
184.816	88.86
185.036	119.16
185.256	141.56
185.475	183.16
185.695	997.53
185.914	430.19
186.134	-3319.29
186.353	-362.09
186.572	1464.31
186.792	-1768.68
187.011	572.87
187.231	778.86
187.45	3194.94
187.67	1132.5
187.889	708.32
188.108	2204.17
188.328	518.17
188.547	135.87
188.766	111.02
188.986	107.59
189.205	116.27
189.424	151.19
189.644	116.68
189.863	68.85
190.082	74.52
190.302	74.81
190.521	129.61
190.74	203.6
190.959	231.59
191.178	234.65
191.398	213.91
191.617	215.1
191.836	-186.02
192.055	-24.53
192.274	-243.42
192.494	-104.5
192.713	-67.93
192.932	-115.32
193.151	-155.59
193.37	-91.74
193.589	-64.44
193.808	-29.94
194.027	-370.02
194.246	724.67
194.465	249.4
194.685	182.31
194.904	159.14
195.123	164.69
195.342	96.24
195.561	87.31
195.78	2.27
195.999	0.1
196.218	-2.49
196.436	-152.9
196.655	-452.58
196.874	-372.98
197.093	-282.86
197.312	168.04
197.531	131.45
197.75	424.69
197.969	29.52
198.188	-393.2
198.407	-132.58
198.625	-128.16
198.844	6.65
199.063	63.86
199.282	201.26
199.501	26.97
199.719	-281.74
199.938	129.59
200.157	143.97
200.376	145.22
200.594	-242.7
200.813	-902.4
201.032	-225.04
201.251	-343.79
201.469	825.93
201.688	113.07
201.907	90.43
202.125	56.7
202.344	26.15
202.563	38.27
202.781	21.89
203	12
203.218	35.83
203.437	42.81
203.656	35.41
203.874	36.75
204.093	32.97
204.311	33.46
204.53	25.3
204.748	37.99
204.967	35.93
205.185	46.85
205.404	56
205.622	48.04
205.841	49.18
206.059	80.69
206.278	77.61
206.496	108.43
206.715	114.6
206.933	118.13
207.151	137.72
207.37	181.19
207.588	158.92
207.806	193.2
208.025	192.99
208.243	215.89
208.461	189.46
208.68	323.69
208.898	170.76
209.116	190.39
209.335	104.81
209.553	136.86
209.771	151.85
209.989	186.63
210.208	254.97
210.426	-366.59
210.644	2.58
210.862	-311.26
211.081	138.53
211.299	76.31
211.517	71.36
211.735	77.28
211.953	77.34
212.171	82.94
212.39	84.81
212.608	46.66
212.826	73.05
213.044	67.63
213.262	84.28
213.48	117.65
213.698	121.29
213.916	59.67
214.134	34.79
214.352	510.06
214.57	-171.98
214.788	347.19
215.006	140.03
215.224	174.58
215.442	188.58
215.66	351.41
215.878	-211.39
216.096	-95.12
216.314	-50.87
216.532	30.54
216.75	62.71
216.968	73.51
217.185	83.12
217.403	78.23
217.621	64.98
217.839	64.53
218.057	63.72
218.275	51.78
218.492	75.07
218.71	80.69
218.928	91.56
219.146	53.87
219.363	43.27
219.581	82.02
219.799	93.11
220.017	92.42
220.234	81.24
220.452	106.38
220.67	79.39
220.887	104.76
221.105	170.76
221.323	229.64
221.54	164.03
221.758	85.55
221.976	5.28
222.193	11.81
222.411	13.02
222.629	-44.39
222.846	-65.46
223.064	-404.2
223.281	-35.4
223.499	-49.28
223.716	-80.74
223.934	-124.81
224.151	12.43
224.369	80.79
224.586	-34.43
224.804	29.33
225.021	-2293.88
225.239	-658.72
225.456	235.56
225.674	95.87
225.891	65.17
226.108	45.48
226.326	35.54
226.543	30.35
226.76	-15.64
226.978	-7.35
227.195	-13.7
227.413	-12.31
227.63	-6.75
227.847	0.29
228.064	2.37
228.282	12.26
228.499	10.33
228.716	11.98
228.934	13.29
229.151	15.99
229.368	17.28
229.585	17.88
229.802	22.67
230.02	20.9
230.237	16.96
230.454	13.38
230.671	11.2
230.888	17.37
231.105	18.46
231.323	19.2
231.54	28.06
231.757	24.77
231.974	23.69
232.191	20.94
232.408	27.71
232.625	34.92
232.842	37.34
233.059	42.97
233.276	43.22
233.493	34.71
233.71	33.99
233.927	21.39
234.144	29.67
234.361	32.34
234.578	36.97
234.795	38.69
235.012	33.56
235.229	35.42
235.446	35.14
235.663	34.98
235.879	38.63
236.096	33.56
236.313	39.25
236.53	40.72
236.747	40.02
236.964	31.06
237.181	33.99
237.397	41.39
237.614	40.53
237.831	35.24
238.048	29.61
238.264	27.99
238.481	31.58
238.698	33.65
238.915	31.42
239.131	26.2
239.348	35.67
239.565	32.77
239.781	30.17
239.998	31.44
240.215	31.09
240.431	28.7
240.648	23.09
240.865	24.1
241.081	22.45
241.298	17.77
241.514	21.27
241.731	18.06
241.947	16.58
242.164	14.13
242.38	13.52
242.597	15.21
242.814	19.33
243.03	20.8
243.246	18.99
243.463	18.17
243.679	21.1
243.896	17.61
244.112	18.12
244.329	19.73
244.545	23.14
244.762	23.22
244.978	22.19
245.194	20.03
245.411	21.24
245.627	21.99
245.843	21.47
246.06	19.47
246.276	20.94
246.492	21.27
246.709	19.32
246.925	18.33
247.141	19.04
247.357	19.16
247.574	19.48
247.79	19.42
248.006	20.21
248.222	20.45
248.439	21.08
248.655	22.25
248.871	21.54
249.087	22
249.303	20.79
249.519	20.63
249.736	19.81
249.952	18.76
250.168	17.11
250.384	13.14
250.6	11.54
250.816	11.4
251.032	8.62
251.248	8.6
251.464	8.88
251.68	11.65
251.896	11.74
252.112	11.44
252.328	11.14
252.544	11.46
252.76	14.29
252.976	15.29
253.192	14
253.408	11.28
253.624	12.96
253.84	14.17
254.056	12.49
254.272	12.24
254.487	14.58
254.703	16.06
254.919	16.33
255.135	14.95
255.351	12.83
255.567	13.3
255.782	14.02
255.998	10.76
256.214	9.36
256.43	11.65
256.646	10.09
256.861	10.88
257.077	8.66
257.293	8.21
257.508	10.6
257.724	12.93
257.94	12.72
258.155	15.22
258.371	14.01
258.587	14.45
258.802	14.24
259.018	14.19
259.234	14.07
259.449	14.44
259.665	14.53
259.88	13.81
260.096	13.62
260.312	13.99
260.527	14.1
260.743	14.64
260.958	14.67
261.174	14.93
261.389	14.48
261.605	14.79
261.82	14.64
262.036	15.74
262.251	16.09
262.466	16.34
262.682	17.21
262.897	16.25
263.113	16.32
263.328	15.52
263.543	18.04
263.759	18.39
263.974	16.45
264.189	17.02
264.405	14.37
264.62	15.81
264.835	17.04
265.051	17.02
265.266	18.89
265.481	19.6
265.696	20.26
265.912	15.97
266.127	16.28
266.342	16.77
266.557	16.82
266.773	18.22
266.988	15.52
267.203	14.44
267.418	13.22
267.633	11.89
267.848	11.52
268.064	10.4
268.279	11.45
268.494	13.21
268.709	11.69
268.924	11.88
269.139	11.73
269.354	13.4
269.569	13.85
269.784	13.13
269.999	13.72
270.214	12.06
270.429	11.74
270.644	12.23
270.859	9.9
271.074	10.1
271.289	10.28
271.504	10.27
271.719	8.48
271.934	7.75
272.149	8.31
272.363	8.46
272.578	9.43
272.793	10.48
273.008	11.62
273.223	12.8
273.438	12.68
273.653	12.79
273.867	11.54
274.082	11.42
274.297	12.43
274.512	12.4
274.726	13.4
274.941	14.92
275.156	14.93
275.371	13.26
275.585	13.06
275.8	12.52
276.015	12.46
276.229	13.94
276.444	15.21
276.659	15.43
276.873	14.9
277.088	13.2
277.302	13.41
277.517	13.08
277.732	14.2
277.946	15.69
278.161	17.75
278.375	18.04
278.59	17.82
278.804	17.8
279.019	18.57
279.233	19.24
279.448	19.66
279.662	18.35
279.877	18.81
280.091	16.46
280.306	15.11
280.52	14.82
280.735	15.93
280.949	14.44
281.163	14.17
281.378	12.48
281.592	14.15
281.806	14.35
282.021	13.97
282.235	13.97
282.449	16.09
282.664	15.7
282.878	16.55
283.092	14.09
283.307	15.8
283.521	15.38
283.735	15.07
283.949	12.25
284.164	11.21
284.378	12.24
284.592	12.45
284.806	10.42
285.02	12.28
285.234	11.09
285.449	12.19
285.663	11.42
285.877	11.52
286.091	11.38
286.305	11.45
286.519	11.29
286.733	10.58
286.947	10.62
287.161	10.65
287.375	9.02
287.589	9.22
287.803	8.88
288.017	9.28
288.231	10
288.445	10.41
288.659	11.74
288.873	12.97
289.087	12.19
289.301	11.88
289.515	13.05
289.729	11.56
289.943	11.57
290.157	11.45
290.371	10.88
290.584	10.56
290.798	10.5
291.012	10.66
291.226	10.22
291.44	12.48
291.654	12.03
291.867	11.87
292.081	12.16
292.295	11.73
292.509	10.81
292.722	12.35
292.936	12.17
293.15	12.28
293.364	10.9
293.577	10.21
293.791	8.8
294.005	10.61
294.218	7.96
294.432	9.66
294.645	11.36
294.859	12.85
295.073	13.13
295.286	12.42
295.5	12.73
295.713	14.43
295.927	15.33
296.14	15.42
296.354	15.18
296.568	16.16
296.781	15.27
296.994	14.31
297.208	13.48
297.421	13.06
297.635	13.1
297.848	13.79
298.062	13.31
298.275	13.15
298.489	12.35
298.702	12.16
298.915	12.9
299.129	13.88
299.342	15.48
299.555	16.12
299.769	15.38
299.982	16.41
300.195	15.99
300.409	16.34
300.622	16.4
300.835	16.87
301.048	16.83
301.262	16.06
301.475	17.64
301.688	16.87
301.901	17.54
302.115	18.39
302.328	18.16
302.541	17.43
302.754	16.99
302.967	17.36
303.18	16.51
303.393	15.72
303.607	15.79
303.82	13.54
304.033	12.71
304.246	12.14
304.459	11.28
304.672	10.85
304.885	9.83
305.098	11.19
305.311	12.17
305.524	10.98
305.737	9.5
305.95	9.56
306.163	10.9
306.376	10.71
306.589	11.13
306.802	10.94
307.015	11.86
307.228	14.44
307.44	12.68
307.653	11.85
307.866	12.56
308.079	13.6
308.292	12.58
308.505	11.05
308.718	11.91
308.93	11.01
309.143	10.96
309.356	10.35
309.569	9.01
309.781	10.13
309.994	11
310.207	12.63
310.42	13.35
310.632	14.05
310.845	14.95
311.058	15.35
311.27	16.1
311.483	16.65
311.696	16.89
311.908	16.48
312.121	15.37
312.333	14.33
312.546	14.15
312.759	14.87
312.971	15.58
313.184	14.65
313.396	12.91
313.609	11.7
313.821	12.52
314.034	13.95
314.246	15.46
314.459	16.06
314.671	16.48
314.884	16.13
315.096	15.2
315.309	14.93
315.521	15.83
315.733	16.96
315.946	19.17
316.158	18.67
316.371	16.97
316.583	15.76
316.795	16.37
317.008	15.38
317.22	15.51
317.432	17.37
317.644	17.77
317.857	17.81
318.069	15.73
318.281	15.84
318.494	15.57
318.706	17.22
318.918	17.88
319.13	18.29
319.342	18.25
319.555	20.82
319.767	18.43
319.979	18.42
320.191	19.52
320.403	21.41
320.615	19.79
320.827	20.34
321.039	17.91
321.252	18.65
321.464	17.28
321.676	18.23
321.888	16.24
322.1	16.21
322.312	14.72
322.524	13.02
322.736	12.93
322.948	13
323.16	11.82
323.372	12.35
323.584	11.54
323.796	12.51
324.007	11.65
324.219	12.01
324.431	11.44
324.643	13.08
324.855	13.56
325.067	13.99
325.279	14.01
325.491	15.66
325.702	16.97
325.914	17.53
326.126	17.23
326.338	16.57
326.55	15.25
326.761	15.84
326.973	14.48
327.185	13.98
327.396	14.57
327.608	15.06
327.82	14.08
328.032	13.69
328.243	15.25
328.455	16.06
328.666	17.48
328.878	19.17
329.09	19.11
329.301	18.38
329.513	19.73
329.725	18.41
329.936	17.64
330.148	17.13
330.359	16.1
330.571	14.2
330.782	13.85
330.994	13.3
331.205	11.82
331.417	11.85
331.628	12.32
331.84	11.31
332.051	10.72
332.262	10.64
332.474	10.18
332.685	10.7
332.897	10.34
333.108	9.86
333.319	9.06
333.531	10.17
333.742	10.24
333.953	11.45
334.165	13
334.376	14.12
334.587	13.52
334.799	13.74
335.01	14.09
335.221	13.72
335.432	14.5
335.644	14.58
335.855	13
336.066	12.32
336.277	11.65
336.488	10.33
336.7	10.04
336.911	10.89
337.122	12.25
337.333	11.31
337.544	12.48
337.755	12.49
337.966	12.28
338.177	13.24
338.388	13.64
338.599	13.73
338.811	14.6
339.022	16.01
339.233	16.19
339.444	14.98
339.655	15.36
339.866	15.55
340.076	14.94
340.287	17.01
340.498	16.71
340.709	16.92
340.92	17.31
341.131	16.26
341.342	14.85
341.553	13.97
341.764	14.36
341.975	15.57
342.185	14.6
342.396	15.28
342.607	14.59
342.818	14.94
343.029	14.16
343.239	14.44
343.45	13.84
343.661	14.23
343.872	15.19
344.082	14.72
344.293	14.08
344.504	15.52
344.714	13.58
344.925	13.73
345.136	14.27
345.346	15.06
345.557	14.26
345.768	14.81
345.978	13.52
346.189	12.75
346.399	12.79
346.61	12.93
346.821	11.09
347.031	12.44
347.242	11.38
347.452	9.89
347.663	10.11
347.873	10.53
348.084	9.44
348.294	10.12
348.504	10.61
348.715	11.49
348.925	11.04
349.136	11.72
349.346	11.01
349.557	10.89
349.767	11.23
349.977	10.58
350.188	9.76
350.398	10.12
350.608	11.79
350.819	10.23
351.029	9.52
351.239	9.69
351.449	10.02
351.66	10.67
351.87	11.14
352.08	11.16
352.29	11.42
352.501	12.94
352.711	13.72
352.921	12.34
353.131	13.83
353.341	14.21
353.552	14.51
353.762	14.59
353.972	15.82
354.182	15.73
354.392	16.74
354.602	16.65
354.812	16.55
355.022	16.9
355.232	16.73
355.442	16.49
355.652	15.61
355.862	15.96
356.072	15.59
356.282	13.9
356.492	13.78
356.702	12.12
356.912	12.42
357.122	12.63
357.332	11.75
357.542	12.49
357.752	12.52
357.962	12.97
358.171	12.26
358.381	12.16
358.591	13.19
358.801	12.86
359.011	13.68
359.221	13.7
359.43	13.11
359.64	14.05
359.85	14.32
360.06	13.88
360.269	13.95
360.479	14.55
360.689	14.41
360.899	14.69
361.108	15.29
361.318	15.54
361.528	14.95
361.737	14.59
361.947	14.3
362.156	14.13
362.366	14.36
362.576	14.78
362.785	14.85
362.995	15.56
363.204	14.53
363.414	14.34
363.623	14.28
363.833	14.59
364.042	14.65
364.252	14.38
364.461	13.42
364.671	14.25
364.88	13.8
365.09	13.81
365.299	13.19
365.509	13.53
365.718	14.26
365.927	14.04
366.137	13.85
366.346	14.07
366.555	14.5
366.765	14.76
366.974	13.66
367.183	14.03
367.393	13.3
367.602	14.02
367.811	14.08
368.021	12.94
368.23	12.79
368.439	12.63
368.648	12.66
368.857	12.03
369.067	12.26
369.276	12.47
369.485	12.62
369.694	13.16
369.903	12.25
370.112	11.94
370.321	12.32
370.531	13.35
370.74	13.84
370.949	14.07
371.158	14.07
371.367	14.66
371.576	15.18
371.785	14.44
371.994	13.74
372.203	13.9
372.412	13.8
372.621	13.49
372.83	12.71
373.039	11.46
373.248	11.22
373.457	10.62
373.666	10.21
373.874	9.81
374.083	9.96
374.292	10.59
374.501	9.51
374.71	8.89
374.919	8.52
375.128	8.2
375.336	9.78
375.545	9.91
375.754	10.17
375.963	9.51
376.171	9.03
376.38	8.55
376.589	8.43
376.798	8.74
377.006	9.72
377.215	10
377.424	10.2
377.632	10.16
377.841	9.34
378.05	9.71
378.258	9.16
378.467	9.3
378.675	9.25
378.884	8.64
379.093	9.05
379.301	8.86
379.51	9.5
379.718	9.91
379.927	9.54
380.135	10.02
380.344	9.69
380.552	10.23
380.761	10.59
380.969	9.94
381.177	10.41
381.386	9.81
381.594	9.34
381.803	8.35
382.011	7.66
382.219	6.83
382.428	7.15
382.636	7.28
382.845	7.42
383.053	7.23
383.261	7.47
383.469	7.3
383.678	7.79
383.886	7.71
384.094	8.06
384.302	7.81
384.511	8.06
384.719	7.76
384.927	7.82
385.135	7.52
385.343	7.26
385.552	7.88
385.76	7.61
385.968	7.55
386.176	7.79
386.384	8.01
386.592	8.45
386.8	9.07
387.008	8.78
387.216	8.81
387.424	9.12
387.633	9.41
387.841	9.44
388.049	9.29
388.257	9.6
388.465	9.65
388.672	9.56
388.88	9.3
389.088	8.85
389.296	9.43
389.504	9.23
389.712	9.22
389.92	8.9
390.128	8.48
390.336	8.61
390.544	8.03
390.751	8
390.959	7.45
391.167	7.38
391.375	7.55
391.583	7.27
391.79	7.21
391.998	6.96
392.206	6.97
392.414	7.44
392.621	7.75
392.829	7.8
393.037	7.76
393.244	7.8
393.452	7.89
393.66	7.6
393.867	7.39
394.075	7.19
394.283	7.4
394.49	7.24
394.698	7.28
394.905	7.03
395.113	7.22
395.32	7.23
395.528	7.15
395.735	7.22
395.943	7.19
396.15	6.89
396.358	7.12
396.565	7.22
396.773	7.32
396.98	6.92
397.188	6.72
397.395	6.57
397.602	6.28
397.81	6.43
398.017	6.25
398.225	6.32
398.432	6.55
398.639	6.48
398.847	5.98
399.054	5.72
399.261	5.88
399.468	6.33
399.676	6.39
399.883	6.67
400.09	6.98
400.297	6.82
400.505	6.98
400.712	7.26
400.919	7.25
401.126	7.38
401.333	7.47
401.54	7.56
401.748	7.13
401.955	6.97
402.162	6.7
402.369	6.25
402.576	6.13
402.783	6.2
402.99	6.02
403.197	5.87
403.404	5.71
403.611	6.07
403.818	5.74
404.025	5.68
404.232	5.84
404.439	6.06
404.646	6.25
404.853	5.98
405.06	5.65
405.267	5.87
405.474	6
405.681	6.21
405.887	6.28
406.094	6.32
406.301	6.78
406.508	6.51
406.715	6.37
406.922	6.3
407.128	6.76
407.335	6.91
407.542	6.59
407.749	6.36
407.955	6.43
408.162	6.31
408.369	6.58
408.575	5.97
408.782	6.1
408.989	5.91
409.195	6.05
409.402	6.11
409.609	6.12
409.815	6.25
410.022	5.97
410.228	6.05
410.435	6.13
410.642	5.62
410.848	5.8
411.055	5.78
411.261	6.24
411.468	6.29
411.674	6.25
411.881	6.3
412.087	6.04
412.294	6.51
412.5	6.38
412.706	5.89
412.913	6.32
413.119	6.51
413.326	6.35
413.532	6.04
413.738	6.01
413.945	5.89
414.151	5.69
414.357	5.9
414.564	5.96
414.77	6.1
414.976	6.36
415.182	6.13
415.389	6.06
415.595	6.34
415.801	6.16
416.007	6.22
416.214	6.57
416.42	6.54
416.626	6.53
416.832	6.57
417.038	6.25
417.244	6.09
417.45	6.16
417.657	5.99
417.863	6.11
418.069	6.13
418.275	5.95
418.481	5.78
418.687	5.82
418.893	5.73
419.099	5.64
419.305	5.73
419.511	5.71
419.717	5.52
419.923	5.51
420.129	5.46
420.335	5.5
420.541	5.46
420.746	5.38
420.952	5.48
421.158	5.49
421.364	5.3
421.57	5.1
421.776	5.13
421.982	5.24
422.187	5.36
422.393	5.22
422.599	5.24
422.805	5.28
423.01	5.25
423.216	5.3
423.422	5.3
423.628	5.54
423.833	5.73
424.039	5.74
424.245	5.84
424.45	5.77
424.656	5.78
424.862	5.71
425.067	5.84
425.273	5.99
425.478	5.83
425.684	5.78
425.889	5.51
426.095	5.6
426.301	5.69
426.506	5.55
426.712	5.38
426.917	5.36
427.123	5.52
427.328	5.28
427.533	5.23
427.739	4.99
427.944	5.05
428.15	5.32
428.355	5.17
428.561	5.14
428.766	5.2
428.971	5.71
429.177	5.61
429.382	5.55
429.587	5.41
429.793	5.43
429.998	5.77
430.203	5.61
430.408	5.74
430.614	5.8
430.819	5.93
431.024	6.14
431.229	5.63
431.434	5.66
431.64	5.47
431.845	5.59
432.05	5.69
432.255	5.6
432.46	5.66
432.665	5.42
432.87	5.45
433.076	5.3
433.281	4.96
433.486	5.12
433.691	5.17
433.896	5.14
434.101	5.24
434.306	4.95
434.511	5.07
434.716	5.14
434.921	5.24
435.126	5.15
435.331	5.28
435.535	5.33
435.74	5.29
435.945	5.41
436.15	5.43
436.355	5.37
436.56	5.54
436.765	5.43
436.97	5.34
437.174	5.28
437.379	5.15
437.584	4.93
437.789	4.94
437.993	5.22
438.198	5.24
438.403	5.23
438.608	5.15
438.812	4.92
439.017	4.93
439.222	4.85
439.426	4.82
439.631	4.96
439.836	5.16
440.04	5.25
440.245	5.12
440.45	4.94
440.654	5.06
440.859	5.09
441.063	5.16
441.268	5.32
441.472	5.56
441.677	5.47
441.881	5.45
442.086	5.27
442.29	5.19
442.495	5.08
442.699	5.32
442.904	5.36
443.108	5.47
443.312	5.32
443.517	5.19
443.721	5
443.925	5.3
444.13	5.22
444.334	5.31
444.538	5.35
444.743	5.49
444.947	5.53
445.151	5.32
445.356	5.31
445.56	5.47
445.764	5.57
445.968	5.39
446.173	5.31
446.377	5.28
446.581	5.19
446.785	5.21
446.989	5.18
447.193	4.99
447.398	4.99
447.602	4.91
447.806	4.79
448.01	4.62
448.214	4.93
448.418	4.9
448.622	4.93
448.826	4.92
449.03	4.89
449.234	5.12
449.438	5.09
449.642	5.22
449.846	5.32
450.05	5.39
450.254	5.5
450.458	5.45
450.662	5.36
450.866	5.46
451.069	5.62
451.273	5.56
451.477	5.25
451.681	5.24
451.885	5.18
452.089	5.28
452.292	5.18
452.496	5.01
452.7	4.95
452.904	5.23
453.107	5.1
453.311	5.13
453.515	5.32
453.719	5.28
453.922	5.1
454.126	5.2
454.33	5.18
454.533	5.19
454.737	5.2
454.94	5.18
455.144	4.96
455.348	4.98
455.551	4.89
455.755	4.71
455.958	4.78
456.162	5.14
456.365	5.26
456.569	4.94
456.772	5.17
456.976	5.21
457.179	5.23
457.383	5.31
457.586	5.52
457.79	5.55
457.993	5.22
458.196	5.16
458.4	5.04
458.603	5.06
458.807	5.16
459.01	4.95
459.213	4.96
459.417	4.85
459.62	4.82
459.823	4.77
460.026	4.57
460.23	4.77
460.433	4.69
460.636	4.88
460.839	4.9
461.042	4.77
461.246	4.9
461.449	4.99
461.652	5
461.855	5.13
462.058	5.12
462.261	5.23
462.464	5.41
462.668	5.48
462.871	5.22
463.074	5.09
463.277	5.29
463.48	5.22
463.683	4.96
463.886	4.88
464.089	4.68
464.292	4.74
464.495	4.87
464.698	4.69
464.901	4.82
465.104	4.69
465.306	4.54
465.509	4.58
465.712	4.56
465.915	4.63
466.118	4.64
466.321	4.64
466.524	4.54
466.726	4.57
466.929	4.6
467.132	4.17
467.335	4.21
467.538	4.3
467.74	4.19
467.943	4.3
468.146	4.34
468.348	4.41
468.551	4.3
468.754	4.36
468.956	4.47
469.159	4.54
469.362	4.73
469.564	4.76
469.767	4.68
469.969	4.88
470.172	4.75
470.375	4.79
470.577	4.92
470.78	4.74
470.982	4.9
471.185	4.51
471.387	4.56
471.59	4.75
471.792	4.87
471.995	4.94
472.197	4.79
472.399	4.91
472.602	4.91
472.804	4.79
473.007	4.93
473.209	4.67
473.411	4.79
473.614	4.59
473.816	4.55
474.018	4.32
474.22	4.34
474.423	4.36
474.625	4.48
474.827	4.56
475.03	4.65
475.232	4.76
475.434	4.79
475.636	4.67
475.838	4.78
476.04	4.71
476.243	4.92
476.445	4.92
476.647	4.94
476.849	4.68
477.051	4.65
477.253	4.75
477.455	4.66
477.657	4.62
477.859	4.91
478.061	4.94
478.263	5.12
478.465	5.06
478.667	4.97
478.869	4.8
479.071	5.1
479.273	4.98
479.475	4.88
479.677	4.77
479.879	4.84
480.081	4.64
480.283	4.52
480.485	4.37
480.686	4.42
480.888	4.59
481.09	4.62
481.292	4.47
481.494	4.54
481.695	4.64
481.897	4.74
482.099	4.71
482.301	4.8
482.502	4.91
482.704	4.85
482.906	4.79
483.107	4.74
483.309	4.7
483.511	4.67
483.712	4.61
483.914	4.55
484.115	4.54
484.317	4.55
484.519	4.51
484.72	4.43
484.922	4.43
485.123	4.44
485.325	4.42
485.526	4.46
485.728	4.48
485.929	4.51
486.131	4.52
486.332	4.55
486.534	4.53
486.735	4.54
486.936	4.57
487.138	4.55
487.339	4.54
487.541	4.54
487.742	4.59
487.943	4.61
488.144	4.6
488.346	4.59
488.547	4.62
488.748	4.63
488.95	4.64
489.151	4.67
489.352	4.72
489.553	4.83
489.755	4.95
489.956	4.97
490.157	4.94
490.358	4.95
490.559	4.92
490.76	4.87
490.961	4.84
491.163	4.92
491.364	4.81
491.565	4.7
491.766	4.59
491.967	4.39
492.168	4.41
492.369	4.41
492.57	4.5
492.771	4.52
492.972	4.52
493.173	4.61
493.374	4.52
493.575	4.66
493.776	4.75
493.976	4.77
494.177	4.91
494.378	4.77
494.579	4.97
494.78	4.92
494.981	5.1
495.182	5.11
495.382	4.93
495.583	4.92
495.784	4.76
495.985	4.75
496.185	4.79
496.386	4.64
496.587	4.59
496.788	4.46
496.988	4.47
497.189	4.34
497.39	4.41
497.59	4.48
497.791	4.43
497.992	4.52
498.192	4.58
498.393	4.57
498.593	4.71
498.794	4.92
498.994	4.89
499.195	4.83
499.395	5.06
499.596	5.11
499.796	5.2
499.997	5.24
500.197	5.28
500.398	5.53
500.598	5.4
500.799	5.47
500.999	5.26
501.199	5.13
501.4	5.11
501.6	4.78
501.801	4.72
502.001	4.57
502.201	4.66
502.402	4.58
502.602	4.52
502.802	4.72
503.002	4.58
503.203	4.72
503.403	4.85
503.603	4.92
503.803	4.92
504.003	4.97
504.204	5
504.404	4.86
504.604	5.06
504.804	4.73
505.004	4.89
505.204	5.12
505.404	5.13
505.604	5.2
505.804	5.22
506.005	5.31
506.205	5.25
506.405	5.27
506.605	5.27
506.805	5.25
507.005	5.42
507.204	5.24
507.404	5.22
507.604	5.26
507.804	5.18
508.004	5.2
508.204	5
508.404	4.89
508.604	4.8
508.804	4.9
509.003	4.76
509.203	4.78
509.403	4.89
509.603	4.76
509.803	4.65
510.002	4.61
510.202	4.6
510.402	4.84
510.602	4.97
510.801	5.09
511.001	4.98
511.201	5.08
511.4	5.09
511.6	4.8
511.8	4.82
511.999	4.93
512.199	4.92
512.398	4.81
512.598	4.84
512.797	4.92
512.997	4.85
513.197	5.16
513.396	5.19
513.596	5.37
513.795	5.57
513.994	5.57
514.194	5.56
514.393	5.61
514.593	5.89
514.792	5.83
514.992	5.82
515.191	5.95
515.39	5.74
515.59	5.6
515.789	5.26
515.988	5.4
516.188	5.44
516.387	5.34
516.586	5.29
516.786	5.22
516.985	5.2
517.184	5.14
517.383	5.17
517.582	5.18
517.782	5.25
517.981	5.33
518.18	5.25
518.379	5.24
518.578	5.24
518.777	5.35
518.976	5.21
519.176	5.19
519.375	5.17
519.574	5.14
519.773	5.1
519.972	4.98
520.171	5.05
520.37	5.01
520.569	5
520.768	5.16
520.967	5.05
521.166	5.17
521.365	5.33
521.564	5.34
521.762	5.24
521.961	5.22
522.16	5.33
522.359	5.29
522.558	5.41
522.757	5.52
522.956	5.47
523.154	5.53
523.353	5.47
523.552	5.41
523.751	5.41
523.949	5.44
524.148	5.6
524.347	5.48
524.546	5.46
524.744	5.42
524.943	5.36
525.142	5.25
525.34	5.26
525.539	5.34
525.737	5.37
525.936	5.4
526.135	5.44
526.333	5.32
526.532	5.58
526.73	5.55
526.929	5.54
527.127	5.5
527.326	5.46
527.524	5.4
527.723	5.33
527.921	5.33
528.12	5.38
528.318	5.32
528.516	5.32
528.715	5.22
528.913	5.21
529.112	5.17
529.31	5.14
529.508	5.19
529.707	5.25
529.905	5.3
530.103	5.28
530.301	5.24
530.5	5.31
530.698	5.41
530.896	5.37
531.094	5.32
531.293	5.39
531.491	5.49
531.689	5.48
531.887	5.42
532.085	5.42
532.283	5.43
532.481	5.48
532.68	5.5
532.878	5.41
533.076	5.44
533.274	5.55
533.472	5.57
533.67	5.6
533.868	5.59
534.066	5.56
534.264	5.5
534.462	5.48
534.66	5.44
534.858	5.42
535.056	5.43
535.253	5.55
535.451	5.63
535.649	5.69
535.847	5.7
536.045	5.72
536.243	5.86
536.441	5.87
536.638	5.81
536.836	5.75
537.034	5.71
537.232	5.84
537.43	5.74
537.627	5.71
537.825	5.65
538.023	5.6
538.22	5.58
538.418	5.52
538.616	5.54
538.813	5.56
539.011	5.59
539.209	5.61
539.406	5.54
539.604	5.55
539.801	5.53
539.999	5.56
540.196	5.55
540.394	5.64
540.591	5.6
540.789	5.65
540.986	5.81
541.184	5.8
541.381	5.76
541.579	5.69
541.776	5.69
541.974	5.69
542.171	5.72
542.368	5.71
542.566	5.7
542.763	5.74
542.96	5.75
543.158	5.73
543.355	5.8
543.552	5.92
543.75	6.04
543.947	6.1
544.144	6.04
544.341	5.98
544.539	6.11
544.736	6.15
544.933	6.2
545.13	6.11
545.327	6.13
545.524	6.18
545.722	6.28
545.919	6.11
546.116	6.04
546.313	6.26
546.51	6.27
546.707	6.17
546.904	6.19
547.101	6.14
547.298	6.32
547.495	6.36
547.692	6.35
547.889	6.09
548.086	6.29
548.283	6.53
548.48	6.37
548.677	6.59
548.874	6.71
549.07	6.69
549.267	6.93
549.464	6.99
549.661	6.88
549.858	6.86
550.055	7.29
550.251	7.45
550.448	7.5
550.645	7.54
550.842	7.49
551.038	7.5
551.235	7.51
551.432	7.43
551.628	7.4
551.825	7.5
552.022	7.4
552.218	7.25
552.415	7.16
552.612	7.08
552.808	7.11
553.005	7.13
553.201	7.32
553.398	7.32
553.594	7.32
553.791	7.37
553.987	7.41
554.184	7.54
554.38	7.61
554.577	7.59
554.773	7.79
554.97	7.91
555.166	7.86
555.362	7.7
555.559	7.77
555.755	7.84
555.952	7.79
556.148	7.68
556.344	7.45
556.541	7.56
556.737	7.75
556.933	7.54
557.129	7.76
557.326	8.04
557.522	8.29
557.718	8.45
557.914	8.8
558.11	8.93
558.307	9.22
558.503	9.44
558.699	9.28
558.895	9.15
559.091	9.35
559.287	9.17
559.483	9.18
559.679	8.93
559.876	8.81
560.072	8.46
560.268	8.5
560.464	8.41
560.66	8.72
560.856	8.93
561.052	9.01
561.247	8.84
561.443	8.7
561.639	8.44
561.835	8.5
562.031	8.71
562.227	8.86
562.423	8.98
562.619	8.97
562.815	8.91
563.01	8.89
563.206	9.18
563.402	9.2
563.598	9.48
563.793	9.48
563.989	9.67
564.185	9.53
564.381	9.52
564.576	9.39
564.772	9.41
564.968	9.24
565.163	9.24
565.359	9.19
565.555	9.13
565.75	8.87
565.946	9.03
566.141	9.05
566.337	9.02
566.532	8.84
566.728	8.91
566.923	8.77
567.119	8.92
567.314	9.01
567.51	8.99
567.705	9.12
567.901	9.37
568.096	9.45
568.292	9.44
568.487	9.43
568.682	9.57
568.878	9.52
569.073	10.06
569.268	10.13
569.464	10.01
569.659	9.91
569.854	9.98
570.05	9.98
570.245	9.82
570.44	9.76
570.635	9.93
570.831	10.02
571.026	10.01
571.221	9.78
571.416	9.87
571.611	9.94
571.806	9.82
572.002	9.83
572.197	9.9
572.392	10.03
572.587	10.24
572.782	10.29
572.977	10.36
573.172	10.52
573.367	10.43
573.562	10.35
573.757	10.28
573.952	10.51
574.147	10.56
574.342	10.47
574.537	10.46
574.732	10.34
574.927	10.37
575.121	10.51
575.316	10.46
575.511	10.46
575.706	10.59
575.901	10.73
576.096	10.66
576.29	10.56
576.485	10.67
576.68	10.67
576.875	10.82
577.069	10.71
577.264	10.71
577.459	10.66
577.654	10.81
577.848	10.61
578.043	10.58
578.238	10.53
578.432	10.7
578.627	10.64
578.821	10.93
579.016	10.93
579.21	11.03
579.405	10.94
579.6	11.12
579.794	11.1
579.989	11.24
580.183	11.24
580.378	11.33
580.572	11.45
580.766	11.46
580.961	11.13
581.155	10.89
581.35	11.05
581.544	10.93
581.738	10.88
581.933	10.98
582.127	10.95
582.321	11.05
582.516	11.03
582.71	11.14
582.904	11.32
583.099	11.45
583.293	11.64
583.487	11.54
583.681	11.23
583.875	11.14
584.07	11.26
584.264	11.24
584.458	11.11
584.652	11.18
584.846	10.87
585.04	10.51
585.234	10.73
585.428	10.85
585.623	11.01
585.817	11.29
586.011	11.52
586.205	11.13
586.399	11.23
586.593	11.58
586.787	11.61
586.981	11.57
587.174	11.56
587.368	11.34
587.562	11.48
587.756	11.37
587.95	11.38
588.144	11.37
588.338	11.67
588.532	11.64
588.725	11.3
588.919	11.16
589.113	11.29
589.307	11.36
589.501	11.5
589.694	11.3
589.888	11.31
590.082	11.42
590.275	11.29
590.469	11.25
590.663	11.17
590.856	11.52
591.05	11.88
591.244	12.03
591.437	12.27
591.631	12.3
591.824	12.1
592.018	11.79
592.212	11.91
592.405	12.06
592.599	11.94
592.792	12.18
592.986	12.03
593.179	11.75
593.372	11.85
593.566	11.55
593.759	11.34
593.953	11.66
594.146	11.89
594.339	11.68
594.533	11.5
594.726	11.41
594.92	11.33
595.113	11.45
595.306	11.45
595.499	11.38
595.693	11.72
595.886	12.08
596.079	12.01
596.272	12.2
596.466	12.2
596.659	12.5
596.852	12.73
597.045	12.39
597.238	12.19
597.431	12.07
597.624	11.79
597.818	11.59
598.011	11.58
598.204	11.46
598.397	11.32
598.59	11.35
598.783	11.24
598.976	11.23
599.169	11.36
599.362	11.34
599.555	11.55
599.748	11.97
599.941	12.29
600.134	11.91
600.326	11.86
600.519	11.91
600.712	12.12
600.905	11.96
601.098	11.9
601.291	12.08
601.483	12.23
601.676	12.02
601.869	12.03
602.062	11.72
602.255	11.84
602.447	11.93
602.64	11.89
602.833	11.77
603.025	11.83
603.218	11.73
603.411	12.02
603.603	12.01
603.796	12.22
603.989	12.12
604.181	12.15
604.374	12.25
604.566	12.36
604.759	12.25
604.951	12.2
605.144	12.24
605.336	12.24
605.529	11.94
605.721	11.85
605.914	11.88
606.106	11.69
606.299	11.56
606.491	11.63
606.683	11.3
606.876	11.57
607.068	11.74
607.26	11.68
607.453	11.63
607.645	11.78
607.837	11.66
608.03	11.57
608.222	11.65
608.414	11.96
608.606	11.69
608.799	12.05
608.991	11.86
609.183	11.86
609.375	11.67
609.567	11.71
609.759	11.59
609.952	11.86
610.144	11.8
610.336	11.84
610.528	11.83
610.72	11.87
610.912	11.63
611.104	11.59
611.296	11.61
611.488	11.78
611.68	11.86
611.872	11.98
612.064	11.96
612.256	11.92
612.448	12.11
612.64	11.89
612.832	11.92
613.023	11.78
613.215	11.93
613.407	11.54
613.599	11.55
613.791	11.61
613.983	11.31
614.174	11.18
614.366	11.67
614.558	11.61
614.75	11.98
614.941	11.98
615.133	12.29
615.325	12.28
615.516	12.41
615.708	12.32
615.9	12.52
616.091	12.8
616.283	12.87
616.475	12.37
616.666	12.24
616.858	11.95
617.049	11.86
617.241	11.88
617.432	11.91
617.624	12.09
617.815	12
618.007	11.89
618.198	12.02
618.39	11.8
618.581	12.11
618.773	12.47
618.964	12.56
619.155	12.65
619.347	12.8
619.538	12.57
619.729	12.26
619.921	12.73
620.112	12.82
620.303	13.04
620.494	13.23
620.686	13.45
620.877	13.34
621.068	13.03
621.259	13.22
621.451	12.85
621.642	13.11
621.833	13.44
622.024	13.23
622.215	13.38
622.406	13.12
622.597	13.18
622.788	12.85
622.98	12.61
623.171	12.96
623.362	12.77
623.553	12.87
623.744	12.78
623.935	12.92
624.126	12.7
624.317	12.36
624.508	12.33
624.698	12.26
624.889	11.72
625.08	11.58
625.271	11.46
625.462	11.28
625.653	11.5
625.844	11.54
626.034	11.31
626.225	11.27
626.416	11.34
626.607	11.66
626.798	11.71
626.988	12.07
627.179	12.26
627.37	12.14
627.56	12.29
627.751	12.24
627.942	12.05
628.132	12.2
628.323	12.37
628.514	12.08
628.704	11.84
628.895	11.81
629.085	11.84
629.276	11.88
629.466	11.9
629.657	11.72
629.847	11.69
630.038	12.08
630.228	12.02
630.419	11.83
630.609	12.3
630.8	12.14
630.99	12.23
631.181	12.34
631.371	12.23
631.561	12.58
631.752	12.84
631.942	12.71
632.132	12.35
632.323	12.37
632.513	12.81
632.703	12.45
632.893	12.52
633.084	12.46
633.274	12.43
633.464	12.59
633.654	12.61
633.844	12.47
634.034	12.7
634.225	12.76
634.415	12.46
634.605	12.5
634.795	12.67
634.985	12.34
635.175	12.21
635.365	12.2
635.555	12.04
635.745	11.96
635.935	11.97
636.125	11.92
636.315	12.08
636.505	12.41
636.695	12.02
636.885	12.02
637.075	12.42
637.265	12.29
637.455	12.38
637.644	12.29
637.834	12.18
638.024	12.11
638.214	11.95
638.404	11.85
638.593	11.54
638.783	11.12
638.973	11.06
639.163	11.02
639.352	11.24
639.542	11.24
639.732	11.34
639.921	11.63
640.111	12.16
640.301	12.25
640.49	12.43
640.68	12.6
640.87	13.54
641.059	13.75
641.249	13.86
641.438	13.62
641.628	13.51
641.817	13.71
642.007	13.48
642.196	13.35
642.386	13.22
642.575	13.17
642.764	13.4
642.954	13.23
643.143	13.45
643.333	13.56
643.522	13.73
643.711	13.77
643.901	13.92
644.09	14.01
644.279	13.94
644.469	13.81
644.658	13.57
644.847	13.48
645.036	13.27
645.226	12.76
645.415	12.72
645.604	12.79
645.793	12.88
645.982	12.66
646.171	12.68
646.361	12.48
646.55	12.82
646.739	13.17
646.928	13.1
647.117	13.27
647.306	13.2
647.495	12.58
647.684	13.1
647.873	13.17
648.062	13.09
648.251	13.01
648.44	13.53
648.629	13.62
648.818	13.37
649.007	13.47
649.196	13.29
649.384	13.21
649.573	13.65
649.762	12.99
649.951	12.65
650.14	12.46
650.328	12.45
650.517	12.03
650.706	11.95
650.895	12.05
651.083	12.07
651.272	12.26
651.461	12.48
651.65	12.73
651.838	13.03
652.027	13.27
652.216	13.77
652.404	13.62
652.593	13.74
652.781	13.35
652.97	13.33
653.158	13.22
653.347	12.83
653.535	12.98
653.724	12.58
653.912	12.31
654.101	12.2
654.289	11.76
654.478	12.05
654.666	12.14
654.855	12.02
655.043	12.15
655.231	12.28
655.42	12.5
655.608	12.15
655.796	12.5
655.985	12.42
656.173	12.61
656.361	11.82
656.55	11.65
656.738	11.76
656.926	12.03
657.114	12.01
657.302	11.91
657.491	12.26
657.679	12.21
657.867	12.1
658.055	12.12
658.243	12.16
658.431	13.11
658.619	13.06
658.807	12.84
658.996	12.83
659.184	12.74
659.372	12.67
659.56	12.25
659.748	12.56
659.936	12.37
660.124	12.64
660.311	12.61
660.499	12.6
660.687	12.75
660.875	12.71
661.063	12.67
661.251	12.65
661.439	12.95
661.627	13.23
661.814	13.23
662.002	13.53
662.19	13.19
662.378	13.2
662.565	13.19
662.753	13.14
662.941	12.92
663.129	13.22
663.316	12.89
663.504	12.92
663.692	13
663.879	12.94
664.067	13.5
664.254	13.33
664.442	13.15
664.63	12.62
664.817	12.84
665.005	12.85
665.192	12.92
665.38	13.27
665.567	13.21
665.755	12.95
665.942	12.96
666.13	12.06
666.317	12.66
666.504	12.69
666.692	13.36
666.879	13.14
667.067	13.59
667.254	13.25
667.441	13.36
667.629	12.8
667.816	12.54
668.003	12.15
668.19	12.23
668.378	12.12
668.565	11.88
668.752	11.15
668.939	10.89
669.127	10.68
669.314	10.63
669.501	10.54
669.688	10.29
669.875	10.85
670.062	10.88
670.249	10.85
670.436	10.41
670.623	10.53
670.81	11.64
670.997	11.66
671.184	11.93
671.371	12.45
671.558	12.64
671.745	13.03
671.932	12.66
672.119	12.94
672.306	12.94
672.493	13.25
672.68	13.34
672.867	12.95
673.054	13.06
673.24	12.96
673.427	12.69
673.614	12.83
673.801	12.77
673.988	13.22
674.174	13.36
674.361	13.47
674.548	13.89
674.734	13.92
674.921	13.96
675.108	14.12
675.294	14.11
675.481	14.3
675.668	13.84
675.854	14.27
676.041	13.84
676.227	13.98
676.414	13.79
676.601	13.64
676.787	13.6
676.974	13.34
677.16	13.45
677.347	13.23
677.533	12.92
677.719	12.99
677.906	12.94
678.092	12.83
678.279	12.71
678.465	12.64
678.651	12.74
678.838	12.37
679.024	12.45
679.21	12.04
679.397	12.3
679.583	12.44
679.769	12.48
679.955	12.68
680.142	13.11
680.328	13.21
680.514	13.49
680.7	13.36
680.886	13.55
681.073	13.34
681.259	13.43
681.445	13.35
681.631	13.11
681.817	13.4
682.003	13.21
682.189	13.04
682.375	12.78
682.561	13.09
682.747	13.02
682.933	13.09
683.119	13.04
683.305	13.15
683.491	13.22
683.677	13.58
683.863	13.56
684.049	13.09
684.235	12.8
684.42	12.69
684.606	12.21
684.792	12.29
684.978	12.53
685.164	12.24
685.349	12.19
685.535	11.64
685.721	11.46
685.907	11.09
686.092	11.48
686.278	11.83
686.464	12.06
686.649	12.45
686.835	12.07
687.021	11.68
687.206	12.38
687.392	12.52
687.577	12.98
687.763	13.11
687.948	12.59
688.134	12.32
688.319	12.23
688.505	12.63
688.69	12.51
688.876	13.28
689.061	13.56
689.247	13.19
689.432	13.11
689.618	13.25
689.803	13.4
689.988	13.86
690.174	14.16
690.359	14.12
690.544	14.11
690.73	13.61
690.915	12.84
691.1	12.45
691.285	12.55
691.471	12.56
691.656	12.67
691.841	12.83
692.026	13.34
692.211	13.32
692.396	13.22
692.582	12.97
692.767	13.24
692.952	13.42
693.137	13.32
693.322	13.23
693.507	13.34
693.692	12.73
693.877	12.34
694.062	11.38
694.247	12.65
694.432	13.17
694.617	12.51
694.802	12.66
694.987	13.15
695.172	13.69
695.357	14.28
695.541	13.88
695.726	13.92
695.911	14.01
696.096	14.46
696.281	12.96
696.466	12.78
696.65	13.49
696.835	13.06
697.02	13.71
697.204	13.44
697.389	12.9
697.574	12.62
697.759	12.78
697.943	11.97
698.128	12.03
698.312	12.1
698.497	11.93
698.682	11.68
698.866	12.08
699.051	11.48
699.235	11.54
699.42	12.17
699.604	12.75
699.789	12.74
699.973	13.42
700.158	13.74
700.342	14.05
700.527	13.87
700.711	13.93
700.895	13.73
701.08	13.97
701.264	14
701.448	13.35
701.633	13.49
701.817	13.92
702.001	13.42
702.186	13.1
702.37	13.03
702.554	13.36
702.738	13.85
702.923	14.35
703.107	14.71
703.291	15.4
703.475	15.03
703.659	14.28
703.843	13.97
704.027	15.04
704.212	14.46
704.396	14.44
704.58	15.32
704.764	15.24
704.948	15.24
705.132	14.05
705.316	13.87
705.5	14.37
705.684	15.54
705.868	15.73
706.052	15.69
706.235	16.6
706.419	16.85
706.603	15.75
706.787	14.75
706.971	14.7
707.155	15.28
707.339	15.63
707.522	16.16
707.706	15.83
707.89	15.08
708.074	14.54
708.257	15.33
708.441	15.45
708.625	15.95
708.808	16.55
708.992	16.35
709.176	16.48
709.359	16.29
709.543	15.86
709.727	15.72
709.91	16.1
710.094	16.73
710.277	16.02
710.461	15.93
710.644	15.99
710.828	16.2
711.011	16.17
711.195	16.14
711.378	16.22
711.562	16.36
711.745	16.22
711.928	16.57
712.112	16.9
712.295	17.02
712.478	16.96
712.662	17.22
712.845	17.29
713.028	17.28
713.212	17.52
713.395	16.23
713.578	16.11
713.761	15.87
713.945	15.29
714.128	14.11
714.311	13.55
714.494	14.1
714.677	14.15
714.86	13.25
715.043	12.94
715.227	12.7
715.41	13.15
715.593	13.64
715.776	14.43
715.959	14.48
716.142	14.55
716.325	14.4
716.508	14.23
716.691	13.46
716.874	13.52
717.057	13.71
717.239	13.36
717.422	14.04
717.605	12.55
717.788	11.75
717.971	11.66
718.154	11.59
718.337	12.38
718.519	11.1
718.702	11.67
718.885	12.04
719.068	12.1
719.25	12.41
719.433	12.26
719.616	13.4
719.798	13.18
719.981	13.22
720.164	14.66
720.346	14.93
720.529	14.68
720.712	15.42
720.894	16.23
721.077	15.68
721.259	14.83
721.442	15.29
721.624	16.16
721.807	16.27
721.989	16.63
722.172	15.31
722.354	14.13
722.537	15.28
722.719	14.66
722.901	14.22
723.084	14.39
723.266	15.83
723.448	15.54
723.631	14.86
723.813	15.9
723.995	16.92
724.178	17.1
724.36	18.21
724.542	18.17
724.724	17.06
724.907	16.87
725.089	16.7
725.271	15.73
725.453	15.44
725.635	15.48
725.817	14.15
725.999	12.68
726.181	12.41
726.364	11.04
726.546	10.65
726.728	12.69
726.91	11.58
727.092	12.41
727.274	12.49
727.456	12.49
727.638	12.19
727.819	13.04
728.001	13.19
728.183	13.85
728.365	13.98
728.547	14.03
728.729	13.39
728.911	14.26
729.093	14.34
729.274	15.16
729.456	15.15
729.638	16.35
729.82	17.03
730.001	16.47
730.183	16.37
730.365	17.14
730.546	17.95
730.728	17.84
730.91	18.04
731.091	17.96
731.273	18.13
731.455	17.88
731.636	16.48
731.818	14.87
731.999	16.05
732.181	15.77
732.362	15.48
732.544	15.44
732.725	14.48
732.907	14.15
733.088	14.1
733.27	13.72
733.451	13.55
733.633	13.84
733.814	14.52
733.995	15.36
734.177	15.18
734.358	15.53
734.539	15.62
734.721	17.32
734.902	18.85
735.083	19.32
735.264	18.54
735.446	18.98
735.627	19.89
735.808	19.59
735.989	17.75
736.17	17.62
736.351	18.25
736.533	16.94
736.714	16.45
736.895	16.03
737.076	16.17
737.257	16.8
737.438	16.25
737.619	14.3
737.8	14.97
737.981	16.29
738.162	17.2
738.343	16.36
738.524	16.57
738.705	16.83
738.886	16.35
739.067	16.11
739.247	15.32
739.428	16.77
739.609	17.99
739.79	18.23
739.971	17.53
740.151	16.86
740.332	16.73
740.513	18.19
740.694	17.01
740.874	17.1
741.055	16.11
741.236	17.59
741.417	16.08
741.597	15.93
741.778	16.15
741.958	17.84
742.139	18.58
742.32	19.76
742.5	20.27
742.681	20.79
742.861	21.55
743.042	20.68
743.222	19.54
743.403	19.54
743.583	19.01
743.764	19.27
743.944	18.15
744.124	18.4
744.305	16.88
744.485	16.45
744.666	17.11
744.846	15.94
745.026	17.38
745.207	17.69
745.387	18.38
745.567	19.67
745.747	18.88
745.928	17.42
746.108	15.87
746.288	16.99
746.468	15.63
746.648	13.69
746.829	13.64
747.009	14.1
747.189	13.58
747.369	13.85
747.549	14.2
747.729	13.6
747.909	14.74
748.089	16.84
748.269	16.41
748.449	16.42
748.629	16.2
748.809	16.78
748.989	16.33
749.169	16.7
749.349	16.58
749.529	15.13
749.709	14.96
749.889	14.65
750.068	12.39
750.248	11.49
750.428	12.38
750.608	13.45
750.788	12.99
750.967	13.45
751.147	14.33
751.327	15.19
751.507	15.62
751.686	16.34
751.866	16.38
752.046	17.47
752.225	18.09
752.405	18.32
752.585	17.62
752.764	18.24
752.944	18.73
753.123	18.27
753.303	18.21
753.482	17.61
753.662	18.34
753.841	20.22
754.021	19.9
754.2	19.08
754.38	19.54
754.559	21.64
754.739	21.24
754.918	18.74
755.097	18.58
755.277	17.73
755.456	16.35
755.635	14.98
755.815	12.2
755.994	13.05
756.173	14.67
756.352	13.83
756.532	13.17
756.711	12.56
756.89	15.26
757.069	15.87
757.248	16.66
757.427	19.88
757.607	20.6
757.786	21.69
757.965	21.69
758.144	21.05
758.323	20.53
758.502	18.49
758.681	18.52
758.86	18.36
759.039	18.37
759.218	17.19
759.397	16.23
759.576	16
759.755	14.89
759.934	13.81
760.113	13.94
760.291	14.09
760.47	15.26
760.649	15.91
760.828	14.46
761.007	12.84
761.186	13.7
761.364	13.34
761.543	12.56
761.722	13.14
761.901	11.75
762.079	11.7
762.258	11.66
762.437	9.89
762.615	10.42
762.794	10.38
762.972	10.87
763.151	11.32
763.33	11.79
763.508	13.21
763.687	13.46
763.865	14.7
764.044	14.7
764.222	14.57
764.401	15.6
764.579	14.61
764.758	15.59
764.936	16.24
765.114	16.1
765.293	16.23
765.471	15.23
765.65	15.54
765.828	16.56
766.006	16.2
766.184	17.46
766.363	17.69
766.541	17.79
766.719	17.77
766.898	18.64
767.076	19.19
767.254	18.38
767.432	19.4
767.61	19.65
767.788	18.51
767.967	18.52
768.145	16.71
768.323	19.18
768.501	21.14
768.679	21.09
768.857	19.61
769.035	18.67
769.213	19.97
769.391	22.13
769.569	21.17
769.747	22.33
769.925	21.94
770.103	22.46
770.281	21.92
770.459	21.66
770.636	22.25
770.814	23.08
770.992	23.38
771.17	23.43
771.348	20.85
771.525	22.11
771.703	21.28
771.881	24.74
772.059	24.89
772.236	23.99
772.414	22.36
772.592	20.65
772.769	19.93
772.947	19.89
773.125	20.04
773.302	21.02
773.48	19.97
773.657	18.47
773.835	15.4
774.013	16.3
774.19	16.25
774.368	19.62
774.545	20.69
774.723	20.92
774.9	20.03
775.077	21.43
775.255	19.7
775.432	21.76
775.61	23.8
775.787	26.43
775.964	24.77
776.142	23.61
776.319	23.03
776.496	24.92
776.674	24.77
776.851	24.7
777.028	22.98
777.205	24.9
777.382	22.88
777.56	21.86
777.737	19.3
777.914	20.89
778.091	22.16
778.268	22.23
778.445	20.7
778.622	22.22
778.8	23.9
778.977	23.26
779.154	21.22
779.331	22.63
779.508	21.48
779.685	22.78
779.862	22.62
780.038	22.42
780.215	22.54
780.392	21.29
780.569	23.5
780.746	21.93
780.923	22.36
781.1	23.94
781.277	23.74
781.453	27.1
781.63	26.46
781.807	26.04
781.984	23.94
782.16	23.92
782.337	27
782.514	21.96
782.691	22.34
782.867	22.07
783.044	19.84
783.221	20.62
783.397	18.76
783.574	19.62
783.75	20.03
783.927	21.85
784.103	20.84
784.28	18.79
784.456	21.66
784.633	23.67
784.809	21.02
784.986	20.64
785.162	20.34
785.339	21.66
785.515	20.69
785.692	20.02
785.868	21.03
786.044	22.5
786.221	23.85
786.397	21.5
786.573	20.62
786.749	22.99
786.926	24.26
787.102	22.62
787.278	20.1
787.454	20.56
787.631	19.48
787.807	20.28
787.983	16.83
788.159	17.12
788.335	20.41
788.511	22.15
788.687	22.36
788.863	24.94
789.039	24.45
789.216	27.66
789.392	26
789.568	29.54
789.744	28.97
789.919	29.61
790.095	28.15
790.271	29.77
790.447	28.73
790.623	29.04
790.799	27.08
790.975	27.97
791.151	27.21
791.327	29.46
791.502	24.48
791.678	24.17
791.854	27.21
792.03	27.3
792.205	25.45
792.381	23.7
792.557	26.15
792.733	26.65
792.908	27.81
793.084	26.46
793.259	27.29
793.435	33.51
793.611	34.17
793.786	35
793.962	35.07
794.137	34.43
794.313	35.19
794.488	35.18
794.664	34.1
794.839	33.04
795.015	35.76
795.19	35.54
795.366	32.57
795.541	30.52
795.716	26.2
795.892	27.31
796.067	25.66
796.242	26.32
796.418	25.4
796.593	25.16
796.768	23.78
796.944	20.31
797.119	22.73
797.294	22.6
797.469	22.51
797.644	24.22
797.82	23.79
797.995	24.45
798.17	22.03
798.345	19.13
798.52	19.43
798.695	18.99
798.87	20.87
799.045	17.11
799.22	17.87
799.395	17.76
799.57	17.15
799.745	16.41
799.92	14.88
800.095	15.29
800.27	12.32
800.445	14.8
800.62	19.01
800.795	21.49
800.97	21.54
801.145	21.64
801.319	21.42
801.494	21.15
801.669	22.81
801.844	22.14
802.018	24.77
802.193	27.75
802.368	23.49
802.543	23.77
802.717	22.23
802.892	22.58
803.067	20.21
803.241	20.15
803.416	19.33
803.59	19.7
803.765	23.84
803.94	24.27
804.114	25.68
804.289	27.32
804.463	26.92
804.638	25
804.812	23.64
804.986	24.63
805.161	25.93
805.335	30.3
805.51	29.61
805.684	27.35
805.858	27.22
806.033	27.13
806.207	27.13
806.381	26.66
806.556	25.56
806.73	26.39
806.904	26.84
807.078	24.82
807.253	19.39
807.427	21.1
807.601	25.11
807.775	19.49
807.949	20.03
808.123	19.72
808.298	20.32
808.472	19.02
808.646	26.06
808.82	26.19
808.994	26.58
809.168	30.72
809.342	30.64
809.516	28.28
809.69	33.67
809.864	32.17
810.038	32.4
810.212	31.43
810.385	35.37
810.559	29.67
810.733	32.97
810.907	35.02
811.081	32.6
811.255	30.89
811.428	31.59
811.602	31.49
811.776	32.15
811.95	38.7
812.123	38.03
812.297	36.32
812.471	36.89
812.644	36.56
812.818	35.11
812.992	36.36
813.165	36.46
813.339	34.5
813.512	35.85
813.686	35.14
813.86	32.03
814.033	35.29
814.207	36.98
814.38	34.62
814.554	30.85
814.727	30.4
814.9	28.39
815.074	29.04
815.247	25.85
815.421	18.17
815.594	15.09
815.767	11.5
815.941	4.45
816.114	5.93
816.287	6.32
816.46	14
816.634	16.14
816.807	16.1
816.98	13.46
817.153	16.6
817.327	19.22
817.5	17.63
817.673	17.71
817.846	16.13
818.019	13.19
818.192	11.93
818.365	5.5
818.538	3.56
818.711	1.86
818.884	5.35
819.057	6.57
819.23	9.5
819.403	8.42
819.576	6.22
819.749	6.1
819.922	8.27
820.095	8.43
820.268	10.24
820.441	15.47
820.614	15.45
820.786	12.12
820.959	12.61
821.132	11.4
821.305	15.06
821.477	14.93
821.65	16.42
821.823	16.18
821.996	16.56
822.168	16.1
822.341	14.34
822.514	15.21
822.686	15.94
822.859	16.52
823.031	16.49
823.204	15.87
823.376	16.73
823.549	15.92
823.722	16.59
823.894	16.1
824.067	15.9
824.239	16.5
824.411	16.27
824.584	16.55
824.756	15.72
824.929	15.37
825.101	14.81
825.273	13.95
825.446	14.72
825.618	13.94
825.79	14.89
825.963	15.34
826.135	14.77
826.307	16.14
826.479	14.78
826.652	14.92
826.824	15.17
826.996	16.72
827.168	17.42
827.34	17.19
827.512	16.67
827.684	17
827.856	17.96
828.029	18.19
828.201	16.3
828.373	17.44
828.545	16.85
828.717	16.23
828.889	17.27
829.061	18.2
829.232	20.45
829.404	22.61
829.576	23.31
829.748	24.02
829.92	22.69
830.092	20.33
830.264	18.31
830.436	16.83
830.607	20.3
830.779	18.44
830.951	15.43
831.123	12.68
831.294	7.8
831.466	3.27
831.638	0.3
831.809	3.53
831.981	13.18
832.153	15.58
832.324	21.56
832.496	19.41
832.667	19.11
832.839	19.84
833.011	21.78
833.182	24.27
833.354	25.57
833.525	24.69
833.697	25.42
833.868	22.14
834.039	23.08
834.211	18.18
834.382	17.08
834.554	19.45
834.725	19.52
834.896	18.65
835.068	19.94
835.239	20.42
835.41	19.87
835.581	17.52
835.753	16.89
835.924	17.96
836.095	22.41
836.266	27.13
836.438	23.88
836.609	22.98
836.78	22.47
836.951	22.07
837.122	24.92
837.293	23.2
837.464	26.85
837.635	26.65
837.806	22.79
837.977	21.21
838.148	20.79
838.319	21.66
838.49	22.67
838.661	25.26
838.832	22.56
839.003	18.55
839.174	28.2
839.345	29.16
839.516	34.76
839.687	39.37
839.857	41.75
840.028	38.62
840.199	36.88
840.37	40.11
840.54	37.29
840.711	40.52
840.882	40.5
841.053	32.95
841.223	36.22
841.394	34.05
841.564	35.47
841.735	35.34
841.906	35.65
842.076	39.64
842.247	36.4
842.417	37.45
842.588	43.71
842.758	50.89
842.929	56.79
843.099	47.33
843.27	53.5
843.44	51.25
843.611	44.11
843.781	44.58
843.951	46.67
844.122	49.76
844.292	46.57
844.462	38.8
844.633	33.92
844.803	29.05
844.973	42.4
845.144	32.88
845.314	35.83
845.484	47.26
845.654	41.48
845.824	45.63
845.995	42.78
846.165	48.61
846.335	42.02
846.505	41.04
846.675	47.84
846.845	47.79
847.015	53.75
847.185	43.95
847.355	27.06
847.525	39.05
847.695	33.06
847.865	29.79
848.035	32.83
848.205	36.31
848.375	59.52
848.545	43.53
848.715	26.84
848.884	0.84
849.054	32.09
849.224	35.69
849.394	41.43
849.564	37.22
849.733	48.72
849.903	45.41
850.073	40.19
850.243	8.95
850.412	16.93
850.582	20.04
850.752	30.09
850.921	23.07
851.091	43.92
851.26	14.59
851.43	25.33
851.599	28.01
851.769	23.98
851.939	29.54
852.108	45.09
852.278	28.27
852.447	52.54
852.616	40.71
852.786	46.15
852.955	43.88
853.125	72.33
853.294	66.23
853.463	53.11
853.633	50.91
853.802	37.24
853.971	24.99
854.141	24.61
854.31	6.05
854.479	16.66
854.648	17.51
854.818	9.56
854.987	-1.89
855.156	-1.29
855.325	24.14
855.494	5.18
855.663	19.93
855.832	30.15
856.001	25.49
856.171	14.36
856.34	22.57
856.509	8.4
856.678	9.66
856.847	6.1
857.016	4.02
857.185	-12.24
857.353	6.04
857.522	8.57
857.691	3.13
857.86	18.91
858.029	34.15
858.198	28.28
858.367	47.83
858.535	45.75
858.704	55.22
858.873	40.63
859.042	44.24
859.21	35.48
859.379	30.26
859.548	33.94
859.717	27.81
859.885	29.07
860.054	34.34
860.222	31.2
860.391	30.15
860.56	25.35
860.728	34.56
860.897	34.02
861.065	38.23
861.234	43.13
861.402	58.05
861.571	82.52
861.739	61.59
861.908	52.15
862.076	48.7
862.244	42.85
862.413	69.15
862.581	90.04
862.749	100.5
862.918	126.03
863.086	99.12
863.254	68.9
863.423	68.84
863.591	77.29
863.759	71.04
863.927	86.6
864.096	90.93
864.264	50.63
864.432	30.19
864.6	18.35
864.768	8.69
864.936	-5.6
865.104	9.92
865.272	-18.82
865.44	-9.56
865.608	11.86
865.776	17.98
865.944	16.75
866.112	13.44
866.28	26.43
866.448	34.41
866.616	32.43
866.784	30.4
866.952	39.54
867.12	49.24
867.288	59.29
867.455	53.67
867.623	52.56
867.791	69.63
867.959	78.56
868.127	60.63
868.294	46.31
868.462	44.25
868.63	34.4
868.797	27.09
868.965	21.79
869.133	4.23
869.3	13.12
869.468	22.55
869.636	4.86
869.803	1.44
869.971	-15.76
870.138	-20.53
870.306	-7.09
870.473	-0.23
870.641	14.37
870.808	16.98
870.975	15.72
871.143	20.86
871.31	-28.31
871.478	-31.05
871.645	-32.51
871.812	-26.85
871.98	6.66
872.147	-6.23
872.314	16.6
872.482	-14.3
872.649	-32.05
872.816	-21.35
872.983	-51.86
873.15	-20.17
873.318	13.47
873.485	15.83
873.652	24.56
873.819	21.78
873.986	24.61
874.153	15.39
874.32	24.45
874.487	44.84
874.654	52.75
874.821	61.27
874.988	64.16
875.155	66.85
875.322	74.15
875.489	77.81
875.656	85.67
875.823	99.82
875.99	120.88
876.157	148.19
876.324	113.49
876.49	103.14
876.657	84.61
876.824	134.76
876.991	90.38
877.157	111.33
877.324	109.51
877.491	124.68
877.658	106.66
877.824	116.94
877.991	105.58
878.157	114.54
878.324	118.57
878.491	124.13
878.657	106.44
878.824	128.06
878.99	108.86
879.157	122.42
879.323	105.77
879.49	97.52
879.656	23.16
879.823	-1.86
879.989	45.85
880.156	24.09
880.322	35.23
880.488	24.6
880.655	15.85
880.821	17.65
880.987	21.58
881.154	19.74
881.32	24.29
881.486	36.31
881.652	35.78
881.819	31.54
881.985	34.67
882.151	30.75
882.317	28.32
882.483	24.97
882.649	26.1
882.816	26.86
882.982	25.38
883.148	18.45
883.314	19.8
883.48	21.29
883.646	21.93
883.812	22.28
883.978	24.55
884.144	24.38
884.31	25.59
884.476	23.69
884.642	21.9
884.807	23.35
884.973	27.15
885.139	25.31
885.305	22.21
885.471	18.39
885.637	16.47
885.802	13.82
885.968	13.63
886.134	15.9
886.3	15.99
886.465	19.16
886.631	18.13
886.797	11.93
886.962	10.66
887.128	12.81
887.293	13.49
887.459	19.56
887.625	26.5
887.79	35.51
887.956	36.46
888.121	40.87
888.287	35.71
888.452	34.35
888.618	49
888.783	56.73
