Data from 2937891_Reflection_2.txt Node
Date: Wed Jul 15 14:23:26 EDT 2015
User: robert
Spectrometer: USB4E03001
Autoset integration time: false
Trigger mode: 4
Integration Time (sec): 1.000000E-1
Scans to average: 10
Electric dark correction enabled: true
Nonlinearity correction enabled: false
Boxcar width: 5
Stray light correction enabled: false
XAxis mode: Wavelengths
Stop averaging: false
Number of Pixels in Spectrum: 3648
>>>>>Begin Spectral Data<<<<<
177.566	9660
177.785	-737.11
178.005	-125.06
178.225	-83.42
178.445	-388.44
178.665	-111.04
178.885	-71.43
179.105	-514.79
179.324	-153.55
179.544	-2137.5
179.764	430.46
179.984	-111.68
180.204	-37.46
180.423	6.4
180.643	29.07
180.863	23.03
181.083	27.9
181.302	55.28
181.522	58.14
181.742	43.99
181.961	49.7
182.181	54.24
182.401	65.05
182.621	60.39
182.84	64.55
183.06	66.33
183.279	56.59
183.499	54
183.719	50.97
183.938	77.64
184.158	79.49
184.377	65.6
184.597	63.79
184.816	60.94
185.036	61.23
185.256	59.55
185.475	62.21
185.695	64.33
185.914	77.42
186.134	68.72
186.353	48.96
186.572	49.6
186.792	27.26
187.011	36.46
187.231	42.78
187.45	38.33
187.67	64.96
187.889	47.53
188.108	51.5
188.328	39.06
188.547	47.76
188.766	47.96
188.986	65.48
189.205	118.37
189.424	84.66
189.644	77.7
189.863	80.23
190.082	72.19
190.302	98.81
190.521	94.11
190.74	88.25
190.959	87.41
191.178	79.85
191.398	62.41
191.617	45.17
191.836	41.47
192.055	-36.92
192.274	-12.93
192.494	-12.01
192.713	-51.3
192.932	-55.74
193.151	-80.74
193.37	-36.76
193.589	-31.89
193.808	6.28
194.027	-1.17
194.246	23.18
194.465	38.01
194.685	86.51
194.904	117.4
195.123	108.47
195.342	55.87
195.561	40.43
195.78	20.23
195.999	36.94
196.218	35.39
196.436	35.34
196.655	47.05
196.874	32.16
197.093	-1.18
197.312	6.19
197.531	26.41
197.75	14.52
197.969	23.62
198.188	49.3
198.407	41.27
198.625	34.14
198.844	72.66
199.063	21.01
199.282	23.65
199.501	59.68
199.719	72.49
199.938	66.41
200.157	133.2
200.376	131.69
200.594	155.65
200.813	119.59
201.032	227.49
201.251	130.21
201.469	542.21
201.688	4126.24
201.907	-461.09
202.125	-350
202.344	18.16
202.563	-29.81
202.781	-24.52
203	-35.84
203.218	-65.14
203.437	77.14
203.656	49050
203.874	-42.04
204.093	-147.98
204.311	-32.61
204.53	-103.4
204.748	34.75
204.967	52.5
205.185	23.49
205.404	-18.15
205.622	-13.15
205.841	-36.7
206.059	8.99
206.278	28.25
206.496	29.01
206.715	89.56
206.933	102.13
207.151	115.07
207.37	95.44
207.588	90.92
207.806	109.33
208.025	65.01
208.243	64.26
208.461	66.2
208.68	71.59
208.898	58.14
209.116	35.9
209.335	11.23
209.553	14.94
209.771	-53.48
209.989	25.66
210.208	86.65
210.426	310.37
210.644	82.79
210.862	-53.51
211.081	-40.27
211.299	245.94
211.517	48.1
211.735	45.73
211.953	64.69
212.171	264.63
212.39	170.86
212.608	-37.74
212.826	29.34
213.044	54.39
213.262	36.28
213.48	46.07
213.698	-241.51
213.916	-46.75
214.134	84
214.352	48.3
214.57	23.19
214.788	-2.96
215.006	25.54
215.224	-134.12
215.442	-258.48
215.66	-100.37
215.878	-51.13
216.096	-37.87
216.314	-286.53
216.532	413.38
216.75	66.41
216.968	-481.36
217.185	-304.38
217.403	-331.29
217.621	-361.23
217.839	-372.7
218.057	-326.85
218.275	808.46
218.492	932.88
218.71	338.77
218.928	360.05
219.146	282.19
219.363	494.48
219.581	311.96
219.799	296.66
220.017	351.06
220.234	390.2
220.452	192.43
220.67	-57.24
220.887	-356.79
221.105	355.83
221.323	234.37
221.54	232.11
221.758	163.33
221.976	224.48
222.193	227.92
222.411	221.6
222.629	226.42
222.846	241.87
223.064	453.49
223.281	535.53
223.499	-818.7
223.716	-467.95
223.934	-165.93
224.151	-64.21
224.369	-37.02
224.586	-29.06
224.804	0.46
225.021	16.51
225.239	-3.87
225.456	-0.07
225.674	8.44
225.891	18.99
226.108	13.66
226.326	7.02
226.543	-1.33
226.76	-8.21
226.978	0.75
227.195	-16.24
227.413	-10.15
227.63	2.77
227.847	7.32
228.064	5.65
228.282	-0.6
228.499	0.38
228.716	5.51
228.934	4.21
229.151	3.49
229.368	3.38
229.585	7.75
229.802	7.44
230.02	4.45
230.237	4
230.454	3.31
230.671	5.07
230.888	3.16
231.105	2.01
231.323	1.8
231.54	-0.05
231.757	-7.33
231.974	-10.01
232.191	-14.3
232.408	-12.28
232.625	-16.07
232.842	-19.09
233.059	-22.18
233.276	-15.62
233.493	-23.84
233.71	-31.34
233.927	-23.56
234.144	-13.54
234.361	-11.8
234.578	-18.54
234.795	-16.9
235.012	-19.02
235.229	-14.88
235.446	-5.45
235.663	-7.29
235.879	-7.74
236.096	-7.79
236.313	-1.91
236.53	-6.32
236.747	-6.54
236.964	6.73
237.181	6.58
237.397	3.39
237.614	1.41
237.831	-5.99
238.048	-11.55
238.264	-4.2
238.481	2.26
238.698	-2.06
238.915	-0.94
239.131	5.03
239.348	1.77
239.565	0.55
239.781	4.92
239.998	9.39
240.215	7.7
240.431	7.71
240.648	4.46
240.865	3.83
241.081	4.33
241.298	4.26
241.514	1.06
241.731	2.48
241.947	5.27
242.164	4.78
242.38	2.79
242.597	4.42
242.814	7.84
243.03	6.47
243.246	7.72
243.463	7.07
243.679	10.37
243.896	11.02
244.112	10.58
244.329	8.95
244.545	8.49
244.762	11.35
244.978	10.23
245.194	8.75
245.411	12.19
245.627	9.02
245.843	8.56
246.06	7.96
246.276	7.7
246.492	7.3
246.709	7.81
246.925	7.56
247.141	6.42
247.357	7.03
247.574	7.3
247.79	5.87
248.006	7.89
248.222	7.47
248.439	5.37
248.655	6.48
248.871	6.4
249.087	6.25
249.303	6.14
249.519	4.67
249.736	5.22
249.952	3.26
250.168	3.21
250.384	0.06
250.6	0.66
250.816	1.42
251.032	-2.8
251.248	-2.56
251.464	-2.31
251.68	-1.68
251.896	-0.56
252.112	-2.11
252.328	0.06
252.544	0.92
252.76	-0.73
252.976	0.69
253.192	2.07
253.408	4.91
253.624	5.62
253.84	7.35
254.056	7.3
254.272	6.9
254.487	6.28
254.703	6.05
254.919	6.05
255.135	6.17
255.351	2.2
255.567	2.02
255.782	-3.02
255.998	-3.05
256.214	-8.05
256.43	-7.41
256.646	-6.15
256.861	-4.77
257.077	-4.19
257.293	-2.57
257.508	0.58
257.724	1.81
257.94	3.88
258.155	3.48
258.371	4.74
258.587	5.68
258.802	6.48
259.018	8.93
259.234	9.52
259.449	8.41
259.665	8.4
259.88	7.8
260.096	7.89
260.312	6.8
260.527	7.73
260.743	7.46
260.958	6.97
261.174	6.98
261.389	5.31
261.605	4.17
261.82	4.1
262.036	4.09
262.251	4.06
262.466	3.38
262.682	3.03
262.897	3.82
263.113	3.68
263.328	4.29
263.543	3.82
263.759	4.99
263.974	6.33
264.189	5.63
264.405	3.05
264.62	1.01
264.835	-0.09
265.051	-1.02
265.266	-2.09
265.481	-2.88
265.696	-1.2
265.912	-1.38
266.127	-1.16
266.342	-2.36
266.557	-1.23
266.773	1.32
266.988	1.32
267.203	3.11
267.418	4.54
267.633	2.95
267.848	2.71
268.064	1.47
268.279	2.34
268.494	0.38
268.709	0.87
268.924	0.03
269.139	-0.56
269.354	2.2
269.569	-0.32
269.784	-0.31
269.999	0.8
270.214	0.91
270.429	1.49
270.644	-0.27
270.859	1.77
271.074	0.85
271.289	3.35
271.504	4.17
271.719	3.46
271.934	5.01
272.149	3.67
272.363	3.05
272.578	2.43
272.793	2.76
273.008	4.29
273.223	5.18
273.438	6.66
273.653	5.63
273.867	3.02
274.082	2.99
274.297	2.45
274.512	3.61
274.726	4.26
274.941	5.8
275.156	5.47
275.371	4.5
275.585	3.54
275.8	1.2
276.015	0.35
276.229	3.98
276.444	2.19
276.659	2.47
276.873	1.5
277.088	2.69
277.302	2.55
277.517	2.87
277.732	3.06
277.946	1.72
278.161	5.01
278.375	6.08
278.59	6.02
278.804	7.01
279.019	7.58
279.233	8.78
279.448	7.5
279.662	7.13
279.877	6.02
280.091	5.62
280.306	4.37
280.52	1.66
280.735	2.53
280.949	0.94
281.163	-0.01
281.378	0.17
281.592	0.33
281.806	-0.73
282.021	-1.57
282.235	-2.7
282.449	-1.95
282.664	-0.1
282.878	-0.95
283.092	-1.66
283.307	-0.24
283.521	0.64
283.735	2.03
283.949	1.49
284.164	4.13
284.378	3.8
284.592	5.23
284.806	4.08
285.02	3.17
285.234	5.47
285.449	5.85
285.663	4.35
285.877	4.22
286.091	3.43
286.305	4.05
286.519	3.08
286.733	4.27
286.947	3.97
287.161	5.56
287.375	6.18
287.589	4.98
287.803	3.31
288.017	4.14
288.231	2.89
288.445	2.95
288.659	3.03
288.873	2.25
289.087	1.27
289.301	2.69
289.515	2.48
289.729	3.36
289.943	4.74
290.157	5.99
290.371	5.44
290.584	8.37
290.798	8.88
291.012	8.51
291.226	9.57
291.44	10.38
291.654	9.96
291.867	9.15
292.081	8.11
292.295	7.21
292.509	5.45
292.722	4.97
292.936	3.05
293.15	1.13
293.364	0.09
293.577	0.22
293.791	0.54
294.005	0.53
294.218	-0.02
294.432	-0.77
294.645	-1.46
294.859	-0.57
295.073	0.33
295.286	1.07
295.5	1.04
295.713	1.98
295.927	0.88
296.14	-0.23
296.354	-1.07
296.568	-0.12
296.781	0.46
296.994	0.81
297.208	1.6
297.421	1.55
297.635	0.96
297.848	1.24
298.062	1.84
298.275	2.26
298.489	3.16
298.702	3.85
298.915	3.67
299.129	4.29
299.342	5.14
299.555	4.74
299.769	5.28
299.982	6.38
300.195	6.25
300.409	5.36
300.622	4.89
300.835	4.12
301.048	3.48
301.262	4.54
301.475	5.23
301.688	3.92
301.901	3.43
302.115	2.34
302.328	0.59
302.541	0.13
302.754	0.85
302.967	1.18
303.18	1.24
303.393	3.44
303.607	2.69
303.82	1.46
304.033	1.5
304.246	3.1
304.459	3.58
304.672	4.55
304.885	6.29
305.098	5.79
305.311	6.16
305.524	4.31
305.737	2.58
305.95	1.84
306.163	1.27
306.376	2.28
306.589	0.44
306.802	0.89
307.015	0.83
307.228	0.15
307.44	1.26
307.653	2.18
307.866	3.43
308.079	4.38
308.292	5.33
308.505	7.9
308.718	7.4
308.93	8.43
309.143	7.86
309.356	9.18
309.569	9.39
309.781	9.21
309.994	10.43
310.207	11.46
310.42	10.64
310.632	11.05
310.845	10.17
311.058	9.86
311.27	9.23
311.483	9.64
311.696	8.84
311.908	8.9
312.121	7.75
312.333	5.72
312.546	5.52
312.759	6.04
312.971	5.23
313.184	5.79
313.396	6.39
313.609	7.85
313.821	7.64
314.034	7.04
314.246	6.94
314.459	7.07
314.671	7.86
314.884	7.28
315.096	7.12
315.309	6.13
315.521	4.14
315.733	3.27
315.946	2.12
316.158	2.14
316.371	1.93
316.583	1.13
316.795	2.52
317.008	1.45
317.22	1.22
317.432	1.03
317.644	2.07
317.857	3.18
318.069	4.18
318.281	3.4
318.494	5.31
318.706	5.31
318.918	5.31
319.13	3.48
319.342	2.2
319.555	2.23
319.767	2.1
319.979	1.46
320.191	2.55
320.403	0.91
320.615	2.9
320.827	0.79
321.039	4.63
321.252	3.95
321.464	4.72
321.676	6.52
321.888	6.79
322.1	7.39
322.312	8.35
322.524	6.97
322.736	8.84
322.948	6.7
323.16	6.3
323.372	2.67
323.584	3.51
323.796	3.89
324.007	3.48
324.219	3.46
324.431	2.05
324.643	1.11
324.855	0.84
325.067	-0.62
325.279	0.2
325.491	1.17
325.702	1.29
325.914	1.87
326.126	1.32
326.338	1.42
326.55	2.71
326.761	4.52
326.973	5.25
327.185	6.05
327.396	6.21
327.608	6.85
327.82	7.68
328.032	7.06
328.243	6.7
328.455	7.05
328.666	6.71
328.878	5.06
329.09	2.81
329.301	1.32
329.513	1.32
329.725	2.73
329.936	2.7
330.148	2.94
330.359	4.38
330.571	4.67
330.782	6.62
330.994	6.71
331.205	6.67
331.417	7.26
331.628	8.39
331.84	8.89
332.051	9.39
332.262	10.48
332.474	9.58
332.685	9.42
332.897	9.01
333.108	7.98
333.319	8.49
333.531	9.42
333.742	10.42
333.953	9.91
334.165	7.95
334.376	7.95
334.587	7.21
334.799	7.83
335.01	8.01
335.221	6.71
335.432	5.86
335.644	5.95
335.855	5.51
336.066	5.48
336.277	5.91
336.488	6.99
336.7	5.84
336.911	4.78
337.122	4.46
337.333	4.4
337.544	5.16
337.755	5.36
337.966	5.43
338.177	5.6
338.388	4.22
338.599	4.79
338.811	3.23
339.022	4.3
339.233	5.36
339.444	5.39
339.655	5.03
339.866	5.92
340.076	5.78
340.287	5.42
340.498	6.4
340.709	6.69
340.92	6.49
341.131	8.3
341.342	7.51
341.553	8.03
341.764	7.56
341.975	8.41
342.185	8.11
342.396	9.4
342.607	10.18
342.818	9.89
343.029	10.59
343.239	10.25
343.45	10.87
343.661	11.14
343.872	9.87
344.082	10.08
344.293	10.23
344.504	10.21
344.714	9.55
344.925	9.54
345.136	9.27
345.346	9.8
345.557	10.46
345.768	9.54
345.978	9.48
346.189	9.54
346.399	9.2
346.61	9.4
346.821	9.21
347.031	9.89
347.242	7.92
347.452	6.38
347.663	6.46
347.873	6.23
348.084	6.38
348.294	7.08
348.504	7.3
348.715	7.26
348.925	6.76
349.136	6.95
349.346	5.82
349.557	7.81
349.767	8.65
349.977	7.92
350.188	7.82
350.398	8.07
350.608	7.01
350.819	6.99
351.029	7.29
351.239	6.99
351.449	6.75
351.66	6.57
351.87	5.55
352.08	5.4
352.29	4.87
352.501	5.34
352.711	5.41
352.921	6
353.131	6.21
353.341	6.62
353.552	5.81
353.762	4.83
353.972	4.53
354.182	4.71
354.392	4.87
354.602	5.09
354.812	4.5
355.022	4.56
355.232	4.14
355.442	4.15
355.652	3.17
355.862	3.61
356.072	3.77
356.282	4.09
356.492	4.53
356.702	4.43
356.912	5.58
357.122	6.25
357.332	6.39
357.542	6.76
357.752	6.78
357.962	7
358.171	7.72
358.381	8.48
358.591	8.67
358.801	8.49
359.011	9.21
359.221	7.74
359.43	7.17
359.64	7.02
359.85	6.92
360.06	6.49
360.269	6.57
360.479	5.86
360.689	5.75
360.899	6.12
361.108	6
361.318	5.66
361.528	6.28
361.737	6.29
361.947	5.59
362.156	5.1
362.366	5.41
362.576	5.68
362.785	6.11
362.995	5.88
363.204	5.75
363.414	5.58
363.623	5.77
363.833	6
364.042	6.11
364.252	6.88
364.461	7.28
364.671	6.86
364.88	5.96
365.09	5.77
365.299	6.62
365.509	6.57
365.718	6.98
365.927	6.36
366.137	5.63
366.346	6.19
366.555	6.24
366.765	6.31
366.974	7.15
367.183	7.68
367.393	7.6
367.602	6.7
367.811	5.89
368.021	6.04
368.23	6.87
368.439	7.39
368.648	6.37
368.857	5.37
369.067	5.69
369.276	5.19
369.485	5.42
369.694	5.92
369.903	5.63
370.112	6.44
370.321	6.3
370.531	5.64
370.74	4.77
370.949	4.99
371.158	5.65
371.367	5.64
371.576	4.98
371.785	4.73
371.994	3.66
372.203	4.39
372.412	4.44
372.621	4.22
372.83	4.66
373.039	4.91
373.248	4.97
373.457	4.3
373.666	3.77
373.874	5
374.083	4.55
374.292	5.47
374.501	5.21
374.71	4.78
374.919	5.13
375.128	4.53
375.336	4.58
375.545	4.14
375.754	4.73
375.963	4.93
376.171	4.11
376.38	4.21
376.589	4.13
376.798	3.31
377.006	3.7
377.215	3.68
377.424	3.69
377.632	3.64
377.841	3.69
378.05	4.43
378.258	4.58
378.467	5.4
378.675	5.51
378.884	4.9
379.093	5.56
379.301	5.27
379.51	5.02
379.718	4.74
379.927	4.97
380.135	4.92
380.344	4.28
380.552	4.16
380.761	2.84
380.969	3.26
381.177	3.22
381.386	3.37
381.594	3.21
381.803	3.04
382.011	3.23
382.219	2.84
382.428	2.9
382.636	2.55
382.845	2.38
383.053	2.89
383.261	2.73
383.469	3.08
383.678	2.71
383.886	3.32
384.094	3.39
384.302	3.48
384.511	3.52
384.719	3.59
384.927	3.67
385.135	3.62
385.343	4.16
385.552	4.11
385.76	4.19
385.968	4.43
386.176	4.16
386.384	4.01
386.592	3.68
386.8	3.87
387.008	3.77
387.216	3.38
387.424	3.79
387.633	2.9
387.841	2.82
388.049	3.32
388.257	3.1
388.465	3.43
388.672	3.74
388.88	3.92
389.088	3.93
389.296	3.95
389.504	4.46
389.712	4.42
389.92	4.65
390.128	4.76
390.336	4.26
390.544	4.52
390.751	4.09
390.959	4.03
391.167	4.38
391.375	4.44
391.583	4.61
391.79	4.71
391.998	4.36
392.206	4.84
392.414	4.54
392.621	4.46
392.829	4.46
393.037	4.49
393.244	4.51
393.452	4.5
393.66	4.21
393.867	4.16
394.075	4.02
394.283	3.86
394.49	3.19
394.698	3.67
394.905	3.74
395.113	3.48
395.32	3.35
395.528	3.16
395.735	3.01
395.943	3.14
396.15	3.14
396.358	3.08
396.565	3.39
396.773	3.74
396.98	3.85
397.188	3.76
397.395	3.97
397.602	4.33
397.81	3.96
398.017	3.82
398.225	3.61
398.432	3.54
398.639	3.51
398.847	3.6
399.054	3.46
399.261	2.89
399.468	2.7
399.676	2.67
399.883	2.42
400.09	2.52
400.297	2.8
400.505	3.16
400.712	3.39
400.919	3.43
401.126	2.68
401.333	2.95
401.54	3.34
401.748	3.63
401.955	3.8
402.162	3.62
402.369	4.1
402.576	3.88
402.783	3.99
402.99	3.87
403.197	3.75
403.404	4.37
403.611	4.09
403.818	3.85
404.025	3.67
404.232	3.66
404.439	4.06
404.646	3.9
404.853	4.11
405.06	4.25
405.267	4.08
405.474	4.04
405.681	3.66
405.887	3.88
406.094	4.05
406.301	4.22
406.508	4.08
406.715	3.96
406.922	4.23
407.128	4.01
407.335	3.57
407.542	3.55
407.749	3.97
407.955	4.26
408.162	4.15
408.369	3.66
408.575	3.61
408.782	3.64
408.989	3.26
409.195	2.93
409.402	3.16
409.609	3.17
409.815	3.53
410.022	3.34
410.228	3.49
410.435	3.41
410.642	3.6
410.848	3.46
411.055	3.49
411.261	3.64
411.468	3.5
411.674	3.59
411.881	3.49
412.087	3.46
412.294	3.41
412.5	3.05
412.706	2.83
412.913	2.87
413.119	2.78
413.326	2.85
413.532	3.04
413.738	3.21
413.945	2.87
414.151	3.06
414.357	3.01
414.564	2.92
414.77	3.19
414.976	3.48
415.182	3.63
415.389	3.82
415.595	3.94
415.801	3.8
416.007	3.85
416.214	4.19
416.42	4.22
416.626	4.07
416.832	3.85
417.038	4.03
417.244	3.97
417.45	3.92
417.657	3.73
417.863	3.66
418.069	3.62
418.275	3.64
418.481	3.46
418.687	3.34
418.893	3.4
419.099	3.47
419.305	3.36
419.511	3.4
419.717	3.57
419.923	3.77
420.129	3.69
420.335	3.8
420.541	3.8
420.746	3.66
420.952	3.79
421.158	3.68
421.364	3.74
421.57	3.9
421.776	4
421.982	3.79
422.187	3.58
422.393	3.52
422.599	3.37
422.805	3.39
423.01	3.58
423.216	3.54
423.422	3.52
423.628	3.54
423.833	3.49
424.039	3.35
424.245	3.48
424.45	3.63
424.656	3.71
424.862	3.76
425.067	3.81
425.273	3.78
425.478	3.71
425.684	3.8
425.889	3.64
426.095	3.54
426.301	3.43
426.506	3.27
426.712	3.21
426.917	3.25
427.123	3.39
427.328	3.39
427.533	3.35
427.739	3.41
427.944	3.24
428.15	3.42
428.355	3.21
428.561	3.12
428.766	3.17
428.971	3.21
429.177	3.11
429.382	2.91
429.587	2.56
429.793	2.59
429.998	2.51
430.203	2.67
430.408	2.56
430.614	2.97
430.819	3.28
431.024	3.24
431.229	3.17
431.434	3.21
431.64	3.42
431.845	3.54
432.05	3.48
432.255	3.47
432.46	3.57
432.665	3.73
432.87	3.62
433.076	3.62
433.281	3.71
433.486	3.71
433.691	3.69
433.896	3.58
434.101	3.45
434.306	3.44
434.511	3.43
434.716	3.66
434.921	3.74
435.126	3.65
435.331	3.59
435.535	3.55
435.74	3.59
435.945	3.6
436.15	3.57
436.355	3.8
436.56	3.84
436.765	3.77
436.97	3.51
437.174	3.42
437.379	3.46
437.584	3.65
437.789	3.55
437.993	3.64
438.198	3.76
438.403	3.61
438.608	3.37
438.812	3.41
439.017	3.57
439.222	3.47
439.426	3.41
439.631	3.52
439.836	3.34
440.04	3.37
440.245	3.21
440.45	3.12
440.654	3.22
440.859	3.39
441.063	3.29
441.268	3.24
441.472	3.37
441.677	3.5
441.881	3.51
442.086	3.5
442.29	3.45
442.495	3.44
442.699	3.42
442.904	3.5
443.108	3.54
443.312	3.75
443.517	3.83
443.721	3.59
443.925	3.48
444.13	3.3
444.334	3.37
444.538	3.41
444.743	3.69
444.947	3.64
445.151	3.48
445.356	3.44
445.56	3.36
445.764	3.29
445.968	3.4
446.173	3.37
446.377	3.43
446.581	3.48
446.785	3.51
446.989	3.35
447.193	3.47
447.398	3.54
447.602	3.5
447.806	3.44
448.01	3.58
448.214	3.6
448.418	3.62
448.622	3.49
448.826	3.43
449.03	3.26
449.234	3.35
449.438	3.32
449.642	3.29
449.846	3.18
450.05	2.99
450.254	2.65
450.458	2.63
450.662	2.62
450.866	2.64
451.069	2.68
451.273	2.99
451.477	3.03
451.681	2.99
451.885	3
452.089	3.31
452.292	3.23
452.496	3.41
452.7	3.36
452.904	3.41
453.107	3.5
453.311	3.42
453.515	3.36
453.719	3.24
453.922	3.31
454.126	3.47
454.33	3.26
454.533	3.61
454.737	3.68
454.94	3.81
455.144	3.8
455.348	3.83
455.551	3.77
455.755	3.54
455.958	3.57
456.162	3.42
456.365	3.46
456.569	3.5
456.772	3.39
456.976	3.29
457.179	3.04
457.383	3.12
457.586	3.31
457.79	3.52
457.993	3.68
458.196	3.5
458.4	3.49
458.603	3.37
458.807	3.34
459.01	3.33
459.213	3.34
459.417	3.62
459.62	3.65
459.823	3.51
460.026	3.39
460.23	3.31
460.433	3.28
460.636	3.3
460.839	3.28
461.042	3.34
461.246	3.33
461.449	3.44
461.652	3.3
461.855	3.12
462.058	3.13
462.261	3.05
462.464	3.26
462.668	3.43
462.871	3.4
463.074	3.33
463.277	3.21
463.48	3.26
463.683	3.29
463.886	3.47
464.089	3.5
464.292	3.38
464.495	3.54
464.698	3.26
464.901	3.08
465.104	3.09
465.306	3.04
465.509	3.18
465.712	3.23
465.915	2.99
466.118	2.87
466.321	2.91
466.524	2.9
466.726	2.94
466.929	3.03
467.132	3.11
467.335	3
467.538	3.12
467.74	3.05
467.943	2.98
468.146	3.09
468.348	2.85
468.551	2.73
468.754	2.81
468.956	2.88
469.159	2.76
469.362	2.9
469.564	3.23
469.767	3.24
469.969	3.4
470.172	3.44
470.375	3.47
470.577	3.57
470.78	3.57
470.982	3.52
471.185	3.4
471.387	3.68
471.59	3.35
471.792	3.01
471.995	3.04
472.197	2.87
472.399	2.67
472.602	2.53
472.804	2.49
473.007	2.52
473.209	2.62
473.411	2.71
473.614	2.54
473.816	2.77
474.018	2.91
474.22	2.93
474.423	2.93
474.625	3.09
474.827	3.19
475.03	3.28
475.232	3.37
475.434	3.43
475.636	3.47
475.838	3.43
476.04	3.64
476.243	3.64
476.445	3.6
476.647	3.58
476.849	3.48
477.051	3.44
477.253	3.61
477.455	3.52
477.657	3.44
477.859	3.13
478.061	3.15
478.263	2.98
478.465	2.91
478.667	2.93
478.869	2.98
479.071	3.09
479.273	3.04
479.475	2.79
479.677	2.84
479.879	2.66
480.081	2.93
480.283	2.96
480.485	2.86
480.686	3.09
480.888	3.1
481.09	3.1
481.292	3.27
481.494	3.37
481.695	3.5
481.897	3.5
482.099	3.65
482.301	3.55
482.502	3.51
482.704	3.54
482.906	3.49
483.107	3.51
483.309	3.45
483.511	3.4
483.712	3.34
483.914	3.33
484.115	3.32
484.317	3.31
484.519	3.31
484.72	3.32
484.922	3.27
485.123	3.23
485.325	3.16
485.526	3.16
485.728	3.14
485.929	3.15
486.131	3.14
486.332	3.13
486.534	3.1
486.735	3.1
486.936	3.13
487.138	3.22
487.339	3.2
487.541	3.17
487.742	3.2
487.943	3.15
488.144	3.23
488.346	3.24
488.547	3.29
488.748	3.28
488.95	3.33
489.151	3.37
489.352	3.42
489.553	3.42
489.755	3.53
489.956	3.52
490.157	3.61
490.358	3.57
490.559	3.55
490.76	3.44
490.961	3.46
491.163	3.42
491.364	3.43
491.565	3.41
491.766	3.44
491.967	3.43
492.168	3.54
492.369	3.52
492.57	3.52
492.771	3.5
492.972	3.58
493.173	3.59
493.374	3.62
493.575	3.54
493.776	3.65
493.976	3.63
494.177	3.55
494.378	3.42
494.579	3.53
494.78	3.45
494.981	3.47
495.182	3.55
495.382	3.61
495.583	3.62
495.784	3.56
495.985	3.39
496.185	3.45
496.386	3.33
496.587	3.34
496.788	3.22
496.988	3.1
497.189	3.15
497.39	3.03
497.59	3.04
497.791	3.05
497.992	3.11
498.192	3.13
498.393	3.11
498.593	3.38
498.794	3.4
498.994	3.41
499.195	3.7
499.395	3.75
499.596	3.76
499.796	3.77
499.997	3.71
500.197	3.83
500.398	3.87
500.598	3.89
500.799	3.99
500.999	3.96
501.199	3.97
501.4	3.71
501.6	3.51
501.801	3.6
502.001	3.65
502.201	3.69
502.402	3.67
502.602	3.54
502.802	3.46
503.002	3.31
503.203	3.46
503.403	3.53
503.603	3.67
503.803	3.72
504.003	3.67
504.204	3.47
504.404	3.5
504.604	3.32
504.804	3.5
505.004	3.6
505.204	3.78
505.404	3.64
505.604	3.62
505.804	3.57
506.005	3.68
506.205	3.78
506.405	3.79
506.605	3.7
506.805	3.8
507.005	3.6
507.204	3.66
507.404	3.43
507.604	3.58
507.804	3.56
508.004	3.59
508.204	3.58
508.404	3.53
508.604	3.66
508.804	3.66
509.003	3.66
509.203	3.82
509.403	3.74
509.603	3.94
509.803	3.91
510.002	3.77
510.202	3.87
510.402	3.92
510.602	3.99
510.801	3.91
511.001	3.92
511.201	3.97
511.4	3.91
511.6	3.99
511.8	3.96
511.999	3.84
512.199	3.86
512.398	3.74
512.598	3.59
512.797	3.53
512.997	3.7
513.197	3.8
513.396	3.73
513.596	3.81
513.795	3.87
513.994	3.73
514.194	3.7
514.393	3.77
514.593	3.84
514.792	4.06
514.992	3.95
515.191	3.86
515.39	3.72
515.59	3.91
515.789	3.86
515.988	3.79
516.188	3.85
516.387	4.12
516.586	4.18
516.786	4.22
516.985	4
517.184	4.12
517.383	4.03
517.582	4.11
517.782	3.98
517.981	3.92
518.18	3.99
518.379	3.98
518.578	3.92
518.777	3.87
518.976	3.86
519.176	3.98
519.375	3.98
519.574	3.99
519.773	3.91
519.972	3.94
520.171	3.98
520.37	3.85
520.569	3.92
520.768	3.97
520.967	3.96
521.166	4.08
521.365	4.05
521.564	4.03
521.762	4.17
521.961	4.27
522.16	4.33
522.359	4.39
522.558	4.4
522.757	4.34
522.956	4.25
523.154	4.43
523.353	4.34
523.552	4.33
523.751	4.39
523.949	4.35
524.148	4.26
524.347	4.26
524.546	4.25
524.744	4.27
524.943	4.28
525.142	4.28
525.34	4.16
525.539	4.08
525.737	4.13
525.936	4.02
526.135	4.07
526.333	4.17
526.532	4.17
526.73	4.16
526.929	4.25
527.127	4.27
527.326	4.26
527.524	4.34
527.723	4.32
527.921	4.35
528.12	4.42
528.318	4.36
528.516	4.35
528.715	4.36
528.913	4.38
529.112	4.31
529.31	4.3
529.508	4.3
529.707	4.25
529.905	4.31
530.103	4.29
530.301	4.28
530.5	4.34
530.698	4.34
530.896	4.34
531.094	4.4
531.293	4.47
531.491	4.53
531.689	4.48
531.887	4.55
532.085	4.54
532.283	4.65
532.481	4.72
532.68	4.76
532.878	4.79
533.076	4.86
533.274	4.88
533.472	4.84
533.67	4.76
533.868	4.82
534.066	4.8
534.264	4.88
534.462	4.77
534.66	4.81
534.858	4.74
535.056	4.78
535.253	4.75
535.451	4.67
535.649	4.67
535.847	4.73
536.045	4.7
536.243	4.7
536.441	4.69
536.638	4.74
536.836	4.72
537.034	4.74
537.232	4.79
537.43	4.89
537.627	4.94
537.825	5.08
538.023	5.1
538.22	5.13
538.418	5.2
538.616	5.17
538.813	5.17
539.011	5.01
539.209	5.19
539.406	5.08
539.604	4.88
539.801	4.98
539.999	4.92
540.196	5.09
540.394	5.2
540.591	5.3
540.789	5.35
540.986	5.34
541.184	5.44
541.381	5.34
541.579	5.41
541.776	5.47
541.974	5.46
542.171	5.47
542.368	5.44
542.566	5.44
542.763	5.37
542.96	5.38
543.158	5.45
543.355	5.42
543.552	5.43
543.75	5.41
543.947	5.39
544.144	5.43
544.341	5.44
544.539	5.37
544.736	5.42
544.933	5.51
545.13	5.66
545.327	5.68
545.524	5.73
545.722	5.73
545.919	5.86
546.116	6.02
546.313	5.98
546.51	6
546.707	6.09
546.904	5.94
547.101	5.92
547.298	5.71
547.495	5.64
547.692	5.52
547.889	5.51
548.086	5.47
548.283	5.38
548.48	5.38
548.677	5.43
548.874	5.48
549.07	5.46
549.267	5.37
549.464	5.51
549.661	5.47
549.858	5.62
550.055	5.55
550.251	5.44
550.448	5.42
550.645	5.61
550.842	5.75
551.038	5.73
551.235	5.92
551.432	5.96
551.628	5.97
551.825	6.08
552.022	6.05
552.218	6.26
552.415	6.33
552.612	6.34
552.808	6.26
553.005	6.16
553.201	6.18
553.398	6.09
553.594	6.3
553.791	6.32
553.987	6.42
554.184	6.62
554.38	6.57
554.577	6.48
554.773	6.59
554.97	6.67
555.166	6.65
555.362	6.5
555.559	6.82
555.755	6.57
555.952	6.51
556.148	6.44
556.344	6.31
556.541	6.5
556.737	6.62
556.933	6.45
557.129	6.28
557.326	6.27
557.522	6.44
557.718	6.5
557.914	6.71
558.11	6.91
558.307	7.06
558.503	7.12
558.699	7.11
558.895	7.11
559.091	7.13
559.287	7.25
559.483	7.35
559.679	7.36
559.876	7.18
560.072	7.02
560.268	6.78
560.464	6.73
560.66	6.97
560.856	6.85
561.052	6.91
561.247	7.13
561.443	7.17
561.639	7.24
561.835	7.24
562.031	7.22
562.227	7.53
562.423	7.6
562.619	7.5
562.815	7.37
563.01	7.37
563.206	7.56
563.402	7.64
563.598	7.79
563.793	7.7
563.989	7.56
564.185	7.83
564.381	7.79
564.576	8
564.772	8.04
564.968	7.93
565.163	8
565.359	7.93
565.555	7.94
565.75	7.91
565.946	8.06
566.141	8.4
566.337	8.39
566.532	8.4
566.728	8.24
566.923	8.23
567.119	8.31
567.314	8.54
567.51	8.33
567.705	8.15
567.901	8.02
568.096	7.98
568.292	7.82
568.487	7.78
568.682	7.63
568.878	7.74
569.073	7.86
569.268	7.85
569.464	7.86
569.659	8.19
569.854	8.31
570.05	8.53
570.245	8.63
570.44	8.6
570.635	8.49
570.831	8.75
571.026	8.94
571.221	8.75
571.416	8.66
571.611	8.48
571.806	8.53
572.002	8.57
572.197	8.56
572.392	8.4
572.587	8.45
572.782	8.53
572.977	8.32
573.172	8.3
573.367	8.59
573.562	8.54
573.757	8.64
573.952	8.53
574.147	8.54
574.342	8.42
574.537	8.27
574.732	8.27
574.927	8.2
575.121	8.05
575.316	7.96
575.511	7.95
575.706	8.22
575.901	8.15
576.096	8.2
576.29	8.25
576.485	8.25
576.68	8.66
576.875	8.58
577.069	8.81
577.264	9.16
577.459	9.21
577.654	9.25
577.848	9.15
578.043	9.12
578.238	9.18
578.432	8.95
578.627	9.12
578.821	8.95
579.016	9.3
579.21	9.11
579.405	9.02
579.6	9.01
579.794	8.81
579.989	8.76
580.183	8.86
580.378	8.87
580.572	9.24
580.766	9.16
580.961	9.03
581.155	8.73
581.35	8.67
581.544	8.65
581.738	8.67
581.933	8.53
582.127	8.49
582.321	8.33
582.516	8.3
582.71	8.04
582.904	8.45
583.099	8.7
583.293	8.75
583.487	8.72
583.681	8.6
583.875	8.35
584.07	8.62
584.264	8.56
584.458	8.67
584.652	8.83
584.846	8.91
585.04	8.63
585.234	8.56
585.428	8.47
585.623	8.81
585.817	8.97
586.011	9.09
586.205	9.06
586.399	9.45
586.593	9.58
586.787	9.14
586.981	9.24
587.174	9.13
587.368	9.33
587.562	9.37
587.756	9.06
587.95	9.21
588.144	9.28
588.338	9.24
588.532	9.24
588.725	9.19
588.919	9.43
589.113	9.38
589.307	9.41
589.501	9.2
589.694	9.44
589.888	9.61
590.082	9.44
590.275	9.15
590.469	9.23
590.663	9.49
590.856	9.28
591.05	9.22
591.244	9.21
591.437	9.44
591.631	9.43
591.824	9.4
592.018	9.24
592.212	9.28
592.405	9.58
592.599	9.63
592.792	9.31
592.986	9.58
593.179	9.66
593.372	9.57
593.566	9.21
593.759	9.19
593.953	9.05
594.146	9.2
594.339	9.19
594.533	9.28
594.726	9.1
594.92	9.08
595.113	9.08
595.306	9.08
595.499	9.2
595.693	9.54
595.886	9.65
596.079	9.72
596.272	9.65
596.466	9.92
596.659	10.04
596.852	10.32
597.045	10.25
597.238	10.18
597.431	10.16
597.624	10.23
597.818	9.96
598.011	10.05
598.204	10.19
598.397	10.34
598.59	10.18
598.783	9.87
598.976	9.71
599.169	9.64
599.362	9.75
599.555	9.77
599.748	9.59
599.941	9.72
600.134	9.86
600.326	9.75
600.519	10.03
600.712	10.17
600.905	10.02
601.098	10.01
601.291	10.27
601.483	10.5
601.676	10.61
601.869	10.67
602.062	10.77
602.255	10.55
602.447	10.24
602.64	9.72
602.833	9.52
603.025	9.72
603.218	9.68
603.411	9.7
603.603	9.51
603.796	9.44
603.989	9.29
604.181	9.29
604.374	9.26
604.566	9.43
604.759	9.51
604.951	9.47
605.144	9.53
605.336	9.64
605.529	9.53
605.721	9.49
605.914	9.33
606.106	9.49
606.299	9.65
606.491	9.76
606.683	9.81
606.876	9.83
607.068	9.86
607.26	9.82
607.453	9.79
607.645	9.86
607.837	9.89
608.03	10
608.222	9.83
608.414	9.72
608.606	9.52
608.799	9.46
608.991	9.66
609.183	9.79
609.375	9.83
609.567	9.97
609.759	9.89
609.952	9.77
610.144	9.91
610.336	10.19
610.528	9.91
610.72	10.1
610.912	10.05
611.104	10
611.296	10.05
611.488	10.03
611.68	9.87
611.872	10.01
612.064	10.02
612.256	9.74
612.448	9.37
612.64	9.59
612.832	9.48
613.023	9.79
613.215	9.59
613.407	9.58
613.599	9.7
613.791	9.74
613.983	9.63
614.174	9.92
614.366	9.98
614.558	9.96
614.75	10.1
614.941	10.3
615.133	9.94
615.325	10.13
615.516	10.18
615.708	10.17
615.9	9.89
616.091	9.93
616.283	9.99
616.475	10.33
616.666	10.35
616.858	10.3
617.049	10.36
617.241	10.43
617.432	10.46
617.624	10.39
617.815	10.46
618.007	10.78
618.198	10.87
618.39	10.42
618.581	10.26
618.773	10.57
618.964	10.53
619.155	10.21
619.347	10.31
619.538	9.83
619.729	9.78
619.921	9.68
620.112	9.33
620.303	8.87
620.494	9.18
620.686	9.05
620.877	8.81
621.068	8.55
621.259	8.75
621.451	8.58
621.642	9.3
621.833	8.92
622.024	8.97
622.215	9.24
622.406	9.5
622.597	9.53
622.788	9.72
622.98	10.11
623.171	10.36
623.362	10.37
623.553	10.52
623.744	10.11
623.935	10.33
624.126	10.1
624.317	9.94
624.508	9.74
624.698	9.59
624.889	9.44
625.08	9.19
625.271	9.3
625.462	9.16
625.653	9.24
625.844	9.33
626.034	9.53
626.225	9.96
626.416	10.23
626.607	10.4
626.798	10.49
626.988	10.59
627.179	10.55
627.37	10.6
627.56	10.53
627.751	10.09
627.942	10.28
628.132	10.27
628.323	10.08
628.514	10.07
628.704	10.24
628.895	10.23
629.085	10.22
629.276	10.35
629.466	10.1
629.657	10.37
629.847	10.92
630.038	10.64
630.228	10.69
630.419	10.86
630.609	10.73
630.8	10.61
630.99	10.78
631.181	10.85
631.371	10.6
631.561	10.72
631.752	10.31
631.942	10.1
632.132	10.23
632.323	10.16
632.513	9.88
632.703	9.78
632.893	9.91
633.084	9.97
633.274	10.11
633.464	10.27
633.654	10.06
633.844	10.46
634.034	10.33
634.225	10.39
634.415	10.6
634.605	10.64
634.795	10.8
634.985	10.92
635.175	10.77
635.365	10.44
635.555	10.52
635.745	10.95
635.935	10.77
636.125	10.73
636.315	10.66
636.505	10.18
636.695	10.06
636.885	9.95
637.075	9.62
637.265	9.5
637.455	9.41
637.644	9.13
637.834	8.87
638.024	8.59
638.214	8.86
638.404	8.9
638.593	9.22
638.783	9.58
638.973	9.91
639.163	9.74
639.352	9.82
639.542	9.95
639.732	10.27
639.921	10.28
640.111	10.64
640.301	10.77
640.49	10.76
640.68	10.59
640.87	10.15
641.059	9.85
641.249	10.17
641.438	10.28
641.628	10.35
641.817	9.93
642.007	9.66
642.196	9.37
642.386	8.97
642.575	8.89
642.764	9.14
642.954	9.42
643.143	9.55
643.333	9.42
643.522	9.31
643.711	9.08
643.901	9.47
644.09	9.72
644.279	9.68
644.469	10.26
644.658	10.2
644.847	10.04
645.036	9.91
645.226	9.51
645.415	9.56
645.604	9.61
645.793	9.75
645.982	9.67
646.171	9.82
646.361	10.13
646.55	10.1
646.739	10.07
646.928	9.88
647.117	10.03
647.306	10.03
647.495	9.76
647.684	9.62
647.873	9.78
648.062	9.91
648.251	9.47
648.44	9.28
648.629	9.38
648.818	9.22
649.007	9.5
649.196	9.5
649.384	9.85
649.573	9.9
649.762	9.93
649.951	9.82
650.14	9.82
650.328	9.86
650.517	10.29
650.706	10.04
650.895	10.07
651.083	9.83
651.272	9.63
651.461	9.62
651.65	10.23
651.838	10.58
652.027	10.71
652.216	10.61
652.404	10.93
652.593	10.67
652.781	10.97
652.97	11.26
653.158	11.17
653.347	11.31
653.535	11.11
653.724	10.62
653.912	10.39
654.101	10.66
654.289	10.87
654.478	10.93
654.666	11.12
654.855	10.8
655.043	11.05
655.231	11.11
655.42	11.51
655.608	11.62
655.796	11.95
655.985	11.98
656.173	11.48
656.361	11.28
656.55	11.08
656.738	10.99
656.926	11.12
657.114	10.65
657.302	10.72
657.491	10.67
657.679	10.7
657.867	10.67
658.055	10.72
658.243	10.9
658.431	10.71
658.619	10.65
658.807	10.41
658.996	10.34
659.184	10.35
659.372	10.59
659.56	10.54
659.748	10.58
659.936	10.42
660.124	10.52
660.311	10.71
660.499	10.91
660.687	10.74
660.875	10.89
661.063	10.86
661.251	11.04
661.439	10.99
661.627	10.89
661.814	11.08
662.002	10.98
662.19	10.51
662.378	10.21
662.565	10.39
662.753	11.09
662.941	11.09
663.129	11.32
663.316	11.6
663.504	11.76
663.692	11.48
663.879	11.46
664.067	11.4
664.254	11.53
664.442	11.62
664.63	11.99
664.817	11.34
665.005	11.11
665.192	11.21
665.38	10.84
665.567	10.49
665.755	10.72
665.942	10.56
666.13	10.89
666.317	10.76
666.504	10.93
666.692	9.98
666.879	10.27
667.067	10.77
667.254	10.2
667.441	9.8
667.629	9.57
667.816	9.22
668.003	9.04
668.19	8.77
668.378	8.89
668.565	8.64
668.752	9.5
668.939	9.58
669.127	9.37
669.314	9.69
669.501	10.33
669.688	10.88
669.875	11.26
670.062	11.53
670.249	11.47
670.436	11.36
670.623	10.76
670.81	10.35
670.997	10.16
671.184	10.28
671.371	10.69
671.558	10.29
671.745	9.96
671.932	9.55
672.119	9.12
672.306	9.49
672.493	9.76
672.68	10.79
672.867	10.78
673.054	11.25
673.24	11.28
673.427	10.66
673.614	10.46
673.801	10.59
673.988	10.76
674.174	10.9
674.361	10.79
674.548	10.87
674.734	10.55
674.921	10.78
675.108	10.82
675.294	10.77
675.481	10.29
675.668	11.01
675.854	10.52
676.041	10.94
676.227	11.01
676.414	11.14
676.601	11.24
676.787	11.3
676.974	11.1
677.16	10.62
677.347	10.77
677.533	11.42
677.719	10.96
677.906	11.39
678.092	11.39
678.279	11.29
678.465	11.19
678.651	11.09
678.838	11.06
679.024	10.8
679.21	11.19
679.397	11.04
679.583	11.2
679.769	11.2
679.955	11.53
680.142	11.29
680.328	11.61
680.514	11.46
680.7	11.77
680.886	11.86
681.073	12.2
681.259	11.81
681.445	11.66
681.631	11.37
681.817	11.22
682.003	10.62
682.189	10.64
682.375	10.13
682.561	10.35
682.747	10.19
682.933	9.83
683.119	9.75
683.305	10.04
683.491	10.43
683.677	10.72
683.863	10.51
684.049	10.38
684.235	10.46
684.42	10.77
684.606	10.76
684.792	10.26
684.978	10.49
685.164	10.29
685.349	10.42
685.535	10.31
685.721	9.95
685.907	10.29
686.092	10.99
686.278	10.27
686.464	10.84
686.649	10.59
686.835	10.54
687.021	10.84
687.206	10.81
687.392	10.52
687.577	10.38
687.763	10.47
687.948	10.53
688.134	10.88
688.319	11.53
688.505	11.2
688.69	11.72
688.876	11.8
689.061	11.14
689.247	11.42
689.432	10.9
689.618	10.79
689.803	10.71
689.988	10.59
690.174	9.95
690.359	10.02
690.544	10
690.73	9.85
690.915	10.15
691.1	10.39
691.285	9.79
691.471	10.46
691.656	10.58
691.841	10.23
692.026	10.26
692.211	10.04
692.396	9.27
692.582	8.87
692.767	9
692.952	9.14
693.137	9.5
693.322	10.37
693.507	10.49
693.692	10.16
693.877	10.77
694.062	11.46
694.247	11.47
694.432	11.51
694.617	12.04
694.802	11.69
694.987	11.17
695.172	10.85
695.357	10.46
695.541	10.11
695.726	10.07
695.911	9.87
696.096	9.56
696.281	9.21
696.466	9.52
696.65	9.23
696.835	9.02
697.02	9.36
697.204	9.48
697.389	9.48
697.574	9.35
697.759	9.72
697.943	9.91
698.128	9.87
698.312	10.27
698.497	11.02
698.682	11.4
698.866	11.62
699.051	11.44
699.235	11.37
699.42	11.03
699.604	11.16
699.789	11.27
699.973	11.26
700.158	11.23
700.342	10.96
700.527	10.83
700.711	10.79
700.895	11.01
701.08	11.33
701.264	11.85
701.448	12.33
701.633	11.93
701.817	11.98
702.001	11.85
702.186	12.26
702.37	12.98
702.554	12.19
702.738	11.65
702.923	10.98
703.107	10.76
703.291	10.64
703.475	10.61
703.659	11.66
703.843	11.52
704.027	12.06
704.212	11.19
704.396	11.7
704.58	12.16
704.764	12.63
704.948	12.78
705.132	13.2
705.316	12.88
705.5	13.52
705.684	13.96
705.868	13.61
706.052	13.53
706.235	14.4
706.419	13.95
706.603	13.69
706.787	13.98
706.971	13.97
707.155	13.8
707.339	13.07
707.522	12.54
707.706	11.78
707.89	11.5
708.074	11.11
708.257	9.93
708.441	10.25
708.625	9.82
708.808	8.85
708.992	9.43
709.176	9.21
709.359	9.95
709.543	10.1
709.727	9.84
709.91	10.15
710.094	10.19
710.277	10.9
710.461	10.77
710.644	11.22
710.828	11.47
711.011	11.36
711.195	11.31
711.378	11.69
711.562	11.93
711.745	11.58
711.928	10.63
712.112	10.86
712.295	10.49
712.478	9.83
712.662	10.26
712.845	10.39
713.028	10.2
713.212	10.8
713.395	11.12
713.578	11.3
713.761	11.63
713.945	13.16
714.128	12.47
714.311	12.41
714.494	13.08
714.677	12.8
714.86	12.36
715.043	11.44
715.227	11.15
715.41	10.9
715.593	10.55
715.776	10.48
715.959	10.04
716.142	11.17
716.325	11.71
716.508	11.55
716.691	11.69
716.874	12.16
717.057	12.54
717.239	12.91
717.422	12.01
717.605	12.14
717.788	12.33
717.971	12.69
718.154	12.4
718.337	12.47
718.519	12.27
718.702	12.22
718.885	11.66
719.068	12.3
719.25	11.43
719.433	12.45
719.616	12.12
719.798	12.18
719.981	10.89
720.164	10.49
720.346	11.16
720.529	11.68
720.712	11.28
720.894	12.34
721.077	12.02
721.259	12.51
721.442	11.63
721.624	11.69
721.807	11.95
721.989	12.72
722.172	13.26
722.354	13.27
722.537	13.42
722.719	13.61
722.901	12.61
723.084	13.24
723.266	13.47
723.448	13.28
723.631	12.7
723.813	12.03
723.995	11.38
724.178	11.01
724.36	11.15
724.542	9.99
724.724	10.01
724.907	11.09
725.089	11.09
725.271	10.72
725.453	11.67
725.635	11.79
725.817	12.24
725.999	13.05
726.181	13.29
726.364	12.18
726.546	11.9
726.728	11.4
726.91	12.04
727.092	11.64
727.274	11.22
727.456	11.18
727.638	10.89
727.819	10.96
728.001	10.87
728.183	10.47
728.365	10.1
728.547	11.79
728.729	12.05
728.911	10.82
729.093	9.74
729.274	10.32
729.456	9.81
729.638	10.18
729.82	10.18
730.001	10.11
730.183	9.59
730.365	9.68
730.546	8.77
730.728	9.23
730.91	10.47
731.091	11.12
731.273	10.43
731.455	10.61
731.636	11.45
731.818	11.51
731.999	10.94
732.181	10.99
732.362	10.95
732.544	10.47
732.725	10.03
732.907	8.5
733.088	9.04
733.27	9.13
733.451	8.87
733.633	8.38
733.814	8.22
733.995	8.21
734.177	6.94
734.358	8.2
734.539	8.17
734.721	8.26
734.902	8.86
735.083	8.56
735.264	9.07
735.446	8.9
735.627	8.27
735.808	7.54
735.989	8.79
736.17	11.29
736.351	9.5
736.533	10.76
736.714	10.59
736.895	10.57
737.076	10.68
737.257	10.17
737.438	10.75
737.619	10.47
737.8	11.79
737.981	11.84
738.162	12.33
738.343	12.98
738.524	12.16
738.705	10.78
738.886	10.04
739.067	10.11
739.247	10.22
739.428	9.76
739.609	10.44
739.79	8.98
739.971	8.53
740.151	7.56
740.332	8.35
740.513	8.56
740.694	8.95
740.874	9.12
741.055	9.46
741.236	10.4
741.417	9.82
741.597	11.53
741.778	13.07
741.958	12.74
742.139	12.62
742.32	13.3
742.5	12.01
742.681	13.77
742.861	14.17
743.042	13.75
743.222	12.51
743.403	14.44
743.583	12.77
743.764	13.16
743.944	13.51
744.124	12.77
744.305	11.09
744.485	11.1
744.666	11.74
744.846	11.52
745.026	11.97
745.207	12.27
745.387	11.14
745.567	10.85
745.747	8.9
745.928	8.95
746.108	9.83
746.288	9.91
746.468	12.61
746.648	12.52
746.829	12.59
747.009	11.97
747.189	11.32
747.369	12.16
747.549	11.17
747.729	11.27
747.909	11.13
748.089	10.4
748.269	10.93
748.449	10.2
748.629	9.02
748.809	7.21
748.989	7.54
749.169	9.1
749.349	8.26
749.529	9.39
749.709	10.72
749.889	10.05
750.068	10.86
750.248	9.34
750.428	7.78
750.608	6.27
750.788	8.44
750.967	7.98
751.147	9.31
751.327	9.79
751.507	10.53
751.686	9.62
751.866	9.71
752.046	8.05
752.225	9.41
752.405	9.65
752.585	11.81
752.764	12.86
752.944	13.53
753.123	12.14
753.303	12.36
753.482	11.45
753.662	12.34
753.841	13.09
754.021	14.49
754.2	14.54
754.38	14.01
754.559	14.09
754.739	12.78
754.918	12
755.097	11.37
755.277	9.97
755.456	10.75
755.635	9.37
755.815	8.07
755.994	7.46
756.173	7.08
756.352	7.91
756.532	6.15
756.711	7.07
756.89	6.88
757.069	7.66
757.248	8.43
757.427	7.59
757.607	9.39
757.786	11.31
757.965	13.41
758.144	14.11
758.323	14.01
758.502	14.3
758.681	13.59
758.86	15.06
759.039	14.01
759.218	14.54
759.397	16.32
759.576	15.08
759.755	14.66
759.934	13.98
760.113	12.22
760.291	12.3
760.47	13.31
760.649	12.84
760.828	11.11
761.007	12.3
761.186	11.63
761.364	8.88
761.543	10.06
761.722	9.9
761.901	8.3
762.079	8.68
762.258	9.34
762.437	9.74
762.615	10.27
762.794	11.23
762.972	10.54
763.151	10.26
763.33	11.16
763.508	10.37
763.687	10.28
763.865	10.07
764.044	10.86
764.222	10.97
764.401	10.27
764.579	10.12
764.758	9.62
764.936	10.02
765.114	10.87
765.293	10.86
765.471	11.38
765.65	11.28
765.828	12.06
766.006	12.6
766.184	12.37
766.363	13.74
766.541	14.48
766.719	15.18
766.898	15.27
767.076	14.14
767.254	14.11
767.432	13.18
767.61	13.07
767.788	14.17
767.967	13.92
768.145	12.14
768.323	10.35
768.501	9.51
768.679	6.92
768.857	4.97
769.035	5.09
769.213	4.63
769.391	3.62
769.569	3.17
769.747	3.45
769.925	1.51
770.103	4.35
770.281	3.79
770.459	2.82
770.636	5.71
770.814	6.21
770.992	7.01
771.17	7.82
771.348	9.67
771.525	8.3
771.703	6.32
771.881	6.82
772.059	5.62
772.236	6.38
772.414	5.09
772.592	5.35
772.769	7.86
772.947	6.16
773.125	5.55
773.302	4.44
773.48	7.35
773.657	7.98
773.835	8.93
774.013	8.17
774.19	10.2
774.368	12.89
774.545	14.06
774.723	15.19
774.9	17.24
775.077	17.26
775.255	18.32
775.432	18.2
775.61	17.3
775.787	15.42
775.964	17.3
776.142	14.31
776.319	14.37
776.496	13.68
776.674	9.86
776.851	9.8
777.028	8.47
777.205	9.01
777.382	6.23
777.56	6.58
777.737	7.66
777.914	7.96
778.091	8.8
778.268	7.79
778.445	6.92
778.622	7.16
778.8	5.82
778.977	7.19
779.154	5.92
779.331	7.05
779.508	6.29
779.685	5.09
779.862	4.27
780.038	0.23
780.215	0.04
780.392	-2.46
780.569	0.56
780.746	1.69
780.923	3.45
781.1	2.09
781.277	5.75
781.453	6.96
781.63	9.38
781.807	10.01
781.984	14.1
782.16	15.67
782.337	18.79
782.514	15.9
782.691	14.88
782.867	14.24
783.044	15.64
783.221	13.18
783.397	12.13
783.574	9
783.75	6.66
783.927	5.95
784.103	4.18
784.28	3.79
784.456	5.72
784.633	7.25
784.809	6.12
784.986	9.04
785.162	5.38
785.339	6.49
785.515	9.25
785.692	8.9
785.868	10.46
786.044	12.07
786.221	10.79
786.397	11.13
786.573	9.79
786.749	8.67
786.926	5.89
787.102	7.78
787.278	7.96
787.454	8.54
787.631	9.63
787.807	11.09
787.983	11.6
788.159	13.53
788.335	11.82
788.511	10.4
788.687	11.62
788.863	13.73
789.039	14.61
789.216	17.17
789.392	15.65
789.568	15.28
789.744	14.25
789.919	13.84
790.095	12.85
790.271	14.64
790.447	14.42
790.623	15.5
790.799	14.4
790.975	16.61
791.151	14.82
791.327	15.26
791.502	16.71
791.678	18.5
791.854	16.87
792.03	17.7
792.205	16.43
792.381	20.39
792.557	16.88
792.733	19.71
792.908	19.28
793.084	14.8
793.259	14.01
793.435	13.91
793.611	13.68
793.786	16.42
793.962	18.21
794.137	16.18
794.313	13.72
794.488	17.36
794.664	13.15
794.839	8.73
795.015	11.32
795.19	13.15
795.366	12.13
795.541	6.53
795.716	-0.09
795.892	-1.8
796.067	-1.11
796.242	0.33
796.418	-2.25
796.593	-0.01
796.768	4.78
796.944	5.82
797.119	6.4
797.294	6.73
797.469	10.2
797.644	13.05
797.82	11.8
797.995	10.4
798.17	12.24
798.345	11.66
798.52	11.19
798.695	8.41
798.87	6.39
799.045	6.22
799.22	5.52
799.395	4.38
799.57	7.01
799.745	7.3
799.92	12.76
800.095	11.27
800.27	12.26
800.445	11.3
800.62	13.6
800.795	13.82
800.97	12.92
801.145	12.07
801.319	10.85
801.494	10.29
801.669	6.79
801.844	3.84
802.018	6.79
802.193	7.8
802.368	7.3
802.543	7.27
802.717	8.35
802.892	5.34
803.067	5.38
803.241	5.46
803.416	3.95
803.59	9.04
803.765	6.56
803.94	6.39
804.114	6.31
804.289	6.96
804.463	3.75
804.638	1.47
804.812	6.45
804.986	8.72
805.161	8.81
805.335	2.76
805.51	-1.55
805.684	-1.57
805.858	-6.85
806.033	-10.2
806.207	-9.48
806.381	-7.03
806.556	-1.19
806.73	-1.86
806.904	-1.84
807.078	-4.62
807.253	-2.13
807.427	0.35
807.601	-1.21
807.775	1.52
807.949	1.56
808.123	0.83
808.298	0.74
808.472	-5.23
808.646	-7.51
808.82	-10.32
808.994	-5.86
809.168	-2.68
809.342	1.33
809.516	7.43
809.69	8.63
809.864	9.4
810.038	10.58
810.212	8.02
810.385	14.64
810.559	20.24
810.733	25.1
810.907	25.25
811.081	26.8
811.255	22.21
811.428	22.6
811.602	19.04
811.776	18.43
811.95	18.52
812.123	18.33
812.297	10.61
812.471	10.3
812.644	8.92
812.818	4.44
812.992	0.96
813.165	5.86
813.339	2.45
813.512	4.47
813.686	9.14
813.86	3.56
814.033	1.5
814.207	3.28
814.38	-1.62
814.554	-3.85
814.727	-0.22
814.9	-1.66
815.074	-18.61
815.247	-18.21
815.421	-21.1
815.594	-21.24
815.767	-7.57
815.941	-6.8
816.114	-4.31
816.287	-1.53
816.46	-4.42
816.634	-8.6
816.807	-7.69
816.98	-4.64
817.153	1.93
817.327	2.24
817.5	4.99
817.673	3.21
817.846	7
818.019	5.72
818.192	5.25
818.365	9.26
818.538	13.85
818.711	15.78
818.884	17.01
819.057	11.84
819.23	14.38
819.403	4.21
819.576	-5.41
819.749	-3.54
819.922	-4.07
820.095	-2.11
820.268	0.12
820.441	-2.14
820.614	1.55
820.786	2.69
820.959	4.68
821.132	4.7
821.305	10.19
821.477	12.79
821.65	12.93
821.823	13.83
821.996	13.33
822.168	13.74
822.341	14.21
822.514	13.77
822.686	15.12
822.859	14.5
823.031	14.52
823.204	13.64
823.376	14.17
823.549	13.97
823.722	13.8
823.894	12.6
824.067	11.97
824.239	12.24
824.411	12.05
824.584	11.44
824.756	10.96
824.929	10.24
825.101	10.91
825.273	10.66
825.446	11.12
825.618	10.29
825.79	13.05
825.963	13.28
826.135	13.43
826.307	13.71
826.479	12.21
826.652	14
826.824	13.72
826.996	13.29
827.168	12.25
827.34	12.3
827.512	13.46
827.684	12.31
827.856	13.2
828.029	13.38
828.201	12.3
828.373	13.73
828.545	12.36
828.717	14.24
828.889	14.26
829.061	14.94
829.232	14.12
829.404	13.38
829.576	16.18
829.748	15.05
829.92	14.74
830.092	15.88
830.264	14.73
830.436	15.77
830.607	14.98
830.779	13.41
830.951	11.66
831.123	11.62
831.294	10.36
831.466	2.76
831.638	0.2
831.809	-3.01
831.981	-4.38
832.153	-9.9
832.324	-9.02
832.496	-8.28
832.667	-5.02
832.839	-3.61
833.011	-4.17
833.182	-4.23
833.354	-3.71
833.525	-3.55
833.697	-2.87
833.868	-1.84
834.039	0.3
834.211	-1.13
834.382	0.28
834.554	-0.25
834.725	1.87
834.896	-0.03
835.068	0.59
835.239	5.68
835.41	5.2
835.581	5.69
835.753	7.14
835.924	7.85
836.095	6.29
836.266	6.36
836.438	6.16
836.609	7.97
836.78	9.93
836.951	11.14
837.122	5.54
837.293	6.49
837.464	5.26
837.635	6.64
837.806	11.46
837.977	14.35
838.148	13
838.319	12.98
838.49	7.71
838.661	8.5
838.832	8.73
839.003	12.31
839.174	16.31
839.345	18.45
839.516	11.69
839.687	-1.42
839.857	-7.06
840.028	-2
840.199	0.53
840.37	7.07
840.54	9.95
840.711	8.37
840.882	11.92
841.053	13.47
841.223	12.25
841.394	9.49
841.564	15.71
841.735	18.51
841.906	16.38
842.076	10.73
842.247	9.77
842.417	16.64
842.588	15.14
842.758	9.76
842.929	-2.31
843.099	2.1
843.27	4.3
843.44	-0.44
843.611	-7.72
843.781	-14.29
843.951	-7.98
844.122	-9
844.292	-29.71
844.462	-23.56
844.633	-25.24
844.803	-17.24
844.973	-9.28
845.144	4.84
845.314	-2.71
845.484	0.81
845.654	3.42
845.824	-7.11
845.995	-16.45
846.165	-33.78
846.335	-85.89
846.505	-60.3
846.675	-45.16
846.845	-55.97
847.015	-78.57
847.185	-68.61
847.355	-82.57
847.525	-65.67
847.695	-67.57
847.865	-112.72
848.035	-82.72
848.205	-41.47
848.375	-126.2
848.545	-193.02
848.715	-234.2
848.884	-238.29
849.054	-93.2
849.224	-28.28
849.394	-70.68
849.564	-35.75
849.733	-33.61
849.903	-16.38
850.073	-40.72
850.243	-30.64
850.412	-0.2
850.582	-11.98
850.752	-14.45
850.921	-41.05
851.091	-69.47
851.26	-57.49
851.43	-120.12
851.599	-91.83
851.769	-80.69
851.939	-56.81
852.108	-99.22
852.278	-182.8
852.447	-172.22
852.616	-119.25
852.786	-108.84
852.955	-133.33
853.125	-172.31
853.294	-121.03
853.463	-140.97
853.633	-142.32
853.802	-169.9
853.971	-84.92
854.141	-81.74
854.31	-63.98
854.479	-57.1
854.648	-39.45
854.818	-38.6
854.987	1.5
855.156	8.74
855.325	13.18
855.494	9.72
855.663	13.05
855.832	26.59
856.001	4.12
856.171	-11.87
856.34	-6.22
856.509	7.31
856.678	11.03
856.847	30.25
857.016	11.39
857.185	80.63
857.353	37.08
857.522	42.08
857.691	23.06
857.86	20.04
858.029	9.42
858.198	-3.3
858.367	-23.94
858.535	-12.56
858.704	-16.92
858.873	-38.72
859.042	-57.11
859.21	-51.47
859.379	-62.71
859.548	-71.89
859.717	-37.51
859.885	-17.79
860.054	-18.08
860.222	-13.11
860.391	-13.33
860.56	-29.19
860.728	-6.97
860.897	22.43
861.065	-6.95
861.234	-13.5
861.402	-13.73
861.571	-33.53
861.739	-53.19
861.908	-56.27
862.076	-73.61
862.244	-197.31
862.413	-55.67
862.581	-63.78
862.749	-83.43
862.918	-12.23
863.086	-14.05
863.254	0.87
863.423	-5.38
863.591	8.57
863.759	45.7
863.927	9.01
864.096	-1.84
864.264	-42.73
864.432	-44.43
864.6	-52.71
864.768	-114.22
864.936	-99.32
865.104	-90.02
865.272	-61.7
865.44	-66.51
865.608	-85.33
865.776	-89.01
865.944	-54.88
866.112	-61.85
866.28	-92.71
866.448	-97.03
866.616	-82.12
866.784	-50.32
866.952	-63.65
867.12	-100.45
867.288	-88.8
867.455	-86.66
867.623	-51.7
867.791	-51.17
867.959	-76.34
868.127	-93.25
868.294	-116.19
868.462	-159.88
868.63	-382.61
868.797	-221.76
868.965	-323.22
869.133	-218
869.3	-148.02
869.468	-369.16
869.636	-920.14
869.803	-351.95
869.971	-99.3
870.138	-217.24
870.306	-127.3
870.473	-107.13
870.641	-1127.23
870.808	-222.2
870.975	-851.43
871.143	-473.99
871.31	1579.2
871.478	-924.54
871.645	-220.58
871.812	-285.2
871.98	-136.92
872.147	-141.97
872.314	-193.88
872.482	-155.28
872.649	-72.09
872.816	-24.97
872.983	-16.56
873.15	-18.44
873.318	-12.35
873.485	-27.92
873.652	-45.22
873.819	-37.35
873.986	-26.91
874.153	-11.08
874.32	1.05
874.487	-24.14
874.654	-58.65
874.821	-57.21
874.988	-78.15
875.155	-185.61
875.322	-128.51
875.489	-203.49
875.656	-154.79
875.823	-223.94
875.99	-243.72
876.157	482.51
876.324	446.62
876.49	2696.52
876.657	642.45
876.824	-34.29
876.991	30.71
877.157	-63.57
877.324	27.05
877.491	-9.96
877.658	-9.67
877.824	-39.82
877.991	-16.93
878.157	-9.32
878.324	-7.16
878.491	-3.76
878.657	-2.34
878.824	-36.3
878.99	-2.69
879.157	-45.48
879.323	-26.03
879.49	-160.48
879.656	-1281.93
879.823	254.18
879.989	-650.17
880.156	315.93
880.322	396.26
880.488	-1464.83
880.655	-265.35
880.821	-101.3
880.987	-43.1
881.154	-30.98
881.32	-13.35
881.486	3.12
881.652	4.82
881.819	0.26
881.985	16.5
882.151	10.3
882.317	12.41
882.483	11.78
882.649	13.23
882.816	13.39
882.982	13.34
883.148	10.84
883.314	8.88
883.48	8.48
883.646	10.24
883.812	9.25
883.978	9.82
884.144	10.86
884.31	11.43
884.476	9.67
884.642	10.14
884.807	10.45
884.973	11.58
885.139	10.43
885.305	11.89
885.471	7.54
885.637	6.49
885.802	9.11
885.968	8.63
886.134	4.47
886.3	5.13
886.465	6.03
886.631	-1.54
886.797	1.44
886.962	0.42
887.128	-4.59
887.293	8.27
887.459	2.02
887.625	-0.76
887.79	-1.98
887.956	2.12
888.121	-2.71
888.287	-8.12
888.452	11.04
888.618	-0.91
888.783	4.57
