Data from 29378909_Reflection_1.txt Node
Date: Wed Jul 15 14:07:51 EDT 2015
User: robert
Spectrometer: USB4E03001
Autoset integration time: false
Trigger mode: 4
Integration Time (sec): 1.000000E-1
Scans to average: 10
Electric dark correction enabled: true
Nonlinearity correction enabled: false
Boxcar width: 5
Stray light correction enabled: false
XAxis mode: Wavelengths
Stop averaging: false
Number of Pixels in Spectrum: 3648
>>>>>Begin Spectral Data<<<<<
177.566	5578.57
177.785	-52.84
178.005	-732.37
178.225	-839.81
178.445	-514.07
178.665	-12.24
178.885	188.07
179.105	-22650
179.324	-208.51
179.544	-150.1
179.764	-182.79
179.984	-82.14
180.204	-62.44
180.423	-150.12
180.643	-173.89
180.863	-176.32
181.083	-91.52
181.302	-108.14
181.522	-354.88
181.742	474.97
181.961	238.02
182.181	297.31
182.401	193.55
182.621	355.16
182.84	245.72
183.06	184.74
183.279	165.33
183.499	134.17
183.719	117.99
183.938	120.33
184.158	113.93
184.377	103.78
184.597	96.56
184.816	91.21
185.036	89.4
185.256	173.66
185.475	133.54
185.695	259.25
185.914	490.19
186.134	829.69
186.353	-128.59
186.572	-205.11
186.792	-257.9
187.011	-186.9
187.231	-183.56
187.45	-269.86
187.67	-246.06
187.889	-191.29
188.108	-210.83
188.328	-255.31
188.547	-288.36
188.766	-3311.33
188.986	-1186.89
189.205	-586.74
189.424	-463.72
189.644	-1095.02
189.863	1204.88
190.082	734.32
190.302	528.81
190.521	434.67
190.74	283.54
190.959	533.33
191.178	671.71
191.398	-5696.62
191.617	860.42
191.836	388.15
192.055	381.05
192.274	511.6
192.494	303.54
192.713	173.7
192.932	198.94
193.151	207.52
193.37	116.45
193.589	115.3
193.808	74.96
194.027	96.83
194.246	85.99
194.465	98.83
194.685	51.93
194.904	67.06
195.123	83.06
195.342	64.1
195.561	128.22
195.78	162.98
195.999	210.44
196.218	260.65
196.436	127.13
196.655	116.54
196.874	97.7
197.093	126.68
197.312	169.58
197.531	157.99
197.75	385.89
197.969	385.85
198.188	170.5
198.407	203.75
198.625	147.01
198.844	284.05
199.063	-1581.47
199.282	-367.9
199.501	335.83
199.719	589000
199.938	482.24
200.157	151.55
200.376	198.48
200.594	-289.46
200.813	-27.19
201.032	-5.47
201.251	-194.68
201.469	2076.21
201.688	559.11
201.907	-183.71
202.125	1783.45
202.344	717.34
202.563	5147.06
202.781	5452.94
203	733.15
203.218	1615.89
203.437	1855.3
203.656	2497.65
203.874	-1038.8
204.093	-587.8
204.311	-423.74
204.53	-148.41
204.748	-156.24
204.967	-84.26
205.185	-94.23
205.404	-130.49
205.622	-608.14
205.841	-1003.03
206.059	-341.42
206.278	-201.8
206.496	-303.8
206.715	-1659.46
206.933	3005.88
207.151	-3076.85
207.37	1329.49
207.588	661.82
207.806	980.65
208.025	1502.3
208.243	-749.57
208.461	449.43
208.68	220.53
208.898	801.49
209.116	-280.51
209.335	-547.67
209.553	-76.11
209.771	-10.57
209.989	-45.63
210.208	33.87
210.426	-13.81
210.644	-0.31
210.862	15.7
211.081	-14.56
211.299	-27.91
211.517	-2.52
211.735	2.54
211.953	-117.3
212.171	-171.07
212.39	-64.8
212.608	-88.96
212.826	-56.33
213.044	-57.1
213.262	-72.37
213.48	-78.89
213.698	-99.63
213.916	-211.08
214.134	-232.06
214.352	-91.76
214.57	-105.81
214.788	-230.89
215.006	-349.74
215.224	-433.22
215.442	-426.4
215.66	-383.67
215.878	-245.58
216.096	-235.33
216.314	-323.45
216.532	-321.76
216.75	-379.71
216.968	-521.21
217.185	-188.77
217.403	-369.07
217.621	-817.27
217.839	-724.82
218.057	486.25
218.275	247.6
218.492	125.04
218.71	177.41
218.928	168.41
219.146	198.02
219.363	398.91
219.581	299.27
219.799	340.7
220.017	419.53
220.234	288.81
220.452	864.2
220.67	-1009.52
220.887	-195.86
221.105	-87.07
221.323	-63.26
221.54	-28.18
221.758	-17.52
221.976	-3.54
222.193	26.65
222.411	42.14
222.629	45.38
222.846	42.92
223.064	37.41
223.281	32.52
223.499	14.39
223.716	2.69
223.934	-2.35
224.151	-4.25
224.369	-25.69
224.586	-71.68
224.804	-153.47
225.021	-141.25
225.239	-89.2
225.456	-62.54
225.674	-51.11
225.891	-42.08
226.108	-51.49
226.326	-61.21
226.543	-55.01
226.76	-46.06
226.978	-38.03
227.195	-35.2
227.413	-33.04
227.63	-27.87
227.847	-22.72
228.064	-21.35
228.282	-16.9
228.499	-9.64
228.716	-7.82
228.934	-4.08
229.151	-1.3
229.368	3.33
229.585	5.91
229.802	4.91
230.02	1.68
230.237	1.84
230.454	5.96
230.671	6.72
230.888	3.73
231.105	1.51
231.323	-0.41
231.54	-4.49
231.757	-8.36
231.974	-11.03
232.191	-17.12
232.408	-7.12
232.625	-15.16
232.842	-24.55
233.059	-31.87
233.276	-25.91
233.493	-18.15
233.71	-16.18
233.927	-5.62
234.144	-2.3
234.361	-8.7
234.578	-4.84
234.795	-6.78
235.012	-1.96
235.229	-1.25
235.446	-3.04
235.663	-4.48
235.879	-7.87
236.096	-7.58
236.313	-5.67
236.53	-6.68
236.747	1.02
236.964	3.36
237.181	2.3
237.397	-0.64
237.614	4.21
237.831	5.76
238.048	3.83
238.264	7.07
238.481	4.62
238.698	-0.29
238.915	-2.51
239.131	-3.68
239.348	-3.26
239.565	-2.48
239.781	-2.54
239.998	-3.72
240.215	-1.62
240.431	0.91
240.648	0.14
240.865	6.65
241.081	7.17
241.298	7.68
241.514	7.35
241.731	5.7
241.947	5.44
242.164	5.83
242.38	6.47
242.597	6.23
242.814	5.94
243.03	6.28
243.246	4.44
243.463	3.66
243.679	3.02
243.896	2.78
244.112	5.81
244.329	4.95
244.545	4.86
244.762	1.63
244.978	3.09
245.194	3.33
245.411	3.16
245.627	1.72
245.843	3.8
246.06	5.07
246.276	6.15
246.492	6.13
246.709	6.54
246.925	8.26
247.141	9.73
247.357	9.92
247.574	10.37
247.79	11.55
248.006	11.78
248.222	11.14
248.439	10.99
248.655	10.54
248.871	10.32
249.087	10.16
249.303	7.35
249.519	7.46
249.736	5.32
249.952	4.88
250.168	1.84
250.384	1.64
250.6	2.01
250.816	2.73
251.032	4.21
251.248	2.32
251.464	2.93
251.68	4.87
251.896	4.59
252.112	6.56
252.328	5.37
252.544	5.07
252.76	3.94
252.976	3.46
253.192	3.67
253.408	2.11
253.624	2.66
253.84	2.27
254.056	0.74
254.272	-0.98
254.487	-3.03
254.703	-4.8
254.919	-4.07
255.135	-2.53
255.351	-5.46
255.567	-9.15
255.782	-11.65
255.998	-10.99
256.214	-10.38
256.43	-10.14
256.646	-9.51
256.861	-9.84
257.077	-7.19
257.293	-5.28
257.508	-6.31
257.724	-3.94
257.94	-2.22
258.155	1.23
258.371	2.76
258.587	3.73
258.802	4.92
259.018	5.26
259.234	7.4
259.449	6.98
259.665	6.73
259.88	7.05
260.096	6.66
260.312	6.85
260.527	6.96
260.743	6.49
260.958	5.76
261.174	5.8
261.389	6.45
261.605	5.32
261.82	4.6
262.036	3.82
262.251	4.73
262.466	4.85
262.682	4.88
262.897	5.58
263.113	6.42
263.328	7.15
263.543	8.15
263.759	4.71
263.974	5.78
264.189	6.23
264.405	7.04
264.62	6.25
264.835	7.63
265.051	7.54
265.266	5.72
265.481	5.61
265.696	5.92
265.912	5.4
266.127	5.2
266.342	2.95
266.557	3.98
266.773	4.48
266.988	3.65
267.203	3.18
267.418	2.31
267.633	1.21
267.848	0.27
268.064	0.03
268.279	0.04
268.494	2.35
268.709	2.53
268.924	2.73
269.139	2.34
269.354	1.94
269.569	1.37
269.784	0.27
269.999	1.92
270.214	3.24
270.429	4.8
270.644	5.13
270.859	3.76
271.074	4.64
271.289	4.44
271.504	4.24
271.719	4.54
271.934	4.1
272.149	4.17
272.363	4.08
272.578	3.18
272.793	2.32
273.008	1.99
273.223	2.73
273.438	1.35
273.653	1.31
273.867	1.83
274.082	2.28
274.297	3.29
274.512	3.98
274.726	3.72
274.941	5.51
275.156	6.31
275.371	4.7
275.585	4.84
275.8	5.76
276.015	5.8
276.229	5.42
276.444	4.69
276.659	4.9
276.873	5.35
277.088	6.38
277.302	5.56
277.517	3.88
277.732	5.17
277.946	3.49
278.161	3.85
278.375	3.66
278.59	3.86
278.804	3.17
279.019	2.85
279.233	2.77
279.448	0.99
279.662	0.9
279.877	0.39
280.091	1.96
280.306	4.85
280.52	5.28
280.735	3.25
280.949	1.86
281.163	1.75
281.378	2.53
281.592	2.3
281.806	2.01
282.021	1.78
282.235	2.95
282.449	2.32
282.664	1.11
282.878	1.8
283.092	3
283.307	2.56
283.521	3.97
283.735	3.04
283.949	2.94
284.164	2.93
284.378	2.46
284.592	2.83
284.806	3.32
285.02	2.77
285.234	2.4
285.449	2.73
285.663	3.59
285.877	2.93
286.091	3.31
286.305	3.78
286.519	3.68
286.733	3.1
286.947	2.38
287.161	2.35
287.375	3.47
287.589	2.28
287.803	2.43
288.017	2.81
288.231	3.64
288.445	2.61
288.659	3.19
288.873	4.06
289.087	4.08
289.301	4.3
289.515	3.04
289.729	2.2
289.943	3.69
290.157	4.59
290.371	5.12
290.584	5.35
290.798	6.32
291.012	6.06
291.226	4.83
291.44	5.74
291.654	5.83
291.867	6.72
292.081	6.36
292.295	5.58
292.509	4.04
292.722	3.35
292.936	2.21
293.15	1.5
293.364	0.88
293.577	2.18
293.791	1.8
294.005	3.37
294.218	2.37
294.432	2.25
294.645	2.96
294.859	5.05
295.073	4.15
295.286	3.79
295.5	4.2
295.713	4.07
295.927	4.72
296.14	5.98
296.354	4.88
296.568	5.59
296.781	6.52
296.994	6.8
297.208	5.42
297.421	6.04
297.635	6.06
297.848	6.14
298.062	5.92
298.275	5.24
298.489	3.48
298.702	3.93
298.915	3.61
299.129	3.02
299.342	3
299.555	3.1
299.769	4.05
299.982	4.66
300.195	4.59
300.409	4.99
300.622	5.63
300.835	7.14
301.048	6.48
301.262	6.91
301.475	6.31
301.688	5.7
301.901	6.23
302.115	5.89
302.328	5.98
302.541	5.65
302.754	6.47
302.967	5.9
303.18	5.56
303.393	5.14
303.607	4.91
303.82	4.98
304.033	5.08
304.246	4.54
304.459	4.3
304.672	4.26
304.885	4
305.098	3.18
305.311	3.22
305.524	3.01
305.737	3.03
305.95	2.91
306.163	3.61
306.376	2.36
306.589	2.19
306.802	1.67
307.015	1.98
307.228	1.42
307.44	1.38
307.653	1.88
307.866	0.76
308.079	-0.04
308.292	0.4
308.505	-0.12
308.718	2.3
308.93	2
309.143	2.39
309.356	2.91
309.569	3.04
309.781	3.94
309.994	3.79
310.207	5.51
310.42	6.38
310.632	5.4
310.845	6.39
311.058	5.37
311.27	7.45
311.483	8.02
311.696	8.03
311.908	8.36
312.121	8.6
312.333	7.93
312.546	7.66
312.759	7.27
312.971	7.37
313.184	8.13
313.396	8.86
313.609	6.61
313.821	5.73
314.034	5.26
314.246	4.23
314.459	3.7
314.671	3.72
314.884	4.28
315.096	5.29
315.309	4.87
315.521	3.05
315.733	1.51
315.946	1.63
316.158	2.06
316.371	2.16
316.583	5.69
316.795	3.63
317.008	4.53
317.22	3.53
317.432	3.72
317.644	5.34
317.857	7.37
318.069	8.21
318.281	8.38
318.494	7.92
318.706	7.61
318.918	5.87
319.13	6.22
319.342	5.94
319.555	5.54
319.767	4.65
319.979	6.1
320.191	5.16
320.403	5.11
320.615	5.62
320.827	3.81
321.039	2.38
321.252	2.8
321.464	3.96
321.676	5.56
321.888	6.49
322.1	7.26
322.312	5.69
322.524	4.11
322.736	3.91
322.948	3.42
323.16	4.97
323.372	5.27
323.584	4.38
323.796	6.14
324.007	4.23
324.219	4.03
324.431	4.87
324.643	4.04
324.855	3.96
325.067	4.62
325.279	3.78
325.491	5.08
325.702	5.01
325.914	5.04
326.126	2.58
326.338	2.59
326.55	2.45
326.761	1.48
326.973	2.29
327.185	2.13
327.396	-0.06
327.608	1.6
327.82	-0.12
328.032	-0.18
328.243	-0.52
328.455	-0.71
328.666	0.29
328.878	-0.09
329.09	0.1
329.301	-0.46
329.513	0.73
329.725	2.77
329.936	1.98
330.148	2.79
330.359	4.5
330.571	4.31
330.782	4.8
330.994	5.8
331.205	5.72
331.417	6.43
331.628	7.07
331.84	7.15
332.051	7.44
332.262	7.46
332.474	7.11
332.685	6.13
332.897	5.47
333.108	5.86
333.319	5.03
333.531	5.82
333.742	4.7
333.953	4.67
334.165	4.81
334.376	4.44
334.587	4.25
334.799	3.75
335.01	4.13
335.221	5.33
335.432	4.76
335.644	5.35
335.855	5.75
336.066	5.72
336.277	5.07
336.488	5.37
336.7	6.22
336.911	7.61
337.122	8.63
337.333	8.95
337.544	9.21
337.755	10.11
337.966	9.61
338.177	7.83
338.388	6.97
338.599	6.03
338.811	4.69
339.022	4.4
339.233	2.5
339.444	2.08
339.655	1.15
339.866	0.9
340.076	-0.45
340.287	-1.81
340.498	-0.31
340.709	1.48
340.92	2.57
341.131	2.74
341.342	2.66
341.553	3.03
341.764	3.29
341.975	4.12
342.185	3.52
342.396	4.57
342.607	5.08
342.818	5.11
343.029	4.47
343.239	4.53
343.45	4.8
343.661	4.14
343.872	5.65
344.082	5.1
344.293	3.42
344.504	3.53
344.714	3.3
344.925	3.86
345.136	4.08
345.346	3.57
345.557	3.55
345.768	4.11
345.978	4.16
346.189	3.17
346.399	3.41
346.61	4.99
346.821	6.37
347.031	7.35
347.242	7.6
347.452	7.13
347.663	6.89
347.873	6.94
348.084	6.79
348.294	6.03
348.504	5.11
348.715	5.54
348.925	4.12
349.136	2.84
349.346	1.74
349.557	1.74
349.767	1.62
349.977	3.31
350.188	3.67
350.398	2.83
350.608	3.67
350.819	4.77
351.029	5.2
351.239	6.78
351.449	6.47
351.66	7
351.87	6.91
352.08	5.82
352.29	5.45
352.501	4.3
352.711	4.96
352.921	4.65
353.131	4.31
353.341	2.79
353.552	2.04
353.762	0.97
353.972	0.2
354.182	0.51
354.392	1.35
354.602	0.66
354.812	1.4
355.022	0.93
355.232	1.3
355.442	1.94
355.652	1.94
355.862	1.43
356.072	2.59
356.282	3.18
356.492	2.94
356.702	2.9
356.912	3.33
357.122	3.52
357.332	3.42
357.542	3.12
357.752	2.43
357.962	1.85
358.171	1.99
358.381	1.81
358.591	2.63
358.801	1.78
359.011	1.96
359.221	2.04
359.43	1.09
359.64	1.55
359.85	1.97
360.06	1.99
360.269	2.71
360.479	2.84
360.689	2.96
360.899	2.66
361.108	2.65
361.318	2.42
361.528	1.78
361.737	2.27
361.947	2.49
362.156	2.27
362.366	2.65
362.576	3.27
362.785	3.35
362.995	3.26
363.204	2.49
363.414	3.16
363.623	3.84
363.833	4.44
364.042	5.62
364.252	5.22
364.461	5.24
364.671	4.71
364.88	4.36
365.09	4.59
365.299	4.9
365.509	5.17
365.718	4.55
365.927	4.34
366.137	4.19
366.346	4.19
366.555	4.56
366.765	5.27
366.974	5.83
367.183	7.14
367.393	7.65
367.602	7.14
367.811	6.76
368.021	6.85
368.23	6.66
368.439	7.02
368.648	5.87
368.857	6.02
369.067	4.7
369.276	4.56
369.485	3.74
369.694	2.88
369.903	3.97
370.112	4.26
370.321	4.96
370.531	4.61
370.74	4.09
370.949	4.53
371.158	4.98
371.367	5.56
371.576	4.88
371.785	4.35
371.994	4.74
372.203	4.41
372.412	4.34
372.621	4.57
372.83	5.05
373.039	5.56
373.248	5.24
373.457	3.98
373.666	4.23
373.874	4.87
374.083	4.57
374.292	4.92
374.501	4.75
374.71	4.59
374.919	4.13
375.128	3.46
375.336	2.87
375.545	2.8
375.754	3.57
375.963	2.78
376.171	3.17
376.38	2.81
376.589	2.22
376.798	2.09
377.006	2.05
377.215	1.36
377.424	2.06
377.632	2.31
377.841	1.94
378.05	1.64
378.258	1.82
378.467	1.42
378.675	1.91
378.884	2.38
379.093	2.58
379.301	3.06
379.51	3.76
379.718	4.2
379.927	5
380.135	5.7
380.344	5.86
380.552	5.32
380.761	5.11
380.969	5.25
381.177	4.74
381.386	4.85
381.594	4.33
381.803	4.59
382.011	3.54
382.219	2.71
382.428	2.49
382.636	2.26
382.845	2.7
383.053	2.28
383.261	2.58
383.469	2.32
383.678	2.29
383.886	2.67
384.094	2.01
384.302	2.58
384.511	2.4
384.719	2.26
384.927	2.43
385.135	2.78
385.343	3.26
385.552	3.19
385.76	3.19
385.968	3.08
386.176	2.95
386.384	3.19
386.592	2.99
386.8	3.31
387.008	3.13
387.216	3.05
387.424	3.06
387.633	3.14
387.841	2.8
388.049	3.13
388.257	3.18
388.465	3.21
388.672	3.33
388.88	2.94
389.088	2.81
389.296	2.85
389.504	3.11
389.712	3.62
389.92	3.1
390.128	2.64
390.336	2.69
390.544	2.69
390.751	2.81
390.959	2.79
391.167	3.37
391.375	3.29
391.583	3.4
391.79	3.14
391.998	2.83
392.206	3.22
392.414	3.6
392.621	3.76
392.829	3.72
393.037	3.69
393.244	3.64
393.452	3.41
393.66	3.29
393.867	3.39
394.075	3.43
394.283	3.37
394.49	3.16
394.698	3.55
394.905	3.35
395.113	3.13
395.32	2.96
395.528	2.87
395.735	3.03
395.943	3.45
396.15	3.27
396.358	3.28
396.565	3.1
396.773	3.31
396.98	2.75
397.188	2.64
397.395	2.95
397.602	2.85
397.81	2.73
398.017	2.53
398.225	2.12
398.432	2.24
398.639	2.04
398.847	2.01
399.054	1.52
399.261	1.75
399.468	1.87
399.676	1.99
399.883	2.24
400.09	1.98
400.297	1.85
400.505	1.99
400.712	2.01
400.919	2.25
401.126	2.33
401.333	2.55
401.54	2.64
401.748	2.47
401.955	2.25
402.162	2.15
402.369	2.48
402.576	2.66
402.783	2.62
402.99	2.54
403.197	2.12
403.404	1.99
403.611	2.08
403.818	2.08
404.025	2.21
404.232	2.07
404.439	2.09
404.646	2.22
404.853	2.11
405.06	1.97
405.267	1.83
405.474	2.13
405.681	2.14
405.887	2.17
406.094	2.26
406.301	2.39
406.508	2.37
406.715	2.28
406.922	2.15
407.128	2.47
407.335	2.68
407.542	2.74
407.749	2.45
407.955	2.54
408.162	2.34
408.369	2.06
408.575	1.52
408.782	1.54
408.989	1.62
409.195	1.5
409.402	1.07
409.609	1.03
409.815	1.12
410.022	1.29
410.228	1.13
410.435	1.16
410.642	0.98
410.848	1.24
411.055	1.14
411.261	1.33
411.468	1.47
411.674	1.47
411.881	1.51
412.087	1.59
412.294	1.79
412.5	2.23
412.706	2.29
412.913	2.54
413.119	2.82
413.326	3.07
413.532	3.03
413.738	3.03
413.945	3.24
414.151	2.88
414.357	2.83
414.564	2.64
414.77	2.14
414.976	2.18
415.182	2.28
415.389	2
415.595	2.04
415.801	1.77
416.007	1.83
416.214	1.73
416.42	2
416.626	1.77
416.832	1.97
417.038	2.17
417.244	2.24
417.45	2.12
417.657	2.2
417.863	2.01
418.069	2.19
418.275	2.17
418.481	2.16
418.687	2.27
418.893	2.31
419.099	2.24
419.305	2.26
419.511	2.21
419.717	2.2
419.923	2.18
420.129	2.24
420.335	2.41
420.541	2.31
420.746	2.57
420.952	2.49
421.158	2.62
421.364	2.69
421.57	2.62
421.776	2.67
421.982	2.72
422.187	2.85
422.393	3.05
422.599	2.76
422.805	2.98
423.01	2.86
423.216	2.87
423.422	2.9
423.628	2.85
423.833	3.06
424.039	3.17
424.245	3.25
424.45	3.05
424.656	2.84
424.862	2.98
425.067	3.02
425.273	2.96
425.478	2.94
425.684	2.87
425.889	2.86
426.095	2.66
426.301	2.5
426.506	2.23
426.712	2.21
426.917	2.37
427.123	2.4
427.328	2.13
427.533	2.13
427.739	1.92
427.944	1.7
428.15	1.5
428.355	1.43
428.561	1.38
428.766	1.54
428.971	1.71
429.177	1.61
429.382	1.48
429.587	1.39
429.793	1.33
429.998	1.53
430.203	1.76
430.408	1.9
430.614	1.95
430.819	2.02
431.024	2.15
431.229	2.32
431.434	2.16
431.64	2.29
431.845	2.37
432.05	2.37
432.255	2.2
432.46	2.29
432.665	2.48
432.87	2.36
433.076	2.53
433.281	2.57
433.486	2.43
433.691	2.42
433.896	2.44
434.101	2.27
434.306	2.27
434.511	2.52
434.716	2.61
434.921	2.51
435.126	2.74
435.331	2.45
435.535	2.38
435.74	2.45
435.945	2.72
436.15	2.72
436.355	2.79
436.56	2.79
436.765	2.81
436.97	2.67
437.174	2.53
437.379	2.47
437.584	2.56
437.789	2.45
437.993	2.32
438.198	2.17
438.403	1.94
438.608	2.15
438.812	2.28
439.017	2.36
439.222	2.48
439.426	2.65
439.631	2.69
439.836	2.61
440.04	2.68
440.245	2.71
440.45	2.73
440.654	2.88
440.859	2.83
441.063	2.76
441.268	2.66
441.472	2.54
441.677	2.45
441.881	2.41
442.086	2.5
442.29	2.4
442.495	2.38
442.699	2.24
442.904	2.22
443.108	2.15
443.312	1.98
443.517	2.08
443.721	2.02
443.925	2
444.13	1.87
444.334	1.98
444.538	1.97
444.743	2.18
444.947	2.26
445.151	2.21
445.356	2.23
445.56	2.4
445.764	2.34
445.968	2.43
446.173	2.5
446.377	2.55
446.581	2.39
446.785	2.38
446.989	2.18
447.193	2.19
447.398	2.23
447.602	2.24
447.806	2.18
448.01	2.14
448.214	1.95
448.418	1.83
448.622	1.83
448.826	1.9
449.03	1.97
449.234	2.01
449.438	2.02
449.642	2.28
449.846	2.26
450.05	2.24
450.254	2.08
450.458	2.19
450.662	2.28
450.866	2.27
451.069	2.18
451.273	2.21
451.477	2.06
451.681	2.02
451.885	1.64
452.089	1.58
452.292	1.76
452.496	1.79
452.7	1.99
452.904	1.99
453.107	2.06
453.311	2.12
453.515	2.09
453.719	2.34
453.922	2.39
454.126	2.41
454.33	2.55
454.533	2.29
454.737	2.26
454.94	2.09
455.144	2.08
455.348	2.15
455.551	2.2
455.755	2.11
455.958	1.78
456.162	1.69
456.365	1.62
456.569	1.38
456.772	1.52
456.976	1.66
457.179	1.82
457.383	1.7
457.586	1.57
457.79	1.55
457.993	1.67
458.196	1.97
458.4	2.03
458.603	2.3
458.807	2.37
459.01	2.37
459.213	2.28
459.417	2.15
459.62	2.27
459.823	2.37
460.026	2.56
460.23	2.55
460.433	2.42
460.636	2.36
460.839	2.18
461.042	2.19
461.246	2.12
461.449	2.13
461.652	2.16
461.855	2.06
462.058	2.03
462.261	1.77
462.464	1.67
462.668	1.77
462.871	1.72
463.074	1.87
463.277	1.76
463.48	1.89
463.683	1.78
463.886	2.07
464.089	2.28
464.292	2.1
464.495	2.12
464.698	2.04
464.901	1.99
465.104	1.93
465.306	1.86
465.509	2.07
465.712	1.93
465.915	1.96
466.118	1.59
466.321	1.56
466.524	1.65
466.726	1.77
466.929	1.86
467.132	1.96
467.335	2.13
467.538	2.01
467.74	2
467.943	2.21
468.146	2.27
468.348	2.51
468.551	2.44
468.754	2.41
468.956	2.15
469.159	2.22
469.362	2.24
469.564	2.17
469.767	2.08
469.969	1.99
470.172	1.89
470.375	1.85
470.577	1.73
470.78	1.79
470.982	1.81
471.185	1.93
471.387	1.91
471.59	1.7
471.792	1.83
471.995	2.01
472.197	2.2
472.399	2.05
472.602	2.1
472.804	2.04
473.007	2.04
473.209	2.09
473.411	2.12
473.614	2.27
473.816	2.43
474.018	2.32
474.22	2.27
474.423	2.13
474.625	2.4
474.827	2.52
475.03	2.43
475.232	2.36
475.434	2.28
475.636	2.15
475.838	2.07
476.04	2.02
476.243	2.28
476.445	2.31
476.647	2.36
476.849	2.23
477.051	2.09
477.253	2.13
477.455	2.06
477.657	1.99
477.859	2.16
478.061	1.94
478.263	1.97
478.465	2
478.667	2.09
478.869	2.04
479.071	1.95
479.273	1.94
479.475	1.96
479.677	1.98
479.879	2
480.081	2
480.283	2.05
480.485	2
480.686	1.76
480.888	1.62
481.09	1.63
481.292	1.7
481.494	1.82
481.695	1.96
481.897	2.11
482.099	2.17
482.301	2.15
482.502	2.21
482.704	2.3
482.906	2.4
483.107	2.48
483.309	2.52
483.511	2.52
483.712	2.49
483.914	2.5
484.115	2.43
484.317	2.47
484.519	2.49
484.72	2.52
484.922	2.54
485.123	2.52
485.325	2.54
485.526	2.5
485.728	2.55
485.929	2.55
486.131	2.48
486.332	2.52
486.534	2.43
486.735	2.45
486.936	2.47
487.138	2.41
487.339	2.32
487.541	2.3
487.742	2.24
487.943	2.2
488.144	2.26
488.346	2.27
488.547	2.26
488.748	2.3
488.95	2.22
489.151	2.23
489.352	2.21
489.553	2.31
489.755	2.3
489.956	2.43
490.157	2.4
490.358	2.38
490.559	2.3
490.76	2.27
490.961	2.25
491.163	2.37
491.364	2.29
491.565	2.29
491.766	2.25
491.967	2.22
492.168	2.16
492.369	2.18
492.57	2.05
492.771	2.19
492.972	2.25
493.173	2.24
493.374	2.13
493.575	2.21
493.776	2.16
493.976	2.25
494.177	2.27
494.378	2.29
494.579	2.23
494.78	2.41
494.981	2.33
495.182	2.15
495.382	2.29
495.583	2.43
495.784	2.3
495.985	2.45
496.185	2.45
496.386	2.38
496.587	2.37
496.788	2.48
496.988	2.44
497.189	2.3
497.39	2.5
497.59	2.37
497.791	2.27
497.992	2.3
498.192	2.12
498.393	2.04
498.593	2.01
498.794	1.96
498.994	1.98
499.195	2.15
499.395	2.3
499.596	2.1
499.796	2.25
499.997	2.23
500.197	2.21
500.398	2.39
500.598	2.48
500.799	2.52
500.999	2.54
501.199	2.35
501.4	2.13
501.6	1.99
501.801	2.07
502.001	1.81
502.201	2.09
502.402	2.16
502.602	2
502.802	1.85
503.002	2.09
503.203	2.12
503.403	2.18
503.603	2.3
503.803	2.39
504.003	2.46
504.204	2.62
504.404	2.23
504.604	2.18
504.804	2.27
505.004	2.25
505.204	2.09
505.404	2.36
505.604	2.4
505.804	2.21
506.005	2.04
506.205	2.07
506.405	2.04
506.605	2.29
506.805	2.37
507.005	2.28
507.204	2.4
507.404	2.43
507.604	2.26
507.804	2.25
508.004	2.37
508.204	2.55
508.404	2.51
508.604	2.51
508.804	2.53
509.003	2.52
509.203	2.63
509.403	2.58
509.603	2.59
509.803	2.56
510.002	2.54
510.202	2.49
510.402	2.47
510.602	2.55
510.801	2.61
511.001	2.57
511.201	2.56
511.4	2.58
511.6	2.6
511.8	2.59
511.999	2.52
512.199	2.56
512.398	2.54
512.598	2.63
512.797	2.51
512.997	2.4
513.197	2.38
513.396	2.52
513.596	2.45
513.795	2.42
513.994	2.4
514.194	2.44
514.393	2.44
514.593	2.42
514.792	2.2
514.992	2.33
515.191	2.46
515.39	2.46
515.59	2.19
515.789	2.29
515.988	2.4
516.188	2.32
516.387	2.41
516.586	2.44
516.786	2.41
516.985	2.4
517.184	2.47
517.383	2.42
517.582	2.45
517.782	2.62
517.981	2.57
518.18	2.4
518.379	2.5
518.578	2.54
518.777	2.62
518.976	2.75
519.176	2.83
519.375	2.66
519.574	2.69
519.773	2.58
519.972	2.5
520.171	2.47
520.37	2.61
520.569	2.45
520.768	2.18
520.967	2.12
521.166	2.06
521.365	2.07
521.564	2.25
521.762	2.18
521.961	2.16
522.16	2.09
522.359	2.16
522.558	2
522.757	2.16
522.956	2.5
523.154	2.35
523.353	2.2
523.552	2.32
523.751	2.24
523.949	2.33
524.148	2.55
524.347	2.51
524.546	2.57
524.744	2.74
524.943	2.87
525.142	2.78
525.34	2.92
525.539	3.04
525.737	3.02
525.936	3.08
526.135	2.9
526.333	2.92
526.532	3.12
526.73	3.18
526.929	3.17
527.127	3.16
527.326	3.18
527.524	3.27
527.723	3.32
527.921	3.28
528.12	3.32
528.318	3.47
528.516	3.41
528.715	3.37
528.913	3.35
529.112	3.28
529.31	3.31
529.508	3.29
529.707	3.22
529.905	3.17
530.103	3.17
530.301	3.16
530.5	3.08
530.698	3.1
530.896	3.13
531.094	3.05
531.293	3.18
531.491	3.12
531.689	3.24
531.887	3.22
532.085	3.26
532.283	3.3
532.481	3.33
532.68	3.43
532.878	3.46
533.076	3.39
533.274	3.46
533.472	3.36
533.67	3.38
533.868	3.33
534.066	3.41
534.264	3.5
534.462	3.59
534.66	3.53
534.858	3.51
535.056	3.47
535.253	3.52
535.451	3.46
535.649	3.58
535.847	3.49
536.045	3.49
536.243	3.47
536.441	3.43
536.638	3.34
536.836	3.42
537.034	3.49
537.232	3.46
537.43	3.42
537.627	3.5
537.825	3.45
538.023	3.53
538.22	3.59
538.418	3.53
538.616	3.52
538.813	3.57
539.011	3.56
539.209	3.61
539.406	3.84
539.604	3.94
539.801	3.87
539.999	3.92
540.196	4
540.394	4.11
540.591	4.17
540.789	4.2
540.986	4.2
541.184	4.19
541.381	4.16
541.579	4.11
541.776	4.16
541.974	4.3
542.171	4.36
542.368	4.42
542.566	4.37
542.763	4.39
542.96	4.4
543.158	4.48
543.355	4.4
543.552	4.48
543.75	4.45
543.947	4.35
544.144	4.4
544.341	4.37
544.539	4.3
544.736	4.41
544.933	4.56
545.13	4.59
545.327	4.64
545.524	4.86
545.722	4.93
545.919	5.05
546.116	5.24
546.313	5.12
546.51	5.2
546.707	5.25
546.904	5.25
547.101	5.14
547.298	5.19
547.495	5.04
547.692	5.07
547.889	5.06
548.086	4.93
548.283	4.87
548.48	5.05
548.677	5.04
548.874	5.11
549.07	5.07
549.267	5.07
549.464	5.09
549.661	5.13
549.858	4.99
550.055	4.85
550.251	5.17
550.448	5.19
550.645	5.02
550.842	4.95
551.038	5.02
551.235	5.06
551.432	5.21
551.628	5.25
551.825	5.38
552.022	5.7
552.218	5.71
552.415	5.44
552.612	5.54
552.808	5.63
553.005	5.86
553.201	5.86
553.398	5.78
553.594	5.86
553.791	5.71
553.987	5.64
554.184	5.48
554.38	5.73
554.577	5.96
554.773	6.12
554.97	6.15
555.166	6.02
555.362	5.88
555.559	6.14
555.755	6.11
555.952	6.35
556.148	6.69
556.344	6.88
556.541	6.84
556.737	6.88
556.933	6.82
557.129	7.03
557.326	7.29
557.522	7.64
557.718	7.45
557.914	7.41
558.11	7.38
558.307	7.46
558.503	7.48
558.699	7.5
558.895	7.57
559.091	7.25
559.287	7.1
559.483	7.06
559.679	6.85
559.876	6.98
560.072	7.02
560.268	7.19
560.464	6.99
560.66	7.18
560.856	7.2
561.052	7.27
561.247	7.71
561.443	7.75
561.639	7.46
561.835	7.73
562.031	7.82
562.227	7.99
562.423	7.88
562.619	8.03
562.815	7.9
563.01	7.76
563.206	7.95
563.402	7.76
563.598	7.94
563.793	8.32
563.989	8.11
564.185	8.23
564.381	8.3
564.576	8.49
564.772	8.43
564.968	8.69
565.163	9.01
565.359	8.96
565.555	9.02
565.75	9
565.946	9.15
566.141	9.39
566.337	9.34
566.532	9.41
566.728	9.42
566.923	9.63
567.119	9.52
567.314	9.48
567.51	9.47
567.705	9.71
567.901	9.78
568.096	9.73
568.292	9.77
568.487	9.73
568.682	9.68
568.878	9.65
569.073	9.46
569.268	9.62
569.464	9.65
569.659	9.69
569.854	9.63
570.05	9.56
570.245	9.46
570.44	9.41
570.635	9.7
570.831	9.87
571.026	9.93
571.221	10.21
571.416	10.26
571.611	10.34
571.806	10.38
572.002	10.4
572.197	10.57
572.392	10.67
572.587	10.74
572.782	10.71
572.977	10.69
573.172	10.7
573.367	10.68
573.562	10.65
573.757	10.64
573.952	10.65
574.147	10.98
574.342	11.17
574.537	11.27
574.732	11.35
574.927	11.32
575.121	11.61
575.316	11.92
575.511	11.95
575.706	12.02
575.901	11.98
576.096	12.12
576.29	11.98
576.485	11.95
576.68	11.95
576.875	11.96
577.069	12.06
577.264	11.8
577.459	11.53
577.654	11.57
577.848	11.62
578.043	11.84
578.238	11.94
578.432	11.99
578.627	12.08
578.821	12.21
579.016	12.45
579.21	12.64
579.405	12.81
579.6	13.05
579.794	13.04
579.989	13
580.183	12.83
580.378	12.81
580.572	13.01
580.766	12.63
580.961	12.85
581.155	12.64
581.35	12.55
581.544	12.31
581.738	12.35
581.933	12.43
582.127	12.26
582.321	12.39
582.516	12.23
582.71	12.02
582.904	12.32
583.099	12.14
583.293	12.08
583.487	12.08
583.681	12.39
583.875	12.06
584.07	11.95
584.264	12.22
584.458	12.45
584.652	12.51
584.846	12.41
585.04	12.41
585.234	12.55
585.428	12.74
585.623	12.61
585.817	12.38
586.011	12.32
586.205	12.56
586.399	12.43
586.593	12.15
586.787	12.33
586.981	12.59
587.174	12.58
587.368	12.37
587.562	12.59
587.756	13.09
587.95	13.27
588.144	13.62
588.338	13.8
588.532	13.7
588.725	13.86
588.919	13.79
589.113	13.68
589.307	13.85
589.501	13.81
589.694	13.44
589.888	13.07
590.082	12.8
590.275	12.97
590.469	12.72
590.663	12.83
590.856	12.87
591.05	12.82
591.244	12.85
591.437	12.62
591.631	12.92
591.824	13.16
592.018	13.31
592.212	13.55
592.405	13.27
592.599	13.28
592.792	13.36
592.986	13.38
593.179	13.63
593.372	13.59
593.566	13.77
593.759	13.57
593.953	13.73
594.146	13.65
594.339	13.95
594.533	14.16
594.726	14.02
594.92	14.14
595.113	14.25
595.306	14.25
595.499	14.27
595.693	14.23
595.886	14.31
596.079	13.95
596.272	14.1
596.466	13.88
596.659	13.8
596.852	14.03
597.045	14.04
597.238	13.86
597.431	13.82
597.624	14.01
597.818	13.98
598.011	14.03
598.204	14.31
598.397	14.12
598.59	14.16
598.783	14.33
598.976	14.19
599.169	14.06
599.362	14.27
599.555	14.47
599.748	14.24
599.941	14.17
600.134	14.1
600.326	13.75
600.519	14.07
600.712	14.16
600.905	14.1
601.098	14.13
601.291	14.59
601.483	14.74
601.676	14.32
601.869	14.34
602.062	14.39
602.255	14.57
602.447	14.82
602.64	14.61
602.833	14.72
603.025	15.02
603.218	15.03
603.411	14.87
603.603	14.81
603.796	14.88
603.989	15.05
604.181	15.15
604.374	15.19
604.566	15.2
604.759	15.47
604.951	15.25
605.144	14.95
605.336	14.9
605.529	14.7
605.721	14.5
605.914	14.5
606.106	14.36
606.299	14.34
606.491	14.27
606.683	14.2
606.876	14.13
607.068	14.24
607.26	14.21
607.453	14.5
607.645	14.67
607.837	14.81
608.03	14.91
608.222	14.98
608.414	14.99
608.606	15.17
608.799	15.16
608.991	14.81
609.183	14.97
609.375	15.2
609.567	15.05
609.759	14.99
609.952	14.94
610.144	14.83
610.336	14.94
610.528	14.82
610.72	14.6
610.912	14.56
611.104	14.56
611.296	14.42
611.488	14.22
611.68	14.34
611.872	14.29
612.064	14.44
612.256	14.53
612.448	14.5
612.64	14.74
612.832	14.98
613.023	15.28
613.215	15.38
613.407	15.51
613.599	15.63
613.791	15.5
613.983	15.45
614.174	15.41
614.366	15.52
614.558	15.24
614.75	14.92
614.941	14.62
615.133	14.36
615.325	14.32
615.516	14.2
615.708	13.99
615.9	13.96
616.091	13.92
616.283	13.84
616.475	13.45
616.666	13.63
616.858	13.54
617.049	13.53
617.241	13.61
617.432	13.7
617.624	13.79
617.815	14.18
618.007	14.2
618.198	14.46
618.39	14.77
618.581	14.84
618.773	14.92
618.964	15.24
619.155	15.14
619.347	15.31
619.538	15.3
619.729	15.09
619.921	14.61
620.112	14.52
620.303	14.33
620.494	14.18
620.686	14.33
620.877	14.24
621.068	13.95
621.259	13.8
621.451	13.55
621.642	13.54
621.833	13.65
622.024	13.71
622.215	13.65
622.406	14.03
622.597	13.98
622.788	14.18
622.98	14.11
623.171	14.48
623.362	14.58
623.553	14.57
623.744	14.78
623.935	14.7
624.126	14.81
624.317	15.38
624.508	15.11
624.698	15.18
624.889	15.18
625.08	15.24
625.271	15.09
625.462	15.22
625.653	15.06
625.844	14.89
626.034	15.04
626.225	15.27
626.416	14.91
626.607	15.03
626.798	15.2
626.988	14.92
627.179	14.94
627.37	14.86
627.56	14.99
627.751	15.2
627.942	15.29
628.132	15.08
628.323	15.05
628.514	15.26
628.704	15.17
628.895	14.93
629.085	15.25
629.276	15.21
629.466	15.28
629.657	15.15
629.847	15.18
630.038	15.25
630.228	15.72
630.419	15.3
630.609	15.21
630.8	15.25
630.99	15.11
631.181	14.53
631.371	14.41
631.561	14.35
631.752	14.52
631.942	14.81
632.132	14.45
632.323	13.98
632.513	14.14
632.703	14.27
632.893	14.16
633.084	14.49
633.274	15
633.464	15.25
633.654	15.38
633.844	15.26
634.034	15.16
634.225	15.2
634.415	15.53
634.605	15.71
634.795	15.58
634.985	15.47
635.175	15.22
635.365	15.24
635.555	14.87
635.745	14.84
635.935	14.81
636.125	14.62
636.315	15.05
636.505	15.13
636.695	15.17
636.885	15.47
637.075	15.79
637.265	15.72
637.455	15.56
637.644	16.14
637.834	15.7
638.024	15.46
638.214	15.55
638.404	15.19
638.593	14.76
638.783	14.78
638.973	14.77
639.163	14.16
639.352	14.42
639.542	14.39
639.732	13.81
639.921	14.31
640.111	14.53
640.301	14.52
640.49	14.78
640.68	14.84
640.87	14.65
641.059	14.25
641.249	14.78
641.438	14.54
641.628	14.93
641.817	15.38
642.007	15.09
642.196	15.06
642.386	15.1
642.575	14.75
642.764	15.24
642.954	15.35
643.143	15.44
643.333	15.5
643.522	15.87
643.711	15.48
643.901	15.75
644.09	16.07
644.279	16.32
644.469	16.59
644.658	16.45
644.847	16.27
645.036	16.33
645.226	16.43
645.415	16.18
645.604	15.62
645.793	15.83
645.982	15.49
646.171	15.44
646.361	15.04
646.55	14.7
646.739	14.97
646.928	15.03
647.117	14.85
647.306	14.45
647.495	14.83
647.684	15.17
647.873	15.23
648.062	14.92
648.251	14.9
648.44	15
648.629	14.83
648.818	14.88
649.007	14.28
649.196	14.34
649.384	14.25
649.573	14.6
649.762	14.3
649.951	14.07
650.14	14.07
650.328	14.03
650.517	14.47
650.706	14.86
650.895	14.8
651.083	14.98
651.272	14.71
651.461	14.88
651.65	14.31
651.838	15.05
652.027	15.39
652.216	15.72
652.404	15.72
652.593	15.06
652.781	14.95
652.97	14.97
653.158	14.91
653.347	15.18
653.535	15.51
653.724	15.89
653.912	15.48
654.101	14.9
654.289	14.74
654.478	14.98
654.666	15.4
654.855	15.4
655.043	15.32
655.231	15.69
655.42	15.9
655.608	15.43
655.796	14.88
655.985	14.6
656.173	15.13
656.361	15.05
656.55	15.09
656.738	14.93
656.926	14.73
657.114	14.57
657.302	14.34
657.491	14.32
657.679	14.67
657.867	14.31
658.055	14.5
658.243	14.3
658.431	14.52
658.619	14.44
658.807	14.61
658.996	14.68
659.184	15.18
659.372	15.44
659.56	15.44
659.748	15.32
659.936	15.94
660.124	16.08
660.311	16.15
660.499	16.43
660.687	16.01
660.875	16.09
661.063	16.11
661.251	15.69
661.439	15.28
661.627	14.99
661.814	14.94
662.002	14.3
662.19	14.05
662.378	13.51
662.565	13.22
662.753	13.47
662.941	13.38
663.129	13.56
663.316	14.03
663.504	14.27
663.692	14.22
663.879	14.48
664.067	15.16
664.254	15.24
664.442	15.64
664.63	15.71
664.817	15.88
665.005	15.09
665.192	14.82
665.38	14.65
665.567	14.99
665.755	15.28
665.942	15.16
666.13	14.73
666.317	15.13
666.504	15.14
666.692	14.88
666.879	15.12
667.067	16.14
667.254	16.27
667.441	16.07
667.629	15.29
667.816	15.14
668.003	14.97
668.19	15.15
668.378	15.13
668.565	15.61
668.752	15.59
668.939	15.25
669.127	14.77
669.314	14.98
669.501	14.84
669.688	15.07
669.875	15.21
670.062	14.88
670.249	14.97
670.436	13.76
670.623	13.29
670.81	13.36
670.997	13.44
671.184	13.73
671.371	13.32
671.558	13.5
671.745	13.87
671.932	13.83
672.119	14.19
672.306	14.31
672.493	15.46
672.68	15.41
672.867	15.18
673.054	15.29
673.24	15.4
673.427	15.33
673.614	15.13
673.801	14.8
673.988	14.68
674.174	14.78
674.361	15.01
674.548	14.86
674.734	15.05
674.921	15.22
675.108	15.12
675.294	15.08
675.481	15.1
675.668	15.23
675.854	15.76
676.041	15.88
676.227	15.73
676.414	15.23
676.601	15.08
676.787	14.95
676.974	14.98
677.16	15.15
677.347	15.32
677.533	15.6
677.719	15.68
677.906	15.2
678.092	15.15
678.279	15.01
678.465	15.23
678.651	15.32
678.838	15.62
679.024	15.57
679.21	15.42
679.397	15.32
679.583	15.65
679.769	15.63
679.955	15.77
680.142	15.87
680.328	15.97
680.514	16
680.7	15.89
680.886	16.01
681.073	15.96
681.259	16.07
681.445	15.99
681.631	15.54
681.817	15.19
682.003	15.5
682.189	15.32
682.375	15.6
682.561	15.97
682.747	16.06
682.933	15.62
683.119	15.72
683.305	15.86
683.491	15.62
683.677	15.44
683.863	16.2
684.049	16.28
684.235	16.63
684.42	16.6
684.606	16.32
684.792	16.25
684.978	16.48
685.164	16.34
685.349	16.2
685.535	16.3
685.721	16.71
685.907	16.48
686.092	15.86
686.278	15.93
686.464	16.01
686.649	15.83
686.835	15.84
687.021	15.53
687.206	15.92
687.392	15.85
687.577	15.86
687.763	15.19
687.948	14.49
688.134	14.67
688.319	14.38
688.505	14.45
688.69	14.29
688.876	13.69
689.061	13.83
689.247	13.39
689.432	13.88
689.618	13.89
689.803	14.51
689.988	14.91
690.174	14.79
690.359	14.73
690.544	14.51
690.73	14.32
690.915	14.59
691.1	14.79
691.285	15.37
691.471	15.31
691.656	15.4
691.841	15.13
692.026	14.93
692.211	14.98
692.396	15.29
692.582	14.93
692.767	15.11
692.952	15.4
693.137	15.12
693.322	14.72
693.507	14.11
693.692	13.99
693.877	14.07
694.062	13.99
694.247	14.08
694.432	13.43
694.617	13.35
694.802	13.42
694.987	14.32
695.172	14.31
695.357	14.45
695.541	14.58
695.726	14.69
695.911	15
696.096	15.49
696.281	15.24
696.466	16.27
696.65	16.51
696.835	16.87
697.02	15.67
697.204	15.99
697.389	15.72
697.574	15.59
697.759	15.57
697.943	15.85
698.128	16.01
698.312	15.71
698.497	15.56
698.682	15.3
698.866	14.7
699.051	15.05
699.235	14.93
699.42	14.77
699.604	15.05
699.789	15.17
699.973	14.96
700.158	14.82
700.342	15.48
700.527	14.87
700.711	15.07
700.895	15.57
701.08	15.78
701.264	15.94
701.448	15.99
701.633	15.58
701.817	15.7
702.001	15.58
702.186	15.8
702.37	15.48
702.554	15.89
702.738	16.69
702.923	16.69
703.107	16.25
703.291	16.12
703.475	16.66
703.659	17.4
703.843	17.61
704.027	17.16
704.212	16.43
704.396	15.94
704.58	15.76
704.764	14.97
704.948	15.08
705.132	14.9
705.316	14.53
705.5	14.72
705.684	13.43
705.868	12.78
706.052	13.03
706.235	13.91
706.419	14.24
706.603	14.68
706.787	14.28
706.971	14.47
707.155	14.12
707.339	14.66
707.522	14.63
707.706	15.2
707.89	15.41
708.074	15.8
708.257	15.4
708.441	15.6
708.625	15.2
708.808	15.19
708.992	15.14
709.176	15.62
709.359	15.25
709.543	15.23
709.727	14.57
709.91	14.32
710.094	14.44
710.277	14.29
710.461	14.8
710.644	14.64
710.828	14.93
711.011	14.38
711.195	14.18
711.378	14.94
711.562	14.32
711.745	14.83
711.928	14.64
712.112	14.53
712.295	15.04
712.478	13.9
712.662	14.94
712.845	14.56
713.028	15.07
713.212	15.97
713.395	15.87
713.578	16.36
713.761	16.67
713.945	16.94
714.128	16.39
714.311	15.63
714.494	15.84
714.677	14.91
714.86	15.68
715.043	15.69
715.227	15.06
715.41	14.49
715.593	14.45
715.776	14.12
715.959	14.31
716.142	14.51
716.325	14.83
716.508	15.06
716.691	14.94
716.874	13.88
717.057	13.06
717.239	12.9
717.422	13.15
717.605	13.5
717.788	13.64
717.971	14.02
718.154	14.3
718.337	14.08
718.519	15.2
718.702	16.2
718.885	17.13
719.068	18.03
719.25	18.39
719.433	18.29
719.616	17.14
719.798	16.87
719.981	16.24
720.164	16.36
720.346	16.79
720.529	15.48
720.712	14.02
720.894	14.23
721.077	13.78
721.259	13.39
721.442	14.32
721.624	15.15
721.807	15.41
721.989	14.91
722.172	13.69
722.354	13.85
722.537	14.18
722.719	14.49
722.901	14.22
723.084	13.81
723.266	14.6
723.448	14.07
723.631	14.07
723.813	14.68
723.995	14.24
724.178	15.06
724.36	13.75
724.542	13.45
724.724	13.69
724.907	12.82
725.089	14.01
725.271	13.14
725.453	11.43
725.635	10.47
725.817	9.57
725.999	9.79
726.181	9.96
726.364	10.67
726.546	10.51
726.728	9.98
726.91	10.89
727.092	10.55
727.274	10.94
727.456	11.94
727.638	11.97
727.819	11.82
728.001	13.14
728.183	12.61
728.365	13.33
728.547	14.92
728.729	15.53
728.911	15.04
729.093	14.5
729.274	14.83
729.456	14.63
729.638	15.32
729.82	15.38
730.001	13.7
730.183	13.93
730.365	13.89
730.546	12.8
730.728	11.65
730.91	11.75
731.091	11.25
731.273	11.01
731.455	12.26
731.636	11.9
731.818	12.49
731.999	13.43
732.181	13.15
732.362	13.36
732.544	12.72
732.725	13.59
732.907	13.94
733.088	14.7
733.27	14.92
733.451	14.09
733.633	14.59
733.814	14.25
733.995	14.49
734.177	15.2
734.358	14.28
734.539	14.26
734.721	14.26
734.902	13.39
735.083	13.33
735.264	13.37
735.446	12.97
735.627	12.37
735.808	11.53
735.989	11.53
736.17	11.5
736.351	11.55
736.533	11.81
736.714	12.61
736.895	13.61
737.076	13.74
737.257	13.44
737.438	13.84
737.619	13.5
737.8	15.44
737.981	15.53
738.162	14.76
738.343	13.85
738.524	15.08
738.705	14.1
738.886	13.65
739.067	13.67
739.247	13.92
739.428	13.79
739.609	13.08
739.79	13.38
739.971	13.79
740.151	13.96
740.332	15.59
740.513	15.57
740.694	16.62
740.874	17.26
741.055	17.06
741.236	16.76
741.417	15.43
741.597	18.64
741.778	18.92
741.958	18.08
742.139	18.06
742.32	17.6
742.5	15.06
742.681	14.41
742.861	13.58
743.042	11.69
743.222	11.98
743.403	13.12
743.583	11.32
743.764	8.05
743.944	7.31
744.124	6.27
744.305	7.21
744.485	7.98
744.666	7.19
744.846	9.25
745.026	11.37
745.207	11.82
745.387	11.16
745.567	11.96
745.747	13.43
745.928	14.07
746.108	14.28
746.288	13.42
746.468	14.05
746.648	14.36
746.829	13.72
747.009	12.61
747.189	12.5
747.369	13.44
747.549	12.68
747.729	14.02
747.909	13.52
748.089	14.9
748.269	14.95
748.449	15.31
748.629	17.13
748.809	16.72
748.989	18.32
749.169	16.74
749.349	16.83
749.529	17.21
749.709	16.53
749.889	17.33
750.068	17.91
750.248	17.97
750.428	17.73
750.608	16.98
750.788	15.22
750.967	15.67
751.147	15.37
751.327	15.9
751.507	15.24
751.686	16.02
751.866	14.79
752.046	12.61
752.225	12.21
752.405	12.42
752.585	10.93
752.764	12.42
752.944	11.45
753.123	13.4
753.303	13.02
753.482	12.39
753.662	11.46
753.841	13.12
754.021	14.93
754.2	14.59
754.38	12.97
754.559	13.66
754.739	13.36
754.918	14.06
755.097	13.7
755.277	13.76
755.456	14.48
755.635	13.68
755.815	13.09
755.994	12.69
756.173	13.07
756.352	14.95
756.532	14.99
756.711	16.5
756.89	16.42
757.069	17.12
757.248	18.65
757.427	18.13
757.607	17.44
757.786	17.1
757.965	17.93
758.144	18.43
758.323	18.36
758.502	18.42
758.681	17.46
758.86	16.71
759.039	15.73
759.218	13.91
759.397	13.86
759.576	15.76
759.755	16.1
759.934	13.85
760.113	12.46
760.291	11.99
760.47	12.7
760.649	11.89
760.828	10.88
761.007	10.58
761.186	10.47
761.364	10.49
761.543	9.02
761.722	8.52
761.901	9.4
762.079	9.52
762.258	9.53
762.437	9.11
762.615	9.64
762.794	10.85
762.972	10.82
763.151	10.41
763.33	10.71
763.508	11.26
763.687	11.32
763.865	12.28
764.044	12.74
764.222	13.76
764.401	13.2
764.579	13.17
764.758	12.69
764.936	12.66
765.114	12.66
765.293	12.92
765.471	12.66
765.65	13.47
765.828	12.35
766.006	10.9
766.184	9.6
766.363	9.13
766.541	8.24
766.719	7.55
766.898	7.53
767.076	8.03
767.254	7.91
767.432	7.76
767.61	6.63
767.788	5.75
767.967	6.61
768.145	7.18
768.323	8.05
768.501	8.83
768.679	9.43
768.857	9.11
769.035	9.64
769.213	9.15
769.391	9.4
769.569	9.87
769.747	10.59
769.925	11.55
770.103	12.02
770.281	11.11
770.459	10.96
770.636	10.87
770.814	11.66
770.992	9.88
771.17	10.02
771.348	9.06
771.525	6.44
771.703	7.63
771.881	7.49
772.059	5.8
772.236	6.71
772.414	8.62
772.592	11.78
772.769	9.29
772.947	11.18
773.125	11.13
773.302	10.76
773.48	13.92
773.657	12.6
773.835	12.85
774.013	14.7
774.19	15.04
774.368	14.73
774.545	12.95
774.723	16.35
774.9	15.99
775.077	14.69
775.255	16.86
775.432	16.96
775.61	17.45
775.787	17
775.964	15.88
776.142	15
776.319	14.45
776.496	13.42
776.674	12.97
776.851	11.42
777.028	13.49
777.205	13.42
777.382	13.81
777.56	14.57
777.737	14.58
777.914	15.15
778.091	15.58
778.268	14.14
778.445	13.51
778.622	11.98
778.8	11.79
778.977	11.81
779.154	12.18
779.331	9.4
779.508	7.99
779.685	9.06
779.862	7.77
780.038	7.12
780.215	9.57
780.392	8.29
780.569	9.83
780.746	12.68
780.923	12.32
781.1	9.83
781.277	10.06
781.453	8.78
781.63	6.31
781.807	6.52
781.984	4.63
782.16	1.85
782.337	3.59
782.514	4.73
782.691	3.6
782.867	1.29
783.044	2.73
783.221	3.87
783.397	5.61
783.574	4.27
783.75	2.59
783.927	6.75
784.103	7.51
784.28	7.25
784.456	4.82
784.633	2.34
784.809	6.17
784.986	5.61
785.162	6.88
785.339	5.4
785.515	8.03
785.692	8.93
785.868	8.35
786.044	9.96
786.221	10.47
786.397	11.25
786.573	12.9
786.749	11.26
786.926	9.76
787.102	10.82
787.278	10.32
787.454	9.38
787.631	9.13
787.807	7.28
787.983	5.49
788.159	6.04
788.335	5.15
788.511	6.33
788.687	6.71
788.863	7.81
789.039	5.68
789.216	4.71
789.392	4.17
789.568	6.82
789.744	6.92
789.919	5.5
790.095	5.38
790.271	4.44
790.447	1.74
790.623	-1.79
790.799	-2.54
790.975	-2.48
791.151	1.96
791.327	3.71
791.502	1.61
791.678	2.98
791.854	2.26
792.03	2.84
792.205	3.66
792.381	3.99
792.557	8.04
792.733	8.6
792.908	10.12
793.084	7.67
793.259	8.45
793.435	4.77
793.611	5.03
793.786	5.02
793.962	1.98
794.137	0.21
794.313	0.45
794.488	-1.51
794.664	-0.64
794.839	-3.1
795.015	-2.35
795.19	-1.72
795.366	1.4
795.541	3.77
795.716	8.1
795.892	10.15
796.067	11.64
796.242	13.47
796.418	15.84
796.593	12.64
796.768	12.46
796.944	11.74
797.119	10.34
797.294	8.16
797.469	3.51
797.644	2.89
797.82	0.04
797.995	0.6
798.17	-3.53
798.345	-5.82
798.52	-4.24
798.695	-2.97
798.87	-2.15
799.045	0.19
799.22	-1.19
799.395	-1.79
799.57	-2.42
799.745	-1.92
799.92	2.29
800.095	7.73
800.27	10.56
800.445	11.4
800.62	13.13
800.795	13.35
800.97	8.48
801.145	11.82
801.319	16.02
801.494	16.75
801.669	19.8
801.844	13.7
802.018	11.75
802.193	6.89
802.368	9.08
802.543	7.99
802.717	8.34
802.892	9.13
803.067	9.11
803.241	9.04
803.416	7.62
803.59	7.17
803.765	8.97
803.94	7.82
804.114	12.84
804.289	5.46
804.463	4.56
804.638	2.8
804.812	5.92
804.986	3.77
805.161	-1.97
805.335	-3.1
805.51	-6.01
805.684	-4.95
805.858	-6.87
806.033	-7.55
806.207	-0.35
806.381	-3.1
806.556	-1.93
806.73	1.09
806.904	2.04
807.078	5.54
807.253	9.09
807.427	11.38
807.601	10.07
807.775	9.88
807.949	10.24
808.123	8.6
808.298	10.74
808.472	9.65
808.646	9.24
808.82	10.22
808.994	12.9
809.168	9.45
809.342	5.61
809.516	4.99
809.69	9.98
809.864	9.49
810.038	9.04
810.212	7.94
810.385	9.9
810.559	7.28
810.733	8.02
810.907	3.58
811.081	4.27
811.255	7.85
811.428	12.09
811.602	6.48
811.776	3
811.95	2.34
812.123	5.83
812.297	3.93
812.471	-0.3
812.644	-3.94
812.818	-2.7
812.992	-0.09
813.165	-7.11
813.339	-13.07
813.512	-5.63
813.686	-0.79
813.86	2.27
814.033	-2.33
814.207	-2.49
814.38	1.59
814.554	3.84
814.727	3.82
814.9	3.41
815.074	5.79
815.247	9.98
815.421	4.47
815.594	-1.9
815.767	-3.42
815.941	-3.6
816.114	-3.97
816.287	-2.27
816.46	0.2
816.634	-1.9
816.807	-4.4
816.98	-0.13
817.153	-2.89
817.327	-6.22
817.5	-3.1
817.673	-5.86
817.846	-6.4
818.019	-3.51
818.192	-5.16
818.365	-5.7
818.538	-4.89
818.711	-9.63
818.884	-6.02
819.057	-5.77
819.23	-4.76
819.403	-1.24
819.576	2.19
819.749	7.18
819.922	7.49
820.095	6.2
820.268	6.42
820.441	8.71
820.614	13.2
820.786	12.92
820.959	15.76
821.132	19.05
821.305	18.59
821.477	17.02
821.65	17.33
821.823	17.91
821.996	20.21
822.168	20.5
822.341	20.4
822.514	19.57
822.686	19.08
822.859	17.89
823.031	17.34
823.204	17.74
823.376	18.85
823.549	18.81
823.722	18.3
823.894	17.73
824.067	17.01
824.239	17.41
824.411	17.47
824.584	17.47
824.756	18.08
824.929	16.59
825.101	15.65
825.273	14.15
825.446	14.07
825.618	14.22
825.79	14.65
825.963	15.57
826.135	15.8
826.307	16.45
826.479	16.67
826.652	16.88
826.824	18.38
826.996	19.5
827.168	21.31
827.34	21.34
827.512	21
827.684	19.84
827.856	19.21
828.029	17.77
828.201	17.15
828.373	16.53
828.545	16.38
828.717	15.98
828.889	15.35
829.061	13.11
829.232	11.53
829.404	11.63
829.576	9.1
829.748	7.08
829.92	4.92
830.092	5.94
830.264	6.72
830.436	5.7
830.607	7.48
830.779	5.71
830.951	3.19
831.123	4.29
831.294	1.69
831.466	5.26
831.638	5.83
831.809	8.38
831.981	5.99
832.153	5.16
832.324	0.56
832.496	2.01
832.667	6.24
832.839	7.35
833.011	7.48
833.182	7.85
833.354	8.3
833.525	7.24
833.697	5.22
833.868	8.06
834.039	8.9
834.211	12.33
834.382	10.56
834.554	9.97
834.725	10.67
834.896	9.62
835.068	10.19
835.239	7.46
835.41	10.29
835.581	10.53
835.753	8.1
835.924	7.9
836.095	6.16
836.266	3.95
836.438	-0.21
836.609	-0.67
836.78	1.38
836.951	1.64
837.122	9.18
837.293	6.47
837.464	5.09
837.635	5
837.806	3.63
837.977	7.8
838.148	11.44
838.319	12.34
838.49	16.72
838.661	14.67
838.832	15.87
839.003	6.17
839.174	2.23
839.345	5.19
839.516	6.57
839.687	7.34
839.857	6.02
840.028	4.83
840.199	6.58
840.37	-0.4
840.54	1
840.711	-2.52
840.882	-3.08
841.053	0.95
841.223	-0.69
841.394	-2.25
841.564	-6.63
841.735	-13.1
841.906	-13.97
842.076	-19.22
842.247	-13.64
842.417	-20.46
842.588	-16.22
842.758	-13.62
842.929	-16.54
843.099	-13.11
843.27	-7.76
843.44	-7.41
843.611	-6.12
843.781	-16.09
843.951	-17.27
844.122	-15.75
844.292	-6.66
844.462	-9.06
844.633	-13.57
844.803	-10.13
844.973	-25.2
845.144	-33.54
845.314	-23.58
845.484	-32.13
845.654	-12.13
845.824	-11.49
845.995	-19.77
846.165	-21.53
846.335	-24.09
846.505	-8.59
846.675	-5.13
846.845	0.17
847.015	-2.06
847.185	-10.88
847.355	-4.34
847.525	-20.84
847.695	-15.99
847.865	-23.37
848.035	-51.14
848.205	-62.4
848.375	-43.5
848.545	-35.23
848.715	-38.86
848.884	-40.14
849.054	-40.6
849.224	-41.39
849.394	-29.2
849.564	-38.37
849.733	-29.26
849.903	-18.39
850.073	-7.75
850.243	-42.67
850.412	-76.91
850.582	-44.3
850.752	-65.15
850.921	-37.09
851.091	-30.55
851.26	-32.14
851.43	-23.89
851.599	-36.17
851.769	-35.27
851.939	-28.71
852.108	-36.64
852.278	-16.25
852.447	-24.98
852.616	-6.65
852.786	5.01
852.955	3.47
853.125	-8.14
853.294	1.6
853.463	-3.95
853.633	-1.46
853.802	-18.94
853.971	-24.45
854.141	-33.6
854.31	-16.26
854.479	-39.69
854.648	-115.92
854.818	-122.07
854.987	-74.7
855.156	-85.79
855.325	-91.1
855.494	-98.52
855.663	-78.94
855.832	-55.75
856.001	-44.67
856.171	-61.72
856.34	-47.68
856.509	-23.48
856.678	-12.85
856.847	-27.46
857.016	-36.64
857.185	-30.62
857.353	-37.3
857.522	-69.54
857.691	-88.92
857.86	-102.29
858.029	-97.09
858.198	-104.47
858.367	-129.79
858.535	-153.65
858.704	-127.69
858.873	-113.4
859.042	-83.8
859.21	-88.03
859.379	-90.23
859.548	-96.61
859.717	-96.3
859.885	-155.33
860.054	-111.85
860.222	-101.75
860.391	-86.06
860.56	-63.14
860.728	-51.3
860.897	-20.38
861.065	-41.33
861.234	-46.65
861.402	-45.09
861.571	-52.4
861.739	-20.27
861.908	-39.76
862.076	-57.2
862.244	-62.5
862.413	-57.86
862.581	-62.08
862.749	-110.54
862.918	-66.01
863.086	-63.89
863.254	-50.25
863.423	-51.11
863.591	-74.2
863.759	-95.84
863.927	-72.16
864.096	-103.86
864.264	-167.82
864.432	-240.85
864.6	-400.14
864.768	-457.92
864.936	-429.74
865.104	-217.36
865.272	-308.16
865.44	-241.99
865.608	-199.77
865.776	-240.55
865.944	-239.44
866.112	-210.01
866.28	-133.01
866.448	-85.8
866.616	-135.72
866.784	-137.07
866.952	-213.85
867.12	-131.64
867.288	-114.43
867.455	-140.96
867.623	-132.56
867.791	-96.35
867.959	-75.54
868.127	-63.41
868.294	-45
868.462	-35.02
868.63	-43.11
868.797	-39.7
868.965	-68.51
869.133	-58.1
869.3	-36.31
869.468	-29.84
869.636	-44.34
869.803	-40.62
869.971	-47.81
870.138	-72.63
870.306	-73.81
870.473	-62.38
870.641	-53.46
870.808	-42.29
870.975	-61.71
871.143	-85.03
871.31	-216.8
871.478	-142.94
871.645	-137.91
871.812	-127.17
871.98	-130.88
872.147	-113.15
872.314	-83.96
872.482	-88.16
872.649	-111.82
872.816	-130.93
872.983	-89.55
873.15	-50.13
873.318	-45.43
873.485	-58.37
873.652	-72.81
873.819	-68.97
873.986	-76.1
874.153	-84.07
874.32	-107.49
874.487	-60.98
874.654	-49.07
874.821	-37.65
874.988	-27.91
875.155	-34.37
875.322	-31.48
875.489	-23.93
875.656	-12.13
875.823	-4.1
875.99	-2.26
876.157	-9.98
876.324	-21.11
876.49	-17.09
876.657	-29.29
876.824	-35.41
876.991	-17.91
877.157	-23.12
877.324	-18.94
877.491	-49.96
877.658	-61.96
877.824	-49.01
877.991	-25.06
878.157	-38.21
878.324	-73.83
878.491	-66.04
878.657	-12.18
878.824	-8.14
878.99	-15.72
879.157	-13.17
879.323	-9.79
879.49	-4.46
879.656	-23.05
879.823	-40.65
879.989	-28.32
880.156	-12.98
880.322	-5.15
880.488	-35.88
880.655	-110.39
880.821	-103.95
880.987	-98.97
881.154	-81.11
881.32	-95.72
881.486	-64.11
881.652	-53.21
881.819	-40.31
881.985	-35
882.151	-26.62
882.317	-12.63
882.483	-0.41
882.649	2.99
882.816	7.64
882.982	7.85
883.148	7.96
883.314	12.95
883.48	14.63
883.646	13.68
883.812	13.01
883.978	11.04
884.144	8.1
884.31	8.23
884.476	8.06
884.642	8.35
884.807	7.57
884.973	9.82
885.139	8.09
885.305	10.47
885.471	8.25
885.637	5.49
885.802	5.54
885.968	4.71
886.134	2.82
886.3	2.07
886.465	-6.2
886.631	-7.29
886.797	-5.09
886.962	-10.44
887.128	-16.33
887.293	-15.62
887.459	-17.01
887.625	-8.54
887.79	-1.23
887.956	-2.06
888.121	0.56
888.287	9.12
888.452	15.94
888.618	11.15
888.783	19.08
