Data from 2937893_Reflection_2.txt Node
Date: Wed Jul 15 14:00:11 EDT 2015
User: robert
Spectrometer: USB4E03001
Autoset integration time: false
Trigger mode: 4
Integration Time (sec): 1.000000E-1
Scans to average: 10
Electric dark correction enabled: true
Nonlinearity correction enabled: false
Boxcar width: 5
Stray light correction enabled: false
XAxis mode: Wavelengths
Stop averaging: false
Number of Pixels in Spectrum: 3648
>>>>>Begin Spectral Data<<<<<
177.566	638.58
177.785	205.47
178.005	781.84
178.225	-313.68
178.445	495.96
178.665	231.2
178.885	728.57
179.105	32.48
179.324	100.03
179.544	117.86
179.764	171.05
179.984	175.38
180.204	122.01
180.423	167.42
180.643	222.69
180.863	171.7
181.083	148.76
181.302	177.87
181.522	214.74
181.742	463.98
181.961	-73.61
182.181	189.54
182.401	95.4
182.621	14.03
182.84	266.99
183.06	123.36
183.279	423.74
183.499	589.5
183.719	-46.93
183.938	15.17
184.158	-2.02
184.377	35.5
184.597	71.83
184.816	26.33
185.036	-26.99
185.256	1.48
185.475	10.12
185.695	17.29
185.914	21.01
186.134	50.42
186.353	17.24
186.572	7.24
186.792	-12.58
187.011	-73.3
187.231	38.15
187.45	79.47
187.67	68.36
187.889	124.67
188.108	107.05
188.328	98.43
188.547	-15.01
188.766	9.26
188.986	-31.04
189.205	6.73
189.424	-17.6
189.644	-31.99
189.863	-37.4
190.082	-23.16
190.302	-19.41
190.521	-26.21
190.74	-32.85
190.959	-60.42
191.178	-46.08
191.398	-1.93
191.617	-5.99
191.836	4.13
192.055	11.62
192.274	90.31
192.494	131.47
192.713	113.52
192.932	129.1
193.151	125.71
193.37	100.01
193.589	103.74
193.808	101.45
194.027	85.28
194.246	156.71
194.465	180.96
194.685	174.93
194.904	158.37
195.123	166.32
195.342	143.18
195.561	90.27
195.78	105.56
195.999	81.3
196.218	62.04
196.436	34.96
196.655	49.14
196.874	24.66
197.093	20.34
197.312	22.68
197.531	-1.04
197.75	0.66
197.969	17.52
198.188	5.02
198.407	9.52
198.625	28.81
198.844	36.42
199.063	-5.55
199.282	4.62
199.501	-7.21
199.719	-70.4
199.938	-61.79
200.157	-16.6
200.376	17.16
200.594	37.72
200.813	24.52
201.032	-12.39
201.251	-19.89
201.469	14.3
201.688	43.35
201.907	41.29
202.125	59.48
202.344	59.76
202.563	54.31
202.781	39.34
203	31.99
203.218	30.79
203.437	26.43
203.656	29.36
203.874	11.57
204.093	-29.38
204.311	-85.1
204.53	-103.67
204.748	-17.09
204.967	-86.1
205.185	-14.73
205.404	254.86
205.622	496.13
205.841	131.92
206.059	177.57
206.278	2309.3
206.496	271.14
206.715	-296.66
206.933	203.32
207.151	220.86
207.37	-5.89
207.588	-349.56
207.806	85.3
208.025	75.55
208.243	83.79
208.461	119.9
208.68	61.29
208.898	52.43
209.116	48.45
209.335	67.03
209.553	45.55
209.771	56.73
209.989	46.79
210.208	36.29
210.426	36.59
210.644	26.38
210.862	57.93
211.081	49.78
211.299	59.95
211.517	40.68
211.735	43.96
211.953	64.08
212.171	37.63
212.39	38.36
212.608	31.63
212.826	35.04
213.044	31.66
213.262	-8.96
213.48	-4.54
213.698	-2.14
213.916	7.07
214.134	-2.48
214.352	-32.43
214.57	-3.47
214.788	-27.94
215.006	-76.27
215.224	-68.3
215.442	-81.37
215.66	-43.73
215.878	-39.77
216.096	-69.28
216.314	-78
216.532	-35.34
216.75	-12.63
216.968	-13.92
217.185	-32.21
217.403	-16.33
217.621	17.66
217.839	29.52
218.057	10.98
218.275	28.18
218.492	10.1
218.71	0.28
218.928	-8.51
219.146	-29.28
219.363	-15.7
219.581	14.85
219.799	15.13
220.017	-7.33
220.234	-9.68
220.452	-1.7
220.67	8.11
220.887	34.09
221.105	38.89
221.323	40.01
221.54	35.36
221.758	31.25
221.976	34.21
222.193	31.33
222.411	32.06
222.629	27.37
222.846	45.34
223.064	35.94
223.281	30.4
223.499	15.5
223.716	21.32
223.934	25.93
224.151	20.62
224.369	15.37
224.586	26.8
224.804	28.63
225.021	28.6
225.239	14.94
225.456	24.25
225.674	27.34
225.891	39.87
226.108	27.1
226.326	31.18
226.543	31.68
226.76	31.54
226.978	29.65
227.195	23.32
227.413	18.71
227.63	18.16
227.847	13.44
228.064	12.98
228.282	13
228.499	12.79
228.716	9.76
228.934	7.81
229.151	10.71
229.368	10.4
229.585	14.05
229.802	14.47
230.02	14.41
230.237	15.16
230.454	13.33
230.671	13.72
230.888	15.92
231.105	19.17
231.323	22.96
231.54	22.45
231.757	20.05
231.974	15.95
232.191	18.59
232.408	16.27
232.625	16.17
232.842	19.44
233.059	18.78
233.276	19.49
233.493	14.53
233.71	11.18
233.927	3.74
234.144	3.64
234.361	6.78
234.578	13.19
234.795	16.55
235.012	21.83
235.229	15.86
235.446	18.7
235.663	21.22
235.879	22.35
236.096	21.37
236.313	21.8
236.53	24.68
236.747	15.46
236.964	4.96
237.181	8.35
237.397	-0.5
237.614	2.43
237.831	-0.86
238.048	-4.68
238.264	-0.67
238.481	3.04
238.698	6.42
238.915	12.43
239.131	12.85
239.348	14.79
239.565	12.78
239.781	13.61
239.998	10.92
240.215	11.44
240.431	9.17
240.648	7.38
240.865	5.8
241.081	5.14
241.298	4.03
241.514	9.4
241.731	10.75
241.947	9.81
242.164	10.44
242.38	15.03
242.597	14.09
242.814	16.08
243.03	17.03
243.246	17.05
243.463	15.33
243.679	17.39
243.896	16.89
244.112	16.53
244.329	18.59
244.545	19.38
244.762	15.62
244.978	15.69
245.194	16.25
245.411	15.13
245.627	15.25
245.843	18.66
246.06	16.96
246.276	15.9
246.492	14.57
246.709	14.64
246.925	14.06
247.141	14.15
247.357	14.75
247.574	14.32
247.79	14.21
248.006	13.22
248.222	12.76
248.439	11.29
248.655	11.54
248.871	12.46
249.087	10.74
249.303	10.81
249.519	9.99
249.736	9.3
249.952	7.47
250.168	8.26
250.384	10.81
250.6	10.94
250.816	12.93
251.032	12.9
251.248	14.12
251.464	16.56
251.68	15.09
251.896	16.38
252.112	15.53
252.328	16.79
252.544	16.5
252.76	16.52
252.976	13.91
253.192	13.85
253.408	14.05
253.624	15
253.84	12.96
254.056	16.25
254.272	17.26
254.487	20.33
254.703	20.91
254.919	19.18
255.135	19.29
255.351	18.07
255.567	15.67
255.782	16.41
255.998	10.64
256.214	14.67
256.43	12.44
256.646	12.8
256.861	11.71
257.077	12.04
257.293	10.73
257.508	12.18
257.724	13.34
257.94	14.07
258.155	14.17
258.371	13.95
258.587	13.71
258.802	13.97
259.018	12.87
259.234	12.19
259.449	12.28
259.665	12.88
259.88	11.95
260.096	12.38
260.312	12.37
260.527	11.84
260.743	12.69
260.958	11.8
261.174	11.75
261.389	11.88
261.605	12.49
261.82	11.67
262.036	12.07
262.251	11.24
262.466	10.55
262.682	10.92
262.897	10.44
263.113	10.32
263.328	9.24
263.543	8.53
263.759	8
263.974	5.21
264.189	6.2
264.405	2.41
264.62	5.31
264.835	6.61
265.051	6.78
265.266	6.99
265.481	6.53
265.696	8.65
265.912	7.18
266.127	6.73
266.342	6.87
266.557	8.4
266.773	8.96
266.988	8
267.203	10.37
267.418	9.08
267.633	8.69
267.848	8.51
268.064	9.71
268.279	11.64
268.494	11.68
268.709	12
268.924	10.36
269.139	11.1
269.354	10.78
269.569	9.01
269.784	10.34
269.999	13.07
270.214	13.06
270.429	11.6
270.644	10.66
270.859	10.78
271.074	10.57
271.289	12.02
271.504	13.01
271.719	14.22
271.934	14.21
272.149	13.93
272.363	12.8
272.578	13.25
272.793	14.63
273.008	15.53
273.223	16.79
273.438	17.14
273.653	16.63
273.867	15.9
274.082	15.86
274.297	16.17
274.512	14.96
274.726	13.73
274.941	11.97
275.156	10.47
275.371	9.38
275.585	6.61
275.8	6.67
276.015	5.23
276.229	5.35
276.444	5.42
276.659	3.51
276.873	4.59
277.088	7.15
277.302	6.93
277.517	7.35
277.732	6.78
277.946	8.88
278.161	10.12
278.375	12.38
278.59	11.52
278.804	10.14
279.019	13.3
279.233	14.21
279.448	12.1
279.662	12.33
279.877	12.87
280.091	11.26
280.306	10.64
280.52	8.73
280.735	8.29
280.949	10.47
281.163	10.05
281.378	9.23
281.592	8.08
281.806	9.32
282.021	9.17
282.235	10.28
282.449	13.04
282.664	12.57
282.878	14.96
283.092	15.8
283.307	15.49
283.521	16.09
283.735	16.09
283.949	16.42
284.164	15.1
284.378	15.62
284.592	14.02
284.806	13.36
285.02	14.02
285.234	11.99
285.449	10.97
285.663	10.25
285.877	10.23
286.091	9.5
286.305	10.68
286.519	11.3
286.733	10.95
286.947	11.3
287.161	11.11
287.375	11.47
287.589	12.21
287.803	12.85
288.017	12.86
288.231	13
288.445	13.23
288.659	12.57
288.873	12.39
289.087	12.19
289.301	13.78
289.515	14.46
289.729	14.23
289.943	14.56
290.157	14.15
290.371	14.65
290.584	14.15
290.798	13.66
291.012	13.11
291.226	14.13
291.44	14.52
291.654	13.13
291.867	12.18
292.081	11.84
292.295	11.86
292.509	11.67
292.722	11.93
292.936	13.56
293.15	14.38
293.364	15.71
293.577	13.94
293.791	15.23
294.005	15.63
294.218	16.26
294.432	15.73
294.645	15.38
294.859	15.71
295.073	15.54
295.286	14.93
295.5	15.49
295.713	15.18
295.927	14.86
296.14	14.06
296.354	14.38
296.568	14.98
296.781	16.02
296.994	16.72
297.208	16.36
297.421	16.86
297.635	16.22
297.848	16.71
298.062	15.01
298.275	16.11
298.489	16.86
298.702	16.18
298.915	16.08
299.129	15.46
299.342	15.49
299.555	15.07
299.769	13.95
299.982	14.76
300.195	15.13
300.409	15.9
300.622	16.28
300.835	16.18
301.048	16.36
301.262	17.39
301.475	18.25
301.688	16.17
301.901	16.2
302.115	16.15
302.328	16.64
302.541	14.61
302.754	15.74
302.967	14.88
303.18	15.51
303.393	15.48
303.607	14.77
303.82	13.69
304.033	15.25
304.246	16.18
304.459	17.38
304.672	18.14
304.885	18.86
305.098	17.51
305.311	17.46
305.524	16.52
305.737	15.17
305.95	15.41
306.163	14.63
306.376	13.47
306.589	12.54
306.802	10.49
307.015	9.98
307.228	9.4
307.44	10.74
307.653	10.54
307.866	8.53
308.079	10.91
308.292	9.84
308.505	10.55
308.718	11.67
308.93	12.15
309.143	14.49
309.356	13.37
309.569	15.09
309.781	16.13
309.994	17.1
310.207	18.67
310.42	18.04
310.632	17.45
310.845	17.25
311.058	17.74
311.27	17.93
311.483	16.65
311.696	16.69
311.908	15.66
312.121	13.86
312.333	13.3
312.546	12.77
312.759	12.73
312.971	13.77
313.184	15.26
313.396	14.35
313.609	15.22
313.821	15.27
314.034	14.68
314.246	13.02
314.459	14.71
314.671	15.05
314.884	15.76
315.096	15.24
315.309	14.25
315.521	13.43
315.733	13.33
315.946	12.1
316.158	12.33
316.371	13.66
316.583	15.35
316.795	17.01
317.008	16.02
317.22	14.64
317.432	14.13
317.644	16.05
317.857	14.87
318.069	15.12
318.281	16.49
318.494	17.19
318.706	15.44
318.918	15.17
319.13	12.88
319.342	13.05
319.555	13.86
319.767	12.99
319.979	9.63
320.191	11.2
320.403	10.72
320.615	11.03
320.827	9.86
321.039	10.09
321.252	9
321.464	8.99
321.676	9.14
321.888	8.67
322.1	10.3
322.312	11.3
322.524	10.49
322.736	10.32
322.948	8.2
323.16	9.46
323.372	9.89
323.584	11.53
323.796	10.01
324.007	9.16
324.219	7.38
324.431	7.25
324.643	7.77
324.855	8.15
325.067	8.69
325.279	8.92
325.491	8.77
325.702	8.82
325.914	7.96
326.126	9.66
326.338	10.77
326.55	13.31
326.761	12.91
326.973	12.6
327.185	13.21
327.396	13.22
327.608	13.85
327.82	13.87
328.032	14.77
328.243	16.86
328.455	16.5
328.666	16.42
328.878	16.58
329.09	16.03
329.301	15.3
329.513	16.1
329.725	16.26
329.936	12.83
330.148	11.11
330.359	11.06
330.571	9.43
330.782	9.88
330.994	10.45
331.205	9.79
331.417	9.69
331.628	10.4
331.84	9.24
332.051	8.99
332.262	12.57
332.474	14.38
332.685	14.03
332.897	13.45
333.108	13.03
333.319	12.47
333.531	13.93
333.742	14.67
333.953	14.9
334.165	14.8
334.376	13.97
334.587	13.59
334.799	12.55
335.01	12.09
335.221	11.67
335.432	12.73
335.644	12.59
335.855	10.62
336.066	10.7
336.277	10.32
336.488	9.74
336.7	10.19
336.911	9.17
337.122	8.63
337.333	9.28
337.544	9.3
337.755	8.05
337.966	8.64
338.177	9.37
338.388	10.11
338.599	10.97
338.811	11.03
339.022	10.76
339.233	10.91
339.444	10.86
339.655	12.16
339.866	12.11
340.076	12.47
340.287	11.81
340.498	11.3
340.709	10.13
340.92	10.4
341.131	10.72
341.342	12.22
341.553	12.2
341.764	11.54
341.975	9.34
342.185	8.82
342.396	8.95
342.607	9.9
342.818	10
343.029	10.91
343.239	9.84
343.45	8.99
343.661	8.82
343.872	9.64
344.082	11.86
344.293	12.38
344.504	13.88
344.714	13.84
344.925	12.79
345.136	12.46
345.346	11.88
345.557	12.1
345.768	12.23
345.978	13.01
346.189	13.28
346.399	11.37
346.61	10.76
346.821	9.43
347.031	9.4
347.242	10.61
347.452	11.52
347.663	12.69
347.873	13.43
348.084	13.4
348.294	12.5
348.504	13.4
348.715	12.89
348.925	13
349.136	12.3
349.346	11.28
349.557	9.62
349.767	8.82
349.977	7.93
350.188	7.93
350.398	8.2
350.608	7.08
350.819	4.42
351.029	5
351.239	6.64
351.449	8.1
351.66	8.38
351.87	9.77
352.08	9.74
352.29	9.67
352.501	9.24
352.711	9.64
352.921	9.76
353.131	11.64
353.341	12.69
353.552	11.12
353.762	11.27
353.972	12.12
354.182	10.88
354.392	11.99
354.602	11.26
354.812	10.56
355.022	10.37
355.232	10.28
355.442	9.92
355.652	10.53
355.862	9.92
356.072	8.72
356.282	8.14
356.492	8.16
356.702	7.7
356.912	8.4
357.122	8.6
357.332	8.22
357.542	8.65
357.752	7.82
357.962	7.91
358.171	8.88
358.381	9.31
358.591	9.01
358.801	9.42
359.011	9.01
359.221	8.99
359.43	9.58
359.64	9.77
359.85	8.48
360.06	9.17
360.269	8.56
360.479	8.59
360.689	8.36
360.899	9.05
361.108	9.11
361.318	10
361.528	10.5
361.737	10.03
361.947	10.2
362.156	10.96
362.366	11.1
362.576	10.99
362.785	10.61
362.995	10.74
363.204	10.54
363.414	10.68
363.623	9.78
363.833	9.28
364.042	8.74
364.252	8.53
364.461	8.89
364.671	9.24
364.88	8.9
365.09	9.92
365.299	10.61
365.509	10.3
365.718	9.87
365.927	10.67
366.137	10.34
366.346	11.23
366.555	10.73
366.765	10.77
366.974	10.22
367.183	9.93
367.393	9.95
367.602	9.45
367.811	9.48
368.021	10.08
368.23	9.24
368.439	9.58
368.648	9.44
368.857	9.2
369.067	9.16
369.276	8.98
369.485	9.16
369.694	9.18
369.903	9.67
370.112	10.17
370.321	10.01
370.531	10.23
370.74	10.55
370.949	10.35
371.158	10.54
371.367	10.43
371.576	10.39
371.785	10.36
371.994	9.36
372.203	8.82
372.412	8.82
372.621	9.29
372.83	9.49
373.039	8.99
373.248	8.67
373.457	9.07
373.666	8.83
373.874	8.28
374.083	8.66
374.292	8.7
374.501	8.71
374.71	7.88
374.919	7.62
375.128	7.31
375.336	6.24
375.545	6.58
375.754	6.66
375.963	6.36
376.171	6.69
376.38	6.24
376.589	6.22
376.798	6.36
377.006	6.78
377.215	6.38
377.424	6.35
377.632	7.27
377.841	7.48
378.05	7.17
378.258	7.61
378.467	7.75
378.675	8.07
378.884	8.25
379.093	8.47
379.301	8.58
379.51	8.4
379.718	8.48
379.927	8.99
380.135	8.73
380.344	8.79
380.552	8.6
380.761	8.89
380.969	8.66
381.177	8.62
381.386	8.26
381.594	8.23
381.803	8.14
382.011	8.41
382.219	7.58
382.428	7.61
382.636	7.52
382.845	7.37
383.053	7.04
383.261	7.05
383.469	6.88
383.678	6.44
383.886	6.24
384.094	6.49
384.302	5.21
384.511	5.25
384.719	5.02
384.927	5.08
385.135	4.64
385.343	3.68
385.552	3.28
385.76	3
385.968	3.11
386.176	3.2
386.384	2.41
386.592	3.33
386.8	3.46
387.008	3.62
387.216	3.08
387.424	2.98
387.633	3.89
387.841	4.24
388.049	4.32
388.257	4.18
388.465	3.75
388.672	4.21
388.88	3.66
389.088	3.76
389.296	3.8
389.504	3.96
389.712	4.12
389.92	3.64
390.128	3.86
390.336	4.24
390.544	4.39
390.751	4.41
390.959	4.33
391.167	4.79
391.375	4.66
391.583	4.39
391.79	4.66
391.998	5.03
392.206	5.34
392.414	4.96
392.621	4.55
392.829	4.71
393.037	5.1
393.244	5.07
393.452	4.86
393.66	4.81
393.867	4.97
394.075	5.06
394.283	4.83
394.49	4.71
394.698	4.72
394.905	4.92
395.113	4.45
395.32	4.5
395.528	4.47
395.735	4.69
395.943	4.7
396.15	4.54
396.358	4.3
396.565	4.27
396.773	4.33
396.98	4.38
397.188	4.65
397.395	5.12
397.602	4.91
397.81	5.13
398.017	5.13
398.225	5.32
398.432	5.47
398.639	5.46
398.847	5.51
399.054	5.42
399.261	5.7
399.468	5.48
399.676	5.25
399.883	5.1
400.09	5.08
400.297	4.84
400.505	4.36
400.712	4.05
400.919	4.07
401.126	3.99
401.333	4.12
401.54	3.38
401.748	3.13
401.955	3.13
402.162	3.13
402.369	3
402.576	3.14
402.783	3.34
402.99	3.46
403.197	3.25
403.404	3.27
403.611	3.05
403.818	3.47
404.025	3.72
404.232	3.87
404.439	3.87
404.646	3.9
404.853	3.67
405.06	3.76
405.267	3.56
405.474	3.56
405.681	3.44
405.887	3.59
406.094	3.49
406.301	3.33
406.508	3.29
406.715	3.53
406.922	3.35
407.128	3.47
407.335	3.44
407.542	3.62
407.749	3.69
407.955	3.3
408.162	3.13
408.369	3.17
408.575	3.28
408.782	3.1
408.989	2.71
409.195	2.67
409.402	2.59
409.609	2.64
409.815	2.93
410.022	2.77
410.228	3.15
410.435	3.14
410.642	2.83
410.848	2.45
411.055	2.48
411.261	2.76
411.468	3.01
411.674	3.14
411.881	3.18
412.087	2.91
412.294	3.25
412.5	3.18
412.706	3.26
412.913	3.46
413.119	3.79
413.326	3.64
413.532	3.6
413.738	3.72
413.945	3.6
414.151	3.54
414.357	3.75
414.564	3.38
414.77	3.3
414.976	3.23
415.182	3.53
415.389	3.31
415.595	3.48
415.801	3.23
416.007	2.86
416.214	3.07
416.42	3.17
416.626	3.07
416.832	3.44
417.038	3.29
417.244	3.48
417.45	3.33
417.657	3.62
417.863	3.54
418.069	3.54
418.275	3.78
418.481	3.63
418.687	3.67
418.893	3.66
419.099	3.51
419.305	3.66
419.511	3.76
419.717	3.67
419.923	3.58
420.129	3.64
420.335	3.72
420.541	3.64
420.746	3.7
420.952	3.56
421.158	3.61
421.364	3.63
421.57	3.63
421.776	3.43
421.982	3.56
422.187	3.55
422.393	3.67
422.599	3.69
422.805	3.71
423.01	3.6
423.216	3.75
423.422	3.8
423.628	3.67
423.833	3.79
424.039	3.76
424.245	3.63
424.45	3.65
424.656	3.57
424.862	3.54
425.067	3.56
425.273	3.58
425.478	3.41
425.684	3.39
425.889	3.48
426.095	3.45
426.301	3.44
426.506	3.54
426.712	3.49
426.917	3.3
427.123	3.48
427.328	3.31
427.533	3.37
427.739	3.42
427.944	3.47
428.15	3.44
428.355	3.46
428.561	3.45
428.766	3.39
428.971	3.49
429.177	3.59
429.382	3.47
429.587	3.65
429.793	3.82
429.998	3.83
430.203	3.64
430.408	3.92
430.614	3.98
430.819	3.98
431.024	3.88
431.229	3.75
431.434	3.9
431.64	3.77
431.845	3.7
432.05	3.57
432.255	3.56
432.46	3.62
432.665	3.51
432.87	3.57
433.076	3.58
433.281	3.57
433.486	3.6
433.691	3.72
433.896	3.61
434.101	3.64
434.306	3.51
434.511	3.42
434.716	3.28
434.921	3.11
435.126	2.99
435.331	3.25
435.535	3.38
435.74	3.37
435.945	3.08
436.15	3.37
436.355	3.67
436.56	3.88
436.765	3.82
436.97	3.97
437.174	4.03
437.379	3.94
437.584	3.91
437.789	4.08
437.993	4.22
438.198	4.15
438.403	4.15
438.608	3.93
438.812	3.72
439.017	3.78
439.222	3.79
439.426	3.89
439.631	3.77
439.836	3.55
440.04	3.34
440.245	3.27
440.45	3.33
440.654	3.23
440.859	3.15
441.063	3.22
441.268	3.21
441.472	3.03
441.677	2.96
441.881	2.99
442.086	2.98
442.29	3.07
442.495	3.06
442.699	3.07
442.904	2.92
443.108	2.83
443.312	2.73
443.517	2.76
443.721	2.82
443.925	2.83
444.13	3.07
444.334	3.03
444.538	3.04
444.743	2.97
444.947	3.1
445.151	3.24
445.356	3.43
445.56	3.54
445.764	3.51
445.968	3.56
446.173	3.59
446.377	3.55
446.581	3.64
446.785	3.66
446.989	3.62
447.193	3.53
447.398	3.57
447.602	3.4
447.806	3.37
448.01	3.51
448.214	3.38
448.418	3.37
448.622	3.33
448.826	3.22
449.03	3.04
449.234	3.1
449.438	3.14
449.642	3.09
449.846	3.32
450.05	3.17
450.254	3.08
450.458	3.26
450.662	3.36
450.866	3.24
451.069	3.54
451.273	3.5
451.477	3.55
451.681	3.4
451.885	3.32
452.089	3.15
452.292	3.21
452.496	3.21
452.7	3.03
452.904	2.7
453.107	2.77
453.311	2.6
453.515	2.78
453.719	2.86
453.922	2.98
454.126	2.92
454.33	2.91
454.533	3
454.737	2.94
454.94	3.19
455.144	3.4
455.348	3.34
455.551	3.39
455.755	3.42
455.958	3.24
456.162	3.14
456.365	3.37
456.569	3.4
456.772	3.31
456.976	3.36
457.179	3.29
457.383	3.35
457.586	3.34
457.79	3.21
457.993	3.15
458.196	3.21
458.4	3.25
458.603	3.12
458.807	3.06
459.01	3.21
459.213	3.17
459.417	3.07
459.62	3
459.823	3.16
460.026	3.14
460.23	3.18
460.433	3.14
460.636	3.13
460.839	3.13
461.042	3.29
461.246	3.08
461.449	3.14
461.652	3.19
461.855	3.31
462.058	3.01
462.261	2.98
462.464	2.99
462.668	2.89
462.871	2.84
463.074	2.7
463.277	2.75
463.48	2.86
463.683	2.82
463.886	2.96
464.089	2.72
464.292	2.75
464.495	2.89
464.698	2.83
464.901	2.88
465.104	2.9
465.306	3.02
465.509	2.75
465.712	2.91
465.915	2.85
466.118	2.76
466.321	2.95
466.524	3.07
466.726	3.11
466.929	3.14
467.132	3.31
467.335	3.39
467.538	3.48
467.74	3.57
467.943	3.59
468.146	3.72
468.348	3.56
468.551	3.57
468.754	3.58
468.956	3.48
469.159	3.66
469.362	3.48
469.564	3.4
469.767	3.35
469.969	3.41
470.172	3.41
470.375	3.07
470.577	3.45
470.78	3.52
470.982	3.45
471.185	3.78
471.387	3.52
471.59	3.71
471.792	3.81
471.995	3.69
472.197	3.46
472.399	3.41
472.602	3.63
472.804	3.3
473.007	3.29
473.209	3.19
473.411	2.88
473.614	2.72
473.816	2.5
474.018	2.32
474.22	2.2
474.423	2.37
474.625	2.25
474.827	2.35
475.03	2.38
475.232	2.37
475.434	2.48
475.636	2.4
475.838	2.6
476.04	2.63
476.243	2.79
476.445	3.08
476.647	2.91
476.849	2.87
477.051	2.6
477.253	2.46
477.455	2.4
477.657	2.52
477.859	2.58
478.061	2.57
478.263	2.68
478.465	2.76
478.667	2.55
478.869	2.63
479.071	2.73
479.273	2.87
479.475	3.07
479.677	3.09
479.879	3.17
480.081	3.31
480.283	3.31
480.485	3.32
480.686	3.18
480.888	3.32
481.09	3.31
481.292	3.28
481.494	3.29
481.695	3.27
481.897	3.26
482.099	3.28
482.301	3.27
482.502	3.2
482.704	3.13
482.906	3.09
483.107	3.1
483.309	3.11
483.511	3.13
483.712	3.05
483.914	3
484.115	3.01
484.317	2.92
484.519	2.88
484.72	2.86
484.922	2.86
485.123	2.88
485.325	2.88
485.526	2.87
485.728	2.84
485.929	2.86
486.131	2.91
486.332	2.82
486.534	2.79
486.735	2.77
486.936	2.83
487.138	2.88
487.339	2.76
487.541	2.65
487.742	2.68
487.943	2.72
488.144	2.7
488.346	2.66
488.547	2.7
488.748	2.7
488.95	2.71
489.151	2.71
489.352	2.69
489.553	2.88
489.755	3
489.956	2.96
490.157	2.97
490.358	3.08
490.559	3.16
490.76	3.11
490.961	3.09
491.163	3.1
491.364	3.03
491.565	3.02
491.766	2.91
491.967	2.87
492.168	2.86
492.369	2.78
492.57	2.8
492.771	2.77
492.972	2.84
493.173	2.94
493.374	2.89
493.575	2.94
493.776	2.98
493.976	2.91
494.177	2.95
494.378	2.89
494.579	2.95
494.78	2.77
494.981	2.72
495.182	2.74
495.382	2.77
495.583	2.93
495.784	3.01
495.985	2.97
496.185	3.17
496.386	3.17
496.587	3.15
496.788	3.1
496.988	3.15
497.189	3.17
497.39	3.03
497.59	3.06
497.791	2.91
497.992	2.84
498.192	2.64
498.393	2.7
498.593	2.62
498.794	2.63
498.994	2.76
499.195	2.81
499.395	2.96
499.596	3.03
499.796	2.85
499.997	3.02
500.197	2.97
500.398	3.1
500.598	2.93
500.799	3.12
500.999	3.07
501.199	2.84
501.4	2.88
501.6	2.81
501.801	2.98
502.001	3.05
502.201	2.93
502.402	3
502.602	3.12
502.802	3.19
503.002	3.08
503.203	3.18
503.403	3.36
503.603	3.51
503.803	3.46
504.003	3.24
504.204	3.18
504.404	3.28
504.604	3.18
504.804	3.23
505.004	3.17
505.204	3.21
505.404	3.27
505.604	3.27
505.804	3.02
506.005	3.08
506.205	3.25
506.405	3.07
506.605	2.93
506.805	3.02
507.005	3.06
507.204	3.16
507.404	3.07
507.604	3.07
507.804	3.04
508.004	3.01
508.204	3.09
508.404	3.07
508.604	3.3
508.804	3.19
509.003	3.27
509.203	3.16
509.403	3.04
509.603	3.08
509.803	3.16
510.002	3.09
510.202	3.16
510.402	3.19
510.602	3.16
510.801	3.08
511.001	3.26
511.201	3.27
511.4	3.32
511.6	3.38
511.8	3.48
511.999	3.36
512.199	3.38
512.398	3.4
512.598	3.28
512.797	3.23
512.997	3.37
513.197	3.34
513.396	3.16
513.596	3.08
513.795	3
513.994	2.96
514.194	3.15
514.393	3.13
514.593	3.16
514.792	3.26
514.992	3.34
515.191	3.28
515.39	3.38
515.59	3.51
515.789	3.57
515.988	3.75
516.188	3.76
516.387	3.49
516.586	3.62
516.786	3.68
516.985	3.59
517.184	3.54
517.383	3.52
517.582	3.54
517.782	3.58
517.981	3.6
518.18	3.48
518.379	3.4
518.578	3.53
518.777	3.55
518.976	3.61
519.176	3.69
519.375	3.78
519.574	3.75
519.773	3.66
519.972	3.63
520.171	3.67
520.37	3.81
520.569	3.95
520.768	4.01
520.967	4.1
521.166	3.96
521.365	3.94
521.564	3.97
521.762	4.06
521.961	4.11
522.16	4.21
522.359	4.24
522.558	4.23
522.757	4.2
522.956	4.19
523.154	3.88
523.353	3.97
523.552	4.03
523.751	3.93
523.949	4.01
524.148	3.98
524.347	3.95
524.546	4
524.744	3.96
524.943	4.06
525.142	3.98
525.34	4.07
525.539	4.08
525.737	4.04
525.936	4.03
526.135	4.04
526.333	4.16
526.532	4.02
526.73	3.9
526.929	3.95
527.127	3.8
527.326	3.81
527.524	3.92
527.723	3.92
527.921	3.93
528.12	4
528.318	3.94
528.516	3.91
528.715	4.06
528.913	4.06
529.112	4.01
529.31	4.11
529.508	4.19
529.707	4.16
529.905	4.2
530.103	4.16
530.301	4.17
530.5	4.25
530.698	4.25
530.896	4.14
531.094	4.26
531.293	4.43
531.491	4.36
531.689	4.25
531.887	4.21
532.085	4.14
532.283	4.22
532.481	4.17
532.68	4.16
532.878	4.32
533.076	4.47
533.274	4.5
533.472	4.44
533.67	4.38
533.868	4.47
534.066	4.56
534.264	4.58
534.462	4.5
534.66	4.53
534.858	4.57
535.056	4.49
535.253	4.44
535.451	4.38
535.649	4.36
535.847	4.5
536.045	4.57
536.243	4.5
536.441	4.55
536.638	4.69
536.836	4.78
537.034	4.83
537.232	4.95
537.43	4.9
537.627	4.87
537.825	4.92
538.023	5
538.22	4.97
538.418	5.05
538.616	5.02
538.813	5.02
539.011	5.03
539.209	4.9
539.406	4.68
539.604	4.79
539.801	4.87
539.999	4.93
540.196	4.91
540.394	4.99
540.591	4.99
540.789	5.05
540.986	5.05
541.184	5.02
541.381	5.09
541.579	5.16
541.776	5.07
541.974	5.06
542.171	5.07
542.368	5.07
542.566	4.97
542.763	4.99
542.96	4.98
543.158	5.03
543.355	5.05
543.552	4.99
543.75	5.06
543.947	5.16
544.144	5.32
544.341	5.22
544.539	5.25
544.736	5.42
544.933	5.42
545.13	5.49
545.327	5.5
545.524	5.53
545.722	5.62
545.919	5.57
546.116	5.61
546.313	5.42
546.51	5.56
546.707	5.55
546.904	5.42
547.101	5.38
547.298	5.52
547.495	5.58
547.692	5.52
547.889	5.55
548.086	5.62
548.283	5.5
548.48	5.61
548.677	5.59
548.874	5.58
549.07	5.57
549.267	5.66
549.464	5.52
549.661	5.41
549.858	5.52
550.055	5.51
550.251	5.65
550.448	5.65
550.645	5.71
550.842	5.85
551.038	5.93
551.235	5.97
551.432	5.9
551.628	5.9
551.825	6.03
552.022	6.02
552.218	6.1
552.415	6.1
552.612	6.44
552.808	6.49
553.005	6.44
553.201	6.45
553.398	6.49
553.594	6.71
553.791	6.69
553.987	6.76
554.184	6.77
554.38	6.62
554.577	6.62
554.773	6.51
554.97	6.45
555.166	6.53
555.362	6.6
555.559	6.71
555.755	6.67
555.952	6.69
556.148	6.75
556.344	6.92
556.541	7.1
556.737	6.97
556.933	7
557.129	6.97
557.326	6.78
557.522	6.89
557.718	6.95
557.914	6.94
558.11	6.94
558.307	6.89
558.503	6.86
558.699	7.03
558.895	7.08
559.091	7.12
559.287	7.22
559.483	7.3
559.679	7.32
559.876	7.28
560.072	7.4
560.268	7.48
560.464	7.32
560.66	7.25
560.856	7.18
561.052	7.17
561.247	7.28
561.443	7.31
561.639	7.29
561.835	7.16
562.031	7.37
562.227	7.31
562.423	7.37
562.619	7.45
562.815	7.44
563.01	7.51
563.206	7.68
563.402	7.66
563.598	7.56
563.793	7.72
563.989	7.94
564.185	7.72
564.381	7.64
564.576	7.81
564.772	7.9
564.968	8.03
565.163	8
565.359	7.99
565.555	7.87
565.75	8
565.946	8.1
566.141	7.94
566.337	8.05
566.532	8.15
566.728	8.03
566.923	8.01
567.119	8.02
567.314	7.99
567.51	7.91
567.705	8.06
567.901	8.2
568.096	8.27
568.292	8.35
568.487	8.22
568.682	8.19
568.878	8.12
569.073	8.18
569.268	8.11
569.464	8.06
569.659	7.97
569.854	7.96
570.05	7.7
570.245	7.74
570.44	7.58
570.635	7.74
570.831	7.85
571.026	8.01
571.221	7.99
571.416	7.97
571.611	7.98
571.806	8.11
572.002	8.08
572.197	8.34
572.392	8.21
572.587	8.29
572.782	8.21
572.977	8.18
573.172	8.15
573.367	8.42
573.562	8.36
573.757	8.62
573.952	8.87
574.147	8.89
574.342	8.76
574.537	8.65
574.732	8.73
574.927	8.88
575.121	8.86
575.316	8.81
575.511	8.63
575.706	8.85
575.901	8.7
576.096	8.63
576.29	8.73
576.485	8.66
576.68	8.81
576.875	8.94
577.069	9.05
577.264	9.11
577.459	8.89
577.654	9.03
577.848	8.93
578.043	8.9
578.238	8.72
578.432	8.39
578.627	8.76
578.821	8.61
579.016	8.63
579.21	8.56
579.405	8.59
579.6	9.08
579.794	8.71
579.989	8.75
580.183	8.87
580.378	8.95
580.572	9.39
580.766	9.18
580.961	9.26
581.155	9.11
581.35	9.34
581.544	9.5
581.738	9.26
581.933	9.47
582.127	9.74
582.321	9.77
582.516	9.79
582.71	9.74
582.904	9.81
583.099	10.13
583.293	10.29
583.487	9.96
583.681	9.42
583.875	9.72
584.07	9.78
584.264	9.47
584.458	9.44
584.652	9.39
584.846	9.16
585.04	8.8
585.234	8.41
585.428	8.33
585.623	8.51
585.817	8.8
586.011	8.84
586.205	8.56
586.399	8.57
586.593	8.13
586.787	7.78
586.981	7.74
587.174	7.98
587.368	8.22
587.562	8.47
587.756	8.3
587.95	8.43
588.144	8.3
588.338	8.73
588.532	8.69
588.725	9
588.919	9.58
589.113	10.02
589.307	10.07
589.501	10.23
589.694	10.11
589.888	10.25
590.082	10.18
590.275	10.17
590.469	9.79
590.663	9.86
590.856	9.93
591.05	9.91
591.244	9.45
591.437	9.49
591.631	9.27
591.824	9.28
592.018	9.1
592.212	9.01
592.405	8.95
592.599	9.04
592.792	9.14
592.986	9.21
593.179	9.09
593.372	9.42
593.566	9.27
593.759	9.26
593.953	9.11
594.146	8.96
594.339	9.21
594.533	9.43
594.726	9.42
594.92	9.51
595.113	9.35
595.306	9.47
595.499	9.47
595.693	9.69
595.886	9.84
596.079	9.91
596.272	10.3
596.466	10.28
596.659	10.06
596.852	10.24
597.045	10.3
597.238	10.45
597.431	10.27
597.624	10.43
597.818	10.26
598.011	10.1
598.204	10.4
598.397	10.04
598.59	9.92
598.783	9.94
598.976	9.85
599.169	9.57
599.362	9.49
599.555	9.41
599.748	9.07
599.941	9.08
600.134	9.47
600.326	9.15
600.519	9.44
600.712	9.4
600.905	9.61
601.098	9.48
601.291	9.75
601.483	9.66
601.676	10.12
601.869	10.28
602.062	10.48
602.255	10.4
602.447	10.21
602.64	10.42
602.833	10.52
603.025	10.39
603.218	10.54
603.411	10.63
603.603	10.66
603.796	10.45
603.989	10.46
604.181	10.3
604.374	10.14
604.566	10.27
604.759	10.01
604.951	10.02
605.144	9.98
605.336	9.92
605.529	9.8
605.721	9.68
605.914	9.55
606.106	9.3
606.299	9.27
606.491	9.29
606.683	9.49
606.876	9.8
607.068	9.71
607.26	10.02
607.453	10.23
607.645	10.2
607.837	10.4
608.03	10.41
608.222	10.59
608.414	10.75
608.606	10.72
608.799	10.51
608.991	10.33
609.183	10.45
609.375	10.14
609.567	9.97
609.759	9.99
609.952	9.88
610.144	10
610.336	10.12
610.528	9.99
610.72	10.09
610.912	9.91
611.104	10.01
611.296	10.01
611.488	10.21
611.68	10.17
611.872	10.25
612.064	10.72
612.256	10.9
612.448	10.84
612.64	11
612.832	10.64
613.023	10.91
613.215	10.88
613.407	10.51
613.599	10.32
613.791	10.56
613.983	10.38
614.174	10.2
614.366	9.9
614.558	9.81
614.75	9.6
614.941	9.91
615.133	10.17
615.325	10.13
615.516	10.39
615.708	10.53
615.9	10.26
616.091	10.43
616.283	10.23
616.475	10.09
616.666	10.03
616.858	10.32
617.049	10.33
617.241	9.91
617.432	9.8
617.624	9.87
617.815	9.77
618.007	10.02
618.198	10.14
618.39	10.17
618.581	10.18
618.773	10.03
618.964	9.99
619.155	9.94
619.347	10.4
619.538	10.26
619.729	10.28
619.921	10.5
620.112	10.34
620.303	10.39
620.494	10.32
620.686	10.54
620.877	10.9
621.068	10.64
621.259	10.74
621.451	10.38
621.642	10.8
621.833	11.03
622.024	11.34
622.215	11.3
622.406	10.85
622.597	11.16
622.788	11.14
622.98	10.98
623.171	11.07
623.362	11.04
623.553	10.69
623.744	10.41
623.935	10.19
624.126	9.93
624.317	10.05
624.508	10.13
624.698	9.7
624.889	9.42
625.08	9.52
625.271	9.68
625.462	9.63
625.653	10.07
625.844	9.84
626.034	9.74
626.225	9.98
626.416	10.39
626.607	10.36
626.798	10.52
626.988	10.68
627.179	10.73
627.37	10.58
627.56	10.53
627.751	10.73
627.942	10.95
628.132	11.07
628.323	10.77
628.514	10.52
628.704	10.7
628.895	10.78
629.085	10.92
629.276	10.84
629.466	10.98
629.657	10.8
629.847	10.37
630.038	10.42
630.228	10.29
630.419	10.16
630.609	9.67
630.8	9.9
630.99	9.98
631.181	10.09
631.371	10.04
631.561	9.9
631.752	10.42
631.942	10.53
632.132	10.51
632.323	10.64
632.513	10.99
632.703	11.32
632.893	10.77
633.084	10.55
633.274	10.07
633.464	10.08
633.654	10.07
633.844	9.46
634.034	9.51
634.225	9.46
634.415	9.48
634.605	9.28
634.795	8.91
634.985	9.23
635.175	9.26
635.365	9.58
635.555	9.5
635.745	9.57
635.935	9.85
636.125	10.18
636.315	10.19
636.505	10.15
636.695	9.91
636.885	10.23
637.075	10.36
637.265	10.56
637.455	10.39
637.644	10.47
637.834	10.49
638.024	10.62
638.214	10.27
638.404	10.44
638.593	10.45
638.783	10.52
638.973	10.48
639.163	10.25
639.352	9.59
639.542	9.63
639.732	9.77
639.921	9.49
640.111	9.83
640.301	9.78
640.49	9.85
640.68	10.2
640.87	10.46
641.059	10.52
641.249	10.9
641.438	11.38
641.628	11.64
641.817	11.91
642.007	12.54
642.196	12.14
642.386	12.28
642.575	11.86
642.764	11.63
642.954	11.14
643.143	11.46
643.333	11.01
643.522	11.26
643.711	11.2
643.901	10.68
644.09	10.22
644.279	10.02
644.469	9.92
644.658	9.82
644.847	9.53
645.036	9.79
645.226	9.8
645.415	9.95
645.604	9.9
645.793	9.81
645.982	10.02
646.171	10.11
646.361	10.4
646.55	10.56
646.739	11.1
646.928	11.32
647.117	11.38
647.306	10.91
647.495	10.86
647.684	10.81
647.873	10.67
648.062	10.75
648.251	10.21
648.44	10.62
648.629	10.61
648.818	10.43
649.007	10.53
649.196	10.19
649.384	10.12
649.573	10.34
649.762	9.95
649.951	10.38
650.14	10.56
650.328	11.14
650.517	10.88
650.706	10.91
650.895	10.62
651.083	10.24
651.272	10.3
651.461	10.64
651.65	10.38
651.838	10.49
652.027	10.6
652.216	10.34
652.404	10.5
652.593	9.86
652.781	9.61
652.97	10.05
653.158	10.27
653.347	10.8
653.535	11.09
653.724	10.94
653.912	11.4
654.101	11.15
654.289	11.24
654.478	10.99
654.666	11.32
654.855	11.53
655.043	11.25
655.231	11.23
655.42	10.99
655.608	10.73
655.796	11
655.985	10.68
656.173	10.6
656.361	10.5
656.55	10.58
656.738	10.7
656.926	10.57
657.114	10.27
657.302	10.44
657.491	10.49
657.679	10.42
657.867	10.26
658.055	10.79
658.243	10.57
658.431	10.38
658.619	10.23
658.807	10.39
658.996	10.41
659.184	10.93
659.372	11
659.56	11.19
659.748	11.39
659.936	11.28
660.124	11.22
660.311	11.26
660.499	11.58
660.687	11.8
660.875	11.7
661.063	11.8
661.251	11.66
661.439	11.45
661.627	11.07
661.814	10.69
662.002	11.35
662.19	10.61
662.378	10.94
662.565	10.31
662.753	10.45
662.941	10.6
663.129	10.32
663.316	10.27
663.504	10.09
663.692	10.56
663.879	10.91
664.067	10.14
664.254	10.71
664.442	10.48
664.63	11
664.817	11.09
665.005	10.99
665.192	10.88
665.38	11.28
665.567	11.91
665.755	11.53
665.942	10.98
666.13	11.16
666.317	10.84
666.504	10.46
666.692	10.19
666.879	10.1
667.067	9.94
667.254	10.7
667.441	10.75
667.629	10.45
667.816	10.63
668.003	11.19
668.19	11.16
668.378	10.95
668.565	11.49
668.752	11.6
668.939	11.58
669.127	11.79
669.314	11.45
669.501	11.39
669.688	11.31
669.875	11.47
670.062	11.44
670.249	11.38
670.436	11.48
670.623	11.79
670.81	11.88
670.997	11.95
671.184	11.66
671.371	11.27
671.558	11.06
671.745	11.27
671.932	11.51
672.119	11.34
672.306	11.58
672.493	12.1
672.68	11.44
672.867	11.15
673.054	10.84
673.24	11.27
673.427	11.54
673.614	11.32
673.801	11.69
673.988	11.34
674.174	11.63
674.361	11.5
674.548	10.92
674.734	11.31
674.921	11.77
675.108	12.19
675.294	12.07
675.481	12.25
675.668	12.86
675.854	12.32
676.041	12.26
676.227	11.87
676.414	11.48
676.601	12.06
676.787	11.89
676.974	11.87
677.16	11.41
677.347	11.19
677.533	11.3
677.719	10.59
677.906	10.63
678.092	10.79
678.279	11.15
678.465	11.63
678.651	11.67
678.838	11.89
679.024	11.96
679.21	11.87
679.397	12.03
679.583	12.07
679.769	11.97
679.955	12.05
680.142	12.2
680.328	12
680.514	11.68
680.7	11.01
680.886	10.32
681.073	10.36
681.259	10.66
681.445	10.79
681.631	10.73
681.817	11.09
682.003	11.06
682.189	11.23
682.375	11.04
682.561	11.42
682.747	11.9
682.933	12.45
683.119	12.4
683.305	12.05
683.491	12.15
683.677	12.12
683.863	12
684.049	11.93
684.235	11.2
684.42	11.42
684.606	11.24
684.792	11.3
684.978	11.5
685.164	12
685.349	12.38
685.535	12.01
685.721	12.01
685.907	12.41
686.092	12.48
686.278	13.42
686.464	13.1
686.649	13.34
686.835	13.55
687.021	13.59
687.206	13.1
687.392	12.96
687.577	12.74
687.763	12.61
687.948	12.28
688.134	12.57
688.319	11.72
688.505	12.24
688.69	11.91
688.876	11.79
689.061	12.09
689.247	11.95
689.432	12.44
689.618	12.81
689.803	12.7
689.988	12.29
690.174	12.1
690.359	12.59
690.544	11.97
690.73	12.29
690.915	12.17
691.1	11.72
691.285	11.82
691.471	11.6
691.656	11.63
691.841	12.29
692.026	12.96
692.211	12.74
692.396	12.55
692.582	12.89
692.767	13.01
692.952	12.94
693.137	13.17
693.322	13.27
693.507	12.78
693.692	12.61
693.877	12.15
694.062	11.7
694.247	11.49
694.432	12.01
694.617	12.14
694.802	11.72
694.987	11.47
695.172	10.98
695.357	10.92
695.541	11.19
695.726	11.36
695.911	11.07
696.096	11.26
696.281	11.66
696.466	11.24
696.65	11.05
696.835	11.24
697.02	11.57
697.204	11.62
697.389	11.31
697.574	11.64
697.759	11.55
697.943	11.53
698.128	11.53
698.312	11.4
698.497	11.85
698.682	11.9
698.866	11.9
699.051	12.64
699.235	12.8
699.42	13.16
699.604	12.91
699.789	12.99
699.973	13.38
700.158	13.77
700.342	14.19
700.527	13.32
700.711	13.36
700.895	13.24
701.08	12.65
701.264	12.83
701.448	12.39
701.633	12.66
701.817	12.91
702.001	12.64
702.186	12.14
702.37	11.45
702.554	12.1
702.738	11.79
702.923	12.79
703.107	12.35
703.291	11.89
703.475	12.45
703.659	12.66
703.843	11.88
704.027	12.32
704.212	12.82
704.396	13.37
704.58	13.05
704.764	13.94
704.948	13.4
705.132	13.97
705.316	15.21
705.5	14.72
705.684	14.22
705.868	14.69
706.052	14.5
706.235	14.41
706.419	14.62
706.603	14.65
706.787	14.32
706.971	13.94
707.155	13.45
707.339	12.23
707.522	12.79
707.706	12.87
707.89	13
708.074	12.66
708.257	12.74
708.441	12.1
708.625	12.66
708.808	13.03
708.992	13.37
709.176	13.77
709.359	14.29
709.543	13.68
709.727	14
709.91	13.79
710.094	14.52
710.277	14.67
710.461	15.23
710.644	14.91
710.828	14.82
711.011	14.46
711.195	13.87
711.378	13.79
711.562	13.81
711.745	13.02
711.928	12.54
712.112	11.43
712.295	10.25
712.478	9.82
712.662	9.21
712.845	8.48
713.028	8.84
713.212	9.42
713.395	8.84
713.578	8.96
713.761	9.99
713.945	10.76
714.128	11.12
714.311	12.27
714.494	11.71
714.677	11.27
714.86	11.48
715.043	11.04
715.227	10.7
715.41	11.55
715.593	11.71
715.776	10.41
715.959	10.34
716.142	10.84
716.325	10.78
716.508	11.35
716.691	12.15
716.874	12.26
717.057	12.17
717.239	12.91
717.422	12.36
717.605	12.19
717.788	13.06
717.971	12.62
718.154	11.85
718.337	11.24
718.519	10.42
718.702	10.42
718.885	9.95
719.068	9.96
719.25	9.52
719.433	9.7
719.616	10.76
719.798	11.06
719.981	10.49
720.164	11.39
720.346	11.4
720.529	12.33
720.712	10.96
720.894	11.86
721.077	11.67
721.259	10.96
721.442	10.83
721.624	10.12
721.807	9.98
721.989	11.38
722.172	10.92
722.354	11.66
722.537	11.14
722.719	12.41
722.901	12.79
723.084	13.24
723.266	12.71
723.448	12.39
723.631	12.56
723.813	13.53
723.995	13.35
724.178	13.17
724.36	12.27
724.542	12.5
724.724	13.59
724.907	12.63
725.089	12.74
725.271	13.51
725.453	13.65
725.635	13.17
725.817	12.18
725.999	11.95
726.181	12.24
726.364	12.72
726.546	13.23
726.728	12.58
726.91	13.59
727.092	13.19
727.274	12.86
727.456	13
727.638	12.62
727.819	12.69
728.001	12.47
728.183	11.44
728.365	11.19
728.547	11.3
728.729	11.41
728.911	10.68
729.093	11.18
729.274	11.06
729.456	11.42
729.638	12.54
729.82	13.05
730.001	12.79
730.183	13.01
730.365	13.39
730.546	12.9
730.728	12.28
730.91	12.14
731.091	12.43
731.273	12.71
731.455	12.57
731.636	12.45
731.818	12.58
731.999	13.35
732.181	13.65
732.362	13.79
732.544	14.34
732.725	15.05
732.907	14.75
733.088	14.79
733.27	14.53
733.451	14.96
733.633	15.46
733.814	14
733.995	13.73
734.177	13.82
734.358	14.08
734.539	13.49
734.721	13.14
734.902	13.51
735.083	13.06
735.264	13.31
735.446	11.94
735.627	11.13
735.808	11.14
735.989	11.36
736.17	11.71
736.351	9.72
736.533	9.16
736.714	9.3
736.895	9.63
737.076	10.25
737.257	10.49
737.438	11.54
737.619	11.19
737.8	11.98
737.981	11.86
738.162	10.91
738.343	12.2
738.524	12.39
738.705	12.38
738.886	11.73
739.067	11.44
739.247	10.6
739.428	10.54
739.609	11.33
739.79	10.71
739.971	10.02
740.151	10.6
740.332	9.99
740.513	10.2
740.694	10.61
740.874	12.12
741.055	12.16
741.236	13.39
741.417	11.95
741.597	13.56
741.778	14.41
741.958	13.98
742.139	15.67
742.32	15.77
742.5	16.29
742.681	14.57
742.861	14.28
743.042	13.56
743.222	12.77
743.403	14.55
743.583	11.98
743.764	11.98
743.944	13.06
744.124	12.53
744.305	12.9
744.485	13.33
744.666	14.45
744.846	12.81
745.026	12.63
745.207	12.79
745.387	12.16
745.567	12.95
745.747	12.13
745.928	11.8
746.108	9.7
746.288	9.9
746.468	8.82
746.648	9.52
746.829	11.41
747.009	12.2
747.189	12.3
747.369	11.85
747.549	10.89
747.729	12.47
747.909	12.43
748.089	13.26
748.269	11.99
748.449	12.45
748.629	11.53
748.809	9.16
748.989	8.58
749.169	8.97
749.349	9.77
749.529	9.3
749.709	8.08
749.889	8.25
750.068	8.48
750.248	9.25
750.428	9.37
750.608	9.69
750.788	10.69
750.967	10.41
751.147	10.42
751.327	10.66
751.507	11.46
751.686	11.69
751.866	12.73
752.046	13.04
752.225	13.69
752.405	13.59
752.585	14.14
752.764	15.24
752.944	16.1
753.123	15.34
753.303	14.74
753.482	15.11
753.662	16.17
753.841	16.36
754.021	16.99
754.2	16.87
754.38	16.14
754.559	16.42
754.739	16.49
754.918	16.8
755.097	19.16
755.277	18.68
755.456	18.64
755.635	18.07
755.815	17.08
755.994	15.44
756.173	15.01
756.352	16.15
756.532	15.7
756.711	14.69
756.89	13.65
757.069	12.21
757.248	14.76
757.427	14.32
757.607	14.4
757.786	14.78
757.965	15.59
758.144	17.39
758.323	17.31
758.502	16.79
758.681	17.42
758.86	17.52
759.039	16.95
759.218	14.55
759.397	14.11
759.576	14.31
759.755	14.69
759.934	15.08
760.113	14
760.291	14.15
760.47	14.89
760.649	15.03
760.828	16.44
761.007	16.3
761.186	16.56
761.364	15.79
761.543	16.13
761.722	14.57
761.901	14.38
762.079	14.55
762.258	13.84
762.437	13.56
762.615	12.87
762.794	12.35
762.972	12.57
763.151	13.1
763.33	14.42
763.508	13.43
763.687	13.86
763.865	13.12
764.044	13.19
764.222	14.05
764.401	12.97
764.579	13.48
764.758	13.4
764.936	13.79
765.114	14.39
765.293	13.21
765.471	13.33
765.65	14.48
765.828	15.12
766.006	13.67
766.184	13.09
766.363	13.83
766.541	13.43
766.719	13.89
766.898	14.19
767.076	13.84
767.254	15.22
767.432	14.56
767.61	12.16
767.788	12.77
767.967	12.94
768.145	12.2
768.323	13.35
768.501	13.45
768.679	12.31
768.857	11.7
769.035	10.06
769.213	9.96
769.391	8.63
769.569	9.74
769.747	8.49
769.925	9.67
770.103	8.92
770.281	8.74
770.459	9.29
770.636	10.42
770.814	10.6
770.992	9.47
771.17	7.95
771.348	9.69
771.525	9.61
771.703	9.36
771.881	9.58
772.059	11.68
772.236	9.96
772.414	8.67
772.592	7.33
772.769	6.88
772.947	9.09
773.125	10.51
773.302	12.66
773.48	13.93
773.657	13.73
773.835	11.76
774.013	10.7
774.19	12.4
774.368	13.84
774.545	15.05
774.723	16.51
774.9	14.41
775.077	12.74
775.255	11.56
775.432	11.88
775.61	13.67
775.787	16.97
775.964	16.96
776.142	16.42
776.319	15.81
776.496	14.47
776.674	15.14
776.851	17.02
777.028	19.3
777.205	18.75
777.382	15.81
777.56	15.1
777.737	14.81
777.914	14.52
778.091	16.62
778.268	16.54
778.445	16.6
778.622	16.21
778.8	17.43
778.977	16.1
779.154	15.39
779.331	15.31
779.508	16.84
779.685	15.39
779.862	16.19
780.038	15.02
780.215	15.95
780.392	15.42
780.569	13.45
780.746	13.04
780.923	13.88
781.1	16.18
781.277	19.89
781.453	18.42
781.63	18.42
781.807	19.1
781.984	16.95
782.16	16.59
782.337	17.96
782.514	19.83
782.691	20.55
782.867	20.92
783.044	19.27
783.221	14.56
783.397	15.12
783.574	12.03
783.75	7.94
783.927	8.31
784.103	5.86
784.28	2.55
784.456	0.19
784.633	-0.61
784.809	0.08
784.986	1.19
785.162	2.2
785.339	-0.61
785.515	3.14
785.692	7.1
785.868	7.23
786.044	7.42
786.221	10.14
786.397	11.28
786.573	10.18
786.749	8.66
786.926	7.7
787.102	8.5
787.278	10.83
787.454	10.15
787.631	10.5
787.807	12.13
787.983	14.33
788.159	14.8
788.335	13.98
788.511	14.17
788.687	15.6
788.863	17.97
789.039	16.8
789.216	16.02
789.392	17.46
789.568	15.82
789.744	13.66
789.919	11.82
790.095	11.28
790.271	11.23
790.447	12.75
790.623	10.29
790.799	9.86
790.975	12.94
791.151	11.81
791.327	11.77
791.502	12.57
791.678	14.05
791.854	13.13
792.03	11.8
792.205	13.29
792.381	12.26
792.557	12.63
792.733	12.22
792.908	13.16
793.084	11.32
793.259	10.49
793.435	10.04
793.611	10.8
793.786	14.63
793.962	15.57
794.137	13.32
794.313	8.76
794.488	8.98
794.664	5.16
794.839	5.62
795.015	10.26
795.19	10.68
795.366	12.67
795.541	11.21
795.716	6.89
795.892	9.5
796.067	12.42
796.242	15.15
796.418	15.05
796.593	16.02
796.768	13.22
796.944	13.17
797.119	14.04
797.294	11.17
797.469	10.7
797.644	13.78
797.82	11.84
797.995	9.21
798.17	9.46
798.345	10.65
798.52	11.32
798.695	10.95
798.87	8.97
799.045	8.41
799.22	9.71
799.395	12.01
799.57	12.6
799.745	12.53
799.92	14.22
800.095	15.37
800.27	12.78
800.445	10.45
800.62	10.07
800.795	11.74
800.97	12.22
801.145	12.82
801.319	8.15
801.494	5.68
801.669	5.71
801.844	4.7
802.018	4.75
802.193	7.72
802.368	9.23
802.543	13.14
802.717	10.93
802.892	14.08
803.067	11.82
803.241	11.43
803.416	12.69
803.59	13.79
803.765	16.36
803.94	15.5
804.114	15.61
804.289	16.25
804.463	15.4
804.638	18.75
804.812	15.57
804.986	18.4
805.161	22.57
805.335	20.71
805.51	18.56
805.684	16.87
805.858	17.32
806.033	15.97
806.207	18.37
806.381	17.83
806.556	17.11
806.73	15.88
806.904	12.53
807.078	10.11
807.253	12.33
807.427	13.79
807.601	13.92
807.775	14.31
807.949	14.54
808.123	13.03
808.298	10.7
808.472	7.84
808.646	7.89
808.82	11.38
808.994	13.3
809.168	13.3
809.342	14.69
809.516	14.52
809.69	14.55
809.864	14.68
810.038	12.88
810.212	12.58
810.385	15.72
810.559	15.5
810.733	15.63
810.907	17.01
811.081	16.18
811.255	14.2
811.428	17.64
811.602	17.75
811.776	16.23
811.95	18.34
812.123	20.17
812.297	14.1
812.471	14.61
812.644	15.28
812.818	12.71
812.992	7.96
813.165	7.06
813.339	5
813.512	4.73
813.686	7.96
813.86	4.6
814.033	7.33
814.207	14.67
814.38	13.3
814.554	11.11
814.727	12.97
814.9	13.57
815.074	12.82
815.247	9.52
815.421	10.31
815.594	8.35
815.767	11.26
815.941	6.53
816.114	1.32
816.287	3.48
816.46	3.94
816.634	5.43
816.807	7.64
816.98	4.96
817.153	5.57
817.327	2.99
817.5	6.03
817.673	7.61
817.846	14.71
818.019	18.53
818.192	18.33
818.365	21.66
818.538	20.1
818.711	22.15
818.884	27.92
819.057	27.56
819.23	29.15
819.403	27.28
819.576	24.27
819.749	22.98
819.922	21.09
820.095	20.52
820.268	17.74
820.441	16.61
820.614	15.72
820.786	15.98
820.959	18.01
821.132	18.65
821.305	17.85
821.477	18.57
821.65	17.37
821.823	18.08
821.996	17.65
822.168	18.62
822.341	18.67
822.514	17.97
822.686	16.82
822.859	15.93
823.031	16.02
823.204	16.86
823.376	17.37
823.549	17.74
823.722	16.96
823.894	16.98
824.067	15.99
824.239	15.58
824.411	16.54
824.584	17.26
824.756	17.82
824.929	16.8
825.101	16.41
825.273	16.21
825.446	16.18
825.618	17
825.79	17.43
825.963	17.84
826.135	18.96
826.307	18.04
826.479	17.99
826.652	17.96
826.824	19.15
826.996	18.05
827.168	17.39
827.34	16.46
827.512	15.96
827.684	16.23
827.856	16.89
828.029	16.5
828.201	17.76
828.373	17.93
828.545	18.03
828.717	16.6
828.889	18.5
829.061	18.33
829.232	18.76
829.404	19.91
829.576	18.29
829.748	17.02
829.92	14.64
830.092	14.15
830.264	14.5
830.436	10.37
830.607	11.36
830.779	8.37
830.951	7.27
831.123	9
831.294	7.62
831.466	10.1
831.638	8.49
831.809	15.53
831.981	15.65
832.153	14.79
832.324	17.15
832.496	16.07
832.667	18.43
832.839	15.33
833.011	14.97
833.182	15.39
833.354	9.62
833.525	11.21
833.697	7.3
833.868	10.39
834.039	9.24
834.211	14.57
834.382	13.66
834.554	13.65
834.725	16.85
834.896	15.22
835.068	15.53
835.239	19.11
835.41	18.53
835.581	20.32
835.753	16.16
835.924	16.81
836.095	13.59
836.266	13.91
836.438	13.34
836.609	10.66
836.78	11.69
836.951	12.23
837.122	11.98
837.293	13.56
837.464	14.13
837.635	13.17
837.806	10.94
837.977	9.96
838.148	11.82
838.319	9.12
838.49	14.47
838.661	10.21
838.832	12.27
839.003	12.59
839.174	7.29
839.345	6.64
839.516	8.37
839.687	13.98
839.857	15
840.028	16.3
840.199	21.81
840.37	22.91
840.54	28.34
840.711	28.2
840.882	21.68
841.053	25.98
841.223	22.59
841.394	23.18
841.564	20.07
841.735	21.57
841.906	15.26
842.076	11.63
842.247	2.16
842.417	-0.91
842.588	-3.57
842.758	3.42
842.929	-1.23
843.099	6.83
843.27	10.53
843.44	12.83
843.611	18.94
843.781	23.73
843.951	19.5
844.122	21.25
844.292	20.42
844.462	22.23
844.633	26.15
844.803	23.17
844.973	19.85
845.144	15.08
845.314	18.04
845.484	11.21
845.654	11.9
845.824	16.26
845.995	21.56
846.165	23.63
846.335	24.95
846.505	17.58
846.675	19.66
846.845	24.45
847.015	30.19
847.185	31.99
847.355	39.47
847.525	39.7
847.695	38.94
847.865	39.23
848.035	37.36
848.205	30.19
848.375	35.1
848.545	36.94
848.715	36.13
848.884	34
849.054	23.32
849.224	4.33
849.394	-1.02
849.564	11.37
849.733	4.41
849.903	-2.28
850.073	-11.82
850.243	-9.95
850.412	-3.79
850.582	-7.78
850.752	-10.5
850.921	-9.52
851.091	-0.56
851.26	2.73
851.43	1.99
851.599	14.15
851.769	15.48
851.939	24.51
852.108	18.77
852.278	16.99
852.447	16.59
852.616	16.42
852.786	20.98
852.955	18.75
853.125	17.32
853.294	8.58
853.463	3.86
853.633	11.94
853.802	-3.04
853.971	8.35
854.141	-0.47
854.31	-18.38
854.479	-14.7
854.648	-37.19
854.818	-29.87
854.987	-28.32
855.156	-15.86
855.325	-37.12
855.494	-40.6
855.663	-12.74
855.832	-16.18
856.001	-12.32
856.171	-4.65
856.34	-7.17
856.509	11.9
856.678	5.46
856.847	14.69
857.016	6.11
857.185	37.19
857.353	33.96
857.522	21.01
857.691	19.48
857.86	26.74
858.029	26.64
858.198	27.6
858.367	33.35
858.535	38.17
858.704	34.08
858.873	34.73
859.042	27.09
859.21	29.35
859.379	35.41
859.548	30.95
859.717	28.55
859.885	36.4
860.054	32.71
860.222	28.17
860.391	18.65
860.56	18.4
860.728	24.94
860.897	20.73
861.065	21.65
861.234	16.59
861.402	21.29
861.571	33.45
861.739	12.72
861.908	10.31
862.076	6.88
862.244	22.99
862.413	33.14
862.581	41.68
862.749	28.87
862.918	22.07
863.086	45.39
863.254	36.15
863.423	15.15
863.591	40.18
863.759	58.72
863.927	58.64
864.096	39.63
864.264	40.66
864.432	44.25
864.6	47.66
864.768	57.42
864.936	37.44
865.104	50.05
865.272	28.38
865.44	38.23
865.608	15.21
865.776	2.11
865.944	20.47
866.112	-0.23
866.28	-9.05
866.448	10.8
866.616	-2.91
866.784	14.74
866.952	17.22
867.12	19.18
867.288	0.65
867.455	-4.27
867.623	8.85
867.791	16.26
867.959	28.94
868.127	14.08
868.294	4.42
868.462	9.99
868.63	-3.33
868.797	-15.28
868.965	-27.66
869.133	-11.24
869.3	4.3
869.468	1.76
869.636	-20.02
869.803	-27
869.971	-7.34
870.138	-12.58
870.306	-6.73
870.473	-13
870.641	-11.15
870.808	19.18
870.975	19.39
871.143	15.23
871.31	0.7
871.478	-1.82
871.645	-1.5
871.812	6.69
871.98	15.88
872.147	9.13
872.314	13.48
872.482	14.6
872.649	12.75
872.816	23
872.983	32.71
873.15	34.5
873.318	39.32
873.485	36.19
873.652	35.36
873.819	25.52
873.986	18.9
874.153	1.04
874.32	1.61
874.487	-17.54
874.654	-7.47
874.821	-12.42
874.988	-10.6
875.155	2.85
875.322	16.04
875.489	12.51
875.656	9.34
875.823	10.17
875.99	16.63
876.157	16.36
876.324	29.36
876.49	22.7
876.657	23.43
876.824	25.66
876.991	20.8
877.157	11.67
877.324	13.12
877.491	14.93
877.658	22.56
877.824	34.91
877.991	29.15
878.157	16.81
878.324	14.52
878.491	15.57
878.657	20.31
878.824	20.17
878.99	28.76
879.157	43.79
879.323	54.22
879.49	46
879.656	30.73
879.823	45.82
879.989	44.55
880.156	52.75
880.322	43.72
880.488	45.49
880.655	40.19
880.821	24.42
880.987	17.89
881.154	15.08
881.32	16.06
881.486	19.65
881.652	9.21
881.819	17.06
881.985	14.39
882.151	21.39
882.317	17.13
882.483	16.25
882.649	21.15
882.816	19.04
882.982	20.95
883.148	20.14
883.314	20.74
883.48	23.4
883.646	21.15
883.812	19.54
883.978	16.76
884.144	17.31
884.31	19.66
884.476	17.37
884.642	15.5
884.807	13.91
884.973	14.47
885.139	14.46
885.305	12.48
885.471	12.43
885.637	18.95
885.802	17.09
885.968	23.31
886.134	22.76
886.3	24.63
886.465	29.13
886.631	27.33
886.797	25.84
886.962	27.98
887.128	26.67
887.293	24.24
887.459	15.1
887.625	15.19
887.79	2.81
887.956	2.45
888.121	1.51
888.287	-3.11
888.452	2.08
888.618	1.39
888.783	-9.53
