Data from 2937897_Reflection_2.txt Node
Date: Wed Jul 15 13:49:32 EDT 2015
User: robert
Spectrometer: USB4E03001
Autoset integration time: false
Trigger mode: 4
Integration Time (sec): 1.000000E-1
Scans to average: 10
Electric dark correction enabled: true
Nonlinearity correction enabled: false
Boxcar width: 5
Stray light correction enabled: false
XAxis mode: Wavelengths
Stop averaging: false
Number of Pixels in Spectrum: 3648
>>>>>Begin Spectral Data<<<<<
177.566	10.45
177.785	-6.42
178.005	-7.47
178.225	-660
178.445	-83.83
178.665	-57.82
178.885	-154.18
179.105	38.04
179.324	18.49
179.544	34.61
179.764	72.87
179.984	46.82
180.204	29.98
180.423	69.52
180.643	41.39
180.863	63.42
181.083	81.17
181.302	408.61
181.522	111.92
181.742	87.22
181.961	46.85
182.181	19.16
182.401	175.6
182.621	544.16
182.84	198.22
183.06	139.1
183.279	-103.16
183.499	1682.8
183.719	139.13
183.938	-59.63
184.158	-78.2
184.377	-155.52
184.597	-83
184.816	60.73
185.036	68
185.256	87
185.475	83.78
185.695	124.65
185.914	63.11
186.134	14.35
186.353	29.92
186.572	-34.91
186.792	22.33
187.011	-157.67
187.231	719.71
187.45	-529.68
187.67	716.93
187.889	250.39
188.108	-189.35
188.328	384.42
188.547	149.27
188.766	152.27
188.986	-97.34
189.205	-81.05
189.424	39.41
189.644	10.75
189.863	11.85
190.082	-23.49
190.302	-129.45
190.521	-260.91
190.74	-184.05
190.959	-103.72
191.178	-35.56
191.398	-141
191.617	-189.05
191.836	-28.96
192.055	9.88
192.274	-42.39
192.494	161.61
192.713	88.97
192.932	164.11
193.151	1156.73
193.37	-152.38
193.589	-124.61
193.808	-111.53
194.027	-87.06
194.246	-22.77
194.465	-27.1
194.685	-113.03
194.904	-78.97
195.123	-127.91
195.342	-141.46
195.561	-217.68
195.78	-1182.48
195.999	294.27
196.218	101.92
196.436	94.73
196.655	113.89
196.874	67.16
197.093	49.95
197.312	37.77
197.531	24.85
197.75	13.62
197.969	1.54
198.188	2.99
198.407	12.83
198.625	32.62
198.844	9.47
199.063	-11.56
199.282	-75.12
199.501	-157.02
199.719	-1625.71
199.938	-76.18
200.157	-9.24
200.376	31.27
200.594	69.18
200.813	46.88
201.032	13.51
201.251	-5.25
201.469	-13.63
201.688	72.97
201.907	82.25
202.125	136.19
202.344	192.64
202.563	2697.66
202.781	-9.13
203	121.13
203.218	-92.73
203.437	41.11
203.656	-246.91
203.874	-242.69
204.093	-400
204.311	-60.38
204.53	-33.09
204.748	-4.25
204.967	-50.3
205.185	-1.8
205.404	38.57
205.622	-23.87
205.841	-24.18
206.059	39.13
206.278	135.33
206.496	-55.97
206.715	99.69
206.933	-260.06
207.151	-56.32
207.37	132.09
207.588	126.73
207.806	14.4
208.025	164.62
208.243	121.2
208.461	170.62
208.68	105.66
208.898	168.78
209.116	247.24
209.335	311.7
209.553	1060.21
209.771	971.29
209.989	269.6
210.208	-2742.45
210.426	1615
210.644	-200.57
210.862	79.79
211.081	68.4
211.299	112.35
211.517	131.67
211.735	80.46
211.953	93.22
212.171	160.45
212.39	168.04
212.608	316.88
212.826	176.79
213.044	340.85
213.262	-18.97
213.48	-154.28
213.698	-37.97
213.916	27.79
214.134	-39.18
214.352	21.11
214.57	61.07
214.788	47.28
215.006	30.81
215.224	60.12
215.442	44.64
215.66	10.15
215.878	-3.5
216.096	17.13
216.314	22.04
216.532	14.54
216.75	-30.34
216.968	-34.94
217.185	-43.45
217.403	-1.38
217.621	34.34
217.839	56.63
218.057	-31.6
218.275	-25.71
218.492	-153.48
218.71	-468.04
218.928	-205.88
219.146	-242.02
219.363	-1377.52
219.581	-23.58
219.799	-20.41
220.017	-107.53
220.234	-49.24
220.452	-0.88
220.67	-98.59
220.887	-305.29
221.105	-606.26
221.323	-107.85
221.54	30.22
221.758	-315.55
221.976	67.28
222.193	99.07
222.411	223.04
222.629	271.68
222.846	1482.96
223.064	-48.2
223.281	-1.73
223.499	57.28
223.716	-66.17
223.934	-44.92
224.151	-29.13
224.369	10.32
224.586	-15.69
224.804	-26.54
225.021	-7.65
225.239	0.92
225.456	-19.34
225.674	-29.93
225.891	-13.93
226.108	12.85
226.326	8.69
226.543	-29.34
226.76	-18.26
226.978	8.11
227.195	14.79
227.413	21.09
227.63	20.1
227.847	30.03
228.064	30.72
228.282	26.3
228.499	24.66
228.716	29.91
228.934	34.81
229.151	34.26
229.368	29.25
229.585	29.4
229.802	25.01
230.02	24.55
230.237	22.44
230.454	21.04
230.671	23.68
230.888	23.54
231.105	16.65
231.323	19.93
231.54	17.68
231.757	20.43
231.974	18.84
232.191	23.39
232.408	19.9
232.625	13.3
232.842	21.63
233.059	17.55
233.276	19.62
233.493	23.71
233.71	15.93
233.927	18.01
234.144	20.27
234.361	19.07
234.578	18.2
234.795	19.16
235.012	31.24
235.229	25.28
235.446	26.8
235.663	27.77
235.879	26.57
236.096	27.62
236.313	27.32
236.53	28.51
236.747	23.38
236.964	29.75
237.181	35.47
237.397	26.74
237.614	28.12
237.831	27.88
238.048	24.85
238.264	25.5
238.481	26.33
238.698	25.31
238.915	21.03
239.131	25.66
239.348	23.08
239.565	17.27
239.781	16.4
239.998	17.01
240.215	18.02
240.431	21.4
240.648	20.33
240.865	22.03
241.081	22.8
241.298	24.14
241.514	25.81
241.731	23.34
241.947	24.37
242.164	25.55
242.38	22.78
242.597	23.23
242.814	21.38
243.03	20.56
243.246	18.66
243.463	15.73
243.679	16.18
243.896	14.12
244.112	15.08
244.329	16.5
244.545	15.65
244.762	17.88
244.978	15.88
245.194	17.63
245.411	18.49
245.627	17.71
245.843	22.16
246.06	21.39
246.276	21.21
246.492	21.18
246.709	20.39
246.925	21.09
247.141	22.48
247.357	23.12
247.574	21
247.79	21.25
248.006	22.36
248.222	21.43
248.439	20.78
248.655	20.41
248.871	20
249.087	17.88
249.303	16.56
249.519	12.02
249.736	9.76
249.952	9.51
250.168	8.18
250.384	6.7
250.6	4.36
250.816	5.55
251.032	6.14
251.248	4.14
251.464	10.26
251.68	9.18
251.896	11.19
252.112	13.08
252.328	15.73
252.544	17.71
252.76	17.81
252.976	19.02
253.192	17.32
253.408	18.95
253.624	19.74
253.84	17.86
254.056	20.92
254.272	20.31
254.487	22.38
254.703	19.7
254.919	17.8
255.135	13.26
255.351	13.22
255.567	13.48
255.782	14.28
255.998	14.08
256.214	16.14
256.43	13.47
256.646	17.68
256.861	12.68
257.077	14.28
257.293	9.24
257.508	12.51
257.724	10.8
257.94	12.31
258.155	9.73
258.371	11.56
258.587	11.04
258.802	11.07
259.018	10.58
259.234	12.32
259.449	12.56
259.665	15.29
259.88	15.59
260.096	15.6
260.312	15.87
260.527	16.05
260.743	16.1
260.958	15.91
261.174	16.22
261.389	16.3
261.605	15.35
261.82	15.33
262.036	14.38
262.251	13.5
262.466	14.24
262.682	12.31
262.897	11.54
263.113	10.96
263.328	13
263.543	12.68
263.759	14.66
263.974	17.15
264.189	15.64
264.405	14.56
264.62	17.23
264.835	17.07
265.051	18.04
265.266	18.11
265.481	17.75
265.696	13.3
265.912	14.22
266.127	12.08
266.342	9.55
266.557	10.27
266.773	9.8
266.988	9.18
267.203	10.48
267.418	10.88
267.633	12.03
267.848	11.64
268.064	13.52
268.279	13.45
268.494	12.22
268.709	13.94
268.924	15.06
269.139	17.02
269.354	16.64
269.569	13.71
269.784	13.94
269.999	12.45
270.214	12.85
270.429	10.66
270.644	10.61
270.859	10.66
271.074	8.86
271.289	8.07
271.504	7
271.719	5.98
271.934	7.44
272.149	7.23
272.363	9.42
272.578	9.83
272.793	10.62
273.008	9.76
273.223	10.56
273.438	12
273.653	12.6
273.867	11.09
274.082	11.62
274.297	12.03
274.512	11.11
274.726	9.68
274.941	8.51
275.156	9.58
275.371	10.43
275.585	11.48
275.8	11.4
276.015	12.17
276.229	15.44
276.444	17.3
276.659	17.56
276.873	18.66
277.088	19.53
277.302	19.84
277.517	20.1
277.732	19.33
277.946	17.18
278.161	18.46
278.375	17.37
278.59	16.4
278.804	16.29
279.019	15.34
279.233	16.57
279.448	16.04
279.662	16.09
279.877	15
280.091	15.66
280.306	17.52
280.52	16.5
280.735	19.25
280.949	18.84
281.163	18.5
281.378	18.03
281.592	17.48
281.806	17.24
282.021	16.73
282.235	18.15
282.449	19.07
282.664	18.6
282.878	19
283.092	15.49
283.307	13.42
283.521	11.54
283.735	11.11
283.949	10.16
284.164	10.7
284.378	10.79
284.592	10.59
284.806	11.89
285.02	11.89
285.234	10.98
285.449	12.35
285.663	13.89
285.877	15.19
286.091	16.35
286.305	16.64
286.519	16.19
286.733	15.58
286.947	14.36
287.161	12.49
287.375	10.9
287.589	11.37
287.803	12.48
288.017	13.01
288.231	13.54
288.445	13.39
288.659	12.05
288.873	10.8
289.087	13.25
289.301	16.11
289.515	16.34
289.729	17.55
289.943	17.25
290.157	15.93
290.371	15.27
290.584	14.87
290.798	14.38
291.012	14.46
291.226	16.44
291.44	16.16
291.654	14.24
291.867	15.59
292.081	16.55
292.295	15.53
292.509	15.4
292.722	17.26
292.936	17.98
293.15	20.03
293.364	19.89
293.577	19.06
293.791	17.29
294.005	17.98
294.218	16.34
294.432	15.59
294.645	17.83
294.859	17.03
295.073	15.16
295.286	15.38
295.5	13.36
295.713	15.53
295.927	14.27
296.14	15.33
296.354	15.37
296.568	16.21
296.781	15.76
296.994	14.75
297.208	14.79
297.421	15.37
297.635	14.58
297.848	15.43
298.062	14.14
298.275	14.78
298.489	15.71
298.702	16.05
298.915	15.24
299.129	16.25
299.342	15.3
299.555	16.88
299.769	16.99
299.982	17.81
300.195	17.53
300.409	16.88
300.622	17.19
300.835	13.79
301.048	13.29
301.262	14.07
301.475	13.01
301.688	14.37
301.901	13.71
302.115	14.78
302.328	14.27
302.541	13.76
302.754	15.51
302.967	15.85
303.18	18.53
303.393	18.79
303.607	18.58
303.82	19.78
304.033	19.63
304.246	21.77
304.459	21.59
304.672	19.49
304.885	20.12
305.098	20.93
305.311	20.32
305.524	19.63
305.737	18.2
305.95	18.71
306.163	19.45
306.376	21.27
306.589	18.25
306.802	18.82
307.015	19.74
307.228	19.75
307.44	19.13
307.653	19.29
307.866	21.49
308.079	22.35
308.292	21.88
308.505	19.59
308.718	18.53
308.93	19.26
309.143	17.55
309.356	17.34
309.569	17.02
309.781	17.89
309.994	18.53
310.207	18.28
310.42	18.65
310.632	17.25
310.845	18.18
311.058	18.15
311.27	17.52
311.483	17.57
311.696	18.69
311.908	18.21
312.121	17.78
312.333	18.83
312.546	17.53
312.759	17.25
312.971	18.28
313.184	18.01
313.396	17.36
313.609	16.94
313.821	17.55
314.034	18.39
314.246	19
314.459	18.22
314.671	15.75
314.884	16.97
315.096	16.92
315.309	17.73
315.521	18.01
315.733	18.13
315.946	19.52
316.158	21.09
316.371	19.59
316.583	20.05
316.795	21.74
317.008	22.59
317.22	20.57
317.432	21.47
317.644	21.52
317.857	20.79
318.069	20.53
318.281	20.43
318.494	18.8
318.706	18.98
318.918	19.86
319.13	18.03
319.342	16.86
319.555	18.87
319.767	18.37
319.979	18.37
320.191	18.27
320.403	19.41
320.615	18.76
320.827	17.84
321.039	19.83
321.252	18.8
321.464	20.13
321.676	19.21
321.888	19.22
322.1	17.81
322.312	17.03
322.524	17.24
322.736	17.5
322.948	18.21
323.16	18.82
323.372	17.52
323.584	18.51
323.796	19.09
324.007	22.34
324.219	23.05
324.431	23.67
324.643	23.69
324.855	23.37
325.067	23.91
325.279	23.47
325.491	23.96
325.702	24.53
325.914	22.88
326.126	23.64
326.338	21.77
326.55	19.36
326.761	20.13
326.973	20.67
327.185	20.96
327.396	20.21
327.608	20.36
327.82	20.62
328.032	21.02
328.243	21.05
328.455	19.9
328.666	19.37
328.878	20.13
329.09	20.05
329.301	19.47
329.513	20.91
329.725	19.94
329.936	20.35
330.148	19.49
330.359	17.87
330.571	20.39
330.782	19.74
330.994	20.26
331.205	21.22
331.417	20.3
331.628	21.17
331.84	20.65
332.051	22.33
332.262	21.44
332.474	22.29
332.685	23.63
332.897	21.64
333.108	20.51
333.319	21.61
333.531	21.04
333.742	23.02
333.953	23.73
334.165	22.85
334.376	23.32
334.587	24.26
334.799	24.32
335.01	23.25
335.221	24.73
335.432	26.37
335.644	24.93
335.855	26.42
336.066	24.83
336.277	24.43
336.488	24.26
336.7	24.43
336.911	24.55
337.122	24.75
337.333	25.56
337.544	24.85
337.755	25.83
337.966	27.14
338.177	26.3
338.388	26.66
338.599	26
338.811	27.92
339.022	27.03
339.233	27
339.444	25.3
339.655	24.89
339.866	26.26
340.076	24.95
340.287	24.83
340.498	24.64
340.709	24.44
340.92	25.24
341.131	25.65
341.342	25.86
341.553	26.08
341.764	27.62
341.975	28.29
342.185	28.7
342.396	29.01
342.607	28.76
342.818	29.42
343.029	29.41
343.239	29.55
343.45	28.68
343.661	28.41
343.872	28.42
344.082	27.74
344.293	27.19
344.504	25.65
344.714	25.61
344.925	26
345.136	25.62
345.346	26.55
345.557	26.1
345.768	25.58
345.978	26.51
346.189	26.08
346.399	27.02
346.61	27.55
346.821	27.1
347.031	26.81
347.242	26.46
347.452	25.91
347.663	24.69
347.873	23.87
348.084	23.25
348.294	23.5
348.504	23.16
348.715	22.35
348.925	20.88
349.136	22.93
349.346	22.53
349.557	22.85
349.767	23.74
349.977	24.81
350.188	25.76
350.398	27.79
350.608	26.31
350.819	26.32
351.029	27.28
351.239	26.34
351.449	26.74
351.66	27.09
351.87	27.03
352.08	26.39
352.29	27.03
352.501	27.06
352.711	26.54
352.921	27.27
353.131	27.63
353.341	27.35
353.552	27.71
353.762	26.31
353.972	25.78
354.182	25.79
354.392	26.25
354.602	24.86
354.812	24
355.022	24.31
355.232	24
355.442	24.33
355.652	24.1
355.862	24.41
356.072	23.82
356.282	24.3
356.492	24.16
356.702	23.42
356.912	23.51
357.122	24
357.332	22.84
357.542	22.56
357.752	21.67
357.962	21.78
358.171	22.63
358.381	22.93
358.591	22.69
358.801	22.7
359.011	23.37
359.221	22.65
359.43	23.19
359.64	23.78
359.85	24.86
360.06	25.29
360.269	25.47
360.479	25.37
360.689	25.31
360.899	24.73
361.108	24.09
361.318	23.67
361.528	24.38
361.737	23.92
361.947	23.31
362.156	22.34
362.366	21.95
362.576	21.55
362.785	21.79
362.995	21.51
363.204	22.77
363.414	22.83
363.623	22.97
363.833	22.01
364.042	21.57
364.252	21.61
364.461	21.53
364.671	21.65
364.88	21.53
365.09	20.56
365.299	20.45
365.509	19.41
365.718	19.68
365.927	18.94
366.137	20.15
366.346	20.71
366.555	20.15
366.765	20.46
366.974	20.61
367.183	20.64
367.393	20.72
367.602	20.88
367.811	20.4
368.021	20.54
368.23	20.98
368.439	20.37
368.648	19.87
368.857	19.95
369.067	19.86
369.276	20.64
369.485	20.86
369.694	20.99
369.903	20.9
370.112	21.76
370.321	21.18
370.531	21.63
370.74	21.39
370.949	21.46
371.158	21.7
371.367	21.51
371.576	21.52
371.785	21.11
371.994	20.98
372.203	20.89
372.412	20.56
372.621	20.73
372.83	20.43
373.039	20.66
373.248	20.69
373.457	20.92
373.666	20.84
373.874	19.21
374.083	19.38
374.292	19.01
374.501	18.93
374.71	18.57
374.919	18.57
375.128	18.29
375.336	17.51
375.545	17.04
375.754	16.57
375.963	16.23
376.171	16.21
376.38	15.3
376.589	15.65
376.798	15.47
377.006	15.54
377.215	15.61
377.424	15.21
377.632	15.73
377.841	16.27
378.05	16.46
378.258	16.22
378.467	16.67
378.675	17.01
378.884	16.75
379.093	16.77
379.301	16.66
379.51	16.27
379.718	16.16
379.927	15.78
380.135	15.88
380.344	15.52
380.552	16.51
380.761	16.39
380.969	16.18
381.177	15.52
381.386	15.37
381.594	15.63
381.803	15.76
382.011	16.12
382.219	16.4
382.428	15.18
382.636	15.45
382.845	14.27
383.053	14.02
383.261	13.84
383.469	14.38
383.678	14.21
383.886	14.27
384.094	13.93
384.302	13.3
384.511	13.05
384.719	14.13
384.927	13.75
385.135	14.13
385.343	13.82
385.552	13.38
385.76	12.81
385.968	13.65
386.176	13.32
386.384	13.19
386.592	13.49
386.8	13.24
387.008	12.92
387.216	12.98
387.424	12.85
387.633	13.26
387.841	13.41
388.049	13.86
388.257	12.88
388.465	12.6
388.672	12.74
388.88	12.82
389.088	12.88
389.296	12.66
389.504	12.65
389.712	12.34
389.92	12.13
390.128	12.21
390.336	11.95
390.544	12.21
390.751	12.24
390.959	12.21
391.167	11.68
391.375	11.95
391.583	11.45
391.79	11.24
391.998	11.03
392.206	11.47
392.414	11.38
392.621	10.94
392.829	10.83
393.037	10.87
393.244	10.75
393.452	10.75
393.66	10.45
393.867	10.79
394.075	11.07
394.283	10.81
394.49	10.62
394.698	10.53
394.905	10.86
395.113	10.92
395.32	10.77
395.528	11
395.735	11.03
395.943	11.08
396.15	10.65
396.358	10.22
396.565	10.59
396.773	10.36
396.98	10.37
397.188	10.31
397.395	9.87
397.602	9.61
397.81	8.94
398.017	8.88
398.225	8.71
398.432	9.08
398.639	9.24
398.847	9.34
399.054	9.13
399.261	8.93
399.468	8.86
399.676	8.76
399.883	9
400.09	9.21
400.297	9.4
400.505	9.57
400.712	9.48
400.919	9.08
401.126	8.82
401.333	8.78
401.54	8.69
401.748	8.66
401.955	9.06
402.162	8.73
402.369	8.62
402.576	8.46
402.783	8.21
402.99	7.86
403.197	8.14
403.404	8.29
403.611	8.59
403.818	9
404.025	9.06
404.232	9.05
404.439	8.83
404.646	9.02
404.853	9.06
405.06	9.41
405.267	9.78
405.474	10.01
405.681	10.16
405.887	9.89
406.094	9.93
406.301	10.17
406.508	9.71
406.715	9.99
406.922	9.96
407.128	10.15
407.335	9.94
407.542	9.87
407.749	9.84
407.955	9.63
408.162	9.75
408.369	9.39
408.575	9.12
408.782	9.49
408.989	9.7
409.195	9.62
409.402	9.47
409.609	9.63
409.815	9.44
410.022	9.13
410.228	9.53
410.435	9.42
410.642	9.49
410.848	9.46
411.055	9.56
411.261	9.51
411.468	9.47
411.674	9.4
411.881	9.37
412.087	9.57
412.294	9.33
412.5	8.76
412.706	8.97
412.913	9.21
413.119	9.26
413.326	9.26
413.532	9.46
413.738	9.35
413.945	9.58
414.151	9.33
414.357	9.51
414.564	9.81
414.77	9.88
414.976	9.76
415.182	9.61
415.389	9.54
415.595	9.55
415.801	9.18
416.007	9.25
416.214	9.01
416.42	8.85
416.626	8.48
416.832	8.69
417.038	8.67
417.244	8.6
417.45	8.9
417.657	9.08
417.863	9.34
418.069	9.52
418.275	9.6
418.481	9.6
418.687	9.63
418.893	9.64
419.099	9.51
419.305	9.45
419.511	9.5
419.717	9.22
419.923	9.14
420.129	8.75
420.335	8.6
420.541	8.47
420.746	8.41
420.952	8.56
421.158	8.56
421.364	8.5
421.57	8.5
421.776	8.32
421.982	8.32
422.187	8.18
422.393	8.21
422.599	8.3
422.805	8.41
423.01	8.46
423.216	8.4
423.422	8.36
423.628	8.27
423.833	8.52
424.039	8.7
424.245	8.81
424.45	8.86
424.656	8.91
424.862	8.78
425.067	8.84
425.273	8.83
425.478	8.74
425.684	8.73
425.889	8.87
426.095	8.75
426.301	8.47
426.506	8.39
426.712	8.37
426.917	8.37
427.123	8.34
427.328	8.14
427.533	8.34
427.739	8.38
427.944	8.33
428.15	8.23
428.355	8.19
428.561	8.48
428.766	8.39
428.971	8.25
429.177	8.22
429.382	8.4
429.587	8.36
429.793	8.05
429.998	8.16
430.203	8.46
430.408	8.41
430.614	8.38
430.819	8.43
431.024	8.38
431.229	8.63
431.434	8.6
431.64	8.72
431.845	8.56
432.05	8.57
432.255	8.29
432.46	8.48
432.665	8.64
432.87	8.81
433.076	8.69
433.281	8.76
433.486	8.52
433.691	8.48
433.896	8.35
434.101	8.54
434.306	8.38
434.511	8.48
434.716	8.21
434.921	8.31
435.126	8.03
435.331	8.04
435.535	8.06
435.74	8.34
435.945	8.3
436.15	8.28
436.355	8.2
436.56	8.38
436.765	8.39
436.97	8.26
437.174	8.25
437.379	8.38
437.584	8.32
437.789	8.33
437.993	8.2
438.198	8.48
438.403	8.46
438.608	8.5
438.812	8.71
439.017	8.53
439.222	8.62
439.426	8.48
439.631	8.19
439.836	8.17
440.04	8.16
440.245	8.16
440.45	8.12
440.654	8.26
440.859	8.13
441.063	7.96
441.268	8.18
441.472	8.16
441.677	8.21
441.881	8.55
442.086	8.59
442.29	8.6
442.495	8.6
442.699	8.56
442.904	8.36
443.108	8.53
443.312	8.52
443.517	8.42
443.721	8.4
443.925	8.53
444.13	8.47
444.334	8.37
444.538	8.55
444.743	8.46
444.947	8.35
445.151	8.5
445.356	8.51
445.56	8.67
445.764	8.69
445.968	8.76
446.173	8.64
446.377	8.61
446.581	8.83
446.785	8.67
446.989	8.69
447.193	8.62
447.398	8.48
447.602	8.25
447.806	8.12
448.01	8.17
448.214	8.07
448.418	8
448.622	7.87
448.826	7.64
449.03	7.56
449.234	7.66
449.438	7.8
449.642	7.95
449.846	8.13
450.05	8.04
450.254	7.95
450.458	7.94
450.662	7.82
450.866	7.88
451.069	7.83
451.273	7.74
451.477	7.7
451.681	7.55
451.885	7.5
452.089	7.45
452.292	7.59
452.496	7.39
452.7	7.42
452.904	7.69
453.107	7.74
453.311	7.86
453.515	7.9
453.719	7.72
453.922	7.6
454.126	7.49
454.33	7.41
454.533	7.34
454.737	7.53
454.94	7.48
455.144	7.16
455.348	7.1
455.551	7
455.755	7.17
455.958	7.39
456.162	7.46
456.365	7.7
456.569	7.81
456.772	7.78
456.976	7.69
457.179	7.82
457.383	7.81
457.586	7.9
457.79	8.07
457.993	8.12
458.196	8.01
458.4	8.08
458.603	8.02
458.807	8.06
459.01	7.98
459.213	8.08
459.417	8.02
459.62	8.08
459.823	8.05
460.026	7.96
460.23	7.85
460.433	7.91
460.636	7.87
460.839	7.92
461.042	7.89
461.246	7.96
461.449	8.01
461.652	8.04
461.855	8.02
462.058	7.95
462.261	7.87
462.464	7.87
462.668	7.81
462.871	7.79
463.074	7.5
463.277	7.61
463.48	7.52
463.683	7.35
463.886	7.18
464.089	7.06
464.292	7.08
464.495	7.18
464.698	7.09
464.901	7.14
465.104	7.19
465.306	7.31
465.509	7.29
465.712	7.5
465.915	7.51
466.118	7.64
466.321	7.68
466.524	7.68
466.726	7.64
466.929	7.8
467.132	7.7
467.335	7.68
467.538	7.72
467.74	7.74
467.943	7.51
468.146	7.49
468.348	7.58
468.551	7.93
468.754	7.91
468.956	8.04
469.159	7.98
469.362	7.94
469.564	8.08
469.767	8.09
469.969	8.02
470.172	8.23
470.375	8.25
470.577	8.14
470.78	7.95
470.982	7.99
471.185	8.04
471.387	8.05
471.59	8.02
471.792	7.99
471.995	7.92
472.197	7.91
472.399	7.81
472.602	7.61
472.804	7.51
473.007	7.32
473.209	7.61
473.411	7.43
473.614	7.47
473.816	7.56
474.018	7.57
474.22	7.34
474.423	7.32
474.625	7.24
474.827	7.57
475.03	7.67
475.232	7.7
475.434	7.34
475.636	7.51
475.838	7.63
476.04	7.51
476.243	7.25
476.445	7.31
476.647	7.35
476.849	7.47
477.051	7.28
477.253	7.27
477.455	7.18
477.657	7.47
477.859	7.21
478.061	7.17
478.263	7.35
478.465	7.51
478.667	7.68
478.869	7.73
479.071	7.65
479.273	7.75
479.475	7.73
479.677	7.84
479.879	7.7
480.081	7.74
480.283	7.72
480.485	7.6
480.686	7.66
480.888	7.69
481.09	7.7
481.292	7.6
481.494	7.57
481.695	7.62
481.897	7.62
482.099	7.57
482.301	7.73
482.502	7.8
482.704	7.86
482.906	7.81
483.107	7.76
483.309	7.72
483.511	7.76
483.712	7.75
483.914	7.75
484.115	7.75
484.317	7.73
484.519	7.67
484.72	7.58
484.922	7.54
485.123	7.5
485.325	7.49
485.526	7.49
485.728	7.53
485.929	7.57
486.131	7.48
486.332	7.53
486.534	7.6
486.735	7.64
486.936	7.7
487.138	7.74
487.339	7.79
487.541	7.8
487.742	7.81
487.943	7.75
488.144	7.76
488.346	7.78
488.547	7.76
488.748	7.7
488.95	7.73
489.151	7.75
489.352	7.73
489.553	7.82
489.755	7.74
489.956	7.66
490.157	7.61
490.358	7.53
490.559	7.61
490.76	7.66
490.961	7.72
491.163	7.61
491.364	7.56
491.565	7.61
491.766	7.6
491.967	7.66
492.168	7.7
492.369	7.83
492.57	7.8
492.771	7.78
492.972	7.76
493.173	7.79
493.374	7.86
493.575	7.9
493.776	7.78
493.976	7.78
494.177	7.77
494.378	7.82
494.579	7.74
494.78	7.85
494.981	7.93
495.182	8.04
495.382	7.96
495.583	7.81
495.784	7.7
495.985	7.77
496.185	7.55
496.386	7.64
496.587	7.55
496.788	7.51
496.988	7.58
497.189	7.45
497.39	7.2
497.59	7.2
497.791	7.22
497.992	7.35
498.192	7.4
498.393	7.44
498.593	7.37
498.794	7.33
498.994	7.48
499.195	7.44
499.395	7.46
499.596	7.56
499.796	7.51
499.997	7.58
500.197	7.47
500.398	7.4
500.598	7.44
500.799	7.66
500.999	7.79
501.199	7.63
501.4	7.56
501.6	7.59
501.801	7.6
502.001	7.78
502.201	7.8
502.402	7.81
502.602	7.82
502.802	7.95
503.002	7.85
503.203	7.76
503.403	7.83
503.603	7.83
503.803	7.94
504.003	8.1
504.204	7.83
504.404	7.98
504.604	8.06
504.804	8.04
505.004	7.96
505.204	7.85
505.404	8.03
505.604	7.96
505.804	7.98
506.005	7.76
506.205	7.4
506.405	7.57
506.605	7.32
506.805	7.35
507.005	7.5
507.204	7.47
507.404	7.55
507.604	7.35
507.804	7.4
508.004	7.39
508.204	7.48
508.404	7.66
508.604	7.59
508.804	7.67
509.003	7.54
509.203	7.46
509.403	7.53
509.603	7.39
509.803	7.41
510.002	7.58
510.202	7.48
510.402	7.66
510.602	7.78
510.801	7.73
511.001	7.81
511.201	7.93
511.4	7.94
511.6	8.06
511.8	8.1
511.999	8.13
512.199	8
512.398	8.15
512.598	7.97
512.797	7.92
512.997	7.98
513.197	7.98
513.396	8.03
513.596	8.27
513.795	8.21
513.994	8.3
514.194	8.43
514.393	8.58
514.593	8.56
514.792	8.62
514.992	8.69
515.191	8.82
515.39	8.88
515.59	8.94
515.789	8.73
515.988	8.64
516.188	8.6
516.387	8.64
516.586	8.46
516.786	8.51
516.985	8.63
517.184	8.6
517.383	8.47
517.582	8.54
517.782	8.42
517.981	8.41
518.18	8.42
518.379	8.48
518.578	8.5
518.777	8.49
518.976	8.46
519.176	8.39
519.375	8.34
519.574	8.23
519.773	8.15
519.972	8.17
520.171	8.2
520.37	8.2
520.569	8.27
520.768	8.29
520.967	8.37
521.166	8.21
521.365	8.34
521.564	8.38
521.762	8.5
521.961	8.45
522.16	8.45
522.359	8.61
522.558	8.64
522.757	8.69
522.956	8.55
523.154	8.38
523.353	8.48
523.552	8.41
523.751	8.54
523.949	8.75
524.148	8.91
524.347	9.11
524.546	8.99
524.744	9.03
524.943	8.85
525.142	8.9
525.34	9.14
525.539	9.3
525.737	9.28
525.936	9.2
526.135	9.12
526.333	9.04
526.532	8.9
526.73	8.94
526.929	8.98
527.127	8.97
527.326	8.95
527.524	8.93
527.723	8.92
527.921	8.9
528.12	8.92
528.318	8.94
528.516	8.94
528.715	8.97
528.913	8.94
529.112	8.94
529.31	8.97
529.508	8.96
529.707	8.94
529.905	8.86
530.103	8.89
530.301	8.87
530.5	8.92
530.698	8.95
530.896	8.87
531.094	8.98
531.293	8.97
531.491	8.97
531.689	9.01
531.887	9.06
532.085	9.17
532.283	9.22
532.481	9.27
532.68	9.21
532.878	9.21
533.076	9.26
533.274	9.19
533.472	9.16
533.67	9.19
533.868	9.24
534.066	9.25
534.264	9.19
534.462	9.1
534.66	9.08
534.858	9.1
535.056	9.07
535.253	9.15
535.451	9.15
535.649	9.17
535.847	9.3
536.045	9.31
536.243	9.25
536.441	9.28
536.638	9.39
536.836	9.38
537.034	9.42
537.232	9.43
537.43	9.45
537.627	9.5
537.825	9.64
538.023	9.49
538.22	9.49
538.418	9.46
538.616	9.47
538.813	9.41
539.011	9.56
539.209	9.61
539.406	9.63
539.604	9.62
539.801	9.52
539.999	9.34
540.196	9.47
540.394	9.61
540.591	9.81
540.789	9.94
540.986	10.06
541.184	10.04
541.381	10.14
541.579	10.16
541.776	10.18
541.974	10.29
542.171	10.42
542.368	10.45
542.566	10.41
542.763	10.35
542.96	10.3
543.158	10.28
543.355	10.32
543.552	10.28
543.75	10.32
543.947	10.32
544.144	10.26
544.341	10.14
544.539	10.18
544.736	10.28
544.933	10.34
545.13	10.38
545.327	10.46
545.524	10.46
545.722	10.56
545.919	10.63
546.116	10.51
546.313	10.5
546.51	10.61
546.707	10.56
546.904	10.62
547.101	10.65
547.298	10.59
547.495	10.56
547.692	10.62
547.889	10.53
548.086	10.57
548.283	10.76
548.48	10.86
548.677	10.89
548.874	11
549.07	10.85
549.267	10.83
549.464	11
549.661	11.06
549.858	11
550.055	11.09
550.251	11.02
550.448	11.02
550.645	11.04
550.842	11.2
551.038	11.09
551.235	11.22
551.432	11.4
551.628	11.56
551.825	11.67
552.022	11.54
552.218	11.59
552.415	11.69
552.612	11.86
552.808	11.96
553.005	11.85
553.201	11.91
553.398	11.97
553.594	11.86
553.791	11.58
553.987	11.55
554.184	11.82
554.38	11.78
554.577	11.6
554.773	11.79
554.97	11.8
555.166	11.94
555.362	12.08
555.559	12.1
555.755	12.15
555.952	12.48
556.148	12.54
556.344	12.39
556.541	12.2
556.737	12.39
556.933	12
557.129	11.99
557.326	11.76
557.522	11.81
557.718	11.87
557.914	11.97
558.11	11.77
558.307	11.75
558.503	11.87
558.699	12.1
558.895	12.13
559.091	12.16
559.287	12.41
559.483	12.54
559.679	12.46
559.876	12.32
560.072	12.48
560.268	12.63
560.464	12.48
560.66	12.73
560.856	12.89
561.052	13
561.247	13.03
561.443	12.92
561.639	13.07
561.835	13.23
562.031	13.4
562.227	13.22
562.423	13.15
562.619	13.43
562.815	13.28
563.01	13.2
563.206	13.29
563.402	13.43
563.598	13.48
563.793	13.54
563.989	13.49
564.185	13.56
564.381	13.73
564.576	14.01
564.772	13.96
564.968	13.97
565.163	14.06
565.359	14.02
565.555	14.35
565.75	14.14
565.946	14.21
566.141	14.28
566.337	14.15
566.532	14.12
566.728	14.1
566.923	14.17
567.119	14.1
567.314	14.29
567.51	14.36
567.705	14.17
567.901	14.38
568.096	14.37
568.292	14.44
568.487	14.61
568.682	14.76
568.878	14.92
569.073	14.92
569.268	15.14
569.464	14.94
569.659	15.03
569.854	15.08
570.05	15.16
570.245	15.35
570.44	15.32
570.635	15.54
570.831	15.46
571.026	15.63
571.221	15.67
571.416	15.86
571.611	15.78
571.806	15.76
572.002	15.85
572.197	15.93
572.392	15.99
572.587	16.11
572.782	15.97
572.977	16.01
573.172	15.72
573.367	15.69
573.562	15.53
573.757	15.82
573.952	15.72
574.147	15.65
574.342	15.56
574.537	15.38
574.732	15.42
574.927	15.49
575.121	15.65
575.316	15.85
575.511	16.04
575.706	15.93
575.901	15.92
576.096	16.05
576.29	16.18
576.485	16.1
576.68	16.28
576.875	16.21
577.069	16.25
577.264	16.08
577.459	16
577.654	15.93
577.848	16.2
578.043	16.21
578.238	16.22
578.432	16
578.627	16.25
578.821	16.34
579.016	16.29
579.21	16.22
579.405	16.68
579.6	16.7
579.794	16.85
579.989	16.94
580.183	16.73
580.378	16.88
580.572	17.37
580.766	17.5
580.961	17.47
581.155	17.59
581.35	17.71
581.544	17.52
581.738	17.45
581.933	17.39
582.127	17.27
582.321	17.59
582.516	17.46
582.71	17.28
582.904	16.99
583.099	16.9
583.293	17.07
583.487	16.82
583.681	17.05
583.875	17.21
584.07	17.22
584.264	17.17
584.458	16.92
584.652	17.03
584.846	17.14
585.04	17.18
585.234	17.28
585.428	17.23
585.623	17.45
585.817	17.25
586.011	17.23
586.205	17.38
586.399	17.35
586.593	17.32
586.787	17.47
586.981	17.39
587.174	17.5
587.368	17.55
587.562	17.19
587.756	17.28
587.95	17.08
588.144	17.06
588.338	16.95
588.532	17.11
588.725	17.34
588.919	17.28
589.113	17.13
589.307	17.02
589.501	17.01
589.694	17.43
589.888	17.32
590.082	17.37
590.275	17.5
590.469	17.67
590.663	17.59
590.856	17.51
591.05	17.61
591.244	17.76
591.437	17.89
591.631	17.84
591.824	17.53
592.018	17.59
592.212	17.69
592.405	17.67
592.599	17.48
592.792	17.5
592.986	17.66
593.179	17.69
593.372	17.7
593.566	17.74
593.759	18.03
593.953	18.34
594.146	18.25
594.339	18.09
594.533	17.97
594.726	18.04
594.92	18.23
595.113	17.91
595.306	17.77
595.499	17.67
595.693	17.7
595.886	17.57
596.079	17.36
596.272	17.4
596.466	17.63
596.659	17.79
596.852	17.83
597.045	17.78
597.238	17.9
597.431	17.83
597.624	17.78
597.818	17.73
598.011	17.6
598.204	17.49
598.397	17.53
598.59	17.44
598.783	17.39
598.976	17.16
599.169	16.91
599.362	16.96
599.555	16.99
599.748	17.05
599.941	17.09
600.134	17.19
600.326	17.62
600.519	17.46
600.712	17.48
600.905	17.43
601.098	17.57
601.291	17.82
601.483	18.03
601.676	18.05
601.869	18.02
602.062	18.1
602.255	17.79
602.447	17.57
602.64	17.96
602.833	18.19
603.025	18.16
603.218	18.14
603.411	18.03
603.603	17.67
603.796	17.8
603.989	17.9
604.181	17.86
604.374	18.29
604.566	18.22
604.759	18.01
604.951	17.82
605.144	17.7
605.336	17.7
605.529	17.82
605.721	17.99
605.914	17.89
606.106	17.98
606.299	17.86
606.491	17.85
606.683	18.12
606.876	18.11
607.068	18.16
607.26	18.23
607.453	18.38
607.645	18.21
607.837	17.99
608.03	18.04
608.222	17.92
608.414	18.23
608.606	18.03
608.799	17.84
608.991	17.77
609.183	17.86
609.375	17.81
609.567	17.42
609.759	17.45
609.952	17.79
610.144	17.71
610.336	17.77
610.528	17.64
610.72	17.64
610.912	17.62
611.104	17.82
611.296	17.54
611.488	17.56
611.68	17.92
611.872	18.03
612.064	17.8
612.256	17.96
612.448	17.91
612.64	17.85
612.832	17.97
613.023	18.04
613.215	18.06
613.407	18.24
613.599	18.24
613.791	18.16
613.983	18.21
614.174	18.23
614.366	18.08
614.558	18.06
614.75	18.12
614.941	18.09
615.133	17.94
615.325	17.77
615.516	17.88
615.708	18.01
615.9	18.03
616.091	17.74
616.283	17.72
616.475	17.91
616.666	17.76
616.858	17.79
617.049	17.61
617.241	17.82
617.432	17.99
617.624	17.83
617.815	17.88
618.007	18.04
618.198	18.47
618.39	18.76
618.581	18.54
618.773	18.69
618.964	18.78
619.155	18.82
619.347	18.71
619.538	18.5
619.729	18.47
619.921	18.37
620.112	18.54
620.303	18.38
620.494	18.32
620.686	18.69
620.877	18.69
621.068	18.54
621.259	18.75
621.451	18.81
621.642	18.81
621.833	18.89
622.024	18.93
622.215	18.65
622.406	18.65
622.597	18.51
622.788	18.11
622.98	18.16
623.171	18.42
623.362	18.08
623.553	18.54
623.744	18.56
623.935	18.38
624.126	18.34
624.317	18.39
624.508	18.18
624.698	18.15
624.889	18.36
625.08	18.32
625.271	18.07
625.462	18.02
625.653	17.45
625.844	17.49
626.034	17.74
626.225	17.52
626.416	17.57
626.607	17.82
626.798	18.01
626.988	17.96
627.179	18.15
627.37	18.04
627.56	18.03
627.751	18.2
627.942	18.26
628.132	18.14
628.323	18.53
628.514	18.44
628.704	18.17
628.895	17.85
629.085	17.93
629.276	17.8
629.466	17.88
629.657	18.17
629.847	18.23
630.038	18.1
630.228	18.27
630.419	18.13
630.609	18.04
630.8	18.34
630.99	18.68
631.181	18.44
631.371	18.45
631.561	18.68
631.752	18.43
631.942	18.13
632.132	18.38
632.323	18.44
632.513	18.46
632.703	18.58
632.893	18.43
633.084	18.11
633.274	18.13
633.464	18.19
633.654	18.13
633.844	18.31
634.034	18.51
634.225	18.85
634.415	18.83
634.605	18.76
634.795	18.91
634.985	19.07
635.175	19.36
635.365	19.46
635.555	19.23
635.745	19.3
635.935	19.32
636.125	19.35
636.315	18.92
636.505	19
636.695	19.19
636.885	19.21
637.075	19.06
637.265	18.86
637.455	18.96
637.644	19.17
637.834	18.89
638.024	18.81
638.214	18.62
638.404	18.73
638.593	18.58
638.783	18.71
638.973	18.33
639.163	18.66
639.352	18.57
639.542	18.36
639.732	18.39
639.921	18.34
640.111	18.29
640.301	18.56
640.49	18.28
640.68	18.2
640.87	18.43
641.059	18.45
641.249	17.81
641.438	18.06
641.628	18.3
641.817	18.16
642.007	18.14
642.196	18.52
642.386	18.54
642.575	18.71
642.764	18.85
642.954	18.42
643.143	18.5
643.333	18.97
643.522	19.11
643.711	18.55
643.901	18.67
644.09	19.03
644.279	18.83
644.469	18.6
644.658	18.65
644.847	18.87
645.036	18.86
645.226	18.91
645.415	18.86
645.604	18.67
645.793	18.95
645.982	19.03
646.171	18.85
646.361	18.84
646.55	19.06
646.739	18.79
646.928	18.56
647.117	18.48
647.306	18.54
647.495	18.03
647.684	18.23
647.873	18.35
648.062	18.05
648.251	18.08
648.44	18.04
648.629	17.62
648.818	17.53
649.007	17.94
649.196	18.08
649.384	18.3
649.573	18.61
649.762	18.68
649.951	18.66
650.14	18.77
650.328	18.82
650.517	18.73
650.706	18.81
650.895	19.37
651.083	18.89
651.272	18.73
651.461	18.11
651.65	18.53
651.838	18.21
652.027	18.48
652.216	18.26
652.404	18.41
652.593	18.79
652.781	18.98
652.97	18.64
653.158	18.92
653.347	19.22
653.535	20.06
653.724	19.5
653.912	19.54
654.101	19.55
654.289	19.92
654.478	19.43
654.666	18.67
654.855	18.43
655.043	18.41
655.231	17.86
655.42	17.76
655.608	17.6
655.796	17.76
655.985	17.47
656.173	17.46
656.361	17.37
656.55	17.78
656.738	18.3
656.926	18.56
657.114	18.93
657.302	19.33
657.491	19.38
657.679	19.06
657.867	18.79
658.055	18.84
658.243	18.42
658.431	18.33
658.619	18.26
658.807	18.03
658.996	18
659.184	17.73
659.372	17.61
659.56	17.12
659.748	17.02
659.936	17.34
660.124	17.63
660.311	17.72
660.499	17.76
660.687	17.63
660.875	17.98
661.063	18.21
661.251	18.29
661.439	18.45
661.627	18.92
661.814	18.96
662.002	19
662.19	18.78
662.378	19.09
662.565	19.06
662.753	19
662.941	18.58
663.129	18.34
663.316	18.31
663.504	18.29
663.692	17.88
663.879	18.02
664.067	17.82
664.254	17.53
664.442	17.45
664.63	17.71
664.817	17.92
665.005	18.15
665.192	18.31
665.38	18.49
665.567	17.86
665.755	17.72
665.942	17.83
666.13	17.48
666.317	17.83
666.504	18.11
666.692	17.99
666.879	17.68
667.067	17.62
667.254	17.68
667.441	17.33
667.629	17.86
667.816	18.45
668.003	18.38
668.19	18.96
668.378	19.18
668.565	18.62
668.752	18.89
668.939	19.23
669.127	19.13
669.314	18.94
669.501	18.89
669.688	18.65
669.875	18.36
670.062	18.5
670.249	18.28
670.436	17.65
670.623	18.13
670.81	17.35
670.997	17.1
671.184	17.7
671.371	18.03
671.558	18.62
671.745	18.72
671.932	18.95
672.119	18.58
672.306	19.09
672.493	19.43
672.68	19.07
672.867	19.27
673.054	18.9
673.24	18.28
673.427	17.92
673.614	18.08
673.801	17.95
673.988	17.68
674.174	18.34
674.361	17.77
674.548	18.07
674.734	18.28
674.921	18.26
675.108	18.98
675.294	19.12
675.481	19.21
675.668	18.49
675.854	18.9
676.041	19.21
676.227	18.94
676.414	19.51
676.601	19.26
676.787	19.3
676.974	19.64
677.16	19.81
677.347	19.79
677.533	19.8
677.719	19.9
677.906	19.43
678.092	19.65
678.279	19.88
678.465	19.41
678.651	19.51
678.838	19.27
679.024	19.2
679.21	18.92
679.397	18.7
679.583	18.49
679.769	18.24
679.955	18.06
680.142	17.69
680.328	17.39
680.514	17.55
680.7	17.81
680.886	17.86
681.073	17.77
681.259	17.99
681.445	18.24
681.631	18.43
681.817	18.85
682.003	19.73
682.189	19.86
682.375	19.93
682.561	19.59
682.747	18.98
682.933	19.08
683.119	19.22
683.305	19.44
683.491	19.95
683.677	19.93
683.863	20.29
684.049	19.94
684.235	20.02
684.42	20.03
684.606	20.05
684.792	20.28
684.978	20.17
685.164	19.97
685.349	19.23
685.535	18.67
685.721	18.66
685.907	17.85
686.092	17.56
686.278	17.46
686.464	17.81
686.649	18.13
686.835	18.31
687.021	18.78
687.206	18.79
687.392	18.67
687.577	18.72
687.763	18.7
687.948	18.61
688.134	18.51
688.319	18.65
688.505	18.42
688.69	18.33
688.876	18.24
689.061	17.33
689.247	17.45
689.432	18.14
689.618	17.64
689.803	17.72
689.988	17.83
690.174	17.43
690.359	17.16
690.544	16.76
690.73	16.1
690.915	16.13
691.1	16.92
691.285	17.12
691.471	16.48
691.656	16.69
691.841	17.01
692.026	16.67
692.211	17.03
692.396	17.51
692.582	17.83
692.767	19.07
692.952	19.05
693.137	18.81
693.322	18.6
693.507	19.05
693.692	18.89
693.877	18.6
694.062	18.97
694.247	19.19
694.432	19.47
694.617	19.49
694.802	19.21
694.987	19.24
695.172	18.87
695.357	18.94
695.541	18.99
695.726	19.29
695.911	19.05
696.096	18.74
696.281	19.02
696.466	18.58
696.65	18.7
696.835	18.23
697.02	18.35
697.204	18.34
697.389	18.58
697.574	18.46
697.759	18.67
697.943	18.79
698.128	19.45
698.312	19.29
698.497	19.22
698.682	19.03
698.866	19.04
699.051	18.78
699.235	19.11
699.42	18.8
699.604	18.59
699.789	18.49
699.973	17.92
700.158	17.68
700.342	17.75
700.527	17.82
700.711	17.93
700.895	18.19
701.08	19.11
701.264	19.32
701.448	19.14
701.633	19.83
701.817	19.96
702.001	21.03
702.186	21.11
702.37	21.05
702.554	20.04
702.738	19.71
702.923	19.8
703.107	18.86
703.291	18.42
703.475	18.88
703.659	18.03
703.843	17.79
704.027	17.47
704.212	17.69
704.396	17.7
704.58	17.6
704.764	18.28
704.948	17.79
705.132	18.02
705.316	16.97
705.5	16.75
705.684	17.2
705.868	17.7
706.052	18.15
706.235	18
706.419	17.65
706.603	18.39
706.787	18.13
706.971	17.67
707.155	18.35
707.339	19.21
707.522	19.02
707.706	19.94
707.89	19.56
708.074	18.56
708.257	17.84
708.441	17.79
708.625	17.76
708.808	17.21
708.992	17.85
709.176	16.89
709.359	16.69
709.543	17.62
709.727	17.15
709.91	17.25
710.094	17.93
710.277	17.78
710.461	18.2
710.644	19.13
710.828	19.87
711.011	19.49
711.195	19.22
711.378	19.1
711.562	19.01
711.745	18.89
711.928	18.5
712.112	17.94
712.295	18.87
712.478	18.75
712.662	17.67
712.845	17.47
713.028	18.11
713.212	18.55
713.395	18.98
713.578	18.48
713.761	18.39
713.945	18.91
714.128	19.17
714.311	18.88
714.494	18.81
714.677	19.42
714.86	19.4
715.043	18.78
715.227	19.04
715.41	18.75
715.593	18.93
715.776	18.78
715.959	18.52
716.142	18.96
716.325	18.84
716.508	19.25
716.691	19.55
716.874	19.21
717.057	18.68
717.239	18.13
717.422	18.46
717.605	18.01
717.788	18.23
717.971	18.24
718.154	17.72
718.337	17.53
718.519	17.91
718.702	17.39
718.885	17.77
719.068	19.11
719.25	18.93
719.433	19.26
719.616	19.22
719.798	18.49
719.981	18.19
720.164	18.71
720.346	19.39
720.529	18.06
720.712	17.43
720.894	16.86
721.077	16.65
721.259	17.21
721.442	16.48
721.624	17.14
721.807	18.61
721.989	19.87
722.172	19.58
722.354	19.73
722.537	20.87
722.719	21.52
722.901	21.39
723.084	21.38
723.266	20.98
723.448	20.8
723.631	21.26
723.813	19.43
723.995	18.02
724.178	17.58
724.36	16.71
724.542	16.29
724.724	16.21
724.907	16.41
725.089	16.87
725.271	17.58
725.453	17.88
725.635	16.83
725.817	17.04
725.999	17.59
726.181	17.91
726.364	17.85
726.546	17.36
726.728	16.81
726.91	17.11
727.092	16.97
727.274	16.4
727.456	16.66
727.638	16.7
727.819	17.9
728.001	17.84
728.183	18.45
728.365	18.73
728.547	18.92
728.729	19.77
728.911	19.9
729.093	19.85
729.274	20.32
729.456	20.3
729.638	21
729.82	19.95
730.001	20.86
730.183	20.08
730.365	20.34
730.546	20.84
730.728	20.77
730.91	19.87
731.091	19.38
731.273	18.82
731.455	18.09
731.636	17.6
731.818	18.43
731.999	18.06
732.181	18.1
732.362	18.74
732.544	17.78
732.725	17.3
732.907	18.97
733.088	19.2
733.27	19.46
733.451	19.8
733.633	19.47
733.814	18.88
733.995	17.93
734.177	18.24
734.358	18.24
734.539	19.1
734.721	19.92
734.902	18.21
735.083	17.44
735.264	16.47
735.446	16.58
735.627	17.94
735.808	18.8
735.989	19.44
736.17	18.68
736.351	17.91
736.533	18.55
736.714	17.86
736.895	18.24
737.076	19.48
737.257	19.37
737.438	19.1
737.619	17.95
737.8	15.84
737.981	15.19
738.162	16.29
738.343	16.3
738.524	14.94
738.705	16.27
738.886	17.8
739.067	16.87
739.247	18.81
739.428	18.61
739.609	18.19
739.79	18.58
739.971	20.21
740.151	19.79
740.332	20.25
740.513	21.27
740.694	19.72
740.874	17.91
741.055	18.89
741.236	17.5
741.417	18.36
741.597	18.2
741.778	19.55
741.958	17.51
742.139	17.25
742.32	16.53
742.5	15.1
742.681	15.72
742.861	16.56
743.042	15.71
743.222	16.48
743.403	16.74
743.583	17.55
743.764	17.12
743.944	18.92
744.124	19.8
744.305	19.65
744.485	21.6
744.666	21.24
744.846	20.37
745.026	20.13
745.207	19.88
745.387	19.28
745.567	19.42
745.747	18.49
745.928	17.3
746.108	16.45
746.288	15.53
746.468	14.58
746.648	14.06
746.829	15.38
747.009	15.64
747.189	15.46
747.369	14.27
747.549	13.15
747.729	14.82
747.909	14.93
748.089	15.33
748.269	16.24
748.449	16.69
748.629	16.73
748.809	14.78
748.989	14.57
749.169	14.36
749.349	15.42
749.529	16.33
749.709	15.31
749.889	16.52
750.068	16.06
750.248	17.18
750.428	17.04
750.608	15.93
750.788	17.24
750.967	18.19
751.147	18.64
751.327	17.83
751.507	17.15
751.686	18.13
751.866	18.2
752.046	18
752.225	17.7
752.405	18.09
752.585	20.61
752.764	19.87
752.944	19.91
753.123	19.98
753.303	21.7
753.482	22.6
753.662	22.31
753.841	20.31
754.021	22.36
754.2	22.24
754.38	20.4
754.559	19.06
754.739	19.26
754.918	18.96
755.097	19.72
755.277	20.23
755.456	19.51
755.635	19.19
755.815	20.28
755.994	18.38
756.173	18.76
756.352	20.04
756.532	20.99
756.711	21.7
756.89	21.72
757.069	22.5
757.248	22.22
757.427	22.51
757.607	23.29
757.786	23.88
757.965	24.08
758.144	23.69
758.323	23.16
758.502	23.29
758.681	24.22
758.86	24.62
759.039	22.67
759.218	21.21
759.397	22.89
759.576	22.63
759.755	22.06
759.934	21.84
760.113	21.63
760.291	22.07
760.47	21.77
760.649	20.63
760.828	20.19
761.007	21.54
761.186	22
761.364	21.02
761.543	20.28
761.722	20.19
761.901	21.16
762.079	21.95
762.258	22.11
762.437	21.03
762.615	20.51
762.794	20.53
762.972	20.07
763.151	20.42
763.33	19.92
763.508	19.92
763.687	20.03
763.865	19.6
764.044	18.32
764.222	17.26
764.401	17.37
764.579	17.27
764.758	17.29
764.936	17.07
765.114	17.05
765.293	16.45
765.471	17.27
765.65	18.26
765.828	17.92
766.006	18.07
766.184	18.16
766.363	19.13
766.541	19.45
766.719	19.38
766.898	20.17
767.076	18.67
767.254	19.69
767.432	18.73
767.61	18.22
767.788	19.43
767.967	19.76
768.145	21.36
768.323	20.06
768.501	22.13
768.679	23.52
768.857	23.31
769.035	25.27
769.213	23.62
769.391	22.64
769.569	22.8
769.747	22.97
769.925	21.92
770.103	21.58
770.281	20.13
770.459	18.48
770.636	16.77
770.814	16.05
770.992	15.88
771.17	18.04
771.348	19.81
771.525	17.51
771.703	14.4
771.881	17.65
772.059	16.9
772.236	20.03
772.414	18.98
772.592	18.37
772.769	18.16
772.947	17.43
773.125	15.86
773.302	14.42
773.48	14.36
773.657	14.24
773.835	14.85
774.013	15.8
774.19	16.22
774.368	17.95
774.545	18.44
774.723	16.66
774.9	17.35
775.077	18.64
775.255	19.48
775.432	20.22
775.61	21.6
775.787	19.75
775.964	18.23
776.142	17.15
776.319	18.41
776.496	16.84
776.674	20.33
776.851	17.56
777.028	16.82
777.205	17.31
777.382	18.38
777.56	19.25
777.737	17.46
777.914	17.66
778.091	16.3
778.268	16.29
778.445	19.28
778.622	16.22
778.8	18.35
778.977	19.46
779.154	18.78
779.331	19.27
779.508	18.6
779.685	19.22
779.862	22.55
780.038	26.03
780.215	23.29
780.392	22.56
780.569	23.14
780.746	22.72
780.923	22
781.1	23.05
781.277	22.41
781.453	21.9
781.63	22.84
781.807	17.64
781.984	16.58
782.16	16.71
782.337	15.74
782.514	15.47
782.691	16.02
782.867	15.83
783.044	14.9
783.221	15.39
783.397	15.33
783.574	17.58
783.75	22.88
783.927	21.02
784.103	23.25
784.28	26.18
784.456	27.37
784.633	29.81
784.809	29.31
784.986	28.87
785.162	26.35
785.339	27.48
785.515	26.31
785.692	23.35
785.868	23.37
786.044	21.01
786.221	18.24
786.397	17.91
786.573	17.1
786.749	19.13
786.926	18.48
787.102	20.71
787.278	20.87
787.454	19.53
787.631	18.42
787.807	19.13
787.983	18.67
788.159	19.19
788.335	17.96
788.511	18.3
788.687	16.97
788.863	14.47
789.039	16.9
789.216	17.62
789.392	17.59
789.568	18.42
789.744	18.3
789.919	19.54
790.095	20.28
790.271	20.73
790.447	18.5
790.623	19.34
790.799	21.78
790.975	17.41
791.151	14.41
791.327	12.75
791.502	13.67
791.678	14.08
791.854	12.57
792.03	10
792.205	10.13
792.381	9.96
792.557	10.12
792.733	12.57
792.908	11.62
793.084	14.92
793.259	17.17
793.435	17.14
793.611	16.03
793.786	16.37
793.962	18.28
794.137	16.6
794.313	18.89
794.488	20.77
794.664	20.86
794.839	20.71
795.015	17.92
795.19	19.18
795.366	16.5
795.541	16.37
795.716	17.17
795.892	16.67
796.067	21.38
796.242	19.99
796.418	19.01
796.593	17.02
796.768	16.7
796.944	19.99
797.119	22.19
797.294	24.57
797.469	26.5
797.644	26.52
797.82	28.1
797.995	30.07
798.17	30.05
798.345	30.78
798.52	32.91
798.695	32.13
798.87	32.11
799.045	30.01
799.22	29.42
799.395	25.3
799.57	24.34
799.745	23.66
799.92	20.88
800.095	19.7
800.27	19.09
800.445	17
800.62	20.31
800.795	15.95
800.97	13.28
801.145	14.35
801.319	15.01
801.494	15.2
801.669	13.81
801.844	13.09
802.018	18.03
802.193	18.34
802.368	18.43
802.543	16.72
802.717	21.85
802.892	23.39
803.067	25.71
803.241	27.19
803.416	27.73
803.59	28.95
803.765	25.91
803.94	22.51
804.114	25.32
804.289	25.37
804.463	24.17
804.638	20.44
804.812	19.35
804.986	15.93
805.161	18.52
805.335	19.57
805.51	18.33
805.684	19.44
805.858	19.73
806.033	14.64
806.207	14.67
806.381	19.11
806.556	20.8
806.73	24.87
806.904	24.41
807.078	28.28
807.253	27.72
807.427	27.07
807.601	27.75
807.775	28.92
807.949	28.23
808.123	27.8
808.298	25
808.472	24.34
808.646	22.3
808.82	20.01
808.994	13.68
809.168	18.27
809.342	20.18
809.516	22.26
809.69	20.62
809.864	20.21
810.038	18.17
810.212	17.82
810.385	19.08
810.559	21.99
810.733	26.8
810.907	20.91
811.081	18.03
811.255	16.74
811.428	18.6
811.602	14.06
811.776	15.45
811.95	21
812.123	25.99
812.297	31.05
812.471	27.22
812.644	26.19
812.818	33.24
812.992	33.66
813.165	32.85
813.339	29.55
813.512	35.71
813.686	35.91
813.86	29.42
814.033	25.84
814.207	18.24
814.38	22.96
814.554	19.29
814.727	14.34
814.9	17.77
815.074	13.61
815.247	11.46
815.421	10.52
815.594	12.44
815.767	16.18
815.941	14.8
816.114	15.11
816.287	11.46
816.46	11.87
816.634	13.35
816.807	8.07
816.98	12.98
817.153	15.88
817.327	17.69
817.5	9.56
817.673	5.9
817.846	8.12
818.019	3.1
818.192	5.45
818.365	6.66
818.538	8.89
818.711	5.63
818.884	9.17
819.057	5.5
819.23	-0.39
819.403	3.94
819.576	8.02
819.749	7.68
819.922	10.15
820.095	11.24
820.268	13.3
820.441	12.99
820.614	15.3
820.786	11.36
820.959	14.79
821.132	17.1
821.305	18.05
821.477	18.29
821.65	18.74
821.823	20.37
821.996	19.61
822.168	19.95
822.341	21.36
822.514	20.83
822.686	21.74
822.859	22.01
823.031	21.48
823.204	21.19
823.376	20.76
823.549	21.11
823.722	21.29
823.894	21.76
824.067	21.42
824.239	20.03
824.411	20.02
824.584	18.96
824.756	18.66
824.929	18.74
825.101	19.5
825.273	20.29
825.446	20.49
825.618	20.94
825.79	18.98
825.963	19.28
826.135	21.41
826.307	22.36
826.479	22.86
826.652	21.53
826.824	22.96
826.996	22.6
827.168	21.88
827.34	20.42
827.512	17.95
827.684	18.98
827.856	18.36
828.029	15.25
828.201	13.04
828.373	14.51
828.545	15.61
828.717	13.9
828.889	11.76
829.061	11.84
829.232	11.55
829.404	12.62
829.576	13.18
829.748	12.72
829.92	15.72
830.092	18.99
830.264	17.41
830.436	17.27
830.607	17.02
830.779	18.03
830.951	18.3
831.123	20.36
831.294	18.6
831.466	17.25
831.638	17.52
831.809	14.27
831.981	14.21
832.153	19.62
832.324	16.69
832.496	16.28
832.667	17.72
832.839	16.54
833.011	18.29
833.182	20.48
833.354	23.93
833.525	22.99
833.697	22.53
833.868	19.67
834.039	15.83
834.211	18.45
834.382	19.26
834.554	18.83
834.725	18.93
834.896	17.31
835.068	19.38
835.239	17.6
835.41	19.3
835.581	21.49
835.753	23.59
835.924	23.07
836.095	21.22
836.266	21.35
836.438	21.99
836.609	24.13
836.78	24.38
836.951	22.67
837.122	26.2
837.293	24.1
837.464	22.37
837.635	22.82
837.806	24.88
837.977	29.02
838.148	31.82
838.319	31.14
838.49	29.63
838.661	31.06
838.832	30.32
839.003	23.92
839.174	21.15
839.345	20.96
839.516	21.48
839.687	24.07
839.857	22.63
840.028	19.28
840.199	25.7
840.37	25.99
840.54	27.29
840.711	28.35
840.882	31.58
841.053	36.02
841.223	37.46
841.394	33.47
841.564	27.21
841.735	27.18
841.906	24.83
842.076	16.77
842.247	14.2
842.417	14.14
842.588	10.73
842.758	12.32
842.929	14.15
843.099	12.9
843.27	5.4
843.44	4.09
843.611	-6.19
843.781	-3.93
843.951	4.03
844.122	7.66
844.292	-5.39
844.462	3.63
844.633	7.09
844.803	5.6
844.973	-13.87
845.144	4.18
845.314	10.4
845.484	24.17
845.654	24.46
845.824	25.32
845.995	25.87
846.165	38.3
846.335	30.09
846.505	21.77
846.675	16.15
846.845	22.31
847.015	16.55
847.185	17.21
847.355	10.71
847.525	5.96
847.695	6.67
847.865	-13.11
848.035	-7.61
848.205	-8.34
848.375	0.37
848.545	4.89
848.715	5.74
848.884	0.3
849.054	-9.19
849.224	-27.71
849.394	-25.1
849.564	-32.36
849.733	-15.31
849.903	-57.69
850.073	-48.92
850.243	-78.56
850.412	-60.68
850.582	-65.19
850.752	-70.94
850.921	-12.59
851.091	10.95
851.26	-0.04
851.43	-10.74
851.599	-13.66
851.769	-2.91
851.939	-5.17
852.108	0.53
852.278	-7.01
852.447	0.94
852.616	7.84
852.786	-8.45
852.955	-8.94
853.125	-15.54
853.294	-5.6
853.463	4.62
853.633	-5.53
853.802	-11.14
853.971	5.09
854.141	16.21
854.31	3.19
854.479	1.29
854.648	5.37
854.818	-2.92
854.987	23.52
855.156	12.51
855.325	22.27
855.494	23.94
855.663	28.55
855.832	10.49
856.001	24.21
856.171	20.88
856.34	23.93
856.509	24.41
856.678	33.02
856.847	3.95
857.016	31.97
857.185	17.95
857.353	25.69
857.522	30.6
857.691	24.76
857.86	20.59
858.029	30.02
858.198	25.31
858.367	19.74
858.535	15.34
858.704	15.81
858.873	5.97
859.042	-1.18
859.21	-13.33
859.379	-8.16
859.548	-4.62
859.717	-26.49
859.885	-10.15
860.054	-4.21
860.222	1.12
860.391	3.09
860.56	12.92
860.728	18.05
860.897	22.76
861.065	31.43
861.234	20.86
861.402	17.68
861.571	29.85
861.739	30.9
861.908	30.22
862.076	42.41
862.244	41.94
862.413	39.67
862.581	21.69
862.749	16.25
862.918	9.76
863.086	29.02
863.254	30.17
863.423	14.3
863.591	-39.22
863.759	-35.62
863.927	-71.31
864.096	-79.38
864.264	-42.77
864.432	-27.84
864.6	-31.9
864.768	-58.51
864.936	-129.44
865.104	-59.11
865.272	-48.2
865.44	-5.48
865.608	-2.46
865.776	8.82
865.944	10.62
866.112	-2.71
866.28	1.97
866.448	3.71
866.616	7.66
866.784	17.4
866.952	19.62
867.12	24.16
867.288	15.83
867.455	16.69
867.623	16.03
867.791	8.26
867.959	15.34
868.127	17.58
868.294	17.02
868.462	28.61
868.63	29.61
868.797	10.18
868.965	18.29
869.133	21.26
869.3	27.75
869.468	18.01
869.636	27.86
869.803	37.9
869.971	38.5
870.138	38.71
870.306	33.39
870.473	29.59
870.641	50.67
870.808	39.8
870.975	40.15
871.143	23.68
871.31	39.5
871.478	19.96
871.645	18.11
871.812	-1.25
871.98	-11
872.147	6.65
872.314	14.62
872.482	1.74
872.649	20.14
872.816	33.78
872.983	44.5
873.15	50.02
873.318	55.99
873.485	37.68
873.652	26.23
873.819	42.31
873.986	30.7
874.153	29.82
874.32	48.36
874.487	34.64
874.654	13.87
874.821	-1.71
874.988	-33.87
875.155	-71.51
875.322	-51.75
875.489	-45.55
875.656	-42.12
875.823	-63.43
875.99	-54.21
876.157	-73.21
876.324	-65.73
876.49	-63.02
876.657	-55.32
876.824	-35.77
876.991	-25.59
877.157	-21.86
877.324	1.25
877.491	12.54
877.658	17.79
877.824	16.4
877.991	22.96
878.157	11.66
878.324	1.58
878.491	-15.85
878.657	-24.54
878.824	-23.02
878.99	-23.64
879.157	-60.2
879.323	-127.33
879.49	-134.78
879.656	-158.85
879.823	-220.91
879.989	-124.54
880.156	-145.38
880.322	-51.36
880.488	-6.25
880.655	-23.17
880.821	-45.66
880.987	-65.53
881.154	-50.39
881.32	-20.92
881.486	1.27
881.652	11.06
881.819	3.63
881.985	9.91
882.151	1.99
882.317	4.9
882.483	9.68
882.649	15.62
882.816	19.49
882.982	22.91
883.148	22.43
883.314	17.87
883.48	18.57
883.646	18.61
883.812	19.08
883.978	19.08
884.144	19.86
884.31	18.37
884.476	17.49
884.642	18.22
884.807	16.03
884.973	17.83
885.139	17.99
885.305	14.83
885.471	13.38
885.637	9.81
885.802	12.76
885.968	12.77
886.134	16.71
886.3	15.98
886.465	16.73
886.631	21.92
886.797	20.97
886.962	27.92
887.128	39.54
887.293	42.28
887.459	40.54
887.625	43.3
887.79	42.34
887.956	28.11
888.121	32.88
888.287	25.69
888.452	20.92
888.618	19.59
888.783	6.48
