Data from 2937894_Reflection_1.txt Node
Date: Wed Jul 15 13:56:50 EDT 2015
User: robert
Spectrometer: USB4E03001
Autoset integration time: false
Trigger mode: 4
Integration Time (sec): 1.000000E-1
Scans to average: 10
Electric dark correction enabled: true
Nonlinearity correction enabled: false
Boxcar width: 5
Stray light correction enabled: false
XAxis mode: Wavelengths
Stop averaging: false
Number of Pixels in Spectrum: 3648
>>>>>Begin Spectral Data<<<<<
177.566	7.36
177.785	124.94
178.005	-34.46
178.225	5.63
178.445	-24.18
178.665	-85.11
178.885	65.51
179.105	19.82
179.324	24.44
179.544	81.61
179.764	58.48
179.984	50.83
180.204	93.09
180.423	117.73
180.643	86.06
180.863	87.33
181.083	78.52
181.302	101.5
181.522	69.98
181.742	8.96
181.961	169.68
182.181	156.91
182.401	32.91
182.621	25.22
182.84	91.36
183.06	123.3
183.279	125.51
183.499	87.65
183.719	261.08
183.938	247.06
184.158	88.41
184.377	82.36
184.597	95.02
184.816	42.94
185.036	31.63
185.256	44.79
185.475	42.08
185.695	49.49
185.914	71.07
186.134	94.65
186.353	10.63
186.572	30.67
186.792	15.43
187.011	-78.65
187.231	-51.46
187.45	-259.55
187.67	-50.93
187.889	-97.27
188.108	-58.75
188.328	-44.4
188.547	-46.95
188.766	-89.98
188.986	-29.13
189.205	-59.64
189.424	-4.72
189.644	-12.22
189.863	24.29
190.082	6.11
190.302	254.48
190.521	-187.56
190.74	-60.45
190.959	37.97
191.178	12.87
191.398	35.16
191.617	12.37
191.836	-211.11
192.055	-20.92
192.274	1.05
192.494	-9.36
192.713	-75.66
192.932	-25.86
193.151	6.66
193.37	24.1
193.589	17.02
193.808	28.93
194.027	-41.13
194.246	460.08
194.465	2711.19
194.685	1607.22
194.904	502.82
195.123	293.22
195.342	199.93
195.561	288.78
195.78	219.56
195.999	158.32
196.218	138.28
196.436	168.28
196.655	-21300
196.874	71.67
197.093	192.52
197.312	-68.86
197.531	-114.49
197.75	-147.04
197.969	-1549.22
198.188	-563.14
198.407	-162.03
198.625	-25.17
198.844	-8.68
199.063	-43.41
199.282	-99.86
199.501	96.28
199.719	534.55
199.938	299.57
200.157	1049.47
200.376	672.27
200.594	1791.06
200.813	-409.98
201.032	-199.95
201.251	-140.74
201.469	1283.72
201.688	518.64
201.907	341.95
202.125	-168.32
202.344	-93.96
202.563	95.89
202.781	153.59
203	314.09
203.218	412.18
203.437	-15.02
203.656	91.48
203.874	36.31
204.093	-81.69
204.311	-23.11
204.53	-142.53
204.748	-196.37
204.967	5551.33
205.185	958.57
205.404	-4797.76
205.622	279.46
205.841	174.2
206.059	98.68
206.278	553.88
206.496	156.57
206.715	97.68
206.933	42.9
207.151	-402.18
207.37	8982.35
207.588	-292
207.806	241.44
208.025	78.34
208.243	-59.64
208.461	-186.28
208.68	110.31
208.898	27.79
209.116	27.03
209.335	1.23
209.553	43.19
209.771	30.32
209.989	6.58
210.208	48.01
210.426	68.13
210.644	82.77
210.862	107.45
211.081	107.35
211.299	132.54
211.517	121.89
211.735	178.99
211.953	124.19
212.171	96.47
212.39	105.65
212.608	57.38
212.826	49.59
213.044	21.67
213.262	1.53
213.48	-3.02
213.698	25.37
213.916	-3.04
214.134	-24.16
214.352	0.8
214.57	41.31
214.788	69.73
215.006	108.11
215.224	87.7
215.442	83.23
215.66	121.9
215.878	116.77
216.096	247.67
216.314	641.15
216.532	-739.43
216.75	330.65
216.968	189.19
217.185	217.5
217.403	292.06
217.621	465.03
217.839	-96.11
218.057	-122.75
218.275	-126.68
218.492	295.15
218.71	-71.87
218.928	-384.44
219.146	548.91
219.363	560.94
219.581	-5266.67
219.799	-163.98
220.017	-221.38
220.234	-119.39
220.452	-57.49
220.67	-137.58
220.887	-33.47
221.105	-324.32
221.323	-58.03
221.54	-29.3
221.758	30.51
221.976	194.48
222.193	42.78
222.411	78.9
222.629	94.36
222.846	145.79
223.064	141.31
223.281	50.69
223.499	50.63
223.716	73.03
223.934	55.3
224.151	42.82
224.369	-79.23
224.586	-24.84
224.804	-167.1
225.021	-148.24
225.239	-129.98
225.456	-86.08
225.674	-16.89
225.891	-96.13
226.108	-73.7
226.326	-42.27
226.543	-26.4
226.76	4.57
226.978	-8.88
227.195	-6.98
227.413	-0.27
227.63	2.43
227.847	11.65
228.064	7.08
228.282	13.84
228.499	18.37
228.716	24.83
228.934	21.58
229.151	20.57
229.368	24.97
229.585	27.27
229.802	28.39
230.02	28.57
230.237	25.78
230.454	22.81
230.671	22.87
230.888	24.35
231.105	18.15
231.323	18.27
231.54	17.88
231.757	19.95
231.974	19.49
232.191	13.49
232.408	7.93
232.625	16.14
232.842	34.52
233.059	35.22
233.276	36.62
233.493	44.15
233.71	49.24
233.927	50.73
234.144	47.23
234.361	39.78
234.578	42.49
234.795	42.05
235.012	27.06
235.229	25.06
235.446	27.2
235.663	26.78
235.879	27.76
236.096	22.95
236.313	14.17
236.53	10.91
236.747	17.01
236.964	25.55
237.181	31.86
237.397	40.3
237.614	34.93
237.831	34.02
238.048	35.91
238.264	31.24
238.481	34.58
238.698	39.01
238.915	41.37
239.131	28.38
239.348	23.78
239.565	24.39
239.781	25.01
239.998	30.54
240.215	31.59
240.431	28.29
240.648	31.97
240.865	33.15
241.081	30.77
241.298	27.03
241.514	32
241.731	28.77
241.947	25.1
242.164	24.9
242.38	23.88
242.597	25.12
242.814	23.69
243.03	23.01
243.246	22.83
243.463	22.3
243.679	22.71
243.896	21.93
244.112	23.13
244.329	23.88
244.545	22.7
244.762	22.57
244.978	21.11
245.194	22.95
245.411	21.22
245.627	18.85
245.843	20.54
246.06	19.39
246.276	18.01
246.492	16.6
246.709	15.77
246.925	16.15
247.141	16.35
247.357	14.68
247.574	14.24
247.79	14.81
248.006	15.25
248.222	14.88
248.439	14.96
248.655	14.32
248.871	13.89
249.087	14.46
249.303	13.05
249.519	10.73
249.736	12.22
249.952	10.43
250.168	7.77
250.384	7.18
250.6	6.29
250.816	4.85
251.032	6.03
251.248	8.13
251.464	8.3
251.68	11.63
251.896	14.3
252.112	12.31
252.328	13.43
252.544	13.63
252.76	11.32
252.976	13.49
253.192	15.18
253.408	16.15
253.624	17.84
253.84	16.24
254.056	12.25
254.272	10.61
254.487	12.55
254.703	12.64
254.919	13.81
255.135	17.49
255.351	14.25
255.567	12.57
255.782	12.55
255.998	12.15
256.214	10.67
256.43	12.55
256.646	13.22
256.861	9.25
257.077	6.89
257.293	7.47
257.508	7.36
257.724	8.44
257.94	7.65
258.155	8.2
258.371	9.26
258.587	10.77
258.802	11.94
259.018	11.91
259.234	12.48
259.449	13.25
259.665	13.68
259.88	13.36
260.096	12.72
260.312	13.1
260.527	12.45
260.743	10.6
260.958	10.19
261.174	9.6
261.389	9.24
261.605	7.87
261.82	7.45
262.036	6.9
262.251	7.59
262.466	6.72
262.682	3.77
262.897	4.86
263.113	7.14
263.328	8.15
263.543	6.52
263.759	5.11
263.974	7.13
264.189	7.11
264.405	4.84
264.62	3.83
264.835	3.04
265.051	5.36
265.266	3.93
265.481	3.95
265.696	5.1
265.912	7.3
266.127	8.24
266.342	8.56
266.557	8
266.773	7.57
266.988	6.16
267.203	9.37
267.418	11.89
267.633	14.09
267.848	13.36
268.064	14.53
268.279	13.22
268.494	12.76
268.709	13.62
268.924	13.98
269.139	16.13
269.354	17.14
269.569	15.24
269.784	14.02
269.999	13.43
270.214	12.4
270.429	11.18
270.644	13.58
270.859	15.67
271.074	14.79
271.289	15.81
271.504	14.75
271.719	14.93
271.934	14.68
272.149	13.73
272.363	11.95
272.578	12.69
272.793	13.97
273.008	12.34
273.223	11.12
273.438	12.98
273.653	12.7
273.867	11.64
274.082	11.05
274.297	12.41
274.512	12.09
274.726	13.5
274.941	13.23
275.156	11.37
275.371	14.61
275.585	14.14
275.8	12.19
276.015	12.6
276.229	14.35
276.444	15
276.659	13.56
276.873	14.91
277.088	14.51
277.302	14.97
277.517	15.2
277.732	13.12
277.946	11.3
278.161	13.32
278.375	10.04
278.59	9.36
278.804	8.47
279.019	8.58
279.233	8.73
279.448	7.33
279.662	8.14
279.877	6.02
280.091	7.22
280.306	9.64
280.52	7.67
280.735	9.72
280.949	9.18
281.163	9.28
281.378	10.21
281.592	10.55
281.806	11.47
282.021	10.86
282.235	12.97
282.449	13.28
282.664	12.97
282.878	13.45
283.092	15.16
283.307	14.51
283.521	15.79
283.735	17.11
283.949	17.59
284.164	17.97
284.378	17.62
284.592	17.87
284.806	16.86
285.02	16.96
285.234	16.41
285.449	14.42
285.663	15.4
285.877	15.03
286.091	13.13
286.305	13.07
286.519	13.67
286.733	14.03
286.947	13.83
287.161	13.8
287.375	14.94
287.589	14.91
287.803	16.13
288.017	16.56
288.231	15.2
288.445	14
288.659	13.99
288.873	14.72
289.087	14.54
289.301	12.55
289.515	12.43
289.729	11.75
289.943	11.46
290.157	10.16
290.371	8.69
290.584	10.94
290.798	12.19
291.012	12.81
291.226	11.08
291.44	12.02
291.654	14.43
291.867	15.31
292.081	14.31
292.295	14.23
292.509	15.36
292.722	17.97
292.936	17.2
293.15	17.63
293.364	15.46
293.577	13.96
293.791	14
294.005	12.79
294.218	13.01
294.432	15.09
294.645	16
294.859	15.09
295.073	13.63
295.286	12.14
295.5	11.15
295.713	11.71
295.927	13.76
296.14	13.43
296.354	13.21
296.568	13.62
296.781	12.88
296.994	13.19
297.208	13.5
297.421	14.2
297.635	14.31
297.848	15.42
298.062	15.61
298.275	14.84
298.489	14.01
298.702	14.63
298.915	12.82
299.129	11.96
299.342	11.37
299.555	11
299.769	10.68
299.982	9.88
300.195	10.5
300.409	11.21
300.622	12.94
300.835	12.67
301.048	11.59
301.262	13.35
301.475	14.68
301.688	14.6
301.901	14.25
302.115	14.59
302.328	14.97
302.541	16.29
302.754	14.71
302.967	14.49
303.18	15.06
303.393	15.18
303.607	15.1
303.82	15.71
304.033	16.73
304.246	16.77
304.459	16.38
304.672	18.36
304.885	16.12
305.098	16.62
305.311	16.04
305.524	18.56
305.737	18.05
305.95	17.41
306.163	16.25
306.376	15.15
306.589	17.45
306.802	16.59
307.015	14.58
307.228	14.98
307.44	14.19
307.653	13.47
307.866	10.55
308.079	10.99
308.292	10.69
308.505	11.61
308.718	13.27
308.93	12.57
309.143	13.72
309.356	13.45
309.569	13.21
309.781	13.51
309.994	13.87
310.207	15.16
310.42	15.36
310.632	16.47
310.845	15.58
311.058	15.45
311.27	14.49
311.483	13.7
311.696	14.31
311.908	15.22
312.121	14.87
312.333	14.38
312.546	14.09
312.759	15.86
312.971	16.74
313.184	18.31
313.396	17.47
313.609	18.12
313.821	18.59
314.034	17.73
314.246	16.58
314.459	18.85
314.671	20.79
314.884	20.26
315.096	17.06
315.309	15.02
315.521	14.07
315.733	14.08
315.946	13.49
316.158	12.59
316.371	15.18
316.583	14.91
316.795	13.62
317.008	11.86
317.22	11.76
317.432	15.59
317.644	15.88
317.857	14.75
318.069	14.08
318.281	14.79
318.494	17.3
318.706	15.99
318.918	16.88
319.13	17.43
319.342	17.82
319.555	18.1
319.767	16.34
319.979	16.4
320.191	16.22
320.403	15.95
320.615	17.63
320.827	14.68
321.039	15.26
321.252	13.01
321.464	13.59
321.676	14.88
321.888	14.39
322.1	14.48
322.312	14.52
322.524	14.92
322.736	15.6
322.948	13.93
323.16	15.04
323.372	15.83
323.584	17.78
323.796	16.36
324.007	16.26
324.219	17.23
324.431	16.82
324.643	17.16
324.855	19.18
325.067	16.44
325.279	16.17
325.491	16.5
325.702	16.3
325.914	16.13
326.126	17.14
326.338	16.96
326.55	15.86
326.761	14.61
326.973	14.55
327.185	11.27
327.396	13.61
327.608	13.33
327.82	13.13
328.032	11.01
328.243	11.5
328.455	10
328.666	9.6
328.878	8.94
329.09	10.75
329.301	9.78
329.513	10.58
329.725	10.3
329.936	11.13
330.148	11.8
330.359	14.01
330.571	13.82
330.782	13.9
330.994	12.25
331.205	14.07
331.417	14.99
331.628	15.55
331.84	16.81
332.051	17.15
332.262	17.47
332.474	17.72
332.685	16.4
332.897	16.1
333.108	16.51
333.319	18.19
333.531	18.01
333.742	17.25
333.953	17.91
334.165	16.77
334.376	17.23
334.587	16.52
334.799	15.71
335.01	17.19
335.221	16.26
335.432	16.68
335.644	16.27
335.855	16.43
336.066	17.37
336.277	17.72
336.488	20.04
336.7	19.89
336.911	20.44
337.122	21.38
337.333	21.2
337.544	21.08
337.755	21.36
337.966	21.25
338.177	19.96
338.388	18.93
338.599	17.65
338.811	16.05
339.022	15.64
339.233	15.55
339.444	14.26
339.655	12.97
339.866	13.24
340.076	12.45
340.287	12.7
340.498	15.31
340.709	15.33
340.92	16.33
341.131	15.31
341.342	14.77
341.553	14.75
341.764	14.98
341.975	15.05
342.185	15.51
342.396	15.26
342.607	15.42
342.818	13.59
343.029	13.28
343.239	12.74
343.45	12.75
343.661	13.89
343.872	13.32
344.082	12.73
344.293	12.1
344.504	12.89
344.714	13.62
344.925	12.85
345.136	12.68
345.346	12.85
345.557	13.04
345.768	13.7
345.978	13.13
346.189	14.52
346.399	13.66
346.61	13.97
346.821	12.89
347.031	12.39
347.242	11.76
347.452	12.42
347.663	13.28
347.873	11.52
348.084	11.16
348.294	11.53
348.504	9.45
348.715	9.42
348.925	10.04
349.136	10.73
349.346	10.26
349.557	10.95
349.767	10.55
349.977	10.67
350.188	11.85
350.398	12.71
350.608	13.6
350.819	14.55
351.029	15.91
351.239	16.95
351.449	16.04
351.66	14.98
351.87	14.42
352.08	14.31
352.29	13.89
352.501	14.37
352.711	14.9
352.921	13.29
353.131	13.07
353.341	12.43
353.552	10.1
353.762	10.25
353.972	11.54
354.182	11.54
354.392	10.59
354.602	10.87
354.812	11
355.022	9.84
355.232	11.17
355.442	11.75
355.652	12.56
355.862	14.14
356.072	14.42
356.282	15.12
356.492	15.52
356.702	16.25
356.912	14.72
357.122	14.4
357.332	14.72
357.542	13.16
357.752	13.15
357.962	12.39
358.171	12.64
358.381	12.51
358.591	11.59
358.801	11.55
359.011	11.51
359.221	12.25
359.43	11.98
359.64	11.44
359.85	11.66
360.06	10.7
360.269	10.56
360.479	9.64
360.689	9.48
360.899	10.06
361.108	10.39
361.318	10.11
361.528	9.9
361.737	10.06
361.947	10.24
362.156	10.68
362.366	11.15
362.576	11.92
362.785	11.93
362.995	12.97
363.204	12.57
363.414	12.65
363.623	13.28
363.833	13.28
364.042	12.85
364.252	12.64
364.461	12.18
364.671	12.04
364.88	12.06
365.09	12.79
365.299	11.49
365.509	10.87
365.718	10.79
365.927	10.86
366.137	10.81
366.346	10.44
366.555	10.4
366.765	10.06
366.974	10.09
367.183	9.84
367.393	9.84
367.602	10.08
367.811	10.24
368.021	9.66
368.23	9.42
368.439	9.43
368.648	10.11
368.857	10.1
369.067	10.66
369.276	10.18
369.485	9.95
369.694	8.57
369.903	9.04
370.112	9.64
370.321	9.18
370.531	10.15
370.74	10.21
370.949	9.3
371.158	9.95
371.367	9.61
371.576	10.02
371.785	9.91
371.994	10.78
372.203	9.57
372.412	9.55
372.621	9.86
372.83	8.46
373.039	8.84
373.248	9.89
373.457	9.23
373.666	10.44
373.874	10.93
374.083	10.36
374.292	9.4
374.501	10.32
374.71	9.58
374.919	9.66
375.128	10.69
375.336	9.45
375.545	9.26
375.754	10.42
375.963	10.32
376.171	9.26
376.38	9.59
376.589	10.62
376.798	10.17
377.006	10.48
377.215	10.25
377.424	9.25
377.632	10.06
377.841	9.86
378.05	8.9
378.258	8.44
378.467	8.84
378.675	9.07
378.884	9.24
379.093	9.39
379.301	9.51
379.51	9.78
379.718	10.17
379.927	10.35
380.135	9.78
380.344	10.05
380.552	10.43
380.761	10.49
380.969	10.5
381.177	10.12
381.386	9.8
381.594	9.74
381.803	9.57
382.011	9.41
382.219	8.83
382.428	9.49
382.636	9.75
382.845	9.57
383.053	9.13
383.261	8.59
383.469	8.47
383.678	8.9
383.886	8.59
384.094	8.46
384.302	7.91
384.511	7.99
384.719	7.84
384.927	7.01
385.135	6.87
385.343	6.49
385.552	6.63
385.76	5.79
385.968	5.66
386.176	6.13
386.384	6.13
386.592	6.6
386.8	7.14
387.008	7.31
387.216	8.19
387.424	7.94
387.633	8.51
387.841	8.59
388.049	9.41
388.257	8.85
388.465	8.37
388.672	8.81
388.88	8.66
389.088	8.5
389.296	7.93
389.504	7.39
389.712	7.83
389.92	7.02
390.128	7.24
390.336	6.96
390.544	7.12
390.751	7.33
390.959	7.13
391.167	7.52
391.375	7.37
391.583	7.75
391.79	7.89
391.998	6.8
392.206	7.39
392.414	7.26
392.621	7.46
392.829	7.63
393.037	7.62
393.244	7.49
393.452	7.21
393.66	6.68
393.867	6.55
394.075	5.99
394.283	6.48
394.49	6.53
394.698	6.51
394.905	6.24
395.113	6.26
395.32	6.05
395.528	5.98
395.735	5.73
395.943	5.86
396.15	5.44
396.358	5.77
396.565	5.72
396.773	5.17
396.98	5.26
397.188	5.32
397.395	4.96
397.602	4.87
397.81	4.66
398.017	4.94
398.225	4.95
398.432	5.09
398.639	4.84
398.847	4.89
399.054	5.22
399.261	5.15
399.468	5.21
399.676	5.51
399.883	5.39
400.09	5.54
400.297	5.17
400.505	5
400.712	5
400.919	5
401.126	4.63
401.333	4.39
401.54	4.14
401.748	4.1
401.955	4.03
402.162	4.22
402.369	4.11
402.576	4.37
402.783	4.73
402.99	4.91
403.197	5.24
403.404	5.93
403.611	6.23
403.818	5.99
404.025	6.05
404.232	6.06
404.439	5.91
404.646	6.26
404.853	6.48
405.06	6.34
405.267	6.75
405.474	6.53
405.681	6.45
405.887	6.39
406.094	6.75
406.301	6.64
406.508	6.54
406.715	6.8
406.922	6.57
407.128	6.27
407.335	6.43
407.542	6.3
407.749	6.2
407.955	5.99
408.162	5.78
408.369	5.83
408.575	5.63
408.782	5.6
408.989	5.5
409.195	5.05
409.402	4.74
409.609	4.32
409.815	3.94
410.022	4.43
410.228	4.51
410.435	4.99
410.642	4.66
410.848	5
411.055	5.24
411.261	5.29
411.468	5.7
411.674	6.12
411.881	6.43
412.087	6.09
412.294	5.9
412.5	5.47
412.706	5.21
412.913	5.29
413.119	4.77
413.326	4.48
413.532	4.43
413.738	4.26
413.945	4.17
414.151	4.11
414.357	4.69
414.564	4.41
414.77	4.76
414.976	4.84
415.182	4.78
415.389	5.09
415.595	5.05
415.801	4.8
416.007	4.92
416.214	4.63
416.42	4.74
416.626	4.66
416.832	4.76
417.038	4.8
417.244	4.61
417.45	4.54
417.657	4.39
417.863	4.48
418.069	4.6
418.275	4.73
418.481	4.91
418.687	4.73
418.893	4.6
419.099	4.65
419.305	4.74
419.511	4.69
419.717	4.87
419.923	4.89
420.129	4.78
420.335	4.83
420.541	4.83
420.746	4.92
420.952	4.92
421.158	4.84
421.364	5.01
421.57	4.95
421.776	5.26
421.982	5.2
422.187	5.22
422.393	5.29
422.599	5.28
422.805	5.02
423.01	4.73
423.216	4.82
423.422	4.85
423.628	4.66
423.833	4.45
424.039	4.11
424.245	4.13
424.45	4.12
424.656	4.1
424.862	4.06
425.067	4.33
425.273	4.43
425.478	4.38
425.684	4.59
425.889	4.56
426.095	4.6
426.301	4.8
426.506	4.67
426.712	4.76
426.917	4.69
427.123	4.57
427.328	4.15
427.533	3.97
427.739	3.99
427.944	3.88
428.15	3.78
428.355	3.9
428.561	3.59
428.766	3.6
428.971	3.54
429.177	3.42
429.382	3.55
429.587	3.89
429.793	4.06
429.998	4.07
430.203	4.14
430.408	4.24
430.614	4.22
430.819	4.32
431.024	4.38
431.229	4.34
431.434	4.53
431.64	4.57
431.845	4.86
432.05	4.99
432.255	4.89
432.46	4.78
432.665	4.67
432.87	4.72
433.076	4.63
433.281	4.71
433.486	4.96
433.691	4.85
433.896	4.92
434.101	4.68
434.306	4.95
434.511	4.94
434.716	4.76
434.921	4.75
435.126	4.66
435.331	4.84
435.535	4.72
435.74	4.6
435.945	4.7
436.15	4.61
436.355	4.5
436.56	4.17
436.765	4.38
436.97	4.34
437.174	4.52
437.379	4.74
437.584	4.89
437.789	4.98
437.993	4.96
438.198	4.91
438.403	4.94
438.608	4.98
438.812	4.84
439.017	4.71
439.222	4.66
439.426	4.5
439.631	4.34
439.836	4.01
440.04	3.91
440.245	3.76
440.45	3.77
440.654	3.69
440.859	3.79
441.063	3.93
441.268	4.02
441.472	4.18
441.677	4.27
441.881	4.06
442.086	4.12
442.29	4.29
442.495	4.46
442.699	4.47
442.904	4.37
443.108	4.12
443.312	3.9
443.517	3.68
443.721	3.73
443.925	3.56
444.13	3.69
444.334	3.92
444.538	3.82
444.743	3.68
444.947	3.72
445.151	3.9
445.356	4.12
445.56	4.31
445.764	4.3
445.968	4.15
446.173	4.25
446.377	4.15
446.581	3.97
446.785	3.96
446.989	4.03
447.193	3.83
447.398	3.63
447.602	3.52
447.806	3.43
448.01	3.37
448.214	3.39
448.418	3.31
448.622	3.35
448.826	3.4
449.03	3.37
449.234	3.25
449.438	3.3
449.642	3.82
449.846	3.85
450.05	3.92
450.254	4.08
450.458	4.09
450.662	4.09
450.866	4.02
451.069	3.86
451.273	3.71
451.477	3.8
451.681	3.89
451.885	3.54
452.089	3.62
452.292	3.44
452.496	3.49
452.7	3.57
452.904	3.47
453.107	3.73
453.311	3.8
453.515	3.76
453.719	3.93
453.922	4.11
454.126	4.43
454.33	4.3
454.533	4.52
454.737	4.4
454.94	4.41
455.144	4.47
455.348	4.39
455.551	4.43
455.755	4.66
455.958	4.55
456.162	4.59
456.365	3.92
456.569	3.92
456.772	3.68
456.976	3.99
457.179	3.91
457.383	3.72
457.586	3.77
457.79	3.84
457.993	3.86
458.196	3.81
458.4	3.58
458.603	3.99
458.807	4.06
459.01	4.1
459.213	3.82
459.417	3.93
459.62	4.23
459.823	4.33
460.026	4.29
460.23	4.51
460.433	4.6
460.636	4.65
460.839	4.53
461.042	4.56
461.246	4.76
461.449	4.78
461.652	4.62
461.855	4.44
462.058	4.35
462.261	4.4
462.464	3.92
462.668	3.61
462.871	3.63
463.074	3.56
463.277	3.63
463.48	3.4
463.683	3.5
463.886	3.56
464.089	3.52
464.292	3.45
464.495	3.2
464.698	3.37
464.901	3.61
465.104	3.6
465.306	3.65
465.509	3.38
465.712	3.48
465.915	3.39
466.118	3.59
466.321	3.82
466.524	3.94
466.726	4.09
466.929	4.15
467.132	4.16
467.335	4.21
467.538	4.11
467.74	4.21
467.943	4.41
468.146	4.53
468.348	4.23
468.551	4
468.754	3.97
468.956	4.07
469.159	4.08
469.362	4.02
469.564	4.06
469.767	4.36
469.969	4.17
470.172	3.99
470.375	3.87
470.577	3.94
470.78	3.88
470.982	3.76
471.185	3.67
471.387	3.44
471.59	3.22
471.792	3.26
471.995	2.89
472.197	3.12
472.399	3.11
472.602	3.19
472.804	3.54
473.007	3.87
473.209	3.89
473.411	3.94
473.614	4.09
473.816	3.99
474.018	3.89
474.22	4.26
474.423	4.11
474.625	3.99
474.827	3.8
475.03	3.57
475.232	3.54
475.434	3.66
475.636	3.68
475.838	3.78
476.04	4.11
476.243	4.13
476.445	4.29
476.647	4.42
476.849	4.4
477.051	4.57
477.253	4.71
477.455	4.54
477.657	4.38
477.859	4.38
478.061	4.31
478.263	4.12
478.465	4.15
478.667	3.91
478.869	3.8
479.071	4.05
479.273	3.92
479.475	3.77
479.677	3.62
479.879	3.65
480.081	3.77
480.283	3.77
480.485	3.85
480.686	3.92
480.888	3.84
481.09	3.82
481.292	3.77
481.494	3.91
481.695	3.93
481.897	4.17
482.099	4.24
482.301	4.08
482.502	4.09
482.704	4.11
482.906	4.05
483.107	4.05
483.309	4.1
483.511	4.01
483.712	3.96
483.914	3.99
484.115	3.95
484.317	3.94
484.519	3.94
484.72	3.88
484.922	3.87
485.123	3.83
485.325	3.83
485.526	3.81
485.728	3.93
485.929	3.99
486.131	3.93
486.332	3.99
486.534	4.03
486.735	3.98
486.936	4.04
487.138	4.03
487.339	4.09
487.541	4.1
487.742	4.13
487.943	4.03
488.144	3.93
488.346	3.93
488.547	3.85
488.748	3.81
488.95	3.85
489.151	3.77
489.352	3.82
489.553	3.78
489.755	3.69
489.956	3.65
490.157	3.71
490.358	3.75
490.559	3.8
490.76	3.82
490.961	3.75
491.163	3.77
491.364	3.83
491.565	3.79
491.766	3.8
491.967	3.81
492.168	3.72
492.369	3.6
492.57	3.54
492.771	3.52
492.972	3.62
493.173	3.66
493.374	3.67
493.575	3.7
493.776	3.75
493.976	3.75
494.177	3.76
494.378	3.95
494.579	4.15
494.78	4.31
494.981	4.32
495.182	4.15
495.382	4.16
495.583	4.05
495.784	4.02
495.985	3.85
496.185	3.85
496.386	3.86
496.587	3.7
496.788	3.7
496.988	3.7
497.189	3.52
497.39	3.59
497.59	3.54
497.791	3.77
497.992	3.86
498.192	3.79
498.393	3.67
498.593	3.73
498.794	3.64
498.994	3.4
499.195	3.35
499.395	3.63
499.596	3.53
499.796	3.59
499.997	3.46
500.197	3.35
500.398	3.56
500.598	3.54
500.799	3.61
500.999	3.66
501.199	3.99
501.4	4.33
501.6	4.18
501.801	4.18
502.001	4.12
502.201	4.1
502.402	3.97
502.602	3.83
502.802	3.98
503.002	3.98
503.203	4.24
503.403	4.28
503.603	3.9
503.803	3.95
504.003	4.04
504.204	3.93
504.404	3.79
504.604	3.86
504.804	4.14
505.004	4.38
505.204	4.5
505.404	4.3
505.604	4.24
505.804	4.31
506.005	4.23
506.205	4.31
506.405	4.42
506.605	4.58
506.805	4.72
507.005	4.55
507.204	4.32
507.404	4.03
507.604	4.18
507.804	4
508.004	4.2
508.204	4.28
508.404	4.2
508.604	4.14
508.804	4.21
509.003	4.17
509.203	4.2
509.403	4.16
509.603	4.24
509.803	4.2
510.002	4.28
510.202	4.23
510.402	4.18
510.602	4.21
510.801	4.21
511.001	4.26
511.201	4.28
511.4	4.13
511.6	4.15
511.8	4.22
511.999	4.36
512.199	4.15
512.398	4.09
512.598	4.02
512.797	4.03
512.997	3.98
513.197	3.95
513.396	4.06
513.596	4.34
513.795	4.44
513.994	4.35
514.194	4.09
514.393	4.39
514.593	4.44
514.792	4.53
514.992	4.43
515.191	4.73
515.39	4.66
515.59	4.74
515.789	4.6
515.988	4.62
516.188	4.7
516.387	4.83
516.586	4.77
516.786	4.68
516.985	4.82
517.184	4.91
517.383	4.9
517.582	4.92
517.782	4.82
517.981	4.89
518.18	4.83
518.379	4.75
518.578	4.79
518.777	4.76
518.976	4.74
519.176	4.66
519.375	4.73
519.574	4.61
519.773	4.57
519.972	4.47
520.171	4.53
520.37	4.64
520.569	4.67
520.768	4.52
520.967	4.58
521.166	4.68
521.365	4.69
521.564	4.59
521.762	4.68
521.961	4.73
522.16	4.88
522.359	4.67
522.558	4.63
522.757	4.76
522.956	5.04
523.154	5.2
523.353	5.22
523.552	5.14
523.751	5.27
523.949	5.18
524.148	5.13
524.347	5.18
524.546	5.33
524.744	5.29
524.943	5.24
525.142	5.13
525.34	5.03
525.539	4.94
525.737	5.05
525.936	5.05
526.135	5.01
526.333	5.13
526.532	4.97
526.73	4.87
526.929	4.91
527.127	4.92
527.326	4.93
527.524	4.88
527.723	4.88
527.921	4.9
528.12	4.89
528.318	4.97
528.516	4.91
528.715	4.95
528.913	4.96
529.112	4.94
529.31	4.95
529.508	4.95
529.707	5.01
529.905	5.11
530.103	5.13
530.301	5.13
530.5	5.16
530.698	5.23
530.896	5.25
531.094	5.25
531.293	5.33
531.491	5.31
531.689	5.3
531.887	5.22
532.085	5.15
532.283	5.18
532.481	5.2
532.68	5.24
532.878	5.16
533.076	5.3
533.274	5.37
533.472	5.38
533.67	5.42
533.868	5.52
534.066	5.66
534.264	5.65
534.462	5.66
534.66	5.59
534.858	5.48
535.056	5.71
535.253	5.64
535.451	5.68
535.649	5.62
535.847	5.79
536.045	5.79
536.243	5.64
536.441	5.74
536.638	5.76
536.836	5.75
537.034	5.79
537.232	5.7
537.43	5.68
537.627	5.65
537.825	5.73
538.023	5.59
538.22	5.58
538.418	5.67
538.616	5.59
538.813	5.59
539.011	5.81
539.209	5.98
539.406	6.03
539.604	6.15
539.801	6.24
539.999	6.25
540.196	6.27
540.394	6.28
540.591	6.36
540.789	6.51
540.986	6.54
541.184	6.61
541.381	6.51
541.579	6.52
541.776	6.48
541.974	6.54
542.171	6.62
542.368	6.7
542.566	6.84
542.763	6.87
542.96	6.85
543.158	6.81
543.355	6.86
543.552	6.94
543.75	7
543.947	7.03
544.144	7.08
544.341	7.1
544.539	6.99
544.736	6.9
544.933	6.87
545.13	6.88
545.327	6.98
545.524	6.84
545.722	6.98
545.919	6.97
546.116	7.1
546.313	6.97
546.51	6.95
546.707	7.02
546.904	7.22
547.101	7.27
547.298	7.24
547.495	7.21
547.692	7.27
547.889	7.25
548.086	7.28
548.283	7.26
548.48	7.34
548.677	7.5
548.874	7.68
549.07	7.52
549.267	7.7
549.464	7.88
549.661	8.04
549.858	8.19
550.055	8.31
550.251	8.43
550.448	8.75
550.645	8.69
550.842	8.69
551.038	8.74
551.235	8.69
551.432	8.59
551.628	8.67
551.825	8.77
552.022	8.58
552.218	8.43
552.415	8.38
552.612	8.24
552.808	8.29
553.005	8.01
553.201	8.13
553.398	8.26
553.594	8.54
553.791	8.75
553.987	8.65
554.184	8.74
554.38	8.79
554.577	8.94
554.773	8.74
554.97	9.05
555.166	9.55
555.362	9.56
555.559	9.51
555.755	9.54
555.952	9.53
556.148	9.92
556.344	10.21
556.541	10.58
556.737	10.38
556.933	10.64
557.129	10.54
557.326	10.43
557.522	10.5
557.718	10.58
557.914	10.5
558.11	10.22
558.307	10.04
558.503	9.94
558.699	9.82
558.895	10.14
559.091	10.15
559.287	10.4
559.483	10.37
559.679	10.23
559.876	10.19
560.072	10.22
560.268	10.34
560.464	10.33
560.66	10.45
560.856	10.43
561.052	10.34
561.247	10.42
561.443	10.35
561.639	10.62
561.835	10.75
562.031	10.7
562.227	10.61
562.423	10.59
562.619	10.74
562.815	10.79
563.01	10.87
563.206	10.93
563.402	10.89
563.598	11.14
563.793	11.12
563.989	11.14
564.185	11.62
564.381	11.79
564.576	12.07
564.772	12.14
564.968	12.14
565.163	12.18
565.359	12.26
565.555	12.44
565.75	12.48
565.946	12.66
566.141	12.61
566.337	12.41
566.532	12.54
566.728	12.57
566.923	12.59
567.119	12.63
567.314	12.7
567.51	12.78
567.705	12.86
567.901	12.71
568.096	12.55
568.292	12.65
568.487	12.62
568.682	12.56
568.878	12.45
569.073	12.51
569.268	12.51
569.464	12.55
569.659	12.49
569.854	12.5
570.05	12.57
570.245	12.8
570.44	13.01
570.635	13.36
570.831	13.4
571.026	13.51
571.221	13.42
571.416	13.63
571.611	13.54
571.806	13.74
572.002	13.64
572.197	13.77
572.392	13.75
572.587	13.73
572.782	13.7
572.977	13.7
573.172	13.74
573.367	14.06
573.562	14.17
573.757	14.26
573.952	14.12
574.147	14.49
574.342	14.44
574.537	14.36
574.732	14.34
574.927	14.1
575.121	14.22
575.316	14.32
575.511	14.27
575.706	14.04
575.901	14.22
576.096	14.41
576.29	14.26
576.485	14.13
576.68	14.5
576.875	14.62
577.069	14.85
577.264	14.87
577.459	14.84
577.654	14.85
577.848	15.13
578.043	15.03
578.238	15.06
578.432	14.97
578.627	15.14
578.821	14.84
579.016	15.1
579.21	15.29
579.405	15.52
579.6	15.42
579.794	15.15
579.989	15.06
580.183	15.08
580.378	14.82
580.572	14.88
580.766	15.06
580.961	15.18
581.155	14.83
581.35	14.72
581.544	14.74
581.738	14.95
581.933	15.19
582.127	14.98
582.321	15.26
582.516	15.52
582.71	15.71
582.904	15.61
583.099	15.3
583.293	15.54
583.487	15.43
583.681	15.37
583.875	15.29
584.07	15.24
584.264	15.43
584.458	15.23
584.652	15.14
584.846	14.85
585.04	14.99
585.234	15.27
585.428	15.28
585.623	15.28
585.817	15.31
586.011	15.53
586.205	15.44
586.399	15.18
586.593	15.04
586.787	15.18
586.981	15.15
587.174	14.93
587.368	14.85
587.562	14.83
587.756	15.05
587.95	14.98
588.144	15.18
588.338	15.62
588.532	15.97
588.725	16.28
588.919	16.23
589.113	16.27
589.307	16.36
589.501	16.4
589.694	16.33
589.888	16.34
590.082	16.23
590.275	15.69
590.469	15.61
590.663	15.63
590.856	15.61
591.05	15.7
591.244	15.82
591.437	15.9
591.631	16.06
591.824	16.02
592.018	16.26
592.212	16.36
592.405	16.56
592.599	16.64
592.792	16.69
592.986	16.59
593.179	16.64
593.372	16.89
593.566	16.83
593.759	16.72
593.953	16.9
594.146	16.65
594.339	16.91
594.533	16.93
594.726	16.78
594.92	16.62
595.113	16.75
595.306	16.89
595.499	16.7
595.693	16.88
595.886	16.77
596.079	16.67
596.272	16.56
596.466	16.06
596.659	16.07
596.852	16.17
597.045	16.34
597.238	16.41
597.431	16.25
597.624	16.09
597.818	15.95
598.011	15.88
598.204	15.95
598.397	16.18
598.59	16.55
598.783	16.89
598.976	16.87
599.169	16.88
599.362	16.86
599.555	17.12
599.748	17.6
599.941	17.72
600.134	17.93
600.326	17.92
600.519	17.62
600.712	17.75
600.905	17.3
601.098	16.81
601.291	16.54
601.483	16.19
601.676	15.83
601.869	15.77
602.062	16.01
602.255	15.89
602.447	15.56
602.64	15.54
602.833	15.58
603.025	15.74
603.218	16.13
603.411	16.2
603.603	16.51
603.796	16.58
603.989	16.46
604.181	16.18
604.374	16.55
604.566	16.81
604.759	16.63
604.951	16.37
605.144	16.61
605.336	16.73
605.529	16.92
605.721	16.69
605.914	16.69
606.106	16.91
606.299	16.95
606.491	16.83
606.683	16.88
606.876	17.18
607.068	17.48
607.26	17.17
607.453	16.99
607.645	16.8
607.837	16.93
608.03	17.04
608.222	16.76
608.414	17.01
608.606	16.87
608.799	16.67
608.991	16.75
609.183	16.75
609.375	16.75
609.567	16.51
609.759	16.35
609.952	16.36
610.144	16.46
610.336	16.32
610.528	16.41
610.72	16.41
610.912	16.58
611.104	16.64
611.296	16.54
611.488	16.67
611.68	16.89
611.872	16.98
612.064	17.01
612.256	16.9
612.448	17.27
612.64	17.17
612.832	17.01
613.023	16.77
613.215	16.76
613.407	16.57
613.599	16.45
613.791	16.5
613.983	16.49
614.174	16.51
614.366	16.16
614.558	15.9
614.75	15.63
614.941	15.47
615.133	15.46
615.325	15.49
615.516	15.51
615.708	15.43
615.9	15.62
616.091	16.19
616.283	16.04
616.475	16.32
616.666	16.24
616.858	16.33
617.049	16.44
617.241	16.49
617.432	16.62
617.624	16.64
617.815	16.89
618.007	16.47
618.198	16.2
618.39	16.22
618.581	16.01
618.773	15.98
618.964	16.02
619.155	15.93
619.347	16.19
619.538	15.79
619.729	16.01
619.921	15.59
620.112	15.54
620.303	15.13
620.494	15.16
620.686	15.18
620.877	15.43
621.068	15.54
621.259	15.97
621.451	15.65
621.642	15.99
621.833	15.51
622.024	15.71
622.215	16.1
622.406	16.48
622.597	16.47
622.788	16.62
622.98	16.49
623.171	16.21
623.362	15.99
623.553	16.15
623.744	16.36
623.935	16.9
624.126	17.03
624.317	16.61
624.508	16.6
624.698	16.52
624.889	16.76
625.08	16.59
625.271	16.79
625.462	17.1
625.653	17.06
625.844	16.76
626.034	16.63
626.225	16.79
626.416	17.14
626.607	17.07
626.798	17.46
626.988	17.4
627.179	17.73
627.37	18
627.56	17.63
627.751	17.51
627.942	17.57
628.132	17.56
628.323	17.16
628.514	17.11
628.704	17.18
628.895	16.86
629.085	16.75
629.276	16.83
629.466	16.68
629.657	16.91
629.847	16.91
630.038	16.86
630.228	16.87
630.419	17.23
630.609	17.04
630.8	17.07
630.99	16.97
631.181	16.72
631.371	16.64
631.561	16.47
631.752	16.65
631.942	17.26
632.132	17.3
632.323	17.66
632.513	17.07
632.703	17.19
632.893	17.01
633.084	17.33
633.274	17.46
633.464	17.32
633.654	17.53
633.844	17.47
634.034	17.16
634.225	17.2
634.415	16.97
634.605	17.53
634.795	17.66
634.985	17.96
635.175	17.58
635.365	17.96
635.555	18.02
635.745	17.78
635.935	17.57
636.125	17.61
636.315	17.79
636.505	17.83
636.695	17.98
636.885	17.76
637.075	17.58
637.265	17.87
637.455	17.94
637.644	17.94
637.834	18.05
638.024	18.08
638.214	17.88
638.404	17.78
638.593	17.85
638.783	17.78
638.973	17.87
639.163	17.77
639.352	17.92
639.542	17.56
639.732	17.87
639.921	17.84
640.111	18.16
640.301	18.29
640.49	18.03
640.68	17.69
640.87	17.7
641.059	17.87
641.249	18.07
641.438	17.95
641.628	18.22
641.817	17.93
642.007	17.76
642.196	17.25
642.386	17.01
642.575	17.36
642.764	17.54
642.954	17.41
643.143	17.23
643.333	17.3
643.522	17.4
643.711	17.04
643.901	17.25
644.09	17.45
644.279	17.78
644.469	17.89
644.658	17.86
644.847	18.68
645.036	18.79
645.226	18.51
645.415	18.61
645.604	18.48
645.793	18.62
645.982	18.22
646.171	18.22
646.361	18.23
646.55	17.93
646.739	17.55
646.928	16.21
647.117	16.02
647.306	16.3
647.495	16.12
647.684	16.12
647.873	16.14
648.062	16.29
648.251	15.82
648.44	16.13
648.629	16.87
648.818	17.64
649.007	18.13
649.196	18.21
649.384	18.3
649.573	18.42
649.762	18.34
649.951	18.54
650.14	18.09
650.328	18.34
650.517	17.98
650.706	17.62
650.895	16.83
651.083	16.71
651.272	16.79
651.461	17.06
651.65	16.65
651.838	17.03
652.027	17.13
652.216	17.38
652.404	17.7
652.593	17.31
652.781	17.8
652.97	18.04
653.158	18.36
653.347	18.71
653.535	18.78
653.724	19
653.912	19.11
654.101	18.92
654.289	18.97
654.478	18.88
654.666	18.81
654.855	18.49
655.043	18.33
655.231	18.29
655.42	17.84
655.608	17.23
655.796	17.63
655.985	17.17
656.173	16.83
656.361	16.76
656.55	16.22
656.738	16.79
656.926	16.81
657.114	16.8
657.302	17.11
657.491	16.92
657.679	17.47
657.867	17.28
658.055	17.57
658.243	17.5
658.431	17.75
658.619	18.25
658.807	18.52
658.996	18.55
659.184	18.88
659.372	18.37
659.56	18.84
659.748	18.56
659.936	18.72
660.124	18.39
660.311	18.78
660.499	18.86
660.687	18.56
660.875	18.49
661.063	18.22
661.251	17.94
661.439	18.09
661.627	17.35
661.814	17.31
662.002	16.76
662.19	17.15
662.378	16.83
662.565	16.87
662.753	17.57
662.941	17.42
663.129	17.44
663.316	17.45
663.504	17.27
663.692	18.07
663.879	18.08
664.067	18.5
664.254	18.44
664.442	18.37
664.63	18.37
664.817	17.32
665.005	17.54
665.192	17.61
665.38	17.71
665.567	17.9
665.755	17.13
665.942	17.54
666.13	17.28
666.317	16.81
666.504	16.94
666.692	17.04
666.879	16.95
667.067	16.51
667.254	16.7
667.441	16.42
667.629	16.21
667.816	16.36
668.003	16.26
668.19	16.86
668.378	17.05
668.565	17.42
668.752	17.31
668.939	17.88
669.127	17.94
669.314	18.52
669.501	18.9
669.688	19.35
669.875	19.8
670.062	19.47
670.249	19.29
670.436	19.57
670.623	19.11
670.81	18.99
670.997	19.13
671.184	19.43
671.371	18.59
671.558	18.54
671.745	18.41
671.932	18.64
672.119	18.99
672.306	18.86
672.493	19.02
672.68	19.08
672.867	18.94
673.054	19.2
673.24	19.13
673.427	19.31
673.614	19.34
673.801	19.57
673.988	19.12
674.174	18.78
674.361	18.6
674.548	18.32
674.734	18.17
674.921	17.85
675.108	16.82
675.294	17.17
675.481	16.3
675.668	16.4
675.854	15.94
676.041	15.8
676.227	16.11
676.414	16.36
676.601	16.23
676.787	16.58
676.974	16.61
677.16	17.93
677.347	17.57
677.533	18.26
677.719	18.29
677.906	18.42
678.092	18.53
678.279	18.28
678.465	18.54
678.651	19.17
678.838	19.01
679.024	19.61
679.21	18.91
679.397	18.84
679.583	19.29
679.769	19.25
679.955	18.93
680.142	18.97
680.328	18.83
680.514	18.53
680.7	17.92
680.886	18.24
681.073	18.05
681.259	18.16
681.445	17.99
681.631	17.72
681.817	17.53
682.003	17.83
682.189	17.9
682.375	18.15
682.561	18.19
682.747	18.33
682.933	17.94
683.119	17.65
683.305	17.84
683.491	18.5
683.677	18.76
683.863	19.18
684.049	19.54
684.235	18.88
684.42	18.83
684.606	18.72
684.792	18.7
684.978	18.79
685.164	19.2
685.349	18.79
685.535	18.03
685.721	17.85
685.907	17.11
686.092	16.98
686.278	16.92
686.464	17.45
686.649	17.39
686.835	17.22
687.021	17.63
687.206	17.28
687.392	16.8
687.577	17.06
687.763	16.83
687.948	17.17
688.134	17.27
688.319	17.63
688.505	17.51
688.69	17.76
688.876	17.97
689.061	17.28
689.247	17.3
689.432	18.36
689.618	18.49
689.803	18.31
689.988	18.9
690.174	18.87
690.359	19.06
690.544	18.68
690.73	18.6
690.915	19.11
691.1	19.57
691.285	20.17
691.471	20.27
691.656	20.23
691.841	20.77
692.026	19.68
692.211	19.63
692.396	19.45
692.582	20.19
692.767	19.96
692.952	20.02
693.137	19.93
693.322	19.77
693.507	18.76
693.692	18.57
693.877	17.96
694.062	18.56
694.247	18.29
694.432	19
694.617	17.65
694.802	18.1
694.987	17.23
695.172	16.94
695.357	15.83
695.541	16.2
695.726	16.44
695.911	16.54
696.096	16.63
696.281	16.61
696.466	17.09
696.65	18.05
696.835	18.21
697.02	18.4
697.204	19.11
697.389	19.79
697.574	20
697.759	20.03
697.943	20.31
698.128	20.63
698.312	20.27
698.497	19.85
698.682	19.84
698.866	19.72
699.051	19.96
699.235	19.76
699.42	20.12
699.604	20.03
699.789	20.04
699.973	20.06
700.158	19.9
700.342	20.33
700.527	20.81
700.711	21.01
700.895	20.66
701.08	19.72
701.264	19.4
701.448	18.95
701.633	18.67
701.817	18.37
702.001	17.99
702.186	17.29
702.37	17.66
702.554	16.62
702.738	16.21
702.923	17.08
703.107	17.85
703.291	17.79
703.475	17.7
703.659	18.03
703.843	17.25
704.027	17.78
704.212	18.29
704.396	17.77
704.58	18.35
704.764	18.31
704.948	17.47
705.132	17.28
705.316	17.34
705.5	17.41
705.684	17.37
705.868	19.08
706.052	19.53
706.235	19.54
706.419	19.8
706.603	19.67
706.787	20.04
706.971	20.18
707.155	20.37
707.339	20.82
707.522	20.55
707.706	20.33
707.89	19.04
708.074	18.53
708.257	19.03
708.441	18.72
708.625	18.26
708.808	17.95
708.992	17.76
709.176	17.57
709.359	17.97
709.543	17.83
709.727	17.95
709.91	18.92
710.094	19.45
710.277	19.26
710.461	19.58
710.644	19.59
710.828	19.17
711.011	19.15
711.195	19.13
711.378	18.96
711.562	19.34
711.745	18.64
711.928	18.3
712.112	17.62
712.295	17.78
712.478	17.54
712.662	18.41
712.845	18.85
713.028	19.29
713.212	19.79
713.395	19.76
713.578	20.26
713.761	22.03
713.945	22.36
714.128	22.34
714.311	21.37
714.494	21.59
714.677	21.25
714.86	20.57
715.043	20.9
715.227	20.31
715.41	20.61
715.593	19.58
715.776	19.02
715.959	18.43
716.142	18.21
716.325	18.75
716.508	18.54
716.691	18.31
716.874	19.53
717.057	19.37
717.239	20.26
717.422	19.51
717.605	19.96
717.788	20.12
717.971	20.78
718.154	20.98
718.337	20.96
718.519	21.18
718.702	22.46
718.885	22.53
719.068	22.24
719.25	22.19
719.433	23.01
719.616	23.07
719.798	22.68
719.981	22.47
720.164	22.5
720.346	22.68
720.529	22.61
720.712	20.13
720.894	19.99
721.077	20.38
721.259	20.35
721.442	20.06
721.624	20.32
721.807	20.52
721.989	19.88
722.172	20.47
722.354	19.88
722.537	19.32
722.719	19.34
722.901	18.62
723.084	17.69
723.266	18.79
723.448	18.6
723.631	18.47
723.813	18.06
723.995	19.17
724.178	18.81
724.36	19.36
724.542	19.11
724.724	19.46
724.907	19.19
725.089	19.4
725.271	18.1
725.453	18.56
725.635	17.48
725.817	16.67
725.999	16.62
726.181	16.13
726.364	16.71
726.546	17.5
726.728	18.16
726.91	19.26
727.092	20.26
727.274	19.69
727.456	19.17
727.638	20.18
727.819	22.16
728.001	22.36
728.183	22.52
728.365	21.5
728.547	21.99
728.729	21.75
728.911	20.06
729.093	19.66
729.274	19.7
729.456	18.59
729.638	19.48
729.82	19.71
730.001	19.41
730.183	20.14
730.365	20.36
730.546	19.46
730.728	19.31
730.91	18.91
731.091	18.16
731.273	18.6
731.455	19.85
731.636	18.4
731.818	17.16
731.999	16.59
732.181	16.99
732.362	17.44
732.544	17.32
732.725	17.25
732.907	18
733.088	18.1
733.27	18.73
733.451	18.63
733.633	19.92
733.814	19.97
733.995	20.68
734.177	20.76
734.358	19.41
734.539	19.71
734.721	19.55
734.902	20.01
735.083	20.46
735.264	19.07
735.446	18.76
735.627	17.77
735.808	17.85
735.989	17.07
736.17	16.07
736.351	17.08
736.533	17.53
736.714	17.53
736.895	17.55
737.076	18.92
737.257	20.45
737.438	21.44
737.619	20.77
737.8	18.93
737.981	18.89
738.162	17.1
738.343	17.86
738.524	17.74
738.705	17.53
738.886	17.9
739.067	16.08
739.247	15.2
739.428	15.67
739.609	14.71
739.79	17.24
739.971	17.01
740.151	18.04
740.332	17.76
740.513	18.64
740.694	18.66
740.874	18.39
741.055	19.21
741.236	18.78
741.417	17.99
741.597	19.62
741.778	18.57
741.958	19.43
742.139	20.46
742.32	19.89
742.5	18.55
742.681	18.16
742.861	18.15
743.042	16.84
743.222	17.6
743.403	18.27
743.583	19.52
743.764	18.65
743.944	19.86
744.124	19.43
744.305	20.45
744.485	19.08
744.666	22.04
744.846	22.34
745.026	22.12
745.207	21.97
745.387	20.55
745.567	21.27
745.747	22.54
745.928	20.28
746.108	19.75
746.288	18.9
746.468	20.05
746.648	18.33
746.829	17.38
747.009	19.6
747.189	19.62
747.369	20.56
747.549	19.1
747.729	18.08
747.909	19.1
748.089	18.97
748.269	18.49
748.449	18.8
748.629	18.92
748.809	20.13
748.989	19.77
749.169	19.55
749.349	19.33
749.529	20.01
749.709	20.96
749.889	20
750.068	20.88
750.248	21.85
750.428	20.48
750.608	22.45
750.788	21.88
750.967	20.22
751.147	21.23
751.327	20.62
751.507	18.8
751.686	19.25
751.866	19.9
752.046	19.97
752.225	20.87
752.405	23.21
752.585	21.79
752.764	20.21
752.944	21.52
753.123	20.94
753.303	21.24
753.482	21.97
753.662	20.68
753.841	21.66
754.021	21.54
754.2	21.07
754.38	19.9
754.559	20.42
754.739	21.84
754.918	22.24
755.097	21.81
755.277	20.62
755.456	21.53
755.635	21.87
755.815	21.11
755.994	21.03
756.173	21.25
756.352	21.82
756.532	21.12
756.711	20.31
756.89	18.08
757.069	17.92
757.248	19.08
757.427	18.15
757.607	19.13
757.786	19.43
757.965	19.14
758.144	18.07
758.323	17.18
758.502	16.56
758.681	18.4
758.86	21.09
759.039	20.44
759.218	20.17
759.397	19.69
759.576	18.72
759.755	19.66
759.934	20.35
760.113	19.34
760.291	19.28
760.47	19.4
760.649	18.32
760.828	16.95
761.007	18.41
761.186	17.82
761.364	17.86
761.543	18.34
761.722	16.58
761.901	16.58
762.079	17.92
762.258	17.64
762.437	19.16
762.615	19.73
762.794	19.34
762.972	19.2
763.151	18.95
763.33	19.47
763.508	19.44
763.687	20.48
763.865	19.82
764.044	20.54
764.222	21.86
764.401	21.45
764.579	21.01
764.758	21.98
764.936	21.29
765.114	22.24
765.293	21.86
765.471	22.05
765.65	21.1
765.828	21.66
766.006	21.49
766.184	20.17
766.363	19.8
766.541	19.27
766.719	18.77
766.898	18.56
767.076	18.14
767.254	19.99
767.432	20.4
767.61	21.51
767.788	21.21
767.967	20
768.145	18.77
768.323	19.48
768.501	22.29
768.679	22.29
768.857	24.25
769.035	25.08
769.213	24.3
769.391	23.71
769.569	23.04
769.747	24.4
769.925	24.96
770.103	26.55
770.281	26.17
770.459	24.56
770.636	24.07
770.814	23.3
770.992	21.2
771.17	19.57
771.348	19.62
771.525	20.05
771.703	17.05
771.881	17.64
772.059	16.41
772.236	15.85
772.414	14.16
772.592	13.58
772.769	11.5
772.947	16.58
773.125	18.5
773.302	19.57
773.48	18.36
773.657	20.69
773.835	20.92
774.013	22.31
774.19	22.69
774.368	23.55
774.545	24.58
774.723	26.57
774.9	22.37
775.077	21.99
775.255	20.58
775.432	19.22
775.61	20.54
775.787	18.13
775.964	18.69
776.142	18.23
776.319	17.21
776.496	20.51
776.674	23.51
776.851	22.3
777.028	22.2
777.205	23.81
777.382	26.63
777.56	27.8
777.737	28.5
777.914	27.28
778.091	27.1
778.268	26
778.445	22.93
778.622	17.22
778.8	19.66
778.977	21.54
779.154	19.9
779.331	18.81
779.508	20.31
779.685	19.27
779.862	21.82
780.038	22.11
780.215	23.11
780.392	22.6
780.569	24.73
780.746	23.43
780.923	21.94
781.1	22.12
781.277	19.69
781.453	15.45
781.63	19.07
781.807	17.11
781.984	17.57
782.16	20.08
782.337	21.4
782.514	20.65
782.691	21.23
782.867	19.46
783.044	19.92
783.221	19.37
783.397	21.67
783.574	18.43
783.75	21.21
783.927	23.07
784.103	21.67
784.28	17.94
784.456	15.98
784.633	17.31
784.809	17.81
784.986	19.27
785.162	21.93
785.339	20.71
785.515	20.57
785.692	19.25
785.868	14.79
786.044	13.92
786.221	17.45
786.397	21.62
786.573	20.09
786.749	20.33
786.926	18.56
787.102	20.3
787.278	17.48
787.454	22.27
787.631	21.69
787.807	21.66
787.983	19.94
788.159	20.02
788.335	18.43
788.511	19.24
788.687	19.46
788.863	21.03
789.039	20.81
789.216	21.58
789.392	17.63
789.568	15.97
789.744	17.04
789.919	19.55
790.095	17.3
790.271	17.58
790.447	15.17
790.623	15.88
790.799	14.06
790.975	12.61
791.151	14.29
791.327	16.14
791.502	15.45
791.678	14.21
791.854	14.73
792.03	16.29
792.205	17.91
792.381	20.56
792.557	19.34
792.733	17.23
792.908	19.95
793.084	21.68
793.259	21.75
793.435	23.84
793.611	24.68
793.786	26.43
793.962	24.25
794.137	21.61
794.313	21.24
794.488	21.54
794.664	23.63
794.839	20.16
795.015	19.74
795.19	20.18
795.366	20.07
795.541	22.86
795.716	21.6
795.892	22.96
796.067	23.21
796.242	23.01
796.418	23.1
796.593	23.18
796.768	25.95
796.944	27.46
797.119	25.8
797.294	23.52
797.469	18.99
797.644	18.66
797.82	19.95
797.995	22.6
798.17	22.75
798.345	24.19
798.52	24.98
798.695	22.93
798.87	23.34
799.045	21.89
799.22	23.15
799.395	23.34
799.57	20.79
799.745	21.32
799.92	17.66
800.095	17.59
800.27	15.48
800.445	12.23
800.62	13.84
800.795	11.37
800.97	12.24
801.145	14.21
801.319	16.01
801.494	18.53
801.669	18.9
801.844	17.13
802.018	17.91
802.193	17.4
802.368	18.79
802.543	15.31
802.717	19.45
802.892	20.01
803.067	17.72
803.241	16.28
803.416	12.95
803.59	13.19
803.765	16.52
803.94	14.52
804.114	15.85
804.289	16.67
804.463	21.23
804.638	17.6
804.812	14.86
804.986	16.34
805.161	22.53
805.335	24.62
805.51	19.03
805.684	17.76
805.858	18.47
806.033	19.01
806.207	14.78
806.381	16.36
806.556	16.46
806.73	22.41
806.904	23.74
807.078	18.37
807.253	17.32
807.427	22.13
807.601	22.42
807.775	21.24
807.949	23.4
808.123	30.62
808.298	22.64
808.472	20.18
808.646	19.65
808.82	16.38
808.994	20.98
809.168	19.91
809.342	19.07
809.516	19.21
809.69	22.61
809.864	17.48
810.038	10.56
810.212	16.83
810.385	19.12
810.559	18.4
810.733	19.41
810.907	12.77
811.081	12.58
811.255	14.35
811.428	13.44
811.602	13.29
811.776	16.99
811.95	20.01
812.123	14.91
812.297	13.3
812.471	15.25
812.644	15.41
812.818	22.11
812.992	21.26
813.165	16.84
813.339	18.81
813.512	17.81
813.686	20.38
813.86	17.87
814.033	15.87
814.207	16.23
814.38	13.38
814.554	14.7
814.727	13.72
814.9	18.4
815.074	17.64
815.247	21.27
815.421	22.59
815.594	8.22
815.767	8.87
815.941	10.53
816.114	10.24
816.287	12.14
816.46	7.41
816.634	5.56
816.807	3.82
816.98	8.09
817.153	8.84
817.327	7.48
817.5	16.3
817.673	17.45
817.846	25.17
818.019	29.96
818.192	27.1
818.365	33.17
818.538	34.64
818.711	33.59
818.884	33.44
819.057	30.53
819.23	25.88
819.403	23.53
819.576	22.96
819.749	19.97
819.922	18.39
820.095	20.98
820.268	18.33
820.441	21.34
820.614	25.52
820.786	27.52
820.959	27.7
821.132	29.7
821.305	29.14
821.477	28.77
821.65	28.68
821.823	27.99
821.996	26.28
822.168	26.71
822.341	26.02
822.514	24.25
822.686	23.4
822.859	23.91
823.031	23.21
823.204	23.07
823.376	23.24
823.549	22.96
823.722	22.19
823.894	22.34
824.067	21.94
824.239	21.22
824.411	21.71
824.584	21.24
824.756	20.29
824.929	21.49
825.101	22.38
825.273	20.51
825.446	19.39
825.618	19.83
825.79	20.47
825.963	19.39
826.135	20.17
826.307	21.27
826.479	23
826.652	23.45
826.824	21.25
826.996	21.42
827.168	24.22
827.34	25.67
827.512	25.32
827.684	25.98
827.856	26.47
828.029	25.06
828.201	22.85
828.373	21.83
828.545	19.93
828.717	24.43
828.889	25.45
829.061	24.94
829.232	24.74
829.404	23.39
829.576	23.83
829.748	22.67
829.92	23.67
830.092	27.5
830.264	24.56
830.436	28.65
830.607	23.94
830.779	20.4
830.951	20.91
831.123	21.12
831.294	25.82
831.466	22.27
831.638	27.39
831.809	25.8
831.981	24.45
832.153	30.6
832.324	24.84
832.496	27.7
832.667	27.93
832.839	24.51
833.011	23.06
833.182	21.92
833.354	20.9
833.525	18.17
833.697	18.44
833.868	18.9
834.039	13.17
834.211	17.8
834.382	13.4
834.554	14.76
834.725	14.53
834.896	14.78
835.068	12.34
835.239	13.88
835.41	11.56
835.581	12.97
835.753	10.06
835.924	18.25
836.095	15.03
836.266	17.21
836.438	14.23
836.609	16.66
836.78	20.08
836.951	20.35
837.122	17.65
837.293	20.06
837.464	20.78
837.635	19.32
837.806	19.68
837.977	19.61
838.148	21.26
838.319	23.55
838.49	20.91
838.661	14.34
838.832	20.23
839.003	22.28
839.174	21.31
839.345	27.2
839.516	28.36
839.687	16.97
839.857	19.25
840.028	14.58
840.199	18.63
840.37	19.21
840.54	20.25
840.711	18.95
840.882	20.43
841.053	24.08
841.223	24.68
841.394	21.33
841.564	21.22
841.735	26.73
841.906	39.97
842.076	38.77
842.247	36.36
842.417	39.06
842.588	37.4
842.758	43.71
842.929	47.41
843.099	41
843.27	53.49
843.44	65.27
843.611	54.78
843.781	47.3
843.951	48.64
844.122	56.33
844.292	68.83
844.462	64.35
844.633	63.05
844.803	59.84
844.973	60.79
845.144	52.9
845.314	42.77
845.484	51.88
845.654	55.7
845.824	87.49
845.995	62.26
846.165	25.41
846.335	34.48
846.505	12.35
846.675	34.32
846.845	32.36
847.015	32.37
847.185	17.33
847.355	17.41
847.525	-23.29
847.695	-40.95
847.865	-20.29
848.035	-5.18
848.205	6.48
848.375	26.85
848.545	6.11
848.715	30.87
848.884	43.56
849.054	63.47
849.224	26.03
849.394	56.75
849.564	81.89
849.733	98.43
849.903	40.17
850.073	80.21
850.243	37.52
850.412	45.31
850.582	34.91
850.752	18.4
850.921	32.13
851.091	53.98
851.26	52.58
851.43	42.53
851.599	15.17
851.769	22.72
851.939	-19.74
852.108	-29.76
852.278	-25.81
852.447	-53.83
852.616	-22.36
852.786	-27.66
852.955	-25.54
853.125	-18.27
853.294	-32.55
853.463	-8.06
853.633	-18.15
853.802	-21.31
853.971	6.02
854.141	7.72
854.31	41.63
854.479	11.98
854.648	12.15
854.818	15.67
854.987	-10.78
855.156	-11.65
855.325	-44.43
855.494	1.36
855.663	8.52
855.832	-49.07
856.001	-49.05
856.171	-88.5
856.34	-42.19
856.509	-19.32
856.678	1.8
856.847	5.14
857.016	36.12
857.185	32.57
857.353	30.43
857.522	21.87
857.691	50.27
857.86	48.75
858.029	59.27
858.198	62.76
858.367	61.73
858.535	34.45
858.704	22.62
858.873	17.5
859.042	25.99
859.21	39.89
859.379	46.21
859.548	48.24
859.717	35.31
859.885	38.09
860.054	41.97
860.222	45.76
860.391	66.5
860.56	68.04
860.728	67.47
860.897	69.99
861.065	39.07
861.234	47.59
861.402	48.9
861.571	60.14
861.739	30.36
861.908	9.67
862.076	41.7
862.244	41.61
862.413	43.3
862.581	48.73
862.749	40.16
862.918	35.48
863.086	20.33
863.254	23.03
863.423	13.73
863.591	15.39
863.759	26.71
863.927	7.26
864.096	-4.4
864.264	-13
864.432	-42.33
864.6	-45.09
864.768	-30.98
864.936	-134.15
865.104	-146.51
865.272	-104.79
865.44	191.79
865.608	357.24
865.776	-0.74
865.944	365.73
866.112	-264.48
866.28	-67.36
866.448	-2459.42
866.616	-141.43
866.784	-9.01
866.952	-83.43
867.12	-38.13
867.288	-8.52
867.455	-51.67
867.623	-95.83
867.791	-59.08
867.959	-73.68
868.127	-48.15
868.294	-12.36
868.462	-32.1
868.63	-18.12
868.797	14.19
868.965	14.39
869.133	-31.31
869.3	-12.53
869.468	-35.44
869.636	-12.41
869.803	-6.43
869.971	-21.19
870.138	-34.48
870.306	-22.36
870.473	-62.82
870.641	-91.13
870.808	-77.04
870.975	-30.26
871.143	-44.02
871.31	-58.62
871.478	-65.71
871.645	-135.37
871.812	-128.06
871.98	-58.8
872.147	-92.6
872.314	-35.31
872.482	-12.75
872.649	-36.62
872.816	-152.02
872.983	-61.81
873.15	6.8
873.318	18.14
873.485	30.87
873.652	37.29
873.819	45.7
873.986	52.07
874.153	19.83
874.32	16.84
874.487	30.43
874.654	39.04
874.821	30.53
874.988	19.66
875.155	-30.08
875.322	-85.68
875.489	-137.15
875.656	3376.36
875.823	534.21
875.99	265.28
876.157	-353.4
876.324	-286.13
876.49	-127.19
876.657	-118.45
876.824	-159.63
876.991	-36.1
877.157	-2.41
877.324	-10.85
877.491	-29.87
877.658	-7.84
877.824	3.21
877.991	-4.89
878.157	-4.77
878.324	-37.9
878.491	-55.72
878.657	-50.39
878.824	-33.53
878.99	-66.9
879.157	-639.9
879.323	-3.12
879.49	3144.26
879.656	428.57
879.823	164.75
879.989	115.56
880.156	-31.83
880.322	-23.82
880.488	13.56
880.655	18.47
880.821	42.08
880.987	46.31
881.154	54.07
881.32	50.98
881.486	53.23
881.652	46.34
881.819	49.39
881.985	40.26
882.151	36.17
882.317	30.46
882.483	30.5
882.649	32.25
882.816	32.75
882.982	31.14
883.148	34.57
883.314	29.71
883.48	26.75
883.646	27.7
883.812	30.03
883.978	32.45
884.144	32.08
884.31	31.84
884.476	27.82
884.642	28.66
884.807	25.94
884.973	21.87
885.139	26.85
885.305	27.61
885.471	26.15
885.637	28.91
885.802	26.59
885.968	28.36
886.134	21.12
886.3	23.38
886.465	20.45
886.631	27.44
886.797	32.18
886.962	32.49
887.128	29.13
887.293	36.29
887.459	22.91
887.625	32.79
887.79	42.25
887.956	55.27
888.121	54.71
888.287	63.2
888.452	63.87
888.618	66.95
888.783	93.59
