Data from 2937893_Reflection_1.txt Node
Date: Wed Jul 15 13:59:59 EDT 2015
User: robert
Spectrometer: USB4E03001
Autoset integration time: false
Trigger mode: 4
Integration Time (sec): 1.000000E-1
Scans to average: 10
Electric dark correction enabled: true
Nonlinearity correction enabled: false
Boxcar width: 5
Stray light correction enabled: false
XAxis mode: Wavelengths
Stop averaging: false
Number of Pixels in Spectrum: 3648
>>>>>Begin Spectral Data<<<<<
177.566	1245.99
177.785	379.01
178.005	743.68
178.225	-281.73
178.445	262.96
178.665	153.86
178.885	-1102.38
179.105	365.15
179.324	194.62
179.544	191.45
179.764	130.22
179.984	85.47
180.204	75.7
180.423	44.42
180.643	57.7
180.863	-10.43
181.083	-33.62
181.302	-231
181.522	-487.13
181.742	-5466.67
181.961	2665.56
182.181	472.43
182.401	337.79
182.621	372.41
182.84	1887.38
183.06	704.04
183.279	1245.62
183.499	1582.42
183.719	-98.81
183.938	29.73
184.158	108.12
184.377	211.17
184.597	98.23
184.816	20.45
185.036	29.81
185.256	25.26
185.475	17.83
185.695	32.42
185.914	18.76
186.134	11.58
186.353	-76.02
186.572	-37.1
186.792	-110.11
187.011	-199.4
187.231	-133.68
187.45	-93.94
187.67	-59.9
187.889	-52.66
188.108	-97.58
188.328	-192.26
188.547	-129.43
188.766	-70.7
188.986	-209.94
189.205	-10.91
189.424	-35.66
189.644	-17.51
189.863	-15.22
190.082	-24.97
190.302	-6.71
190.521	-14.13
190.74	-15.85
190.959	-48.06
191.178	-46
191.398	-31.76
191.617	-113.66
191.836	-87.09
192.055	-148.65
192.274	-230.15
192.494	-159.1
192.713	-74.89
192.932	-63.42
193.151	-56.85
193.37	-10.19
193.589	-1.89
193.808	-25.38
194.027	-6.05
194.246	-57.65
194.465	-7.81
194.685	61.88
194.904	77.03
195.123	50.08
195.342	-42.73
195.561	-106.99
195.78	-29.42
195.999	64.19
196.218	37.54
196.436	31.21
196.655	42.57
196.874	43.76
197.093	23.89
197.312	7.57
197.531	-10.81
197.75	0.16
197.969	29.52
198.188	2.08
198.407	-40.68
198.625	11.54
198.844	-2.08
199.063	-14.58
199.282	-84.1
199.501	-123.81
199.719	-48.92
199.938	-46.69
200.157	26.78
200.376	49.13
200.594	65.66
200.813	85.91
201.032	54.08
201.251	54.24
201.469	71.97
201.688	84.21
201.907	117.69
202.125	131.77
202.344	154.06
202.563	108.46
202.781	90.42
203	67.23
203.218	37.95
203.437	31.45
203.656	24.89
203.874	13.56
204.093	-27.07
204.311	-129.95
204.53	-250.61
204.748	-176.42
204.967	-358.31
205.185	-196.67
205.404	740.62
205.622	874.68
205.841	206.29
206.059	305.33
206.278	-3874.42
206.496	-193.96
206.715	787.41
206.933	-527.42
207.151	3031.65
207.37	-350.96
207.588	5984.07
207.806	-274.43
208.025	-199.17
208.243	-112.51
208.461	-133.45
208.68	-319.04
208.898	-217.14
209.116	-81.12
209.335	-112.07
209.553	-141.6
209.771	-82.66
209.989	-29.8
210.208	-10.09
210.426	-24.45
210.644	-85.29
210.862	-29.89
211.081	-38.52
211.299	-31.9
211.517	-23.21
211.735	4.53
211.953	31.47
212.171	17.19
212.39	23.92
212.608	-2.37
212.826	28.56
213.044	34.76
213.262	23.72
213.48	18.29
213.698	15.77
213.916	23.04
214.134	29.25
214.352	29.12
214.57	16.3
214.788	-29.71
215.006	-43.6
215.224	-73.04
215.442	-59.75
215.66	-48.92
215.878	-46.56
216.096	-70.45
216.314	-99.13
216.532	-63.74
216.75	-41.07
216.968	14.3
217.185	16.93
217.403	46.13
217.621	55.12
217.839	50.91
218.057	52
218.275	43.68
218.492	35.94
218.71	63.28
218.928	37.43
219.146	24.07
219.363	-3.1
219.581	37.98
219.799	8.54
220.017	-3.46
220.234	3.4
220.452	-5.94
220.67	-6.69
220.887	31.38
221.105	10.84
221.323	8.92
221.54	17.24
221.758	1.18
221.976	-6.79
222.193	4.56
222.411	0.87
222.629	-3.03
222.846	-0.97
223.064	6.04
223.281	-26.27
223.499	-29.53
223.716	-8.72
223.934	-12.45
224.151	-13.51
224.369	-17.19
224.586	-4.22
224.804	1.58
225.021	-6.84
225.239	-0.91
225.456	1.91
225.674	15.37
225.891	29.68
226.108	16.36
226.326	16.61
226.543	23.28
226.76	22.44
226.978	16.62
227.195	21.71
227.413	19.47
227.63	15.86
227.847	11.3
228.064	11.5
228.282	12.93
228.499	12.38
228.716	8.45
228.934	4.27
229.151	3.7
229.368	5.66
229.585	3.18
229.802	5.23
230.02	7.87
230.237	8.74
230.454	7.06
230.671	8.87
230.888	8.8
231.105	11.42
231.323	17.12
231.54	19.64
231.757	19.89
231.974	15.93
232.191	18.19
232.408	14.99
232.625	8.86
232.842	13.28
233.059	2.59
233.276	-0.33
233.493	-1.38
233.71	0.22
233.927	-10.01
234.144	-14.21
234.361	-11.09
234.578	-10.31
234.795	-5.78
235.012	7.83
235.229	2.02
235.446	8.64
235.663	15.97
235.879	17.82
236.096	11.84
236.313	16.18
236.53	22.97
236.747	18.55
236.964	14.81
237.181	16.61
237.397	9.16
237.614	16.06
237.831	15.26
238.048	8.06
238.264	11.02
238.481	12.37
238.698	18.68
238.915	10.84
239.131	12.77
239.348	13.28
239.565	11.91
239.781	12.24
239.998	10.77
240.215	8.18
240.431	5.5
240.648	3.69
240.865	4.8
241.081	3.34
241.298	6.93
241.514	9.16
241.731	8.01
241.947	8.61
242.164	6.91
242.38	8.06
242.597	10.9
242.814	12.77
243.03	13.44
243.246	12.85
243.463	12.21
243.679	11.88
243.896	11.53
244.112	13.62
244.329	13.74
244.545	14.64
244.762	11.65
244.978	11.03
245.194	11.37
245.411	10.2
245.627	10.81
245.843	13.7
246.06	12.34
246.276	13.98
246.492	13.43
246.709	14.45
246.925	15.54
247.141	15.37
247.357	14.61
247.574	14.24
247.79	14.51
248.006	14.53
248.222	13.24
248.439	12.88
248.655	12.04
248.871	11.56
249.087	9.46
249.303	9.42
249.519	8.83
249.736	8.72
249.952	7.74
250.168	6.28
250.384	6.26
250.6	6.03
250.816	7.7
251.032	5.42
251.248	5.75
251.464	6.31
251.68	1.6
251.896	2.19
252.112	1.35
252.328	1.42
252.544	2.69
252.76	1.83
252.976	2.16
253.192	1.89
253.408	4.84
253.624	4.16
253.84	3.42
254.056	5.3
254.272	5.29
254.487	9.3
254.703	8.61
254.919	5.03
255.135	4.8
255.351	2.48
255.567	-0.53
255.782	-1.36
255.998	-1.3
256.214	1.11
256.43	0.42
256.646	4.19
256.861	4.79
257.077	7.14
257.293	9.38
257.508	9.78
257.724	9.68
257.94	9.51
258.155	8.08
258.371	8.81
258.587	7.96
258.802	9.92
259.018	9.04
259.234	7.54
259.449	7.76
259.665	7.65
259.88	8.49
260.096	9.25
260.312	9.85
260.527	10.52
260.743	10.62
260.958	10.78
261.174	9.93
261.389	9.82
261.605	10.27
261.82	9.16
262.036	9.93
262.251	8.17
262.466	7.9
262.682	7.76
262.897	4.11
263.113	3.81
263.328	2.5
263.543	2.64
263.759	3.08
263.974	0.86
264.189	0.61
264.405	-1.8
264.62	-0.2
264.835	-2.9
265.051	-2.04
265.266	1.26
265.481	2.3
265.696	2.77
265.912	1.57
266.127	0.56
266.342	1.69
266.557	5.52
266.773	5.41
266.988	6.27
267.203	8.05
267.418	7.41
267.633	7.45
267.848	6.45
268.064	7.21
268.279	10.04
268.494	9.89
268.709	9.36
268.924	7.5
269.139	8.28
269.354	7.79
269.569	7.92
269.784	7.08
269.999	8.41
270.214	9.07
270.429	8.52
270.644	6.11
270.859	6.6
271.074	7.19
271.289	8.14
271.504	8.76
271.719	9.25
271.934	9.61
272.149	9.91
272.363	10.15
272.578	9.91
272.793	10.67
273.008	10.95
273.223	11.29
273.438	11.05
273.653	10.36
273.867	9.83
274.082	9.71
274.297	9.05
274.512	9.43
274.726	8.26
274.941	7.8
275.156	6.43
275.371	6.88
275.585	5.89
275.8	5.3
276.015	3.78
276.229	4.09
276.444	3.49
276.659	3.03
276.873	0.64
277.088	0.43
277.302	1.04
277.517	2.72
277.732	1.47
277.946	1.41
278.161	2.65
278.375	5.51
278.59	3.8
278.804	1.72
279.019	1.45
279.233	3.05
279.448	4.06
279.662	4.28
279.877	1.87
280.091	2.37
280.306	2.1
280.52	2.14
280.735	2.26
280.949	3.51
281.163	4.68
281.378	5.82
281.592	5.29
281.806	5.2
282.021	3.86
282.235	6.25
282.449	7.73
282.664	8.35
282.878	8.61
283.092	8.65
283.307	9.56
283.521	10.15
283.735	10.22
283.949	10.22
284.164	10.09
284.378	10.64
284.592	10.48
284.806	9.47
285.02	10.41
285.234	10.11
285.449	9.97
285.663	8.46
285.877	8.35
286.091	7.69
286.305	9.12
286.519	8.77
286.733	8.89
286.947	8.42
287.161	8.74
287.375	8.87
287.589	8.88
287.803	8.7
288.017	9.65
288.231	9.99
288.445	9.9
288.659	7.94
288.873	8.84
289.087	8.81
289.301	8.98
289.515	9.79
289.729	7.9
289.943	7.42
290.157	7.64
290.371	7.64
290.584	7.6
290.798	7.79
291.012	8.83
291.226	8.86
291.44	9.81
291.654	9.5
291.867	8.09
292.081	8.13
292.295	9.12
292.509	9.16
292.722	10.04
292.936	11.24
293.15	12.35
293.364	13.81
293.577	12.74
293.791	11.12
294.005	11.78
294.218	13.89
294.432	13.8
294.645	13.3
294.859	12.5
295.073	12.19
295.286	11.58
295.5	11.73
295.713	10.84
295.927	9.83
296.14	10.07
296.354	10.47
296.568	9.94
296.781	10.99
296.994	11
297.208	11.48
297.421	10.22
297.635	8.88
297.848	9.89
298.062	8.91
298.275	10.14
298.489	10.72
298.702	10.27
298.915	11.17
299.129	10.5
299.342	10.9
299.555	10.69
299.769	12.41
299.982	14.53
300.195	12.55
300.409	13.29
300.622	12.63
300.835	12.9
301.048	12.82
301.262	12.81
301.475	13.89
301.688	13.27
301.901	12.14
302.115	11.75
302.328	11.13
302.541	11.87
302.754	12.87
302.967	12.58
303.18	11.27
303.393	10.66
303.607	9.25
303.82	8.81
304.033	8.81
304.246	10.47
304.459	10.84
304.672	10.83
304.885	9.92
305.098	9.16
305.311	10.36
305.524	10.83
305.737	9.28
305.95	9.67
306.163	9.17
306.376	8.72
306.589	7.89
306.802	6.56
307.015	7.14
307.228	7.71
307.44	7.87
307.653	7.75
307.866	8.48
308.079	10.29
308.292	10.8
308.505	10.75
308.718	12.09
308.93	11.77
309.143	12.85
309.356	12.24
309.569	12.88
309.781	13.89
309.994	14.63
310.207	13.87
310.42	14
310.632	13.53
310.845	12.18
311.058	11.76
311.27	12.48
311.483	11.71
311.696	11.17
311.908	10.73
312.121	9.27
312.333	8.42
312.546	8.48
312.759	8.18
312.971	9.3
313.184	10.54
313.396	10.4
313.609	10.21
313.821	11.17
314.034	10.99
314.246	9.75
314.459	11.16
314.671	10.32
314.884	10.53
315.096	11.33
315.309	8.01
315.521	6.85
315.733	6.87
315.946	6.48
316.158	5.54
316.371	6.24
316.583	6.8
316.795	7.71
317.008	8.71
317.22	8.06
317.432	6.15
317.644	8.25
317.857	10.25
318.069	9.33
318.281	10.99
318.494	12.02
318.706	12.28
318.918	13.08
319.13	10.94
319.342	10.9
319.555	11.98
319.767	12.69
319.979	11.49
320.191	11.38
320.403	11.76
320.615	10.49
320.827	9.99
321.039	9.28
321.252	7.89
321.464	9.04
321.676	8.79
321.888	8.13
322.1	7.66
322.312	8.65
322.524	9.23
322.736	9.29
322.948	7.68
323.16	8.83
323.372	7.71
323.584	9.38
323.796	7.81
324.007	6.61
324.219	5.97
324.431	6.88
324.643	6.5
324.855	5.94
325.067	6.06
325.279	7.12
325.491	6.08
325.702	8.74
325.914	8.73
326.126	9.75
326.338	11.08
326.55	11.87
326.761	12.71
326.973	13.48
327.185	12.98
327.396	13.88
327.608	14.5
327.82	14.06
328.032	11.77
328.243	12.08
328.455	12.48
328.666	11.67
328.878	11.66
329.09	10.19
329.301	8.77
329.513	10.38
329.725	9.92
329.936	7.58
330.148	6.64
330.359	8.08
330.571	8.66
330.782	9.78
330.994	9.95
331.205	9.04
331.417	8.31
331.628	8.24
331.84	7.43
332.051	7.53
332.262	9.76
332.474	10.92
332.685	11.02
332.897	9.16
333.108	7.28
333.319	8.21
333.531	9.46
333.742	10.91
333.953	12.27
334.165	12.51
334.376	11.65
334.587	10.68
334.799	9.63
335.01	9.2
335.221	8.62
335.432	9.98
335.644	9.43
335.855	8.8
336.066	8.43
336.277	6.25
336.488	5.1
336.7	6.52
336.911	6.22
337.122	6.24
337.333	6.38
337.544	5.8
337.755	4.98
337.966	5.23
338.177	5.62
338.388	4.65
338.599	6.51
338.811	7.02
339.022	6
339.233	6.66
339.444	7.01
339.655	6.15
339.866	7.08
340.076	8.01
340.287	8.5
340.498	8.35
340.709	10.21
340.92	9.48
341.131	9.23
341.342	9.81
341.553	9.4
341.764	8.3
341.975	8.18
342.185	8.57
342.396	7.93
342.607	7.43
342.818	8.24
343.029	7.01
343.239	8
343.45	8.04
343.661	6.88
343.872	6.98
344.082	8.26
344.293	8.73
344.504	9.47
344.714	8.15
344.925	7.94
345.136	6.62
345.346	6.66
345.557	6.49
345.768	5.88
345.978	7.16
346.189	8.09
346.399	8.02
346.61	7.48
346.821	7.15
347.031	8.78
347.242	9.44
347.452	11.14
347.663	11.67
347.873	10.7
348.084	10.37
348.294	9.71
348.504	10.43
348.715	10.16
348.925	11.51
349.136	10.57
349.346	10.5
349.557	9.28
349.767	7.5
349.977	6.48
350.188	7.14
350.398	7.63
350.608	7.41
350.819	5.85
351.029	5.32
351.239	5.06
351.449	6.07
351.66	5.02
351.87	6.88
352.08	7.92
352.29	8.64
352.501	7.9
352.711	8.95
352.921	8.17
353.131	8.76
353.341	9.32
353.552	9.35
353.762	8.82
353.972	9.49
354.182	8.43
354.392	9.1
354.602	9.54
354.812	9.33
355.022	8.45
355.232	9.8
355.442	10.07
355.652	11.08
355.862	10.49
356.072	9.28
356.282	8.44
356.492	8.46
356.702	8.39
356.912	7.93
357.122	8.68
357.332	8.63
357.542	8.27
357.752	6.95
357.962	6.11
358.171	6.48
358.381	7.19
358.591	7.5
358.801	7.64
359.011	6.87
359.221	6.83
359.43	6.69
359.64	6.8
359.85	6.54
360.06	7.23
360.269	7.33
360.479	7.96
360.689	8.25
360.899	8.44
361.108	8.16
361.318	8.86
361.528	9.18
361.737	9.08
361.947	9.17
362.156	9.72
362.366	9.59
362.576	9.86
362.785	8.89
362.995	8.65
363.204	8.28
363.414	8.42
363.623	7.4
363.833	7.24
364.042	7.3
364.252	6.58
364.461	6.98
364.671	7.2
364.88	7.1
365.09	7.03
365.299	7.3
365.509	8.24
365.718	7.5
365.927	7.73
366.137	7.14
366.346	7.01
366.555	7.34
366.765	6.43
366.974	6.18
367.183	5.38
367.393	6.85
367.602	6.82
367.811	5.96
368.021	6.76
368.23	6.63
368.439	6.62
368.648	6.69
368.857	6.62
369.067	6.71
369.276	7.33
369.485	8.42
369.694	8.07
369.903	8.36
370.112	8.4
370.321	8.18
370.531	8.57
370.74	9.11
370.949	9.09
371.158	9.65
371.367	9.27
371.576	8.6
371.785	8.61
371.994	7.45
372.203	6.98
372.412	7.02
372.621	7.46
372.83	7.2
373.039	6.79
373.248	6.91
373.457	7.01
373.666	6.71
373.874	6.41
374.083	5.69
374.292	6.04
374.501	6.04
374.71	6.44
374.919	6.03
375.128	5.74
375.336	5.36
375.545	5.05
375.754	4.44
375.963	4.28
376.171	3.92
376.38	3.9
376.589	3.77
376.798	4.23
377.006	3.95
377.215	3.66
377.424	3.96
377.632	4.69
377.841	4.67
378.05	4.93
378.258	5.5
378.467	6.41
378.675	6.51
378.884	6.95
379.093	7.08
379.301	7.19
379.51	7.48
379.718	6.66
379.927	6.32
380.135	6.05
380.344	5.69
380.552	5.51
380.761	5.31
380.969	5.07
381.177	4.48
381.386	3.95
381.594	4.05
381.803	3.75
382.011	4.3
382.219	4.26
382.428	4.59
382.636	4.56
382.845	4.59
383.053	4.6
383.261	5.02
383.469	5.26
383.678	5.2
383.886	4.64
384.094	4.72
384.302	4.76
384.511	4.48
384.719	4.41
384.927	4.75
385.135	4.43
385.343	3.62
385.552	3.27
385.76	3.6
385.968	3.11
386.176	3.6
386.384	3.49
386.592	3.5
386.8	3.85
387.008	3.46
387.216	3.15
387.424	3.17
387.633	3.7
387.841	3.95
388.049	3.45
388.257	3.56
388.465	3.33
388.672	3.69
388.88	3.65
389.088	3.64
389.296	4.04
389.504	3.83
389.712	3.82
389.92	3.78
390.128	4.05
390.336	4.56
390.544	4.81
390.751	4.6
390.959	4.29
391.167	4.12
391.375	4.25
391.583	4.19
391.79	4.68
391.998	4.71
392.206	4.8
392.414	4.15
392.621	3.53
392.829	3.47
393.037	4.01
393.244	3.88
393.452	4.15
393.66	3.76
393.867	3.35
394.075	3.11
394.283	2.96
394.49	3.21
394.698	3.3
394.905	3.22
395.113	3.08
395.32	2.92
395.528	2.86
395.735	2.96
395.943	3.07
396.15	3.36
396.358	3.29
396.565	3.59
396.773	3.22
396.98	3.14
397.188	3.63
397.395	3.59
397.602	3.12
397.81	3.31
398.017	3.08
398.225	3.23
398.432	3.24
398.639	3.31
398.847	3.43
399.054	3.25
399.261	3.63
399.468	3.31
399.676	3.52
399.883	3.69
400.09	3.57
400.297	3.73
400.505	3.14
400.712	2.92
400.919	3.11
401.126	2.9
401.333	2.93
401.54	2.52
401.748	2.56
401.955	2.65
402.162	2.67
402.369	2.65
402.576	2.7
402.783	2.94
402.99	3.45
403.197	3.06
403.404	2.76
403.611	2.66
403.818	2.86
404.025	3.11
404.232	3.13
404.439	2.97
404.646	3.07
404.853	2.7
405.06	2.89
405.267	2.55
405.474	2.43
405.681	2.84
405.887	3.06
406.094	2.91
406.301	2.66
406.508	2.66
406.715	2.99
406.922	2.81
407.128	2.98
407.335	3.17
407.542	3.12
407.749	3.31
407.955	2.8
408.162	2.69
408.369	2.49
408.575	2.48
408.782	2.06
408.989	1.65
409.195	1.51
409.402	1.36
409.609	1.15
409.815	1.56
410.022	1.48
410.228	1.89
410.435	1.99
410.642	2.16
410.848	2.16
411.055	2.16
411.261	2.35
411.468	2.69
411.674	2.62
411.881	2.81
412.087	2.52
412.294	2.66
412.5	2.36
412.706	2.31
412.913	2.31
413.119	2.52
413.326	2.76
413.532	2.65
413.738	2.68
413.945	2.66
414.151	2.42
414.357	2.41
414.564	2.18
414.77	2.5
414.976	2.28
415.182	2.67
415.389	2.46
415.595	2.52
415.801	2.44
416.007	2.28
416.214	2.48
416.42	2.45
416.626	2.55
416.832	2.72
417.038	2.72
417.244	2.91
417.45	2.73
417.657	2.83
417.863	2.7
418.069	2.84
418.275	2.88
418.481	3
418.687	3.01
418.893	3
419.099	3.06
419.305	3.06
419.511	3.06
419.717	2.94
419.923	3.03
420.129	3.09
420.335	3.1
420.541	3.15
420.746	3.09
420.952	3.09
421.158	3.15
421.364	3.2
421.57	3.11
421.776	3.13
421.982	3.15
422.187	2.98
422.393	2.95
422.599	2.98
422.805	2.94
423.01	2.78
423.216	2.93
423.422	2.91
423.628	2.77
423.833	2.76
424.039	2.73
424.245	2.7
424.45	2.72
424.656	2.75
424.862	2.72
425.067	2.75
425.273	2.9
425.478	2.68
425.684	2.57
425.889	2.56
426.095	2.58
426.301	2.42
426.506	2.52
426.712	2.69
426.917	2.53
427.123	2.6
427.328	2.51
427.533	2.57
427.739	2.51
427.944	2.51
428.15	2.68
428.355	2.58
428.561	2.69
428.766	2.51
428.971	2.56
429.177	2.73
429.382	2.57
429.587	2.68
429.793	2.46
429.998	2.74
430.203	2.73
430.408	2.86
430.614	2.98
430.819	2.87
431.024	2.85
431.229	2.67
431.434	2.7
431.64	2.67
431.845	2.5
432.05	2.5
432.255	2.34
432.46	2.52
432.665	2.23
432.87	2.36
433.076	2.43
433.281	2.55
433.486	2.45
433.691	2.45
433.896	2.39
434.101	2.39
434.306	2.41
434.511	2.39
434.716	2.12
434.921	2.16
435.126	1.93
435.331	1.99
435.535	1.96
435.74	2.04
435.945	2.01
436.15	2.19
436.355	2.44
436.56	2.49
436.765	2.42
436.97	2.54
437.174	2.45
437.379	2.58
437.584	2.67
437.789	2.92
437.993	3.07
438.198	3.18
438.403	3.2
438.608	3.2
438.812	3.15
439.017	3.08
439.222	3.25
439.426	3.28
439.631	3.21
439.836	3.11
440.04	2.89
440.245	2.77
440.45	2.5
440.654	2.55
440.859	2.48
441.063	2.43
441.268	2.52
441.472	2.29
441.677	2.4
441.881	2.3
442.086	2.29
442.29	2.26
442.495	2.21
442.699	2.33
442.904	2.09
443.108	2.06
443.312	2.09
443.517	1.91
443.721	1.92
443.925	1.78
444.13	2.02
444.334	2.12
444.538	2.32
444.743	2.23
444.947	2.22
445.151	2.37
445.356	2.38
445.56	2.45
445.764	2.63
445.968	2.7
446.173	2.72
446.377	2.58
446.581	2.62
446.785	2.53
446.989	2.5
447.193	2.46
447.398	2.42
447.602	2.33
447.806	2.31
448.01	2.44
448.214	2.38
448.418	2.39
448.622	2.44
448.826	2.32
449.03	2.14
449.234	2.21
449.438	2.36
449.642	2.34
449.846	2.51
450.05	2.47
450.254	2.3
450.458	2.29
450.662	2.45
450.866	2.45
451.069	2.51
451.273	2.58
451.477	2.77
451.681	2.74
451.885	2.63
452.089	2.53
452.292	2.54
452.496	2.45
452.7	2.42
452.904	1.95
453.107	1.89
453.311	1.74
453.515	1.82
453.719	1.83
453.922	1.77
454.126	1.87
454.33	1.78
454.533	1.7
454.737	1.66
454.94	1.74
455.144	2.16
455.348	2.23
455.551	2.27
455.755	2.22
455.958	1.96
456.162	1.87
456.365	1.98
456.569	1.93
456.772	1.98
456.976	2.19
457.179	2.27
457.383	2.21
457.586	2.17
457.79	2.09
457.993	2.01
458.196	2.07
458.4	2.11
458.603	1.97
458.807	2.15
459.01	2.22
459.213	2.1
459.417	1.96
459.62	1.99
459.823	2.04
460.026	1.99
460.23	2.06
460.433	2.03
460.636	2
460.839	2.1
461.042	2.05
461.246	1.98
461.449	2.09
461.652	2.15
461.855	2.15
462.058	2.02
462.261	2.11
462.464	2.15
462.668	2.23
462.871	2.23
463.074	1.98
463.277	1.94
463.48	1.92
463.683	1.79
463.886	1.95
464.089	1.75
464.292	1.66
464.495	1.79
464.698	1.64
464.901	1.61
465.104	1.6
465.306	1.84
465.509	2
465.712	2.14
465.915	2.19
466.118	2.01
466.321	2.12
466.524	2.38
466.726	2.55
466.929	2.87
467.132	3
467.335	3.28
467.538	3.24
467.74	2.84
467.943	2.6
468.146	2.7
468.348	2.58
468.551	2.63
468.754	2.54
468.956	2.3
469.159	2.32
469.362	2.22
469.564	2.09
469.767	1.97
469.969	2.34
470.172	2.67
470.375	2.48
470.577	2.72
470.78	2.87
470.982	2.91
471.185	3.18
471.387	2.77
471.59	2.81
471.792	2.82
471.995	2.88
472.197	2.62
472.399	2.39
472.602	2.49
472.804	2.24
473.007	2.09
473.209	2.01
473.411	1.72
473.614	1.76
473.816	1.77
474.018	1.6
474.22	1.38
474.423	1.49
474.625	1.39
474.827	1.36
475.03	1.4
475.232	1.35
475.434	1.2
475.636	1.16
475.838	1.41
476.04	1.44
476.243	1.55
476.445	1.89
476.647	2.01
476.849	2.16
477.051	1.98
477.253	2.01
477.455	2.03
477.657	2.29
477.859	2.48
478.061	2.29
478.263	2.19
478.465	2.35
478.667	2.18
478.869	2.14
479.071	2.01
479.273	2.2
479.475	2.28
479.677	2.27
479.879	2.32
480.081	2.24
480.283	2.3
480.485	2.32
480.686	2.14
480.888	2.28
481.09	2.28
481.292	2.42
481.494	2.44
481.695	2.42
481.897	2.48
482.099	2.46
482.301	2.51
482.502	2.45
482.704	2.43
482.906	2.32
483.107	2.35
483.309	2.3
483.511	2.28
483.712	2.23
483.914	2.22
484.115	2.2
484.317	2.19
484.519	2.12
484.72	2.1
484.922	2.09
485.123	2.13
485.325	2.05
485.526	2.02
485.728	1.94
485.929	1.95
486.131	1.94
486.332	1.87
486.534	1.81
486.735	1.83
486.936	1.94
487.138	2.01
487.339	1.99
487.541	1.94
487.742	1.99
487.943	2.1
488.144	2.08
488.346	2.07
488.547	2.11
488.748	2.11
488.95	2.1
489.151	2.07
489.352	2
489.553	2.12
489.755	2.2
489.956	2.27
490.157	2.24
490.358	2.33
490.559	2.37
490.76	2.41
490.961	2.35
491.163	2.47
491.364	2.42
491.565	2.38
491.766	2.29
491.967	2.3
492.168	2.24
492.369	2.17
492.57	2.19
492.771	2.17
492.972	2.18
493.173	2.32
493.374	2.16
493.575	2.22
493.776	2.31
493.976	2.2
494.177	2.27
494.378	2.1
494.579	2.22
494.78	2.05
494.981	1.92
495.182	1.88
495.382	1.81
495.583	2.03
495.784	2.15
495.985	2.05
496.185	2.22
496.386	2.17
496.587	2.25
496.788	2.18
496.988	2.25
497.189	2.41
497.39	2.2
497.59	2.42
497.791	2.36
497.992	2.08
498.192	2.07
498.393	2.16
498.593	2.09
498.794	2.04
498.994	2.1
499.195	2.1
499.395	2.13
499.596	2.22
499.796	1.83
499.997	1.9
500.197	1.99
500.398	2.06
500.598	1.99
500.799	2.12
500.999	2.11
501.199	1.91
501.4	1.87
501.6	1.69
501.801	1.92
502.001	2.24
502.201	2
502.402	2.06
502.602	2.06
502.802	1.93
503.002	1.91
503.203	2.07
503.403	2.3
503.603	2.46
503.803	2.64
504.003	2.5
504.204	2.14
504.404	2.26
504.604	2.27
504.804	2.37
505.004	2.36
505.204	2.4
505.404	2.36
505.604	2.34
505.804	2.18
506.005	2.09
506.205	2.06
506.405	2.11
506.605	2.06
506.805	2.02
507.005	1.99
507.204	2.2
507.404	2.09
507.604	2.22
507.804	2.31
508.004	2.25
508.204	2.42
508.404	2.52
508.604	2.73
508.804	2.74
509.003	2.8
509.203	2.7
509.403	2.63
509.603	2.71
509.803	2.67
510.002	2.66
510.202	2.76
510.402	2.63
510.602	2.65
510.801	2.54
511.001	2.56
511.201	2.53
511.4	2.73
511.6	2.65
511.8	2.6
511.999	2.53
512.199	2.5
512.398	2.59
512.598	2.74
512.797	2.73
512.997	2.69
513.197	2.71
513.396	2.73
513.596	2.55
513.795	2.64
513.994	2.73
514.194	2.8
514.393	2.71
514.593	2.64
514.792	2.56
514.992	2.61
515.191	2.77
515.39	2.79
515.59	2.75
515.789	2.84
515.988	2.87
516.188	2.94
516.387	2.96
516.586	3.02
516.786	3.02
516.985	3.04
517.184	2.91
517.383	2.88
517.582	2.82
517.782	2.97
517.981	2.96
518.18	2.9
518.379	2.81
518.578	2.79
518.777	2.78
518.976	2.84
519.176	2.93
519.375	3.02
519.574	2.94
519.773	3.01
519.972	2.87
520.171	2.87
520.37	2.95
520.569	3.01
520.768	2.99
520.967	3.1
521.166	3.05
521.365	2.84
521.564	2.84
521.762	2.93
521.961	3.01
522.16	3.09
522.359	3.19
522.558	3.16
522.757	3.16
522.956	3.12
523.154	3.05
523.353	3.24
523.552	3.24
523.751	3.31
523.949	3.33
524.148	3.1
524.347	3.12
524.546	3.21
524.744	3.35
524.943	3.37
525.142	3.49
525.34	3.43
525.539	3.31
525.737	3.34
525.936	3.35
526.135	3.48
526.333	3.67
526.532	3.51
526.73	3.41
526.929	3.39
527.127	3.34
527.326	3.28
527.524	3.4
527.723	3.39
527.921	3.39
528.12	3.37
528.318	3.28
528.516	3.29
528.715	3.44
528.913	3.43
529.112	3.37
529.31	3.42
529.508	3.48
529.707	3.45
529.905	3.53
530.103	3.46
530.301	3.48
530.5	3.53
530.698	3.49
530.896	3.45
531.094	3.51
531.293	3.73
531.491	3.76
531.689	3.78
531.887	3.73
532.085	3.68
532.283	3.78
532.481	3.8
532.68	3.8
532.878	3.89
533.076	3.94
533.274	3.96
533.472	3.91
533.67	3.87
533.868	3.93
534.066	3.98
534.264	3.97
534.462	4.03
534.66	4.12
534.858	4.16
535.056	4.14
535.253	4.17
535.451	4.16
535.649	4.11
535.847	4.19
536.045	4.17
536.243	4.24
536.441	4.37
536.638	4.41
536.836	4.45
537.034	4.5
537.232	4.51
537.43	4.5
537.627	4.59
537.825	4.61
538.023	4.64
538.22	4.58
538.418	4.61
538.616	4.45
538.813	4.52
539.011	4.52
539.209	4.41
539.406	4.22
539.604	4.26
539.801	4.28
539.999	4.36
540.196	4.39
540.394	4.51
540.591	4.52
540.789	4.64
540.986	4.65
541.184	4.64
541.381	4.77
541.579	4.99
541.776	4.95
541.974	4.94
542.171	4.91
542.368	4.96
542.566	4.93
542.763	4.94
542.96	4.95
543.158	4.95
543.355	5
543.552	4.92
543.75	4.93
543.947	4.99
544.144	5.04
544.341	5.05
544.539	4.98
544.736	5.07
544.933	5.12
545.13	5.04
545.327	5.02
545.524	5.04
545.722	4.99
545.919	4.84
546.116	4.88
546.313	4.8
546.51	4.83
546.707	4.85
546.904	4.74
547.101	4.84
547.298	5.08
547.495	5.11
547.692	5.08
547.889	5.21
548.086	5.43
548.283	5.38
548.48	5.56
548.677	5.71
548.874	5.76
549.07	5.79
549.267	5.65
549.464	5.52
549.661	5.49
549.858	5.57
550.055	5.58
550.251	5.5
550.448	5.42
550.645	5.36
550.842	5.45
551.038	5.54
551.235	5.57
551.432	5.77
551.628	5.68
551.825	5.9
552.022	5.9
552.218	5.89
552.415	5.98
552.612	6.22
552.808	6.34
553.005	6.27
553.201	6.34
553.398	6.49
553.594	6.49
553.791	6.62
553.987	6.54
554.184	6.53
554.38	6.53
554.577	6.48
554.773	6.43
554.97	6.27
555.166	6.5
555.362	6.34
555.559	6.27
555.755	6.3
555.952	6.38
556.148	6.55
556.344	6.71
556.541	6.83
556.737	6.94
556.933	6.98
557.129	6.89
557.326	6.85
557.522	7.07
557.718	7.16
557.914	7.1
558.11	7.1
558.307	6.92
558.503	6.69
558.699	6.83
558.895	6.76
559.091	6.89
559.287	7.09
559.483	7
559.679	6.9
559.876	6.98
560.072	7.14
560.268	6.92
560.464	6.72
560.66	6.77
560.856	6.62
561.052	6.59
561.247	6.42
561.443	6.48
561.639	6.47
561.835	6.54
562.031	6.65
562.227	6.62
562.423	6.92
562.619	7.26
562.815	7.5
563.01	7.53
563.206	7.56
563.402	7.89
563.598	7.9
563.793	7.88
563.989	7.87
564.185	7.9
564.381	7.74
564.576	7.64
564.772	7.52
564.968	7.4
565.163	7.48
565.359	7.72
565.555	7.62
565.75	7.66
565.946	7.66
566.141	7.66
566.337	7.66
566.532	7.81
566.728	7.85
566.923	7.84
567.119	8.03
567.314	7.99
567.51	7.75
567.705	7.65
567.901	7.72
568.096	7.9
568.292	8.01
568.487	7.89
568.682	7.79
568.878	7.95
569.073	8.04
569.268	7.95
569.464	8.14
569.659	8.44
569.854	8.56
570.05	8.49
570.245	8.37
570.44	8.21
570.635	8.34
570.831	8.54
571.026	8.5
571.221	8.6
571.416	8.67
571.611	8.73
571.806	8.69
572.002	8.88
572.197	9.19
572.392	9.21
572.587	9.16
572.782	9.2
572.977	9.18
573.172	9.1
573.367	9.18
573.562	9.12
573.757	9.04
573.952	8.9
574.147	8.63
574.342	8.23
574.537	8.19
574.732	8.37
574.927	8.33
575.121	8.27
575.316	8.4
575.511	8.46
575.706	8.66
575.901	8.75
576.096	8.92
576.29	9.06
576.485	9.21
576.68	9.25
576.875	9.4
577.069	9.45
577.264	9.54
577.459	9.39
577.654	9.23
577.848	9.1
578.043	9.18
578.238	9.21
578.432	8.98
578.627	9.27
578.821	9.41
579.016	9.49
579.21	9.46
579.405	9.52
579.6	9.62
579.794	9.67
579.989	9.66
580.183	9.54
580.378	9.42
580.572	9.69
580.766	9.55
580.961	9.53
581.155	9.48
581.35	9.44
581.544	9.5
581.738	9.48
581.933	9.7
582.127	10.02
582.321	10.09
582.516	10.38
582.71	10.27
582.904	10.04
583.099	10.23
583.293	10.35
583.487	10.54
583.681	10.36
583.875	10.66
584.07	10.61
584.264	10.44
584.458	10.44
584.652	10
584.846	10.16
585.04	10.24
585.234	10.11
585.428	9.9
585.623	9.71
585.817	9.72
586.011	9.77
586.205	9.56
586.399	9.28
586.593	8.8
586.787	8.93
586.981	8.92
587.174	8.85
587.368	8.82
587.562	8.78
587.756	8.72
587.95	8.87
588.144	8.85
588.338	9
588.532	8.99
588.725	9.33
588.919	9.76
589.113	9.75
589.307	10
589.501	10.34
589.694	10.52
589.888	10.78
590.082	10.79
590.275	10.69
590.469	10.52
590.663	10.65
590.856	10.96
591.05	10.72
591.244	10.68
591.437	10.58
591.631	10.38
591.824	10.19
592.018	10.13
592.212	9.87
592.405	9.79
592.599	10.01
592.792	10.19
592.986	9.87
593.179	9.8
593.372	9.75
593.566	9.72
593.759	9.58
593.953	9.57
594.146	9.36
594.339	9.67
594.533	9.81
594.726	9.65
594.92	9.65
595.113	9.65
595.306	9.76
595.499	10.09
595.693	10.37
595.886	10.58
596.079	10.71
596.272	10.96
596.466	10.82
596.659	10.71
596.852	10.78
597.045	10.71
597.238	10.78
597.431	10.48
597.624	10.38
597.818	10.14
598.011	9.84
598.204	9.65
598.397	9.38
598.59	9.57
598.783	9.66
598.976	9.57
599.169	9.46
599.362	9.25
599.555	9.39
599.748	9.35
599.941	9.35
600.134	9.42
600.326	9.58
600.519	9.83
600.712	9.52
600.905	9.54
601.098	9.62
601.291	9.72
601.483	9.68
601.676	9.96
601.869	10.01
602.062	10.31
602.255	10.6
602.447	10.56
602.64	10.36
602.833	10.41
603.025	10.39
603.218	10.3
603.411	10.3
603.603	10.54
603.796	10.42
603.989	10.4
604.181	10.25
604.374	10.02
604.566	10.07
604.759	10.18
604.951	10.32
605.144	10.24
605.336	10.31
605.529	10.35
605.721	10.3
605.914	10.31
606.106	10.26
606.299	10.32
606.491	10.47
606.683	10.56
606.876	10.39
607.068	10.32
607.26	10.47
607.453	10.7
607.645	10.65
607.837	10.77
608.03	10.65
608.222	10.6
608.414	10.66
608.606	10.57
608.799	10.41
608.991	10.46
609.183	10.5
609.375	10.46
609.567	10.49
609.759	10.62
609.952	10.58
610.144	10.81
610.336	11.04
610.528	10.72
610.72	10.63
610.912	10.8
611.104	11.09
611.296	11.04
611.488	11.04
611.68	10.65
611.872	10.34
612.064	10.63
612.256	10.55
612.448	10.57
612.64	10.93
612.832	11.01
613.023	11.03
613.215	10.97
613.407	10.71
613.599	10.93
613.791	11.21
613.983	11.45
614.174	11.16
614.366	11.1
614.558	10.53
614.75	10.54
614.941	10.85
615.133	10.55
615.325	10.63
615.516	10.93
615.708	10.55
615.9	10.41
616.091	10.36
616.283	10.29
616.475	10.08
616.666	10.47
616.858	10.38
617.049	10.23
617.241	10.15
617.432	9.94
617.624	9.81
617.815	9.92
618.007	10
618.198	10.41
618.39	10.4
618.581	10.64
618.773	10.5
618.964	10.36
619.155	10.51
619.347	11.04
619.538	11.08
619.729	11.15
619.921	11.16
620.112	11.45
620.303	11.36
620.494	11.21
620.686	11.2
620.877	11.16
621.068	11.22
621.259	11.06
621.451	10.83
621.642	10.87
621.833	10.86
622.024	11.04
622.215	10.89
622.406	10.89
622.597	11.31
622.788	11.18
622.98	11.17
623.171	11.22
623.362	11.18
623.553	11
623.744	10.78
623.935	10.69
624.126	10.91
624.317	10.88
624.508	10.53
624.698	10.39
624.889	10.47
625.08	10.52
625.271	10.68
625.462	10.72
625.653	11.12
625.844	11.01
626.034	10.87
626.225	10.84
626.416	10.81
626.607	10.92
626.798	10.88
626.988	10.84
627.179	11.17
627.37	11.03
627.56	11.09
627.751	11.08
627.942	11.37
628.132	11.5
628.323	11.4
628.514	11.37
628.704	11.38
628.895	11.11
629.085	11.39
629.276	11
629.466	11.29
629.657	11.05
629.847	10.72
630.038	10.49
630.228	10.71
630.419	10.55
630.609	10.55
630.8	10.77
630.99	11.31
631.181	11.33
631.371	11.36
631.561	11.26
631.752	11.52
631.942	11.47
632.132	11.62
632.323	11.59
632.513	11.86
632.703	12.13
632.893	11.84
633.084	11.47
633.274	11.21
633.464	11.24
633.654	10.98
633.844	10.71
634.034	10.91
634.225	11.03
634.415	10.92
634.605	10.72
634.795	10.04
634.985	10.17
635.175	10.25
635.365	10.15
635.555	10.46
635.745	10.52
635.935	10.58
636.125	10.74
636.315	10.74
636.505	11.03
636.695	11
636.885	11.62
637.075	11.8
637.265	11.9
637.455	12
637.644	11.8
637.834	12.1
638.024	12.28
638.214	12.09
638.404	12.43
638.593	12.42
638.783	12.25
638.973	11.99
639.163	11.56
639.352	11.09
639.542	11.42
639.732	11.27
639.921	11.03
640.111	10.86
640.301	10.95
640.49	10.85
640.68	10.68
640.87	11
641.059	11.24
641.249	11.6
641.438	11.88
641.628	11.47
641.817	11.78
642.007	12.16
642.196	12.25
642.386	12.18
642.575	12.02
642.764	11.76
642.954	11.59
643.143	11.63
643.333	11.41
643.522	11.68
643.711	11.93
643.901	11.99
644.09	11.29
644.279	11.44
644.469	11.28
644.658	11.04
644.847	11.2
645.036	10.99
645.226	10.88
645.415	10.85
645.604	10.53
645.793	10.34
645.982	10.19
646.171	10.42
646.361	10.6
646.55	11.04
646.739	10.98
646.928	11.04
647.117	11.15
647.306	11.12
647.495	10.98
647.684	11.09
647.873	11.23
648.062	11.25
648.251	11.34
648.44	11.54
648.629	11.14
648.818	11.34
649.007	11.41
649.196	11.69
649.384	11.54
649.573	11.67
649.762	11.67
649.951	11.9
650.14	11.91
650.328	12.27
650.517	11.85
650.706	12.24
650.895	12.02
651.083	11.77
651.272	11.74
651.461	12.17
651.65	12.2
651.838	12.38
652.027	12.25
652.216	12.01
652.404	11.51
652.593	11.2
652.781	10.99
652.97	11.34
653.158	11.39
653.347	11.57
653.535	11.5
653.724	11.28
653.912	11.22
654.101	11.27
654.289	11.41
654.478	11.67
654.666	11.86
654.855	12.05
655.043	12.09
655.231	12.27
655.42	12.4
655.608	12.55
655.796	12.88
655.985	12.85
656.173	12.67
656.361	12.78
656.55	12.79
656.738	13.26
656.926	13.12
657.114	12.67
657.302	12.93
657.491	13.02
657.679	12.38
657.867	12.29
658.055	12.74
658.243	12.53
658.431	12.51
658.619	12.34
658.807	12.51
658.996	12.38
659.184	12.62
659.372	12.47
659.56	12.1
659.748	12.55
659.936	12.67
660.124	12.3
660.311	12.45
660.499	12.34
660.687	12.53
660.875	12.17
661.063	12.37
661.251	12.12
661.439	12.18
661.627	11.86
661.814	11.64
662.002	11.84
662.19	11.76
662.378	11.85
662.565	11.49
662.753	11.58
662.941	11.61
663.129	10.91
663.316	11.08
663.504	10.58
663.692	11.22
663.879	11.25
664.067	10.66
664.254	10.9
664.442	11.18
664.63	11.49
664.817	11.3
665.005	11.22
665.192	11.66
665.38	11.83
665.567	12.27
665.755	11.94
665.942	11.8
666.13	11.93
666.317	11.53
666.504	11.17
666.692	11.31
666.879	11.6
667.067	11.87
667.254	12.46
667.441	12.58
667.629	12.49
667.816	12.28
668.003	12.79
668.19	12.52
668.378	12.36
668.565	12.69
668.752	12.72
668.939	12.58
669.127	12.33
669.314	12.08
669.501	12.4
669.688	12.44
669.875	12.53
670.062	12.48
670.249	12.6
670.436	12.31
670.623	12.48
670.81	12.48
670.997	12.34
671.184	12.01
671.371	11.46
671.558	11.2
671.745	11.35
671.932	11.4
672.119	11.46
672.306	11.72
672.493	12.48
672.68	12
672.867	11.96
673.054	11.52
673.24	12.22
673.427	12.34
673.614	12.03
673.801	11.82
673.988	12.31
674.174	11.76
674.361	11.58
674.548	11.87
674.734	11.86
674.921	12.08
675.108	12.92
675.294	12.33
675.481	12.78
675.668	12.72
675.854	13.16
676.041	13.17
676.227	13.32
676.414	13.38
676.601	12.93
676.787	12.78
676.974	12.74
677.16	12.53
677.347	12.81
677.533	12.56
677.719	12.04
677.906	11.99
678.092	11.79
678.279	12
678.465	12.04
678.651	12.21
678.838	12.59
679.024	12.46
679.21	12.1
679.397	12.12
679.583	12.27
679.769	12.75
679.955	12.85
680.142	12.97
680.328	12.95
680.514	12.73
680.7	12.66
680.886	12.21
681.073	12.28
681.259	12.47
681.445	12.34
681.631	12.66
681.817	12.67
682.003	12.53
682.189	12.57
682.375	12.44
682.561	13.25
682.747	13.38
682.933	13.85
683.119	13.92
683.305	13.58
683.491	13.96
683.677	13.48
683.863	14
684.049	13.67
684.235	13.24
684.42	13.2
684.606	12.78
684.792	13.01
684.978	13.11
685.164	13.64
685.349	13.91
685.535	13.61
685.721	13.55
685.907	13.48
686.092	13.69
686.278	14.04
686.464	13.5
686.649	13.56
686.835	12.81
687.021	12.76
687.206	12.1
687.392	11.82
687.577	11.65
687.763	12.02
687.948	11.77
688.134	12.32
688.319	12.09
688.505	12.81
688.69	12.54
688.876	12.98
689.061	12.91
689.247	12.94
689.432	13.69
689.618	13.88
689.803	13.79
689.988	13.75
690.174	13
690.359	13.23
690.544	13.09
690.73	13.44
690.915	13.14
691.1	13.62
691.285	13.58
691.471	13.24
691.656	13.29
691.841	13.68
692.026	13.69
692.211	14.16
692.396	13.98
692.582	13.83
692.767	13.82
692.952	14.24
693.137	14.06
693.322	14.05
693.507	13.96
693.692	13.91
693.877	12.74
694.062	12.48
694.247	12.12
694.432	12.77
694.617	12.92
694.802	12.95
694.987	12.45
695.172	11.99
695.357	12.05
695.541	12.65
695.726	12.48
695.911	13.18
696.096	13.27
696.281	13.3
696.466	12.57
696.65	12.35
696.835	12.06
697.02	11.93
697.204	12.02
697.389	11.86
697.574	11.83
697.759	11.9
697.943	12.26
698.128	12.4
698.312	12.28
698.497	12.49
698.682	12.88
698.866	13.19
699.051	13.8
699.235	13.97
699.42	14.25
699.604	13.96
699.789	14.14
699.973	13.96
700.158	14.06
700.342	14.37
700.527	14.2
700.711	13.87
700.895	13.44
701.08	13.77
701.264	13.19
701.448	13.31
701.633	13.65
701.817	13.65
702.001	13.27
702.186	13.1
702.37	13.19
702.554	12.88
702.738	12.9
702.923	13.27
703.107	12.61
703.291	13.36
703.475	13.62
703.659	13.77
703.843	12.85
704.027	12.8
704.212	13.07
704.396	12.66
704.58	12.83
704.764	12.93
704.948	13.26
705.132	13.11
705.316	13.31
705.5	11.74
705.684	10.99
705.868	11.97
706.052	13.31
706.235	13.43
706.419	14.14
706.603	14.4
706.787	14.28
706.971	14.28
707.155	13.52
707.339	13.29
707.522	13.65
707.706	14.11
707.89	13.87
708.074	13.13
708.257	12.52
708.441	11.45
708.625	11.31
708.808	11.8
708.992	11.81
709.176	12.76
709.359	12.39
709.543	12.73
709.727	12.77
709.91	13.23
710.094	13.67
710.277	14.57
710.461	14.84
710.644	14.59
710.828	14.73
711.011	14.43
711.195	14.07
711.378	13.91
711.562	13.68
711.745	12.8
711.928	12.72
712.112	11.82
712.295	11.06
712.478	11.12
712.662	11.21
712.845	10.49
713.028	10.38
713.212	10.61
713.395	10.76
713.578	11.55
713.761	12.16
713.945	12.18
714.128	12.02
714.311	11.96
714.494	11.85
714.677	12.37
714.86	12.72
715.043	12.92
715.227	13.07
715.41	13.63
715.593	13.6
715.776	13.75
715.959	13.34
716.142	14.09
716.325	14.11
716.508	13.38
716.691	13.3
716.874	13.21
717.057	13.24
717.239	13.78
717.422	13.26
717.605	12.65
717.788	12.85
717.971	12.28
718.154	11.78
718.337	11.58
718.519	13.29
718.702	13.1
718.885	13.44
719.068	12.91
719.25	11.99
719.433	11.49
719.616	11.99
719.798	12.36
719.981	13.27
720.164	13.32
720.346	13.51
720.529	12.91
720.712	11.78
720.894	11.98
721.077	11.66
721.259	11.71
721.442	12.86
721.624	12.79
721.807	12.66
721.989	12.19
722.172	12.46
722.354	12.98
722.537	11.52
722.719	13.35
722.901	13.14
723.084	13.94
723.266	13.97
723.448	13.51
723.631	14.04
723.813	14.22
723.995	14.32
724.178	14.07
724.36	13.66
724.542	15.41
724.724	14.63
724.907	14.2
725.089	15.02
725.271	15.37
725.453	14.9
725.635	14.32
725.817	13.72
725.999	13.85
726.181	14.28
726.364	14.92
726.546	15.33
726.728	15.63
726.91	16.52
727.092	15.77
727.274	14.95
727.456	15.67
727.638	15.58
727.819	15.49
728.001	15.31
728.183	14.81
728.365	14.26
728.547	13.98
728.729	13.28
728.911	12.43
729.093	12.33
729.274	12.11
729.456	11.35
729.638	11.32
729.82	11.3
730.001	11.45
730.183	11.73
730.365	12.22
730.546	11.25
730.728	11.46
730.91	12.03
731.091	12.52
731.273	13.22
731.455	13.42
731.636	13.12
731.818	13.71
731.999	14.1
732.181	13.66
732.362	13.77
732.544	13.9
732.725	14.21
732.907	13.51
733.088	13.06
733.27	12.67
733.451	13.23
733.633	14.41
733.814	13.63
733.995	13.4
734.177	13.06
734.358	12.88
734.539	13.93
734.721	14.31
734.902	14.98
735.083	15.03
735.264	15.37
735.446	15.81
735.627	14.81
735.808	15.49
735.989	14.82
736.17	15.49
736.351	14.29
736.533	13.53
736.714	12.81
736.895	12.78
737.076	12.8
737.257	12.81
737.438	11.93
737.619	11.63
737.8	11.65
737.981	13.23
738.162	12.6
738.343	14.05
738.524	13.43
738.705	14.18
738.886	13.95
739.067	13.87
739.247	13.56
739.428	14.25
739.609	14.53
739.79	13.8
739.971	13.15
740.151	14.36
740.332	13.62
740.513	15.06
740.694	14.8
740.874	15.86
741.055	15.77
741.236	16.57
741.417	15.39
741.597	16.24
741.778	16.67
741.958	16.53
742.139	17.06
742.32	16.83
742.5	15.92
742.681	16.62
742.861	14.86
743.042	14.54
743.222	13.06
743.403	13.19
743.583	12.12
743.764	10.85
743.944	11.65
744.124	11.5
744.305	11.36
744.485	11.95
744.666	11.4
744.846	11.94
745.026	12.5
745.207	13.69
745.387	14.79
745.567	15.95
745.747	16.69
745.928	17.18
746.108	16.08
746.288	16.61
746.468	17.15
746.648	18.13
746.829	18.42
747.009	18.03
747.189	18.56
747.369	16.73
747.549	15.43
747.729	16.34
747.909	15.5
748.089	15.31
748.269	14.64
748.449	14.19
748.629	12.35
748.809	11.03
748.989	11.45
749.169	11.23
749.349	13.87
749.529	13.53
749.709	12.53
749.889	12.73
750.068	14.31
750.248	14.59
750.428	14.53
750.608	13.91
750.788	14.49
750.967	14.46
751.147	15
751.327	14.15
751.507	15.04
751.686	15.97
751.866	16.15
752.046	15.28
752.225	15.91
752.405	15.34
752.585	16.92
752.764	17.42
752.944	17.35
753.123	15.17
753.303	15.06
753.482	15.45
753.662	14.3
753.841	13.89
754.021	13.93
754.2	13.52
754.38	13.65
754.559	13.78
754.739	12.95
754.918	13.2
755.097	14.84
755.277	13.35
755.456	12.69
755.635	13.44
755.815	12.93
755.994	12.36
756.173	11.91
756.352	12.23
756.532	12.08
756.711	12.23
756.89	10.24
757.069	8.8
757.248	11.07
757.427	10.79
757.607	11.62
757.786	12.38
757.965	12.13
758.144	13.18
758.323	13.03
758.502	11.77
758.681	13.19
758.86	14.74
759.039	14.67
759.218	12.61
759.397	13.01
759.576	13.43
759.755	13.81
759.934	14.65
760.113	14.65
760.291	15.83
760.47	16.01
760.649	16.14
760.828	16.74
761.007	17.19
761.186	18.19
761.364	17.53
761.543	16.95
761.722	15.32
761.901	14.96
762.079	14.67
762.258	12.53
762.437	13.81
762.615	13.33
762.794	12.72
762.972	13.68
763.151	13.11
763.33	14.43
763.508	13.79
763.687	14.24
763.865	14.35
764.044	14.06
764.222	15.44
764.401	14.31
764.579	14.12
764.758	14.16
764.936	13.41
765.114	13.97
765.293	12.88
765.471	12.56
765.65	13.33
765.828	13.21
766.006	12.63
766.184	10.96
766.363	11.42
766.541	10.44
766.719	11.72
766.898	11.81
767.076	13.45
767.254	14.7
767.432	14.37
767.61	13.47
767.788	13.81
767.967	14.55
768.145	14.13
768.323	15.03
768.501	16.26
768.679	14.26
768.857	15.05
769.035	12.32
769.213	11.79
769.391	11.41
769.569	11.36
769.747	10.79
769.925	10.28
770.103	9.48
770.281	8.1
770.459	7.66
770.636	8.47
770.814	7.12
770.992	6.95
771.17	4.02
771.348	5.72
771.525	3.41
771.703	2.15
771.881	1.86
772.059	5.86
772.236	5.37
772.414	5.18
772.592	5.86
772.769	6.93
772.947	4.56
773.125	8.1
773.302	8.74
773.48	10.97
773.657	10.66
773.835	11.68
774.013	12.49
774.19	12.69
774.368	11.9
774.545	11.97
774.723	12.11
774.9	12.98
775.077	10.55
775.255	11.9
775.432	14.47
775.61	16.7
775.787	17.85
775.964	15.42
776.142	15.05
776.319	14.89
776.496	14.46
776.674	16.51
776.851	18.54
777.028	18.83
777.205	17.45
777.382	14.74
777.56	13.47
777.737	13.05
777.914	13.23
778.091	16.11
778.268	16.17
778.445	15.86
778.622	14.53
778.8	15.24
778.977	15.34
779.154	14.51
779.331	13.32
779.508	14.22
779.685	11.92
779.862	10.17
780.038	8.78
780.215	10.91
780.392	9.82
780.569	9.91
780.746	9.59
780.923	10.87
781.1	11.84
781.277	14.03
781.453	12.65
781.63	15.35
781.807	17.09
781.984	14.62
782.16	13.89
782.337	16.72
782.514	16.71
782.691	17.25
782.867	15.58
783.044	15.28
783.221	14.14
783.397	13.5
783.574	10.27
783.75	8.07
783.927	11.6
784.103	11.12
784.28	9.82
784.456	8.3
784.633	8.09
784.809	7.58
784.986	6.29
785.162	6.32
785.339	6.56
785.515	9.16
785.692	10.98
785.868	9.32
786.044	9.59
786.221	9.92
786.397	11.71
786.573	9.97
786.749	9.43
786.926	11.88
787.102	10.63
787.278	10.98
787.454	11.85
787.631	12.06
787.807	12.04
787.983	12.47
788.159	11.07
788.335	9.09
788.511	10.47
788.687	11.96
788.863	11.69
789.039	10.78
789.216	8.77
789.392	7.83
789.568	5.05
789.744	3.79
789.919	1.19
790.095	0.08
790.271	-0.49
790.447	0.3
790.623	-1.25
790.799	0.24
790.975	4.28
791.151	8.1
791.327	10.03
791.502	12.81
791.678	14.23
791.854	17.06
792.03	18.23
792.205	19.21
792.381	17.8
792.557	19.76
792.733	16.65
792.908	17.24
793.084	16.62
793.259	14.07
793.435	11.56
793.611	13.39
793.786	12.67
793.962	13.66
794.137	12.26
794.313	12.2
794.488	9.23
794.664	9.59
794.839	9.54
795.015	11.18
795.19	9.59
795.366	13.07
795.541	8.46
795.716	7.89
795.892	8
796.067	10.38
796.242	13.9
796.418	16.96
796.593	15.97
796.768	13.46
796.944	13.49
797.119	16.24
797.294	15.4
797.469	16.64
797.644	16.75
797.82	14.95
797.995	15.14
798.17	12.11
798.345	9.79
798.52	11.69
798.695	14.07
798.87	11.51
799.045	9.42
799.22	7.88
799.395	8.11
799.57	10.17
799.745	10.86
799.92	11.02
800.095	12.57
800.27	14.57
800.445	13.76
800.62	10.86
800.795	7.79
800.97	8.9
801.145	10.12
801.319	7.92
801.494	5.78
801.669	8.2
801.844	5.47
802.018	2.36
802.193	-1.53
802.368	-1.68
802.543	-0.28
802.717	1.87
802.892	5.05
803.067	6.48
803.241	9.45
803.416	8.74
803.59	5.59
803.765	9.01
803.94	10.83
804.114	14.03
804.289	11.27
804.463	13.76
804.638	19.42
804.812	17.01
804.986	18.8
805.161	16.81
805.335	14.69
805.51	16.29
805.684	16.72
805.858	12.3
806.033	8.71
806.207	14.18
806.381	13.79
806.556	9.93
806.73	10.39
806.904	8.09
807.078	9.61
807.253	14.02
807.427	11.57
807.601	10.3
807.775	12
807.949	12.41
808.123	10.35
808.298	8.45
808.472	5.36
808.646	4.47
808.82	7.28
808.994	9.06
809.168	5.45
809.342	7.62
809.516	8.97
809.69	14.35
809.864	13.11
810.038	14.04
810.212	12.79
810.385	14.2
810.559	15.97
810.733	10.86
810.907	10.58
811.081	7.65
811.255	8.19
811.428	7.17
811.602	5.19
811.776	9.18
811.95	6.42
812.123	5.22
812.297	2.5
812.471	-3.29
812.644	0.7
812.818	-4.69
812.992	-3.7
813.165	-4.86
813.339	-3.83
813.512	-3.54
813.686	-6.26
813.86	-9.37
814.033	-6.52
814.207	1.09
814.38	7.71
814.554	8.69
814.727	14.65
814.9	18.82
815.074	16.89
815.247	16.47
815.421	16.25
815.594	19.33
815.767	20.34
815.941	19.7
816.114	18.37
816.287	13.73
816.46	12.97
816.634	11.31
816.807	11.35
816.98	9.42
817.153	10.4
817.327	7.45
817.5	6.88
817.673	7.84
817.846	12.87
818.019	13.66
818.192	16.66
818.365	17.32
818.538	15.94
818.711	18.61
818.884	21.6
819.057	21.71
819.23	19.81
819.403	19.81
819.576	20.59
819.749	18.41
819.922	17.85
820.095	17.14
820.268	14.58
820.441	14.31
820.614	11.22
820.786	13.03
820.959	13.65
821.132	15.58
821.305	16.43
821.477	16.62
821.65	16.93
821.823	17.5
821.996	17.68
822.168	18.74
822.341	19.18
822.514	19.81
822.686	18.88
822.859	18.78
823.031	18.48
823.204	18.99
823.376	18.98
823.549	18.81
823.722	18.84
823.894	18.35
824.067	18.12
824.239	17.74
824.411	17.45
824.584	17.92
824.756	18.01
824.929	18.3
825.101	18.05
825.273	18.18
825.446	19.52
825.618	19.13
825.79	19.97
825.963	19.44
826.135	18.83
826.307	20.03
826.479	19.79
826.652	19.4
826.824	20.27
826.996	19.33
827.168	18.99
827.34	16.78
827.512	15.32
827.684	16.35
827.856	16.46
828.029	17.42
828.201	15.34
828.373	16.19
828.545	14.62
828.717	13.93
828.889	14.1
829.061	13.27
829.232	14.49
829.404	15.89
829.576	12.4
829.748	12.5
829.92	9.35
830.092	11.15
830.264	12.5
830.436	12.61
830.607	11.04
830.779	9.68
830.951	8.33
831.123	9.67
831.294	10.06
831.466	14.05
831.638	16.21
831.809	21.74
831.981	18.84
832.153	16.21
832.324	13.07
832.496	15.22
832.667	14.3
832.839	15.65
833.011	13.49
833.182	15.17
833.354	11.92
833.525	10.23
833.697	9.89
833.868	11.86
834.039	10.41
834.211	14.35
834.382	12.86
834.554	14.76
834.725	14.68
834.896	14.57
835.068	11.03
835.239	11.78
835.41	14.11
835.581	15.65
835.753	16.29
835.924	17.04
836.095	16.25
836.266	19.06
836.438	18.86
836.609	18.03
836.78	18.85
836.951	21.95
837.122	23.05
837.293	23.51
837.464	19.58
837.635	17.17
837.806	14.27
837.977	11.32
838.148	8.42
838.319	4.4
838.49	7.94
838.661	6.66
838.832	7.44
839.003	7.28
839.174	4.54
839.345	11.33
839.516	12.31
839.687	15.78
839.857	21.15
840.028	19.5
840.199	16.14
840.37	15.6
840.54	20.12
840.711	22.3
840.882	19.95
841.053	19.84
841.223	17.93
841.394	18
841.564	18.96
841.735	19.92
841.906	21.57
842.076	26.55
842.247	25.5
842.417	22.41
842.588	20.14
842.758	22.44
842.929	19.3
843.099	21.16
843.27	20
843.44	19.18
843.611	18.43
843.781	18.45
843.951	18.42
844.122	20.5
844.292	16.09
844.462	13.59
844.633	11.84
844.803	15.42
844.973	13.72
845.144	16.43
845.314	15.74
845.484	13.26
845.654	10.83
845.824	8.64
845.995	7.11
846.165	17.36
846.335	23.47
846.505	19.63
846.675	14.25
846.845	16.58
847.015	14.57
847.185	13.54
847.355	11.79
847.525	16.62
847.695	11.14
847.865	11.74
848.035	8.4
848.205	8.28
848.375	5.71
848.545	14.41
848.715	11.19
848.884	9.03
849.054	-1.52
849.224	-15.62
849.394	-15.84
849.564	2.64
849.733	-10.59
849.903	-27.39
850.073	-37.76
850.243	-23.76
850.412	-29.04
850.582	-26.15
850.752	-26.34
850.921	-21.36
851.091	-14.55
851.26	-13.03
851.43	-21.44
851.599	-3.43
851.769	7.12
851.939	-0.97
852.108	-3.35
852.278	-2.94
852.447	-11.59
852.616	-12.76
852.786	-7.72
852.955	-2.54
853.125	1.03
853.294	-4.36
853.463	0.64
853.633	-0.01
853.802	6.14
853.971	12.55
854.141	7.81
854.31	20
854.479	31.09
854.648	24.46
854.818	22.68
854.987	13.27
855.156	26.26
855.325	22.36
855.494	26.01
855.663	27.44
855.832	23.75
856.001	29.44
856.171	19.55
856.34	5.4
856.509	16.21
856.678	10.76
856.847	13.09
857.016	-1.75
857.185	0.98
857.353	-2.16
857.522	-0.76
857.691	-4.56
857.86	-2.58
858.029	1.27
858.198	-0.01
858.367	-1.78
858.535	7.82
858.704	10.01
858.873	11.65
859.042	8.21
859.21	6.12
859.379	-0.51
859.548	7.31
859.717	3.77
859.885	-5.94
860.054	4.52
860.222	-8.53
860.391	-17.25
860.56	-6.82
860.728	1.15
860.897	-2.24
861.065	5.81
861.234	9.83
861.402	6.98
861.571	5
861.739	4.39
861.908	1.05
862.076	4.65
862.244	23.3
862.413	7.93
862.581	20.06
862.749	11.86
862.918	-14.35
863.086	-20.41
863.254	-30.08
863.423	-20.2
863.591	-22.63
863.759	7.96
863.927	-3.14
864.096	-34.3
864.264	-64.84
864.432	-109.05
864.6	-156.17
864.768	-63.17
864.936	-106.82
865.104	-52.39
865.272	-114.02
865.44	-81.64
865.608	-154.49
865.776	-139.2
865.944	-104.92
866.112	-113.89
866.28	-89.63
866.448	-56.95
866.616	-50.67
866.784	-37.81
866.952	-36.47
867.12	-14.95
867.288	-17.07
867.455	-6.22
867.623	16.27
867.791	25.09
867.959	26.99
868.127	17.72
868.294	11.59
868.462	-3.67
868.63	-14.9
868.797	-16.94
868.965	-11.13
869.133	-2.94
869.3	-10.05
869.468	-30.36
869.636	-59.82
869.803	-49.2
869.971	-34.48
870.138	-40.06
870.306	-35.5
870.473	-24.98
870.641	-28.9
870.808	-48.45
870.975	-60.62
871.143	-43.5
871.31	-46.95
871.478	-36.52
871.645	-31.31
871.812	-32.39
871.98	-30.8
872.147	-24.71
872.314	-18.78
872.482	-19.19
872.649	-2.24
872.816	2.91
872.983	1.07
873.15	2.33
873.318	0.6
873.485	-25.01
873.652	-34.94
873.819	-28.62
873.986	-26.15
874.153	-10.28
874.32	6.85
874.487	0.23
874.654	11.97
874.821	10.16
874.988	15.3
875.155	29.27
875.322	39.5
875.489	42.51
875.656	32.3
875.823	26.55
875.99	22.57
876.157	11.79
876.324	17.9
876.49	15.67
876.657	12.54
876.824	6.49
876.991	-11.16
877.157	-17.18
877.324	-8.81
877.491	-7.5
877.658	-4.12
877.824	-1.51
877.991	0.78
878.157	-1.93
878.324	-9.29
878.491	-10.43
878.657	-11.27
878.824	-0.58
878.99	11.16
879.157	14.9
879.323	25.02
879.49	39.56
879.656	30.44
879.823	42.71
879.989	34.05
880.156	46.17
880.322	51.49
880.488	41.6
880.655	33.74
880.821	23.85
880.987	24.36
881.154	28.16
881.32	20.94
881.486	20.77
881.652	10.13
881.819	23.65
881.985	18.19
882.151	19.35
882.317	27.35
882.483	28.78
882.649	26.78
882.816	21.53
882.982	18.86
883.148	20.32
883.314	22.01
883.48	22
883.646	19.1
883.812	16.53
883.978	17.13
884.144	15.71
884.31	16.87
884.476	17.75
884.642	17.59
884.807	19.55
884.973	17.77
885.139	15.75
885.305	19.09
885.471	18.9
885.637	25.24
885.802	20.07
885.968	19.72
886.134	19.92
886.3	20.94
886.465	27.76
886.631	21.68
886.797	22.29
886.962	24.19
887.128	16.46
887.293	16.56
887.459	6.6
887.625	10
887.79	9.46
887.956	13.45
888.121	10.72
888.287	3.66
888.452	12.7
888.618	11.98
888.783	7.6
