Data from 2937892_Reflection_2.txt Node
Date: Wed Jul 15 14:02:43 EDT 2015
User: robert
Spectrometer: USB4E03001
Autoset integration time: false
Trigger mode: 4
Integration Time (sec): 1.000000E-1
Scans to average: 10
Electric dark correction enabled: true
Nonlinearity correction enabled: false
Boxcar width: 5
Stray light correction enabled: false
XAxis mode: Wavelengths
Stop averaging: false
Number of Pixels in Spectrum: 3648
>>>>>Begin Spectral Data<<<<<
177.566	524.07
177.785	180.04
178.005	852.37
178.225	-166.03
178.445	390.57
178.665	318.56
178.885	1242.86
179.105	144.16
179.324	78.6
179.544	85.8
179.764	133.37
179.984	87.46
180.204	89.06
180.423	124.37
180.643	48.42
180.863	72.88
181.083	59.18
181.302	59.16
181.522	-79.7
181.742	-1100.54
181.961	1153.61
182.181	272.96
182.401	193.54
182.621	254.32
182.84	1083.74
183.06	296.61
183.279	712.29
183.499	1135.16
183.719	-219.33
183.938	-121.18
184.158	-164.02
184.377	-267.38
184.597	-60.62
184.816	-43.08
185.036	-71.9
185.256	-78.12
185.475	-55.63
185.695	-81.94
185.914	-14.62
186.134	1.34
186.353	3.62
186.572	-5.07
186.792	-8.23
187.011	-101.3
187.231	-90.23
187.45	-51.99
187.67	-37.16
187.889	-114.07
188.108	-100.09
188.328	-179.43
188.547	-119.03
188.766	-144.49
188.986	-260.64
189.205	-78.31
189.424	-75.89
189.644	-75.34
189.863	-65.48
190.082	-66.95
190.302	-37.03
190.521	-35.47
190.74	-45.04
190.959	-94.72
191.178	-61.02
191.398	-14.63
191.617	-83.55
191.836	-72.28
192.055	-125.44
192.274	-257.72
192.494	-153.24
192.713	-78.21
192.932	-125.4
193.151	-87.2
193.37	-27.43
193.589	-17.68
193.808	-65.6
194.027	-24.97
194.246	-78.93
194.465	-4.07
194.685	117.21
194.904	95.17
195.123	71.32
195.342	75.39
195.561	67.26
195.78	114.85
195.999	60.64
196.218	12.74
196.436	16.81
196.655	7.83
196.874	-3.17
197.093	-43.48
197.312	-65.33
197.531	-124.51
197.75	-95.38
197.969	-114.28
198.188	-170.17
198.407	-150.34
198.625	-81.59
198.844	-169.17
199.063	-139.63
199.282	-242.57
199.501	-238.14
199.719	-181.39
199.938	-142.66
200.157	-106.62
200.376	-22.27
200.594	-18.16
200.813	-50.55
201.032	-143.49
201.251	-127.92
201.469	-112.77
201.688	-42.7
201.907	-16
202.125	-9.82
202.344	-5.11
202.563	-22.68
202.781	-86.27
203	-32.93
203.218	-20.97
203.437	10.28
203.656	12.15
203.874	-7.45
204.093	-42.87
204.311	-86.96
204.53	-104.93
204.748	-77.66
204.967	-134.68
205.185	-95.96
205.404	537.31
205.622	1122.74
205.841	265.65
206.059	512.06
206.278	-10141.86
206.496	-592.35
206.715	947.8
206.933	-884.42
207.151	3539.57
207.37	-339.66
207.588	2156.64
207.806	-72.97
208.025	27.33
208.243	1.85
208.461	24.1
208.68	-100.93
208.898	-75.89
209.116	-20.69
209.335	-11.27
209.553	-58.85
209.771	-55.8
209.989	-58.11
210.208	-43.85
210.426	-119.2
210.644	-179.49
210.862	-51.72
211.081	-68.18
211.299	-71.07
211.517	-65.17
211.735	-44.31
211.953	-1.89
212.171	6.65
212.39	21.03
212.608	2.14
212.826	31.91
213.044	47.04
213.262	25.78
213.48	33.58
213.698	44.27
213.916	49.46
214.134	54.92
214.352	48.03
214.57	57.55
214.788	39.83
215.006	14.49
215.224	-27.03
215.442	-47.42
215.66	-66.39
215.878	-52.88
216.096	-110.39
216.314	-91.76
216.532	-68.48
216.75	-33.91
216.968	-6.11
217.185	-21.65
217.403	14.73
217.621	56.68
217.839	62.42
218.057	50.74
218.275	41.45
218.492	47.29
218.71	40.92
218.928	35.63
219.146	20.94
219.363	3.9
219.581	23.85
219.799	-12.92
220.017	-44.82
220.234	-87.62
220.452	-21.97
220.67	-21.06
220.887	13.37
221.105	3.49
221.323	10.93
221.54	16.52
221.758	4.73
221.976	5.88
222.193	27.91
222.411	19.69
222.629	16.28
222.846	22.58
223.064	12.3
223.281	-11.22
223.499	-10.41
223.716	-8.31
223.934	-14.8
224.151	-13.37
224.369	-34.21
224.586	-39.61
224.804	-31.44
225.021	-37.88
225.239	-36.62
225.456	-22.33
225.674	-2.71
225.891	0.72
226.108	-14.03
226.326	-12.14
226.543	-4.98
226.76	1.6
226.978	1.03
227.195	0.1
227.413	-1.33
227.63	-0.29
227.847	-7.84
228.064	-7.13
228.282	-3.76
228.499	-1.17
228.716	-2.04
228.934	-4.18
229.151	-2.08
229.368	-0.8
229.585	-1.26
229.802	0.96
230.02	2.11
230.237	2.85
230.454	-0.33
230.671	0.45
230.888	-0.2
231.105	0.98
231.323	4.43
231.54	6.15
231.757	4.25
231.974	7.21
232.191	9.13
232.408	3.5
232.625	4.64
232.842	8.32
233.059	-1.42
233.276	-6.09
233.493	-3.58
233.71	-3.6
233.927	-13.87
234.144	-11.65
234.361	-13.11
234.578	-11.95
234.795	-6.9
235.012	-1.55
235.229	-2.32
235.446	4.53
235.663	7.1
235.879	6.15
236.096	2.39
236.313	9.32
236.53	13.18
236.747	7.33
236.964	-0.55
237.181	3.53
237.397	-1.51
237.614	1.46
237.831	-0.77
238.048	6.1
238.264	9.57
238.481	12.43
238.698	14.37
238.915	8.54
239.131	9.72
239.348	12.56
239.565	11.38
239.781	10.76
239.998	4.76
240.215	2.5
240.431	-1.75
240.648	-3.71
240.865	-3.25
241.081	-2.68
241.298	0.05
241.514	3.89
241.731	2.93
241.947	2.04
242.164	2.91
242.38	7.49
242.597	7.49
242.814	8.24
243.03	7.67
243.246	6.35
243.463	5.79
243.679	5.83
243.896	4.36
244.112	4.21
244.329	5.26
244.545	5.53
244.762	2.45
244.978	5.29
245.194	6.6
245.411	7.98
245.627	8.36
245.843	9.72
246.06	8.67
246.276	9.65
246.492	10.44
246.709	10.48
246.925	10.39
247.141	10.63
247.357	10.34
247.574	9.52
247.79	10
248.006	10.4
248.222	10.06
248.439	10.11
248.655	10.11
248.871	9.8
249.087	8.44
249.303	8.46
249.519	7.51
249.736	8.42
249.952	9.02
250.168	9.72
250.384	10.7
250.6	10.06
250.816	9.87
251.032	8.1
251.248	9.14
251.464	11.21
251.68	10.17
251.896	12.35
252.112	9.82
252.328	8.87
252.544	8.67
252.76	7.19
252.976	7.1
253.192	7.83
253.408	9.07
253.624	8.64
253.84	5.52
254.056	4.83
254.272	3.18
254.487	6.08
254.703	5.64
254.919	0.4
255.135	0.68
255.351	-1.37
255.567	-4.88
255.782	-6.48
255.998	-9.55
256.214	-0.67
256.43	1.31
256.646	4.81
256.861	5.46
257.077	7.67
257.293	8.09
257.508	9.52
257.724	9.48
257.94	11.51
258.155	10.73
258.371	10.76
258.587	8.78
258.802	9.95
259.018	8.14
259.234	6.27
259.449	5.42
259.665	6.44
259.88	7.03
260.096	7.5
260.312	7.62
260.527	8.03
260.743	8.75
260.958	8.58
261.174	7.69
261.389	7.63
261.605	8.64
261.82	9.82
262.036	9.95
262.251	8.12
262.466	8.19
262.682	7.66
262.897	6.21
263.113	6.33
263.328	5.14
263.543	4.94
263.759	4.41
263.974	3.18
264.189	0.58
264.405	-3.01
264.62	-2.41
264.835	-3.11
265.051	-3.98
265.266	-1.55
265.481	-2.79
265.696	-2.57
265.912	-2.95
266.127	-1.46
266.342	-2.44
266.557	-0.39
266.773	0.12
266.988	0.83
267.203	2.69
267.418	3.16
267.633	2.69
267.848	4.05
268.064	5.5
268.279	6.79
268.494	6.88
268.709	5.98
268.924	6.66
269.139	8.62
269.354	9.82
269.569	6.97
269.784	6.66
269.999	9.38
270.214	8.76
270.429	8.34
270.644	7.42
270.859	6.78
271.074	7.7
271.289	7.75
271.504	7.66
271.719	7.07
271.934	8.06
272.149	7.3
272.363	5.25
272.578	5.66
272.793	5.99
273.008	6.82
273.223	7.55
273.438	7.78
273.653	6.94
273.867	6.56
274.082	5.44
274.297	5.21
274.512	6.42
274.726	4.57
274.941	3.23
275.156	2.58
275.371	0.76
275.585	0.17
275.8	1.31
276.015	0.02
276.229	-0.39
276.444	0.76
276.659	0.76
276.873	0.45
277.088	3.42
277.302	4.22
277.517	3.78
277.732	2.42
277.946	1.15
278.161	0.85
278.375	3.33
278.59	1.46
278.804	-0.68
279.019	-0.94
279.233	-1.17
279.448	-0.27
279.662	-1.35
279.877	-0.61
280.091	0.76
280.306	2.99
280.52	3.21
280.735	3.63
280.949	6.1
281.163	7.88
281.378	7.89
281.592	7.74
281.806	6.78
282.021	7.76
282.235	7.9
282.449	10.76
282.664	10.39
282.878	9.61
283.092	9.04
283.307	8.8
283.521	8.68
283.735	9.35
283.949	10.38
284.164	10.47
284.378	11.05
284.592	11.2
284.806	9.31
285.02	9.67
285.234	9.84
285.449	9.54
285.663	9.13
285.877	8.8
286.091	8.59
286.305	8.53
286.519	9.31
286.733	8.83
286.947	8.54
287.161	9.36
287.375	9.16
287.589	8.91
287.803	9.28
288.017	10.29
288.231	10.25
288.445	10.48
288.659	10.72
288.873	9.86
289.087	8.9
289.301	9.93
289.515	9.45
289.729	7.55
289.943	7.32
290.157	7.54
290.371	7.68
290.584	6.37
290.798	6.09
291.012	6.41
291.226	6.43
291.44	6.38
291.654	5.8
291.867	5.67
292.081	6.21
292.295	7.45
292.509	6.87
292.722	6.78
292.936	9.63
293.15	10.07
293.364	9.54
293.577	7.99
293.791	9.24
294.005	9.41
294.218	9.88
294.432	10.43
294.645	10.45
294.859	10.08
295.073	9.84
295.286	9.58
295.5	9.24
295.713	9.22
295.927	8.65
296.14	8.48
296.354	7.87
296.568	7.75
296.781	8.59
296.994	8.86
297.208	9.26
297.421	8.1
297.635	7.87
297.848	7.85
298.062	7.46
298.275	9.73
298.489	9.1
298.702	8.67
298.915	7.73
299.129	7.22
299.342	6.83
299.555	7.47
299.769	9.92
299.982	10.39
300.195	11.73
300.409	10.17
300.622	8.98
300.835	10.5
301.048	10.76
301.262	11.59
301.475	10.82
301.688	9.81
301.901	8.18
302.115	7.91
302.328	7.47
302.541	6.95
302.754	8.79
302.967	8.86
303.18	8.19
303.393	7.87
303.607	7.93
303.82	9.23
304.033	10.46
304.246	12.77
304.459	12.11
304.672	12.5
304.885	12.3
305.098	12.27
305.311	11.46
305.524	11.92
305.737	12.21
305.95	12.56
306.163	12.64
306.376	11.58
306.589	9.94
306.802	8.59
307.015	8.56
307.228	7.32
307.44	7.8
307.653	8.64
307.866	7.78
308.079	9.41
308.292	9.27
308.505	9.24
308.718	10.07
308.93	10.25
309.143	10.54
309.356	11.18
309.569	11.8
309.781	11.81
309.994	12.07
310.207	12.24
310.42	11.56
310.632	10.63
310.845	8.54
311.058	9.04
311.27	9.58
311.483	9.78
311.696	8.35
311.908	8.27
312.121	7.95
312.333	6.83
312.546	6.9
312.759	7.05
312.971	7.35
313.184	9.17
313.396	9.16
313.609	8.66
313.821	8.94
314.034	9.44
314.246	9.2
314.459	9.95
314.671	10.73
314.884	11.69
315.096	12.52
315.309	11.46
315.521	10.78
315.733	9.02
315.946	7.62
316.158	7.47
316.371	8.21
316.583	8.92
316.795	8.98
317.008	10.67
317.22	9.92
317.432	7.01
317.644	9.66
317.857	11.09
318.069	11.53
318.281	14.37
318.494	15.21
318.706	12.9
318.918	13.93
319.13	10.87
319.342	9.31
319.555	9.08
319.767	9.44
319.979	7.85
320.191	6.61
320.403	6.65
320.615	5.28
320.827	4.48
321.039	6.78
321.252	4.71
321.464	7.05
321.676	7.39
321.888	8.63
322.1	8.89
322.312	9.62
322.524	11.28
322.736	10.52
322.948	9.81
323.16	10.81
323.372	9.01
323.584	9.73
323.796	9.68
324.007	8.94
324.219	6.45
324.431	7.72
324.643	8.45
324.855	8.04
325.067	8.8
325.279	9.6
325.491	8.99
325.702	10.5
325.914	12.21
326.126	14.03
326.338	13.86
326.55	14.88
326.761	14.95
326.973	14.41
327.185	14.54
327.396	14.37
327.608	14.12
327.82	13.61
328.032	11.88
328.243	11.41
328.455	8.81
328.666	9.8
328.878	9.97
329.09	7.82
329.301	5.98
329.513	6.32
329.725	6.72
329.936	5.1
330.148	3.44
330.359	6.18
330.571	5.6
330.782	7.47
330.994	7.54
331.205	7.72
331.417	8.75
331.628	10.25
331.84	9.89
332.051	8.89
332.262	12.24
332.474	14.25
332.685	13.45
332.897	12.43
333.108	11.54
333.319	11.56
333.531	12.47
333.742	11.97
333.953	12.09
334.165	11.98
334.376	11.81
334.587	9.17
334.799	8.97
335.01	8.17
335.221	8.54
335.432	7.67
335.644	8.08
335.855	7.6
336.066	8.6
336.277	8.1
336.488	7.38
336.7	9.12
336.911	10.22
337.122	9.31
337.333	9.96
337.544	9.13
337.755	9.84
337.966	9.81
338.177	9.56
338.388	9.57
338.599	10.34
338.811	10.65
339.022	10.77
339.233	10.64
339.444	12.39
339.655	13.65
339.866	13.54
340.076	12.68
340.287	12.02
340.498	11.3
340.709	11.45
340.92	9.65
341.131	9.99
341.342	9.22
341.553	7.71
341.764	5.64
341.975	3.74
342.185	4.71
342.396	6.02
342.607	5.87
342.818	7.65
343.029	6.86
343.239	7.31
343.45	7.32
343.661	6.68
343.872	8.25
344.082	8.92
344.293	9.06
344.504	10.04
344.714	9.59
344.925	9.8
345.136	8.41
345.346	8.4
345.557	10.19
345.768	9.15
345.978	10.16
346.189	9.32
346.399	9.51
346.61	9.33
346.821	7.58
347.031	7.9
347.242	8.51
347.452	9.34
347.663	10.53
347.873	9.13
348.084	9.67
348.294	8.51
348.504	9.95
348.715	10.31
348.925	10.88
349.136	10.26
349.346	9.61
349.557	9.24
349.767	9.1
349.977	8.86
350.188	10.34
350.398	10.26
350.608	10.49
350.819	9.52
351.029	8.38
351.239	8.77
351.449	10.48
351.66	11.67
351.87	12.57
352.08	11.85
352.29	11.34
352.501	9.7
352.711	10.38
352.921	9.53
353.131	9.56
353.341	10.78
353.552	10.07
353.762	9.56
353.972	9.64
354.182	8.32
354.392	9.81
354.602	10.86
354.812	10.09
355.022	8.92
355.232	10.13
355.442	10.99
355.652	11.85
355.862	11.34
356.072	10.78
356.282	9.5
356.492	9.57
356.702	8.98
356.912	7.46
357.122	8.75
357.332	9.29
357.542	8.39
357.752	6.46
357.962	5.45
358.171	5.29
358.381	5.41
358.591	6.64
358.801	6.35
359.011	5.96
359.221	6.4
359.43	5.77
359.64	5.73
359.85	6.11
360.06	7.79
360.269	7.82
360.479	8.83
360.689	8.45
360.899	7.62
361.108	8.09
361.318	8.28
361.528	8.02
361.737	8.32
361.947	8.78
362.156	8.96
362.366	8.96
362.576	9.03
362.785	8.19
362.995	8.19
363.204	8.52
363.414	8.84
363.623	8.52
363.833	9.59
364.042	9.21
364.252	9.22
364.461	9.79
364.671	9.8
364.88	9.48
365.09	10.22
365.299	10.21
365.509	10.26
365.718	9.7
365.927	9.55
366.137	7.9
366.346	8.07
366.555	7.18
366.765	6.17
366.974	5.28
367.183	5.7
367.393	5.92
367.602	5.83
367.811	5.49
368.021	6.01
368.23	5.88
368.439	6.99
368.648	7.02
368.857	7.38
369.067	7.31
369.276	8.1
369.485	7.79
369.694	7.62
369.903	8.24
370.112	8.8
370.321	7.54
370.531	7.98
370.74	8.14
370.949	7.96
371.158	7.9
371.367	8.32
371.576	7.92
371.785	7.95
371.994	7.73
372.203	7.48
372.412	7.37
372.621	8.6
372.83	8.59
373.039	8.76
373.248	8.72
373.457	8.64
373.666	8.99
373.874	8.4
374.083	8
374.292	7.9
374.501	7.68
374.71	7.32
374.919	7.61
375.128	6.71
375.336	5.87
375.545	6.54
375.754	6.15
375.963	5.73
376.171	6
376.38	6.73
376.589	6.61
376.798	7.49
377.006	7.63
377.215	6.64
377.424	6.58
377.632	6.72
377.841	6.39
378.05	6.21
378.258	6.34
378.467	6.76
378.675	6.07
378.884	6.36
379.093	6.41
379.301	6.4
379.51	6.79
379.718	7.48
379.927	7.71
380.135	7.7
380.344	7.79
380.552	7.62
380.761	7.12
380.969	7.3
381.177	7.33
381.386	6.54
381.594	6.07
381.803	5.59
382.011	5.69
382.219	5.34
382.428	5.68
382.636	5.64
382.845	5.8
383.053	6.14
383.261	6.31
383.469	6.38
383.678	6.23
383.886	6.14
384.094	6.06
384.302	5.43
384.511	5.37
384.719	5.07
384.927	5.17
385.135	4.75
385.343	4.25
385.552	4.39
385.76	4.26
385.968	4.28
386.176	4.49
386.384	4.59
386.592	5.25
386.8	5.84
387.008	5.21
387.216	5.14
387.424	5.26
387.633	5.18
387.841	4.93
388.049	4.61
388.257	4.52
388.465	4.59
388.672	4.44
388.88	3.84
389.088	3.66
389.296	4.08
389.504	3.87
389.712	3.54
389.92	3.7
390.128	4.09
390.336	4.56
390.544	4.87
390.751	4.54
390.959	4.75
391.167	4.94
391.375	4.99
391.583	4.98
391.79	5.33
391.998	5.81
392.206	5.84
392.414	5.25
392.621	4.84
392.829	4.58
393.037	4.9
393.244	4.71
393.452	4.86
393.66	4.81
393.867	4.48
394.075	4.48
394.283	4.31
394.49	4.49
394.698	4.39
394.905	4.48
395.113	4.21
395.32	4.27
395.528	4.41
395.735	4.14
395.943	3.91
396.15	4.38
396.358	3.98
396.565	4.12
396.773	4.12
396.98	4.47
397.188	4.46
397.395	4.79
397.602	4.55
397.81	4.44
398.017	4.79
398.225	4.96
398.432	4.95
398.639	5.21
398.847	5.24
399.054	5.17
399.261	5.41
399.468	5.46
399.676	5.49
399.883	5.63
400.09	5.88
400.297	5.51
400.505	4.98
400.712	4.38
400.919	4.35
401.126	4.16
401.333	4
401.54	3.52
401.748	3.39
401.955	3.22
402.162	2.98
402.369	2.96
402.576	3.12
402.783	3.52
402.99	4.09
403.197	4.14
403.404	3.97
403.611	3.68
403.818	4
404.025	4.23
404.232	4.78
404.439	4.73
404.646	4.76
404.853	4.69
405.06	4.61
405.267	4.49
405.474	4.39
405.681	4.65
405.887	5.03
406.094	4.81
406.301	4.51
406.508	4.07
406.715	4.4
406.922	4.11
407.128	4.09
407.335	4.11
407.542	4.06
407.749	3.88
407.955	3.62
408.162	3.56
408.369	3.34
408.575	3.81
408.782	3.78
408.989	3.22
409.195	2.96
409.402	2.9
409.609	3.03
409.815	3.29
410.022	3.39
410.228	3.79
410.435	3.72
410.642	3.72
410.848	3.34
411.055	3.48
411.261	3.77
411.468	4.19
411.674	4.32
411.881	4.33
412.087	4.14
412.294	4.4
412.5	4.1
412.706	3.68
412.913	3.7
413.119	3.77
413.326	3.67
413.532	3.64
413.738	3.61
413.945	3.56
414.151	3.31
414.357	3.35
414.564	3.21
414.77	3.14
414.976	3.4
415.182	3.59
415.389	3.36
415.595	3.15
415.801	3.14
416.007	3.05
416.214	3.08
416.42	3.16
416.626	2.96
416.832	3.04
417.038	2.99
417.244	3.18
417.45	3.12
417.657	3.32
417.863	3.37
418.069	3.54
418.275	3.53
418.481	3.52
418.687	3.59
418.893	3.8
419.099	3.75
419.305	3.71
419.511	3.88
419.717	3.9
419.923	3.88
420.129	3.8
420.335	3.7
420.541	3.67
420.746	3.62
420.952	3.59
421.158	3.53
421.364	3.63
421.57	3.64
421.776	3.45
421.982	3.54
422.187	3.43
422.393	3.74
422.599	3.69
422.805	3.78
423.01	3.84
423.216	3.94
423.422	3.87
423.628	3.62
423.833	3.71
424.039	3.69
424.245	3.46
424.45	3.59
424.656	3.52
424.862	3.5
425.067	3.44
425.273	3.31
425.478	3.08
425.684	3.12
425.889	3.32
426.095	3.21
426.301	3.23
426.506	3.35
426.712	3.36
426.917	3.12
427.123	3.32
427.328	3.33
427.533	3.54
427.739	3.48
427.944	3.59
428.15	3.56
428.355	3.59
428.561	3.59
428.766	3.52
428.971	3.68
429.177	3.83
429.382	3.71
429.587	3.66
429.793	3.61
429.998	3.68
430.203	3.65
430.408	3.66
430.614	3.84
430.819	3.6
431.024	3.66
431.229	3.43
431.434	3.42
431.64	3.36
431.845	3.3
432.05	3.19
432.255	3.42
432.46	3.39
432.665	3.22
432.87	3.3
433.076	3.48
433.281	3.52
433.486	3.35
433.691	3.27
433.896	3.29
434.101	3.3
434.306	3.39
434.511	3.25
434.716	3.09
434.921	3.14
435.126	3.04
435.331	3.25
435.535	3.32
435.74	3.49
435.945	3.55
436.15	3.52
436.355	3.82
436.56	3.89
436.765	3.89
436.97	3.99
437.174	4.03
437.379	4.14
437.584	3.93
437.789	4.08
437.993	4.03
438.198	3.98
438.403	4.19
438.608	3.85
438.812	3.68
439.017	3.72
439.222	3.81
439.426	3.7
439.631	3.46
439.836	3.36
440.04	3.12
440.245	3.17
440.45	3.18
440.654	3.05
440.859	3.13
441.063	3.2
441.268	3.17
441.472	3.05
441.677	3.18
441.881	3.13
442.086	3.25
442.29	3.4
442.495	3.38
442.699	3.37
442.904	3.4
443.108	3.4
443.312	3.32
443.517	3.1
443.721	3.08
443.925	3.06
444.13	3.2
444.334	3.11
444.538	3.08
444.743	3.06
444.947	3.21
445.151	3.16
445.356	3.26
445.56	3.41
445.764	3.56
445.968	3.62
446.173	3.55
446.377	3.51
446.581	3.59
446.785	3.45
446.989	3.38
447.193	3.23
447.398	3.24
447.602	3.09
447.806	2.97
448.01	3.05
448.214	3.07
448.418	3.08
448.622	3.11
448.826	2.92
449.03	3.02
449.234	3.16
449.438	3.19
449.642	3.11
449.846	3.35
450.05	3.34
450.254	3.18
450.458	3.11
450.662	3.25
450.866	3.35
451.069	3.7
451.273	3.48
451.477	3.54
451.681	3.52
451.885	3.5
452.089	3.27
452.292	3.37
452.496	3.51
452.7	3.42
452.904	3.14
453.107	3.14
453.311	2.82
453.515	3
453.719	3.13
453.922	3.19
454.126	3.4
454.33	3.48
454.533	3.26
454.737	3.16
454.94	3.37
455.144	3.58
455.348	3.42
455.551	3.74
455.755	3.7
455.958	3.47
456.162	3.53
456.365	3.55
456.569	3.54
456.772	3.69
456.976	3.87
457.179	3.78
457.383	3.65
457.586	3.45
457.79	3.14
457.993	3.08
458.196	3.12
458.4	2.98
458.603	2.82
458.807	2.86
459.01	2.89
459.213	2.85
459.417	2.83
459.62	2.97
459.823	3.2
460.026	3.29
460.23	3.33
460.433	3.21
460.636	3.31
460.839	3.39
461.042	3.39
461.246	3.42
461.449	3.28
461.652	3.35
461.855	3.21
462.058	3.12
462.261	3.18
462.464	3.25
462.668	3.36
462.871	3.28
463.074	3.19
463.277	3.28
463.48	3.35
463.683	3.46
463.886	3.43
464.089	3.33
464.292	3.05
464.495	3.14
464.698	3.14
464.901	3.15
465.104	3.17
465.306	3.16
465.509	3.03
465.712	2.89
465.915	3
466.118	2.89
466.321	3.01
466.524	3.38
466.726	3.4
466.929	3.38
467.132	3.48
467.335	3.67
467.538	3.78
467.74	3.62
467.943	3.7
468.146	3.71
468.348	3.66
468.551	3.7
468.754	3.69
468.956	3.46
469.159	3.63
469.362	3.56
469.564	3.3
469.767	3.21
469.969	3.64
470.172	3.76
470.375	3.58
470.577	3.7
470.78	3.79
470.982	3.56
471.185	3.65
471.387	3.29
471.59	3.29
471.792	3.45
471.995	3.46
472.197	3.2
472.399	2.91
472.602	3
472.804	2.94
473.007	2.96
473.209	2.97
473.411	2.92
473.614	2.99
473.816	3.02
474.018	2.98
474.22	2.81
474.423	2.78
474.625	2.86
474.827	2.96
475.03	2.95
475.232	2.84
475.434	2.79
475.636	2.73
475.838	2.83
476.04	2.86
476.243	2.93
476.445	3.16
476.647	3.21
476.849	3.28
477.051	3.05
477.253	2.97
477.455	3.09
477.657	3.36
477.859	3.45
478.061	3.28
478.263	3.16
478.465	3.14
478.667	2.99
478.869	3.06
479.071	2.87
479.273	2.89
479.475	3.12
479.677	3.07
479.879	3.04
480.081	3.06
480.283	3.14
480.485	3.16
480.686	3.02
480.888	3.12
481.09	3.04
481.292	3.14
481.494	3.11
481.695	2.99
481.897	3.06
482.099	2.97
482.301	2.93
482.502	2.96
482.704	2.95
482.906	2.91
483.107	2.91
483.309	2.94
483.511	2.9
483.712	2.87
483.914	2.84
484.115	2.79
484.317	2.79
484.519	2.76
484.72	2.7
484.922	2.71
485.123	2.74
485.325	2.7
485.526	2.66
485.728	2.61
485.929	2.69
486.131	2.72
486.332	2.67
486.534	2.65
486.735	2.68
486.936	2.72
487.138	2.73
487.339	2.73
487.541	2.68
487.742	2.77
487.943	2.89
488.144	2.82
488.346	2.84
488.547	2.91
488.748	2.88
488.95	2.88
489.151	2.9
489.352	2.93
489.553	2.95
489.755	3.02
489.956	2.97
490.157	2.89
490.358	2.98
490.559	3.02
490.76	2.95
490.961	3
491.163	3.04
491.364	3.01
491.565	2.96
491.766	2.96
491.967	2.97
492.168	2.92
492.369	2.92
492.57	2.95
492.771	2.89
492.972	2.92
493.173	2.99
493.374	2.96
493.575	2.98
493.776	3.02
493.976	2.92
494.177	2.93
494.378	2.9
494.579	3.12
494.78	3.02
494.981	2.9
495.182	2.98
495.382	2.91
495.583	3.11
495.784	3.29
495.985	3.16
496.185	3.21
496.386	3.28
496.587	3.27
496.788	3.31
496.988	3.34
497.189	3.43
497.39	3.31
497.59	3.39
497.791	3.16
497.992	3.04
498.192	3.01
498.393	3.14
498.593	3.03
498.794	3.03
498.994	2.95
499.195	2.97
499.395	3.14
499.596	3.17
499.796	3.04
499.997	3.2
500.197	3.25
500.398	3.44
500.598	3.23
500.799	3.3
500.999	3.29
501.199	3.19
501.4	3.16
501.6	2.99
501.801	3.13
502.001	3.26
502.201	3.22
502.402	3.13
502.602	3.11
502.802	3.16
503.002	3.28
503.203	3.45
503.403	3.36
503.603	3.61
503.803	3.58
504.003	3.48
504.204	3.38
504.404	3.42
504.604	3.57
504.804	3.5
505.004	3.53
505.204	3.44
505.404	3.38
505.604	3.39
505.804	3.12
506.005	3.14
506.205	3.24
506.405	3.21
506.605	3.23
506.805	3.15
507.005	3.29
507.204	3.35
507.404	3.27
507.604	3.4
507.804	3.5
508.004	3.38
508.204	3.57
508.404	3.5
508.604	3.54
508.804	3.47
509.003	3.46
509.203	3.3
509.403	3.32
509.603	3.41
509.803	3.36
510.002	3.48
510.202	3.56
510.402	3.55
510.602	3.6
510.801	3.48
511.001	3.43
511.201	3.46
511.4	3.61
511.6	3.53
511.8	3.51
511.999	3.5
512.199	3.35
512.398	3.34
512.598	3.19
512.797	3.17
512.997	3.18
513.197	3.25
513.396	3.27
513.596	3.11
513.795	3.09
513.994	3.1
514.194	3.09
514.393	3.08
514.593	3.16
514.792	3.2
514.992	3.23
515.191	3.4
515.39	3.39
515.59	3.24
515.789	3.39
515.988	3.54
516.188	3.59
516.387	3.58
516.586	3.58
516.786	3.65
516.985	3.72
517.184	3.68
517.383	3.61
517.582	3.54
517.782	3.68
517.981	3.65
518.18	3.56
518.379	3.51
518.578	3.46
518.777	3.53
518.976	3.55
519.176	3.45
519.375	3.45
519.574	3.36
519.773	3.37
519.972	3.32
520.171	3.36
520.37	3.33
520.569	3.32
520.768	3.29
520.967	3.36
521.166	3.31
521.365	3.32
521.564	3.31
521.762	3.49
521.961	3.61
522.16	3.61
522.359	3.59
522.558	3.71
522.757	3.76
522.956	3.85
523.154	3.79
523.353	3.73
523.552	3.75
523.751	3.84
523.949	3.84
524.148	3.65
524.347	3.67
524.546	3.67
524.744	3.63
524.943	3.74
525.142	3.74
525.34	3.61
525.539	3.61
525.737	3.54
525.936	3.49
526.135	3.57
526.333	3.72
526.532	3.62
526.73	3.54
526.929	3.59
527.127	3.47
527.326	3.46
527.524	3.56
527.723	3.52
527.921	3.59
528.12	3.61
528.318	3.56
528.516	3.5
528.715	3.58
528.913	3.59
529.112	3.56
529.31	3.57
529.508	3.54
529.707	3.54
529.905	3.65
530.103	3.66
530.301	3.68
530.5	3.67
530.698	3.77
530.896	3.73
531.094	3.81
531.293	3.91
531.491	3.89
531.689	3.98
531.887	3.96
532.085	3.85
532.283	3.9
532.481	3.83
532.68	3.87
532.878	3.95
533.076	3.99
533.274	3.99
533.472	3.95
533.67	3.94
533.868	3.98
534.066	3.97
534.264	3.99
534.462	3.94
534.66	3.99
534.858	4.06
535.056	4.02
535.253	4.04
535.451	4
535.649	4.09
535.847	4.3
536.045	4.31
536.243	4.37
536.441	4.46
536.638	4.55
536.836	4.54
537.034	4.56
537.232	4.6
537.43	4.61
537.627	4.79
537.825	4.64
538.023	4.65
538.22	4.62
538.418	4.58
538.616	4.44
538.813	4.48
539.011	4.46
539.209	4.49
539.406	4.34
539.604	4.34
539.801	4.34
539.999	4.5
540.196	4.47
540.394	4.57
540.591	4.69
540.789	4.86
540.986	4.84
541.184	4.93
541.381	4.92
541.579	5.04
541.776	5.05
541.974	5.05
542.171	5.01
542.368	5.04
542.566	4.98
542.763	4.92
542.96	4.89
543.158	4.83
543.355	4.82
543.552	4.82
543.75	4.81
543.947	4.9
544.144	4.98
544.341	5.12
544.539	5.15
544.736	5.33
544.933	5.34
545.13	5.39
545.327	5.47
545.524	5.46
545.722	5.42
545.919	5.39
546.116	5.29
546.313	5.18
546.51	5.06
546.707	5.1
546.904	5
547.101	5.15
547.298	5.25
547.495	5.38
547.692	5.51
547.889	5.77
548.086	5.92
548.283	5.99
548.48	6.17
548.677	6.3
548.874	6.35
549.07	6.34
549.267	6.3
549.464	6.33
549.661	6.29
549.858	6.53
550.055	6.31
550.251	6.21
550.448	6.25
550.645	6.24
550.842	6.4
551.038	6.41
551.235	6.56
551.432	6.65
551.628	6.6
551.825	6.7
552.022	6.59
552.218	6.76
552.415	6.85
552.612	6.92
552.808	6.81
553.005	6.84
553.201	6.95
553.398	7.14
553.594	7.42
553.791	7.41
553.987	7.42
554.184	7.36
554.38	7.24
554.577	7.36
554.773	7.38
554.97	7.56
555.166	7.58
555.362	7.52
555.559	7.46
555.755	7.21
555.952	7.47
556.148	7.58
556.344	7.74
556.541	7.89
556.737	7.96
556.933	8.11
557.129	8.06
557.326	8.03
557.522	8.09
557.718	8.41
557.914	8.55
558.11	8.32
558.307	8.41
558.503	8.34
558.699	8.53
558.895	8.55
559.091	8.43
559.287	8.6
559.483	8.6
559.679	8.43
559.876	8.36
560.072	8.28
560.268	8.48
560.464	8.14
560.66	8.16
560.856	7.92
561.052	7.8
561.247	8.07
561.443	8.11
561.639	8.3
561.835	8.48
562.031	8.33
562.227	8.53
562.423	8.51
562.619	8.97
562.815	9.07
563.01	9.23
563.206	9.48
563.402	9.67
563.598	9.78
563.793	9.69
563.989	9.88
564.185	9.93
564.381	9.94
564.576	10
564.772	9.87
564.968	9.89
565.163	9.95
565.359	10.12
565.555	10.01
565.75	9.86
565.946	9.95
566.141	9.86
566.337	10.02
566.532	9.94
566.728	10.06
566.923	10.09
567.119	10.28
567.314	10.32
567.51	10
567.705	9.95
567.901	10.04
568.096	10.19
568.292	10.31
568.487	10.28
568.682	10.33
568.878	10.38
569.073	10.37
569.268	10.27
569.464	10.32
569.659	10.5
569.854	10.72
570.05	10.61
570.245	10.67
570.44	10.55
570.635	10.8
570.831	10.93
571.026	10.95
571.221	11.05
571.416	11.18
571.611	11.33
571.806	11.39
572.002	11.31
572.197	11.54
572.392	11.49
572.587	11.66
572.782	11.47
572.977	11.54
573.172	11.58
573.367	11.69
573.562	11.58
573.757	11.47
573.952	11.63
574.147	11.73
574.342	11.66
574.537	11.74
574.732	11.74
574.927	11.91
575.121	12.04
575.316	12.11
575.511	12.13
575.706	12.34
575.901	12.61
576.096	12.64
576.29	12.58
576.485	12.81
576.68	12.9
576.875	12.95
577.069	12.94
577.264	12.72
577.459	12.7
577.654	12.79
577.848	12.64
578.043	12.35
578.238	12.31
578.432	12.42
578.627	12.41
578.821	12.2
579.016	12.42
579.21	12.36
579.405	12.5
579.6	12.57
579.794	12.46
579.989	12.46
580.183	12.71
580.378	12.62
580.572	12.64
580.766	12.5
580.961	12.66
581.155	12.7
581.35	12.92
581.544	13.02
581.738	12.85
581.933	13
582.127	13.43
582.321	13.35
582.516	13.35
582.71	13.73
582.904	13.73
583.099	13.83
583.293	13.83
583.487	13.91
583.681	13.69
583.875	14.14
584.07	14.24
584.264	13.95
584.458	13.92
584.652	13.73
584.846	13.54
585.04	13.59
585.234	13.56
585.428	13.67
585.623	13.46
585.817	13.59
586.011	13.24
586.205	13.07
586.399	12.87
586.593	12.8
586.787	12.96
586.981	12.8
587.174	12.71
587.368	12.78
587.562	12.57
587.756	12.68
587.95	12.77
588.144	13
588.338	13.01
588.532	13.23
588.725	13.29
588.919	13.46
589.113	13.67
589.307	13.82
589.501	13.77
589.694	13.89
589.888	13.84
590.082	13.73
590.275	13.77
590.469	13.86
590.663	13.77
590.856	13.85
591.05	13.99
591.244	14.02
591.437	13.97
591.631	13.93
591.824	13.75
592.018	13.64
592.212	13.62
592.405	13.49
592.599	13.41
592.792	13.57
592.986	13.73
593.179	13.54
593.372	13.34
593.566	13.29
593.759	13.3
593.953	13.19
594.146	13.19
594.339	13.34
594.533	13.32
594.726	13.37
594.92	13.4
595.113	13.33
595.306	13.57
595.499	13.91
595.693	14.12
595.886	14.31
596.079	14.36
596.272	14.69
596.466	14.63
596.659	14.76
596.852	14.69
597.045	14.63
597.238	14.56
597.431	14.32
597.624	14.2
597.818	14.07
598.011	13.85
598.204	14.13
598.397	13.78
598.59	14
598.783	13.95
598.976	14.06
599.169	14.05
599.362	14.1
599.555	13.99
599.748	13.9
599.941	13.92
600.134	14.31
600.326	14.14
600.519	14.3
600.712	14.12
600.905	14.27
601.098	14.13
601.291	14.14
601.483	14
601.676	14.26
601.869	14.27
602.062	14.23
602.255	14.12
602.447	14.05
602.64	14.22
602.833	14.33
603.025	13.93
603.218	13.95
603.411	14.14
603.603	14.27
603.796	14.17
603.989	14.07
604.181	13.99
604.374	13.86
604.566	13.9
604.759	13.78
604.951	13.68
605.144	13.78
605.336	13.84
605.529	13.78
605.721	13.79
605.914	13.83
606.106	13.9
606.299	14.11
606.491	14.22
606.683	14.46
606.876	14.74
607.068	14.72
607.26	14.95
607.453	14.94
607.645	14.95
607.837	15
608.03	15.09
608.222	15.03
608.414	15.03
608.606	14.89
608.799	14.56
608.991	14.34
609.183	14.52
609.375	14.29
609.567	14.28
609.759	14.14
609.952	14.31
610.144	14.4
610.336	14.59
610.528	14.42
610.72	14.64
610.912	14.61
611.104	14.71
611.296	14.82
611.488	15.05
611.68	14.9
611.872	14.92
612.064	14.88
612.256	14.89
612.448	14.61
612.64	14.84
612.832	14.52
613.023	14.72
613.215	14.65
613.407	14.34
613.599	14.36
613.791	14.76
613.983	14.82
614.174	14.69
614.366	14.46
614.558	14.65
614.75	14.46
614.941	14.72
615.133	14.75
615.325	14.7
615.516	14.88
615.708	15
615.9	14.92
616.091	14.94
616.283	14.98
616.475	14.92
616.666	15.07
616.858	15.42
617.049	15.71
617.241	15.73
617.432	15.81
617.624	15.88
617.815	15.63
618.007	15.79
618.198	15.91
618.39	15.9
618.581	16.16
618.773	15.71
618.964	15.53
619.155	15.4
619.347	15.41
619.538	15.29
619.729	15.12
619.921	14.9
620.112	14.73
620.303	14.84
620.494	14.59
620.686	14.68
620.877	15
621.068	14.82
621.259	14.92
621.451	14.6
621.642	14.75
621.833	14.77
622.024	15.16
622.215	15.23
622.406	15.14
622.597	15.45
622.788	15.3
622.98	15.32
623.171	15.12
623.362	14.87
623.553	14.85
623.744	14.56
623.935	14.63
624.126	14.81
624.317	14.57
624.508	14.35
624.698	14
624.889	13.71
625.08	13.88
625.271	14.18
625.462	14.33
625.653	14.54
625.844	14.58
626.034	14.48
626.225	14.27
626.416	14.81
626.607	14.83
626.798	14.88
626.988	14.9
627.179	14.79
627.37	14.7
627.56	14.49
627.751	14.67
627.942	14.81
628.132	14.68
628.323	14.8
628.514	14.3
628.704	14.36
628.895	14.44
629.085	14.63
629.276	14.61
629.466	14.99
629.657	15.18
629.847	15
630.038	14.87
630.228	15.36
630.419	14.76
630.609	14.54
630.8	14.64
630.99	14.81
631.181	14.94
631.371	14.9
631.561	14.79
631.752	14.83
631.942	14.81
632.132	14.86
632.323	14.45
632.513	14.81
632.703	15.16
632.893	15.07
633.084	15
633.274	14.69
633.464	14.43
633.654	14.45
633.844	13.97
634.034	13.93
634.225	14.19
634.415	14.26
634.605	14.38
634.795	14.41
634.985	14.39
635.175	14.31
635.365	14.42
635.555	14.81
635.745	14.7
635.935	14.98
636.125	15.14
636.315	14.89
636.505	15.1
636.695	15.16
636.885	15.15
637.075	15.42
637.265	15.62
637.455	15.77
637.644	15.52
637.834	15.56
638.024	15.47
638.214	15.31
638.404	15.73
638.593	15.56
638.783	15.5
638.973	15.51
639.163	15.22
639.352	14.65
639.542	14.41
639.732	14.54
639.921	14.38
640.111	14.49
640.301	14.54
640.49	14.17
640.68	14.53
640.87	14.53
641.059	13.99
641.249	14.32
641.438	14.61
641.628	14.84
641.817	14.89
642.007	15.25
642.196	15.44
642.386	15.49
642.575	15.28
642.764	14.6
642.954	14.66
643.143	15.27
643.333	14.56
643.522	14.97
643.711	14.82
643.901	14.51
644.09	13.82
644.279	13.51
644.469	13.85
644.658	14.05
644.847	14.04
645.036	13.93
645.226	13.78
645.415	14.25
645.604	13.85
645.793	13.92
645.982	14.52
646.171	14.99
646.361	15.63
646.55	15.17
646.739	14.98
646.928	14.99
647.117	15.14
647.306	15.18
647.495	14.8
647.684	15.06
647.873	14.92
648.062	14.74
648.251	14.38
648.44	14.3
648.629	14.26
648.818	14.62
649.007	14.83
649.196	14.82
649.384	15.15
649.573	15.37
649.762	15.07
649.951	15.31
650.14	15.21
650.328	15.58
650.517	15.37
650.706	15.62
650.895	15.77
651.083	15.41
651.272	15.22
651.461	15.39
651.65	15.4
651.838	15.64
652.027	15.75
652.216	15.62
652.404	15.39
652.593	14.84
652.781	14.7
652.97	14.68
653.158	14.9
653.347	15.14
653.535	14.99
653.724	14.98
653.912	15.21
654.101	14.89
654.289	15.22
654.478	15.12
654.666	15.27
654.855	15.67
655.043	15.9
655.231	16.08
655.42	15.85
655.608	15.92
655.796	15.98
655.985	15.58
656.173	15.59
656.361	15.37
656.55	15.53
656.738	15.89
656.926	15.45
657.114	14.79
657.302	15.02
657.491	15.33
657.679	14.91
657.867	14.97
658.055	15.32
658.243	15.32
658.431	14.99
658.619	15.05
658.807	14.85
658.996	14.88
659.184	14.96
659.372	15.11
659.56	14.75
659.748	14.96
659.936	14.7
660.124	14.5
660.311	14.44
660.499	14.9
660.687	14.84
660.875	14.94
661.063	14.76
661.251	15
661.439	14.53
661.627	15
661.814	14.69
662.002	15.44
662.19	15.18
662.378	15.51
662.565	15.02
662.753	15.02
662.941	15.1
663.129	15.3
663.316	14.98
663.504	15.21
663.692	15.17
663.879	15.25
664.067	14.81
664.254	15.22
664.442	15.02
664.63	15.23
664.817	15.12
665.005	15.28
665.192	15.3
665.38	15.83
665.567	16.07
665.755	16.18
665.942	16.11
666.13	16.04
666.317	15.65
666.504	15.61
666.692	15.38
666.879	15.73
667.067	15.6
667.254	15.51
667.441	15.18
667.629	14.81
667.816	14.43
668.003	14.81
668.19	14.71
668.378	14.71
668.565	14.68
668.752	15.16
668.939	14.81
669.127	15.14
669.314	15.74
669.501	15.95
669.688	16.16
669.875	16.37
670.062	15.97
670.249	15.84
670.436	15.15
670.623	15.24
670.81	15.11
670.997	15.5
671.184	14.68
671.371	13.96
671.558	13.62
671.745	13.69
671.932	13.53
672.119	13.86
672.306	14.26
672.493	15.18
672.68	15.32
672.867	15.05
673.054	14.51
673.24	15.17
673.427	15.02
673.614	15.03
673.801	15.01
673.988	15.05
674.174	14.83
674.361	14.45
674.548	14.57
674.734	14.28
674.921	14.56
675.108	15.74
675.294	15.17
675.481	15.59
675.668	15.4
675.854	15.6
676.041	15.62
676.227	15.65
676.414	15.9
676.601	16.07
676.787	15.95
676.974	16.31
677.16	15.84
677.347	16.27
677.533	16.34
677.719	16.67
677.906	16.5
678.092	16.56
678.279	16.79
678.465	16.66
678.651	16.43
678.838	16.58
679.024	15.63
679.21	15.14
679.397	15.08
679.583	15.28
679.769	14.86
679.955	14.81
680.142	14.71
680.328	14.58
680.514	14.38
680.7	14.34
680.886	14.41
681.073	14.82
681.259	15.21
681.445	15.08
681.631	14.89
681.817	15.05
682.003	14.99
682.189	15.02
682.375	14.68
682.561	15.33
682.747	15.33
682.933	15.46
683.119	15.63
683.305	15.48
683.491	15.89
683.677	15.96
683.863	15.95
684.049	15.47
684.235	15.15
684.42	15.13
684.606	15.02
684.792	15.54
684.978	15.42
685.164	15.79
685.349	16.11
685.535	15.78
685.721	16
685.907	16.34
686.092	16.51
686.278	17.14
686.464	17.35
686.649	16.94
686.835	16.36
687.021	16.28
687.206	15.66
687.392	15.27
687.577	15.25
687.763	15.16
687.948	14.61
688.134	14.87
688.319	14.77
688.505	15.38
688.69	15.8
688.876	16.16
689.061	16.42
689.247	16.65
689.432	16.82
689.618	16.89
689.803	16.4
689.988	17
690.174	17.04
690.359	16.55
690.544	16.27
690.73	15.87
690.915	15.14
691.1	15.25
691.285	15.6
691.471	15.49
691.656	15.73
691.841	16.29
692.026	16.2
692.211	15.96
692.396	16.3
692.582	15.76
692.767	16.69
692.952	17.33
693.137	17.47
693.322	17.36
693.507	17.31
693.692	17.29
693.877	16.76
694.062	16.91
694.247	16.72
694.432	17.16
694.617	17.79
694.802	17.28
694.987	17.29
695.172	16.46
695.357	16.36
695.541	16.69
695.726	16.78
695.911	16.84
696.096	16.87
696.281	17.73
696.466	17.41
696.65	17
696.835	16.83
697.02	16.67
697.204	16.58
697.389	16.02
697.574	16.01
697.759	15.37
697.943	15.41
698.128	15.16
698.312	14.95
698.497	15.01
698.682	15.16
698.866	15.08
699.051	15.53
699.235	15.87
699.42	16.11
699.604	15.88
699.789	16.32
699.973	16.29
700.158	16.25
700.342	16.44
700.527	16.06
700.711	15.8
700.895	15.86
701.08	15.93
701.264	16.09
701.448	15.97
701.633	16.29
701.817	16.35
702.001	16.64
702.186	16.83
702.37	16.72
702.554	16.85
702.738	17.47
702.923	18.01
703.107	17.68
703.291	17.58
703.475	18.61
703.659	18.74
703.843	18.06
704.027	18.23
704.212	18.67
704.396	18.9
704.58	18.7
704.764	18.3
704.948	17.38
705.132	17.79
705.316	18.33
705.5	17.68
705.684	17
705.868	17.57
706.052	17.25
706.235	17.32
706.419	17.11
706.603	17.78
706.787	17.55
706.971	18.21
707.155	16.78
707.339	15.85
707.522	15.75
707.706	15.93
707.89	16.07
708.074	15.96
708.257	15.47
708.441	14.99
708.625	14.94
708.808	15.82
708.992	15.57
709.176	16.9
709.359	16.89
709.543	17.01
709.727	17.57
709.91	17.54
710.094	18.3
710.277	18.74
710.461	18.99
710.644	18.82
710.828	19.28
711.011	19.06
711.195	18.55
711.378	18.83
711.562	18.04
711.745	17.39
711.928	17.52
712.112	16.49
712.295	16.27
712.478	15.89
712.662	16.03
712.845	14.8
713.028	14.92
713.212	14.89
713.395	15.33
713.578	15.9
713.761	15.89
713.945	15.71
714.128	15.49
714.311	15.34
714.494	15.18
714.677	14.93
714.86	15.18
715.043	15.18
715.227	14.93
715.41	14.52
715.593	14.61
715.776	14.71
715.959	14.28
716.142	15.33
716.325	14.81
716.508	14.92
716.691	15.49
716.874	14.73
717.057	15
717.239	15.64
717.422	14.79
717.605	15.1
717.788	15.42
717.971	14.84
718.154	13.55
718.337	13.87
718.519	14.13
718.702	13.22
718.885	14.07
719.068	13.4
719.25	12.66
719.433	13.28
719.616	12.98
719.798	13.27
719.981	14.88
720.164	15.65
720.346	16.17
720.529	16.4
720.712	16.16
720.894	16.75
721.077	17.19
721.259	17.61
721.442	18.13
721.624	18.02
721.807	16.96
721.989	16.78
722.172	16.86
722.354	17.25
722.537	16.58
722.719	18.2
722.901	18.54
723.084	17.41
723.266	16.4
723.448	16.09
723.631	16.03
723.813	17.37
723.995	16.35
724.178	15.81
724.36	15.1
724.542	16.41
724.724	15.79
724.907	14.8
725.089	16.01
725.271	16.31
725.453	15.93
725.635	15.88
725.817	15.23
725.999	16.23
726.181	17.11
726.364	17.03
726.546	16.32
726.728	15.81
726.91	15.49
727.092	15.62
727.274	15.4
727.456	16.51
727.638	16.49
727.819	17.02
728.001	16.87
728.183	16.25
728.365	16.41
728.547	17.39
728.729	17.65
728.911	18.56
729.093	18.46
729.274	19.07
729.456	18.26
729.638	18.83
729.82	17.74
730.001	17.64
730.183	17.29
730.365	17.21
730.546	15.95
730.728	14.98
730.91	14.1
731.091	13.64
731.273	13.9
731.455	13.4
731.636	12.77
731.818	14.37
731.999	14.03
732.181	14.01
732.362	14.09
732.544	14.21
732.725	15.15
732.907	14.15
733.088	13.84
733.27	12.91
733.451	13.74
733.633	14.8
733.814	13.17
733.995	13.45
734.177	13.64
734.358	14.41
734.539	15.2
734.721	14.86
734.902	15.83
735.083	16.44
735.264	16.67
735.446	15.29
735.627	14.87
735.808	15.45
735.989	15.22
736.17	15.07
736.351	13.43
736.533	13.09
736.714	13.02
736.895	14.29
737.076	14.16
737.257	14.98
737.438	16.62
737.619	16.47
737.8	16.08
737.981	16.56
738.162	17.19
738.343	17.48
738.524	16.29
738.705	16.88
738.886	16.65
739.067	17.33
739.247	16.87
739.428	17
739.609	16.92
739.79	18.4
739.971	18.05
740.151	17.33
740.332	17.05
740.513	18.17
740.694	18.13
740.874	18.53
741.055	18.09
741.236	17.43
741.417	16.85
741.597	18.67
741.778	18.19
741.958	18.64
742.139	19.37
742.32	21.45
742.5	21.44
742.681	20.99
742.861	20.66
743.042	21.49
743.222	22.16
743.403	22.16
743.583	19.57
743.764	17.61
743.944	17.7
744.124	18.07
744.305	16.14
744.485	16.53
744.666	17.24
744.846	17.1
745.026	16.69
745.207	16.64
745.387	18.09
745.567	18.08
745.747	19.27
745.928	18.95
746.108	17.28
746.288	17.51
746.468	16.85
746.648	17.23
746.829	17.7
747.009	17.3
747.189	17.28
747.369	14.9
747.549	15.76
747.729	16.39
747.909	16.4
748.089	17.99
748.269	17.62
748.449	17.92
748.629	17.48
748.809	15.99
748.989	16.23
749.169	17.69
749.349	20.27
749.529	20.11
749.709	20.73
749.889	20.36
750.068	20.57
750.248	21.88
750.428	22.21
750.608	21.34
750.788	21.75
750.967	21.57
751.147	21.03
751.327	19.83
751.507	19.88
751.686	19.6
751.866	20.35
752.046	19.71
752.225	19.4
752.405	18.4
752.585	20.05
752.764	19.75
752.944	19.3
753.123	17.21
753.303	17.27
753.482	16.55
753.662	14.97
753.841	14.69
754.021	14.84
754.2	13.63
754.38	14.44
754.559	14.44
754.739	15.27
754.918	16.62
755.097	19.58
755.277	18
755.456	17.69
755.635	18.13
755.815	18.94
755.994	18.31
756.173	17.46
756.352	17.2
756.532	16.32
756.711	15.52
756.89	14.19
757.069	12.07
757.248	13.88
757.427	14.49
757.607	15.46
757.786	14.05
757.965	14.02
758.144	16.41
758.323	16.64
758.502	15.75
758.681	16.87
758.86	16.97
759.039	17.75
759.218	16.14
759.397	15.86
759.576	16.1
759.755	16.06
759.934	15.45
760.113	13.46
760.291	13.18
760.47	14.25
760.649	13.84
760.828	13.73
761.007	12.54
761.186	13.02
761.364	13.09
761.543	12.72
761.722	12.01
761.901	13.16
762.079	12.58
762.258	12.16
762.437	12.41
762.615	12.63
762.794	12.03
762.972	12.87
763.151	13.05
763.33	13.28
763.508	12.03
763.687	12.96
763.865	13.23
764.044	14.2
764.222	15.5
764.401	13.94
764.579	14.2
764.758	14.58
764.936	13.84
765.114	14.02
765.293	13.75
765.471	14.14
765.65	14.96
765.828	14.81
766.006	14.28
766.184	12.31
766.363	13.41
766.541	11.87
766.719	14.23
766.898	15.41
767.076	15.98
767.254	16.7
767.432	17.92
767.61	16.45
767.788	15.95
767.967	17.33
768.145	17.76
768.323	18.89
768.501	20.8
768.679	18.09
768.857	17.19
769.035	15.75
769.213	15.44
769.391	14.13
769.569	15.47
769.747	16.5
769.925	15.48
770.103	15.93
770.281	15.65
770.459	15
770.636	15.93
770.814	17.15
770.992	18.29
771.17	16.75
771.348	18.42
771.525	16.48
771.703	14.7
771.881	14.33
772.059	14.95
772.236	12.9
772.414	13.27
772.592	12.86
772.769	13.67
772.947	11.21
773.125	14.8
773.302	12.33
773.48	13.66
773.657	13.51
773.835	15.18
774.013	14.95
774.19	17.49
774.368	15.48
774.545	17.52
774.723	15.77
774.9	16.57
775.077	14.26
775.255	15.76
775.432	17.4
775.61	20.75
775.787	19.47
775.964	19.03
776.142	16.21
776.319	17.84
776.496	15.28
776.674	14.61
776.851	17.5
777.028	18.66
777.205	20.28
777.382	17.54
777.56	16.64
777.737	16.73
777.914	17.78
778.091	20.1
778.268	18.65
778.445	18.33
778.622	19.04
778.8	18.74
778.977	18.55
779.154	15.52
779.331	16.01
779.508	16.93
779.685	17.86
779.862	17.03
780.038	17.74
780.215	18.91
780.392	19.53
780.569	20.75
780.746	20.07
780.923	18.95
781.1	19
781.277	20.18
781.453	16.62
781.63	15.2
781.807	16.91
781.984	14.99
782.16	12.51
782.337	14.09
782.514	12.28
782.691	11.89
782.867	13.12
783.044	15.98
783.221	14.45
783.397	19.08
783.574	20.26
783.75	17.57
783.927	18.18
784.103	21.25
784.28	20.95
784.456	20.74
784.633	22.88
784.809	21.43
784.986	19.28
785.162	18.94
785.339	14.34
785.515	13.62
785.692	17.37
785.868	17.09
786.044	14.6
786.221	15.03
786.397	17.29
786.573	14.56
786.749	15.45
786.926	16.05
787.102	14.63
787.278	16.14
787.454	15.81
787.631	13
787.807	12.37
787.983	13.55
788.159	11.97
788.335	10.5
788.511	10.92
788.687	9.37
788.863	9.42
789.039	11.55
789.216	10.51
789.392	12.28
789.568	11.75
789.744	12.55
789.919	12.99
790.095	12.15
790.271	13.37
790.447	13.11
790.623	13.73
790.799	12.71
790.975	12.36
791.151	13.64
791.327	12.36
791.502	13.75
791.678	14.05
791.854	14.26
792.03	17.85
792.205	18.06
792.381	18.31
792.557	18.83
792.733	22.02
792.908	25.29
793.084	23.07
793.259	24.72
793.435	23.53
793.611	25.87
793.786	24.68
793.962	21.92
794.137	18.24
794.313	15.67
794.488	17.58
794.664	13.14
794.839	12.09
795.015	14.09
795.19	14.86
795.366	17.32
795.541	13.49
795.716	15.32
795.892	16.38
796.067	18.85
796.242	21.93
796.418	19.69
796.593	19.49
796.768	16.13
796.944	16.74
797.119	12.47
797.294	7.39
797.469	7.8
797.644	5.16
797.82	3.15
797.995	2.35
798.17	1.5
798.345	1.96
798.52	5.4
798.695	5.55
798.87	5.62
799.045	7.83
799.22	10.49
799.395	10.52
799.57	11.16
799.745	11.4
799.92	12.59
800.095	14.56
800.27	13.29
800.445	11.82
800.62	11.89
800.795	11.24
800.97	12.35
801.145	12.91
801.319	11.78
801.494	12.23
801.669	14.96
801.844	12.44
802.018	8.47
802.193	9.15
802.368	9.42
802.543	12.43
802.717	15.56
802.892	14.69
803.067	13.15
803.241	13.23
803.416	12.26
803.59	13.65
803.765	18.47
803.94	17.81
804.114	18.15
804.289	16.32
804.463	14.35
804.638	12.24
804.812	11.15
804.986	11.89
805.161	13.52
805.335	14.71
805.51	8.2
805.684	5.88
805.858	5.4
806.033	4.72
806.207	10.08
806.381	12.26
806.556	12.41
806.73	12.62
806.904	11.29
807.078	12.73
807.253	12.07
807.427	15.28
807.601	18.4
807.775	20.24
807.949	17.78
808.123	15.39
808.298	12.61
808.472	8.1
808.646	7.98
808.82	14.32
808.994	12.57
809.168	13.24
809.342	12.42
809.516	9.15
809.69	9.52
809.864	13.44
810.038	12.67
810.212	13.89
810.385	15.33
810.559	18.91
810.733	14.28
810.907	15.82
811.081	15.58
811.255	17.33
811.428	18.9
811.602	14.66
811.776	11.17
811.95	12.04
812.123	11.13
812.297	7.84
812.471	4.88
812.644	1.52
812.818	-1.58
812.992	-7.83
813.165	-8.15
813.339	-5.73
813.512	-1.63
813.686	0.54
813.86	-3.41
814.033	-1.04
814.207	4.44
814.38	8.1
814.554	14.1
814.727	17.27
814.9	18.76
815.074	17.15
815.247	15.29
815.421	14.88
815.594	14.83
815.767	18.31
815.941	18.54
816.114	20.29
816.287	15.56
816.46	10.61
816.634	9.86
816.807	12.45
816.98	15.8
817.153	17.88
817.327	14.59
817.5	14.12
817.673	15.21
817.846	17.7
818.019	14.6
818.192	15.32
818.365	16.32
818.538	13.74
818.711	12.96
818.884	13.91
819.057	16.27
819.23	20.85
819.403	21.07
819.576	17.52
819.749	15.03
819.922	17.71
820.095	16.93
820.268	16.2
820.441	15.82
820.614	17.75
820.786	16.23
820.959	13.1
821.132	12.05
821.305	12.11
821.477	13.59
821.65	14.49
821.823	13.73
821.996	14.25
822.168	15.23
822.341	15.36
822.514	14.68
822.686	14.24
822.859	14.6
823.031	14.11
823.204	14.86
823.376	14.31
823.549	13.96
823.722	14.27
823.894	13.27
824.067	12.92
824.239	13.34
824.411	12.95
824.584	13.8
824.756	13.56
824.929	14.31
825.101	13.5
825.273	14.77
825.446	15.51
825.618	15.45
825.79	15.72
825.963	16.07
826.135	15.49
826.307	16.28
826.479	15.25
826.652	16.18
826.824	16.73
826.996	16.88
827.168	16.42
827.34	15.15
827.512	14.48
827.684	15.98
827.856	15.96
828.029	15.68
828.201	15.95
828.373	16.99
828.545	17.31
828.717	16.78
828.889	16.74
829.061	15.69
829.232	16.69
829.404	16.01
829.576	13.47
829.748	11.6
829.92	11.28
830.092	11.19
830.264	14.06
830.436	9.56
830.607	8.62
830.779	7.33
830.951	5.95
831.123	4.82
831.294	5.34
831.466	12.53
831.638	13.2
831.809	13.94
831.981	11.44
832.153	6.03
832.324	5.82
832.496	7.5
832.667	6.67
832.839	9.68
833.011	10.07
833.182	14.27
833.354	7.13
833.525	6.69
833.697	5.52
833.868	8.19
834.039	7.65
834.211	11.02
834.382	11.22
834.554	11.15
834.725	11.13
834.896	11.88
835.068	8.48
835.239	10.59
835.41	12.49
835.581	15.96
835.753	16.04
835.924	14.52
836.095	13.78
836.266	13.52
836.438	15.06
836.609	12.4
836.78	11.46
836.951	13.06
837.122	14.76
837.293	15.03
837.464	12.4
837.635	9.41
837.806	11.85
837.977	13.66
838.148	13.47
838.319	12.21
838.49	18.23
838.661	14.88
838.832	19.03
839.003	20.23
839.174	15.93
839.345	14.88
839.516	17.47
839.687	17.53
839.857	13.86
840.028	12.99
840.199	14.73
840.37	17.3
840.54	21.94
840.711	20.66
840.882	12.61
841.053	16.46
841.223	16.49
841.394	12.77
841.564	12.55
841.735	15.8
841.906	10.49
842.076	10.81
842.247	1.61
842.417	-3.52
842.588	-6
842.758	-1.5
842.929	-7.72
843.099	0.41
843.27	7.24
843.44	13.17
843.611	8.2
843.781	9.23
843.951	3.35
844.122	4.79
844.292	3.25
844.462	-5.75
844.633	-2.2
844.803	-0.19
844.973	-10.31
845.144	0.08
845.314	-12.09
845.484	-9.35
845.654	-8.56
845.824	-9.61
845.995	-13.36
846.165	0.62
846.335	14.16
846.505	2.27
846.675	9.68
846.845	13.65
847.015	-5.81
847.185	-3.79
847.355	-1.61
847.525	10.52
847.695	16.22
847.865	17.07
848.035	7.86
848.205	3.28
848.375	18.47
848.545	8.3
848.715	11.68
848.884	21.23
849.054	5.33
849.224	-1.44
849.394	-9.65
849.564	-1.51
849.733	-7.19
849.903	-12.83
850.073	-29.89
850.243	-32.81
850.412	-29.23
850.582	-37.47
850.752	-50.32
850.921	-27.7
851.091	-30.58
851.26	-24.65
851.43	-38.98
851.599	-20.77
851.769	-27.47
851.939	-17.52
852.108	-7.91
852.278	-6.15
852.447	-10.87
852.616	-20.41
852.786	-26.31
852.955	-19.79
853.125	-21.13
853.294	-23.31
853.463	-25.44
853.633	-17
853.802	-23.77
853.971	-48.97
854.141	-47.39
854.31	-49.41
854.479	-24.48
854.648	-21.44
854.818	-23.55
854.987	-18.26
855.156	-6.36
855.325	-13.04
855.494	-19.93
855.663	-12.81
855.832	2.61
856.001	0.55
856.171	-8.59
856.34	-7.15
856.509	8.41
856.678	14.24
856.847	8.4
857.016	2.81
857.185	20.19
857.353	19.6
857.522	24.32
857.691	24.98
857.86	18.19
858.029	25.69
858.198	16.02
858.367	6.82
858.535	12.31
858.704	16.23
858.873	8.8
859.042	4.96
859.21	3
859.379	-15.39
859.548	-24.67
859.717	-9.06
859.885	-5.64
860.054	9.25
860.222	10.83
860.391	8.22
860.56	8.02
860.728	16.17
860.897	12.7
861.065	17.69
861.234	27.56
861.402	16.25
861.571	20.11
861.739	13.79
861.908	-4.43
862.076	-17.63
862.244	-40.3
862.413	-46.78
862.581	-43.89
862.749	-74.76
862.918	-90.83
863.086	-101.17
863.254	-81.04
863.423	-105.72
863.591	-93.91
863.759	-74.69
863.927	-50.38
864.096	-51.97
864.264	-85.09
864.432	-105.09
864.6	-121.25
864.768	-28.67
864.936	-62.44
865.104	-17.81
865.272	-22.45
865.44	-29.15
865.608	-44.84
865.776	-20.2
865.944	-11.94
866.112	-33.15
866.28	-42.47
866.448	-17.94
866.616	-18.48
866.784	-12.03
866.952	-20.62
867.12	-30.87
867.288	-41.85
867.455	-39.68
867.623	-32.08
867.791	-27.27
867.959	-15.91
868.127	-15.58
868.294	-16.8
868.462	-34.83
868.63	-35.74
868.797	-19.8
868.965	4.01
869.133	5.8
869.3	10.6
869.468	14.77
869.636	19.14
869.803	16.2
869.971	29.12
870.138	21.8
870.306	40.65
870.473	19.51
870.641	4.07
870.808	-6.89
870.975	-4.08
871.143	5.77
871.31	-14.84
871.478	-22.72
871.645	-16.83
871.812	-22.18
871.98	-19.5
872.147	-23.71
872.314	-13.12
872.482	-15.02
872.649	1.12
872.816	3.92
872.983	-7.52
873.15	-14.05
873.318	-7.2
873.485	-42.97
873.652	-23.69
873.819	-35.2
873.986	-23.63
874.153	-37.03
874.32	-20.67
874.487	-22.6
874.654	-12.94
874.821	-1.81
874.988	1.33
875.155	11.86
875.322	29
875.489	21.35
875.656	21.59
875.823	18.85
875.99	21.21
876.157	15.03
876.324	12.47
876.49	9.37
876.657	9.62
876.824	11.54
876.991	4.84
877.157	2.32
877.324	10.8
877.491	4.25
877.658	-1.43
877.824	-5.88
877.991	2.42
878.157	7.47
878.324	11.77
878.491	12.2
878.657	15.12
878.824	3.35
878.99	0.47
879.157	-3.48
879.323	18.74
879.49	21.2
879.656	23.92
879.823	30.09
879.989	15.49
880.156	15.5
880.322	13.09
880.488	12.72
880.655	26.18
880.821	26.09
880.987	34.48
881.154	26.07
881.32	15.13
881.486	3.97
881.652	-1.27
881.819	13.89
881.985	8.15
882.151	10
882.317	9.51
882.483	8.01
882.649	8.81
882.816	5.19
882.982	6.37
883.148	10.09
883.314	11.77
883.48	11.09
883.646	8.55
883.812	9.79
883.978	12.92
884.144	12.96
884.31	12.81
884.476	12.15
884.642	10.09
884.807	9.92
884.973	9.34
885.139	11.07
885.305	12.07
885.471	11.76
885.637	13.48
885.802	8.38
885.968	6.64
886.134	7.35
886.3	10.9
886.465	13.53
886.631	10.59
886.797	7.21
886.962	7.71
887.128	7.07
887.293	5.95
887.459	3.67
887.625	-2.79
887.79	-1.89
887.956	-6.1
888.121	-13.15
888.287	-13.6
888.452	-11.79
888.618	-4.01
888.783	-16.91
