Data from 2937895_Reflection_2.txt Node
Date: Wed Jul 15 13:53:54 EDT 2015
User: robert
Spectrometer: USB4E03001
Autoset integration time: false
Trigger mode: 4
Integration Time (sec): 1.000000E-1
Scans to average: 10
Electric dark correction enabled: true
Nonlinearity correction enabled: false
Boxcar width: 5
Stray light correction enabled: false
XAxis mode: Wavelengths
Stop averaging: false
Number of Pixels in Spectrum: 3648
>>>>>Begin Spectral Data<<<<<
177.566	72.4
177.785	236.51
178.005	130.41
178.225	97.19
178.445	142.6
178.665	221.58
178.885	53.89
179.105	116.95
179.324	122.24
179.544	120.65
179.764	165.09
179.984	174.14
180.204	229.58
180.423	206.02
180.643	143.43
180.863	170.9
181.083	213.87
181.302	521.57
181.522	232.14
181.742	-1728.77
181.961	-106.05
182.181	-472.87
182.401	-127.71
182.621	-155.21
182.84	-149.04
183.06	-439.14
183.279	-190.09
183.499	-423.92
183.719	-2575
183.938	918.2
184.158	453.66
184.377	301.06
184.597	262.69
184.816	145.96
185.036	134.78
185.256	178.07
185.475	207.84
185.695	202.14
185.914	310.07
186.134	254.76
186.353	566.3
186.572	382.81
186.792	431.8
187.011	305.8
187.231	460.93
187.45	871.85
187.67	325.96
187.889	354.85
188.108	190.54
188.328	121.36
188.547	166.3
188.766	205.76
188.986	199.9
189.205	175.32
189.424	208.47
189.644	263.88
189.863	434.76
190.082	-1686.83
190.302	1445.03
190.521	-613.17
190.74	-354.59
190.959	-224.8
191.178	-782.12
191.398	-370.37
191.617	-1097.58
191.836	1544.95
192.055	304.68
192.274	164.92
192.494	149.97
192.713	137.66
192.932	141.84
193.151	158.91
193.37	183.06
193.589	177.44
193.808	239.12
194.027	495.32
194.246	-1001.53
194.465	-5577.61
194.685	-2876.53
194.904	-815.32
195.123	-329.16
195.342	-159.08
195.561	-198.52
195.78	-252.54
195.999	-125.18
196.218	-101.63
196.436	-215.74
196.655	87522.22
196.874	-647.89
197.093	-672.99
197.312	407.35
197.531	563.5
197.75	327.28
197.969	1830.16
198.188	700.09
198.407	417.54
198.625	265.62
198.844	216.17
199.063	325.35
199.282	437.43
199.501	743.94
199.719	5390.05
199.938	678.41
200.157	1890.32
200.376	667.9
200.594	1734.12
200.813	-309.73
201.032	-126.87
201.251	-16.62
201.469	501.16
201.688	470.14
201.907	212.42
202.125	-150.56
202.344	-767.45
202.563	-154.54
202.781	-195.63
203	-1147.16
203.218	-2446.64
203.437	1255.57
203.656	-337.86
203.874	-288.91
204.093	-357.35
204.311	-309.87
204.53	-583.65
204.748	-482.3
204.967	10399.12
205.185	1419.2
205.404	-7469.4
205.622	476.1
205.841	358.39
206.059	236.83
206.278	2303.16
206.496	554.61
206.715	341.89
206.933	203.41
207.151	1116.75
207.37	-9247.06
207.588	681.88
207.806	-476.91
208.025	-590.01
208.243	-274.86
208.461	-717.53
208.68	562.55
208.898	209.28
209.116	146.79
209.335	110.82
209.553	118.02
209.771	174.5
209.989	157.85
210.208	128.49
210.426	148.37
210.644	161.06
210.862	166.44
211.081	165.81
211.299	196.19
211.517	181.88
211.735	232.86
211.953	191.73
212.171	179.73
212.39	180.23
212.608	218.67
212.826	245.24
213.044	169.99
213.262	195.45
213.48	236.96
213.698	188.92
213.916	263.15
214.134	225.99
214.352	223.09
214.57	321.75
214.788	345.3
215.006	352.67
215.224	325.63
215.442	336.33
215.66	321.6
215.878	287.55
216.096	762.3
216.314	1402
216.532	-1682.62
216.75	840.96
216.968	361.64
217.185	511.14
217.403	601.33
217.621	1118.04
217.839	-287.19
218.057	-639.74
218.275	-460.62
218.492	1646.84
218.71	288.37
218.928	250.26
219.146	-300
219.363	-619.33
219.581	15300
219.799	353.15
220.017	476.16
220.234	270.25
220.452	212.85
220.67	247.01
220.887	239.34
221.105	6533.78
221.323	-373.66
221.54	-126.56
221.758	-33.95
221.976	-2.06
222.193	22.67
222.411	56.32
222.629	-17.5
222.846	-43.51
223.064	-107.76
223.281	-46.38
223.499	-76.89
223.716	-130.67
223.934	-132.37
224.151	-164.73
224.369	-368.38
224.586	-249.23
224.804	-325.27
225.021	-194.95
225.239	-141.72
225.456	-111.02
225.674	-119.25
225.891	-146.62
226.108	-98.71
226.326	-39
226.543	-20.57
226.76	7.73
226.978	-8.01
227.195	-5.98
227.413	-6.47
227.63	1.84
227.847	6.87
228.064	1.01
228.282	3.41
228.499	3.2
228.716	6.29
228.934	7.6
229.151	7.56
229.368	10.38
229.585	7.92
229.802	9.7
230.02	8.11
230.237	2.98
230.454	1.86
230.671	0.55
230.888	3.3
231.105	-2.52
231.323	-8.09
231.54	-20.31
231.757	-23.87
231.974	-26.24
232.191	-35.24
232.408	-45.51
232.625	-46.57
232.842	-39.8
233.059	-28.2
233.276	-44.02
233.493	-40.29
233.71	-34.14
233.927	-15.91
234.144	-22.7
234.361	-21.92
234.578	-12.33
234.795	-8.54
235.012	-7.37
235.229	-3.3
235.446	-4.69
235.663	3.7
235.879	8.74
236.096	6.7
236.313	-2.61
236.53	-8.23
236.747	-3.64
236.964	-1.48
237.181	3.07
237.397	2.88
237.614	1
237.831	-1.5
238.048	-1.35
238.264	-4.01
238.481	-12.73
238.698	-10.18
238.915	-4.29
239.131	-8.74
239.348	-17.26
239.565	-13.37
239.781	-11.96
239.998	-6.8
240.215	-2.77
240.431	-3.77
240.648	-3.43
240.865	1.5
241.081	0.8
241.298	1.12
241.514	3.5
241.731	5.76
241.947	3.78
242.164	4.45
242.38	3.74
242.597	3.91
242.814	5.37
243.03	7.23
243.246	7.62
243.463	7.35
243.679	8.33
243.896	7.78
244.112	8.79
244.329	6.95
244.545	8.36
244.762	6.56
244.978	4.73
245.194	2.66
245.411	1.85
245.627	2.21
245.843	5.28
246.06	4.39
246.276	4.5
246.492	4.57
246.709	5.85
246.925	7.08
247.141	7.92
247.357	6.7
247.574	7.84
247.79	7.66
248.006	9.12
248.222	9.7
248.439	11.01
248.655	10.5
248.871	8.49
249.087	8.98
249.303	7.43
249.519	5.14
249.736	5.92
249.952	4.66
250.168	5.26
250.384	3.1
250.6	0.66
250.816	-1.54
251.032	-0.49
251.248	2
251.464	1.54
251.68	4.13
251.896	6.27
252.112	6.09
252.328	5.11
252.544	4.96
252.76	3.17
252.976	4.36
253.192	2.84
253.408	2.87
253.624	6.25
253.84	6.85
254.056	3.61
254.272	2.7
254.487	4.76
254.703	3.66
254.919	2.49
255.135	3.64
255.351	0.99
255.567	-0.33
255.782	-0.53
255.998	-7
256.214	-9.78
256.43	-11.09
256.646	-7.28
256.861	-10.31
257.077	-10.77
257.293	-10.78
257.508	-8.88
257.724	-5.47
257.94	-5.47
258.155	-1.8
258.371	1.36
258.587	2.83
258.802	5.58
259.018	5.59
259.234	8.4
259.449	8.93
259.665	9.62
259.88	9.57
260.096	8.02
260.312	9.13
260.527	8.4
260.743	7.9
260.958	7.41
261.174	6.61
261.389	7.32
261.605	5.61
261.82	5.88
262.036	5.24
262.251	4.51
262.466	5.6
262.682	2.62
262.897	1.77
263.113	1.78
263.328	1.61
263.543	0.74
263.759	-3.38
263.974	-5.5
264.189	-8.54
264.405	-7.43
264.62	-8.43
264.835	-9.32
265.051	-7.58
265.266	-7.4
265.481	-6.35
265.696	-5.44
265.912	-4.3
266.127	-3.17
266.342	-2.4
266.557	-0.65
266.773	-3.09
266.988	-1.73
267.203	-0.63
267.418	1.13
267.633	3.62
267.848	1.69
268.064	2.58
268.279	1.24
268.494	2.04
268.709	4.05
268.924	3.46
269.139	5.05
269.354	4.09
269.569	4.52
269.784	3.32
269.999	2.32
270.214	2.99
270.429	3.76
270.644	5.51
270.859	6.66
271.074	5.43
271.289	7.27
271.504	7.44
271.719	6.77
271.934	6.2
272.149	7.79
272.363	7.76
272.578	8.34
272.793	7.55
273.008	7.07
273.223	4.99
273.438	5.21
273.653	4.34
273.867	1.57
274.082	1.75
274.297	1.21
274.512	-1.22
274.726	-1.72
274.941	-3.84
275.156	-5.24
275.371	-2.73
275.585	-0.72
275.8	-2.68
276.015	-3.12
276.229	1.12
276.444	2.18
276.659	1.26
276.873	2.96
277.088	3.36
277.302	5.55
277.517	6.12
277.732	3.88
277.946	1.33
278.161	4.27
278.375	5.59
278.59	3.82
278.804	3.98
279.019	5.81
279.233	6.93
279.448	4.6
279.662	3.3
279.877	1.74
280.091	4.25
280.306	7.54
280.52	8.82
280.735	7.78
280.949	7.38
281.163	7.17
281.378	8.04
281.592	7.14
281.806	8.89
282.021	9.72
282.235	10
282.449	11.3
282.664	9.11
282.878	7.98
283.092	8.69
283.307	9.39
283.521	9.11
283.735	9.46
283.949	9.88
284.164	11.18
284.378	10.27
284.592	10.83
284.806	8.2
285.02	9.49
285.234	10.08
285.449	9.75
285.663	11.02
285.877	11.91
286.091	11.44
286.305	11.49
286.519	10.5
286.733	11.29
286.947	11.28
287.161	12.2
287.375	12.7
287.589	10.63
287.803	9.96
288.017	8.46
288.231	6
288.445	5.24
288.659	5.42
288.873	6.34
289.087	6.48
289.301	6.38
289.515	5.35
289.729	3.68
289.943	2.93
290.157	4.37
290.371	3.1
290.584	4.51
290.798	4.58
291.012	4.87
291.226	3.54
291.44	4.15
291.654	4.11
291.867	3.7
292.081	2.87
292.295	5.25
292.509	2.09
292.722	3.4
292.936	3.72
293.15	4.06
293.364	2.42
293.577	2.26
293.791	2.06
294.005	1.97
294.218	3.27
294.432	4.9
294.645	3.54
294.859	4.48
295.073	6.46
295.286	5.46
295.5	4.22
295.713	3.93
295.927	5.07
296.14	4.28
296.354	4.38
296.568	4.21
296.781	5.81
296.994	6.41
297.208	7.46
297.421	5.78
297.635	5.76
297.848	7.36
298.062	8.44
298.275	7.92
298.489	6.93
298.702	7.48
298.915	6.05
299.129	3.84
299.342	4.04
299.555	2.36
299.769	3.11
299.982	3.14
300.195	2.2
300.409	2.44
300.622	2.54
300.835	3.53
301.048	0.65
301.262	2.73
301.475	4.35
301.688	4.37
301.901	5.61
302.115	5.66
302.328	5.07
302.541	6.03
302.754	5.16
302.967	4.92
303.18	6.63
303.393	9.4
303.607	8.07
303.82	8.29
304.033	8.97
304.246	8.24
304.459	8.37
304.672	9.58
304.885	9.25
305.098	7.54
305.311	8.54
305.524	7.86
305.737	6.14
305.95	7.45
306.163	6.31
306.376	3.96
306.589	6.65
306.802	5.88
307.015	5.44
307.228	4.81
307.44	6.26
307.653	4.81
307.866	3.54
308.079	4.44
308.292	3.32
308.505	3.53
308.718	5.15
308.93	4.1
309.143	4.68
309.356	4.22
309.569	3.27
309.781	3.58
309.994	5.45
310.207	5.77
310.42	6.05
310.632	7.5
310.845	7.77
311.058	8.38
311.27	8.83
311.483	9.19
311.696	9.95
311.908	11.33
312.121	11.12
312.333	10.55
312.546	11.15
312.759	11.62
312.971	11.83
313.184	11.8
313.396	11.32
313.609	10.63
313.821	11.19
314.034	10.24
314.246	9.57
314.459	10.76
314.671	10.13
314.884	10.55
315.096	11.11
315.309	9.66
315.521	10.35
315.733	10.19
315.946	10.29
316.158	8.7
316.371	8.92
316.583	8.2
316.795	8.49
317.008	9.48
317.22	9.21
317.432	9.44
317.644	10.74
317.857	8.47
318.069	9.87
318.281	10.12
318.494	11.05
318.706	12.67
318.918	14.13
319.13	13.57
319.342	12.57
319.555	12.8
319.767	9.93
319.979	9.41
320.191	10.86
320.403	7.77
320.615	8.49
320.827	7.22
321.039	6.04
321.252	3.82
321.464	3.43
321.676	4.21
321.888	1.95
322.1	4.78
322.312	6.47
322.524	6.55
322.736	7.98
322.948	7.35
323.16	7.27
323.372	8.11
323.584	8.81
323.796	6.75
324.007	6.47
324.219	8.14
324.431	6.53
324.643	4.63
324.855	6.14
325.067	5.59
325.279	6.3
325.491	7.95
325.702	8.49
325.914	9.02
326.126	11.71
326.338	11.31
326.55	10.82
326.761	13.18
326.973	15.25
327.185	12.49
327.396	12.82
327.608	12.27
327.82	11.17
328.032	10.73
328.243	11.19
328.455	9.28
328.666	9.73
328.878	10.75
329.09	8.64
329.301	7.13
329.513	9.07
329.725	8.89
329.936	8.33
330.148	8.41
330.359	7.91
330.571	7.47
330.782	7.78
330.994	7.66
331.205	7.41
331.417	7.82
331.628	7.9
331.84	7.39
332.051	8.13
332.262	9.18
332.474	10.77
332.685	11.83
332.897	11.66
333.108	13.74
333.319	14.97
333.531	14.88
333.742	14.81
333.953	14.79
334.165	14.86
334.376	14.4
334.587	13.5
334.799	11.45
335.01	11.31
335.221	10.42
335.432	9.93
335.644	10.03
335.855	9.59
336.066	11.66
336.277	13.57
336.488	14.84
336.7	15.68
336.911	16.38
337.122	18.36
337.333	18.51
337.544	19.23
337.755	19.04
337.966	19.58
338.177	20.26
338.388	18.58
338.599	15.91
338.811	14.38
339.022	13.9
339.233	13.59
339.444	12.25
339.655	11.09
339.866	11.98
340.076	11.28
340.287	10.27
340.498	10.85
340.709	11.2
340.92	11.83
341.131	11.26
341.342	9.56
341.553	8.69
341.764	9.38
341.975	10.31
342.185	10.32
342.396	11.17
342.607	11.35
342.818	10.13
343.029	10.12
343.239	10.72
343.45	11.58
343.661	12.7
343.872	13.32
344.082	11.98
344.293	10.26
344.504	10.22
344.714	8.84
344.925	8.59
345.136	9
345.346	9.3
345.557	9.2
345.768	10.18
345.978	9.83
346.189	10.15
346.399	10.27
346.61	12.13
346.821	11.55
347.031	12.98
347.242	11.8
347.452	10.57
347.663	10.16
347.873	8.93
348.084	8.73
348.294	10.13
348.504	9.26
348.715	10.2
348.925	8.62
349.136	9.33
349.346	6.64
349.557	7.31
349.767	9.18
349.977	10.53
350.188	11.68
350.398	11.67
350.608	11.43
350.819	12.16
351.029	11.59
351.239	12.31
351.449	12.29
351.66	13.89
351.87	12.53
352.08	11.93
352.29	10.54
352.501	9.84
352.711	11.01
352.921	10.37
353.131	9.85
353.341	8.96
353.552	8.57
353.762	7.81
353.972	8.79
354.182	10.02
354.392	8.82
354.602	9.01
354.812	10.39
355.022	7.98
355.232	9.43
355.442	9.79
355.652	11.2
355.862	12.05
356.072	12.22
356.282	12.04
356.492	11.48
356.702	12.25
356.912	11.48
357.122	11
357.332	12
357.542	10.86
357.752	12.65
357.962	12.5
358.171	12.44
358.381	13.23
358.591	12.93
358.801	14.25
359.011	14.59
359.221	15.84
359.43	15.83
359.64	14.58
359.85	14.46
360.06	13.1
360.269	12.38
360.479	12.35
360.689	11.61
360.899	12.06
361.108	10.98
361.318	11.7
361.528	11.79
361.737	11.81
361.947	12.49
362.156	12.43
362.366	12.49
362.576	13.2
362.785	12.48
362.995	13.42
363.204	12.27
363.414	13.36
363.623	12.58
363.833	11.72
364.042	11.13
364.252	10.79
364.461	10.57
364.671	9.88
364.88	9.19
365.09	10.09
365.299	9.12
365.509	10.26
365.718	9.54
365.927	10.03
366.137	10.55
366.346	12.08
366.555	11.95
366.765	12.29
366.974	12.3
367.183	12.51
367.393	12.15
367.602	11.74
367.811	11.04
368.021	10.32
368.23	9.89
368.439	9.88
368.648	8.58
368.857	8.21
369.067	7.93
369.276	7.2
369.485	6.71
369.694	5.64
369.903	6.44
370.112	6.53
370.321	6.96
370.531	7.36
370.74	7.11
370.949	7.26
371.158	7.74
371.367	7.73
371.576	8.28
371.785	8.45
371.994	8.43
372.203	8.12
372.412	8.59
372.621	8.86
372.83	8.02
373.039	8.28
373.248	8.08
373.457	8.7
373.666	8.03
373.874	8.49
374.083	8.72
374.292	8.97
374.501	8.3
374.71	7.48
374.919	7.59
375.128	8.22
375.336	8.17
375.545	8.6
375.754	8.4
375.963	9.57
376.171	9.28
376.38	9.41
376.589	10.33
376.798	11.11
377.006	11.67
377.215	11.31
377.424	10.82
377.632	10.73
377.841	10.08
378.05	9.22
378.258	9.07
378.467	9.26
378.675	9.34
378.884	9.2
379.093	8.52
379.301	8.03
379.51	7.88
379.718	8.26
379.927	7.9
380.135	7.95
380.344	8.37
380.552	8.65
380.761	8.45
380.969	8.03
381.177	7.45
381.386	7.56
381.594	7.19
381.803	7.3
382.011	7.23
382.219	7.31
382.428	7.06
382.636	7
382.845	6.77
383.053	6.21
383.261	6.39
383.469	6.5
383.678	7.04
383.886	7.42
384.094	7.51
384.302	7.66
384.511	7.99
384.719	8.73
384.927	8.23
385.135	8.69
385.343	9.02
385.552	9.06
385.76	8.47
385.968	8
386.176	8.57
386.384	8.32
386.592	7.72
386.8	7.43
387.008	7.11
387.216	8.03
387.424	7.36
387.633	7.74
387.841	7.85
388.049	8.24
388.257	7.91
388.465	7.15
388.672	7.58
388.88	7.96
389.088	8.04
389.296	7.9
389.504	7.5
389.712	7.89
389.92	7.3
390.128	7.58
390.336	7.81
390.544	8.18
390.751	8.38
390.959	7.78
391.167	7.43
391.375	7.03
391.583	7.26
391.79	7.47
391.998	6.55
392.206	6.9
392.414	6.18
392.621	6.55
392.829	6.14
393.037	5.77
393.244	6.06
393.452	6.75
393.66	6.66
393.867	6.66
394.075	6.44
394.283	6.78
394.49	6.6
394.698	6.71
394.905	6.09
395.113	6.56
395.32	6.64
395.528	6.57
395.735	5.75
395.943	5.74
396.15	5.31
396.358	5.67
396.565	5.79
396.773	5.58
396.98	5.93
397.188	6.02
397.395	5.71
397.602	5.8
397.81	6.01
398.017	6.36
398.225	6.71
398.432	6.93
398.639	6.6
398.847	6.45
399.054	6.7
399.261	6.58
399.468	6.5
399.676	6.83
399.883	6.55
400.09	6.36
400.297	6.4
400.505	6.36
400.712	5.95
400.919	6.06
401.126	6.06
401.333	5.85
401.54	5.47
401.748	5.3
401.955	4.8
402.162	5.27
402.369	5.52
402.576	5.57
402.783	5.59
402.99	5.56
403.197	5.78
403.404	6.39
403.611	6.39
403.818	6.53
404.025	6.79
404.232	6.84
404.439	6.83
404.646	6.62
404.853	6.48
405.06	6.5
405.267	7.06
405.474	6.76
405.681	6.66
405.887	6.85
406.094	6.92
406.301	6.77
406.508	7.02
406.715	7.01
406.922	6.87
407.128	6.95
407.335	6.8
407.542	6.52
407.749	6.19
407.955	5.9
408.162	5.57
408.369	5.52
408.575	5.38
408.782	5.27
408.989	5.13
409.195	5.23
409.402	4.57
409.609	4.36
409.815	4.33
410.022	4.75
410.228	4.5
410.435	4.8
410.642	4.42
410.848	4.71
411.055	4.92
411.261	5.18
411.468	5.15
411.674	5.64
411.881	5.84
412.087	5.64
412.294	5.65
412.5	5.69
412.706	5.54
412.913	5.93
413.119	5.52
413.326	5.2
413.532	4.88
413.738	4.84
413.945	4.69
414.151	4.38
414.357	4.74
414.564	4.6
414.77	4.95
414.976	4.94
415.182	5.02
415.389	5.14
415.595	5.32
415.801	5.22
416.007	5.23
416.214	5.19
416.42	5.6
416.626	5.81
416.832	5.58
417.038	5.32
417.244	5.15
417.45	5.11
417.657	5.39
417.863	5.37
418.069	5.48
418.275	5.57
418.481	5.73
418.687	5.71
418.893	5.49
419.099	5.73
419.305	5.82
419.511	5.91
419.717	5.89
419.923	5.74
420.129	5.64
420.335	5.67
420.541	5.69
420.746	5.67
420.952	5.65
421.158	5.65
421.364	5.76
421.57	5.73
421.776	5.85
421.982	5.94
422.187	5.82
422.393	5.82
422.599	5.84
422.805	5.81
423.01	5.62
423.216	5.51
423.422	5.29
423.628	5.13
423.833	5.07
424.039	4.98
424.245	4.84
424.45	4.91
424.656	4.9
424.862	4.88
425.067	4.86
425.273	5.04
425.478	5.02
425.684	5.37
425.889	5.41
426.095	5.48
426.301	5.58
426.506	5.45
426.712	5.58
426.917	5.55
427.123	5.35
427.328	5.14
427.533	4.73
427.739	4.74
427.944	4.67
428.15	4.5
428.355	4.47
428.561	4.21
428.766	4.26
428.971	4.32
429.177	4.33
429.382	4.41
429.587	4.55
429.793	4.71
429.998	4.65
430.203	4.29
430.408	4.13
430.614	4.09
430.819	4.19
431.024	4.17
431.229	4.06
431.434	4.12
431.64	4.27
431.845	4.47
432.05	4.57
432.255	4.55
432.46	4.72
432.665	4.83
432.87	4.89
433.076	4.69
433.281	4.91
433.486	4.98
433.691	5.03
433.896	5
434.101	4.88
434.306	5.01
434.511	5.23
434.716	4.98
434.921	4.85
435.126	4.74
435.331	4.93
435.535	4.88
435.74	4.82
435.945	4.71
436.15	4.84
436.355	4.64
436.56	4.65
436.765	4.65
436.97	4.76
437.174	4.97
437.379	4.91
437.584	4.96
437.789	5
437.993	4.98
438.198	4.97
438.403	4.75
438.608	4.88
438.812	4.68
439.017	4.65
439.222	4.61
439.426	4.36
439.631	4.43
439.836	4.28
440.04	4.28
440.245	4.36
440.45	4.42
440.654	4.52
440.859	4.6
441.063	4.64
441.268	4.59
441.472	4.68
441.677	4.84
441.881	4.73
442.086	4.78
442.29	4.88
442.495	4.74
442.699	4.68
442.904	4.53
443.108	4.37
443.312	4.14
443.517	4.18
443.721	4.16
443.925	4.07
444.13	4.18
444.334	4.33
444.538	4.15
444.743	4.29
444.947	4.34
445.151	4.39
445.356	4.72
445.56	5.04
445.764	4.97
445.968	4.92
446.173	4.86
446.377	4.76
446.581	4.64
446.785	4.63
446.989	4.63
447.193	4.51
447.398	4.43
447.602	4.2
447.806	3.97
448.01	3.75
448.214	3.8
448.418	3.84
448.622	3.79
448.826	3.97
449.03	3.88
449.234	3.84
449.438	3.79
449.642	4.08
449.846	4.06
450.05	4.36
450.254	4.67
450.458	4.7
450.662	4.68
450.866	4.75
451.069	4.33
451.273	4.26
451.477	4.5
451.681	4.57
451.885	4.26
452.089	4.33
452.292	4.12
452.496	4.09
452.7	3.92
452.904	3.96
453.107	4.03
453.311	4.02
453.515	4.09
453.719	4.02
453.922	4.05
454.126	4.22
454.33	4.17
454.533	4.26
454.737	4.11
454.94	4.23
455.144	3.89
455.348	3.97
455.551	4.12
455.755	4.03
455.958	3.73
456.162	3.92
456.365	3.68
456.569	3.71
456.772	3.52
456.976	3.81
457.179	3.53
457.383	3.77
457.586	3.69
457.79	4.04
457.993	4.19
458.196	4.48
458.4	4.37
458.603	4.55
458.807	4.43
459.01	4.55
459.213	4.34
459.417	4.63
459.62	4.78
459.823	4.81
460.026	4.71
460.23	4.82
460.433	4.65
460.636	4.75
460.839	4.73
461.042	4.72
461.246	4.8
461.449	5.02
461.652	4.82
461.855	4.86
462.058	4.97
462.261	4.87
462.464	4.44
462.668	4.38
462.871	4.21
463.074	4.01
463.277	4.24
463.48	4.2
463.683	3.85
463.886	3.73
464.089	3.56
464.292	3.36
464.495	3.29
464.698	3.51
464.901	3.56
465.104	3.68
465.306	3.82
465.509	3.78
465.712	3.87
465.915	4.01
466.118	4.24
466.321	4.37
466.524	4.61
466.726	4.59
466.929	4.57
467.132	4.52
467.335	4.44
467.538	4.24
467.74	4.25
467.943	4.29
468.146	4.39
468.348	4.43
468.551	4.22
468.754	4.11
468.956	4.2
469.159	4.26
469.362	4.2
469.564	4.07
469.767	4.15
469.969	3.92
470.172	3.72
470.375	3.58
470.577	3.35
470.78	3.4
470.982	3.24
471.185	3.29
471.387	3.19
471.59	3.26
471.792	3.59
471.995	3.66
472.197	3.8
472.399	3.95
472.602	3.83
472.804	4.26
473.007	4.4
473.209	4.5
473.411	4.41
473.614	4.51
473.816	4.36
474.018	4.13
474.22	4.33
474.423	4.25
474.625	3.96
474.827	3.96
475.03	3.79
475.232	4.02
475.434	4.03
475.636	4.08
475.838	4.14
476.04	4.27
476.243	4.51
476.445	4.49
476.647	4.63
476.849	4.81
477.051	4.81
477.253	4.78
477.455	4.6
477.657	4.67
477.859	4.62
478.061	4.69
478.263	4.52
478.465	4.52
478.667	4.43
478.869	4.25
479.071	4.5
479.273	4.62
479.475	4.58
479.677	4.51
479.879	4.48
480.081	4.67
480.283	4.66
480.485	4.96
480.686	4.82
480.888	4.7
481.09	4.81
481.292	4.65
481.494	4.69
481.695	4.59
481.897	4.65
482.099	4.59
482.301	4.52
482.502	4.55
482.704	4.59
482.906	4.61
483.107	4.66
483.309	4.65
483.511	4.62
483.712	4.61
483.914	4.65
484.115	4.6
484.317	4.66
484.519	4.6
484.72	4.55
484.922	4.51
485.123	4.44
485.325	4.4
485.526	4.39
485.728	4.42
485.929	4.46
486.131	4.41
486.332	4.48
486.534	4.41
486.735	4.41
486.936	4.45
487.138	4.38
487.339	4.45
487.541	4.47
487.742	4.48
487.943	4.45
488.144	4.45
488.346	4.45
488.547	4.41
488.748	4.5
488.95	4.53
489.151	4.48
489.352	4.47
489.553	4.38
489.755	4.35
489.956	4.35
490.157	4.34
490.358	4.29
490.559	4.32
490.76	4.24
490.961	4.25
491.163	4.29
491.364	4.34
491.565	4.4
491.766	4.46
491.967	4.44
492.168	4.42
492.369	4.34
492.57	4.29
492.771	4.38
492.972	4.49
493.173	4.39
493.374	4.4
493.575	4.31
493.776	4.3
493.976	4.27
494.177	4.24
494.378	4.18
494.579	4.29
494.78	4.28
494.981	4.11
495.182	4.01
495.382	3.98
495.583	3.86
495.784	4.11
495.985	4.05
496.185	4.07
496.386	4.18
496.587	4.31
496.788	4.32
496.988	4.44
497.189	4.4
497.39	4.37
497.59	4.4
497.791	4.51
497.992	4.37
498.192	4.21
498.393	4.22
498.593	4.15
498.794	3.89
498.994	3.85
499.195	3.65
499.395	3.76
499.596	3.66
499.796	3.53
499.997	3.54
500.197	3.48
500.398	3.76
500.598	3.75
500.799	3.88
500.999	4.03
501.199	4.05
501.4	4.32
501.6	4.28
501.801	4.31
502.001	4.34
502.201	4.23
502.402	4.32
502.602	4.05
502.802	4.01
503.002	3.95
503.203	4.04
503.403	4.04
503.603	4
503.803	4.04
504.003	4.21
504.204	4.15
504.404	4.17
504.604	4.18
504.804	4.52
505.004	4.64
505.204	4.85
505.404	4.79
505.604	4.91
505.804	4.92
506.005	4.9
506.205	4.75
506.405	4.76
506.605	4.73
506.805	4.67
507.005	4.57
507.204	4.51
507.404	4.3
507.604	4.34
507.804	4.06
508.004	4.1
508.204	4.16
508.404	4.31
508.604	4.36
508.804	4.46
509.003	4.52
509.203	4.59
509.403	4.57
509.603	4.52
509.803	4.51
510.002	4.72
510.202	4.64
510.402	4.63
510.602	4.64
510.801	4.72
511.001	4.74
511.201	4.79
511.4	4.89
511.6	4.94
511.8	5.12
511.999	5.08
512.199	4.89
512.398	4.92
512.598	4.92
512.797	5.09
512.997	5.08
513.197	4.96
513.396	5.05
513.596	4.96
513.795	5.1
513.994	5.05
514.194	5.02
514.393	5.17
514.593	5.14
514.792	5.11
514.992	4.94
515.191	4.88
515.39	4.89
515.59	4.82
515.789	4.75
515.988	4.63
516.188	4.6
516.387	4.57
516.586	4.55
516.786	4.77
516.985	4.88
517.184	4.9
517.383	4.99
517.582	5.11
517.782	5.09
517.981	5.23
518.18	5.19
518.379	5.15
518.578	5.3
518.777	5.28
518.976	5.04
519.176	4.88
519.375	4.82
519.574	4.79
519.773	4.73
519.972	4.61
520.171	4.47
520.37	4.52
520.569	4.51
520.768	4.41
520.967	4.49
521.166	4.49
521.365	4.63
521.564	4.64
521.762	4.75
521.961	4.62
522.16	4.89
522.359	4.87
522.558	4.68
522.757	4.83
522.956	4.94
523.154	5.13
523.353	5.32
523.552	5.29
523.751	5.48
523.949	5.48
524.148	5.62
524.347	5.41
524.546	5.42
524.744	5.51
524.943	5.46
525.142	5.41
525.34	5.3
525.539	5.3
525.737	5.26
525.936	5.31
526.135	5.26
526.333	5.35
526.532	5.39
526.73	5.32
526.929	5.39
527.127	5.5
527.326	5.51
527.524	5.49
527.723	5.5
527.921	5.61
528.12	5.6
528.318	5.61
528.516	5.58
528.715	5.58
528.913	5.65
529.112	5.63
529.31	5.62
529.508	5.66
529.707	5.68
529.905	5.69
530.103	5.62
530.301	5.59
530.5	5.64
530.698	5.65
530.896	5.66
531.094	5.69
531.293	5.73
531.491	5.72
531.689	5.6
531.887	5.63
532.085	5.66
532.283	5.8
532.481	5.86
532.68	5.87
532.878	5.79
533.076	5.97
533.274	6.01
533.472	6.07
533.67	6.14
533.868	6.16
534.066	6.31
534.264	6.37
534.462	6.34
534.66	6.28
534.858	6.19
535.056	6.35
535.253	6.28
535.451	6.23
535.649	6.12
535.847	6.14
536.045	6.35
536.243	6.11
536.441	6.01
536.638	6.02
536.836	6.13
537.034	6.15
537.232	6.21
537.43	6.15
537.627	6.16
537.825	6.28
538.023	6.24
538.22	6.19
538.418	6.26
538.616	6.31
538.813	6.2
539.011	6.14
539.209	6.34
539.406	6.4
539.604	6.5
539.801	6.57
539.999	6.53
540.196	6.58
540.394	6.59
540.591	6.65
540.789	6.79
540.986	6.89
541.184	6.96
541.381	6.93
541.579	6.95
541.776	6.98
541.974	7.09
542.171	7.13
542.368	7.19
542.566	7.22
542.763	7.38
542.96	7.36
543.158	7.37
543.355	7.54
543.552	7.64
543.75	7.62
543.947	7.64
544.144	7.58
544.341	7.66
544.539	7.62
544.736	7.69
544.933	7.49
545.13	7.35
545.327	7.37
545.524	7.36
545.722	7.38
545.919	7.46
546.116	7.55
546.313	7.65
546.51	7.75
546.707	7.9
546.904	8.12
547.101	8.24
547.298	8.35
547.495	8.35
547.692	8.26
547.889	8.39
548.086	8.44
548.283	8.55
548.48	8.53
548.677	8.59
548.874	8.47
549.07	8.21
549.267	8.28
549.464	8.53
549.661	8.68
549.858	8.78
550.055	8.86
550.251	8.96
550.448	9.09
550.645	8.98
550.842	8.98
551.038	9.41
551.235	9.52
551.432	9.72
551.628	9.86
551.825	9.89
552.022	10.01
552.218	9.87
552.415	9.74
552.612	9.75
552.808	9.88
553.005	9.79
553.201	9.68
553.398	9.72
553.594	9.8
553.791	9.75
553.987	9.81
554.184	9.82
554.38	9.83
554.577	10.04
554.773	10.06
554.97	10.31
555.166	10.62
555.362	10.61
555.559	10.77
555.755	10.85
555.952	10.99
556.148	11.3
556.344	11.41
556.541	11.4
556.737	11.39
556.933	11.49
557.129	11.6
557.326	11.63
557.522	11.77
557.718	11.73
557.914	11.71
558.11	11.55
558.307	11.3
558.503	11.14
558.699	11.38
558.895	11.57
559.091	11.43
559.287	11.08
559.483	11.08
559.679	11.03
559.876	11.1
560.072	11.25
560.268	11.37
560.464	11.39
560.66	11.63
560.856	11.81
561.052	11.69
561.247	11.86
561.443	12.02
561.639	12.26
561.835	12.56
562.031	12.55
562.227	12.24
562.423	12.41
562.619	12.67
562.815	12.44
563.01	12.26
563.206	12.07
563.402	12.27
563.598	12.71
563.793	12.47
563.989	12.44
564.185	12.58
564.381	12.72
564.576	12.62
564.772	12.68
564.968	12.88
565.163	12.89
565.359	13.33
565.555	13.35
565.75	13.23
565.946	13.47
566.141	13.42
566.337	13.5
566.532	13.68
566.728	13.96
566.923	14
567.119	13.87
567.314	14.12
567.51	14.18
567.705	14.07
567.901	13.91
568.096	13.78
568.292	13.85
568.487	13.98
568.682	13.91
568.878	13.93
569.073	13.79
569.268	14.21
569.464	14.12
569.659	14.02
569.854	14.19
570.05	14.4
570.245	14.44
570.44	14.38
570.635	14.28
570.831	14.31
571.026	14.41
571.221	14.55
571.416	14.66
571.611	14.77
571.806	15.03
572.002	14.87
572.197	15
572.392	15.26
572.587	15.31
572.782	15.4
572.977	15.49
573.172	15.48
573.367	15.61
573.562	15.54
573.757	15.45
573.952	15.18
574.147	15.49
574.342	15.29
574.537	15.06
574.732	15.16
574.927	15.2
575.121	15.31
575.316	15.39
575.511	15.46
575.706	15.41
575.901	15.48
576.096	15.55
576.29	15.57
576.485	15.81
576.68	15.97
576.875	16.17
577.069	16.35
577.264	16.37
577.459	16.22
577.654	16.14
577.848	16.32
578.043	16.54
578.238	16.64
578.432	16.57
578.627	16.5
578.821	16.43
579.016	16.23
579.21	16.13
579.405	16.24
579.6	16.04
579.794	16.41
579.989	16.44
580.183	16.25
580.378	16.5
580.572	16.14
580.766	16.28
580.961	16.36
581.155	16.32
581.35	15.98
581.544	16.12
581.738	16.21
581.933	15.83
582.127	15.65
582.321	15.91
582.516	15.85
582.71	15.92
582.904	15.79
583.099	15.95
583.293	16.01
583.487	16.17
583.681	16.01
583.875	16.09
584.07	16.18
584.264	16.11
584.458	15.9
584.652	15.91
584.846	16.23
585.04	16.23
585.234	16.04
585.428	16.42
585.623	16.6
585.817	16.77
586.011	16.84
586.205	16.64
586.399	16.65
586.593	16.65
586.787	16.68
586.981	16.53
587.174	16.76
587.368	16.8
587.562	16.49
587.756	16.31
587.95	16.12
588.144	16.21
588.338	16.73
588.532	16.92
588.725	17.24
588.919	16.78
589.113	16.72
589.307	16.46
589.501	16.58
589.694	16.55
589.888	17.08
590.082	17.18
590.275	16.94
590.469	16.69
590.663	16.54
590.856	16.52
591.05	16.96
591.244	17.31
591.437	17.59
591.631	17.84
591.824	17.87
592.018	17.71
592.212	17.59
592.405	17.75
592.599	17.64
592.792	17.71
592.986	17.49
593.179	17.4
593.372	17.4
593.566	17.41
593.759	17.12
593.953	17.35
594.146	17.09
594.339	17.32
594.533	17.24
594.726	17.3
594.92	17.21
595.113	17.41
595.306	17.54
595.499	17.49
595.693	17.71
595.886	17.79
596.079	17.6
596.272	17.73
596.466	17.51
596.659	17.71
596.852	17.85
597.045	18
597.238	18.09
597.431	17.68
597.624	17.49
597.818	17.34
598.011	17.06
598.204	17.07
598.397	17.03
598.59	16.99
598.783	16.93
598.976	16.81
599.169	16.95
599.362	16.48
599.555	16.73
599.748	16.87
599.941	16.83
600.134	16.97
600.326	16.88
600.519	16.67
600.712	16.82
600.905	16.72
601.098	16.53
601.291	16.35
601.483	16.55
601.676	16.54
601.869	16.94
602.062	17.02
602.255	17.34
602.447	17.52
602.64	17.56
602.833	17.56
603.025	17.72
603.218	17.99
603.411	18.03
603.603	18.03
603.796	17.91
603.989	17.76
604.181	17.63
604.374	17.63
604.566	17.56
604.759	17.66
604.951	17.83
605.144	18.02
605.336	18
605.529	17.96
605.721	17.99
605.914	18.11
606.106	18
606.299	18.15
606.491	18.04
606.683	18.05
606.876	17.91
607.068	17.81
607.26	17.29
607.453	17.09
607.645	17.06
607.837	16.95
608.03	17.09
608.222	17.07
608.414	17.04
608.606	17.04
608.799	16.9
608.991	17.23
609.183	17.05
609.375	17.27
609.567	17.24
609.759	17.12
609.952	17.18
610.144	17.17
610.336	17.26
610.528	17.31
610.72	17.21
610.912	17.38
611.104	17.17
611.296	16.95
611.488	17.24
611.68	17.27
611.872	17.31
612.064	17.39
612.256	17.67
612.448	17.71
612.64	17.83
612.832	17.76
613.023	17.65
613.215	17.43
613.407	17.92
613.599	17.46
613.791	17.49
613.983	17.42
614.174	17.22
614.366	16.9
614.558	16.47
614.75	16.23
614.941	16.47
615.133	16.55
615.325	16.75
615.516	16.5
615.708	16.78
615.9	16.89
616.091	17.09
616.283	17.31
616.475	17.23
616.666	17.34
616.858	17.43
617.049	17.49
617.241	17.5
617.432	17.77
617.624	17.94
617.815	18.03
618.007	17.93
618.198	17.81
618.39	17.52
618.581	17.82
618.773	17.77
618.964	17.55
619.155	17.25
619.347	17.22
619.538	16.9
619.729	16.63
619.921	16.37
620.112	16.36
620.303	16.23
620.494	16.24
620.686	16.03
620.877	16.26
621.068	16.67
621.259	16.97
621.451	16.99
621.642	17.34
621.833	17.45
622.024	17.6
622.215	17.76
622.406	18.19
622.597	18.22
622.788	18.23
622.98	17.95
623.171	17.38
623.362	17.13
623.553	17.34
623.744	16.88
623.935	17.22
624.126	17.05
624.317	16.94
624.508	16.77
624.698	16.95
624.889	17.35
625.08	17.55
625.271	18.11
625.462	18.33
625.653	18.15
625.844	18.42
626.034	17.99
626.225	18
626.416	18.28
626.607	18.41
626.798	18.82
626.988	18.48
627.179	18.62
627.37	18.47
627.56	18.39
627.751	18.22
627.942	18.06
628.132	18.16
628.323	18.19
628.514	17.88
628.704	17.86
628.895	17.7
629.085	17.89
629.276	17.68
629.466	17.65
629.657	17.38
629.847	17.55
630.038	17.65
630.228	17.73
630.419	17.86
630.609	17.54
630.8	17.55
630.99	17.23
631.181	16.94
631.371	16.85
631.561	16.64
631.752	17.22
631.942	17.33
632.132	17.61
632.323	18.06
632.513	17.98
632.703	18.29
632.893	18.06
633.084	18.54
633.274	18.52
633.464	18.65
633.654	18.82
633.844	18.54
634.034	18.41
634.225	18.25
634.415	17.77
634.605	17.84
634.795	17.94
634.985	18.12
635.175	17.36
635.365	17.87
635.555	17.67
635.745	17.53
635.935	17.54
636.125	17.58
636.315	17.59
636.505	17.62
636.695	17.53
636.885	17.81
637.075	17.61
637.265	18.34
637.455	18.18
637.644	18.67
637.834	18.81
638.024	18.76
638.214	18.76
638.404	18.68
638.593	18.83
638.783	19
638.973	18.76
639.163	18.8
639.352	18.52
639.542	18.05
639.732	17.88
639.921	17.83
640.111	17.75
640.301	17.85
640.49	17.75
640.68	17.56
640.87	17.59
641.059	17.57
641.249	17.71
641.438	17.33
641.628	17.68
641.817	17.73
642.007	17.15
642.196	16.91
642.386	17.04
642.575	16.72
642.764	16.81
642.954	16.47
643.143	16.71
643.333	16.22
643.522	16.76
643.711	16.52
643.901	16.69
644.09	17.34
644.279	17.64
644.469	17.39
644.658	17.54
644.847	17.96
645.036	17.9
645.226	17.7
645.415	17.95
645.604	17.49
645.793	17.8
645.982	17.45
646.171	17.05
646.361	17.14
646.55	17.19
646.739	17.13
646.928	16.56
647.117	16.75
647.306	16.59
647.495	16.76
647.684	16.95
647.873	16.37
648.062	16.55
648.251	16.7
648.44	17.39
648.629	17.32
648.818	17.89
649.007	18.05
649.196	18.07
649.384	18
649.573	18.17
649.762	18.13
649.951	18.32
650.14	17.98
650.328	17.9
650.517	17.35
650.706	17.43
650.895	16.76
651.083	16.81
651.272	16.77
651.461	16.83
651.65	16.68
651.838	16.99
652.027	17.2
652.216	17.33
652.404	17.56
652.593	17.43
652.781	17.76
652.97	18.46
653.158	18.5
653.347	18.76
653.535	18.63
653.724	18.82
653.912	18.74
654.101	18.58
654.289	18.63
654.478	18.85
654.666	18.96
654.855	18.41
655.043	17.98
655.231	18.14
655.42	17.92
655.608	18.29
655.796	17.96
655.985	17.84
656.173	17.68
656.361	17.91
656.55	17.29
656.738	16.84
656.926	17.37
657.114	17.29
657.302	17.6
657.491	17.32
657.679	17.35
657.867	17.53
658.055	17.95
658.243	17.99
658.431	17.65
658.619	18.13
658.807	18.47
658.996	18.32
659.184	18.7
659.372	18.42
659.56	18.92
659.748	19
659.936	19.35
660.124	18.91
660.311	18.97
660.499	19.31
660.687	18.98
660.875	19.01
661.063	18.89
661.251	18.56
661.439	18.41
661.627	18.23
661.814	18.02
662.002	17.22
662.19	17.61
662.378	17.61
662.565	17.22
662.753	17.88
662.941	17.93
663.129	17.38
663.316	17.22
663.504	16.77
663.692	16.21
663.879	15.8
664.067	16.33
664.254	15.71
664.442	15.9
664.63	16.32
664.817	15.86
665.005	16.12
665.192	16.74
665.38	17.13
665.567	17.99
665.755	18.31
665.942	18.99
666.13	18.42
666.317	18.66
666.504	18.88
666.692	18.62
666.879	18.41
667.067	18.25
667.254	17.98
667.441	17.76
667.629	17.28
667.816	17.2
668.003	17.13
668.19	17.63
668.378	17.56
668.565	17.38
668.752	17.91
668.939	18.4
669.127	17.78
669.314	18.33
669.501	18.51
669.688	18.94
669.875	19.02
670.062	18.73
670.249	18.81
670.436	18.86
670.623	18.93
670.81	18.36
670.997	17.99
671.184	18.39
671.371	18.1
671.558	18.15
671.745	18.28
671.932	18.47
672.119	18.68
672.306	18.68
672.493	18.82
672.68	18.66
672.867	18.83
673.054	19.18
673.24	19.1
673.427	19.1
673.614	18.45
673.801	18.42
673.988	17.77
674.174	17.32
674.361	16.82
674.548	16.8
674.734	16.81
674.921	16.97
675.108	16.79
675.294	16.87
675.481	16.5
675.668	17.24
675.854	16.45
676.041	16.72
676.227	16.86
676.414	17.48
676.601	17.03
676.787	16.66
676.974	16.68
677.16	16.77
677.347	17.16
677.533	17.42
677.719	17.49
677.906	17.52
678.092	17.3
678.279	17.39
678.465	17.56
678.651	18.22
678.838	18.48
679.024	18.78
679.21	18.86
679.397	18.81
679.583	18.78
679.769	18.57
679.955	19.07
680.142	19.06
680.328	19.3
680.514	19.07
680.7	18.51
680.886	18.93
681.073	18.37
681.259	18.51
681.445	18.65
681.631	18.66
681.817	18.45
682.003	18.32
682.189	18.33
682.375	18.49
682.561	18.57
682.747	18.84
682.933	18.69
683.119	18.56
683.305	18.41
683.491	18.33
683.677	18.33
683.863	18.72
684.049	18.6
684.235	18.35
684.42	18.24
684.606	17.94
684.792	17.75
684.978	17.64
685.164	17.95
685.349	17.39
685.535	16.53
685.721	17.1
685.907	16.99
686.092	16.36
686.278	16.56
686.464	16.62
686.649	16.86
686.835	16.65
687.021	16.28
687.206	16.36
687.392	16.46
687.577	17.4
687.763	16.96
687.948	17.1
688.134	17.85
688.319	18.55
688.505	18.31
688.69	18.42
688.876	19.1
689.061	19.04
689.247	19.18
689.432	19.34
689.618	19.29
689.803	19.47
689.988	20.23
690.174	19.86
690.359	19.4
690.544	19.52
690.73	19.05
690.915	18.9
691.1	19.74
691.285	19.44
691.471	19.44
691.656	19.11
691.841	19.07
692.026	17.57
692.211	17.54
692.396	17.19
692.582	16.89
692.767	17.3
692.952	17.53
693.137	17.11
693.322	17.9
693.507	17.44
693.692	17.13
693.877	16.57
694.062	17
694.247	17.34
694.432	18
694.617	18.19
694.802	17.53
694.987	16.83
695.172	15.94
695.357	14.98
695.541	15.84
695.726	16.64
695.911	16.78
696.096	16.67
696.281	16.06
696.466	16.86
696.65	17.23
696.835	17.92
697.02	18.23
697.204	19.18
697.389	19.35
697.574	19.36
697.759	19.05
697.943	19.01
698.128	19.64
698.312	19.99
698.497	19.75
698.682	19.35
698.866	19.41
699.051	19.57
699.235	19.72
699.42	19.76
699.604	19.28
699.789	19.21
699.973	19.38
700.158	19.07
700.342	19.48
700.527	19.53
700.711	19.71
700.895	19.09
701.08	18.05
701.264	17.28
701.448	17.53
701.633	18.01
701.817	17.89
702.001	17.46
702.186	16.78
702.37	16.29
702.554	15.22
702.738	14.43
702.923	15.64
703.107	16.82
703.291	16.22
703.475	15.86
703.659	16.33
703.843	16.02
704.027	16.36
704.212	16.75
704.396	16.63
704.58	17.2
704.764	17.8
704.948	16.52
705.132	15.81
705.316	16.5
705.5	15.89
705.684	15.58
705.868	15.95
706.052	15.76
706.235	16.43
706.419	16.59
706.603	16.95
706.787	17.96
706.971	18.41
707.155	18.99
707.339	19.32
707.522	19.7
707.706	19.02
707.89	19.02
708.074	18.52
708.257	17.88
708.441	18.04
708.625	17.36
708.808	17.02
708.992	16.93
709.176	16.51
709.359	16.31
709.543	16.41
709.727	16.34
709.91	16.4
710.094	17.74
710.277	17.1
710.461	16.38
710.644	16.58
710.828	16.13
711.011	16.74
711.195	16.66
711.378	16.56
711.562	16.99
711.745	16.86
711.928	16.38
712.112	16.22
712.295	17.19
712.478	17.32
712.662	17.7
712.845	17.48
713.028	17.09
713.212	17.71
713.395	17.87
713.578	17.1
713.761	17.43
713.945	17.85
714.128	17.94
714.311	18.14
714.494	18.61
714.677	18.98
714.86	18.8
715.043	19.29
715.227	18.35
715.41	18.83
715.593	19.73
715.776	20.35
715.959	19.75
716.142	19.58
716.325	19.31
716.508	18.96
716.691	18.1
716.874	19.49
717.057	19.76
717.239	21.1
717.422	21.02
717.605	20.51
717.788	20.07
717.971	20.69
718.154	21.02
718.337	20.77
718.519	20.69
718.702	21.59
718.885	21.33
719.068	20.27
719.25	19.92
719.433	19.45
719.616	18.85
719.798	18.13
719.981	17.13
720.164	16.89
720.346	17.48
720.529	17.16
720.712	16.4
720.894	14.9
721.077	14.15
721.259	13.36
721.442	14.3
721.624	15.01
721.807	16.4
721.989	16.45
722.172	16.26
722.354	15.68
722.537	16.63
722.719	15.71
722.901	17.19
723.084	17.68
723.266	17.58
723.448	16.26
723.631	16.63
723.813	16.08
723.995	17.16
724.178	17.22
724.36	18.43
724.542	17.01
724.724	17.56
724.907	16.4
725.089	16.7
725.271	17.65
725.453	18.4
725.635	17.47
725.817	16.82
725.999	17.42
726.181	16.68
726.364	16.48
726.546	17.52
726.728	17.54
726.91	17.42
727.092	17.17
727.274	16.67
727.456	16.26
727.638	16.06
727.819	16.43
728.001	16.73
728.183	16.18
728.365	15.15
728.547	15.39
728.729	15.32
728.911	15.97
729.093	16.24
729.274	16.26
729.456	16.23
729.638	17.02
729.82	18.2
730.001	17.43
730.183	18.4
730.365	18.05
730.546	17.69
730.728	18.47
730.91	17.6
731.091	16.86
731.273	16.94
731.455	17.09
731.636	17.13
731.818	16.84
731.999	16.14
732.181	16.29
732.362	16.47
732.544	16.98
732.725	17.77
732.907	18.14
733.088	17.98
733.27	18.03
733.451	17.61
733.633	17.32
733.814	16.93
733.995	18.22
734.177	17.72
734.358	17.91
734.539	17.19
734.721	15.3
734.902	14.39
735.083	14.65
735.264	14.57
735.446	13.29
735.627	12.56
735.808	12.32
735.989	10.83
736.17	11.03
736.351	9.39
736.533	10.19
736.714	10.97
736.895	11.43
737.076	12.07
737.257	11.56
737.438	12.86
737.619	14.03
737.8	12.95
737.981	13.39
738.162	11.09
738.343	12.88
738.524	12.01
738.705	11.83
738.886	12.28
739.067	11.45
739.247	11.69
739.428	12.65
739.609	11.8
739.79	13.36
739.971	12.27
740.151	13.55
740.332	12.52
740.513	13.68
740.694	13.67
740.874	13.94
741.055	14.85
741.236	14.8
741.417	13.82
741.597	13.75
741.778	13.43
741.958	15.46
742.139	16.99
742.32	17.99
742.5	17.45
742.681	16.37
742.861	16.13
743.042	15.25
743.222	14.88
743.403	15.49
743.583	16.07
743.764	14.83
743.944	14.48
744.124	13.02
744.305	13.83
744.485	13.01
744.666	14.86
744.846	14.6
745.026	14.81
745.207	15.45
745.387	15.16
745.567	15.85
745.747	15.71
745.928	14.75
746.108	16.47
746.288	15.71
746.468	17.13
746.648	16.8
746.829	16.71
747.009	18.23
747.189	18.13
747.369	19.09
747.549	18.8
747.729	18.95
747.909	18.83
748.089	16.82
748.269	17.53
748.449	16.58
748.629	15.47
748.809	14.83
748.989	14.42
749.169	13.83
749.349	13.75
749.529	13.44
749.709	13.48
749.889	13.69
750.068	14.97
750.248	14.49
750.428	14.86
750.608	17.39
750.788	18.81
750.967	18.66
751.147	20.83
751.327	19.9
751.507	18.67
751.686	19.56
751.866	20.95
752.046	20.6
752.225	20.26
752.405	19.9
752.585	18.47
752.764	16.16
752.944	16.32
753.123	15.23
753.303	15.48
753.482	16.19
753.662	15.12
753.841	15.22
754.021	14.58
754.2	14.35
754.38	13.49
754.559	12.09
754.739	13.76
754.918	13.59
755.097	13.47
755.277	13.3
755.456	13.76
755.635	13.21
755.815	11.45
755.994	12.75
756.173	13.13
756.352	15.64
756.532	16.53
756.711	16.99
756.89	15.39
757.069	15.64
757.248	15.75
757.427	15.28
757.607	17.91
757.786	18.95
757.965	18.85
758.144	19.38
758.323	17.91
758.502	17.54
758.681	17.98
758.86	19.26
759.039	17.15
759.218	17.63
759.397	16.18
759.576	15.4
759.755	14.96
759.934	13.64
760.113	13.06
760.291	11.42
760.47	12.79
760.649	11.29
760.828	11.45
761.007	13.63
761.186	13.92
761.364	16.08
761.543	15.14
761.722	14.58
761.901	16.1
762.079	16.38
762.258	17.3
762.437	17.24
762.615	17.99
762.794	18.04
762.972	17.1
763.151	16.61
763.33	16.06
763.508	16.18
763.687	16.92
763.865	17
764.044	16.52
764.222	18.21
764.401	16.94
764.579	16.6
764.758	17.14
764.936	18.15
765.114	17.51
765.293	18.82
765.471	20.11
765.65	19.4
765.828	18.76
766.006	20.18
766.184	17.79
766.363	18.4
766.541	17.08
766.719	16.33
766.898	15.75
767.076	16.3
767.254	14.63
767.432	12.87
767.61	13.39
767.788	14.26
767.967	12.8
768.145	11.63
768.323	11.09
768.501	13.48
768.679	11.96
768.857	11.04
769.035	11.28
769.213	9.8
769.391	8.4
769.569	8.5
769.747	7.05
769.925	8.18
770.103	10.73
770.281	10.06
770.459	8.51
770.636	10.37
770.814	11.55
770.992	11.05
771.17	13.19
771.348	13.84
771.525	12.94
771.703	13.37
771.881	12.79
772.059	10.4
772.236	11.63
772.414	10.64
772.592	8.27
772.769	8.46
772.947	10.82
773.125	10.77
773.302	11.48
773.48	11.81
773.657	12.34
773.835	13.11
774.013	16.72
774.19	16.84
774.368	17.87
774.545	19.58
774.723	18.2
774.9	17.6
775.077	18.22
775.255	18.46
775.432	14.8
775.61	15.31
775.787	12.36
775.964	11.32
776.142	13.31
776.319	13.28
776.496	16.89
776.674	19.07
776.851	19.5
777.028	18.13
777.205	17.63
777.382	20.58
777.56	18.26
777.737	19.54
777.914	18.01
778.091	16.25
778.268	18.93
778.445	14.21
778.622	11.15
778.8	10.29
778.977	12.51
779.154	13.77
779.331	14.28
779.508	16.23
779.685	15.55
779.862	17
780.038	13.96
780.215	12.94
780.392	14.43
780.569	14.68
780.746	9.85
780.923	9.75
781.1	9.85
781.277	7.44
781.453	4.07
781.63	6.59
781.807	5.57
781.984	8.3
782.16	7.33
782.337	8.41
782.514	9.36
782.691	14.59
782.867	9.89
783.044	9.46
783.221	9.36
783.397	10.76
783.574	11.16
783.75	12.58
783.927	16.26
784.103	17.2
784.28	13.16
784.456	15.08
784.633	15.11
784.809	16.83
784.986	17.81
785.162	20.31
785.339	19.67
785.515	16.91
785.692	15.27
785.868	8.58
786.044	7.67
786.221	11.2
786.397	12.25
786.573	10.51
786.749	12.18
786.926	11.44
787.102	11.69
787.278	9.35
787.454	14.9
787.631	15.13
787.807	17
787.983	15.59
788.159	15.11
788.335	13.59
788.511	13.52
788.687	12.37
788.863	11.61
789.039	12.38
789.216	14.96
789.392	12.29
789.568	10.85
789.744	12.36
789.919	13.05
790.095	13.75
790.271	11.02
790.447	9.29
790.623	10.85
790.799	8.49
790.975	5.64
791.151	7.31
791.327	5.23
791.502	6.24
791.678	4.07
791.854	5.39
792.03	4.18
792.205	8.83
792.381	13.11
792.557	12.76
792.733	13.11
792.908	15.97
793.084	19.28
793.259	20.22
793.435	22.58
793.611	23.67
793.786	24.06
793.962	23.24
794.137	18.6
794.313	17.53
794.488	18.47
794.664	18.7
794.839	16.51
795.015	11.47
795.19	10.75
795.366	8.69
795.541	12.71
795.716	11.64
795.892	12.4
796.067	14.75
796.242	16.71
796.418	15.35
796.593	18.35
796.768	19.37
796.944	21.32
797.119	23.58
797.294	21.76
797.469	16.59
797.644	18.35
797.82	17.7
797.995	18.6
798.17	16.78
798.345	17.74
798.52	17.23
798.695	16.98
798.87	18.15
799.045	14.42
799.22	13.98
799.395	15.18
799.57	12.94
799.745	14.8
799.92	15.09
800.095	15.46
800.27	16.19
800.445	14.65
800.62	13.8
800.795	13.29
800.97	14.79
801.145	19.75
801.319	19.22
801.494	20.33
801.669	20.63
801.844	20.15
802.018	19.33
802.193	17.98
802.368	16.89
802.543	18.66
802.717	17.78
802.892	14.95
803.067	9.65
803.241	6.42
803.416	3.69
803.59	1.69
803.765	-2.45
803.94	-5
804.114	-3.42
804.289	-0.45
804.463	-1.46
804.638	-3.93
804.812	1.91
804.986	1.26
805.161	5.77
805.335	6.71
805.51	5.54
805.684	9.36
805.858	11.73
806.033	6.99
806.207	4.48
806.381	5.28
806.556	3.54
806.73	0.91
806.904	2.03
807.078	-2.43
807.253	-5.7
807.427	-5.29
807.601	-9.97
807.775	-14.48
807.949	-17.32
808.123	-15.87
808.298	-20.73
808.472	-22.1
808.646	-20.31
808.82	-24.41
808.994	-23.77
809.168	-20.62
809.342	-18.04
809.516	-14.2
809.69	-14.03
809.864	-4.77
810.038	-6.37
810.212	1.01
810.385	5.88
810.559	6.22
810.733	10.55
810.907	9.67
811.081	9.11
811.255	10.85
811.428	10.75
811.602	11.37
811.776	9.91
811.95	9.24
812.123	0.43
812.297	-3.15
812.471	-6.5
812.644	-0.96
812.818	2.8
812.992	2.74
813.165	0
813.339	3.43
813.512	4.07
813.686	6.63
813.86	7.6
814.033	7.99
814.207	9
814.38	11.89
814.554	9.74
814.727	7
814.9	11.76
815.074	7.37
815.247	3.21
815.421	1.24
815.594	-2.56
815.767	-6.67
815.941	-5.47
816.114	-5.9
816.287	-8.49
816.46	-11.7
816.634	-7.28
816.807	-15.86
816.98	-13.15
817.153	-12.42
817.327	-15.23
817.5	-13.13
817.673	-10.98
817.846	-5.09
818.019	-1.09
818.192	1.82
818.365	4.81
818.538	2.1
818.711	2.95
818.884	6.61
819.057	7.84
819.23	9.27
819.403	4.58
819.576	5.94
819.749	5.6
819.922	4.01
820.095	2.77
820.268	0.64
820.441	5.2
820.614	10.05
820.786	8.88
820.959	10.21
821.132	11.54
821.305	12.65
821.477	15.29
821.65	16.57
821.823	15.12
821.996	16.45
822.168	16.73
822.341	16.17
822.514	14.8
822.686	16.85
822.859	17.09
823.031	16.85
823.204	18.01
823.376	17.79
823.549	17.97
823.722	18.29
823.894	17.62
824.067	18.43
824.239	17.73
824.411	19.39
824.584	18.58
824.756	19.3
824.929	20.97
825.101	20.44
825.273	19.77
825.446	19.43
825.618	20.56
825.79	21.62
825.963	20.04
826.135	21.03
826.307	19.55
826.479	17.86
826.652	16.87
826.824	15.43
826.996	15.41
827.168	16.16
827.34	16.41
827.512	16.29
827.684	18.06
827.856	19.91
828.029	20.63
828.201	20.49
828.373	21.29
828.545	20.23
828.717	20.51
828.889	19.67
829.061	19.27
829.232	18.55
829.404	15.87
829.576	13.41
829.748	10.2
829.92	6.55
830.092	5.92
830.264	6.87
830.436	10.58
830.607	9.3
830.779	7.28
830.951	4.14
831.123	1.85
831.294	5.97
831.466	-1.19
831.638	3.36
831.809	5.66
831.981	8.99
832.153	7.6
832.324	-4.59
832.496	-1.43
832.667	1.6
832.839	4.77
833.011	4.98
833.182	2.87
833.354	4.25
833.525	4.05
833.697	5.27
833.868	7.03
834.039	2.87
834.211	9.64
834.382	8.65
834.554	8.98
834.725	10.39
834.896	9.47
835.068	9.56
835.239	12.51
835.41	8.59
835.581	3.37
835.753	0.12
835.924	4.24
836.095	-4.66
836.266	-10.64
836.438	-11.53
836.609	-13.2
836.78	-13.5
836.951	-11.07
837.122	-12.21
837.293	-14.83
837.464	-7.06
837.635	-12.5
837.806	-12.18
837.977	-4.07
838.148	-0.43
838.319	-3.93
838.49	-8.91
838.661	-10.15
838.832	-5.22
839.003	-8.17
839.174	4.59
839.345	5.41
839.516	11.73
839.687	7.06
839.857	10.92
840.028	5.53
840.199	13.42
840.37	15.08
840.54	18.02
840.711	9.76
840.882	11.02
841.053	12.74
841.223	11.63
841.394	5.33
841.564	3.98
841.735	-7.34
841.906	11.13
842.076	3.49
842.247	0.54
842.417	5.14
842.588	9.55
842.758	7.09
842.929	4.37
843.099	3.42
843.27	19.12
843.44	21.3
843.611	27.49
843.781	24.66
843.951	27.89
844.122	36.89
844.292	32.96
844.462	20.84
844.633	24.31
844.803	20.05
844.973	13.15
845.144	-15.75
845.314	-6.82
845.484	2.59
845.654	-12.44
845.824	-20.27
845.995	-40.32
846.165	-52.37
846.335	-27.52
846.505	-49.4
846.675	-47.12
846.845	-27.29
847.015	-12.58
847.185	-14.83
847.355	-20.28
847.525	-99.3
847.695	-98.65
847.865	-49.13
848.035	-46.93
848.205	-49.88
848.375	-68.47
848.545	-65.7
848.715	-90.05
848.884	-128.15
849.054	-176.73
849.224	-254.8
849.394	-85.18
849.564	-144.54
849.733	-176.89
849.903	-134.01
850.073	-103.25
850.243	-52.76
850.412	-58.98
850.582	-60.37
850.752	-64.96
850.921	-33.19
851.091	-58.7
851.26	-108.95
851.43	-72.51
851.599	-102.11
851.769	-85.57
851.939	-113.61
852.108	-137.68
852.278	-131.03
852.447	-153.09
852.616	-89.88
852.786	-99.95
852.955	-70.12
853.125	-48.36
853.294	-62.99
853.463	-62.86
853.633	-95.88
853.802	-119.59
853.971	-105.9
854.141	-118.68
854.31	-93.22
854.479	-142.09
854.648	-157.47
854.818	-190.14
854.987	-229.37
855.156	-255.96
855.325	-326.91
855.494	-268.02
855.663	-172.59
855.832	-216.89
856.001	-159.8
856.171	-153.57
856.34	-163.5
856.509	-130.68
856.678	-116.52
856.847	-153.19
857.016	-76.03
857.185	-67.09
857.353	-83.09
857.522	-82.15
857.691	-97.4
857.86	-53.7
858.029	-67.8
858.198	-88.94
858.367	-119.07
858.535	-176.42
858.704	-138.2
858.873	-171.42
859.042	-141.86
859.21	-108.62
859.379	-110.94
859.548	-86.11
859.717	-205.52
859.885	-119.55
860.054	-98.7
860.222	-97.58
860.391	-111.01
860.56	-74.57
860.728	-54.92
860.897	-77.08
861.065	-116.26
861.234	-73.6
861.402	-103.09
861.571	-55.99
861.739	-113.33
861.908	-93.43
862.076	-53.47
862.244	-13.56
862.413	-33.66
862.581	-48.06
862.749	-49.55
862.918	-24.72
863.086	-30.32
863.254	-19.11
863.423	-24.43
863.591	-20.62
863.759	-7.97
863.927	-16.38
864.096	-29.09
864.264	-47.66
864.432	-55.41
864.6	-51.42
864.768	-68.29
864.936	-430.51
865.104	-486.99
865.272	-474.74
865.44	566.36
865.608	797.71
865.776	-655.43
865.944	1266.16
866.112	-870.34
866.28	-832.01
866.448	-9362.32
866.616	-554.31
866.784	-60.2
866.952	-55.82
867.12	-53.52
867.288	-53.75
867.455	-103.82
867.623	-163.96
867.791	-155.19
867.959	-198.96
868.127	-137.93
868.294	-80.08
868.462	-110.83
868.63	-109.89
868.797	-84
868.965	-77.8
869.133	-124.08
869.3	-123.37
869.468	-95.1
869.636	-65.29
869.803	-19.9
869.971	-38.38
870.138	-38.06
870.306	-14.29
870.473	-52.84
870.641	-66.3
870.808	-46.83
870.975	-14.03
871.143	-19.66
871.31	-22.87
871.478	-25.86
871.645	-129.2
871.812	-103.8
871.98	-35.72
872.147	-69.52
872.314	-34.97
872.482	-46.49
872.649	-92.31
872.816	-254.03
872.983	-164.56
873.15	-98.21
873.318	-96.62
873.485	-76.1
873.652	-51.11
873.819	-71.39
873.986	-52.67
874.153	-68.01
874.32	-66.73
874.487	-66.06
874.654	-19.89
874.821	-50.81
874.988	-71.16
875.155	-106.7
875.322	-109.9
875.489	-259.03
875.656	5743.03
875.823	905.89
875.99	600.54
876.157	-919.57
876.324	-519.46
876.49	-203.6
876.657	-185.42
876.824	-254.4
876.991	-77.81
877.157	-57.45
877.324	-38.12
877.491	-39.16
877.658	-20.35
877.824	-5.81
877.991	-53.46
878.157	-70.6
878.324	-135.85
878.491	-146.89
878.657	-186.88
878.824	-239.17
878.99	-652.72
879.157	-3336.75
879.323	-584.22
879.49	19754.1
879.656	1965.33
879.823	838.73
879.989	668.68
880.156	508.92
880.322	679.63
880.488	-233.27
880.655	-272.38
880.821	-130.71
880.987	-93.75
881.154	-84.82
881.32	-57.69
881.486	-34.54
881.652	-25.09
881.819	-14.64
881.985	-6.61
882.151	0.56
882.317	-5.61
882.483	3.17
882.649	6.73
882.816	8.33
882.982	9.66
883.148	11.76
883.314	7.29
883.48	8.63
883.646	11.22
883.812	10.96
883.978	14.06
884.144	15.09
884.31	13.8
884.476	13.77
884.642	16.72
884.807	14.86
884.973	11.91
885.139	14.72
885.305	15
885.471	9.33
885.637	9.98
885.802	2.39
885.968	2.65
886.134	-0.92
886.3	-2.31
886.465	-4.12
886.631	2.35
886.797	13.24
886.962	13.94
887.128	4.36
887.293	1.66
887.459	2.42
887.625	0.17
887.79	1.1
887.956	-8
888.121	-12.16
888.287	-35.48
888.452	-54.01
888.618	-121.3
888.783	-393.88
