Data from 2937898_Reflection_2.txt Node
Date: Wed Jul 15 13:46:52 EDT 2015
User: robert
Spectrometer: USB4E03001
Autoset integration time: false
Trigger mode: 4
Integration Time (sec): 1.000000E-1
Scans to average: 10
Electric dark correction enabled: true
Nonlinearity correction enabled: false
Boxcar width: 5
Stray light correction enabled: false
XAxis mode: Wavelengths
Stop averaging: false
Number of Pixels in Spectrum: 3648
>>>>>Begin Spectral Data<<<<<
177.566	-116.22
177.785	-170.23
178.005	-119.84
178.225	-41.54
178.445	40.5
178.665	92.55
178.885	-61.66
179.105	-31.26
179.324	-37.52
179.544	57.68
179.764	-25.89
179.984	-157.54
180.204	-309.71
180.423	-149.25
180.643	-66.95
180.863	-10.04
181.083	-34.64
181.302	49.12
181.522	26.24
181.742	23.47
181.961	-58.34
182.181	-2844.59
182.401	-67.66
182.621	598.65
182.84	301.74
183.06	-1163.91
183.279	637.4
183.499	171.25
183.719	160.98
183.938	-421.09
184.158	-1.74
184.377	-23.88
184.597	16.6
184.816	12.84
185.036	-27.66
185.256	10.99
185.475	39.53
185.695	49.19
185.914	61.91
186.134	82.28
186.353	-157.76
186.572	-627.05
186.792	-495.27
187.011	-115.89
187.231	-26.01
187.45	125.43
187.67	102.02
187.889	134.9
188.108	4877.08
188.328	67.77
188.547	46.36
188.766	111.39
188.986	191.63
189.205	120.87
189.424	143.5
189.644	163.66
189.863	196.51
190.082	417.45
190.302	269.53
190.521	94.64
190.74	277.01
190.959	628.59
191.178	109.12
191.398	160.88
191.617	366.03
191.836	-153.57
192.055	-112.49
192.274	-58.3
192.494	-148.26
192.713	-75.51
192.932	-26
193.151	-13.22
193.37	-4.64
193.589	-16.61
193.808	-26.99
194.027	-37.73
194.246	-29.08
194.465	-75.77
194.685	-134.05
194.904	293.19
195.123	111.65
195.342	-1.13
195.561	80.68
195.78	49.34
195.999	12
196.218	-50.72
196.436	-147.01
196.655	-197.98
196.874	-294.06
197.093	-82.35
197.312	-1239.47
197.531	32.25
197.75	266.58
197.969	433.93
198.188	400.52
198.407	217.09
198.625	929.65
198.844	286.98
199.063	167.65
199.282	147.62
199.501	270.31
199.719	5445.83
199.938	245.15
200.157	686.49
200.376	-12122.22
200.594	-2.74
200.813	-27.2
201.032	-49.95
201.251	683.39
201.469	-151.69
201.688	-94.45
201.907	-120.23
202.125	-55.06
202.344	4.64
202.563	21.16
202.781	-3.03
203	-4.48
203.218	-31.31
203.437	-26.96
203.656	-27.85
203.874	29.63
204.093	83.75
204.311	151.68
204.53	-156
204.748	-21.82
204.967	65.98
205.185	354.17
205.404	-64.91
205.622	-159.39
205.841	-19.77
206.059	122.4
206.278	-132.55
206.496	-136.38
206.715	2720.39
206.933	-879.16
207.151	-401.74
207.37	-340.93
207.588	1283.39
207.806	3869.84
208.025	-369.63
208.243	158.04
208.461	57.82
208.68	56.14
208.898	129.57
209.116	-179.04
209.335	-369.19
209.553	-104.89
209.771	-75.57
209.989	-288.05
210.208	955.51
210.426	-791.48
210.644	-2095.81
210.862	-160.02
211.081	-299.82
211.299	-83.82
211.517	503.61
211.735	277.34
211.953	351.11
212.171	345.19
212.39	86425
212.608	-172.07
212.826	468.24
213.044	201.32
213.262	421.05
213.48	676.26
213.698	216.79
213.916	119.54
214.134	121.69
214.352	134.64
214.57	139.51
214.788	141
215.006	75.92
215.224	140.03
215.442	131.63
215.66	76.01
215.878	71.56
216.096	136.49
216.314	419.8
216.532	134.54
216.75	44.18
216.968	116.61
217.185	16.56
217.403	147.72
217.621	81.25
217.839	132.68
218.057	133.78
218.275	198.66
218.492	38.35
218.71	-117.81
218.928	-175.27
219.146	-555.64
219.363	-407.11
219.581	-675.36
219.799	76855.56
220.017	1429.01
220.234	-1525.36
220.452	-598.04
220.67	-313.62
220.887	-198.05
221.105	-27.05
221.323	-109.68
221.54	-23.61
221.758	35.74
221.976	40.59
222.193	42.41
222.411	35.68
222.629	7.31
222.846	23.92
223.064	39.88
223.281	53.72
223.499	50.15
223.716	40.66
223.934	46.76
224.151	55.94
224.369	42.9
224.586	36.84
224.804	49.48
225.021	57.31
225.239	55.09
225.456	42.55
225.674	33.31
225.891	18.59
226.108	18.23
226.326	2.5
226.543	-13.57
226.76	0.22
226.978	15.34
227.195	10.49
227.413	-0.96
227.63	1.1
227.847	6.71
228.064	8.89
228.282	8.53
228.499	8.27
228.716	9.04
228.934	11.41
229.151	13.86
229.368	14.29
229.585	16.51
229.802	17.58
230.02	20.91
230.237	22.07
230.454	23.19
230.671	21.79
230.888	24.06
231.105	22.68
231.323	18.67
231.54	14.47
231.757	8.88
231.974	7.77
232.191	9.91
232.408	2.09
232.625	6.39
232.842	5.77
233.059	6.3
233.276	-2.43
233.493	-0.89
233.71	11.85
233.927	16.94
234.144	23.48
234.361	20.99
234.578	14.68
234.795	21.53
235.012	24.75
235.229	25.26
235.446	25.86
235.663	32.1
235.879	33.77
236.096	30.73
236.313	29.65
236.53	27.86
236.747	31.74
236.964	38.68
237.181	34.49
237.397	26.55
237.614	30.28
237.831	29.32
238.048	30.22
238.264	26.07
238.481	27.4
238.698	28.44
238.915	23.78
239.131	22.91
239.348	16.95
239.565	21.29
239.781	22.44
239.998	20.33
240.215	18.21
240.431	16.58
240.648	21.67
240.865	18.53
241.081	17.46
241.298	17.73
241.514	17.37
241.731	17.37
241.947	13.48
242.164	14.58
242.38	14.73
242.597	18.32
242.814	17.58
243.03	15.61
243.246	15.14
243.463	15.2
243.679	15.53
243.896	14.64
244.112	14.32
244.329	15.13
244.545	14.48
244.762	12.57
244.978	8.63
245.194	5.08
245.411	8.14
245.627	10.31
245.843	9.34
246.06	9.43
246.276	9.91
246.492	11.69
246.709	11.49
246.925	12.4
247.141	12.88
247.357	12.38
247.574	13.63
247.79	13.8
248.006	12.81
248.222	12.94
248.439	12.26
248.655	12.21
248.871	12.02
249.087	13.03
249.303	10.82
249.519	9.61
249.736	10.38
249.952	10.96
250.168	8.68
250.384	10.65
250.6	10.35
250.816	11.13
251.032	9.7
251.248	7.93
251.464	8.55
251.68	10.42
251.896	12.77
252.112	12.03
252.328	13.78
252.544	14.28
252.76	13.53
252.976	13.31
253.192	13.76
253.408	14.58
253.624	16.67
253.84	16.82
254.056	17.25
254.272	16.07
254.487	15.88
254.703	12.47
254.919	11.31
255.135	10.87
255.351	11.34
255.567	11.91
255.782	9.49
255.998	5.34
256.214	3.02
256.43	3.66
256.646	7.23
256.861	8.33
257.077	6.44
257.293	4.02
257.508	4.39
257.724	5.05
257.94	4.46
258.155	5.15
258.371	5.68
258.587	7.41
258.802	7.86
259.018	7.59
259.234	7.5
259.449	8.78
259.665	9.45
259.88	8.85
260.096	8.89
260.312	9.11
260.527	9.07
260.743	8.88
260.958	8.26
261.174	7.83
261.389	7.73
261.605	7.3
261.82	6.65
262.036	6.71
262.251	6
262.466	6.83
262.682	6.74
262.897	7.94
263.113	9.14
263.328	7.68
263.543	7.44
263.759	4.56
263.974	3.83
264.189	3.53
264.405	3.22
264.62	6.7
264.835	5.79
265.051	3.26
265.266	3.77
265.481	2.32
265.696	4.99
265.912	3.53
266.127	5.1
266.342	7.89
266.557	9.08
266.773	9.27
266.988	9
267.203	9.9
267.418	13.1
267.633	12.48
267.848	13.53
268.064	11.66
268.279	14.72
268.494	13.48
268.709	14.29
268.924	13.13
269.139	12.24
269.354	10.87
269.569	9.95
269.784	10.24
269.999	10.46
270.214	9.62
270.429	10.54
270.644	10.08
270.859	12.36
271.074	11.28
271.289	10.82
271.504	11.54
271.719	12
271.934	11.7
272.149	9.62
272.363	8.6
272.578	8.79
272.793	9.41
273.008	7.93
273.223	6.94
273.438	6.94
273.653	6.51
273.867	5.26
274.082	5.29
274.297	4.95
274.512	4.58
274.726	4.21
274.941	4.51
275.156	3.41
275.371	4.72
275.585	5.01
275.8	4.85
276.015	6.71
276.229	8.82
276.444	7.02
276.659	5.96
276.873	5.83
277.088	5.57
277.302	4.72
277.517	6.03
277.732	5.52
277.946	6.15
278.161	5.1
278.375	3.6
278.59	1.85
278.804	2.58
279.019	5
279.233	5.89
279.448	6.47
279.662	7.35
279.877	5.42
280.091	3.9
280.306	4.62
280.52	6.22
280.735	7.26
280.949	6.99
281.163	6.31
281.378	5.37
281.592	6.29
281.806	7.78
282.021	6.57
282.235	8.86
282.449	10.06
282.664	8.87
282.878	8.15
283.092	7.36
283.307	8.89
283.521	10.68
283.735	11.79
283.949	11.49
284.164	11.48
284.378	11.88
284.592	10.48
284.806	10.45
285.02	10.14
285.234	9.47
285.449	8.61
285.663	8.01
285.877	7.8
286.091	6.48
286.305	6.66
286.519	6.86
286.733	7.73
286.947	8.63
287.161	7.98
287.375	8.5
287.589	10.19
287.803	11.52
288.017	10.63
288.231	9.65
288.445	11.69
288.659	10.72
288.873	8.91
289.087	7.94
289.301	6.78
289.515	7.81
289.729	7.21
289.943	5.65
290.157	6.75
290.371	7.7
290.584	8.21
290.798	6.94
291.012	7.61
291.226	7.55
291.44	7.86
291.654	7.21
291.867	5.52
292.081	4.95
292.295	4.03
292.509	3.81
292.722	3.57
292.936	4.53
293.15	4.19
293.364	3.54
293.577	4.91
293.791	6.85
294.005	8.18
294.218	10.71
294.432	12.53
294.645	13.06
294.859	11.24
295.073	11.29
295.286	10.97
295.5	11.36
295.713	10.09
295.927	10.59
296.14	9.49
296.354	9.36
296.568	7.62
296.781	7.6
296.994	9.66
297.208	10.43
297.421	11.11
297.635	10.73
297.848	10.57
298.062	11.6
298.275	10.48
298.489	11.04
298.702	11.55
298.915	13.34
299.129	13.23
299.342	11.95
299.555	10.6
299.769	8.58
299.982	8.16
300.195	9.75
300.409	9.83
300.622	10.89
300.835	9.54
301.048	8.93
301.262	7.28
301.475	6.26
301.688	6.76
301.901	8.13
302.115	8.32
302.328	9.07
302.541	7.08
302.754	6.49
302.967	6.71
303.18	6.63
303.393	8.08
303.607	8.12
303.82	9.42
304.033	8.59
304.246	7.52
304.459	9.62
304.672	10.97
304.885	11.33
305.098	12.68
305.311	12.54
305.524	13.93
305.737	13.6
305.95	14.61
306.163	13.61
306.376	12.76
306.589	14.94
306.802	14.63
307.015	13.34
307.228	14.3
307.44	14.24
307.653	14.17
307.866	13.43
308.079	13.02
308.292	12.12
308.505	12.07
308.718	13.24
308.93	11.81
309.143	11.46
309.356	11.23
309.569	9.48
309.781	8.75
309.994	8.78
310.207	9.15
310.42	9.64
310.632	11.14
310.845	11.3
311.058	10.82
311.27	10.69
311.483	10.83
311.696	10.47
311.908	11.41
312.121	12.03
312.333	11.72
312.546	11.89
312.759	10.62
312.971	9.31
313.184	8.15
313.396	6.15
313.609	6.73
313.821	7.99
314.034	7.26
314.246	6.54
314.459	5
314.671	6.61
314.884	5.62
315.096	6.61
315.309	6.28
315.521	6.45
315.733	8.61
315.946	10.02
316.158	9.07
316.371	9.47
316.583	10.44
316.795	12.88
317.008	11.44
317.22	12.58
317.432	11.75
317.644	13.91
317.857	13.91
318.069	13.1
318.281	11.9
318.494	11.14
318.706	10.85
318.918	9.15
319.13	8.81
319.342	8.31
319.555	7.32
319.767	9.01
319.979	7.94
320.191	11.21
320.403	14.13
320.615	14.15
320.827	12.91
321.039	14.12
321.252	16.24
321.464	15.07
321.676	15.83
321.888	16.5
322.1	15.89
322.312	16.37
322.524	15.38
322.736	12.84
322.948	13.38
323.16	15.02
323.372	14.89
323.584	13.76
323.796	13.9
324.007	13.97
324.219	14.98
324.431	16.02
324.643	14.16
324.855	12.14
325.067	12.56
325.279	12.83
325.491	12.45
325.702	11.53
325.914	11
326.126	10.85
326.338	10.88
326.55	9.35
326.761	8.97
326.973	9.08
327.185	11.05
327.396	11.65
327.608	7.65
327.82	7.03
328.032	6.97
328.243	7.5
328.455	7.67
328.666	7.63
328.878	8.22
329.09	8.11
329.301	9.25
329.513	9.09
329.725	9.5
329.936	14.81
330.148	16.03
330.359	17.96
330.571	18.19
330.782	18.28
330.994	18.28
331.205	17.63
331.417	16.92
331.628	17
331.84	16.63
332.051	16.84
332.262	13.97
332.474	12.3
332.685	11.67
332.897	11.75
333.108	12.06
333.319	12.45
333.531	13.25
333.742	12.97
333.953	13.39
334.165	13.86
334.376	10.46
334.587	12.08
334.799	12.68
335.01	13.55
335.221	12.58
335.432	12.2
335.644	11.43
335.855	9.55
336.066	8.77
336.277	8.46
336.488	8.96
336.7	10.61
336.911	9.86
337.122	9.83
337.333	8.97
337.544	9.51
337.755	10.15
337.966	10.22
338.177	11.35
338.388	12.2
338.599	11.97
338.811	10.93
339.022	10.79
339.233	10.25
339.444	10.79
339.655	10.38
339.866	10.86
340.076	9.29
340.287	9.54
340.498	10.03
340.709	9.84
340.92	10.77
341.131	9.41
341.342	10.82
341.553	11.68
341.764	12.21
341.975	13.73
342.185	14.25
342.396	15.69
342.607	15.16
342.818	13.68
343.029	13.84
343.239	13.45
343.45	15.44
343.661	16.03
343.872	16.22
344.082	15.8
344.293	13.85
344.504	14.17
344.714	13.18
344.925	12.9
345.136	13.02
345.346	12.87
345.557	13.38
345.768	13.02
345.978	11.12
346.189	10.93
346.399	11.45
346.61	12.85
346.821	11.15
347.031	11.5
347.242	12.18
347.452	12.38
347.663	12.42
347.873	10.26
348.084	10.17
348.294	10.86
348.504	11.17
348.715	9.8
348.925	8.53
349.136	9.1
349.346	9.79
349.557	10.11
349.767	11.55
349.977	11.71
350.188	13.82
350.398	14.51
350.608	13.55
350.819	12.82
351.029	12.77
351.239	12.93
351.449	12.67
351.66	11.33
351.87	11.21
352.08	9.9
352.29	10.87
352.501	9.77
352.711	8.15
352.921	8.84
353.131	8.41
353.341	8.27
353.552	8.84
353.762	9.04
353.972	10.05
354.182	10.78
354.392	10.87
354.602	10.29
354.812	10.06
355.022	10.05
355.232	8.94
355.442	9.24
355.652	9.76
355.862	9.55
356.072	9.97
356.282	10.47
356.492	9.72
356.702	10.06
356.912	10.04
357.122	9.97
357.332	10.53
357.542	11.85
357.752	11.94
357.962	12.2
358.171	11.64
358.381	10.82
358.591	10.21
358.801	9.69
359.011	9.53
359.221	9.5
359.43	9.44
359.64	9.92
359.85	9.29
360.06	8.89
360.269	8.04
360.479	8.92
360.689	9.63
360.899	9.51
361.108	10.36
361.318	10.99
361.528	11.15
361.737	11.67
361.947	11.08
362.156	11.34
362.366	12.07
362.576	12.56
362.785	11.99
362.995	11.97
363.204	12.41
363.414	11.91
363.623	11.99
363.833	12.25
364.042	12.28
364.252	12.43
364.461	12.23
364.671	11.75
364.88	12.14
365.09	12.48
365.299	12.06
365.509	12.03
365.718	12.3
365.927	11.61
366.137	10.75
366.346	9.73
366.555	9.37
366.765	9.74
366.974	10.43
367.183	10.54
367.393	10.88
367.602	11.16
367.811	11.1
368.021	10.31
368.23	10.36
368.439	10.11
368.648	11.73
368.857	11.79
369.067	11.65
369.276	11.48
369.485	11.53
369.694	11.27
369.903	10.8
370.112	10.1
370.321	10.02
370.531	9.92
370.74	10.06
370.949	9.74
371.158	9.34
371.367	9.36
371.576	9.03
371.785	7.98
371.994	8.44
372.203	9.54
372.412	10.12
372.621	10.81
372.83	10.54
373.039	11.11
373.248	11.05
373.457	11.95
373.666	11.69
373.874	11.8
374.083	12.1
374.292	11.18
374.501	10.94
374.71	10.02
374.919	9.2
375.128	9.63
375.336	9.59
375.545	8.61
375.754	8.61
375.963	8.38
376.171	8.2
376.38	8.31
376.589	7.83
376.798	7.62
377.006	8.37
377.215	8.63
377.424	8.49
377.632	8.41
377.841	8.6
378.05	8.2
378.258	8.36
378.467	8.37
378.675	8.31
378.884	8.58
379.093	8.44
379.301	8.46
379.51	8.86
379.718	9.05
379.927	9.21
380.135	9.04
380.344	9.07
380.552	8.77
380.761	8.56
380.969	8.35
381.177	8.9
381.386	8.7
381.594	8.52
381.803	8.14
382.011	8.23
382.219	7.92
382.428	8.05
382.636	8.13
382.845	8.07
383.053	8.02
383.261	8.11
383.469	7.7
383.678	8
383.886	7.89
384.094	7.69
384.302	6.87
384.511	5.84
384.719	5.77
384.927	5.68
385.135	5.78
385.343	5.81
385.552	5.46
385.76	5.83
385.968	5.68
386.176	5.51
386.384	6.21
386.592	6.68
386.8	7.1
387.008	7.12
387.216	7.28
387.424	7.04
387.633	7.12
387.841	7.23
388.049	7.08
388.257	6.36
388.465	6.24
388.672	5.84
388.88	5.48
389.088	5.54
389.296	5.56
389.504	5.14
389.712	5.27
389.92	5
390.128	5.02
390.336	4.83
390.544	5.39
390.751	5.31
390.959	5.8
391.167	6.28
391.375	6.42
391.583	6.49
391.79	6.74
391.998	6.45
392.206	6.55
392.414	6.46
392.621	6.38
392.829	6.39
393.037	6.49
393.244	5.91
393.452	5.59
393.66	5.35
393.867	5.09
394.075	5.04
394.283	5.56
394.49	5.52
394.698	5.76
394.905	5.9
395.113	5.6
395.32	5.63
395.528	5.68
395.735	5.78
395.943	5.84
396.15	5.8
396.358	5.67
396.565	5.43
396.773	5.45
396.98	5.45
397.188	5.32
397.395	5.49
397.602	5.57
397.81	5.67
398.017	5.48
398.225	5.6
398.432	5.82
398.639	5.73
398.847	5.91
399.054	5.79
399.261	5.79
399.468	5.32
399.676	5.32
399.883	4.89
400.09	4.64
400.297	4.62
400.505	4.94
400.712	4.58
400.919	4.69
401.126	4.45
401.333	4.47
401.54	4.51
401.748	4.86
401.955	4.43
402.162	4.55
402.369	4.5
402.576	4.71
402.783	4.29
402.99	4.79
403.197	4.52
403.404	4.59
403.611	4.32
403.818	4.07
404.025	4.33
404.232	4.61
404.439	4.92
404.646	4.87
404.853	4.95
405.06	4.82
405.267	4.74
405.474	4.82
405.681	4.92
405.887	5.34
406.094	5.62
406.301	5.44
406.508	5.51
406.715	5.43
406.922	5.63
407.128	5.22
407.335	5.4
407.542	5.66
407.749	5.85
407.955	5.42
408.162	5.39
408.369	4.95
408.575	5.12
408.782	5.25
408.989	4.87
409.195	4.58
409.402	4.8
409.609	4.76
409.815	4.42
410.022	4.47
410.228	4.74
410.435	4.44
410.642	4.54
410.848	4.25
411.055	4.14
411.261	4.32
411.468	4.42
411.674	4.15
411.881	4.1
412.087	4.05
412.294	3.92
412.5	3.85
412.706	3.93
412.913	3.72
413.119	4.15
413.326	3.96
413.532	3.89
413.738	3.85
413.945	4.17
414.151	4.33
414.357	4.29
414.564	4.33
414.77	4.39
414.976	4.28
415.182	4.47
415.389	4.58
415.595	4.4
415.801	4.4
416.007	4.39
416.214	4.12
416.42	3.98
416.626	4.07
416.832	4.09
417.038	4.16
417.244	4.32
417.45	4.32
417.657	4.06
417.863	4.12
418.069	4.26
418.275	4.21
418.481	4.19
418.687	4.13
418.893	4.05
419.099	3.92
419.305	4.08
419.511	4.12
419.717	4.07
419.923	4.13
420.129	4.26
420.335	4.21
420.541	4.24
420.746	4.32
420.952	4.4
421.158	4.33
421.364	4.4
421.57	4.18
421.776	4.2
421.982	4.38
422.187	4.4
422.393	4.35
422.599	4.39
422.805	4.52
423.01	4.57
423.216	4.72
423.422	4.81
423.628	4.93
423.833	4.98
424.039	4.9
424.245	4.8
424.45	4.64
424.656	4.52
424.862	4.47
425.067	4.42
425.273	4.4
425.478	4.24
425.684	4.21
425.889	4.17
426.095	4.17
426.301	4.1
426.506	4.05
426.712	4.09
426.917	4.13
427.123	4.17
427.328	4.01
427.533	4.09
427.739	4.36
427.944	4.4
428.15	4.4
428.355	4.33
428.561	4.53
428.766	4.59
428.971	4.65
429.177	4.95
429.382	4.8
429.587	4.95
429.793	4.82
429.998	4.56
430.203	4.36
430.408	4.17
430.614	3.99
430.819	4.01
431.024	3.92
431.229	4.02
431.434	4.04
431.64	4.03
431.845	3.99
432.05	4
432.255	4.07
432.46	4.33
432.665	4.42
432.87	4.53
433.076	4.52
433.281	4.57
433.486	4.54
433.691	4.45
433.896	4.54
434.101	4.61
434.306	4.54
434.511	4.48
434.716	4.21
434.921	4.07
435.126	4.13
435.331	4.08
435.535	4.02
435.74	3.88
435.945	3.86
436.15	3.84
436.355	3.64
436.56	3.76
436.765	3.82
436.97	3.99
437.174	4.02
437.379	4.09
437.584	4.04
437.789	4.01
437.993	4
438.198	3.85
438.403	3.9
438.608	4.07
438.812	3.88
439.017	3.92
439.222	3.97
439.426	4.13
439.631	4.08
439.836	4.01
440.04	4.09
440.245	4.14
440.45	4.25
440.654	4.24
440.859	4.23
441.063	4.29
441.268	4.26
441.472	4.21
441.677	4.05
441.881	4.1
442.086	4.16
442.29	4.1
442.495	4.14
442.699	4.1
442.904	4.07
443.108	4.03
443.312	4.03
443.517	3.86
443.721	4
443.925	3.82
444.13	3.92
444.334	3.89
444.538	3.91
444.743	3.91
444.947	3.84
445.151	3.89
445.356	3.94
445.56	3.87
445.764	3.91
445.968	3.76
446.173	3.81
446.377	3.74
446.581	3.82
446.785	3.75
446.989	3.79
447.193	3.93
447.398	3.81
447.602	3.71
447.806	3.89
448.01	3.99
448.214	4.06
448.418	4.17
448.622	4.07
448.826	4.12
449.03	4.23
449.234	4.09
449.438	4.19
449.642	4.25
449.846	4.15
450.05	3.91
450.254	3.87
450.458	3.86
450.662	3.95
450.866	3.93
451.069	3.75
451.273	3.7
451.477	3.73
451.681	3.47
451.885	3.59
452.089	3.91
452.292	4.07
452.496	4.07
452.7	4.06
452.904	3.9
453.107	3.87
453.311	3.9
453.515	3.97
453.719	3.96
453.922	4.03
454.126	3.94
454.33	3.71
454.533	3.68
454.737	3.46
454.94	3.37
455.144	3.61
455.348	3.82
455.551	3.77
455.755	3.72
455.958	3.65
456.162	3.7
456.365	3.77
456.569	3.76
456.772	4
456.976	4.21
457.179	4.31
457.383	4.27
457.586	4.15
457.79	4.3
457.993	4.27
458.196	4.47
458.4	4.43
458.603	4.31
458.807	4.33
459.01	4.23
459.213	4.25
459.417	4.2
459.62	4
459.823	3.98
460.026	3.82
460.23	3.83
460.433	3.65
460.636	3.65
460.839	3.7
461.042	3.8
461.246	3.56
461.449	3.5
461.652	3.44
461.855	3.52
462.058	3.43
462.261	3.53
462.464	3.47
462.668	3.72
462.871	3.65
463.074	3.53
463.277	3.39
463.48	3.35
463.683	3.44
463.886	3.4
464.089	3.39
464.292	3.53
464.495	3.51
464.698	3.66
464.901	3.3
465.104	3.32
465.306	3.37
465.509	3.55
465.712	3.75
465.915	3.55
466.118	3.65
466.321	3.65
466.524	3.75
466.726	3.6
466.929	3.6
467.132	3.98
467.335	3.91
467.538	4.01
467.74	3.84
467.943	3.81
468.146	3.87
468.348	3.82
468.551	3.89
468.754	3.78
468.956	3.99
469.159	3.92
469.362	3.74
469.564	3.78
469.767	3.8
469.969	3.99
470.172	4
470.375	4.02
470.577	4.11
470.78	4.27
470.982	4.26
471.185	4.17
471.387	4.02
471.59	4.29
471.792	4.34
471.995	4.26
472.197	4.23
472.399	4.21
472.602	4.26
472.804	4.18
473.007	4.17
473.209	4.12
473.411	4.23
473.614	4.33
473.816	4.04
474.018	4.09
474.22	4.08
474.423	4
474.625	3.89
474.827	3.86
475.03	4.03
475.232	3.98
475.434	4
475.636	3.77
475.838	3.76
476.04	3.69
476.243	3.49
476.445	3.42
476.647	3.42
476.849	3.58
477.051	3.56
477.253	3.35
477.455	3.29
477.657	3.44
477.859	3.52
478.061	3.52
478.263	3.69
478.465	3.98
478.667	4.11
478.869	4.26
479.071	4.39
479.273	4.43
479.475	4.45
479.677	4.37
479.879	4.27
480.081	4.31
480.283	4.27
480.485	4.28
480.686	4.07
480.888	4.08
481.09	3.94
481.292	3.89
481.494	3.68
481.695	3.81
481.897	3.82
482.099	3.88
482.301	3.95
482.502	3.95
482.704	3.87
482.906	3.94
483.107	3.96
483.309	3.99
483.511	3.93
483.712	4.01
483.914	3.97
484.115	3.97
484.317	3.93
484.519	3.89
484.72	3.87
484.922	3.85
485.123	3.84
485.325	3.74
485.526	3.71
485.728	3.75
485.929	3.75
486.131	3.68
486.332	3.67
486.534	3.7
486.735	3.75
486.936	3.8
487.138	3.88
487.339	3.82
487.541	3.91
487.742	3.89
487.943	3.88
488.144	3.83
488.346	3.89
488.547	3.88
488.748	3.84
488.95	3.74
489.151	3.7
489.352	3.67
489.553	3.7
489.755	3.65
489.956	3.65
490.157	3.71
490.358	3.74
490.559	3.73
490.76	3.68
490.961	3.66
491.163	3.75
491.364	3.77
491.565	3.8
491.766	3.78
491.967	3.83
492.168	3.82
492.369	3.75
492.57	3.77
492.771	3.73
492.972	3.78
493.173	3.81
493.374	3.78
493.575	3.83
493.776	3.82
493.976	3.83
494.177	3.71
494.378	3.78
494.579	3.73
494.78	3.68
494.981	3.82
495.182	3.89
495.382	3.86
495.583	3.81
495.784	3.64
495.985	3.51
496.185	3.55
496.386	3.63
496.587	3.55
496.788	3.67
496.988	3.66
497.189	3.66
497.39	3.55
497.59	3.66
497.791	3.64
497.992	3.76
498.192	3.89
498.393	3.94
498.593	3.89
498.794	3.82
498.994	3.83
499.195	3.75
499.395	3.73
499.596	3.81
499.796	3.82
499.997	3.97
500.197	4.01
500.398	3.97
500.598	3.72
500.799	3.94
500.999	4.07
501.199	4.03
501.4	4.28
501.6	4.38
501.801	4.31
502.001	4.19
502.201	4.07
502.402	3.94
502.602	3.95
502.802	4.09
503.002	3.91
503.203	3.87
503.403	3.75
503.603	3.8
503.803	3.88
504.003	3.85
504.204	3.92
504.404	3.93
504.604	3.74
504.804	3.79
505.004	3.93
505.204	3.92
505.404	3.98
505.604	3.99
505.804	3.71
506.005	3.52
506.205	3.72
506.405	3.88
506.605	4.03
506.805	4.27
507.005	4.15
507.204	4.14
507.404	4.14
507.604	3.95
507.804	4.01
508.004	3.91
508.204	3.88
508.404	3.77
508.604	3.57
508.804	3.39
509.003	3.32
509.203	3.29
509.403	3.19
509.603	3.28
509.803	3.33
510.002	3.36
510.202	3.46
510.402	3.52
510.602	3.54
510.801	3.5
511.001	3.57
511.201	3.66
511.4	3.65
511.6	3.7
511.8	3.63
511.999	3.7
512.199	3.69
512.398	3.8
512.598	3.82
512.797	3.76
512.997	3.98
513.197	3.92
513.396	3.82
513.596	4.05
513.795	4.1
513.994	4.22
514.194	4.23
514.393	4.23
514.593	4.31
514.792	4.39
514.992	4.43
515.191	4.21
515.39	4.41
515.59	4.5
515.789	4.46
515.988	4.39
516.188	4.26
516.387	4.42
516.586	4.54
516.786	4.33
516.985	4.3
517.184	4.34
517.383	4.41
517.582	4.3
517.782	4.3
517.981	4.24
518.18	4.28
518.379	4.29
518.578	4.07
518.777	4.09
518.976	4.24
519.176	4.16
519.375	4.12
519.574	4.05
519.773	4.12
519.972	4.06
520.171	3.98
520.37	3.93
520.569	4.05
520.768	4.17
520.967	4.13
521.166	4.02
521.365	4.01
521.564	4
521.762	4.13
521.961	4.13
522.16	4.23
522.359	4.28
522.558	4.42
522.757	4.24
522.956	4.15
523.154	4.05
523.353	4.05
523.552	4.06
523.751	4.03
523.949	4.04
524.148	4.13
524.347	4.14
524.546	4.25
524.744	4.19
524.943	4.25
525.142	4.25
525.34	4.24
525.539	4.34
525.737	4.44
525.936	4.46
526.135	4.37
526.333	4.28
526.532	4.27
526.73	4.27
526.929	4.21
527.127	4.22
527.326	4.37
527.524	4.4
527.723	4.32
527.921	4.26
528.12	4.26
528.318	4.27
528.516	4.29
528.715	4.22
528.913	4.21
529.112	4.22
529.31	4.2
529.508	4.16
529.707	4.19
529.905	4.24
530.103	4.25
530.301	4.25
530.5	4.32
530.698	4.35
530.896	4.49
531.094	4.59
531.293	4.54
531.491	4.63
531.689	4.62
531.887	4.57
532.085	4.64
532.283	4.62
532.481	4.65
532.68	4.67
532.878	4.66
533.076	4.64
533.274	4.52
533.472	4.67
533.67	4.67
533.868	4.58
534.066	4.57
534.264	4.45
534.462	4.46
534.66	4.42
534.858	4.3
535.056	4.29
535.253	4.34
535.451	4.42
535.649	4.36
535.847	4.36
536.045	4.38
536.243	4.37
536.441	4.46
536.638	4.52
536.836	4.63
537.034	4.74
537.232	4.62
537.43	4.49
537.627	4.5
537.825	4.63
538.023	4.68
538.22	4.76
538.418	4.86
538.616	4.98
538.813	5.08
539.011	5.01
539.209	4.95
539.406	5.23
539.604	5.37
539.801	5.32
539.999	5.19
540.196	5.11
540.394	4.99
540.591	4.96
540.789	4.95
540.986	4.84
541.184	4.84
541.381	4.85
541.579	4.83
541.776	4.82
541.974	4.84
542.171	4.81
542.368	4.84
542.566	4.95
542.763	5
542.96	4.95
543.158	5.04
543.355	5.02
543.552	5.04
543.75	4.92
543.947	4.93
544.144	4.94
544.341	4.99
544.539	4.94
544.736	4.89
544.933	4.89
545.13	4.9
545.327	4.76
545.524	4.84
545.722	4.85
545.919	5.07
546.116	4.95
546.313	4.83
546.51	4.95
546.707	4.93
546.904	4.99
547.101	4.98
547.298	5.03
547.495	5.2
547.692	5.23
547.889	5.22
548.086	5.06
548.283	5.26
548.48	5.33
548.677	5.25
548.874	5.42
549.07	5.48
549.267	5.48
549.464	5.54
549.661	5.57
549.858	5.53
550.055	5.64
550.251	5.83
550.448	5.66
550.645	5.88
550.842	5.85
551.038	6.08
551.235	6.02
551.432	6.11
551.628	5.98
551.825	5.96
552.022	5.96
552.218	5.94
552.415	5.84
552.612	5.94
552.808	5.8
553.005	5.93
553.201	5.62
553.398	5.79
553.594	5.67
553.791	5.8
553.987	5.8
554.184	5.75
554.38	5.75
554.577	5.86
554.773	5.79
554.97	5.84
555.166	5.76
555.362	5.94
555.559	5.8
555.755	5.91
555.952	6.02
556.148	6.01
556.344	6.18
556.541	6.16
556.737	5.94
556.933	6.08
557.129	6.2
557.326	6.19
557.522	6.49
557.718	6.67
557.914	6.75
558.11	6.52
558.307	6.68
558.503	6.74
558.699	6.96
558.895	6.98
559.091	6.83
559.287	6.96
559.483	6.89
559.679	6.64
559.876	6.49
560.072	6.36
560.268	6.52
560.464	6.44
560.66	6.43
560.856	6.28
561.052	6.45
561.247	6.56
561.443	6.57
561.639	6.81
561.835	6.61
562.031	6.6
562.227	6.59
562.423	6.59
562.619	6.6
562.815	6.44
563.01	6.62
563.206	6.79
563.402	6.87
563.598	6.89
563.793	6.9
563.989	6.92
564.185	6.89
564.381	7.03
564.576	7.01
564.772	7.2
564.968	7.28
565.163	7.03
565.359	6.9
565.555	6.87
565.75	6.76
565.946	6.68
566.141	6.92
566.337	7.1
566.532	7.2
566.728	7.2
566.923	7.06
567.119	7.34
567.314	7.44
567.51	7.57
567.705	7.72
567.901	7.69
568.096	7.79
568.292	7.76
568.487	7.66
568.682	7.61
568.878	7.57
569.073	7.68
569.268	7.45
569.464	7.47
569.659	7.35
569.854	7.35
570.05	7.41
570.245	7.42
570.44	7.45
570.635	7.67
570.831	7.61
571.026	7.68
571.221	7.71
571.416	7.83
571.611	7.93
571.806	7.99
572.002	7.83
572.197	7.82
572.392	7.78
572.587	7.81
572.782	7.77
572.977	7.85
573.172	7.87
573.367	8.01
573.562	8.04
573.757	7.92
573.952	7.81
574.147	7.94
574.342	7.92
574.537	7.93
574.732	7.96
574.927	8
575.121	7.83
575.316	7.89
575.511	7.7
575.706	7.54
575.901	7.58
576.096	7.71
576.29	7.7
576.485	7.97
576.68	7.97
576.875	7.87
577.069	7.79
577.264	7.84
577.459	7.76
577.654	7.69
577.848	7.83
578.043	7.96
578.238	7.98
578.432	8.08
578.627	7.8
578.821	7.92
579.016	7.91
579.21	7.86
579.405	8.08
579.6	8.1
579.794	8.15
579.989	8.13
580.183	8.03
580.378	7.99
580.572	7.85
580.766	7.82
580.961	7.85
581.155	7.92
581.35	8.18
581.544	8.08
581.738	8.19
581.933	8.32
582.127	8.38
582.321	8.6
582.516	8.64
582.71	8.62
582.904	8.69
583.099	8.66
583.293	8.61
583.487	8.36
583.681	8.41
583.875	8.42
584.07	8.51
584.264	8.33
584.458	7.98
584.652	7.75
584.846	7.77
585.04	7.94
585.234	7.83
585.428	7.87
585.623	8.41
585.817	8.51
586.011	8.42
586.205	8.24
586.399	8.37
586.593	8.51
586.787	8.65
586.981	8.96
587.174	8.83
587.368	8.87
587.562	8.89
587.756	8.13
587.95	8.17
588.144	8.14
588.338	8.19
588.532	8.21
588.725	8.33
588.919	8.33
589.113	8.11
589.307	8.38
589.501	8.56
589.694	8.47
589.888	8.48
590.082	8.37
590.275	8.43
590.469	8.37
590.663	8.38
590.856	8.22
591.05	8.43
591.244	8.38
591.437	8.32
591.631	8.26
591.824	8.06
592.018	8.06
592.212	7.85
592.405	7.67
592.599	7.6
592.792	7.51
592.986	7.72
593.179	7.66
593.372	7.89
593.566	7.72
593.759	7.71
593.953	8.11
594.146	8.26
594.339	8.62
594.533	8.57
594.726	8.64
594.92	8.76
595.113	8.95
595.306	8.83
595.499	8.62
595.693	8.6
595.886	8.7
596.079	8.78
596.272	8.9
596.466	8.79
596.659	9.01
596.852	8.91
597.045	8.88
597.238	8.61
597.431	8.59
597.624	8.65
597.818	8.43
598.011	8.25
598.204	7.96
598.397	7.76
598.59	7.81
598.783	7.68
598.976	7.63
599.169	7.47
599.362	7.6
599.555	7.69
599.748	7.41
599.941	7.77
600.134	7.93
600.326	8.07
600.519	8.43
600.712	8.32
600.905	8.47
601.098	8.82
601.291	8.93
601.483	9.05
601.676	8.77
601.869	8.93
602.062	8.75
602.255	8.78
602.447	8.69
602.64	8.5
602.833	8.74
603.025	8.59
603.218	8.35
603.411	8.27
603.603	8.01
603.796	8.17
603.989	8.36
604.181	8.38
604.374	8.33
604.566	8.27
604.759	8.34
604.951	8.04
605.144	8.01
605.336	8.07
605.529	8.06
605.721	8.25
605.914	8.19
606.106	8.06
606.299	8.22
606.491	8.31
606.683	8.49
606.876	8.31
607.068	8.57
607.26	8.6
607.453	8.54
607.645	8.72
607.837	8.63
608.03	8.81
608.222	8.77
608.414	8.7
608.606	8.38
608.799	8.24
608.991	8.28
609.183	8.18
609.375	8.3
609.567	8.43
609.759	8.45
609.952	8.48
610.144	8.2
610.336	8.17
610.528	8.15
610.72	8.21
610.912	8.23
611.104	8.39
611.296	8.27
611.488	8.41
611.68	8.18
611.872	8.31
612.064	8.3
612.256	8.42
612.448	8.63
612.64	8.58
612.832	8.68
613.023	8.89
613.215	8.96
613.407	9.19
613.599	9.04
613.791	9.24
613.983	8.72
614.174	8.41
614.366	8.51
614.558	8.44
614.75	8.37
614.941	8.4
615.133	8.15
615.325	8.32
615.516	8.17
615.708	7.6
615.9	7.7
616.091	7.78
616.283	7.98
616.475	8.04
616.666	7.87
616.858	7.91
617.049	7.59
617.241	7.7
617.432	7.21
617.624	7.18
617.815	7.49
618.007	7.39
618.198	7.52
618.39	7.72
618.581	7.34
618.773	7.35
618.964	7.19
619.155	7.3
619.347	7.35
619.538	7.62
619.729	7.54
619.921	7.67
620.112	7.5
620.303	7.47
620.494	7.49
620.686	7.53
620.877	7.44
621.068	7.68
621.259	7.69
621.451	7.67
621.642	7.32
621.833	7.31
622.024	7.57
622.215	7.76
622.406	8.2
622.597	8.09
622.788	8.39
622.98	8.54
623.171	8.6
623.362	8.81
623.553	8.91
623.744	9.17
623.935	9.24
624.126	9.08
624.317	9.17
624.508	8.63
624.698	8.33
624.889	8.35
625.08	8.48
625.271	8.71
625.462	8.69
625.653	8.78
625.844	8.68
626.034	8.91
626.225	8.86
626.416	8.87
626.607	9.09
626.798	9.02
626.988	8.79
627.179	8.7
627.37	8.48
627.56	8.45
627.751	8.11
627.942	8.12
628.132	8
628.323	7.99
628.514	7.75
628.704	7.39
628.895	7.62
629.085	8.03
629.276	8.14
629.466	7.94
629.657	7.56
629.847	7.47
630.038	7.78
630.228	7.75
630.419	7.84
630.609	8.3
630.8	8.43
630.99	8.44
631.181	8.41
631.371	8.05
631.561	8.28
631.752	8.88
631.942	9.08
632.132	8.77
632.323	8.91
632.513	8.54
632.703	8.22
632.893	8.31
633.084	8.7
633.274	8.37
633.464	8.35
633.654	8.56
633.844	8.22
634.034	8.35
634.225	8.34
634.415	8.22
634.605	8.53
634.795	8.71
634.985	8.75
635.175	8.58
635.365	8.88
635.555	9.03
635.745	8.83
635.935	9.13
636.125	9.09
636.315	9.11
636.505	9.29
636.695	9.46
636.885	9.25
637.075	9.52
637.265	9.51
637.455	9.18
637.644	9.49
637.834	9.68
638.024	9.6
638.214	9.32
638.404	9.54
638.593	9.23
638.783	9.09
638.973	9.16
639.163	9.04
639.352	8.8
639.542	9.09
639.732	9.04
639.921	8.96
640.111	9.17
640.301	9.39
640.49	9.31
640.68	9.49
640.87	9.28
641.059	9.41
641.249	9.41
641.438	9.35
641.628	8.95
641.817	8.73
642.007	8.63
642.196	8.22
642.386	8.4
642.575	8.32
642.764	8.33
642.954	8.53
643.143	8.51
643.333	8.45
643.522	8.74
643.711	9.06
643.901	9.35
644.09	9.28
644.279	9.33
644.469	9.4
644.658	9.58
644.847	9.35
645.036	9.62
645.226	9.04
645.415	8.6
645.604	8.28
645.793	8.11
645.982	8
646.171	7.79
646.361	7.77
646.55	7.74
646.739	7.59
646.928	7.49
647.117	7.32
647.306	8.4
647.495	9.16
647.684	9.27
647.873	9.35
648.062	9.48
648.251	10.09
648.44	9.73
648.629	9.82
648.818	9.56
649.007	9.89
649.196	10.03
649.384	9.29
649.573	9.13
649.762	9.3
649.951	9.25
650.14	9
650.328	8.69
650.517	8.96
650.706	8.49
650.895	9.01
651.083	8.64
651.272	8.01
651.461	8.47
651.65	8.21
651.838	7.85
652.027	8.01
652.216	8.01
652.404	7.99
652.593	8.28
652.781	8.56
652.97	7.99
653.158	7.94
653.347	8.13
653.535	7.81
653.724	7.96
653.912	8.45
654.101	8.37
654.289	8.27
654.478	8
654.666	7.79
654.855	7.65
655.043	8.03
655.231	8.41
655.42	8.64
655.608	8.66
655.796	8.46
655.985	8.33
656.173	8.48
656.361	8.53
656.55	8.72
656.738	8.92
656.926	8.69
657.114	8.57
657.302	8.71
657.491	8.78
657.679	8.59
657.867	8.87
658.055	8.76
658.243	8.8
658.431	9.12
658.619	9.25
658.807	8.97
658.996	9.15
659.184	9.27
659.372	8.83
659.56	8.64
659.748	8.61
659.936	8.62
660.124	8.51
660.311	8.42
660.499	8.19
660.687	7.9
660.875	7.96
661.063	8.09
661.251	7.96
661.439	8.06
661.627	8.39
661.814	8.56
662.002	8.46
662.19	8.67
662.378	9.18
662.565	8.92
662.753	8.91
662.941	9.21
663.129	9.24
663.316	9.34
663.504	9.35
663.692	9.39
663.879	9.52
664.067	9.59
664.254	9.62
664.442	9.04
664.63	8.86
664.817	9.09
665.005	9.28
665.192	8.98
665.38	8.64
665.567	8.63
665.755	8.31
665.942	8.43
666.13	8.33
666.317	8.29
666.504	8.22
666.692	8.6
666.879	8.66
667.067	8.71
667.254	8.75
667.441	9.27
667.629	9.36
667.816	9.88
668.003	9.68
668.19	9.9
668.378	9.93
668.565	10.02
668.752	10
668.939	9.79
669.127	9.41
669.314	9.8
669.501	9.37
669.688	9.36
669.875	8.85
670.062	8.61
670.249	8.46
670.436	8.19
670.623	8.48
670.81	8.73
670.997	8.78
671.184	9.01
671.371	8.8
671.558	9.45
671.745	9.8
671.932	9.36
672.119	9.49
672.306	9.58
672.493	10.03
672.68	9.88
672.867	9.67
673.054	9.76
673.24	9.38
673.427	10.12
673.614	9.8
673.801	9.64
673.988	9.87
674.174	10.01
674.361	10.13
674.548	9.94
674.734	9.95
674.921	9.95
675.108	10.35
675.294	10.24
675.481	9.6
675.668	9.33
675.854	9.48
676.041	9.6
676.227	9.59
676.414	9.46
676.601	8.99
676.787	8.86
676.974	8.81
677.16	8.13
677.347	8.64
677.533	8.89
677.719	9.48
677.906	9.44
678.092	9.32
678.279	9.46
678.465	9.66
678.651	9.65
678.838	9.67
679.024	9.67
679.21	9.87
679.397	9.7
679.583	9.24
679.769	8.58
679.955	8.75
680.142	9.56
680.328	9.21
680.514	9.07
680.7	9.36
680.886	9.61
681.073	9.87
681.259	10.19
681.445	9.49
681.631	9.45
681.817	9.75
682.003	9.38
682.189	8.8
682.375	9.28
682.561	8.72
682.747	9
682.933	8.94
683.119	8.85
683.305	8.66
683.491	9.43
683.677	9.71
683.863	9.94
684.049	10.01
684.235	9.78
684.42	9.39
684.606	9.61
684.792	9.61
684.978	9.72
685.164	9.8
685.349	9.92
685.535	9.75
685.721	9.42
685.907	9.13
686.092	9.38
686.278	10.15
686.464	10.35
686.649	10.36
686.835	10.17
687.021	9.35
687.206	8.86
687.392	8.9
687.577	8.7
687.763	8.89
687.948	8.9
688.134	8.73
688.319	8.41
688.505	8.29
688.69	8.69
688.876	8.31
689.061	8.81
689.247	9.19
689.432	8.96
689.618	9.28
689.803	8.9
689.988	9.23
690.174	9.34
690.359	8.91
690.544	9.25
690.73	9.54
690.915	9.7
691.1	9.76
691.285	9.3
691.471	9.58
691.656	9.46
691.841	10.14
692.026	9.88
692.211	10.24
692.396	10.26
692.582	9.95
692.767	9.08
692.952	9.23
693.137	9.11
693.322	9.5
693.507	8.64
693.692	8.35
693.877	8.27
694.062	7.75
694.247	6.54
694.432	6.74
694.617	7
694.802	7.93
694.987	8.4
695.172	8.3
695.357	8.33
695.541	9.24
695.726	9.95
695.911	9.37
696.096	9.77
696.281	10.12
696.466	10.38
696.65	10.2
696.835	9.98
697.02	9.14
697.204	9.07
697.389	9.43
697.574	9.2
697.759	8.7
697.943	9.35
698.128	9.52
698.312	9.5
698.497	9.46
698.682	9.55
698.866	9.75
699.051	9.73
699.235	9.7
699.42	9.51
699.604	10.28
699.789	10.38
699.973	10.1
700.158	10.3
700.342	10.81
700.527	11.2
700.711	10.95
700.895	10.58
701.08	11.16
701.264	11.03
701.448	10.94
701.633	9.26
701.817	9.16
702.001	9.01
702.186	8.28
702.37	7.81
702.554	7.27
702.738	7.02
702.923	7.96
703.107	8.22
703.291	8.81
703.475	8.97
703.659	9.43
703.843	10.03
704.027	9.99
704.212	10.01
704.396	10.33
704.58	10.28
704.764	11.37
704.948	10.86
705.132	10.71
705.316	10.94
705.5	10.61
705.684	11.79
705.868	11.76
706.052	11.49
706.235	12.14
706.419	12.09
706.603	12.43
706.787	11.63
706.971	11.31
707.155	10.61
707.339	10.44
707.522	9.89
707.706	9.04
707.89	9.2
708.074	9.35
708.257	9.2
708.441	9.53
708.625	8.93
708.808	9.1
708.992	8.64
709.176	9.2
709.359	9.51
709.543	10.12
709.727	10.37
709.91	9.77
710.094	10
710.277	9.66
710.461	9.86
710.644	10.3
710.828	9.73
711.011	10.43
711.195	10.4
711.378	10.18
711.562	10.06
711.745	10.17
711.928	10.23
712.112	10.09
712.295	10.81
712.478	10.57
712.662	10.18
712.845	10.64
713.028	10.4
713.212	10.17
713.395	9.73
713.578	10.22
713.761	10.35
713.945	11.23
714.128	11.27
714.311	11.1
714.494	10.5
714.677	10.73
714.86	10.33
715.043	10.49
715.227	11.46
715.41	11.85
715.593	11.02
715.776	10.67
715.959	10.03
716.142	10.66
716.325	10.42
716.508	10.09
716.691	10.3
716.874	11.11
717.057	10.53
717.239	10.22
717.422	9.74
717.605	10.49
717.788	9.24
717.971	9.41
718.154	9.25
718.337	9.33
718.519	9.3
718.702	8.95
718.885	8.88
719.068	10.01
719.25	9
719.433	9.08
719.616	8.65
719.798	10.24
719.981	10.59
720.164	9.3
720.346	9.74
720.529	9.77
720.712	9.94
720.894	9.17
721.077	8.84
721.259	9.7
721.442	9.92
721.624	10.31
721.807	10.08
721.989	8.97
722.172	8.98
722.354	7.88
722.537	8.72
722.719	8.27
722.901	7.4
723.084	7.97
723.266	8
723.448	7.59
723.631	7
723.813	7.77
723.995	8.47
724.178	8.89
724.36	9.11
724.542	8.93
724.724	9.04
724.907	10.22
725.089	8.46
725.271	8.08
725.453	8.26
725.635	9.17
725.817	8.26
725.999	7.83
726.181	9.01
726.364	9.98
726.546	10.06
726.728	10.44
726.91	11.01
727.092	12.14
727.274	12.22
727.456	13.44
727.638	13.47
727.819	14.25
728.001	14.63
728.183	14.29
728.365	14.12
728.547	13.88
728.729	13.52
728.911	12.56
729.093	11.98
729.274	13.07
729.456	11.79
729.638	11.96
729.82	11.16
730.001	11.72
730.183	11.43
730.365	11.3
730.546	11.04
730.728	10.52
730.91	10.55
731.091	11.48
731.273	10.23
731.455	10.76
731.636	10.48
731.818	10.06
731.999	10.12
732.181	9.84
732.362	9.59
732.544	10.04
732.725	9.48
732.907	10.33
733.088	9.83
733.27	9.81
733.451	9.4
733.633	8.52
733.814	9.23
733.995	8.38
734.177	9.5
734.358	9.61
734.539	9.57
734.721	10.32
734.902	9.69
735.083	9.82
735.264	9.64
735.446	10.86
735.627	12.28
735.808	12.33
735.989	12.51
736.17	11.17
736.351	11.5
736.533	10.82
736.714	11.42
736.895	11.82
737.076	11.43
737.257	12.25
737.438	11.05
737.619	10.2
737.8	10.22
737.981	10.11
738.162	11.06
738.343	10.22
738.524	12
738.705	12.94
738.886	12.8
739.067	12.77
739.247	12.13
739.428	13.05
739.609	13.1
739.79	12.97
739.971	12.93
740.151	11.69
740.332	12.21
740.513	11.26
740.694	9.73
740.874	10.24
741.055	9.1
741.236	9.69
741.417	9.36
741.597	9.61
741.778	9.49
741.958	8.78
742.139	10.17
742.32	9.08
742.5	9.39
742.681	9.61
742.861	7.42
743.042	9.09
743.222	7.94
743.403	8.39
743.583	8.36
743.764	9.07
743.944	9.01
744.124	10.27
744.305	11.71
744.485	11.61
744.666	12.38
744.846	13.51
745.026	12.6
745.207	13.52
745.387	14
745.567	13.94
745.747	13.57
745.928	13.28
746.108	10.42
746.288	9.43
746.468	9.06
746.648	8.77
746.829	8.14
747.009	8.35
747.189	7.39
747.369	6.96
747.549	8.14
747.729	8.77
747.909	10.99
748.089	12.14
748.269	12.37
748.449	11.94
748.629	11.25
748.809	12.76
748.989	12.64
749.169	13.92
749.349	13.59
749.529	13.21
749.709	11.24
749.889	9.56
750.068	9.15
750.248	10.47
750.428	9.99
750.608	9.87
750.788	9.51
750.967	10.82
751.147	9.21
751.327	7.44
751.507	7.34
751.686	8.5
751.866	9.67
752.046	10.92
752.225	11.04
752.405	12.68
752.585	13.01
752.764	13
752.944	12.01
753.123	12.69
753.303	14.74
753.482	15.26
753.662	15.76
753.841	15.24
754.021	14.28
754.2	12.44
754.38	11.82
754.559	12.77
754.739	12.17
754.918	12.56
755.097	13.12
755.277	12.06
755.456	10.16
755.635	11.12
755.815	12.1
755.994	13.12
756.173	13.87
756.352	14.36
756.532	13.29
756.711	12.86
756.89	12.23
757.069	10.37
757.248	10.69
757.427	11.55
757.607	10.59
757.786	10.18
757.965	9.01
758.144	8.75
758.323	7.97
758.502	9.16
758.681	10.21
758.86	10.61
759.039	11.41
759.218	10.2
759.397	9.63
759.576	10
759.755	9.63
759.934	9.77
760.113	9.55
760.291	10.97
760.47	10.73
760.649	11.1
760.828	10.11
761.007	10.19
761.186	11.29
761.364	12.05
761.543	11.43
761.722	11.51
761.901	10.65
762.079	10.18
762.258	9.75
762.437	9.71
762.615	10.02
762.794	10.96
762.972	11.89
763.151	10.96
763.33	10.4
763.508	10.22
763.687	10.23
763.865	11.82
764.044	12.33
764.222	12.42
764.401	12.29
764.579	11.8
764.758	10.92
764.936	10.45
765.114	11.47
765.293	11.85
765.471	11.08
765.65	11.07
765.828	10.65
766.006	11.46
766.184	10.9
766.363	11.4
766.541	11.01
766.719	11.73
766.898	11.49
767.076	12.22
767.254	11.43
767.432	11.82
767.61	11.34
767.788	10.58
767.967	8.76
768.145	8.75
768.323	7.66
768.501	8.38
768.679	8.62
768.857	7.52
769.035	6.2
769.213	7.19
769.391	6.8
769.569	6.77
769.747	7.48
769.925	8.99
770.103	7.64
770.281	8.5
770.459	8.56
770.636	9.46
770.814	10.56
770.992	11.71
771.17	11.17
771.348	11.78
771.525	10.95
771.703	8.98
771.881	7.87
772.059	9.11
772.236	9.98
772.414	9.03
772.592	8.08
772.769	9.92
772.947	8.37
773.125	9.16
773.302	10.73
773.48	11.82
773.657	14.88
773.835	14.46
774.013	15.85
774.19	15.85
774.368	17.75
774.545	17.39
774.723	15.92
774.9	14.35
775.077	13.98
775.255	12.25
775.432	12.06
775.61	9.84
775.787	11.05
775.964	6.7
776.142	4.99
776.319	3.33
776.496	4.64
776.674	4.66
776.851	7.71
777.028	7.43
777.205	8.46
777.382	9.05
777.56	9.96
777.737	10.85
777.914	12.98
778.091	13.83
778.268	14.94
778.445	13.25
778.622	13.74
778.8	11.83
778.977	11.1
779.154	9.56
779.331	8.23
779.508	6.34
779.685	2.69
779.862	3.61
780.038	2.63
780.215	1.48
780.392	4.87
780.569	4.09
780.746	5.13
780.923	7.19
781.1	8.68
781.277	10.3
781.453	10.92
781.63	11.74
781.807	11.01
781.984	11.96
782.16	11.96
782.337	9.93
782.514	8.84
782.691	7
782.867	5.35
783.044	5.19
783.221	6
783.397	7.04
783.574	8.04
783.75	8.97
783.927	8.22
784.103	7.6
784.28	8.8
784.456	7.17
784.633	8.74
784.809	9.24
784.986	12.44
785.162	11.08
785.339	10.53
785.515	9.37
785.692	8.89
785.868	5.59
786.044	7.11
786.221	8
786.397	10.23
786.573	10.72
786.749	10.72
786.926	7.5
787.102	9.46
787.278	7.51
787.454	6.95
787.631	5.21
787.807	6.97
787.983	7.39
788.159	5.77
788.335	4.24
788.511	2.72
788.687	5.01
788.863	6.74
789.039	5.85
789.216	9.22
789.392	9.82
789.568	10.05
789.744	10.87
789.919	10.6
790.095	9.85
790.271	13.5
790.447	13.44
790.623	13.58
790.799	12.23
790.975	10.67
791.151	10.09
791.327	10.39
791.502	11.16
791.678	11.38
791.854	11.13
792.03	12.33
792.205	10.33
792.381	13.23
792.557	11.9
792.733	11.91
792.908	12.51
793.084	14.07
793.259	15.99
793.435	15.33
793.611	13.97
793.786	12.09
793.962	13.86
794.137	13.64
794.313	12.51
794.488	10.89
794.664	7.58
794.839	6.72
795.015	2.55
795.19	4.09
795.366	5.83
795.541	5.5
795.716	8.71
795.892	6.69
796.067	7.54
796.242	6.44
796.418	5.29
796.593	9.96
796.768	13.66
796.944	14.07
797.119	11.22
797.294	11.94
797.469	13.24
797.644	10.38
797.82	7.04
797.995	5.9
798.17	5.15
798.345	8.15
798.52	7.92
798.695	7.88
798.87	7.96
799.045	7.69
799.22	4.42
799.395	4.78
799.57	5.96
799.745	11.46
799.92	14.62
800.095	16.71
800.27	16.77
800.445	16.32
800.62	12.46
800.795	13.69
800.97	15.91
801.145	18.81
801.319	17.62
801.494	17.35
801.669	13.36
801.844	10.71
802.018	8.99
802.193	6.73
802.368	5.47
802.543	5.24
802.717	4.05
802.892	2.95
803.067	6.31
803.241	9.94
803.416	6.57
803.59	7.04
803.765	8.8
803.94	9.3
804.114	11.61
804.289	11.31
804.463	15.03
804.638	14.78
804.812	15.03
804.986	9.8
805.161	7.11
805.335	9.79
805.51	9.71
805.684	8.31
805.858	8.46
806.033	10.39
806.207	9.43
806.381	4.34
806.556	6.65
806.73	6.46
806.904	11.89
807.078	11.12
807.253	12.66
807.427	13.07
807.601	13.3
807.775	13.11
807.949	8.13
808.123	9.5
808.298	15.5
808.472	14.37
808.646	17.33
808.82	14.51
808.994	13.4
809.168	10.11
809.342	9.35
809.516	9.95
809.69	13.75
809.864	15.87
810.038	15.71
810.212	12.6
810.385	10.65
810.559	4.1
810.733	5.04
810.907	5.45
811.081	6.39
811.255	11.3
811.428	9.41
811.602	6.58
811.776	6.9
811.95	6.71
812.123	4.59
812.297	5.25
812.471	12.83
812.644	14.18
812.818	12.49
812.992	15.81
813.165	12.03
813.339	12.55
813.512	15.39
813.686	15.27
813.86	14.24
814.033	16.74
814.207	16.41
814.38	12.68
814.554	11.9
814.727	15.47
814.9	12.53
815.074	11.42
815.247	14.87
815.421	10.54
815.594	8.91
815.767	11.6
815.941	3.19
816.114	7.06
816.287	5.27
816.46	2.37
816.634	0.99
816.807	1.15
816.98	-0.8
817.153	-5.7
817.327	-6.83
817.5	-6.86
817.673	-8.09
817.846	2
818.019	-2.41
818.192	-2.2
818.365	-4.12
818.538	-2.23
818.711	3
818.884	13.14
819.057	17.53
819.23	17.63
819.403	18.02
819.576	16.82
819.749	16.17
819.922	22.14
820.095	20.92
820.268	22.44
820.441	20.76
820.614	18.5
820.786	13.94
820.959	12.52
821.132	12.85
821.305	12.55
821.477	12.77
821.65	12.44
821.823	10.79
821.996	11.52
822.168	10.16
822.341	10.7
822.514	10.12
822.686	9.6
822.859	10.19
823.031	10.59
823.204	11.49
823.376	12.17
823.549	12.21
823.722	12.15
823.894	11.39
824.067	12.66
824.239	12.28
824.411	13.74
824.584	14.66
824.756	13.91
824.929	13.4
825.101	12.36
825.273	12.35
825.446	11.73
825.618	10.46
825.79	11.8
825.963	10.61
826.135	10.84
826.307	7.52
826.479	8.51
826.652	10.2
826.824	11.63
826.996	12.39
827.168	11.72
827.34	12.8
827.512	14.24
827.684	13.23
827.856	12.78
828.029	14.59
828.201	15.87
828.373	15.12
828.545	14.41
828.717	14.26
828.889	13.35
829.061	13.99
829.232	12.49
829.404	12.94
829.576	15.09
829.748	17.24
829.92	15.34
830.092	19.11
830.264	18.23
830.436	14.4
830.607	11.63
830.779	11.78
830.951	9.27
831.123	10.73
831.294	10.53
831.466	8.78
831.638	9.45
831.809	7.43
831.981	5.19
832.153	6.96
832.324	7.7
832.496	10.59
832.667	9.13
832.839	13.62
833.011	11.74
833.182	11.08
833.354	10.93
833.525	10.96
833.697	11.56
833.868	11.23
834.039	8.96
834.211	11.88
834.382	8.91
834.554	11.25
834.725	8.38
834.896	7.93
835.068	7.05
835.239	7.33
835.41	4.02
835.581	7.01
835.753	5.46
835.924	6.48
836.095	6.93
836.266	8.82
836.438	5.43
836.609	6.02
836.78	10.63
836.951	10.13
837.122	8.37
837.293	10.91
837.464	5.11
837.635	5.27
837.806	7.05
837.977	4.63
838.148	0.64
838.319	5.63
838.49	2.39
838.661	-1.15
838.832	6.16
839.003	8.62
839.174	10.62
839.345	12.98
839.516	15.23
839.687	13.3
839.857	21.08
840.028	26.96
840.199	19.62
840.37	19.61
840.54	20.59
840.711	13.63
840.882	10.19
841.053	8.18
841.223	5.77
841.394	0.76
841.564	3.21
841.735	-11.27
841.906	-15.54
842.076	-5.93
842.247	2
842.417	4.34
842.588	6.62
842.758	8.13
842.929	3.12
843.099	0.75
843.27	1.13
843.44	-5.48
843.611	-9.68
843.781	-5.26
843.951	-0.06
844.122	-1.84
844.292	-13.49
844.462	-16.15
844.633	-4.98
844.803	1.64
844.973	9.72
845.144	18.74
845.314	22.11
845.484	23.13
845.654	27.85
845.824	20.77
845.995	20.28
846.165	24.37
846.335	30.83
846.505	26.9
846.675	19.47
846.845	14.21
847.015	19.95
847.185	23.31
847.355	38.69
847.525	35.92
847.695	26.84
847.865	25.02
848.035	26.93
848.205	28.73
848.375	22.89
848.545	25.33
848.715	21.65
848.884	9.54
849.054	11.15
849.224	5.06
849.394	0.22
849.564	3.99
849.733	6
849.903	-0.61
850.073	-14.86
850.243	-12.05
850.412	-16.49
850.582	-16.81
850.752	-9.46
850.921	-12.13
851.091	-18.22
851.26	-19.47
851.43	-21.39
851.599	-35.14
851.769	-30.83
851.939	-28.3
852.108	-30.54
852.278	-16
852.447	-3.41
852.616	5.74
852.786	-12.5
852.955	-4.13
853.125	-1.06
853.294	6.04
853.463	18.06
853.633	25.38
853.802	35.46
853.971	35.37
854.141	39.49
854.31	32.25
854.479	13.45
854.648	32.18
854.818	32.98
854.987	41.09
855.156	31.71
855.325	18.97
855.494	20.13
855.663	2.27
855.832	-9.35
856.001	-33.33
856.171	9.42
856.34	33.99
856.509	31.9
856.678	12.46
856.847	30.03
857.016	38.34
857.185	33.39
857.353	30.54
857.522	35.68
857.691	34.96
857.86	37.6
858.029	24.05
858.198	7.07
858.367	1.55
858.535	7.55
858.704	-9.66
858.873	-21.26
859.042	7.35
859.21	-11.55
859.379	0.67
859.548	-14.98
859.717	4.22
859.885	-8.78
860.054	-6.3
860.222	-10.97
860.391	-10.13
860.56	-20
860.728	-31.39
860.897	-35.07
861.065	-16.9
861.234	-23.59
861.402	9.1
861.571	-14.64
861.739	-0.23
861.908	5.78
862.076	0.69
862.244	-6.24
862.413	-5.97
862.581	36.17
862.749	47.12
862.918	48.83
863.086	74.12
863.254	60.51
863.423	63.55
863.591	57.11
863.759	46.5
863.927	42.9
864.096	52.62
864.264	56.45
864.432	42.27
864.6	39.42
864.768	31.88
864.936	26.89
865.104	16.51
865.272	17.65
865.44	14.34
865.608	3.39
865.776	-7.39
865.944	-21.16
866.112	-26.08
866.28	-47.27
866.448	-51.24
866.616	-55.66
866.784	-67.45
866.952	-61.52
867.12	-70.85
867.288	-78.04
867.455	-41.91
867.623	-21.54
867.791	8.72
867.959	12.41
868.127	22.4
868.294	1.28
868.462	0.24
868.63	0.26
868.797	20.51
868.965	34.05
869.133	35.04
869.3	19.04
869.468	21.08
869.636	1.21
869.803	25.04
869.971	31.8
870.138	45.86
870.306	57.35
870.473	57.39
870.641	32.49
870.808	-4.93
870.975	3.29
871.143	-4.02
871.31	-28.38
871.478	-29.34
871.645	-77.79
871.812	-41.35
871.98	-71.9
872.147	-49.49
872.314	-50.49
872.482	-15.01
872.649	8.46
872.816	3.41
872.983	-14.53
873.15	5.52
873.318	7.7
873.485	-8.74
873.652	-27.18
873.819	-12.24
873.986	-21.12
874.153	-42.82
874.32	-76.45
874.487	-80.44
874.654	-49.99
874.821	-13.16
874.988	-44.15
875.155	-30.89
875.322	-25.55
875.489	-7.93
875.656	-15.93
875.823	-20.03
875.99	-0.01
876.157	8.35
876.324	10.63
876.49	2.58
876.657	-1.72
876.824	9.91
876.991	-1.36
877.157	-1.44
877.324	1.76
877.491	20.3
877.658	18.78
877.824	14.15
877.991	20.74
878.157	8.43
878.324	19.24
878.491	13.06
878.657	7.4
878.824	8.19
878.99	3
879.157	1.67
879.323	-3.78
879.49	10.65
879.656	18.3
879.823	10.96
879.989	17.79
880.156	13.43
880.322	20.04
880.488	27.87
880.655	29.81
880.821	23.82
880.987	15.97
881.154	8.52
881.32	2.08
881.486	3.29
881.652	12.89
881.819	15.17
881.985	18.64
882.151	16.67
882.317	17.69
882.483	21.44
882.649	24.32
882.816	23.87
882.982	23.26
883.148	24.63
883.314	22.71
883.48	19.66
883.646	17.23
883.812	15.17
883.978	12.61
884.144	13.8
884.31	11.26
884.476	10.93
884.642	11.19
884.807	10.44
884.973	6.09
885.139	8.99
885.305	3.81
885.471	6.67
885.637	2.59
885.802	4.4
885.968	2.31
886.134	2.33
886.3	1.55
886.465	6.06
886.631	10.26
886.797	13.52
886.962	5.09
887.128	14.3
887.293	10.28
887.459	22.34
887.625	15.92
887.79	9.85
887.956	25.64
888.121	29.24
888.287	22.16
888.452	20.4
888.618	26.16
888.783	47.32
