Data from 2938072_Reflection_2.txt Node
Date: Sat Jul 11 20:34:25 EDT 2015
User: robert
Spectrometer: USB4E03001
Autoset integration time: false
Trigger mode: 4
Integration Time (sec): 1.000000E-1
Scans to average: 10
Electric dark correction enabled: true
Nonlinearity correction enabled: false
Boxcar width: 5
Stray light correction enabled: false
XAxis mode: Wavelengths
Stop averaging: false
Number of Pixels in Spectrum: 3648
>>>>>Begin Spectral Data<<<<<
177.566	17.65
177.785	53.26
178.005	61.3
178.225	-19.13
178.445	35.65
178.665	101.82
178.885	85.05
179.105	15.11
179.324	36.59
179.544	-1.04
179.764	-61.38
179.984	365.6
180.204	206.07
180.423	299.63
180.643	234.89
180.863	158.14
181.083	93.17
181.302	112.21
181.522	101.99
181.742	104.57
181.961	97.93
182.181	65.47
182.401	29.45
182.621	57.85
182.84	42.47
183.06	6.1
183.279	14.87
183.499	46.26
183.719	23.8
183.938	40.9
184.158	52.39
184.377	46.71
184.597	58.41
184.816	72.78
185.036	60.03
185.256	72.15
185.475	88.78
185.695	96.28
185.914	75.18
186.134	83.86
186.353	67.33
186.572	51.95
186.792	59.15
187.011	12.84
187.231	29.27
187.45	15.09
187.67	5.44
187.889	-18.45
188.108	821.85
188.328	194.38
188.547	197.21
188.766	913.02
188.986	1084.21
189.205	-145.77
189.424	-10.14
189.644	-59.46
189.863	-46.52
190.082	-99.51
190.302	-87.66
190.521	-54.56
190.74	13.14
190.959	26.54
191.178	-2.44
191.398	-43
191.617	-66.69
191.836	-61.41
192.055	-4.4
192.274	-22.37
192.494	-129.94
192.713	32.71
192.932	6.91
193.151	31.9
193.37	23.44
193.589	18.01
193.808	39.99
194.027	67.01
194.246	53.39
194.465	41.47
194.685	37.16
194.904	39.15
195.123	37.42
195.342	48.27
195.561	-16.33
195.78	-42.75
195.999	-74.09
196.218	-73.86
196.436	219.65
196.655	96.56
196.874	-59.27
197.093	-296.85
197.312	-181.84
197.531	-56.5
197.75	118.25
197.969	366.52
198.188	79.61
198.407	129.57
198.625	64.78
198.844	36.46
199.063	29.48
199.282	-14.98
199.501	32.09
199.719	36.44
199.938	9.05
200.157	57.16
200.376	53.64
200.594	57.81
200.813	65.2
201.032	233.62
201.251	-238.45
201.469	370.25
201.688	185.21
201.907	69.37
202.125	54.45
202.344	106.37
202.563	142.13
202.781	84.33
203	107.46
203.218	88.33
203.437	94.88
203.656	87.14
203.874	107.9
204.093	195.48
204.311	-1456.6
204.53	6707.95
204.748	-490.84
204.967	-1024.91
205.185	-196.64
205.404	-283.1
205.622	-33.04
205.841	-92.52
206.059	-611.11
206.278	-278.58
206.496	-318.29
206.715	121.57
206.933	92.3
207.151	76.36
207.37	59.13
207.588	113.99
207.806	83.51
208.025	88.97
208.243	101.11
208.461	97.62
208.68	111.94
208.898	105.03
209.116	113.88
209.335	112.35
209.553	96.14
209.771	115.96
209.989	115.81
210.208	106.92
210.426	92.51
210.644	88.94
210.862	88.66
211.081	73.71
211.299	105.98
211.517	81.94
211.735	79.2
211.953	105.67
212.171	122.79
212.39	72.76
212.608	94.61
212.826	81.46
213.044	37.17
213.262	35.67
213.48	29.79
213.698	25.43
213.916	-45.58
214.134	-128.32
214.352	-132.48
214.57	-236.22
214.788	-136.51
215.006	-91.98
215.224	-44.99
215.442	23.65
215.66	33.36
215.878	52.47
216.096	-2.4
216.314	27.95
216.532	65.9
216.75	94.26
216.968	85.16
217.185	131.43
217.403	79.41
217.621	17.63
217.839	8.84
218.057	16.22
218.275	12.5
218.492	45.77
218.71	47.07
218.928	14.56
219.146	32.87
219.363	42.72
219.581	41.6
219.799	91.24
220.017	83.96
220.234	63.34
220.452	61.34
220.67	38.14
220.887	26.8
221.105	36.8
221.323	51.27
221.54	69.39
221.758	63.75
221.976	61.95
222.193	27.86
222.411	39.02
222.629	64.46
222.846	40.86
223.064	31.2
223.281	65.83
223.499	41.42
223.716	42.52
223.934	-3.68
224.151	20.53
224.369	-19.01
224.586	5.66
224.804	17.68
225.021	19.59
225.239	22.98
225.456	39.74
225.674	27.18
225.891	23.2
226.108	16.97
226.326	13.61
226.543	4.43
226.76	3.91
226.978	5.53
227.195	3.38
227.413	-3.64
227.63	-2.68
227.847	-7.97
228.064	-9.63
228.282	-1.89
228.499	1.46
228.716	3.13
228.934	6.95
229.151	6.23
229.368	6.87
229.585	6.72
229.802	8.4
230.02	8.2
230.237	9.16
230.454	11.67
230.671	7.92
230.888	7.11
231.105	5.08
231.323	2.34
231.54	6.3
231.757	0.55
231.974	-2.13
232.191	2.8
232.408	5.99
232.625	6.78
232.842	6.32
233.059	10.14
233.276	15.28
233.493	19.07
233.71	20.11
233.927	18.14
234.144	20.55
234.361	23.05
234.578	21.07
234.795	15.84
235.012	19.59
235.229	17.12
235.446	19.26
235.663	15.81
235.879	17.17
236.096	21.32
236.313	20.16
236.53	19.2
236.747	19.65
236.964	18.91
237.181	24.63
237.397	21.66
237.614	23
237.831	21.88
238.048	18.58
238.264	12.02
238.481	8.69
238.698	5.74
238.915	6.63
239.131	4.89
239.348	2.22
239.565	-2.35
239.781	5.44
239.998	-1.09
240.215	0
240.431	0.19
240.648	7.88
240.865	9.92
241.081	13.48
241.298	14.04
241.514	13.64
241.731	13.73
241.947	13.1
242.164	11.76
242.38	13.4
242.597	12.51
242.814	12.29
243.03	11.14
243.246	8.92
243.463	8.15
243.679	7.87
243.896	8.31
244.112	8.1
244.329	7.52
244.545	7.74
244.762	9.13
244.978	8.82
245.194	8.97
245.411	8.62
245.627	10.82
245.843	9.54
246.06	10.16
246.276	8.52
246.492	8.72
246.709	10.04
246.925	10.52
247.141	9.17
247.357	8.98
247.574	10.09
247.79	8.93
248.006	8.88
248.222	8.8
248.439	6.74
248.655	7.4
248.871	6.65
249.087	4.87
249.303	2.82
249.519	3.98
249.736	4.49
249.952	4.11
250.168	6.34
250.384	3.55
250.6	3.46
250.816	6.93
251.032	5.53
251.248	4.63
251.464	4.51
251.68	5.21
251.896	3.52
252.112	5.1
252.328	2.62
252.544	0.5
252.76	0.89
252.976	1.5
253.192	4
253.408	5.51
253.624	8.12
253.84	7.01
254.056	6.68
254.272	7.19
254.487	2.87
254.703	4.96
254.919	6.02
255.135	9.6
255.351	11.93
255.567	9.05
255.782	6.5
255.998	5.39
256.214	8.27
256.43	8.01
256.646	9.44
256.861	14.56
257.077	14.21
257.293	15.79
257.508	14.11
257.724	12.76
257.94	13.04
258.155	13.18
258.371	12.22
258.587	12.59
258.802	12.43
259.018	11.12
259.234	9.8
259.449	8.47
259.665	7.88
259.88	8.15
260.096	8.07
260.312	7.38
260.527	6.95
260.743	7.73
260.958	7.57
261.174	6.51
261.389	7.1
261.605	7.15
261.82	7.1
262.036	7.06
262.251	5.82
262.466	5.75
262.682	5.1
262.897	5.56
263.113	3.57
263.328	2.73
263.543	2.34
263.759	0.58
263.974	-1.76
264.189	-0.38
264.405	-0.72
264.62	-1.01
264.835	-0.5
265.051	-1.94
265.266	-0.37
265.481	-0.21
265.696	1.81
265.912	4.8
266.127	3.54
266.342	5.15
266.557	6.18
266.773	5.06
266.988	4.32
267.203	1.07
267.418	2.75
267.633	2.19
267.848	2.48
268.064	1.51
268.279	1.94
268.494	2.85
268.709	2.24
268.924	1.44
269.139	2.87
269.354	5.08
269.569	7.09
269.784	8.25
269.999	7.4
270.214	5.62
270.429	5.43
270.644	5.19
270.859	6.35
271.074	5.41
271.289	5.16
271.504	6.24
271.719	6.89
271.934	7.83
272.149	7.13
272.363	8.74
272.578	9.17
272.793	9.25
273.008	9.03
273.223	8.43
273.438	9.14
273.653	9.72
273.867	8.54
274.082	7.63
274.297	7.39
274.512	6.1
274.726	4.89
274.941	6.3
275.156	6.85
275.371	7.09
275.585	7.25
275.8	7.99
276.015	7.28
276.229	7.69
276.444	7.87
276.659	8.14
276.873	9.7
277.088	8.27
277.302	6.99
277.517	7.12
277.732	6.12
277.946	6.39
278.161	6.19
278.375	7.51
278.59	7.57
278.804	8.28
279.019	6.78
279.233	5.82
279.448	6.71
279.662	7.33
279.877	6.39
280.091	6.86
280.306	5.09
280.52	6.33
280.735	5.19
280.949	4.04
281.163	2.87
281.378	4.13
281.592	4.89
281.806	7.27
282.021	6.85
282.235	6.97
282.449	6.17
282.664	7.24
282.878	5.35
283.092	5.34
283.307	6.93
283.521	6.32
283.735	4.84
283.949	3.33
284.164	2.39
284.378	2.09
284.592	1.82
284.806	1.57
285.02	2.27
285.234	1.69
285.449	2.09
285.663	1.38
285.877	2.85
286.091	3.99
286.305	4.89
286.519	4.03
286.733	4.76
286.947	4.77
287.161	4.48
287.375	3.24
287.589	4.53
287.803	4.24
288.017	4.05
288.231	3.63
288.445	2.64
288.659	2.25
288.873	2.73
289.087	2.17
289.301	3.66
289.515	5.81
289.729	5.76
289.943	5.34
290.157	5.24
290.371	6.61
290.584	7.26
290.798	7.2
291.012	8.19
291.226	8.75
291.44	9.53
291.654	8.89
291.867	8.73
292.081	9.69
292.295	9.66
292.509	10.51
292.722	10.02
292.936	9.49
293.15	10.23
293.364	9.56
293.577	8.48
293.791	8.12
294.005	7.86
294.218	7.71
294.432	7.83
294.645	8.01
294.859	8.14
295.073	7.64
295.286	7.38
295.5	7.03
295.713	7.01
295.927	7.65
296.14	8.09
296.354	8.09
296.568	7.57
296.781	7.71
296.994	8.45
297.208	8.02
297.421	8.44
297.635	8.94
297.848	8.86
298.062	9.48
298.275	9.3
298.489	9.68
298.702	9.55
298.915	10.26
299.129	9.26
299.342	8.06
299.555	8.08
299.769	7.29
299.982	6.64
300.195	7.04
300.409	6.61
300.622	6.9
300.835	6.67
301.048	7.55
301.262	9.17
301.475	10.81
301.688	10.32
301.901	10.6
302.115	10.45
302.328	10.48
302.541	9.72
302.754	10.77
302.967	11.14
303.18	8.82
303.393	7.61
303.607	6.82
303.82	4.59
304.033	6.86
304.246	6.21
304.459	7.69
304.672	7.33
304.885	7.95
305.098	6.5
305.311	6.99
305.524	10.09
305.737	10.49
305.95	10.35
306.163	11.9
306.376	10.55
306.589	10.71
306.802	10.47
307.015	10.82
307.228	10.94
307.44	12.56
307.653	11.38
307.866	9.91
308.079	9.53
308.292	8.27
308.505	9.39
308.718	9.18
308.93	9.42
309.143	7.54
309.356	7.64
309.569	6.94
309.781	5.8
309.994	6.72
310.207	8.24
310.42	9.17
310.632	9.09
310.845	8.24
311.058	7.72
311.27	7.12
311.483	9.02
311.696	9.82
311.908	9.44
312.121	9.24
312.333	10.25
312.546	8.91
312.759	9.59
312.971	9.05
313.184	10.17
313.396	11.75
313.609	11.56
313.821	10.03
314.034	6.89
314.246	6.33
314.459	6.08
314.671	4.17
314.884	4.87
315.096	3.97
315.309	5.08
315.521	4.11
315.733	3.06
315.946	3.43
316.158	4.32
316.371	7.68
316.583	9.71
316.795	8.79
317.008	8.94
317.22	9.39
317.432	9.82
317.644	10.47
317.857	10.18
318.069	8.72
318.281	9.81
318.494	9.3
318.706	8.21
318.918	7.93
319.13	10.95
319.342	11.06
319.555	11.16
319.767	10.37
319.979	8.18
320.191	8.18
320.403	8.21
320.615	6.72
320.827	8.31
321.039	9.23
321.252	9.53
321.464	8.1
321.676	7.46
321.888	6.41
322.1	7.09
322.312	8.43
322.524	8.79
322.736	10.85
322.948	12.35
323.16	10.77
323.372	10
323.584	9.81
323.796	8.03
324.007	8.21
324.219	8.37
324.431	6.97
324.643	7.14
324.855	7.48
325.067	7.77
325.279	6.53
325.491	7.24
325.702	6.65
325.914	6.9
326.126	8.88
326.338	10.92
326.55	10.27
326.761	10.45
326.973	10.69
327.185	10.92
327.396	10.27
327.608	10.13
327.82	10.13
328.032	10.46
328.243	10.57
328.455	9.9
328.666	7.81
328.878	8.74
329.09	8.64
329.301	8.46
329.513	7.88
329.725	7.26
329.936	8.52
330.148	8.11
330.359	9.39
330.571	10.01
330.782	9.64
330.994	8.75
331.205	8.04
331.417	9.05
331.628	9.33
331.84	8.9
332.051	10.21
332.262	9.43
332.474	8.29
332.685	7.8
332.897	7.89
333.108	8.78
333.319	8.81
333.531	8.78
333.742	7.77
333.953	7.8
334.165	10.07
334.376	8.11
334.587	8.19
334.799	8.36
335.01	7.74
335.221	6.32
335.432	5.72
335.644	5.94
335.855	5.73
336.066	6.07
336.277	5.71
336.488	3.84
336.7	5.61
336.911	5.54
337.122	7.65
337.333	7.69
337.544	8.51
337.755	8.94
337.966	9.98
338.177	10.28
338.388	10.15
338.599	9.54
338.811	9.28
339.022	8.84
339.233	8.85
339.444	7.95
339.655	8.93
339.866	7.58
340.076	7.67
340.287	7.65
340.498	8.53
340.709	9.96
340.92	9.65
341.131	9.1
341.342	9.28
341.553	10.9
341.764	9.59
341.975	8.92
342.185	9.11
342.396	7.84
342.607	7.34
342.818	6.89
343.029	7.72
343.239	7.66
343.45	8.73
343.661	8.82
343.872	6.78
344.082	8.45
344.293	8.53
344.504	9.07
344.714	8.2
344.925	8.82
345.136	9.84
345.346	7.89
345.557	8.18
345.768	8.58
345.978	7.59
346.189	8.25
346.399	7.8
346.61	7.14
346.821	8.35
347.031	10.96
347.242	9.96
347.452	8.73
347.663	8.68
347.873	8.46
348.084	7.48
348.294	8.25
348.504	7.66
348.715	7.23
348.925	8.24
349.136	7.72
349.346	5.57
349.557	5.7
349.767	6.4
349.977	7.32
350.188	7.37
350.398	7.42
350.608	8.2
350.819	8.48
351.029	9.22
351.239	8.15
351.449	9.57
351.66	9.42
351.87	9.98
352.08	9.83
352.29	8.69
352.501	9.67
352.711	11.12
352.921	10.44
353.131	10.31
353.341	9.43
353.552	9.71
353.762	7.46
353.972	9.27
354.182	8.8
354.392	8.29
354.602	8.11
354.812	8.06
355.022	7.92
355.232	8.92
355.442	9.79
355.652	10.12
355.862	10.76
356.072	10.87
356.282	9.59
356.492	10.08
356.702	9.94
356.912	10.64
357.122	9.95
357.332	8.23
357.542	7.29
357.752	6.74
357.962	7.4
358.171	7.5
358.381	8.03
358.591	8.84
358.801	8.87
359.011	9.06
359.221	9.36
359.43	9.36
359.64	9.88
359.85	9.65
360.06	8.93
360.269	8.18
360.479	7.57
360.689	6.65
360.899	6.07
361.108	5.38
361.318	5.92
361.528	5.75
361.737	5.93
361.947	6.5
362.156	6.26
362.366	7.07
362.576	7.34
362.785	7.76
362.995	8.22
363.204	8.56
363.414	9.06
363.623	8.71
363.833	8.33
364.042	8.1
364.252	7.53
364.461	7.9
364.671	7.97
364.88	7.67
365.09	7.33
365.299	8.31
365.509	8.04
365.718	8.74
365.927	8.66
366.137	9.05
366.346	9.3
366.555	9.83
366.765	9.93
366.974	8.91
367.183	8.21
367.393	8.33
367.602	7.11
367.811	7.32
368.021	6.19
368.23	6.66
368.439	6.13
368.648	6.51
368.857	6.47
369.067	6.01
369.276	6.09
369.485	6.86
369.694	6.8
369.903	7.38
370.112	6.79
370.321	6.25
370.531	5.59
370.74	5.71
370.949	5.74
371.158	5.7
371.367	6.23
371.576	6.96
371.785	7.09
371.994	6.16
372.203	5.69
372.412	6.54
372.621	7.51
372.83	8.21
373.039	8.26
373.248	7.74
373.457	6.87
373.666	6.47
373.874	6.15
374.083	5.72
374.292	7.22
374.501	7.11
374.71	6.53
374.919	5.73
375.128	4.96
375.336	5.22
375.545	5.32
375.754	5.72
375.963	6.1
376.171	5.17
376.38	4.93
376.589	4.18
376.798	3.84
377.006	3.94
377.215	4.39
377.424	4.57
377.632	4.01
377.841	3.98
378.05	4.56
378.258	4.11
378.467	5.17
378.675	5.53
378.884	5.16
379.093	5.37
379.301	4.71
379.51	4.1
379.718	3.72
379.927	3.46
380.135	3.48
380.344	2.78
380.552	3.12
380.761	3.2
380.969	3.37
381.177	3.74
381.386	3.76
381.594	4.36
381.803	5.2
382.011	5.75
382.219	6.27
382.428	6.28
382.636	6.22
382.845	5.83
383.053	4.99
383.261	4.34
383.469	4.52
383.678	4.81
383.886	4.55
384.094	3.84
384.302	3.95
384.511	3.94
384.719	4.01
384.927	3.82
385.135	3.71
385.343	3.83
385.552	4.15
385.76	3.89
385.968	3.58
386.176	3.4
386.384	3.49
386.592	2.77
386.8	2.82
387.008	2.34
387.216	2.56
387.424	3.04
387.633	3.39
387.841	3.32
388.049	3.32
388.257	3.28
388.465	3.08
388.672	3.38
388.88	3.64
389.088	3.43
389.296	3.54
389.504	3.41
389.712	3.04
389.92	2.78
390.128	2.78
390.336	2.63
390.544	2.95
390.751	3.72
390.959	3.45
391.167	3.74
391.375	4.1
391.583	4.33
391.79	4.29
391.998	4.29
392.206	4.39
392.414	4.07
392.621	4.48
392.829	4.55
393.037	4.32
393.244	4.46
393.452	4.26
393.66	3.76
393.867	3.48
394.075	3.49
394.283	3.65
394.49	3.62
394.698	4.16
394.905	3.97
395.113	3.65
395.32	3.16
395.528	2.79
395.735	2.74
395.943	3.47
396.15	3.89
396.358	3.93
396.565	3.67
396.773	3.5
396.98	3.28
397.188	3.22
397.395	3.44
397.602	3.69
397.81	3.82
398.017	3.79
398.225	3.28
398.432	3
398.639	2.91
398.847	2.73
399.054	3.03
399.261	3.29
399.468	3.17
399.676	2.69
399.883	2.91
400.09	3.15
400.297	3.16
400.505	2.97
400.712	3.05
400.919	2.91
401.126	3.14
401.333	2.97
401.54	2.29
401.748	2.35
401.955	2.5
402.162	2.54
402.369	2.66
402.576	2.53
402.783	2.76
402.99	2.45
403.197	2.9
403.404	2.79
403.611	2.81
403.818	3.21
404.025	3.16
404.232	3.18
404.439	3
404.646	2.73
404.853	2.54
405.06	2.48
405.267	2.54
405.474	2.41
405.681	2.47
405.887	2.6
406.094	2.58
406.301	2.6
406.508	2.67
406.715	2.7
406.922	2.63
407.128	2.71
407.335	2.74
407.542	2.96
407.749	2.79
407.955	2.76
408.162	2.38
408.369	2.15
408.575	1.96
408.782	2.03
408.989	2.08
409.195	2.11
409.402	2.15
409.609	2.04
409.815	1.62
410.022	1.72
410.228	1.86
410.435	1.79
410.642	1.98
410.848	2.12
411.055	2.22
411.261	2.41
411.468	2.42
411.674	2.84
411.881	3.02
412.087	3.31
412.294	3.3
412.5	3.24
412.706	3.5
412.913	3.53
413.119	3.52
413.326	3.24
413.532	2.94
413.738	3.01
413.945	2.62
414.151	2.61
414.357	2.55
414.564	2.34
414.77	2.6
414.976	2.68
415.182	2.31
415.389	2.43
415.595	2.57
415.801	2.78
416.007	2.84
416.214	3.16
416.42	3.33
416.626	3.34
416.832	3.45
417.038	3.21
417.244	2.87
417.45	2.82
417.657	2.76
417.863	2.81
418.069	2.8
418.275	2.84
418.481	2.57
418.687	2.31
418.893	2.22
419.099	2.28
419.305	2.38
419.511	2.52
419.717	2.68
419.923	2.59
420.129	2.53
420.335	2.42
420.541	2.23
420.746	2.29
420.952	2.3
421.158	2.4
421.364	2.24
421.57	2.14
421.776	2.24
421.982	2.32
422.187	2.28
422.393	2.27
422.599	2.32
422.805	2.39
423.01	2.3
423.216	2.35
423.422	2.33
423.628	2.41
423.833	2.5
424.039	2.3
424.245	2.26
424.45	2.35
424.656	2.37
424.862	2.3
425.067	2.45
425.273	2.57
425.478	2.51
425.684	2.61
425.889	2.6
426.095	2.53
426.301	2.61
426.506	2.6
426.712	2.64
426.917	2.56
427.123	2.52
427.328	2.26
427.533	2.19
427.739	2.26
427.944	2.02
428.15	2.05
428.355	1.87
428.561	2.01
428.766	1.96
428.971	1.95
429.177	1.8
429.382	1.85
429.587	2.04
429.793	1.78
429.998	1.69
430.203	1.65
430.408	1.58
430.614	1.89
430.819	2.06
431.024	2.08
431.229	1.94
431.434	2
431.64	2.08
431.845	1.98
432.05	2.29
432.255	2.28
432.46	2.24
432.665	2.28
432.87	2.17
433.076	2.08
433.281	2.07
433.486	2.18
433.691	2.39
433.896	2.32
434.101	2.42
434.306	2.55
434.511	2.65
434.716	2.9
434.921	2.97
435.126	3.17
435.331	3.07
435.535	3.17
435.74	3.1
435.945	3.01
436.15	3.17
436.355	2.94
436.56	2.7
436.765	2.65
436.97	2.65
437.174	2.63
437.379	2.45
437.584	2.4
437.789	2.37
437.993	2.51
438.198	2.33
438.403	2.08
438.608	2.21
438.812	2.41
439.017	2.31
439.222	2.22
439.426	2.19
439.631	2.22
439.836	2.18
440.04	2.11
440.245	2.11
440.45	2.24
440.654	2.36
440.859	2.34
441.063	2.23
441.268	2.28
441.472	2.3
441.677	2.35
441.881	2.32
442.086	2.57
442.29	2.63
442.495	2.59
442.699	2.53
442.904	2.54
443.108	2.63
443.312	2.61
443.517	2.54
443.721	2.41
443.925	2.48
444.13	2.51
444.334	2.2
444.538	2.06
444.743	2.07
444.947	2.32
445.151	2.22
445.356	2.15
445.56	2.1
445.764	2.31
445.968	2.46
446.173	2.33
446.377	2.21
446.581	2.42
446.785	2.47
446.989	2.28
447.193	2.02
447.398	2.03
447.602	2.03
447.806	2.09
448.01	2.04
448.214	1.95
448.418	1.99
448.622	2.09
448.826	1.9
449.03	1.83
449.234	2.03
449.438	2.19
449.642	2
449.846	2.07
450.05	2.04
450.254	1.9
450.458	1.94
450.662	1.88
450.866	1.9
451.069	2.02
451.273	2.15
451.477	2.03
451.681	2.05
451.885	2.15
452.089	1.99
452.292	1.87
452.496	1.72
452.7	1.64
452.904	1.82
453.107	1.65
453.311	1.63
453.515	1.67
453.719	1.66
453.922	1.71
454.126	1.82
454.33	1.98
454.533	2.22
454.737	2.52
454.94	2.54
455.144	2.33
455.348	2.32
455.551	2.37
455.755	2.19
455.958	2.32
456.162	2.03
456.365	1.9
456.569	1.68
456.772	1.53
456.976	1.52
457.179	1.62
457.383	1.66
457.586	1.91
457.79	1.84
457.993	1.94
458.196	2.05
458.4	2.27
458.603	2.31
458.807	2.3
459.01	2.28
459.213	2.22
459.417	2.19
459.62	2.25
459.823	2.1
460.026	2.17
460.23	2.22
460.433	2.19
460.636	2.1
460.839	2.04
461.042	2.02
461.246	1.99
461.449	1.95
461.652	1.78
461.855	1.75
462.058	1.7
462.261	1.67
462.464	1.44
462.668	1.2
462.871	1.33
463.074	1.61
463.277	1.6
463.48	1.86
463.683	1.91
463.886	2.11
464.089	1.9
464.292	1.92
464.495	1.88
464.698	2.04
464.901	2.27
465.104	2.21
465.306	2.1
465.509	2.42
465.712	2.34
465.915	2.32
466.118	2.14
466.321	2.47
466.524	2.65
466.726	2.58
466.929	2.74
467.132	2.71
467.335	2.69
467.538	2.67
467.74	2.35
467.943	2.32
468.146	2.47
468.348	2.64
468.551	2.39
468.754	2.34
468.956	2.35
469.159	2.11
469.362	2
469.564	2
469.767	2.07
469.969	2.34
470.172	2.25
470.375	2.31
470.577	2.23
470.78	2.37
470.982	2.39
471.185	2.49
471.387	2.58
471.59	2.48
471.792	2.41
471.995	2.45
472.197	2.43
472.399	2.55
472.602	2.29
472.804	2.48
473.007	2.36
473.209	2.43
473.411	2.29
473.614	2.25
473.816	2.27
474.018	2.13
474.22	2.05
474.423	1.93
474.625	1.77
474.827	1.87
475.03	1.67
475.232	1.69
475.434	1.47
475.636	1.59
475.838	1.78
476.04	1.89
476.243	2.12
476.445	1.99
476.647	1.86
476.849	1.92
477.051	1.88
477.253	1.77
477.455	1.69
477.657	1.83
477.859	1.8
478.061	1.54
478.263	1.58
478.465	1.35
478.667	1.41
478.869	1.58
479.071	1.62
479.273	1.6
479.475	1.89
479.677	1.92
479.879	1.85
480.081	1.95
480.283	2.08
480.485	2.17
480.686	2.37
480.888	2.53
481.09	2.35
481.292	2.31
481.494	2.35
481.695	2.36
481.897	2.31
482.099	2.35
482.301	2.26
482.502	2.16
482.704	2.11
482.906	2.12
483.107	2.07
483.309	2.1
483.511	2.06
483.712	2.09
483.914	2.07
484.115	2.14
484.317	2.12
484.519	2.1
484.72	2.17
484.922	2.13
485.123	2.13
485.325	2.13
485.526	2.19
485.728	2.22
485.929	2.2
486.131	2.11
486.332	2.06
486.534	2.16
486.735	2.17
486.936	2.15
487.138	2.21
487.339	2.3
487.541	2.29
487.742	2.27
487.943	2.25
488.144	2.2
488.346	2.26
488.547	2.22
488.748	2.1
488.95	2.14
489.151	2.18
489.352	2.2
489.553	2
489.755	1.95
489.956	2.06
490.157	2.07
490.358	2.05
490.559	2.03
490.76	2.1
490.961	2.12
491.163	2.09
491.364	2.08
491.565	2.08
491.766	2.13
491.967	2.16
492.168	2.03
492.369	2.03
492.57	2.08
492.771	2.07
492.972	2.01
493.173	1.96
493.374	1.97
493.575	1.96
493.776	1.85
493.976	1.85
494.177	1.8
494.378	1.74
494.579	1.73
494.78	1.69
494.981	1.89
495.182	2.03
495.382	2.15
495.583	2.07
495.784	1.85
495.985	1.87
496.185	1.91
496.386	2.06
496.587	2.14
496.788	2.15
496.988	2.2
497.189	2
497.39	1.94
497.59	1.93
497.791	1.85
497.992	2.07
498.192	2.2
498.393	2.11
498.593	1.97
498.794	1.97
498.994	1.9
499.195	1.85
499.395	1.87
499.596	2
499.796	1.93
499.997	2.17
500.197	2.11
500.398	2.18
500.598	2.07
500.799	2.09
500.999	2.17
501.199	2.35
501.4	2.32
501.6	2.34
501.801	2.12
502.001	2.42
502.201	2.29
502.402	2.22
502.602	1.95
502.802	2.11
503.002	2.14
503.203	2.19
503.403	2.09
503.603	2.07
503.803	2.07
504.003	2.39
504.204	2.09
504.404	2.14
504.604	2.08
504.804	2.14
505.004	2.19
505.204	2.27
505.404	2.25
505.604	2.33
505.804	2.62
506.005	2.63
506.205	2.37
506.405	2.44
506.605	2.39
506.805	2.72
507.005	2.79
507.204	2.74
507.404	2.71
507.604	2.6
507.804	2.42
508.004	2.35
508.204	2.39
508.404	2.39
508.604	2.28
508.804	2.3
509.003	2.1
509.203	2.11
509.403	2.12
509.603	2.09
509.803	2.23
510.002	2.35
510.202	2.27
510.402	2.14
510.602	2.23
510.801	2.51
511.001	2.53
511.201	2.56
511.4	2.43
511.6	2.34
511.8	2.5
511.999	2.47
512.199	2.47
512.398	2.54
512.598	2.65
512.797	2.57
512.997	2.37
513.197	2.36
513.396	2.49
513.596	2.66
513.795	2.76
513.994	2.63
514.194	2.62
514.393	2.62
514.593	2.55
514.792	2.62
514.992	2.7
515.191	2.73
515.39	2.74
515.59	2.64
515.789	2.55
515.988	2.59
516.188	2.48
516.387	2.55
516.586	2.66
516.786	2.67
516.985	2.65
517.184	2.7
517.383	2.72
517.582	2.73
517.782	2.66
517.981	2.83
518.18	2.77
518.379	2.84
518.578	2.76
518.777	2.62
518.976	2.58
519.176	2.51
519.375	2.42
519.574	2.32
519.773	2.31
519.972	2.43
520.171	2.28
520.37	2.34
520.569	2.32
520.768	2.38
520.967	2.54
521.166	2.47
521.365	2.56
521.564	2.59
521.762	2.72
521.961	2.68
522.16	2.46
522.359	2.54
522.558	2.48
522.757	2.57
522.956	2.48
523.154	2.71
523.353	2.96
523.552	2.84
523.751	2.76
523.949	2.66
524.148	2.67
524.347	2.76
524.546	2.7
524.744	2.66
524.943	2.55
525.142	2.65
525.34	2.4
525.539	2.33
525.737	2.48
525.936	2.62
526.135	2.7
526.333	2.8
526.532	2.82
526.73	2.85
526.929	2.93
527.127	2.99
527.326	2.95
527.524	3
527.723	2.96
527.921	2.96
528.12	2.91
528.318	2.9
528.516	2.85
528.715	2.86
528.913	2.87
529.112	2.85
529.31	2.86
529.508	2.84
529.707	2.75
529.905	2.78
530.103	2.71
530.301	2.74
530.5	2.77
530.698	2.85
530.896	2.89
531.094	2.88
531.293	2.87
531.491	2.88
531.689	2.94
531.887	3.1
532.085	3.1
532.283	3.13
532.481	3.1
532.68	3.13
532.878	3.14
533.076	3.1
533.274	3.15
533.472	3.25
533.67	3.19
533.868	3.17
534.066	3.16
534.264	3.19
534.462	3.16
534.66	3.22
534.858	3.25
535.056	3.21
535.253	3.16
535.451	3.14
535.649	3
535.847	2.99
536.045	3.05
536.243	3.16
536.441	3.15
536.638	3.26
536.836	3.24
537.034	3.27
537.232	3.29
537.43	3.43
537.627	3.42
537.825	3.56
538.023	3.63
538.22	3.73
538.418	3.7
538.616	3.62
538.813	3.66
539.011	3.69
539.209	3.65
539.406	3.65
539.604	3.61
539.801	3.65
539.999	3.76
540.196	3.81
540.394	3.74
540.591	3.73
540.789	3.74
540.986	3.69
541.184	3.72
541.381	3.85
541.579	3.83
541.776	3.84
541.974	3.79
542.171	3.71
542.368	3.74
542.566	3.73
542.763	3.74
542.96	3.84
543.158	3.88
543.355	3.9
543.552	3.79
543.75	3.83
543.947	3.93
544.144	4.01
544.341	4.1
544.539	4.1
544.736	4.23
544.933	4.19
545.13	4.17
545.327	4.09
545.524	4.06
545.722	4.11
545.919	4.3
546.116	4.31
546.313	4.37
546.51	4.36
546.707	4.28
546.904	4.18
547.101	4.28
547.298	4.44
547.495	4.65
547.692	4.75
547.889	4.81
548.086	4.57
548.283	4.61
548.48	4.6
548.677	4.49
548.874	4.72
549.07	4.66
549.267	4.79
549.464	4.58
549.661	4.53
549.858	4.55
550.055	4.51
550.251	4.82
550.448	4.76
550.645	4.8
550.842	4.96
551.038	5.08
551.235	5.22
551.432	5.38
551.628	5.59
551.825	5.55
552.022	5.44
552.218	5.47
552.415	5.37
552.612	5.33
552.808	5.4
553.005	5.44
553.201	5.29
553.398	5.17
553.594	5.02
553.791	5.03
553.987	5.2
554.184	5.34
554.38	5.45
554.577	5.46
554.773	5.52
554.97	5.49
555.166	5.53
555.362	5.66
555.559	5.91
555.755	5.91
555.952	5.81
556.148	5.77
556.344	5.74
556.541	6.09
556.737	6.31
556.933	6.44
557.129	6.68
557.326	6.75
557.522	6.8
557.718	6.9
557.914	7.08
558.11	7.25
558.307	7.11
558.503	7.2
558.699	6.86
558.895	6.78
559.091	6.92
559.287	6.99
559.483	7.27
559.679	7.13
559.876	7.24
560.072	7.15
560.268	7.14
560.464	7.59
560.66	7.63
560.856	7.54
561.052	7.59
561.247	7.74
561.443	7.59
561.639	7.51
561.835	7.74
562.031	7.74
562.227	7.82
562.423	7.91
562.619	7.79
562.815	7.81
563.01	7.97
563.206	7.96
563.402	7.74
563.598	8.09
563.793	8.16
563.989	8.16
564.185	8.26
564.381	8.34
564.576	8.29
564.772	8.19
564.968	8.27
565.163	8.36
565.359	8.28
565.555	8.41
565.75	8.26
565.946	8.35
566.141	8.4
566.337	8.57
566.532	8.86
566.728	8.9
566.923	9.03
567.119	8.96
567.314	9.03
567.51	9.15
567.705	9
567.901	9.08
568.096	8.95
568.292	9.09
568.487	8.96
568.682	8.86
568.878	8.85
569.073	8.96
569.268	9.1
569.464	9.08
569.659	9.2
569.854	9.37
570.05	9.28
570.245	9.41
570.44	9.31
570.635	9.25
570.831	9.31
571.026	9.49
571.221	9.52
571.416	9.84
571.611	10.09
571.806	10.07
572.002	10.09
572.197	10.13
572.392	10.22
572.587	10.18
572.782	10.23
572.977	10.09
573.172	10.05
573.367	10.25
573.562	10.13
573.757	10.1
573.952	10.1
574.147	10.15
574.342	10.19
574.537	10.04
574.732	10.11
574.927	10.2
575.121	10.43
575.316	10.47
575.511	10.47
575.706	10.37
575.901	10.28
576.096	10.46
576.29	10.44
576.485	10.64
576.68	10.67
576.875	10.73
577.069	10.74
577.264	10.5
577.459	10.64
577.654	10.37
577.848	10.3
578.043	10.24
578.238	10.22
578.432	10.46
578.627	10.62
578.821	10.8
579.016	10.86
579.21	10.86
579.405	10.92
579.6	10.99
579.794	11.01
579.989	11.25
580.183	11.29
580.378	11.45
580.572	11.31
580.766	11.08
580.961	11.24
581.155	11.31
581.35	11.37
581.544	11.36
581.738	11.55
581.933	11.74
582.127	11.75
582.321	11.83
582.516	11.83
582.71	11.87
582.904	12.07
583.099	12.25
583.293	12.18
583.487	12.32
583.681	12.38
583.875	12.3
584.07	12.29
584.264	12.2
584.458	12.26
584.652	12.12
584.846	12.31
585.04	12.1
585.234	11.63
585.428	11.71
585.623	11.77
585.817	12.06
586.011	11.78
586.205	11.87
586.399	12.14
586.593	12.22
586.787	12.3
586.981	12.07
587.174	12.16
587.368	12.46
587.562	12.64
587.756	12.59
587.95	12.56
588.144	12.85
588.338	12.91
588.532	12.72
588.725	12.89
588.919	12.64
589.113	12.55
589.307	12.56
589.501	12.57
589.694	12.53
589.888	12.4
590.082	12.18
590.275	12.18
590.469	12.03
590.663	12.34
590.856	12.07
591.05	12.07
591.244	12.14
591.437	12.26
591.631	12.11
591.824	11.9
592.018	12.14
592.212	12.2
592.405	11.93
592.599	11.94
592.792	11.8
592.986	11.67
593.179	12
593.372	12.05
593.566	12.07
593.759	12.06
593.953	12.26
594.146	12.01
594.339	12.25
594.533	12.4
594.726	12.27
594.92	12.12
595.113	12.22
595.306	12.07
595.499	12.2
595.693	12.3
595.886	12.63
596.079	12.62
596.272	12.83
596.466	12.65
596.659	12.65
596.852	12.8
597.045	13.02
597.238	13.08
597.431	13.42
597.624	13.4
597.818	13.49
598.011	13.34
598.204	13.43
598.397	13.47
598.59	13.44
598.783	13.61
598.976	13.45
599.169	13.19
599.362	13.19
599.555	12.94
599.748	13.07
599.941	12.98
600.134	12.85
600.326	12.91
600.519	12.86
600.712	13.13
600.905	13.05
601.098	13.64
601.291	13.77
601.483	13.81
601.676	14.03
601.869	14.09
602.062	13.92
602.255	13.98
602.447	14.09
602.64	14.23
602.833	14.24
603.025	14.24
603.218	13.94
603.411	13.76
603.603	14.04
603.796	14.04
603.989	14.02
604.181	14.07
604.374	14
604.566	13.71
604.759	13.63
604.951	13.49
605.144	13.53
605.336	13.55
605.529	13.76
605.721	13.53
605.914	13.37
606.106	13.21
606.299	13.2
606.491	13.29
606.683	13.49
606.876	13.56
607.068	13.72
607.26	13.72
607.453	13.6
607.645	13.73
607.837	13.71
608.03	13.9
608.222	13.97
608.414	14.01
608.606	14.11
608.799	14.25
608.991	14.3
609.183	14.19
609.375	14.06
609.567	14.22
609.759	14.11
609.952	14.25
610.144	14.26
610.336	14.23
610.528	14.2
610.72	14.08
610.912	14.11
611.104	13.98
611.296	14.21
611.488	14.33
611.68	14.31
611.872	14.33
612.064	14.11
612.256	14.2
612.448	14.38
612.64	14.48
612.832	14.78
613.023	14.46
613.215	14.52
613.407	14.27
613.599	14.4
613.791	14.57
613.983	14.57
614.174	14.84
614.366	14.47
614.558	14.16
614.75	13.9
614.941	13.74
615.133	13.79
615.325	13.85
615.516	13.84
615.708	13.56
615.9	13.54
616.091	13.63
616.283	13.48
616.475	13.72
616.666	13.72
616.858	14
617.049	13.99
617.241	14.03
617.432	13.89
617.624	14.1
617.815	14.1
618.007	14.14
618.198	13.96
618.39	14.14
618.581	13.93
618.773	14.11
618.964	13.59
619.155	13.68
619.347	13.63
619.538	13.69
619.729	13.38
619.921	13.62
620.112	13.34
620.303	13.49
620.494	13.14
620.686	13.42
620.877	13.49
621.068	13.74
621.259	13.55
621.451	13.88
621.642	13.99
621.833	14.1
622.024	14.15
622.215	14.21
622.406	14.32
622.597	14.69
622.788	14.46
622.98	14.2
623.171	14.31
623.362	14.23
623.553	13.83
623.744	13.72
623.935	13.94
624.126	13.85
624.317	13.86
624.508	13.6
624.698	13.33
624.889	13.42
625.08	13.53
625.271	13.47
625.462	13.72
625.653	13.97
625.844	13.79
626.034	13.6
626.225	13.49
626.416	13.7
626.607	13.89
626.798	13.9
626.988	13.69
627.179	14
627.37	14.02
627.56	13.93
627.751	13.78
627.942	13.89
628.132	13.87
628.323	14.02
628.514	13.87
628.704	13.85
628.895	14.05
629.085	14.47
629.276	14.18
629.466	14.41
629.657	14.29
629.847	14.54
630.038	14.63
630.228	14.71
630.419	14.82
630.609	14.74
630.8	14.65
630.99	14.65
631.181	14.31
631.371	14.48
631.561	14.33
631.752	14.62
631.942	14.24
632.132	14.32
632.323	14.18
632.513	13.81
632.703	13.91
632.893	13.97
633.084	14.05
633.274	14.37
633.464	14.11
633.654	14.08
633.844	13.82
634.034	13.89
634.225	13.86
634.415	14.22
634.605	14.49
634.795	14.28
634.985	14.24
635.175	14.15
635.365	13.93
635.555	13.82
635.745	13.93
635.935	14.04
636.125	14.2
636.315	14.16
636.505	14.19
636.695	14.34
636.885	14.51
637.075	14.44
637.265	14.14
637.455	13.99
637.644	14.27
637.834	14.08
638.024	14.21
638.214	13.89
638.404	13.7
638.593	13.44
638.783	13.02
638.973	13.31
639.163	13.26
639.352	13.32
639.542	13.56
639.732	13.68
639.921	13.99
640.111	13.7
640.301	14.39
640.49	14.54
640.68	14.28
640.87	14.36
641.059	14.3
641.249	14
641.438	14.2
641.628	14.18
641.817	13.93
642.007	13.92
642.196	13.87
642.386	13.22
642.575	13.5
642.764	13.68
642.954	13.74
643.143	13.31
643.333	13.67
643.522	13.45
643.711	13.47
643.901	13.79
644.09	13.83
644.279	13.85
644.469	14
644.658	13.76
644.847	13.6
645.036	13.22
645.226	13.49
645.415	13.41
645.604	13.74
645.793	13.55
645.982	13.47
646.171	13.47
646.361	13.92
646.55	13.93
646.739	14
646.928	14.3
647.117	15.02
647.306	14.79
647.495	14.59
647.684	14.68
647.873	14.51
648.062	14.55
648.251	14.45
648.44	13.97
648.629	14.47
648.818	14.26
649.007	14.43
649.196	14.25
649.384	14.39
649.573	14.94
649.762	14.91
649.951	15.22
650.14	15.45
650.328	15.64
650.517	15.94
650.706	15.57
650.895	15.46
651.083	14.79
651.272	15
651.461	15.21
651.65	15.03
651.838	14.98
652.027	15
652.216	14.76
652.404	14.46
652.593	14.45
652.781	14.78
652.97	15.1
653.158	15.54
653.347	15.18
653.535	15.25
653.724	15.58
653.912	14.86
654.101	14.78
654.289	14.65
654.478	14.77
654.666	14.73
654.855	14.51
655.043	14.29
655.231	14.24
655.42	14.28
655.608	13.57
655.796	13.34
655.985	14.01
656.173	14.26
656.361	14.45
656.55	14.32
656.738	14.09
656.926	13.72
657.114	13.95
657.302	13.84
657.491	13.81
657.679	14.35
657.867	14.41
658.055	14.92
658.243	14.48
658.431	14.2
658.619	14.47
658.807	14.5
658.996	14.48
659.184	14.46
659.372	14.82
659.56	14.85
659.748	14.85
659.936	14.68
660.124	14.07
660.311	14.45
660.499	14.52
660.687	14.25
660.875	14.37
661.063	14.48
661.251	14.48
661.439	14.12
661.627	14.2
661.814	14.29
662.002	14.31
662.19	14.83
662.378	14.69
662.565	15.02
662.753	15.06
662.941	15.26
663.129	15.69
663.316	15.7
663.504	16.14
663.692	16.16
663.879	15.87
664.067	15.92
664.254	15.36
664.442	15.38
664.63	15.46
664.817	15.23
665.005	15.05
665.192	14.96
665.38	15.31
665.567	15.52
665.755	15.19
665.942	15.47
666.13	15.92
666.317	15.8
666.504	15.96
666.692	15.13
666.879	15.67
667.067	15.46
667.254	15.2
667.441	14.76
667.629	14.19
667.816	14.1
668.003	14.08
668.19	14.15
668.378	14.26
668.565	14.06
668.752	14.57
668.939	14.04
669.127	13.9
669.314	14.04
669.501	14.05
669.688	13.99
669.875	14.52
670.062	14.29
670.249	13.93
670.436	14.43
670.623	14.3
670.81	14.36
670.997	14.66
671.184	14.61
671.371	14.68
671.558	14.77
671.745	14.82
671.932	14.71
672.119	15.08
672.306	15.24
672.493	15.06
672.68	15.24
672.867	15.63
673.054	15.55
673.24	15.51
673.427	15.87
673.614	15.65
673.801	16.23
673.988	16.58
674.174	16.37
674.361	16.14
674.548	15.75
674.734	15.71
674.921	15.35
675.108	15.56
675.294	16.26
675.481	15.63
675.668	15.75
675.854	15.45
676.041	14.69
676.227	14.79
676.414	15.38
676.601	15.67
676.787	15.79
676.974	16.19
677.16	16.55
677.347	16.3
677.533	16.11
677.719	16.49
677.906	16.06
678.092	16.14
678.279	16.63
678.465	16.3
678.651	16.19
678.838	16.3
679.024	15.93
679.21	15.39
679.397	15.62
679.583	15.77
679.769	15.66
679.955	16.39
680.142	16.39
680.328	15.77
680.514	15.48
680.7	15.71
680.886	15.42
681.073	15.3
681.259	15.44
681.445	14.89
681.631	14.51
681.817	14.22
682.003	13.83
682.189	14.14
682.375	14.3
682.561	14.34
682.747	14.15
682.933	14.43
683.119	14.62
683.305	15.17
683.491	15.91
683.677	16.23
683.863	16.29
684.049	16.7
684.235	16.35
684.42	16.19
684.606	16.58
684.792	16.78
684.978	16.56
685.164	16.88
685.349	16.43
685.535	16.19
685.721	16.82
685.907	17.34
686.092	16.47
686.278	17.23
686.464	17.18
686.649	17.04
686.835	16.85
687.021	16.81
687.206	16.27
687.392	16.31
687.577	16.48
687.763	15.89
687.948	15.43
688.134	15.74
688.319	14.99
688.505	14.96
688.69	14.66
688.876	14.19
689.061	14.64
689.247	14.36
689.432	14.39
689.618	14.47
689.803	14.88
689.988	14.87
690.174	15.06
690.359	15.43
690.544	15.86
690.73	15.8
690.915	16.21
691.1	16.08
691.285	16.65
691.471	16.74
691.656	16.8
691.841	16.72
692.026	16.68
692.211	16.7
692.396	16.16
692.582	15.88
692.767	15.92
692.952	15.97
693.137	15.51
693.322	15.05
693.507	14.45
693.692	14.09
693.877	13.84
694.062	13.91
694.247	13.84
694.432	14.24
694.617	14.23
694.802	14.89
694.987	14.73
695.172	15.32
695.357	15.86
695.541	16.36
695.726	16.25
695.911	16.2
696.096	16.22
696.281	16.49
696.466	16.76
696.65	16.21
696.835	16.2
697.02	16
697.204	15.44
697.389	15.27
697.574	15.18
697.759	15.39
697.943	15.68
698.128	15.63
698.312	15.35
698.497	15.32
698.682	15.73
698.866	15.36
699.051	15.67
699.235	15.96
699.42	15.96
699.604	15.78
699.789	15.76
699.973	15.67
700.158	15.71
700.342	15.7
700.527	15.81
700.711	15.95
700.895	16.37
701.08	16.42
701.264	16.54
701.448	16.4
701.633	16.97
701.817	16.69
702.001	16.42
702.186	16.72
702.37	16.77
702.554	17
702.738	16.88
702.923	16.23
703.107	16.42
703.291	16.13
703.475	16.43
703.659	16.78
703.843	16.68
704.027	16.95
704.212	17.01
704.396	16.75
704.58	15.97
704.764	16.42
704.948	17.11
705.132	17.21
705.316	17.41
705.5	17.61
705.684	16.99
705.868	16.79
706.052	16.75
706.235	15.92
706.419	16.35
706.603	16.15
706.787	15.45
706.971	15.31
707.155	15.01
707.339	15.07
707.522	14.45
707.706	14.16
707.89	15.04
708.074	15.25
708.257	16.36
708.441	16.5
708.625	16.54
708.808	16.2
708.992	15.58
709.176	15.68
709.359	15.16
709.543	15.84
709.727	15.77
709.91	15.35
710.094	14.97
710.277	14.64
710.461	14.78
710.644	15.42
710.828	15.97
711.011	16.73
711.195	16.35
711.378	17.37
711.562	16.12
711.745	16.01
711.928	15.89
712.112	16.87
712.295	16.47
712.478	16
712.662	16.06
712.845	17.16
713.028	17.27
713.212	17.6
713.395	16.79
713.578	18.08
713.761	18.53
713.945	18.43
714.128	17.78
714.311	18.1
714.494	18.74
714.677	19.35
714.86	18.49
715.043	18.42
715.227	18.09
715.41	18.17
715.593	17.86
715.776	17.92
715.959	18.34
716.142	18.04
716.325	17.49
716.508	17.17
716.691	15.97
716.874	15.65
717.057	15.3
717.239	15.68
717.422	15.45
717.605	15.95
717.788	15.83
717.971	16.05
718.154	16.42
718.337	17.12
718.519	17.11
718.702	16.24
718.885	16.41
719.068	16.48
719.25	16.76
719.433	17.04
719.616	16.83
719.798	17.09
719.981	16.94
720.164	17.36
720.346	17.16
720.529	17.52
720.712	18.78
720.894	18.51
721.077	17.73
721.259	17.94
721.442	18.29
721.624	17.55
721.807	17.25
721.989	16.31
722.172	14
722.354	13.37
722.537	12.93
722.719	13.02
722.901	13.48
723.084	13.65
723.266	12.64
723.448	11.96
723.631	11.83
723.813	10.22
723.995	10.5
724.178	11.17
724.36	12.32
724.542	11.78
724.724	11.25
724.907	10.53
725.089	11.63
725.271	11.49
725.453	11.19
725.635	11.41
725.817	13.49
725.999	13.55
726.181	13.91
726.364	13.03
726.546	13.81
726.728	13.8
726.91	13.94
727.092	12.62
727.274	12.07
727.456	12.07
727.638	12.86
727.819	12.57
728.001	12.07
728.183	12.64
728.365	13.21
728.547	13.24
728.729	13.05
728.911	12.27
729.093	14.12
729.274	14.28
729.456	14.85
729.638	14.49
729.82	14.72
730.001	14.87
730.183	14.77
730.365	14.09
730.546	13.62
730.728	14.47
730.91	15.16
731.091	13.05
731.273	13.6
731.455	12.8
731.636	12.73
731.818	13.06
731.999	13.78
732.181	13.96
732.362	14.37
732.544	14.43
732.725	13.13
732.907	13.6
733.088	14.2
733.27	14.22
733.451	15.12
733.633	15.22
733.814	14.81
733.995	15.09
734.177	15.22
734.358	14.63
734.539	13.73
734.721	14.88
734.902	14.63
735.083	15.08
735.264	15.63
735.446	15.85
735.627	15.56
735.808	14.85
735.989	13.75
736.17	13.31
736.351	13.05
736.533	13.59
736.714	13.22
736.895	13.2
737.076	13.26
737.257	13.51
737.438	12.22
737.619	12.65
737.8	12.3
737.981	12.46
738.162	12.65
738.343	14.16
738.524	15.61
738.705	16.1
738.886	16.01
739.067	16.12
739.247	15.42
739.428	15.64
739.609	15.89
739.79	16.2
739.971	17.53
740.151	17.45
740.332	17.02
740.513	16.36
740.694	16.5
740.874	17.16
741.055	17.69
741.236	17.91
741.417	18.33
741.597	18
741.778	18.59
741.958	18.14
742.139	17.23
742.32	16.74
742.5	17.65
742.681	17.22
742.861	17.56
743.042	16.54
743.222	16.52
743.403	17.21
743.583	16.96
743.764	15.97
743.944	15.78
744.124	17.4
744.305	18.68
744.485	16.98
744.666	16.58
744.846	16.3
745.026	17.42
745.207	16.52
745.387	15.65
745.567	16.29
745.747	17.01
745.928	18.41
746.108	19.06
746.288	18.42
746.468	19.13
746.648	18.99
746.829	17.17
747.009	17.24
747.189	17.81
747.369	17.31
747.549	17.49
747.729	16.11
747.909	14.63
748.089	12.65
748.269	11.27
748.449	10.11
748.629	10.81
748.809	12.31
748.989	10.84
749.169	11.44
749.349	12.41
749.529	11.88
749.709	14.32
749.889	15.57
750.068	17.42
750.248	18.23
750.428	19.09
750.608	17.57
750.788	17.06
750.967	18.1
751.147	16.87
751.327	17.43
751.507	17.5
751.686	16.34
751.866	14.88
752.046	13.25
752.225	13.79
752.405	12.88
752.585	12.85
752.764	12.56
752.944	12.01
753.123	14.26
753.303	14.03
753.482	13.32
753.662	13.68
753.841	13.3
754.021	15.29
754.2	14.84
754.38	16.06
754.559	18.23
754.739	19.38
754.918	19.75
755.097	18.01
755.277	18
755.456	17.47
755.635	16.3
755.815	17.61
755.994	16.44
756.173	15.45
756.352	14.07
756.532	12.01
756.711	11.99
756.89	12.18
757.069	13.21
757.248	13.62
757.427	15.39
757.607	16.94
757.786	14.98
757.965	14.62
758.144	15.4
758.323	16.52
758.502	18.63
758.681	17.91
758.86	17.47
759.039	16.69
759.218	16.03
759.397	14.97
759.576	14.47
759.755	15.35
759.934	16.36
760.113	17.22
760.291	16.83
760.47	15.66
760.649	16.73
760.828	15.41
761.007	15.05
761.186	14.78
761.364	16.29
761.543	16.94
761.722	17.25
761.901	16.54
762.079	16.3
762.258	16.88
762.437	18.01
762.615	17.72
762.794	19.24
762.972	19.41
763.151	18.44
763.33	17.86
763.508	17.15
763.687	16.73
763.865	16.69
764.044	17.29
764.222	16.71
764.401	15.61
764.579	15.4
764.758	16.02
764.936	16.59
765.114	19.16
765.293	18.12
765.471	18.16
765.65	19.01
765.828	19.01
766.006	17.03
766.184	17
766.363	17.64
766.541	15.91
766.719	15.24
766.898	14.69
767.076	13.87
767.254	15.17
767.432	15.77
767.61	15.51
767.788	16.13
767.967	18.87
768.145	17.74
768.323	16.45
768.501	18.37
768.679	17.27
768.857	17.05
769.035	15.61
769.213	15.66
769.391	14.55
769.569	14.2
769.747	14.28
769.925	11.63
770.103	13.27
770.281	15
770.459	15.53
770.636	14.62
770.814	14.36
770.992	14.78
771.17	14.95
771.348	16.19
771.525	15.26
771.703	14.54
771.881	15.22
772.059	14.57
772.236	13.84
772.414	14.28
772.592	16.69
772.769	16.27
772.947	13.42
773.125	10.85
773.302	9.94
773.48	10.76
773.657	12.41
773.835	14.45
774.013	14.62
774.19	14.88
774.368	14.29
774.545	12.36
774.723	14.07
774.9	16.9
775.077	21.63
775.255	23.14
775.432	23.06
775.61	20.75
775.787	19.25
775.964	19.65
776.142	18.9
776.319	19.07
776.496	19.48
776.674	19.39
776.851	19.18
777.028	15.29
777.205	15.63
777.382	15.29
777.56	15.98
777.737	15.42
777.914	15.95
778.091	16.74
778.268	14.25
778.445	14.41
778.622	13.65
778.8	11.17
778.977	13.42
779.154	10.78
779.331	10.85
779.508	11.07
779.685	11.25
779.862	13.88
780.038	14.73
780.215	17.54
780.392	17.98
780.569	18.43
780.746	21.2
780.923	21.99
781.1	21.53
781.277	21.3
781.453	21.73
781.63	20.97
781.807	20.09
781.984	20.06
782.16	17.4
782.337	15.28
782.514	14.87
782.691	12.64
782.867	12.99
783.044	15.71
783.221	16.4
783.397	18
783.574	19.82
783.75	16.74
783.927	13.09
784.103	12.02
784.28	14.09
784.456	15.83
784.633	19.72
784.809	15.88
784.986	14.73
785.162	13.45
785.339	9.76
785.515	11.54
785.692	10.93
785.868	12.92
786.044	17.02
786.221	15.38
786.397	12.21
786.573	9.97
786.749	12.09
786.926	10.33
787.102	11.44
787.278	12.68
787.454	11.52
787.631	13.35
787.807	15.1
787.983	15.14
788.159	15.55
788.335	17.49
788.511	19.13
788.687	18.7
788.863	20.11
789.039	19.5
789.216	16.74
789.392	16.93
789.568	16.76
789.744	17.67
789.919	16.68
790.095	17.7
790.271	16.98
790.447	14.27
790.623	15.31
790.799	16.54
790.975	17.53
791.151	18.18
791.327	18.61
791.502	19.23
791.678	17.69
791.854	17.61
792.03	18.95
792.205	18.03
792.381	19.7
792.557	19.95
792.733	18.81
792.908	21.31
793.084	23.66
793.259	22.81
793.435	23.97
793.611	24.03
793.786	23.74
793.962	23.66
794.137	25.93
794.313	24.94
794.488	24.66
794.664	24.14
794.839	21.95
795.015	21.78
795.19	20.91
795.366	19.65
795.541	20.53
795.716	20.12
795.892	16.77
796.067	13.93
796.242	15.89
796.418	18.03
796.593	18.93
796.768	19.25
796.944	18.53
797.119	19.05
797.294	16.86
797.469	15.7
797.644	16.12
797.82	15.52
797.995	16.07
798.17	12.93
798.345	6.37
798.52	7.93
798.695	8.14
798.87	9.81
799.045	8.52
799.22	11.19
799.395	13.53
799.57	15.29
799.745	15.44
799.92	16.33
800.095	18.76
800.27	24.9
800.445	23.35
800.62	24.19
800.795	25.8
800.97	29.14
801.145	28.32
801.319	28.2
801.494	25.08
801.669	29.21
801.844	27.94
802.018	27.64
802.193	25.34
802.368	27.33
802.543	27.98
802.717	25.18
802.892	23.62
803.067	22.42
803.241	19.42
803.416	20.55
803.59	19.74
803.765	20.97
803.94	22.67
804.114	25.44
804.289	25.64
804.463	22.09
804.638	21.22
804.812	22.83
804.986	25.15
805.161	24.96
805.335	22.43
805.51	21.51
805.684	22.5
805.858	20.2
806.033	16.94
806.207	14.45
806.381	15.38
806.556	15.84
806.73	8.98
806.904	7.06
807.078	8.64
807.253	12.95
807.427	13.78
807.601	13.07
807.775	8.11
807.949	9.84
808.123	8.64
808.298	9.96
808.472	12.25
808.646	16.11
808.82	19.25
808.994	18.76
809.168	17.82
809.342	18.88
809.516	21.44
809.69	26
809.864	25.06
810.038	26.91
810.212	23.13
810.385	23.28
810.559	26.42
810.733	23.61
810.907	21.25
811.081	18.5
811.255	17.42
811.428	15.52
811.602	14.91
811.776	12.3
811.95	7.75
812.123	11.15
812.297	8.79
812.471	7.9
812.644	4.64
812.818	5.06
812.992	7.89
813.165	6.68
813.339	6.9
813.512	6.51
813.686	12.88
813.86	15.98
814.033	17.37
814.207	18.09
814.38	14.31
814.554	22.23
814.727	24.4
814.9	25.35
815.074	23.56
815.247	18.51
815.421	16.12
815.594	10.93
815.767	7.88
815.941	4.75
816.114	6.74
816.287	7.14
816.46	3.97
816.634	-0.58
816.807	-2.89
816.98	-1.75
817.153	0.97
817.327	-0.15
817.5	2.95
817.673	6.19
817.846	4.85
818.019	7.15
818.192	10.44
818.365	9.06
818.538	11.74
818.711	11.29
818.884	8.3
819.057	10.2
819.23	15.99
819.403	15.42
819.576	17.23
819.749	19.95
819.922	17.15
820.095	14.6
820.268	15.01
820.441	15.21
820.614	15.82
820.786	19.59
820.959	18.07
821.132	17.41
821.305	16.89
821.477	15.99
821.65	15.52
821.823	15.72
821.996	16.48
822.168	18.73
822.341	18.78
822.514	19.23
822.686	18.55
822.859	18.8
823.031	18.41
823.204	18.84
823.376	18.92
823.549	19.77
823.722	20.09
823.894	19.49
824.067	17.5
824.239	17.48
824.411	16.57
824.584	16.57
824.756	15.77
824.929	16.2
825.101	15.78
825.273	16.11
825.446	15.32
825.618	15.91
825.79	15.55
825.963	16.95
826.135	16.3
826.307	17.96
826.479	17.61
826.652	19.33
826.824	19.41
826.996	20.17
827.168	20.16
827.34	20.46
827.512	18.98
827.684	21.02
827.856	20.33
828.029	19.86
828.201	19.26
828.373	19.02
828.545	18.3
828.717	17.65
828.889	17.03
829.061	17.13
829.232	15.93
829.404	16.27
829.576	15.85
829.748	15.25
829.92	16.9
830.092	14.74
830.264	15.08
830.436	13.52
830.607	13.94
830.779	13.68
830.951	12.34
831.123	14.61
831.294	15.87
831.466	15.04
831.638	13.66
831.809	9.76
831.981	16.24
832.153	15.86
832.324	14.04
832.496	17.98
832.667	16.89
832.839	18.87
833.011	17.12
833.182	14.51
833.354	15.52
833.525	19.05
833.697	22.69
833.868	18.34
834.039	20.03
834.211	22.12
834.382	17.64
834.554	18.14
834.725	17.24
834.896	16.46
835.068	18.18
835.239	16.2
835.41	16.14
835.581	13.62
835.753	13.6
835.924	13.2
836.095	10.72
836.266	11.86
836.438	11.79
836.609	13.32
836.78	14.28
836.951	12.59
837.122	13.05
837.293	8.94
837.464	13.28
837.635	16.9
837.806	17.76
837.977	20.51
838.148	21.26
838.319	21.89
838.49	18.82
838.661	17.04
838.832	11.48
839.003	13.55
839.174	14.65
839.345	9.22
839.516	15.95
839.687	16.8
839.857	14.61
840.028	17.7
840.199	18.55
840.37	19.19
840.54	20.19
840.711	28.23
840.882	23.52
841.053	23.96
841.223	24.66
841.394	17.81
841.564	11.25
841.735	16.83
841.906	10.42
842.076	8.47
842.247	7.81
842.417	7.64
842.588	5.64
842.758	7.31
842.929	9.23
843.099	10.6
843.27	7.84
843.44	17.25
843.611	16.86
843.781	20.75
843.951	20.17
844.122	16.2
844.292	18.74
844.462	19
844.633	17.6
844.803	10.53
844.973	8.2
845.144	11.7
845.314	5.39
845.484	-3.39
845.654	0.16
845.824	0.08
845.995	8.09
846.165	10.11
846.335	5.45
846.505	12.57
846.675	32.38
846.845	28.66
847.015	27.75
847.185	27.07
847.355	19.48
847.525	13.31
847.695	18.62
847.865	15.56
848.035	18.53
848.205	19.38
848.375	19.46
848.545	9.23
848.715	14.32
848.884	17.86
849.054	27.88
849.224	37.53
849.394	45.7
849.564	43.93
849.733	53.43
849.903	58.52
850.073	57.76
850.243	60.11
850.412	69.37
850.582	60.77
850.752	53.1
850.921	46.55
851.091	41.41
851.26	46.36
851.43	41.73
851.599	32.02
851.769	-9.58
851.939	-8.98
852.108	1.88
852.278	-2.99
852.447	-3.27
852.616	-6.82
852.786	-16.89
852.955	-3.59
853.125	-19.74
853.294	-16.99
853.463	-7.58
853.633	7.64
853.802	8.53
853.971	12.16
854.141	30.58
854.31	38.99
854.479	42.42
854.648	41.23
854.818	38.81
854.987	49.31
855.156	47.55
855.325	54.56
855.494	63.3
855.663	52.68
855.832	45.12
856.001	42.23
856.171	30.59
856.34	30.89
856.509	33.86
856.678	24.02
856.847	-10.63
857.016	-36.99
857.185	-107.88
857.353	-132.44
857.522	-180.88
857.691	-322.33
857.86	-631.6
858.029	-141.89
858.198	-36.16
858.367	-24.67
858.535	-20.18
858.704	-38.77
858.873	-47.93
859.042	-7.29
859.21	-2.55
859.379	-5
859.548	11.07
859.717	19.19
859.885	21.56
860.054	21.32
860.222	19.47
860.391	21.21
860.56	37.33
860.728	59.45
860.897	57.1
861.065	40.1
861.234	57.32
861.402	55.07
861.571	44.29
861.739	17.32
861.908	2.02
862.076	11.12
862.244	5.99
862.413	11.44
862.581	4.41
862.749	-8.49
862.918	-0.85
863.086	0.56
863.254	12.7
863.423	18.89
863.591	38.36
863.759	51.95
863.927	47.83
864.096	58.58
864.264	54.14
864.432	45.66
864.6	50.25
864.768	54.01
864.936	47.8
865.104	26.95
865.272	17.97
865.44	18.18
865.608	-22.44
865.776	-11.95
865.944	-19.98
866.112	-34.57
866.28	-17.66
866.448	-9.94
866.616	-22.45
866.784	10.94
866.952	6.87
867.12	14.37
867.288	15.54
867.455	22.92
867.623	24.73
867.791	34.3
867.959	41.28
868.127	47.05
868.294	37.81
868.462	40
868.63	22.65
868.797	31.89
868.965	31.81
869.133	21.24
869.3	18.71
869.468	14.67
869.636	10.76
869.803	7.85
869.971	-7.9
870.138	-17.44
870.306	6.3
870.473	3.81
870.641	6.85
870.808	0.27
870.975	-7.65
871.143	-6.65
871.31	13.89
871.478	20.98
871.645	44.17
871.812	33
871.98	52.01
872.147	61.13
872.314	59.23
872.482	28.97
872.649	33.97
872.816	50.86
872.983	55.61
873.15	61.16
873.318	49.05
873.485	44.05
873.652	39.88
873.819	33.04
873.986	10.8
874.153	14.94
874.32	34.25
874.487	39.94
874.654	20.35
874.821	24.57
874.988	20.91
875.155	30.05
875.322	18.34
875.489	27.18
875.656	22.02
875.823	26.57
875.99	29.21
876.157	32.25
876.324	23.93
876.49	33.06
876.657	10.43
876.824	12.22
876.991	17.73
877.157	23.09
877.324	24.8
877.491	32.57
877.658	29.42
877.824	29.19
877.991	17.97
878.157	17.18
878.324	5.63
878.491	27.78
878.657	27.41
878.824	28.21
878.99	21.18
879.157	31.54
879.323	23.46
879.49	29.35
879.656	26.64
879.823	38.02
879.989	38.4
880.156	49.55
880.322	42.88
880.488	38.76
880.655	15.23
880.821	23.27
880.987	11.68
881.154	18.35
881.32	18.7
881.486	9.32
881.652	-0.06
881.819	5.31
881.985	8.09
882.151	10.25
882.317	13.09
882.483	16.62
882.649	18.12
882.816	14.8
882.982	14.77
883.148	13.64
883.314	15.95
883.48	18.53
883.646	17.3
883.812	18.23
883.978	16.7
884.144	16
884.31	17.1
884.476	16.77
884.642	20.44
884.807	20.45
884.973	19.79
885.139	19.46
885.305	21.57
885.471	22.93
885.637	23.6
885.802	26.31
885.968	23.99
886.134	23.28
886.3	21.14
886.465	21.67
886.631	19.03
886.797	16.11
886.962	15.92
887.128	9.58
887.293	-7.08
887.459	-3.52
887.625	-7.4
887.79	10.05
887.956	-1.79
888.121	-2.08
888.287	-30.05
888.452	-22.78
888.618	-3.03
888.783	30.91
