Data from 2938032_Reflection_3.txt Node
Date: Sun Jul 12 14:58:48 EDT 2015
User: robert
Spectrometer: USB4E03001
Autoset integration time: false
Trigger mode: 4
Integration Time (sec): 1.000000E-1
Scans to average: 10
Electric dark correction enabled: true
Nonlinearity correction enabled: false
Boxcar width: 5
Stray light correction enabled: false
XAxis mode: Wavelengths
Stop averaging: false
Number of Pixels in Spectrum: 3648
>>>>>Begin Spectral Data<<<<<
177.566	-403.5
177.785	122.84
178.005	1005.71
178.225	-125.35
178.445	86.27
178.665	26.06
178.885	-61.5
179.105	-60.56
179.324	-56.35
179.544	-1816.58
179.764	405.98
179.984	-731.54
180.204	175.15
180.423	244.15
180.643	407.88
180.863	8137.14
181.083	271.11
181.302	185.52
181.522	164.15
181.742	210.83
181.961	1139.89
182.181	118.55
182.401	0.57
182.621	-19.63
182.84	-4.11
183.06	39.42
183.279	68.99
183.499	40.83
183.719	66.04
183.938	110.81
184.158	147.44
184.377	134.3
184.597	129.84
184.816	216.87
185.036	294.64
185.256	171.44
185.475	126.83
185.695	81.02
185.914	102.64
186.134	70.04
186.353	41.03
186.572	29.58
186.792	14.61
187.011	2.59
187.231	-28.37
187.45	-2.14
187.67	-12.62
187.889	-130.18
188.108	-3.47
188.328	26.22
188.547	95.32
188.766	150.51
188.986	301.62
189.205	285.86
189.424	1250.87
189.644	738.74
189.863	2632.71
190.082	834.56
190.302	300.44
190.521	324.39
190.74	1157.81
190.959	732.51
191.178	737.47
191.398	-614.98
191.617	3135.39
191.836	2707.41
192.055	-1001.78
192.274	404.12
192.494	237.27
192.713	293.19
192.932	218.69
193.151	122.48
193.37	82.47
193.589	12.69
193.808	7.18
194.027	-18.28
194.246	5.16
194.465	3.64
194.685	20.59
194.904	39.43
195.123	16.23
195.342	21.2
195.561	-16.01
195.78	44.15
195.999	49.92
196.218	39.14
196.436	41.33
196.655	28.62
196.874	20.16
197.093	-5.52
197.312	-179.91
197.531	-24.09
197.75	17.74
197.969	32.53
198.188	38.1
198.407	31.82
198.625	64.24
198.844	92.86
199.063	89.8
199.282	65
199.501	63.69
199.719	74.37
199.938	72.9
200.157	59.97
200.376	72.81
200.594	57.64
200.813	53.81
201.032	50.18
201.251	10.04
201.469	27.04
201.688	6.58
201.907	8.01
202.125	-41.21
202.344	-51.54
202.563	-119.29
202.781	-242.73
203	-184.77
203.218	-188.78
203.437	10004.65
203.656	-47.2
203.874	-60.93
204.093	28.63
204.311	66.21
204.53	77.08
204.748	117.72
204.967	99.2
205.185	117.42
205.404	97.89
205.622	83.11
205.841	66.86
206.059	58.96
206.278	40.17
206.496	3.94
206.715	-15.56
206.933	5.06
207.151	-8.55
207.37	-7.72
207.588	1.6
207.806	38.88
208.025	44.74
208.243	49.43
208.461	50.54
208.68	55.95
208.898	53.73
209.116	66.62
209.335	60.54
209.553	60.92
209.771	86.89
209.989	103.04
210.208	77.66
210.426	119.88
210.644	107.16
210.862	99.56
211.081	114.6
211.299	155.28
211.517	139.86
211.735	157.96
211.953	171.79
212.171	164.98
212.39	188.93
212.608	167.27
212.826	114.91
213.044	102.43
213.262	61.53
213.48	80.53
213.698	67.57
213.916	31.51
214.134	35.66
214.352	43.6
214.57	32.33
214.788	26.05
215.006	-4.76
215.224	-2.12
215.442	23.12
215.66	48.3
215.878	39.5
216.096	55.78
216.314	73
216.532	86.69
216.75	72.42
216.968	56.52
217.185	44.18
217.403	54.7
217.621	44.25
217.839	46.41
218.057	33.36
218.275	50.66
218.492	43.44
218.71	55.66
218.928	14.59
219.146	47.6
219.363	46.8
219.581	86.51
219.799	110.25
220.017	146.57
220.234	126.04
220.452	116.58
220.67	104.97
220.887	82.22
221.105	41.31
221.323	38.15
221.54	29.98
221.758	32.55
221.976	38.25
222.193	28.95
222.411	30.24
222.629	32.69
222.846	40
223.064	12.97
223.281	32.35
223.499	41.95
223.716	59.41
223.934	69.13
224.151	68.58
224.369	59.85
224.586	58.79
224.804	44.94
225.021	52.06
225.239	50.54
225.456	46.38
225.674	29.81
225.891	30.02
226.108	20.77
226.326	22.41
226.543	12.7
226.76	14.83
226.978	6
227.195	8.92
227.413	8.57
227.63	10.13
227.847	14.02
228.064	16.39
228.282	12.73
228.499	11.98
228.716	13.61
228.934	13.46
229.151	12.42
229.368	14.26
229.585	12.76
229.802	11.95
230.02	12.28
230.237	10.68
230.454	12.15
230.671	12.91
230.888	14.24
231.105	14.08
231.323	16.09
231.54	15.5
231.757	15.59
231.974	17.26
232.191	17.61
232.408	18.13
232.625	16.38
232.842	12.01
233.059	15.8
233.276	16.37
233.493	9.91
233.71	4.95
233.927	4.52
234.144	4.69
234.361	5.65
234.578	8.17
234.795	4.4
235.012	2.81
235.229	6.34
235.446	10.88
235.663	9.92
235.879	9.58
236.096	12.94
236.313	14.58
236.53	14.2
236.747	13.42
236.964	5.18
237.181	12.83
237.397	18.71
237.614	12.35
237.831	10.3
238.048	12.69
238.264	17.65
238.481	18.01
238.698	16.84
238.915	20.14
239.131	21.8
239.348	22.17
239.565	19.82
239.781	19.46
239.998	23.15
240.215	21.32
240.431	18.26
240.648	15.85
240.865	13
241.081	15.34
241.298	14.55
241.514	13.16
241.731	14.83
241.947	12.89
242.164	12.9
242.38	11.95
242.597	12.24
242.814	13.56
243.03	14.79
243.246	15.83
243.463	14.28
243.679	13.5
243.896	13.36
244.112	13.22
244.329	14.36
244.545	14.84
244.762	16.36
244.978	15.62
245.194	13.12
245.411	12.15
245.627	10.59
245.843	10.33
246.06	11.03
246.276	10.11
246.492	9.43
246.709	8.35
246.925	6.74
247.141	6.8
247.357	6.57
247.574	6.84
247.79	5.5
248.006	6.14
248.222	6.11
248.439	5.07
248.655	5.28
248.871	5.37
249.087	5.72
249.303	6.92
249.519	5.59
249.736	6.4
249.952	6.35
250.168	8.06
250.384	7.01
250.6	8.18
250.816	10.51
251.032	10.73
251.248	10.49
251.464	10.78
251.68	8.2
251.896	8.53
252.112	7.72
252.328	6.97
252.544	7.41
252.76	7.18
252.976	6.12
253.192	5.06
253.408	4.5
253.624	3.75
253.84	1.15
254.056	2.15
254.272	2.67
254.487	1.88
254.703	2.47
254.919	3.68
255.135	6.04
255.351	6.66
255.567	6.37
255.782	10.4
255.998	12.42
256.214	14.48
256.43	16.35
256.646	16.3
256.861	15.82
257.077	14.83
257.293	11.24
257.508	11.02
257.724	10.31
257.94	8.3
258.155	8.23
258.371	7.63
258.587	7.58
258.802	5.89
259.018	7.36
259.234	7.66
259.449	8.25
259.665	8.79
259.88	8.46
260.096	8.7
260.312	9.7
260.527	9.32
260.743	10.12
260.958	9.95
261.174	10.9
261.389	9.75
261.605	11.02
261.82	11.27
262.036	12.22
262.251	11.79
262.466	12.2
262.682	12.15
262.897	11.64
263.113	8.9
263.328	9.08
263.543	9.65
263.759	9.32
263.974	6.05
264.189	6.08
264.405	5.49
264.62	6.6
264.835	5.38
265.051	5.74
265.266	6.18
265.481	7.67
265.696	8.4
265.912	8.17
266.127	8.8
266.342	9.26
266.557	9.74
266.773	7.34
266.988	7.44
267.203	7.74
267.418	7.31
267.633	7.21
267.848	6.24
268.064	5.86
268.279	4.2
268.494	4.55
268.709	3.56
268.924	3.1
269.139	4.65
269.354	4.9
269.569	3.99
269.784	3.88
269.999	4.09
270.214	5.12
270.429	5.08
270.644	6.34
270.859	7.21
271.074	8.31
271.289	7.69
271.504	7.92
271.719	7.66
271.934	7.98
272.149	7.65
272.363	6.91
272.578	7.58
272.793	8.75
273.008	7.89
273.223	7.39
273.438	7.57
273.653	7.75
273.867	6.5
274.082	7.07
274.297	9.03
274.512	9.9
274.726	10.32
274.941	8.94
275.156	8.84
275.371	9.15
275.585	8.37
275.8	8.38
276.015	7.02
276.229	7.37
276.444	7.24
276.659	5.8
276.873	4.03
277.088	4.47
277.302	4.51
277.517	3.96
277.732	5.46
277.946	6.67
278.161	7.02
278.375	7.82
278.59	8.12
278.804	7.15
279.019	6.92
279.233	7.41
279.448	7.11
279.662	7.18
279.877	7.74
280.091	5.99
280.306	6.18
280.52	5.09
280.735	5.84
280.949	6.94
281.163	7.48
281.378	7.88
281.592	8.08
281.806	7.83
282.021	7.88
282.235	5.97
282.449	7.2
282.664	6.16
282.878	6.97
283.092	6.23
283.307	5.76
283.521	4.94
283.735	4.21
283.949	3.6
284.164	3.91
284.378	3.43
284.592	4.7
284.806	3.53
285.02	4.25
285.234	4.56
285.449	4.99
285.663	5.09
285.877	4.79
286.091	5.19
286.305	6.28
286.519	6.2
286.733	7.11
286.947	6.35
287.161	7.25
287.375	7.59
287.589	6.93
287.803	6.66
288.017	6.46
288.231	7.33
288.445	6.97
288.659	7.22
288.873	7.42
289.087	6.85
289.301	6.94
289.515	6.57
289.729	6.09
289.943	6.9
290.157	7.36
290.371	7.76
290.584	8.21
290.798	8.56
291.012	7.95
291.226	7.61
291.44	7.84
291.654	8.03
291.867	7.47
292.081	6.19
292.295	6.11
292.509	6.89
292.722	6.73
292.936	7.12
293.15	7.8
293.364	7.46
293.577	8.22
293.791	8.91
294.005	9.52
294.218	10.43
294.432	11.08
294.645	10.3
294.859	9.54
295.073	10.64
295.286	10.63
295.5	10.14
295.713	10.46
295.927	10.58
296.14	10.45
296.354	10.31
296.568	9.43
296.781	10.77
296.994	11.13
297.208	11.5
297.421	10.32
297.635	10.08
297.848	9.45
298.062	9.96
298.275	8.83
298.489	8.78
298.702	9.74
298.915	10.35
299.129	9.29
299.342	8.98
299.555	9.3
299.769	9.81
299.982	8.53
300.195	9.07
300.409	8.44
300.622	9.5
300.835	9.82
301.048	8.96
301.262	8.77
301.475	9.59
301.688	10.51
301.901	8.94
302.115	8.12
302.328	8.33
302.541	8.45
302.754	8.5
302.967	9.11
303.18	8.45
303.393	7.66
303.607	7.54
303.82	6.84
304.033	6.36
304.246	6.95
304.459	7.6
304.672	7.86
304.885	7.14
305.098	6.91
305.311	5.75
305.524	4.59
305.737	4.95
305.95	5.27
306.163	4.32
306.376	3.96
306.589	4
306.802	3.25
307.015	3.39
307.228	5.51
307.44	6.5
307.653	6.75
307.866	6.99
308.079	8.74
308.292	9.28
308.505	10.88
308.718	12.64
308.93	12.69
309.143	13.54
309.356	14.51
309.569	13.58
309.781	12.82
309.994	13.01
310.207	14.37
310.42	13.66
310.632	13.38
310.845	14.01
311.058	12.36
311.27	12.1
311.483	12.61
311.696	12.89
311.908	13.01
312.121	12.86
312.333	13.04
312.546	12.07
312.759	12.62
312.971	12.94
313.184	10.65
313.396	11.07
313.609	10.94
313.821	9.59
314.034	8.49
314.246	10
314.459	11.16
314.671	10.88
314.884	12.27
315.096	12.34
315.309	11.66
315.521	13.23
315.733	13.15
315.946	13.34
316.158	13.68
316.371	14.46
316.583	12.73
316.795	12.88
317.008	14.25
317.22	13.75
317.432	11.9
317.644	13.17
317.857	13
318.069	14.08
318.281	14.95
318.494	15.85
318.706	14.91
318.918	15.87
319.13	15.47
319.342	14.94
319.555	15.08
319.767	15.67
319.979	14.51
320.191	14.81
320.403	15.42
320.615	15.08
320.827	15.86
321.039	15.27
321.252	16.05
321.464	16.23
321.676	16.29
321.888	16.69
322.1	18.26
322.312	19.42
322.524	19.78
322.736	18.17
322.948	18.53
323.16	18.22
323.372	19.31
323.584	18.32
323.796	19.01
324.007	18.22
324.219	17.84
324.431	17.47
324.643	16.6
324.855	16.06
325.067	16.47
325.279	18.02
325.491	18.12
325.702	17.84
325.914	18.22
326.126	17.72
326.338	19.93
326.55	20.83
326.761	21.11
326.973	22.85
327.185	24.36
327.396	25.45
327.608	24.31
327.82	25.01
328.032	26.09
328.243	26.48
328.455	27.65
328.666	27.57
328.878	27.98
329.09	29.21
329.301	29.12
329.513	29.18
329.725	29.71
329.936	30.92
330.148	31.61
330.359	32.46
330.571	33.7
330.782	34.5
330.994	35.65
331.205	34.78
331.417	35.94
331.628	38.36
331.84	39.87
332.051	40.69
332.262	40.45
332.474	41.05
332.685	41.78
332.897	42.21
333.108	42.67
333.319	43.64
333.531	45.31
333.742	45.04
333.953	44.72
334.165	44.7
334.376	45.6
334.587	46.43
334.799	46.09
335.01	46.02
335.221	48.13
335.432	47.88
335.644	47.3
335.855	47.13
336.066	47.32
336.277	46.82
336.488	47.21
336.7	47.66
336.911	49.19
337.122	49.91
337.333	50.82
337.544	49.1
337.755	50.23
337.966	50.53
338.177	50.79
338.388	51.66
338.599	52.5
338.811	52.63
339.022	52.85
339.233	52.69
339.444	52.89
339.655	53.1
339.866	53.69
340.076	53.57
340.287	54.15
340.498	56.59
340.709	56.94
340.92	56.57
341.131	56.8
341.342	55.83
341.553	56.06
341.764	56.87
341.975	56.31
342.185	56.56
342.396	56.66
342.607	56.34
342.818	55.19
343.029	54.77
343.239	54.6
343.45	54.39
343.661	56.07
343.872	54.62
344.082	53.32
344.293	53.35
344.504	53.69
344.714	53.94
344.925	54.53
345.136	54.25
345.346	54.38
345.557	54.36
345.768	53.99
345.978	53.06
346.189	54.22
346.399	54.34
346.61	55.02
346.821	54.07
347.031	54
347.242	53.65
347.452	53.42
347.663	53.33
347.873	53.42
348.084	53.22
348.294	53.33
348.504	52.51
348.715	53.23
348.925	52.65
349.136	53.25
349.346	52.71
349.557	53.6
349.767	54.11
349.977	53.69
350.188	54.55
350.398	55.8
350.608	55.88
350.819	56.1
351.029	55.97
351.239	56.86
351.449	56.83
351.66	58.08
351.87	56.44
352.08	56.28
352.29	56.65
352.501	56.78
352.711	56.26
352.921	56.22
353.131	56.61
353.341	57.27
353.552	56.55
353.762	56.12
353.972	54.57
354.182	55.27
354.392	55.15
354.602	56.03
354.812	55.58
355.022	55.38
355.232	55.84
355.442	55.44
355.652	55.01
355.862	54.27
356.072	54.96
356.282	55.13
356.492	55.32
356.702	54.26
356.912	53.39
357.122	53.44
357.332	53.96
357.542	53.59
357.752	53.84
357.962	53.25
358.171	54
358.381	54.33
358.591	54.19
358.801	54.6
359.011	55.71
359.221	56.07
359.43	56.77
359.64	56.07
359.85	55.89
360.06	55.82
360.269	56.53
360.479	56.5
360.689	56.01
360.899	55.9
361.108	54.72
361.318	54.04
361.528	53.61
361.737	53.1
361.947	53.07
362.156	53.29
362.366	52.81
362.576	52.23
362.785	52.1
362.995	51.96
363.204	52.01
363.414	52.65
363.623	53.21
363.833	53.33
364.042	52.84
364.252	53.03
364.461	51.91
364.671	52.43
364.88	52.12
365.09	51.96
365.299	51.43
365.509	51.74
365.718	51.33
365.927	51.01
366.137	50.71
366.346	50.98
366.555	51.28
366.765	51.86
366.974	51.63
367.183	52.13
367.393	51.78
367.602	51.91
367.811	51.16
368.021	51.59
368.23	51.19
368.439	50.72
368.648	50.72
368.857	50.7
369.067	50.13
369.276	50.23
369.485	49.91
369.694	50.04
369.903	50.59
370.112	51.34
370.321	50.81
370.531	50.82
370.74	50.74
370.949	50.16
371.158	49.66
371.367	49.99
371.576	49.59
371.785	49.96
371.994	49.79
372.203	49.39
372.412	49.16
372.621	49.04
372.83	48.79
373.039	48.99
373.248	49.03
373.457	48.91
373.666	48.61
373.874	48.32
374.083	47.86
374.292	47.85
374.501	47.26
374.71	47.11
374.919	46.76
375.128	46.53
375.336	46.76
375.545	46.25
375.754	45.84
375.963	45.86
376.171	46.26
376.38	46.15
376.589	45.87
376.798	45.89
377.006	45.62
377.215	46.02
377.424	45.95
377.632	45.59
377.841	45.84
378.05	46.17
378.258	46.1
378.467	45.95
378.675	45.78
378.884	45.89
379.093	46.38
379.301	45.98
379.51	46.1
379.718	46.3
379.927	46.13
380.135	46.23
380.344	45.95
380.552	46.14
380.761	45.64
380.969	45.96
381.177	45.78
381.386	44.98
381.594	45.57
381.803	45.5
382.011	45.09
382.219	45.05
382.428	44.96
382.636	44.59
382.845	44.08
383.053	43.93
383.261	43.34
383.469	42.63
383.678	43.01
383.886	42.16
384.094	41.66
384.302	41.67
384.511	41.62
384.719	41.36
384.927	41.25
385.135	41.13
385.343	41.3
385.552	41.45
385.76	41.57
385.968	41.49
386.176	41.22
386.384	40.87
386.592	40.69
386.8	40.33
387.008	39.66
387.216	39.54
387.424	39.16
387.633	38.85
387.841	38.78
388.049	38.88
388.257	38.1
388.465	38.48
388.672	38.39
388.88	38.69
389.088	38.39
389.296	38.99
389.504	38.99
389.712	39.12
389.92	39.23
390.128	38.7
390.336	38.63
390.544	38.81
390.751	38.53
390.959	38.57
391.167	37.98
391.375	37.94
391.583	37.64
391.79	37.29
391.998	37.35
392.206	37.07
392.414	37.11
392.621	37.04
392.829	37.13
393.037	36.82
393.244	37.13
393.452	37.4
393.66	37.67
393.867	37.45
394.075	37.73
394.283	37.55
394.49	37.49
394.698	37.46
394.905	37.49
395.113	37.18
395.32	37.42
395.528	36.96
395.735	36.64
395.943	36.63
396.15	36.5
396.358	36.47
396.565	36.65
396.773	36.9
396.98	37.13
397.188	37
397.395	37.1
397.602	37.19
397.81	37.08
398.017	37.28
398.225	36.69
398.432	36.86
398.639	36.6
398.847	36.02
399.054	35.61
399.261	35.62
399.468	35.59
399.676	35.91
399.883	35.89
400.09	35.72
400.297	35.55
400.505	36.15
400.712	35.63
400.919	35.86
401.126	35.96
401.333	35.43
401.54	35.04
401.748	35.18
401.955	34.7
402.162	34.29
402.369	34.35
402.576	34.54
402.783	34.21
402.99	34.52
403.197	34.1
403.404	34.15
403.611	34.55
403.818	34.4
404.025	33.88
404.232	33.99
404.439	34.28
404.646	34.29
404.853	34.05
405.06	34.17
405.267	34.25
405.474	34.44
405.681	34.68
405.887	34.65
406.094	34.86
406.301	35.09
406.508	34.84
406.715	34.73
406.922	34.98
407.128	35.09
407.335	34.93
407.542	34.81
407.749	34.95
407.955	34.74
408.162	34.38
408.369	34.2
408.575	34.31
408.782	34.12
408.989	33.69
409.195	33.24
409.402	33.06
409.609	33
409.815	33.15
410.022	32.9
410.228	32.93
410.435	33.26
410.642	33.2
410.848	33.21
411.055	33.49
411.261	33.98
411.468	34.01
411.674	33.95
411.881	34.2
412.087	34.24
412.294	34.26
412.5	34.31
412.706	34.5
412.913	34.58
413.119	34.29
413.326	34.19
413.532	34.02
413.738	34.16
413.945	34.1
414.151	33.96
414.357	33.82
414.564	33.99
414.77	33.71
414.976	33.47
415.182	33.31
415.389	33.51
415.595	33.34
415.801	33.19
416.007	33.15
416.214	33.21
416.42	33.1
416.626	33.26
416.832	33.06
417.038	33.19
417.244	33.21
417.45	33.16
417.657	33.15
417.863	33.06
418.069	33
418.275	32.93
418.481	33
418.687	32.95
418.893	32.83
419.099	32.85
419.305	32.61
419.511	32.62
419.717	32.62
419.923	32.5
420.129	32.49
420.335	32.32
420.541	32.21
420.746	32.03
420.952	32.04
421.158	31.98
421.364	31.96
421.57	32.01
421.776	31.89
421.982	31.93
422.187	31.82
422.393	31.83
422.599	31.87
422.805	31.94
423.01	32.02
423.216	31.82
423.422	31.69
423.628	31.59
423.833	31.49
424.039	31.42
424.245	31.27
424.45	31.26
424.656	31.41
424.862	31.48
425.067	31.31
425.273	31.17
425.478	31.28
425.684	31.1
425.889	31.02
426.095	31.05
426.301	31.13
426.506	31.04
426.712	31.02
426.917	31.05
427.123	31.04
427.328	31.06
427.533	31.03
427.739	30.85
427.944	31
428.15	31
428.355	30.94
428.561	30.86
428.766	31.03
428.971	31.17
429.177	30.95
429.382	30.76
429.587	30.87
429.793	31.04
429.998	31.08
430.203	31.12
430.408	31.06
430.614	31.22
430.819	31.37
431.024	31.15
431.229	30.9
431.434	30.68
431.64	30.92
431.845	30.95
432.05	30.88
432.255	30.86
432.46	31
432.665	31.16
432.87	31.06
433.076	30.83
433.281	30.96
433.486	31.06
433.691	31.24
433.896	31.04
434.101	31.03
434.306	31.1
434.511	31.14
434.716	31.1
434.921	30.86
435.126	30.72
435.331	30.87
435.535	30.78
435.74	30.89
435.945	30.92
436.15	30.99
436.355	30.98
436.56	30.8
436.765	30.92
436.97	30.9
437.174	30.95
437.379	31.01
437.584	31
437.789	31.13
437.993	31.02
438.198	30.96
438.403	31.25
438.608	31
438.812	30.97
439.017	30.79
439.222	31
439.426	31.06
439.631	31.19
439.836	31.11
440.04	31.14
440.245	31.2
440.45	31.19
440.654	30.94
440.859	30.97
441.063	31.16
441.268	31.29
441.472	31.1
441.677	31.16
441.881	31.05
442.086	31.03
442.29	30.91
442.495	30.8
442.699	30.86
442.904	31.01
443.108	31.29
443.312	31.08
443.517	31.12
443.721	31.21
443.925	31.18
444.13	31.31
444.334	31.31
444.538	31.41
444.743	31.33
444.947	31.34
445.151	31.23
445.356	31.16
445.56	31.26
445.764	31.2
445.968	31.26
446.173	31.22
446.377	31.12
446.581	31.21
446.785	31.29
446.989	31.37
447.193	31.12
447.398	31.11
447.602	31.17
447.806	31.31
448.01	31.28
448.214	31.02
448.418	31.09
448.622	31.03
448.826	30.94
449.03	30.65
449.234	30.77
449.438	30.96
449.642	31.06
449.846	30.95
450.05	30.79
450.254	30.77
450.458	31.04
450.662	31
450.866	31.26
451.069	31.22
451.273	31.24
451.477	31.01
451.681	31.11
451.885	30.96
452.089	30.78
452.292	30.71
452.496	30.58
452.7	30.46
452.904	30.4
453.107	30.26
453.311	30.32
453.515	30.59
453.719	30.68
453.922	30.71
454.126	30.78
454.33	30.89
454.533	30.83
454.737	30.76
454.94	30.7
455.144	30.7
455.348	30.75
455.551	30.8
455.755	30.53
455.958	30.49
456.162	30.13
456.365	30.04
456.569	30.05
456.772	30.04
456.976	30.06
457.179	30.16
457.383	30.17
457.586	30.24
457.79	30.18
457.993	30.27
458.196	30.22
458.4	30.34
458.603	30.38
458.807	30.32
459.01	30.47
459.213	30.69
459.417	30.73
459.62	30.85
459.823	30.89
460.026	30.97
460.23	31
460.433	31.05
460.636	31.13
460.839	31.22
461.042	31.32
461.246	31.32
461.449	31.19
461.652	31.14
461.855	31.07
462.058	30.85
462.261	31
462.464	31.05
462.668	31.19
462.871	31.23
463.074	31.21
463.277	31.36
463.48	31.32
463.683	31.5
463.886	31.61
464.089	31.74
464.292	31.79
464.495	31.52
464.698	31.39
464.901	31.33
465.104	31.33
465.306	31.34
465.509	31.24
465.712	31.19
465.915	31.08
466.118	31.1
466.321	30.83
466.524	30.98
466.726	31.04
466.929	31.09
467.132	31.14
467.335	31.1
467.538	31.13
467.74	31.15
467.943	31.32
468.146	31.3
468.348	31.28
468.551	31.41
468.754	31.46
468.956	31.41
469.159	31.54
469.362	31.49
469.564	31.63
469.767	31.56
469.969	31.73
470.172	31.63
470.375	31.69
470.577	31.77
470.78	31.83
470.982	31.92
471.185	31.94
471.387	31.96
471.59	31.87
471.792	31.76
471.995	31.7
472.197	31.55
472.399	31.42
472.602	31.55
472.804	31.63
473.007	31.58
473.209	31.53
473.411	31.5
473.614	31.37
473.816	31.63
474.018	31.76
474.22	31.78
474.423	31.76
474.625	32.1
474.827	32
475.03	31.94
475.232	31.97
475.434	31.84
475.636	31.76
475.838	31.92
476.04	31.82
476.243	31.66
476.445	31.75
476.647	31.67
476.849	31.5
477.051	31.55
477.253	31.44
477.455	31.36
477.657	31.35
477.859	31.47
478.061	31.48
478.263	31.53
478.465	31.58
478.667	31.36
478.869	31.52
479.071	31.5
479.273	31.44
479.475	31.4
479.677	31.35
479.879	31.41
480.081	31.52
480.283	31.33
480.485	31.17
480.686	31.1
480.888	31.3
481.09	31.12
481.292	31.17
481.494	31.28
481.695	31.3
481.897	31.32
482.099	31.35
482.301	31.34
482.502	31.29
482.704	31.22
482.906	31.21
483.107	31.22
483.309	31.18
483.511	31.14
483.712	31.07
483.914	31.08
484.115	31.11
484.317	31.1
484.519	31.03
484.72	31.02
484.922	31.14
485.123	31.09
485.325	31.06
485.526	31.1
485.728	31.13
485.929	31.14
486.131	31.13
486.332	31.12
486.534	31.04
486.735	31.14
486.936	31.14
487.138	30.92
487.339	31.02
487.541	30.9
487.742	30.89
487.943	30.81
488.144	30.82
488.346	30.83
488.547	30.8
488.748	30.83
488.95	30.72
489.151	30.79
489.352	30.89
489.553	30.82
489.755	30.93
489.956	30.95
490.157	30.97
490.358	30.95
490.559	30.88
490.76	30.93
490.961	30.98
491.163	31.1
491.364	31.07
491.565	31.1
491.766	31.17
491.967	31.18
492.168	31.18
492.369	31.18
492.57	31.17
492.771	31.17
492.972	31.13
493.173	31.18
493.374	31.09
493.575	31.19
493.776	31.19
493.976	31.08
494.177	31.13
494.378	31.2
494.579	31.39
494.78	31.57
494.981	31.76
495.182	31.84
495.382	31.76
495.583	31.99
495.784	31.98
495.985	31.99
496.185	32.12
496.386	32.18
496.587	32.06
496.788	31.92
496.988	31.85
497.189	31.92
497.39	31.86
497.59	31.93
497.791	31.89
497.992	31.78
498.192	31.79
498.393	31.87
498.593	31.88
498.794	32
498.994	32.29
499.195	32.32
499.395	32.29
499.596	32.45
499.796	32.47
499.997	32.33
500.197	32.67
500.398	32.72
500.598	32.58
500.799	32.53
500.999	32.52
501.199	32.48
501.4	32.6
501.6	32.5
501.801	32.45
502.001	32.5
502.201	32.59
502.402	32.53
502.602	32.74
502.802	32.9
503.002	33.05
503.203	33.21
503.403	33.16
503.603	33.21
503.803	33.32
504.003	33.55
504.204	33.61
504.404	33.64
504.604	33.63
504.804	33.47
505.004	33.63
505.204	33.7
505.404	33.7
505.604	33.85
505.804	33.92
506.005	34.02
506.205	33.98
506.405	34.1
506.605	34.29
506.805	34.33
507.005	34.47
507.204	34.53
507.404	34.6
507.604	34.68
507.804	34.71
508.004	34.78
508.204	34.93
508.404	34.97
508.604	34.77
508.804	34.72
509.003	34.82
509.203	34.76
509.403	34.76
509.603	34.61
509.803	34.62
510.002	34.58
510.202	34.49
510.402	34.49
510.602	34.57
510.801	34.8
511.001	34.79
511.201	34.69
511.4	34.65
511.6	34.66
511.8	34.86
511.999	34.83
512.199	34.89
512.398	34.85
512.598	34.8
512.797	34.77
512.997	34.64
513.197	34.87
513.396	34.92
513.596	35.2
513.795	35.19
513.994	35.17
514.194	35.24
514.393	35.19
514.593	35.26
514.792	35.34
514.992	35.42
515.191	35.49
515.39	35.39
515.59	35.54
515.789	35.59
515.988	35.54
516.188	35.61
516.387	35.56
516.586	35.81
516.786	35.97
516.985	35.97
517.184	36.04
517.383	36.16
517.582	36.19
517.782	36.1
517.981	35.99
518.18	35.94
518.379	35.99
518.578	36.14
518.777	36.14
518.976	36.05
519.176	36.2
519.375	36.21
519.574	36.19
519.773	36.26
519.972	36.38
520.171	36.36
520.37	36.44
520.569	36.47
520.768	36.49
520.967	36.39
521.166	36.47
521.365	36.32
521.564	36.3
521.762	36.52
521.961	36.46
522.16	36.49
522.359	36.71
522.558	36.84
522.757	36.97
522.956	36.93
523.154	37.03
523.353	37.14
523.552	37.04
523.751	37.04
523.949	36.97
524.148	36.99
524.347	36.94
524.546	37.04
524.744	37.08
524.943	37.03
525.142	37.12
525.34	37.03
525.539	36.98
525.737	37.1
525.936	37.16
526.135	37.15
526.333	37.1
526.532	37.12
526.73	36.93
526.929	36.9
527.127	36.82
527.326	36.76
527.524	36.72
527.723	36.71
527.921	36.7
528.12	36.68
528.318	36.61
528.516	36.73
528.715	36.68
528.913	36.72
529.112	36.73
529.31	36.76
529.508	36.8
529.707	36.85
529.905	36.9
530.103	36.93
530.301	36.95
530.5	37
530.698	36.92
530.896	37.02
531.094	37.13
531.293	37.1
531.491	37.12
531.689	37.18
531.887	37.19
532.085	37.16
532.283	37.05
532.481	37.15
532.68	37.14
532.878	37.15
533.076	37.19
533.274	37.16
533.472	37.2
533.67	37.21
533.868	37.16
534.066	37.24
534.264	37.2
534.462	37.34
534.66	37.16
534.858	37.17
535.056	37.28
535.253	37.33
535.451	37.33
535.649	37.26
535.847	37.22
536.045	37.27
536.243	37.33
536.441	37.33
536.638	37.24
536.836	37.38
537.034	37.44
537.232	37.38
537.43	37.28
537.627	37.38
537.825	37.55
538.023	37.73
538.22	37.81
538.418	37.77
538.616	37.84
538.813	37.85
539.011	37.86
539.209	37.82
539.406	37.79
539.604	37.77
539.801	37.66
539.999	37.76
540.196	37.69
540.394	37.72
540.591	37.58
540.789	37.53
540.986	37.6
541.184	37.58
541.381	37.58
541.579	37.56
541.776	37.65
541.974	37.69
542.171	37.59
542.368	37.61
542.566	37.59
542.763	37.67
542.96	37.85
543.158	37.88
543.355	37.93
543.552	37.99
543.75	38.07
543.947	37.89
544.144	37.83
544.341	37.87
544.539	37.88
544.736	37.72
544.933	37.78
545.13	37.82
545.327	37.82
545.524	37.97
545.722	37.96
545.919	37.99
546.116	38.12
546.313	38.16
546.51	38.17
546.707	38.06
546.904	38.17
547.101	38.12
547.298	37.93
547.495	37.9
547.692	37.8
547.889	37.93
548.086	37.88
548.283	37.99
548.48	38.03
548.677	38.05
548.874	38.29
549.07	38.37
549.267	38.65
549.464	38.78
549.661	38.95
549.858	39.03
550.055	38.91
550.251	38.92
550.448	38.8
550.645	39.02
550.842	38.94
551.038	38.9
551.235	38.69
551.432	38.47
551.628	38.53
551.825	38.44
552.022	38.53
552.218	38.63
552.415	38.64
552.612	38.68
552.808	38.52
553.005	38.65
553.201	38.69
553.398	38.86
553.594	38.87
553.791	38.93
553.987	38.81
554.184	38.75
554.38	38.81
554.577	38.94
554.773	39.09
554.97	39.06
555.166	39.07
555.362	38.97
555.559	38.92
555.755	39.07
555.952	39.06
556.148	39.27
556.344	39.19
556.541	39.08
556.737	39.19
556.933	39.19
557.129	39.3
557.326	39.42
557.522	39.51
557.718	39.56
557.914	39.49
558.11	39.2
558.307	39.22
558.503	39.34
558.699	39.52
558.895	39.42
559.091	39.47
559.287	39.35
559.483	39.32
559.679	39.25
559.876	39.39
560.072	39.38
560.268	39.63
560.464	39.54
560.66	39.74
560.856	39.69
561.052	39.69
561.247	39.58
561.443	39.67
561.639	39.82
561.835	39.84
562.031	39.69
562.227	39.55
562.423	39.6
562.619	39.9
562.815	39.86
563.01	39.97
563.206	40.08
563.402	40.22
563.598	40.31
563.793	40.16
563.989	40.11
564.185	40.26
564.381	40.31
564.576	40.32
564.772	40.2
564.968	40.07
565.163	40.12
565.359	40.04
565.555	40.09
565.75	40.21
565.946	40.25
566.141	40.46
566.337	40.49
566.532	40.54
566.728	40.66
566.923	40.59
567.119	40.59
567.314	40.49
567.51	40.5
567.705	40.4
567.901	40.27
568.096	40.09
568.292	40.06
568.487	40.03
568.682	40.26
568.878	40.18
569.073	40.27
569.268	40.14
569.464	40.22
569.659	40.28
569.854	40.3
570.05	40.28
570.245	40.55
570.44	40.69
570.635	40.73
570.831	40.7
571.026	40.46
571.221	40.46
571.416	40.5
571.611	40.5
571.806	40.61
572.002	40.69
572.197	40.83
572.392	40.8
572.587	40.54
572.782	40.64
572.977	40.62
573.172	41.05
573.367	41.09
573.562	41.34
573.757	41.29
573.952	41.24
574.147	41.38
574.342	41.42
574.537	41.55
574.732	41.53
574.927	41.54
575.121	41.48
575.316	41.24
575.511	41.12
575.706	41.15
575.901	41.32
576.096	41.37
576.29	41.17
576.485	41.15
576.68	41.19
576.875	41.68
577.069	41.63
577.264	41.77
577.459	41.95
577.654	42.16
577.848	42.12
578.043	42.2
578.238	42.11
578.432	42.38
578.627	42.3
578.821	42.1
579.016	42.02
579.21	42
579.405	41.92
579.6	41.91
579.794	41.92
579.989	41.94
580.183	41.84
580.378	41.94
580.572	41.95
580.766	42.15
580.961	42.14
581.155	41.96
581.35	41.98
581.544	42.16
581.738	42.06
581.933	42.24
582.127	42.36
582.321	42.61
582.516	42.79
582.71	42.52
582.904	42.44
583.099	42.68
583.293	42.62
583.487	42.6
583.681	42.41
583.875	42.32
584.07	42.24
584.264	42.01
584.458	41.79
584.652	41.85
584.846	41.9
585.04	41.76
585.234	41.55
585.428	41.7
585.623	41.69
585.817	41.82
586.011	41.92
586.205	42.02
586.399	42.04
586.593	41.89
586.787	41.6
586.981	41.73
587.174	41.63
587.368	41.73
587.562	41.78
587.756	41.71
587.95	41.57
588.144	41.68
588.338	41.69
588.532	42.04
588.725	42.18
588.919	42.44
589.113	42.29
589.307	42.52
589.501	42.43
589.694	42.33
589.888	42.52
590.082	42.76
590.275	42.6
590.469	42.54
590.663	42.34
590.856	42.39
591.05	42.22
591.244	42.32
591.437	42.33
591.631	42.53
591.824	42.42
592.018	42.42
592.212	42.58
592.405	42.64
592.599	42.48
592.792	42.38
592.986	42.43
593.179	42.68
593.372	42.72
593.566	42.9
593.759	42.93
593.953	43.03
594.146	43.14
594.339	42.7
594.533	42.7
594.726	42.84
594.92	42.74
595.113	42.64
595.306	42.66
595.499	42.75
595.693	42.63
595.886	42.74
596.079	42.85
596.272	42.82
596.466	42.96
596.659	43.09
596.852	42.93
597.045	43.06
597.238	43.11
597.431	43.06
597.624	43.13
597.818	43.19
598.011	43.01
598.204	43.17
598.397	43.22
598.59	43.47
598.783	43.6
598.976	43.69
599.169	43.99
599.362	43.98
599.555	43.85
599.748	43.81
599.941	43.88
600.134	44.1
600.326	43.75
600.519	43.55
600.712	43.22
600.905	43.09
601.098	43.23
601.291	43.06
601.483	43.01
601.676	43.28
601.869	43.43
602.062	43.24
602.255	43.14
602.447	43.25
602.64	43.47
602.833	43.55
603.025	43.55
603.218	43.44
603.411	43.3
603.603	43.26
603.796	42.99
603.989	42.83
604.181	42.8
604.374	42.91
604.566	42.95
604.759	42.92
604.951	42.81
605.144	42.95
605.336	43.16
605.529	43.14
605.721	43.26
605.914	43.37
606.106	43.38
606.299	43.69
606.491	43.76
606.683	43.79
606.876	43.76
607.068	44.24
607.26	44.21
607.453	44.08
607.645	44.16
607.837	44.35
608.03	44.28
608.222	44.28
608.414	44.08
608.606	43.92
608.799	44.05
608.991	43.96
609.183	43.46
609.375	43.28
609.567	43.25
609.759	43.19
609.952	42.97
610.144	43.13
610.336	43.19
610.528	43.17
610.72	43.39
610.912	43.06
611.104	43.18
611.296	43.24
611.488	43.54
611.68	43.52
611.872	43.62
612.064	43.82
612.256	43.73
612.448	43.55
612.64	43.72
612.832	43.45
613.023	43.85
613.215	43.78
613.407	43.95
613.599	43.49
613.791	43.56
613.983	43.56
614.174	43.5
614.366	43.58
614.558	43.82
614.75	43.59
614.941	43.35
615.133	43.29
615.325	43.45
615.516	43.63
615.708	44
615.9	44.27
616.091	44.31
616.283	44.05
616.475	44.27
616.666	44.2
616.858	44.44
617.049	44.9
617.241	44.6
617.432	44.61
617.624	44.38
617.815	43.89
618.007	44.11
618.198	44.07
618.39	44.35
618.581	43.94
618.773	43.91
618.964	43.74
619.155	43.4
619.347	43.8
619.538	43.73
619.729	44.15
619.921	44.8
620.112	44.41
620.303	44.52
620.494	44.33
620.686	44.63
620.877	44.69
621.068	45.02
621.259	45.05
621.451	45.06
621.642	44.7
621.833	44.32
622.024	43.93
622.215	43.81
622.406	43.88
622.597	43.93
622.788	43.72
622.98	43.5
623.171	43.15
623.362	42.85
623.553	42.73
623.744	43.05
623.935	43.23
624.126	43.47
624.317	43.46
624.508	43.2
624.698	43.23
624.889	43.22
625.08	43.4
625.271	43.56
625.462	43.76
625.653	43.86
625.844	44.06
626.034	43.67
626.225	43.58
626.416	43.82
626.607	44.05
626.798	44.14
626.988	44.26
627.179	44.25
627.37	44.4
627.56	44.42
627.751	44.31
627.942	44.19
628.132	44.71
628.323	44.63
628.514	44.35
628.704	44.23
628.895	44.07
629.085	44.02
629.276	43.94
629.466	43.82
629.657	43.9
629.847	43.86
630.038	43.96
630.228	43.98
630.419	43.88
630.609	44.2
630.8	44.24
630.99	44.61
631.181	44.69
631.371	44.71
631.561	44.67
631.752	44.82
631.942	44.75
632.132	44.18
632.323	44.04
632.513	44.17
632.703	43.86
632.893	44.13
633.084	43.95
633.274	43.68
633.464	43.59
633.654	43.47
633.844	43.5
634.034	43.37
634.225	43.63
634.415	43.57
634.605	43.83
634.795	43.67
634.985	43.2
635.175	43.13
635.365	43.13
635.555	43.7
635.745	43.56
635.935	43.72
636.125	43.74
636.315	43.92
636.505	43.83
636.695	43.64
636.885	43.74
637.075	44.07
637.265	44.08
637.455	44.21
637.644	43.73
637.834	44.21
638.024	43.83
638.214	44.2
638.404	44.2
638.593	44.58
638.783	44.49
638.973	44.94
639.163	44.82
639.352	44.8
639.542	44.82
639.732	44.86
639.921	44.56
640.111	44.54
640.301	44.4
640.49	44.5
640.68	44.41
640.87	44.35
641.059	44.07
641.249	44.19
641.438	44.06
641.628	44.47
641.817	44.43
642.007	44.62
642.196	45
642.386	45.01
642.575	44.6
642.764	44.36
642.954	44.55
643.143	44.69
643.333	44.65
643.522	45.32
643.711	44.94
643.901	45.08
644.09	44.7
644.279	44.78
644.469	44.81
644.658	45.18
644.847	45.4
645.036	45.43
645.226	45.3
645.415	45.08
645.604	44.24
645.793	44.42
645.982	44.28
646.171	44.12
646.361	43.72
646.55	43.93
646.739	43.88
646.928	43.6
647.117	43.81
647.306	43.96
647.495	44.03
647.684	44.44
647.873	44.57
648.062	44.71
648.251	44.57
648.44	44.6
648.629	44.39
648.818	44.71
649.007	44.72
649.196	44.22
649.384	43.83
649.573	44.15
649.762	44.04
649.951	43.88
650.14	43.56
650.328	44.03
650.517	43.91
650.706	43.96
650.895	43.75
651.083	43.92
651.272	44.17
651.461	43.97
651.65	44.06
651.838	44.41
652.027	44.25
652.216	44.4
652.404	44.54
652.593	44.68
652.781	44.46
652.97	44.45
653.158	44.32
653.347	44.41
653.535	44.7
653.724	44.27
653.912	43.56
654.101	43.32
654.289	43.65
654.478	43.62
654.666	43.71
654.855	44.12
655.043	44.06
655.231	44.06
655.42	44.04
655.608	44.05
655.796	44.19
655.985	44.42
656.173	44.8
656.361	44.93
656.55	44.6
656.738	44.58
656.926	44.44
657.114	44.22
657.302	44.53
657.491	44.42
657.679	44.77
657.867	44.94
658.055	45.12
658.243	44.67
658.431	44.49
658.619	44.96
658.807	45.07
658.996	44.87
659.184	45.17
659.372	44.73
659.56	44.65
659.748	44.62
659.936	44.3
660.124	44.12
660.311	44.51
660.499	44.56
660.687	44.43
660.875	44.09
661.063	44.29
661.251	43.9
661.439	44.22
661.627	44.16
661.814	43.77
662.002	44.24
662.19	44.29
662.378	44.11
662.565	43.66
662.753	43.67
662.941	43.8
663.129	43.64
663.316	43.9
663.504	43.77
663.692	43.8
663.879	44.42
664.067	44.31
664.254	44.45
664.442	44.38
664.63	44.87
664.817	44.4
665.005	44.61
665.192	44.7
665.38	44.5
665.567	44.55
665.755	44.69
665.942	44.47
666.13	44.12
666.317	43.99
666.504	44.2
666.692	43.91
666.879	44.02
667.067	43.69
667.254	43.61
667.441	43.8
667.629	44.04
667.816	44.03
668.003	44.32
668.19	44.21
668.378	44.31
668.565	44.61
668.752	44.79
668.939	44.85
669.127	44.98
669.314	45.04
669.501	45.22
669.688	45.09
669.875	45.25
670.062	44.78
670.249	45.14
670.436	45.2
670.623	44.63
670.81	44.42
670.997	44.21
671.184	44.15
671.371	44.06
671.558	43.88
671.745	43.61
671.932	43.47
672.119	43.17
672.306	43.59
672.493	43.48
672.68	43.73
672.867	43.6
673.054	43.39
673.24	43.72
673.427	43.47
673.614	43.33
673.801	43.14
673.988	43.21
674.174	43.74
674.361	43.51
674.548	43.84
674.734	44.17
674.921	44.41
675.108	44.85
675.294	44.83
675.481	45.09
675.668	45.23
675.854	45.65
676.041	45.43
676.227	45.74
676.414	45.54
676.601	45.18
676.787	44.98
676.974	44.93
677.16	45.2
677.347	45.2
677.533	45.27
677.719	45.35
677.906	44.85
678.092	44.93
678.279	44.67
678.465	44.61
678.651	44.74
678.838	44.38
679.024	44.61
679.21	44.43
679.397	44.05
679.583	43.96
679.769	44.01
679.955	44.29
680.142	44.16
680.328	43.86
680.514	43.77
680.7	43.89
680.886	44.1
681.073	43.63
681.259	43.57
681.445	44
681.631	44.36
681.817	44.3
682.003	44.75
682.189	44.97
682.375	44.74
682.561	44.89
682.747	44.67
682.933	44.9
683.119	45.46
683.305	45.87
683.491	45.72
683.677	45.19
683.863	45.25
684.049	45.16
684.235	45.3
684.42	45.7
684.606	45.67
684.792	45.78
684.978	45.76
685.164	45.62
685.349	45.08
685.535	45.4
685.721	45.59
685.907	45.43
686.092	45.35
686.278	45.36
686.464	45.84
686.649	45.81
686.835	45.7
687.021	45.59
687.206	45.35
687.392	45.66
687.577	45.75
687.763	46.34
687.948	45.84
688.134	46.08
688.319	46.05
688.505	45.88
688.69	46.2
688.876	46.24
689.061	46.02
689.247	46.76
689.432	47.13
689.618	46.71
689.803	46.36
689.988	47.03
690.174	46.43
690.359	46.39
690.544	45.55
690.73	45.49
690.915	45.32
691.1	45.88
691.285	45.35
691.471	44.93
691.656	44.73
691.841	44.68
692.026	44.24
692.211	44.16
692.396	43.92
692.582	44.85
692.767	44.82
692.952	44.99
693.137	45.11
693.322	45.09
693.507	44.76
693.692	44.7
693.877	44.7
694.062	45.08
694.247	44.66
694.432	44.09
694.617	43.41
694.802	43.35
694.987	43.19
695.172	42.7
695.357	42.7
695.541	43.36
695.726	43.48
695.911	43.67
696.096	43.74
696.281	44.18
696.466	44.72
696.65	45.42
696.835	45.22
697.02	45.58
697.204	44.88
697.389	44.82
697.574	44.21
697.759	44.42
697.943	43.68
698.128	43.47
698.312	43.35
698.497	43.53
698.682	43.06
698.866	43.38
699.051	43.44
699.235	43.97
699.42	43.78
699.604	44.25
699.789	43.9
699.973	44.41
700.158	44.21
700.342	44.13
700.527	44.05
700.711	44.47
700.895	43.79
701.08	43.52
701.264	43.18
701.448	43.41
701.633	43.08
701.817	43.55
702.001	43
702.186	43.7
702.37	44.13
702.554	44.18
702.738	44.12
702.923	44.8
703.107	44.84
703.291	45.35
703.475	45.64
703.659	45.12
703.843	45.31
704.027	45.89
704.212	45.72
704.396	45.98
704.58	45.96
704.764	45.69
704.948	45.23
705.132	45.69
705.316	45.41
705.5	45.56
705.684	45.6
705.868	45.32
706.052	45.39
706.235	45.57
706.419	45.6
706.603	45.88
706.787	46.42
706.971	46.28
707.155	45.53
707.339	46
707.522	45.79
707.706	46.68
707.89	46.82
708.074	45.89
708.257	45.29
708.441	44.94
708.625	44.32
708.808	44.08
708.992	44.62
709.176	44.88
709.359	44.14
709.543	43.69
709.727	43.11
709.91	42.92
710.094	43.6
710.277	43.42
710.461	43.89
710.644	44.37
710.828	44.12
711.011	43.74
711.195	43.66
711.378	44.47
711.562	44.48
711.745	44.67
711.928	44.97
712.112	44.91
712.295	45.26
712.478	45.13
712.662	44.51
712.845	44.74
713.028	45.03
713.212	45.19
713.395	44.58
713.578	44.81
713.761	44.55
713.945	44.5
714.128	44.88
714.311	45.29
714.494	44.82
714.677	45.53
714.86	44.75
715.043	44.73
715.227	44.52
715.41	45.36
715.593	45.16
715.776	45.54
715.959	44.96
716.142	45.06
716.325	44.66
716.508	44.66
716.691	44.28
716.874	44.61
717.057	44.71
717.239	45.13
717.422	44.5
717.605	44.72
717.788	44.02
717.971	44.48
718.154	43.74
718.337	43.84
718.519	44.06
718.702	43.9
718.885	44.68
719.068	44.46
719.25	44.36
719.433	44.09
719.616	44.03
719.798	44.65
719.981	43.37
720.164	43.57
720.346	43.44
720.529	43.62
720.712	43.12
720.894	43.01
721.077	42.71
721.259	43.18
721.442	43.04
721.624	42.54
721.807	42.57
721.989	43.76
722.172	44.35
722.354	43.39
722.537	42.48
722.719	43.85
722.901	43.03
723.084	43.47
723.266	43.17
723.448	42.95
723.631	43.37
723.813	43.3
723.995	43.43
724.178	42.84
724.36	44.2
724.542	44.64
724.724	44.12
724.907	43.96
725.089	44.39
725.271	43.79
725.453	44.85
725.635	44.72
725.817	45.02
725.999	45.48
726.181	46.23
726.364	46.19
726.546	47.01
726.728	46.49
726.91	47.01
727.092	46.59
727.274	46.91
727.456	46.82
727.638	47.08
727.819	46.98
728.001	46.1
728.183	45.41
728.365	45.26
728.547	44.78
728.729	45.36
728.911	45.87
729.093	45.26
729.274	45.56
729.456	45.55
729.638	45.71
729.82	45.23
730.001	46.08
730.183	46.45
730.365	46.78
730.546	47.15
730.728	47.66
730.91	46.44
731.091	46.74
731.273	45.88
731.455	45.96
731.636	45.23
731.818	45.26
731.999	44.72
732.181	44.9
732.362	44.21
732.544	43.64
732.725	42.33
732.907	43.2
733.088	43.44
733.27	43.95
733.451	43.33
733.633	43.89
733.814	43.28
733.995	43.59
734.177	43.14
734.358	43.08
734.539	43.63
734.721	44.32
734.902	44.6
735.083	44.38
735.264	43.94
735.446	44.45
735.627	44.38
735.808	43.78
735.989	43.38
736.17	43.95
736.351	44.02
736.533	44.55
736.714	44.38
736.895	43.52
737.076	43.51
737.257	43.36
737.438	43.79
737.619	44.01
737.8	45.56
737.981	45.37
738.162	45.28
738.343	45.11
738.524	44.43
738.705	44.78
738.886	45.46
739.067	45.81
739.247	45.65
739.428	44.35
739.609	43.33
739.79	44.14
739.971	44.2
740.151	43.62
740.332	45.04
740.513	45.23
740.694	45.24
740.874	45.5
741.055	45.97
741.236	46.56
741.417	47.64
741.597	47.12
741.778	45.95
741.958	46.96
742.139	45.57
742.32	43.51
742.5	43.09
742.681	43.3
742.861	42.46
743.042	41.13
743.222	40.7
743.403	40.41
743.583	42.43
743.764	43.34
743.944	42.65
744.124	43.53
744.305	44.18
744.485	43.38
744.666	41.92
744.846	42.59
745.026	42.18
745.207	41.76
745.387	42.2
745.567	41.23
745.747	39.77
745.928	39.72
746.108	39.59
746.288	40.42
746.468	40.27
746.648	41.02
746.829	40.38
747.009	40.64
747.189	41.79
747.369	41.13
747.549	41.92
747.729	43.11
747.909	42.63
748.089	43.6
748.269	43.38
748.449	44.25
748.629	45
748.809	45.71
748.989	46.36
749.169	45.21
749.349	44.75
749.529	44.92
749.709	45.32
749.889	45.76
750.068	45.35
750.248	45.52
750.428	45.12
750.608	44.32
750.788	43.96
750.967	44.32
751.147	44.48
751.327	44.82
751.507	43.45
751.686	42.54
751.866	42.32
752.046	43.2
752.225	42.86
752.405	43.42
752.585	44.82
752.764	45.08
752.944	44.93
753.123	46.34
753.303	45.82
753.482	46.65
753.662	47
753.841	47.05
754.021	47.08
754.2	46.93
754.38	47.87
754.559	47.61
754.739	47.15
754.918	47.26
755.097	46.72
755.277	46.52
755.456	45.7
755.635	43.88
755.815	44.08
755.994	42.64
756.173	41.95
756.352	41.49
756.532	40.25
756.711	40.38
756.89	39.96
757.069	40.23
757.248	40.95
757.427	40.5
757.607	42.65
757.786	43.38
757.965	45.56
758.144	45.94
758.323	45.66
758.502	45.77
758.681	45.55
758.86	46.65
759.039	46.77
759.218	47.98
759.397	48.42
759.576	47.8
759.755	47.11
759.934	45.14
760.113	44.6
760.291	44.17
760.47	43.59
760.649	43.55
760.828	43.46
761.007	42.99
761.186	42
761.364	43.59
761.543	43.45
761.722	43.23
761.901	44.46
762.079	46.24
762.258	45.66
762.437	46.27
762.615	46.22
762.794	45.33
762.972	45.61
763.151	44.92
763.33	43.73
763.508	43.8
763.687	45.04
763.865	44.38
764.044	43.36
764.222	44.62
764.401	44.35
764.579	44.5
764.758	43.85
764.936	42.97
765.114	44.29
765.293	43.67
765.471	43.57
765.65	42.76
765.828	43.19
766.006	45.08
766.184	43.08
766.363	42.75
766.541	42.2
766.719	42.54
766.898	42.61
767.076	41.05
767.254	41.76
767.432	42.07
767.61	40.99
767.788	41.1
767.967	39.37
768.145	41.04
768.323	41.6
768.501	41.61
768.679	40.62
768.857	41.62
769.035	40.68
769.213	40.46
769.391	39.62
769.569	40.49
769.747	40.3
769.925	41.04
770.103	40.98
770.281	42.45
770.459	42.51
770.636	44.95
770.814	45.02
770.992	46.53
771.17	49.09
771.348	48.51
771.525	46.74
771.703	46.77
771.881	44.99
772.059	45.28
772.236	45.32
772.414	46.59
772.592	45.97
772.769	45.67
772.947	46.42
773.125	45.3
773.302	47.74
773.48	48.44
773.657	48.33
773.835	48.34
774.013	47.56
774.19	45.81
774.368	45.85
774.545	47.63
774.723	48.32
774.9	47.41
775.077	46.46
775.255	45.81
775.432	44.88
775.61	43.92
775.787	45.36
775.964	44.07
776.142	44.09
776.319	44.8
776.496	43.09
776.674	41.77
776.851	41.39
777.028	41.38
777.205	39.39
777.382	42.06
777.56	41.64
777.737	40.15
777.914	39.81
778.091	39.82
778.268	38.78
778.445	39.01
778.622	40.34
778.8	41.12
778.977	42.43
779.154	42.23
779.331	41.72
779.508	42.34
779.685	44.08
779.862	46.05
780.038	45.25
780.215	44.45
780.392	44.07
780.569	44.07
780.746	43.58
780.923	41.93
781.1	44.1
781.277	45.01
781.453	42.02
781.63	40.31
781.807	38.52
781.984	38.72
782.16	38.9
782.337	38.6
782.514	33.16
782.691	33.53
782.867	31.47
783.044	31.47
783.221	27.92
783.397	31.81
783.574	31.59
783.75	32.67
783.927	35.75
784.103	35.63
784.28	38.47
784.456	42.89
784.633	43.72
784.809	46.69
784.986	43.52
785.162	44.91
785.339	44.34
785.515	43.2
785.692	43.06
785.868	40.73
786.044	40.22
786.221	38.67
786.397	38.26
786.573	36.72
786.749	34.73
786.926	36.2
787.102	36.14
787.278	36.32
787.454	36.26
787.631	37.66
787.807	38.98
787.983	40.58
788.159	40.39
788.335	40.14
788.511	41.44
788.687	42.94
788.863	43.12
789.039	42.73
789.216	44.06
789.392	47.45
789.568	45.89
789.744	45.02
789.919	45
790.095	45.5
790.271	44.39
790.447	44.16
790.623	44.54
790.799	44.53
790.975	45.8
791.151	46.75
791.327	44.79
791.502	45.83
791.678	47.17
791.854	46.96
792.03	49.15
792.205	48.56
792.381	46.87
792.557	44.38
792.733	45.3
792.908	44.25
793.084	41.07
793.259	41.28
793.435	40.13
793.611	40.52
793.786	40.49
793.962	37.88
794.137	39.42
794.313	40.79
794.488	43.33
794.664	42.96
794.839	42.31
795.015	43.18
795.19	39.69
795.366	41.37
795.541	40.64
795.716	41.84
795.892	40.54
796.067	41.3
796.242	39.98
796.418	38.14
796.593	41.28
796.768	43.72
796.944	44.66
797.119	47.17
797.294	45.89
797.469	44.43
797.644	39.19
797.82	38.16
797.995	37
798.17	39.07
798.345	39.43
798.52	35.87
798.695	33.45
798.87	31.78
799.045	31.88
799.22	30.86
799.395	30.42
799.57	32.59
799.745	35.54
799.92	36
800.095	34.7
800.27	35.98
800.445	37.68
800.62	38.33
800.795	40.38
800.97	38.86
801.145	40.59
801.319	41.31
801.494	42.47
801.669	45.35
801.844	42.22
802.018	43.49
802.193	43.57
802.368	45.04
802.543	46.89
802.717	46.57
802.892	47.12
803.067	45.1
803.241	45.88
803.416	44.92
803.59	39.34
803.765	44.07
803.94	47.02
804.114	44.74
804.289	43.12
804.463	38.7
804.638	37.17
804.812	38.88
804.986	43.68
805.161	45.7
805.335	45.26
805.51	49.33
805.684	47.73
805.858	44.16
806.033	44.15
806.207	45.29
806.381	48.87
806.556	48.64
806.73	48.34
806.904	47.98
807.078	46.43
807.253	47.57
807.427	45.24
807.601	46.55
807.775	41.46
807.949	43.21
808.123	40.73
808.298	44.95
808.472	45.35
808.646	46.28
808.82	42.94
808.994	41.93
809.168	41.6
809.342	41.47
809.516	39.54
809.69	43.26
809.864	46.3
810.038	46.61
810.212	43.35
810.385	42.69
810.559	43.31
810.733	41.86
810.907	39.62
811.081	37.4
811.255	38.9
811.428	38.53
811.602	39.78
811.776	33.09
811.95	33.33
812.123	26.75
812.297	26.99
812.471	26.11
812.644	28.35
812.818	31.91
812.992	32.92
813.165	32.17
813.339	33.09
813.512	30.46
813.686	32.74
813.86	30.15
814.033	34.55
814.207	36.51
814.38	36.54
814.554	36.06
814.727	38.48
814.9	37.02
815.074	36.13
815.247	34.32
815.421	32.68
815.594	36.09
815.767	41.34
815.941	46.05
816.114	46.76
816.287	51.12
816.46	53.42
816.634	49.31
816.807	51.92
816.98	51.64
817.153	52.8
817.327	55.31
817.5	54.82
817.673	50.95
817.846	50.67
818.019	53.24
818.192	47.64
818.365	43.87
818.538	43.85
818.711	47.85
818.884	50.3
819.057	50.66
819.23	49.66
819.403	46.09
819.576	47.87
819.749	44.91
819.922	39.84
820.095	40.27
820.268	41.66
820.441	43.5
820.614	39.92
820.786	40.14
820.959	38.2
821.132	39.39
821.305	39.31
821.477	39.55
821.65	39.2
821.823	39.43
821.996	39.99
822.168	40.15
822.341	39.39
822.514	40.36
822.686	39.82
822.859	40.4
823.031	40.42
823.204	40.82
823.376	40.79
823.549	40.57
823.722	40.96
823.894	40.52
824.067	40.16
824.239	40.15
824.411	40.4
824.584	39.23
824.756	39.21
824.929	38.56
825.101	38.49
825.273	39.71
825.446	40.2
825.618	39.6
825.79	40.62
825.963	40.76
826.135	40.65
826.307	40.44
826.479	42.64
826.652	42.74
826.824	44.05
826.996	43.33
827.168	41.95
827.34	42.41
827.512	42.95
827.684	42.35
827.856	42.69
828.029	43.97
828.201	43.39
828.373	43.59
828.545	42.83
828.717	43.8
828.889	45.63
829.061	45.12
829.232	44.87
829.404	45.43
829.576	45.04
829.748	43.91
829.92	41.02
830.092	41.56
830.264	40.28
830.436	40.29
830.607	38.03
830.779	38.09
830.951	40.79
831.123	40.95
831.294	41.13
831.466	41.56
831.638	43.22
831.809	46.3
831.981	47.36
832.153	45.98
832.324	46.19
832.496	44.29
832.667	40.89
832.839	38.02
833.011	37.43
833.182	35.66
833.354	36.13
833.525	35.32
833.697	35
833.868	34.03
834.039	33.02
834.211	33.63
834.382	35.22
834.554	35.68
834.725	34.58
834.896	36.64
835.068	34.48
835.239	32.71
835.41	34.47
835.581	37.31
835.753	36
835.924	35.72
836.095	37.07
836.266	39.75
836.438	37.55
836.609	35.83
836.78	31.99
836.951	36.75
837.122	40.72
837.293	38.78
837.464	31.65
837.635	33.11
837.806	33.58
837.977	35.47
838.148	29.62
838.319	35.42
838.49	38.16
838.661	43.78
838.832	38.94
839.003	36.16
839.174	40.45
839.345	45.47
839.516	48.39
839.687	50.53
839.857	50.1
840.028	48.24
840.199	48.21
840.37	56.05
840.54	53.07
840.711	53.57
840.882	53.6
841.053	49.99
841.223	46.22
841.394	36.3
841.564	41.7
841.735	39.2
841.906	45.56
842.076	44.13
842.247	38.13
842.417	34.16
842.588	32.72
842.758	34.54
842.929	35.58
843.099	43.68
843.27	52.64
843.44	43.45
843.611	36.99
843.781	30.81
843.951	32.68
844.122	30.95
844.292	39.3
844.462	46.05
844.633	37.07
844.803	43.11
844.973	38.16
845.144	36.91
845.314	44.77
845.484	47.79
845.654	49.7
845.824	42.89
845.995	41.48
846.165	33.3
846.335	33.61
846.505	47.44
846.675	43.58
846.845	39.59
847.015	39.49
847.185	35.6
847.355	47.85
847.525	42.39
847.695	54.94
847.865	64.94
848.035	65.78
848.205	52.71
848.375	44.59
848.545	41.76
848.715	50.63
848.884	58.56
849.054	62.55
849.224	62.28
849.394	73.48
849.564	57.71
849.733	42.55
849.903	41.13
850.073	55.67
850.243	62.1
850.412	64.78
850.582	55.78
850.752	47.12
850.921	45.24
851.091	50.09
851.26	53.63
851.43	50.8
851.599	50.96
851.769	37.3
851.939	41.78
852.108	38.47
852.278	28.02
852.447	21.51
852.616	33.03
852.786	31.98
852.955	17.25
853.125	22.2
853.294	35.99
853.463	44.21
853.633	55.1
853.802	62.69
853.971	60.56
854.141	60.44
854.31	73.59
854.479	73.24
854.648	78.14
854.818	94.52
854.987	91.51
855.156	105.45
855.325	94.62
855.494	95.37
855.663	86.94
855.832	99.71
856.001	107.69
856.171	105.85
856.34	85.58
856.509	82.97
856.678	54.37
856.847	54.47
857.016	45.01
857.185	47.05
857.353	42.24
857.522	33.82
857.691	29.12
857.86	24.45
858.029	25.83
858.198	26.8
858.367	19.32
858.535	35.69
858.704	33.15
858.873	39.51
859.042	39.41
859.21	31.95
859.379	29.02
859.548	21.35
859.717	25.19
859.885	21.71
860.054	29.57
860.222	19.28
860.391	21.57
860.56	26.18
860.728	31.11
860.897	28.62
861.065	25.31
861.234	21.09
861.402	22.86
861.571	30.02
861.739	26.94
861.908	15.14
862.076	27.31
862.244	36.2
862.413	34.7
862.581	30.3
862.749	38.37
862.918	47.09
863.086	54.78
863.254	53.73
863.423	46.15
863.591	49.26
863.759	51.31
863.927	48.6
864.096	32.92
864.264	27.01
864.432	26.18
864.6	10.55
864.768	-5.23
864.936	-18.34
865.104	-18.48
865.272	-13.46
865.44	-25.58
865.608	-1.62
865.776	-22.71
865.944	9.44
866.112	35.99
866.28	48.94
866.448	35.61
866.616	42.58
866.784	60.35
866.952	83.73
867.12	75.59
867.288	77.75
867.455	61
867.623	84.67
867.791	70.5
867.959	57.7
868.127	39.27
868.294	48.71
868.462	46.21
868.63	38.86
868.797	33.73
868.965	41.08
869.133	37.06
869.3	36.89
869.468	27.82
869.636	21.66
869.803	15.02
869.971	29.93
870.138	45.3
870.306	58.34
870.473	69.27
870.641	78.22
870.808	81.78
870.975	75.03
871.143	77.06
871.31	88.67
871.478	105.6
871.645	119.94
871.812	106.06
871.98	79.67
872.147	81.08
872.314	76
872.482	64.64
872.649	56.52
872.816	64.69
872.983	75.43
873.15	68.24
873.318	60.63
873.485	62.84
873.652	65.31
873.819	65.73
873.986	58.35
874.153	49.29
874.32	57.65
874.487	68.72
874.654	70.26
874.821	57.04
874.988	58.32
875.155	55.51
875.322	43.98
875.489	57.49
875.656	65.81
875.823	59.43
875.99	65.66
876.157	67.64
876.324	68.1
876.49	62.71
876.657	60.68
876.824	60.64
876.991	51.72
877.157	54.61
877.324	50.57
877.491	45.61
877.658	58.18
877.824	65.17
877.991	56.66
878.157	53.81
878.324	61.08
878.491	58.53
878.657	64.61
878.824	92.37
878.99	89.2
879.157	96.37
879.323	81.77
879.49	58.19
879.656	55.33
879.823	61.98
879.989	56.28
880.156	54.5
880.322	64.73
880.488	66.4
880.655	55.94
880.821	47.88
880.987	53.7
881.154	65.77
881.32	68.24
881.486	60.86
881.652	58.19
881.819	55.74
881.985	50.5
882.151	49.21
882.317	45.37
882.483	46.7
882.649	51.3
882.816	49.24
882.982	45.74
883.148	43.05
883.314	42.53
883.48	43.02
883.646	42
883.812	40.48
883.978	39.75
884.144	39.1
884.31	38.67
884.476	34.54
884.642	33.45
884.807	35.46
884.973	36.74
885.139	36.99
885.305	36.17
885.471	39.5
885.637	41.21
885.802	39.31
885.968	40.61
886.134	41.62
886.3	44.46
886.465	49.42
886.631	48.76
886.797	49.85
886.962	49.93
887.128	43.62
887.293	40.89
887.459	37.42
887.625	42.51
887.79	44.49
887.956	37.79
888.121	36.91
888.287	28.21
888.452	20.32
888.618	12.09
888.783	10.58
