Data from 2938029_Reflection_2.txt Node
Date: Sun Jul 12 15:06:03 EDT 2015
User: robert
Spectrometer: USB4E03001
Autoset integration time: false
Trigger mode: 4
Integration Time (sec): 1.000000E-1
Scans to average: 10
Electric dark correction enabled: true
Nonlinearity correction enabled: false
Boxcar width: 5
Stray light correction enabled: false
XAxis mode: Wavelengths
Stop averaging: false
Number of Pixels in Spectrum: 3648
>>>>>Begin Spectral Data<<<<<
177.566	104.8
177.785	189.98
178.005	191.86
178.225	86.11
178.445	103.66
178.665	91.53
178.885	262.92
179.105	28.91
179.324	45.03
179.544	63.29
179.764	54.44
179.984	73.03
180.204	69.42
180.423	63.71
180.643	62.23
180.863	57.56
181.083	39.36
181.302	34.4
181.522	27.53
181.742	0.64
181.961	-21.88
182.181	-16.57
182.401	-40.82
182.621	-22.19
182.84	-156.97
183.06	-184.29
183.279	-112.35
183.499	-6.33
183.719	-11.59
183.938	-20.96
184.158	8.5
184.377	18.48
184.597	-8.06
184.816	7.31
185.036	9.48
185.256	54.2
185.475	58.38
185.695	38.33
185.914	12.64
186.134	43.99
186.353	96.67
186.572	27.96
186.792	42.35
187.011	147.29
187.231	55.84
187.45	74.55
187.67	-6.76
187.889	10.34
188.108	29.24
188.328	31.47
188.547	33.87
188.766	18.87
188.986	47.56
189.205	41.48
189.424	36.51
189.644	55.08
189.863	36.05
190.082	43.07
190.302	37.83
190.521	30.76
190.74	40.26
190.959	37.42
191.178	29.59
191.398	28.43
191.617	21.83
191.836	20.71
192.055	9.5
192.274	30.51
192.494	39.49
192.713	46.15
192.932	49.12
193.151	34.79
193.37	22.34
193.589	41.02
193.808	41.97
194.027	29.05
194.246	48.78
194.465	63.58
194.685	73.48
194.904	72.11
195.123	63.21
195.342	51.86
195.561	62.75
195.78	176.62
195.999	-7305
196.218	37.4
196.436	193.62
196.655	-128.59
196.874	3775.51
197.093	-131.58
197.312	-78.18
197.531	-78.24
197.75	-51.72
197.969	-45.91
198.188	-40.85
198.407	-2.24
198.625	7.1
198.844	16.15
199.063	54.44
199.282	69.5
199.501	83.16
199.719	78.62
199.938	76.49
200.157	68.27
200.376	65.71
200.594	26.97
200.813	37.61
201.032	47.28
201.251	72.43
201.469	86.1
201.688	85.64
201.907	75.26
202.125	62.8
202.344	54.08
202.563	73.76
202.781	65.34
203	59.45
203.218	36.62
203.437	-3.66
203.656	-33.38
203.874	-94.7
204.093	-110.38
204.311	-50.71
204.53	-16.5
204.748	-88.39
204.967	-490.2
205.185	-168.32
205.404	-235.78
205.622	-230.63
205.841	1092.54
206.059	850.09
206.278	-671.34
206.496	-611.63
206.715	-420.91
206.933	119714.29
207.151	-644.68
207.37	-279.84
207.588	-177.21
207.806	-54.48
208.025	-120.27
208.243	-114.69
208.461	-71.38
208.68	-56.35
208.898	-47.69
209.116	-48.03
209.335	-7.34
209.553	-6.38
209.771	-14.06
209.989	-2.61
210.208	-20.77
210.426	8.41
210.644	4.65
210.862	-7.7
211.081	-19.59
211.299	-17.37
211.517	-2.92
211.735	-76.61
211.953	-46.77
212.171	-31.49
212.39	-33.96
212.608	-28.66
212.826	-31.61
213.044	18.92
213.262	37.92
213.48	33.51
213.698	40.05
213.916	32.34
214.134	58.34
214.352	37.6
214.57	46.62
214.788	15.74
215.006	-30.18
215.224	-143.15
215.442	516.13
215.66	208.43
215.878	1026.95
216.096	-1113.37
216.314	-70.9
216.532	-305.34
216.75	-263.27
216.968	-298.83
217.185	-75.36
217.403	5.54
217.621	20.76
217.839	24.93
218.057	19.63
218.275	23.35
218.492	5.12
218.71	10.75
218.928	58.05
219.146	53.41
219.363	46.54
219.581	30.54
219.799	11.07
220.017	19.27
220.234	18.6
220.452	29.52
220.67	19.81
220.887	15.31
221.105	9.25
221.323	10.3
221.54	25.05
221.758	38.78
221.976	35.04
222.193	11.73
222.411	-2.47
222.629	3.44
222.846	0.74
223.064	5.07
223.281	7.15
223.499	3.9
223.716	-12.49
223.934	-22.71
224.151	-28.44
224.369	-27.58
224.586	-11.18
224.804	-5.84
225.021	-6.4
225.239	-16.14
225.456	-19.64
225.674	-20.18
225.891	-12.87
226.108	-10.48
226.326	-10.93
226.543	-4.39
226.76	-6.2
226.978	5.68
227.195	6.55
227.413	4.02
227.63	6.33
227.847	13.89
228.064	17.61
228.282	18.53
228.499	20.34
228.716	22.4
228.934	20.41
229.151	19.21
229.368	15.23
229.585	13.54
229.802	14.12
230.02	13.39
230.237	10.8
230.454	8.54
230.671	7.17
230.888	2.57
231.105	0.1
231.323	-5.75
231.54	-3.16
231.757	-4.59
231.974	-4.69
232.191	-7.45
232.408	-6.36
232.625	-3.49
232.842	-6.71
233.059	-10.47
233.276	-5.58
233.493	-13.36
233.71	-11.8
233.927	-17.17
234.144	-13.23
234.361	-7.94
234.578	-4.7
234.795	-6.68
235.012	-5.4
235.229	2.73
235.446	2.84
235.663	-0.73
235.879	1.53
236.096	3.88
236.313	8.62
236.53	11.47
236.747	7.8
236.964	3.34
237.181	2.71
237.397	-1.42
237.614	-6.9
237.831	-0.92
238.048	4.19
238.264	9.86
238.481	8.73
238.698	1.39
238.915	-1.74
239.131	2.97
239.348	4.53
239.565	10.8
239.781	16.5
239.998	17.72
240.215	14.9
240.431	15.07
240.648	16.76
240.865	19.59
241.081	23.72
241.298	22.38
241.514	19.68
241.731	19
241.947	16.37
242.164	13.29
242.38	13.01
242.597	12.02
242.814	12.18
243.03	10.94
243.246	9.45
243.463	6.2
243.679	6.42
243.896	5.97
244.112	6.85
244.329	6.17
244.545	6.86
244.762	6.39
244.978	8.21
245.194	8.86
245.411	8.8
245.627	7.72
245.843	10.79
246.06	10.69
246.276	11.58
246.492	12.66
246.709	13.95
246.925	13.74
247.141	14.08
247.357	14.43
247.574	13.4
247.79	13.99
248.006	14.39
248.222	14.32
248.439	14.01
248.655	13.71
248.871	11.39
249.087	9.65
249.303	8.87
249.519	6.88
249.736	3.91
249.952	2.66
250.168	-0.14
250.384	-1.05
250.6	-2.66
250.816	-1.75
251.032	-1.18
251.248	0.95
251.464	2.36
251.68	3.32
251.896	5.01
252.112	4.65
252.328	6.11
252.544	6.3
252.76	5.25
252.976	4.38
253.192	4.27
253.408	3.87
253.624	2.77
253.84	3.07
254.056	3.61
254.272	5.25
254.487	8.58
254.703	9.26
254.919	11.16
255.135	14.2
255.351	12.38
255.567	12.01
255.782	11.98
255.998	14.48
256.214	15.73
256.43	14.95
256.646	11.77
256.861	11.01
257.077	10.11
257.293	8.04
257.508	7.39
257.724	9.23
257.94	8.78
258.155	7.6
258.371	7.94
258.587	6.01
258.802	5.84
259.018	6.84
259.234	6.48
259.449	6.77
259.665	6.7
259.88	7.34
260.096	7.95
260.312	7.9
260.527	7.77
260.743	7.57
260.958	8.1
261.174	7.87
261.389	8
261.605	8.33
261.82	7.77
262.036	8.83
262.251	7.94
262.466	6.31
262.682	6.64
262.897	6.22
263.113	5.59
263.328	5.77
263.543	6.57
263.759	6.78
263.974	6.75
264.189	7.83
264.405	5.07
264.62	6.07
264.835	8.38
265.051	8.44
265.266	9.12
265.481	8.5
265.696	8.74
265.912	9.02
266.127	7.76
266.342	8.98
266.557	7.73
266.773	9.67
266.988	9.59
267.203	9.87
267.418	9.72
267.633	10.42
267.848	12.08
268.064	11.33
268.279	10.55
268.494	9.81
268.709	7.42
268.924	7.85
269.139	6.9
269.354	7.17
269.569	6.42
269.784	5.17
269.999	4.89
270.214	3.37
270.429	3.2
270.644	3.89
270.859	5.79
271.074	7.11
271.289	7.5
271.504	9.05
271.719	8.8
271.934	8.14
272.149	9.91
272.363	8.74
272.578	8.77
272.793	8.59
273.008	8.78
273.223	8.43
273.438	8.85
273.653	9.93
273.867	8.55
274.082	8.1
274.297	7.99
274.512	6.08
274.726	6.7
274.941	7.17
275.156	6.74
275.371	5.24
275.585	5.06
275.8	4.6
276.015	3.84
276.229	5.72
276.444	6.21
276.659	6.09
276.873	5.97
277.088	6.31
277.302	6.9
277.517	7.08
277.732	8.23
277.946	7.61
278.161	8.16
278.375	5.91
278.59	4.81
278.804	3.38
279.019	4.58
279.233	6.29
279.448	6.56
279.662	4.61
279.877	5.11
280.091	5.4
280.306	5.12
280.52	4.79
280.735	6.02
280.949	5.7
281.163	6.51
281.378	5.57
281.592	4.59
281.806	4.29
282.021	4.76
282.235	5.71
282.449	5.37
282.664	5.99
282.878	5.39
283.092	5.97
283.307	6.91
283.521	7.27
283.735	9.51
283.949	9.23
284.164	9.8
284.378	9.69
284.592	8.93
284.806	9.65
285.02	9.91
285.234	9.22
285.449	8.83
285.663	7.99
285.877	8.25
286.091	6.32
286.305	5.91
286.519	6.3
286.733	7.09
286.947	8.31
287.161	8.15
287.375	7.04
287.589	7.91
287.803	7.2
288.017	5.77
288.231	5.67
288.445	4.99
288.659	6.8
288.873	6.08
289.087	5.11
289.301	3.63
289.515	2.93
289.729	4.42
289.943	4
290.157	6.28
290.371	7.7
290.584	6.95
290.798	7.84
291.012	7.88
291.226	7.88
291.44	8.14
291.654	8.62
291.867	9.39
292.081	8.66
292.295	8.61
292.509	8.13
292.722	9.31
292.936	10.68
293.15	10.35
293.364	10.18
293.577	11.16
293.791	10.75
294.005	10.39
294.218	9.69
294.432	10.46
294.645	9.8
294.859	9.63
295.073	9.49
295.286	9.12
295.5	9.57
295.713	8.94
295.927	8.12
296.14	8.94
296.354	9.84
296.568	9.93
296.781	9.38
296.994	10.82
297.208	10.66
297.421	10.07
297.635	9.6
297.848	10.15
298.062	10
298.275	10.51
298.489	10.92
298.702	10.85
298.915	11.08
299.129	12.27
299.342	11.67
299.555	10.36
299.769	10.25
299.982	10.26
300.195	9.74
300.409	9.9
300.622	9.23
300.835	8.16
301.048	7.8
301.262	8.14
301.475	6.7
301.688	6.21
301.901	6.91
302.115	7.01
302.328	6.72
302.541	6.95
302.754	7
302.967	8.29
303.18	9.79
303.393	10.48
303.607	9.31
303.82	10.03
304.033	10.2
304.246	11.96
304.459	11.85
304.672	12.44
304.885	11.75
305.098	13.5
305.311	12.97
305.524	11.27
305.737	9.52
305.95	10.04
306.163	10.39
306.376	10.76
306.589	9.86
306.802	11.18
307.015	11.17
307.228	11.62
307.44	8.05
307.653	7.73
307.866	8.32
308.079	8.23
308.292	9.32
308.505	7.67
308.718	9.06
308.93	9.29
309.143	8.69
309.356	8.8
309.569	7.96
309.781	10.01
309.994	9.42
310.207	8.93
310.42	9.94
310.632	9.66
310.845	10.1
311.058	9.12
311.27	8.34
311.483	6.93
311.696	6.98
311.908	8.48
312.121	7.44
312.333	8.41
312.546	8.7
312.759	8.19
312.971	8.1
313.184	7.98
313.396	7.52
313.609	8.86
313.821	9.25
314.034	8.96
314.246	7.27
314.459	7.12
314.671	6.98
314.884	8.4
315.096	8.12
315.309	8.79
315.521	9.8
315.733	10.9
315.946	10.43
316.158	12.23
316.371	11.31
316.583	10.85
316.795	12.02
317.008	9.8
317.22	9.22
317.432	8.89
317.644	6.34
317.857	5.77
318.069	3.89
318.281	4.98
318.494	3.64
318.706	5.31
318.918	6.55
319.13	4.36
319.342	5.69
319.555	4.4
319.767	4.58
319.979	6.29
320.191	6.36
320.403	8.48
320.615	6.9
320.827	6.2
321.039	5.61
321.252	6.02
321.464	8.49
321.676	9.81
321.888	9.17
322.1	9.6
322.312	7.88
322.524	9.26
322.736	7.59
322.948	8.67
323.16	8.62
323.372	7.62
323.584	6.71
323.796	7.37
324.007	5.37
324.219	5.78
324.431	6.13
324.643	7.08
324.855	4.97
325.067	5.88
325.279	4.48
325.491	5.72
325.702	5.75
325.914	4.81
326.126	3.36
326.338	2.63
326.55	2.79
326.761	1.63
326.973	2.45
327.185	2.81
327.396	1.97
327.608	2.53
327.82	1.84
328.032	1.49
328.243	3.64
328.455	3.32
328.666	4.72
328.878	6.4
329.09	7.1
329.301	6.07
329.513	6.02
329.725	7.19
329.936	5.67
330.148	5.72
330.359	6.88
330.571	7.39
330.782	8.26
330.994	9.7
331.205	8.64
331.417	9.7
331.628	9.7
331.84	9.45
332.051	9.05
332.262	11.21
332.474	10.94
332.685	11.78
332.897	10.94
333.108	10.03
333.319	8.88
333.531	9.54
333.742	10
333.953	10.63
334.165	10.46
334.376	10.04
334.587	9.9
334.799	11.23
335.01	11.16
335.221	10.78
335.432	12.54
335.644	12.7
335.855	11.37
336.066	10.81
336.277	10.77
336.488	11.8
336.7	12.59
336.911	11.95
337.122	12.01
337.333	11.47
337.544	11.93
337.755	12.12
337.966	12.33
338.177	12.95
338.388	13.58
338.599	14.6
338.811	14.23
339.022	13.86
339.233	14.56
339.444	13.78
339.655	12.58
339.866	12.53
340.076	11.15
340.287	12.42
340.498	13.23
340.709	12.09
340.92	11.37
341.131	11.14
341.342	11.41
341.553	11.39
341.764	12.52
341.975	13.9
342.185	14.55
342.396	15.27
342.607	13.99
342.818	13.37
343.029	14
343.239	13.71
343.45	13.89
343.661	13.97
343.872	13.09
344.082	11.98
344.293	11.47
344.504	11.44
344.714	10.39
344.925	11.03
345.136	10.83
345.346	9.99
345.557	9.91
345.768	10.34
345.978	9.07
346.189	9.53
346.399	10.06
346.61	9.3
346.821	8.58
347.031	9.46
347.242	9.01
347.452	9.3
347.663	9.52
347.873	10.47
348.084	10.22
348.294	10.54
348.504	10.4
348.715	9.56
348.925	11.38
349.136	11.64
349.346	10.24
349.557	10.65
349.767	9.76
349.977	10.05
350.188	9.46
350.398	9.48
350.608	9.59
350.819	8.98
351.029	9.02
351.239	8.56
351.449	7.7
351.66	8.53
351.87	6.86
352.08	7.52
352.29	7.57
352.501	7.49
352.711	7.93
352.921	7.81
353.131	8.18
353.341	9.19
353.552	9.76
353.762	10.1
353.972	10.45
354.182	12.25
354.392	12.16
354.602	12.33
354.812	12.03
355.022	11.55
355.232	12.07
355.442	13
355.652	11.86
355.862	11.46
356.072	11.93
356.282	11.61
356.492	11.94
356.702	13.19
356.912	13.36
357.122	12.94
357.332	13.46
357.542	13.45
357.752	13.17
357.962	13.53
358.171	13.56
358.381	14.24
358.591	14.05
358.801	13.18
359.011	11.77
359.221	11.45
359.43	10.76
359.64	10.49
359.85	10.62
360.06	9.76
360.269	8.86
360.479	7.83
360.689	7.06
360.899	7.69
361.108	8.04
361.318	8.58
361.528	8.01
361.737	8.71
361.947	8.72
362.156	8.46
362.366	8.83
362.576	9.32
362.785	9.75
362.995	9.98
363.204	9.93
363.414	10.02
363.623	9.6
363.833	10.17
364.042	9.91
364.252	10.26
364.461	10.65
364.671	10.94
364.88	10.59
365.09	11.14
365.299	11.34
365.509	10.3
365.718	9.24
365.927	9.82
366.137	9.26
366.346	8.96
366.555	8.78
366.765	8.44
366.974	7.91
367.183	8.07
367.393	7.1
367.602	6.08
367.811	6.51
368.021	7.27
368.23	7.38
368.439	6.72
368.648	7.25
368.857	5.91
369.067	6.53
369.276	6.49
369.485	7.32
369.694	7.85
369.903	8.17
370.112	8.4
370.321	8.16
370.531	7.41
370.74	8.36
370.949	8.62
371.158	9.15
371.367	8.01
371.576	8.03
371.785	6.84
371.994	6.25
372.203	5.89
372.412	5.68
372.621	5.51
372.83	5.34
373.039	4.68
373.248	4.93
373.457	4.07
373.666	4.59
373.874	5.06
374.083	5.51
374.292	5.7
374.501	6.25
374.71	6.1
374.919	5.73
375.128	6.95
375.336	7.13
375.545	6.77
375.754	7.62
375.963	7.16
376.171	7.1
376.38	7.15
376.589	7.74
376.798	7.37
377.006	7.91
377.215	7.94
377.424	6.91
377.632	7.22
377.841	7.16
378.05	6.72
378.258	6.82
378.467	6.95
378.675	6.74
378.884	6.51
379.093	6.77
379.301	6.31
379.51	6.52
379.718	7.36
379.927	7.64
380.135	8.13
380.344	8.34
380.552	8.74
380.761	8.45
380.969	8.44
381.177	8.48
381.386	8.24
381.594	8.64
381.803	8.79
382.011	8.37
382.219	8.37
382.428	7.22
382.636	7.48
382.845	7.48
383.053	6.66
383.261	7.01
383.469	6.84
383.678	7.18
383.886	6.9
384.094	6.69
384.302	6.63
384.511	6.8
384.719	7.58
384.927	7.29
385.135	6.96
385.343	7.31
385.552	7.13
385.76	7.25
385.968	7.12
386.176	6.83
386.384	7.15
386.592	6.64
386.8	5.8
387.008	5.4
387.216	5.26
387.424	5.19
387.633	5.46
387.841	5.24
388.049	5.5
388.257	5.2
388.465	5.71
388.672	5.61
388.88	5.94
389.088	6.36
389.296	6.46
389.504	6.75
389.712	6.83
389.92	6.78
390.128	6.84
390.336	6.19
390.544	6.29
390.751	5.99
390.959	5.91
391.167	6.32
391.375	6.35
391.583	6.55
391.79	6.53
391.998	6.7
392.206	6.84
392.414	6.74
392.621	6.87
392.829	6.78
393.037	6.7
393.244	6.65
393.452	6.34
393.66	5.73
393.867	5.55
394.075	5.61
394.283	5.56
394.49	5.07
394.698	5.05
394.905	5.1
395.113	5.46
395.32	5.17
395.528	5.09
395.735	4.65
395.943	5.21
396.15	5.06
396.358	4.55
396.565	4.24
396.773	4.17
396.98	4.41
397.188	4.13
397.395	3.58
397.602	3.83
397.81	3.86
398.017	3.93
398.225	4.01
398.432	4.12
398.639	4.47
398.847	4.71
399.054	5.13
399.261	4.79
399.468	4.96
399.676	5.01
399.883	5.26
400.09	5.46
400.297	5.55
400.505	5.12
400.712	4.85
400.919	4.97
401.126	4.92
401.333	4.94
401.54	4.98
401.748	4.85
401.955	4.79
402.162	4.64
402.369	4.48
402.576	4.58
402.783	4.51
402.99	4.75
403.197	4.62
403.404	4.86
403.611	4.57
403.818	4.64
404.025	4.76
404.232	5.14
404.439	5.28
404.646	5.39
404.853	5.31
405.06	5.55
405.267	5.45
405.474	5.36
405.681	5.13
405.887	5.13
406.094	5
406.301	4.82
406.508	4.45
406.715	4.11
406.922	3.63
407.128	3.86
407.335	3.9
407.542	3.86
407.749	3.77
407.955	3.52
408.162	3.46
408.369	3.75
408.575	3.74
408.782	4.15
408.989	4.41
409.195	4.68
409.402	4.46
409.609	4.49
409.815	4.55
410.022	4.65
410.228	4.77
410.435	5.1
410.642	4.89
410.848	5.17
411.055	4.69
411.261	4.47
411.468	4.57
411.674	4.81
411.881	4.77
412.087	4.57
412.294	4.73
412.5	4.75
412.706	4.42
412.913	4.56
413.119	4.65
413.326	4.84
413.532	4.9
413.738	4.89
413.945	4.54
414.151	4.14
414.357	4.13
414.564	4.25
414.77	4.2
414.976	3.86
415.182	3.75
415.389	3.6
415.595	3.56
415.801	3.61
416.007	3.51
416.214	3.5
416.42	3.68
416.626	3.85
416.832	3.54
417.038	3.53
417.244	3.82
417.45	3.84
417.657	3.76
417.863	3.95
418.069	3.92
418.275	3.89
418.481	4.01
418.687	4.02
418.893	4.23
419.099	4.43
419.305	4.48
419.511	4.55
419.717	4.7
419.923	4.68
420.129	4.63
420.335	4.77
420.541	4.82
420.746	4.88
420.952	4.94
421.158	4.78
421.364	4.77
421.57	4.75
421.776	4.72
421.982	4.66
422.187	4.59
422.393	4.52
422.599	4.48
422.805	4.32
423.01	4.24
423.216	4.25
423.422	4.21
423.628	4.1
423.833	4.11
424.039	4.2
424.245	4.04
424.45	4
424.656	4.02
424.862	4.14
425.067	4.26
425.273	4.28
425.478	4.2
425.684	4.22
425.889	4.15
426.095	4.08
426.301	3.82
426.506	3.95
426.712	4.15
426.917	4.22
427.123	3.91
427.328	3.95
427.533	3.96
427.739	4.11
427.944	4.15
428.15	4.19
428.355	4.31
428.561	4.34
428.766	4.21
428.971	4.38
429.177	4.41
429.382	4.4
429.587	4.42
429.793	4.47
429.998	4.47
430.203	4.32
430.408	4.4
430.614	4.42
430.819	4.52
431.024	4.6
431.229	4.32
431.434	4.25
431.64	4.29
431.845	4.12
432.05	4.36
432.255	4.19
432.46	3.96
432.665	3.9
432.87	3.87
433.076	3.98
433.281	3.91
433.486	3.98
433.691	3.98
433.896	3.84
434.101	3.82
434.306	3.55
434.511	3.49
434.716	3.82
434.921	3.7
435.126	3.82
435.331	3.75
435.535	3.72
435.74	3.5
435.945	3.52
436.15	3.71
436.355	3.75
436.56	3.83
436.765	3.75
436.97	3.78
437.174	3.81
437.379	3.7
437.584	3.63
437.789	3.76
437.993	4.04
438.198	3.96
438.403	4.11
438.608	4.15
438.812	3.99
439.017	4.21
439.222	4.12
439.426	4.21
439.631	4.26
439.836	4.34
440.04	4.49
440.245	4.37
440.45	4.4
440.654	4.24
440.859	4.32
441.063	4.43
441.268	4.18
441.472	4.1
441.677	4.17
441.881	4.01
442.086	3.91
442.29	3.75
442.495	3.92
442.699	3.92
442.904	3.84
443.108	3.65
443.312	3.57
443.517	3.79
443.721	3.98
443.925	3.86
444.13	3.87
444.334	3.87
444.538	3.98
444.743	3.96
444.947	3.84
445.151	3.98
445.356	4.01
445.56	3.99
445.764	4
445.968	3.87
446.173	3.93
446.377	4.03
446.581	4.06
446.785	3.9
446.989	3.83
447.193	3.85
447.398	3.79
447.602	3.76
447.806	3.86
448.01	3.74
448.214	3.71
448.418	3.69
448.622	3.61
448.826	3.63
449.03	3.61
449.234	3.5
449.438	3.62
449.642	3.58
449.846	3.65
450.05	3.49
450.254	3.78
450.458	3.83
450.662	3.84
450.866	3.87
451.069	3.75
451.273	3.69
451.477	4.03
451.681	4.01
451.885	3.86
452.089	3.96
452.292	4.02
452.496	3.84
452.7	3.77
452.904	3.9
453.107	4.06
453.311	4.23
453.515	4.29
453.719	3.92
453.922	3.74
454.126	3.77
454.33	3.57
454.533	3.58
454.737	3.34
454.94	3.26
455.144	3.18
455.348	2.92
455.551	2.91
455.755	2.87
455.958	3.13
456.162	3.01
456.365	3.17
456.569	3.19
456.772	3.22
456.976	3.3
457.179	3.34
457.383	3.41
457.586	3.34
457.79	3.19
457.993	3.29
458.196	3.48
458.4	3.71
458.603	3.57
458.807	3.59
459.01	3.71
459.213	3.75
459.417	3.95
459.62	3.91
459.823	3.98
460.026	4.02
460.23	4.04
460.433	3.83
460.636	3.81
460.839	3.97
461.042	4.03
461.246	3.92
461.449	4.06
461.652	3.88
461.855	3.81
462.058	3.83
462.261	3.82
462.464	3.68
462.668	3.62
462.871	3.64
463.074	3.58
463.277	3.53
463.48	3.58
463.683	3.53
463.886	3.56
464.089	3.67
464.292	3.64
464.495	3.61
464.698	3.81
464.901	4.06
465.104	4.05
465.306	3.87
465.509	3.86
465.712	3.73
465.915	3.62
466.118	3.68
466.321	3.49
466.524	3.41
466.726	3.64
466.929	3.67
467.132	3.39
467.335	3.27
467.538	3.39
467.74	3.47
467.943	3.66
468.146	3.77
468.348	3.74
468.551	3.95
468.754	4.19
468.956	4
469.159	3.79
469.362	4.02
469.564	4.04
469.767	4.05
469.969	4.02
470.172	3.75
470.375	3.73
470.577	3.87
470.78	3.66
470.982	3.69
471.185	3.72
471.387	3.83
471.59	3.7
471.792	3.74
471.995	3.75
472.197	3.91
472.399	3.99
472.602	3.97
472.804	3.67
473.007	3.53
473.209	3.43
473.411	3.46
473.614	3.56
473.816	3.74
474.018	3.85
474.22	3.86
474.423	3.78
474.625	4
474.827	4.2
475.03	4.23
475.232	4.43
475.434	4.21
475.636	4.22
475.838	4.14
476.04	3.89
476.243	3.81
476.445	3.96
476.647	3.86
476.849	3.62
477.051	3.35
477.253	3.46
477.455	3.46
477.657	3.63
477.859	3.66
478.061	3.7
478.263	3.77
478.465	3.9
478.667	3.67
478.869	3.73
479.071	3.85
479.273	3.86
479.475	3.82
479.677	3.84
479.879	3.84
480.081	3.89
480.283	3.76
480.485	3.82
480.686	3.73
480.888	3.72
481.09	3.65
481.292	3.59
481.494	3.71
481.695	3.75
481.897	3.67
482.099	3.71
482.301	3.68
482.502	3.69
482.704	3.63
482.906	3.58
483.107	3.7
483.309	3.73
483.511	3.71
483.712	3.68
483.914	3.66
484.115	3.71
484.317	3.68
484.519	3.66
484.72	3.66
484.922	3.73
485.123	3.8
485.325	3.69
485.526	3.68
485.728	3.71
485.929	3.68
486.131	3.67
486.332	3.66
486.534	3.71
486.735	3.67
486.936	3.74
487.138	3.69
487.339	3.62
487.541	3.72
487.742	3.67
487.943	3.66
488.144	3.79
488.346	3.83
488.547	3.82
488.748	3.82
488.95	3.88
489.151	3.86
489.352	3.91
489.553	3.98
489.755	4.02
489.956	4.04
490.157	4.11
490.358	3.89
490.559	3.89
490.76	3.86
490.961	3.8
491.163	3.78
491.364	3.77
491.565	3.7
491.766	3.67
491.967	3.58
492.168	3.58
492.369	3.54
492.57	3.67
492.771	3.61
492.972	3.62
493.173	3.7
493.374	3.7
493.575	3.68
493.776	3.64
493.976	3.64
494.177	3.62
494.378	3.67
494.579	3.63
494.78	3.64
494.981	3.6
495.182	3.65
495.382	3.54
495.583	3.52
495.784	3.56
495.985	3.51
496.185	3.61
496.386	3.71
496.587	3.75
496.788	3.74
496.988	3.55
497.189	3.66
497.39	3.61
497.59	3.8
497.791	3.88
497.992	3.83
498.192	3.91
498.393	3.83
498.593	3.68
498.794	3.61
498.994	3.71
499.195	3.86
499.395	3.93
499.596	4
499.796	3.81
499.997	3.78
500.197	3.8
500.398	3.73
500.598	3.65
500.799	3.69
500.999	3.72
501.199	3.79
501.4	3.96
501.6	3.88
501.801	3.84
502.001	3.77
502.201	3.89
502.402	3.98
502.602	4.1
502.802	4.19
503.002	4.4
503.203	4.48
503.403	4.34
503.603	4.14
503.803	4.04
504.003	4.11
504.204	4.35
504.404	4.14
504.604	4.04
504.804	4.02
505.004	3.99
505.204	3.72
505.404	3.62
505.604	3.63
505.804	3.62
506.005	3.84
506.205	3.68
506.405	3.45
506.605	3.54
506.805	3.53
507.005	3.45
507.204	3.46
507.404	3.65
507.604	3.75
507.804	3.78
508.004	3.68
508.204	3.6
508.404	3.49
508.604	3.49
508.804	3.5
509.003	3.63
509.203	3.76
509.403	3.73
509.603	3.6
509.803	3.67
510.002	3.72
510.202	3.78
510.402	3.75
510.602	3.95
510.801	4.15
511.001	4.06
511.201	4.13
511.4	4.18
511.6	4.27
511.8	4.46
511.999	4.26
512.199	4.28
512.398	4.35
512.598	4.39
512.797	4.28
512.997	4.16
513.197	4.19
513.396	4.07
513.596	4.06
513.795	3.98
513.994	3.82
514.194	4.02
514.393	3.85
514.593	3.83
514.792	3.85
514.992	3.88
515.191	3.82
515.39	3.92
515.59	3.96
515.789	4.09
515.988	4.12
516.188	4.13
516.387	3.98
516.586	3.94
516.786	3.79
516.985	3.81
517.184	3.95
517.383	3.91
517.582	3.86
517.782	3.85
517.981	3.73
518.18	3.72
518.379	3.8
518.578	3.8
518.777	3.87
518.976	3.98
519.176	4.06
519.375	3.96
519.574	4.05
519.773	4.14
519.972	4.12
520.171	4.11
520.37	4.18
520.569	4.13
520.768	4.05
520.967	4.07
521.166	4.13
521.365	3.92
521.564	4.05
521.762	3.9
521.961	3.78
522.16	3.84
522.359	3.97
522.558	4.01
522.757	3.98
522.956	4.15
523.154	4.11
523.353	4.05
523.552	4.18
523.751	4.17
523.949	4.37
524.148	4.37
524.347	4.26
524.546	4.29
524.744	4.21
524.943	4.21
525.142	4.18
525.34	4.31
525.539	4.28
525.737	4.33
525.936	4.32
526.135	4.18
526.333	4.19
526.532	4.29
526.73	4.17
526.929	4.22
527.127	4.25
527.326	4.31
527.524	4.32
527.723	4.4
527.921	4.38
528.12	4.35
528.318	4.38
528.516	4.43
528.715	4.4
528.913	4.4
529.112	4.35
529.31	4.43
529.508	4.44
529.707	4.39
529.905	4.38
530.103	4.35
530.301	4.46
530.5	4.51
530.698	4.53
530.896	4.62
531.094	4.68
531.293	4.76
531.491	4.71
531.689	4.69
531.887	4.76
532.085	4.8
532.283	4.88
532.481	4.8
532.68	4.82
532.878	4.76
533.076	4.69
533.274	4.75
533.472	4.78
533.67	4.78
533.868	4.83
534.066	4.77
534.264	4.78
534.462	4.77
534.66	4.68
534.858	4.71
535.056	4.73
535.253	4.78
535.451	4.76
535.649	4.73
535.847	4.77
536.045	4.8
536.243	4.86
536.441	4.9
536.638	4.96
536.836	5.12
537.034	5.04
537.232	4.96
537.43	4.96
537.627	4.91
537.825	5
538.023	4.97
538.22	4.96
538.418	4.92
538.616	4.78
538.813	4.75
539.011	4.66
539.209	4.75
539.406	4.94
539.604	4.93
539.801	5.05
539.999	4.94
540.196	4.94
540.394	4.97
540.591	4.97
540.789	5.04
540.986	5.04
541.184	5.19
541.381	5.22
541.579	5.22
541.776	5.3
541.974	5.3
542.171	5.39
542.368	5.43
542.566	5.42
542.763	5.49
542.96	5.55
543.158	5.61
543.355	5.57
543.552	5.65
543.75	5.63
543.947	5.62
544.144	5.72
544.341	5.72
544.539	5.79
544.736	5.71
544.933	5.81
545.13	5.8
545.327	5.8
545.524	5.68
545.722	5.65
545.919	5.79
546.116	5.85
546.313	5.88
546.51	5.98
546.707	6.03
546.904	6.11
547.101	6.17
547.298	6.21
547.495	6.23
547.692	6.29
547.889	6.39
548.086	6.38
548.283	6.42
548.48	6.21
548.677	6.32
548.874	6.37
549.07	6.47
549.267	6.38
549.464	6.33
549.661	6.34
549.858	6.44
550.055	6.36
550.251	6.33
550.448	6.27
550.645	6.59
550.842	6.51
551.038	6.46
551.235	6.39
551.432	6.49
551.628	6.57
551.825	6.78
552.022	6.81
552.218	6.82
552.415	6.87
552.612	6.83
552.808	6.64
553.005	6.45
553.201	6.47
553.398	6.53
553.594	6.47
553.791	6.57
553.987	6.45
554.184	6.48
554.38	6.52
554.577	6.37
554.773	6.39
554.97	6.39
555.166	6.61
555.362	6.4
555.559	6.58
555.755	6.86
555.952	6.96
556.148	7.15
556.344	7.33
556.541	7.47
556.737	7.72
556.933	7.93
557.129	8.18
557.326	8.28
557.522	8.45
557.718	8.36
557.914	8.16
558.11	8.1
558.307	8.03
558.503	8.05
558.699	8.13
558.895	7.98
559.091	7.97
559.287	7.83
559.483	7.72
559.679	7.58
559.876	7.81
560.072	7.97
560.268	7.99
560.464	7.89
560.66	8.02
560.856	8.05
561.052	8.19
561.247	8.04
561.443	8.25
561.639	8.48
561.835	8.89
562.031	8.82
562.227	8.62
562.423	8.69
562.619	8.94
562.815	8.9
563.01	8.96
563.206	9.15
563.402	9.37
563.598	9.49
563.793	9.54
563.989	9.57
564.185	9.83
564.381	9.89
564.576	9.92
564.772	9.9
564.968	9.8
565.163	9.73
565.359	9.77
565.555	9.79
565.75	9.74
565.946	9.5
566.141	9.53
566.337	9.45
566.532	9.62
566.728	9.75
566.923	9.73
567.119	9.63
567.314	9.64
567.51	9.51
567.705	9.47
567.901	9.68
568.096	9.91
568.292	9.82
568.487	9.78
568.682	9.84
568.878	9.73
569.073	9.87
569.268	10.01
569.464	10.23
569.659	10.41
569.854	10.69
570.05	10.36
570.245	10.31
570.44	10.39
570.635	10.48
570.831	10.5
571.026	10.59
571.221	10.4
571.416	10.53
571.611	10.37
571.806	10.34
572.002	10.28
572.197	10.41
572.392	10.52
572.587	10.5
572.782	10.41
572.977	10.51
573.172	10.51
573.367	10.7
573.562	10.8
573.757	10.82
573.952	10.86
574.147	10.9
574.342	11.06
574.537	11.11
574.732	11.19
574.927	11.36
575.121	11.31
575.316	11.36
575.511	11.46
575.706	11.42
575.901	11.56
576.096	11.75
576.29	11.75
576.485	11.78
576.68	11.76
576.875	11.77
577.069	11.67
577.264	11.65
577.459	11.64
577.654	11.56
577.848	11.47
578.043	11.46
578.238	11.23
578.432	11.27
578.627	11.13
578.821	11.06
579.016	11.13
579.21	11.37
579.405	11.29
579.6	11.3
579.794	11.35
579.989	11.49
580.183	11.78
580.378	11.93
580.572	11.94
580.766	11.95
580.961	12.11
581.155	12.1
581.35	12.03
581.544	12.28
581.738	12.32
581.933	12.34
582.127	12.13
582.321	12
582.516	11.88
582.71	11.92
582.904	11.87
583.099	11.95
583.293	12.11
583.487	12.15
583.681	12.12
583.875	12.05
584.07	11.95
584.264	12.19
584.458	12.17
584.652	12.23
584.846	12.08
585.04	12.21
585.234	12.24
585.428	12.11
585.623	12.08
585.817	12.01
586.011	12.13
586.205	12.32
586.399	12.52
586.593	12.4
586.787	12.6
586.981	12.51
587.174	12.62
587.368	12.66
587.562	12.77
587.756	12.64
587.95	12.57
588.144	12.44
588.338	12.41
588.532	12.1
588.725	12.2
588.919	12.22
589.113	12.56
589.307	12.54
589.501	12.51
589.694	12.41
589.888	12.48
590.082	12.6
590.275	12.62
590.469	12.56
590.663	12.73
590.856	12.57
591.05	12.66
591.244	12.69
591.437	12.73
591.631	12.7
591.824	12.76
592.018	12.8
592.212	12.91
592.405	13
592.599	13.04
592.792	12.87
592.986	13.04
593.179	12.9
593.372	13.03
593.566	13.08
593.759	13.04
593.953	13.01
594.146	13.14
594.339	13.15
594.533	13.43
594.726	13.45
594.92	13.64
595.113	13.58
595.306	13.5
595.499	13.3
595.693	13.42
595.886	13.48
596.079	13.34
596.272	13.18
596.466	13.19
596.659	13.21
596.852	13.25
597.045	13.34
597.238	13.36
597.431	13.35
597.624	13.44
597.818	13.36
598.011	13.34
598.204	13.75
598.397	13.94
598.59	13.74
598.783	13.5
598.976	13.46
599.169	13.4
599.362	13.48
599.555	13.55
599.748	13.31
599.941	13.29
600.134	13.68
600.326	13.36
600.519	13.35
600.712	13.78
600.905	13.86
601.098	13.81
601.291	13.72
601.483	13.82
601.676	13.9
601.869	13.98
602.062	13.99
602.255	13.61
602.447	13.47
602.64	13.47
602.833	13.35
603.025	13.5
603.218	13.45
603.411	13.69
603.603	13.82
603.796	13.85
603.989	13.8
604.181	13.52
604.374	13.58
604.566	13.79
604.759	13.71
604.951	13.57
605.144	13.6
605.336	13.83
605.529	13.66
605.721	13.49
605.914	13.6
606.106	13.63
606.299	13.77
606.491	13.8
606.683	13.63
606.876	13.73
607.068	13.96
607.26	13.83
607.453	13.69
607.645	13.91
607.837	14.05
608.03	13.88
608.222	14
608.414	14.02
608.606	13.97
608.799	13.92
608.991	13.72
609.183	13.64
609.375	13.84
609.567	13.77
609.759	13.52
609.952	13.32
610.144	13.33
610.336	13.29
610.528	13.42
610.72	13.28
610.912	13.4
611.104	13.63
611.296	13.58
611.488	13.35
611.68	13.41
611.872	13.51
612.064	13.65
612.256	13.54
612.448	13.41
612.64	13.41
612.832	13.42
613.023	13.56
613.215	13.56
613.407	13.5
613.599	13.43
613.791	13.46
613.983	13.69
614.174	13.48
614.366	13.42
614.558	13.63
614.75	13.53
614.941	13.65
615.133	13.56
615.325	13.5
615.516	13.59
615.708	13.35
615.9	13.43
616.091	13.34
616.283	13.49
616.475	13.52
616.666	13.3
616.858	13.51
617.049	13.55
617.241	13.77
617.432	13.87
617.624	14.14
617.815	14.58
618.007	14.42
618.198	14.17
618.39	14
618.581	14.22
618.773	14.4
618.964	14.24
619.155	14.47
619.347	14.04
619.538	13.71
619.729	13.61
619.921	13.7
620.112	13.89
620.303	14.16
620.494	14.22
620.686	14.08
620.877	13.87
621.068	13.97
621.259	13.55
621.451	13.85
621.642	13.98
621.833	13.97
622.024	13.76
622.215	13.46
622.406	13.33
622.597	13.18
622.788	13.46
622.98	13.55
623.171	13.41
623.362	13.61
623.553	13.44
623.744	13.56
623.935	13.75
624.126	13.5
624.317	13.78
624.508	13.56
624.698	13.91
624.889	13.6
625.08	13.38
625.271	13.43
625.462	13.5
625.653	13.98
625.844	14.11
626.034	13.96
626.225	14.36
626.416	14.27
626.607	14.47
626.798	14.21
626.988	14.53
627.179	15.04
627.37	14.89
627.56	14.81
627.751	14.54
627.942	14.59
628.132	14.52
628.323	14.28
628.514	14.37
628.704	14.41
628.895	14.51
629.085	14.39
629.276	14.03
629.466	14.27
629.657	14.43
629.847	14.29
630.038	13.9
630.228	13.85
630.419	14.08
630.609	14.13
630.8	14.31
630.99	14.68
631.181	14.44
631.371	14.57
631.561	14.39
631.752	14.32
631.942	14.39
632.132	14.66
632.323	14.94
632.513	14.87
632.703	14.63
632.893	14.13
633.084	13.88
633.274	13.87
633.464	13.56
633.654	13.8
633.844	13.75
634.034	13.82
634.225	13.8
634.415	13.52
634.605	13.36
634.795	13.35
634.985	13.49
635.175	13.7
635.365	13.79
635.555	14.09
635.745	14.08
635.935	13.96
636.125	13.96
636.315	14.01
636.505	14.1
636.695	13.84
636.885	14
637.075	14.05
637.265	13.75
637.455	13.94
637.644	14.02
637.834	13.96
638.024	14.1
638.214	14.15
638.404	14.02
638.593	14.01
638.783	14.5
638.973	14.45
639.163	14.39
639.352	14.19
639.542	13.67
639.732	13.2
639.921	13.08
640.111	13.16
640.301	12.95
640.49	12.98
640.68	12.99
640.87	12.7
641.059	12.69
641.249	12.56
641.438	12.94
641.628	13.36
641.817	13.72
642.007	13.67
642.196	13.14
642.386	12.76
642.575	12.63
642.764	12.61
642.954	12.57
643.143	12.6
643.333	12.61
643.522	12.26
643.711	11.96
643.901	11.96
644.09	12.51
644.279	13.04
644.469	13.33
644.658	13.31
644.847	13.35
645.036	13.88
645.226	13.63
645.415	13.82
645.604	14.17
645.793	14.29
645.982	14.36
646.171	14.03
646.361	13.79
646.55	13.73
646.739	13.93
646.928	13.65
647.117	13.24
647.306	13.04
647.495	13.19
647.684	12.88
647.873	12.87
648.062	12.63
648.251	12.72
648.44	12.93
648.629	13.15
648.818	12.94
649.007	13.11
649.196	13.13
649.384	14.04
649.573	14.12
649.762	14.34
649.951	14.34
650.14	14.13
650.328	14.01
650.517	13.74
650.706	13.54
650.895	13.73
651.083	14.21
651.272	14.08
651.461	13.85
651.65	13.72
651.838	13.56
652.027	13.6
652.216	13.71
652.404	13.5
652.593	13.92
652.781	14.22
652.97	14.45
653.158	14.05
653.347	14.1
653.535	14.13
653.724	14.2
653.912	14.16
654.101	13.94
654.289	14.09
654.478	13.93
654.666	14.01
654.855	14.08
655.043	13.51
655.231	13.49
655.42	13.16
655.608	13.11
655.796	12.9
655.985	13.15
656.173	13.87
656.361	13.96
656.55	13.94
656.738	13.58
656.926	13.25
657.114	13.63
657.302	13.34
657.491	14.07
657.679	13.85
657.867	13.9
658.055	13.62
658.243	13.43
658.431	13.48
658.619	13.85
658.807	13.94
658.996	14.15
659.184	14.39
659.372	14.92
659.56	14.72
659.748	14.68
659.936	14.72
660.124	14.89
660.311	14.94
660.499	14.87
660.687	14.9
660.875	14.71
661.063	14.77
661.251	14.82
661.439	14.62
661.627	14.51
661.814	14.69
662.002	14.89
662.19	15.09
662.378	15.13
662.565	15.65
662.753	15.66
662.941	15.88
663.129	16.05
663.316	16.04
663.504	16.18
663.692	16.61
663.879	17.04
664.067	17.22
664.254	17.07
664.442	16.6
664.63	16.35
664.817	16.44
665.005	16.5
665.192	16.16
665.38	15.79
665.567	15.38
665.755	15.26
665.942	14.46
666.13	13.82
666.317	14.48
666.504	15.16
666.692	14.91
666.879	14.97
667.067	15.17
667.254	15.17
667.441	15.66
667.629	16.3
667.816	15.52
668.003	15.67
668.19	16.35
668.378	15.72
668.565	15.83
668.752	15.91
668.939	15.63
669.127	15.51
669.314	15.76
669.501	15.01
669.688	14.43
669.875	15.06
670.062	15.36
670.249	15.43
670.436	15.46
670.623	15.33
670.81	15.56
670.997	15.67
671.184	15.39
671.371	15.02
671.558	15.38
671.745	15.41
671.932	15.47
672.119	15.14
672.306	14.69
672.493	14.91
672.68	14.56
672.867	14.39
673.054	14.02
673.24	14.65
673.427	14.94
673.614	15.23
673.801	15.71
673.988	15.7
674.174	15.91
674.361	15.66
674.548	15.68
674.734	15.59
674.921	15.48
675.108	15.74
675.294	15.19
675.481	14.57
675.668	14.45
675.854	13.89
676.041	13.9
676.227	13.7
676.414	14.09
676.601	13.9
676.787	14.22
676.974	14.39
677.16	14.07
677.347	14.22
677.533	14.7
677.719	14.49
677.906	14.8
678.092	14.8
678.279	15.29
678.465	14.47
678.651	14.46
678.838	14.7
679.024	14.66
679.21	14.78
679.397	14.53
679.583	15.04
679.769	15.09
679.955	15.19
680.142	15.12
680.328	14.61
680.514	15.07
680.7	14.67
680.886	14.28
681.073	14.56
681.259	14.95
681.445	15.28
681.631	15.01
681.817	14.8
682.003	14.56
682.189	14.41
682.375	14.67
682.561	14.79
682.747	15.03
682.933	15.15
683.119	14.87
683.305	14.8
683.491	14.81
683.677	14.7
683.863	14.92
684.049	15.11
684.235	15.22
684.42	15.34
684.606	15.13
684.792	15.38
684.978	15.31
685.164	15.42
685.349	15.23
685.535	14.76
685.721	15.01
685.907	14.99
686.092	14.85
686.278	14.95
686.464	14.31
686.649	14.55
686.835	14.43
687.021	14.15
687.206	14.02
687.392	14.28
687.577	14.68
687.763	14.37
687.948	14.14
688.134	13.99
688.319	13.65
688.505	14.04
688.69	13.55
688.876	13.93
689.061	14.15
689.247	14.05
689.432	13.77
689.618	13.85
689.803	13.78
689.988	14.17
690.174	14.57
690.359	15.35
690.544	15.3
690.73	16.37
690.915	15.79
691.1	16.17
691.285	16.19
691.471	16.22
691.656	15.87
691.841	16.18
692.026	15.62
692.211	15.39
692.396	14.64
692.582	15.14
692.767	13.94
692.952	14.48
693.137	14.02
693.322	13.8
693.507	14.28
693.692	14.41
693.877	14.1
694.062	15.06
694.247	15.32
694.432	15.32
694.617	14.57
694.802	15
694.987	14.88
695.172	15.06
695.357	15.4
695.541	14.04
695.726	14.01
695.911	14.01
696.096	13.03
696.281	13.32
696.466	13.52
696.65	13.65
696.835	13.37
697.02	13.34
697.204	13.19
697.389	13.11
697.574	14.22
697.759	14.35
697.943	14.15
698.128	14.59
698.312	14.19
698.497	14.45
698.682	14.36
698.866	15.08
699.051	15.44
699.235	15.53
699.42	15.52
699.604	15.54
699.789	15.32
699.973	15.71
700.158	15.62
700.342	15.47
700.527	15.34
700.711	15.39
700.895	15.19
701.08	14.8
701.264	14.85
701.448	15.08
701.633	15.09
701.817	15.19
702.001	15.38
702.186	14.63
702.37	15.06
702.554	15.03
702.738	15.48
702.923	15.52
703.107	15.21
703.291	15.04
703.475	15.33
703.659	14.93
703.843	15.23
704.027	14.4
704.212	15.06
704.396	15.51
704.58	15.03
704.764	14.87
704.948	14.61
705.132	13.65
705.316	13.36
705.5	13.22
705.684	12.8
705.868	12.6
706.052	12.8
706.235	12.59
706.419	11.74
706.603	12.55
706.787	13.35
706.971	13.21
707.155	14.54
707.339	15.13
707.522	14.54
707.706	14.8
707.89	14.65
708.074	14.79
708.257	15.41
708.441	15.66
708.625	15.31
708.808	14.85
708.992	15.56
709.176	14.83
709.359	14.79
709.543	14.79
709.727	15.12
709.91	15.62
710.094	15.86
710.277	15.99
710.461	16.04
710.644	15.69
710.828	15.53
711.011	14.61
711.195	15.29
711.378	14.99
711.562	14.58
711.745	14.76
711.928	14.8
712.112	13.85
712.295	13.56
712.478	13.64
712.662	13.54
712.845	13.27
713.028	13.14
713.212	13.21
713.395	14.03
713.578	15.08
713.761	14.16
713.945	13.04
714.128	13.4
714.311	13.76
714.494	13.61
714.677	14.65
714.86	15.3
715.043	15.33
715.227	14.86
715.41	14.49
715.593	14.37
715.776	14.96
715.959	15.68
716.142	16.67
716.325	15.74
716.508	15.71
716.691	15.16
716.874	14.79
717.057	14.14
717.239	14.71
717.422	14.66
717.605	14.07
717.788	13.9
717.971	13.82
718.154	13.22
718.337	13.91
718.519	13.64
718.702	13.84
718.885	13.59
719.068	14.99
719.25	14.98
719.433	14.98
719.616	15.46
719.798	15.63
719.981	16
720.164	15.77
720.346	16.19
720.529	16.6
720.712	16.64
720.894	16.27
721.077	15.95
721.259	16.05
721.442	16.11
721.624	16.92
721.807	17.6
721.989	17.79
722.172	17.69
722.354	17.69
722.537	17.49
722.719	17.13
722.901	17.42
723.084	17.13
723.266	16.83
723.448	17.04
723.631	16.23
723.813	15.29
723.995	15.25
724.178	16.17
724.36	16.41
724.542	15.3
724.724	15.23
724.907	16.24
725.089	15.92
725.271	16.58
725.453	15.41
725.635	15.36
725.817	16.71
725.999	16.92
726.181	16.25
726.364	15.9
726.546	17.28
726.728	17.33
726.91	16.69
727.092	17.5
727.274	16.45
727.456	16.58
727.638	15.99
727.819	14.98
728.001	14.1
728.183	13.5
728.365	12.9
728.547	12.38
728.729	12.55
728.911	12.84
729.093	13.46
729.274	13.43
729.456	13.83
729.638	13.46
729.82	12.58
730.001	12.43
730.183	13.24
730.365	14.54
730.546	14.7
730.728	14.54
730.91	14.4
731.091	13.31
731.273	13.76
731.455	14.56
731.636	14.24
731.818	14.72
731.999	15.4
732.181	15.28
732.362	14.96
732.544	14.17
732.725	14.21
732.907	14.55
733.088	14.96
733.27	14.54
733.451	13.86
733.633	15.41
733.814	16.15
733.995	15.32
734.177	15.52
734.358	14.47
734.539	16.29
734.721	15.22
734.902	15.37
735.083	15.65
735.264	15.45
735.446	15.33
735.627	13.9
735.808	13.29
735.989	14.31
736.17	13.2
736.351	13.87
736.533	11.99
736.714	13.11
736.895	12.94
737.076	12.62
737.257	13.3
737.438	13.91
737.619	16.12
737.8	15.72
737.981	16.09
738.162	16.14
738.343	16.19
738.524	17.67
738.705	17.98
738.886	16.7
739.067	17.3
739.247	17.72
739.428	17.84
739.609	15.49
739.79	16.31
739.971	15.39
740.151	15.49
740.332	14.94
740.513	13.69
740.694	13.38
740.874	15.53
741.055	14.38
741.236	13.44
741.417	12.58
741.597	13.62
741.778	13.37
741.958	12.9
742.139	14.25
742.32	15.24
742.5	16.18
742.681	16.21
742.861	13.85
743.042	14.25
743.222	15.12
743.403	15.62
743.583	16.32
743.764	17.03
743.944	17.07
744.124	16.05
744.305	14.65
744.485	13.5
744.666	13.23
744.846	13.9
745.026	13.8
745.207	14.68
745.387	13.8
745.567	13.27
745.747	11.49
745.928	12.17
746.108	12.84
746.288	13.5
746.468	14.3
746.648	14.2
746.829	14.8
747.009	15.11
747.189	13.17
747.369	13.73
747.549	14.31
747.729	14.51
747.909	14.95
748.089	14.86
748.269	15.7
748.449	16.46
748.629	16.58
748.809	17.61
748.989	17.19
749.169	17.74
749.349	18.12
749.529	18.22
749.709	16.51
749.889	15.04
750.068	14.12
750.248	13.13
750.428	11.88
750.608	11.47
750.788	10.15
750.967	10.63
751.147	11.23
751.327	11.08
751.507	10.3
751.686	12.56
751.866	14.35
752.046	15.29
752.225	16.04
752.405	15.47
752.585	15.69
752.764	14.96
752.944	14.96
753.123	14.99
753.303	14.61
753.482	15.11
753.662	14.92
753.841	13.85
754.021	12.78
754.2	12
754.38	13.86
754.559	14.47
754.739	15.21
754.918	14.36
755.097	13.72
755.277	14.34
755.456	14.49
755.635	15.65
755.815	15.92
755.994	16.97
756.173	16.94
756.352	15.46
756.532	14.01
756.711	13.5
756.89	14.2
757.069	14.2
757.248	13.17
757.427	12.99
757.607	12.31
757.786	14.97
757.965	14.66
758.144	15.09
758.323	16.54
758.502	18.33
758.681	19.04
758.86	18.72
759.039	19.64
759.218	19.75
759.397	19.5
759.576	19.23
759.755	17.07
759.934	16.53
760.113	16.02
760.291	14.78
760.47	14.46
760.649	13.17
760.828	13.02
761.007	11.95
761.186	11.84
761.364	12.4
761.543	12.7
761.722	13.37
761.901	13.77
762.079	15.14
762.258	15.2
762.437	14.91
762.615	16.46
762.794	16.17
762.972	16.18
763.151	15.88
763.33	16.16
763.508	15.92
763.687	15.69
763.865	15.71
764.044	15.82
764.222	16.09
764.401	16.57
764.579	15.52
764.758	16.34
764.936	16.59
765.114	18.2
765.293	17.63
765.471	17.89
765.65	17.92
765.828	18.46
766.006	18.54
766.184	18.41
766.363	17.2
766.541	16.7
766.719	17.2
766.898	16.56
767.076	15.69
767.254	14.58
767.432	13.27
767.61	11.96
767.788	11.66
767.967	8.93
768.145	9.87
768.323	9.55
768.501	10.57
768.679	10.62
768.857	10.76
769.035	9.71
769.213	11.6
769.391	13.89
769.569	14.08
769.747	13.27
769.925	14.08
770.103	13
770.281	14.45
770.459	14.33
770.636	13.94
770.814	13.19
770.992	14.63
771.17	15.51
771.348	14
771.525	15.82
771.703	14.57
771.881	14.86
772.059	15.92
772.236	16.22
772.414	16.81
772.592	14.84
772.769	14.57
772.947	15.19
773.125	13.43
773.302	14.13
773.48	14.3
773.657	15.05
773.835	14.68
774.013	14.24
774.19	12.53
774.368	12.66
774.545	12.46
774.723	14.58
774.9	11.92
775.077	14.08
775.255	13
775.432	13.63
775.61	14.73
775.787	17.34
775.964	17.39
776.142	19.31
776.319	22.32
776.496	22.56
776.674	21.33
776.851	23.65
777.028	21.29
777.205	22.42
777.382	20.51
777.56	20.57
777.737	21.02
777.914	20.61
778.091	20.93
778.268	16.94
778.445	18.2
778.622	17.19
778.8	15.44
778.977	18.35
779.154	18.05
779.331	16.78
779.508	15.31
779.685	11.68
779.862	13.14
780.038	10.75
780.215	11.31
780.392	11.01
780.569	13.64
780.746	13.43
780.923	10.66
781.1	10.13
781.277	9.69
781.453	10.02
781.63	11.68
781.807	10.03
781.984	13.03
782.16	12.99
782.337	9.03
782.514	8.89
782.691	8.46
782.867	7.72
783.044	9.09
783.221	11.71
783.397	12.97
783.574	12.11
783.75	12.27
783.927	10.43
784.103	13.82
784.28	18.3
784.456	19.31
784.633	20.52
784.809	24.84
784.986	22.26
785.162	21.48
785.339	19.85
785.515	18.5
785.692	16.65
785.868	17.77
786.044	13.74
786.221	15.52
786.397	14.19
786.573	15.87
786.749	12.83
786.926	14.3
787.102	14.88
787.278	18.69
787.454	20.35
787.631	22.85
787.807	20.24
787.983	20.7
788.159	19.55
788.335	18.15
788.511	15.75
788.687	16.5
788.863	16.22
789.039	16.45
789.216	13.62
789.392	12.24
789.568	12.48
789.744	11.48
789.919	12.61
790.095	12.44
790.271	14.88
790.447	13.62
790.623	14.08
790.799	13.6
790.975	13.59
791.151	15.77
791.327	15.32
791.502	14.08
791.678	16.78
791.854	16.72
792.03	14.79
792.205	12.15
792.381	13.74
792.557	11.48
792.733	11.26
792.908	7.9
793.084	6.12
793.259	5.38
793.435	8.98
793.611	4.09
793.786	5.67
793.962	8.4
794.137	9.7
794.313	10.39
794.488	11.06
794.664	11.13
794.839	13.93
795.015	13.59
795.19	13.46
795.366	10.8
795.541	15.04
795.716	13.87
795.892	12.03
796.067	12.97
796.242	11.13
796.418	11.01
796.593	8.84
796.768	11.25
796.944	9.71
797.119	12.2
797.294	11.05
797.469	10.69
797.644	13.5
797.82	11.81
797.995	9.47
798.17	11.1
798.345	12.53
798.52	16.46
798.695	12.72
798.87	14.23
799.045	12.1
799.22	15.22
799.395	15.08
799.57	9.45
799.745	10.95
799.92	10.31
800.095	9.08
800.27	7.98
800.445	6.34
800.62	8.48
800.795	6.73
800.97	9.41
801.145	8.41
801.319	9.46
801.494	10.87
801.669	9.01
801.844	11.14
802.018	10.52
802.193	10.06
802.368	12.13
802.543	9.9
802.717	8.45
802.892	6.28
803.067	7.04
803.241	6.54
803.416	4.99
803.59	9.8
803.765	10
803.94	12.25
804.114	10.78
804.289	9.16
804.463	10.55
804.638	13.22
804.812	16.12
804.986	12.63
805.161	14.79
805.335	18.72
805.51	18.65
805.684	16.03
805.858	13.85
806.033	16.68
806.207	15.9
806.381	13.43
806.556	12.93
806.73	8.99
806.904	7.42
807.078	4.94
807.253	0.88
807.427	-2.72
807.601	-0.12
807.775	3.04
807.949	2.48
808.123	-0.46
808.298	1.19
808.472	1.09
808.646	7.42
808.82	7.88
808.994	8.23
809.168	6.2
809.342	9.03
809.516	10.5
809.69	12.33
809.864	6.89
810.038	6.53
810.212	10.04
810.385	10.56
810.559	9.08
810.733	8.09
810.907	7.89
811.081	7.84
811.255	11.64
811.428	9.76
811.602	4.19
811.776	8.04
811.95	12.26
812.123	10.53
812.297	10.81
812.471	8.45
812.644	12.44
812.818	13.94
812.992	17.37
813.165	10.53
813.339	10.87
813.512	14.29
813.686	14.63
813.86	18.69
814.033	19.39
814.207	22.34
814.38	18.21
814.554	18.35
814.727	16.77
814.9	17.75
815.074	23.07
815.247	25.85
815.421	24.77
815.594	25.86
815.767	22.98
815.941	25.6
816.114	20.59
816.287	25.03
816.46	25.05
816.634	23.82
816.807	20.56
816.98	12.74
817.153	8.41
817.327	4.68
817.5	7.7
817.673	-0.15
817.846	-4.94
818.019	-5.95
818.192	-1.3
818.365	-10.86
818.538	-14.7
818.711	-13.51
818.884	-14.53
819.057	-14.25
819.23	-11.34
819.403	-16.51
819.576	-5.45
819.749	-2.81
819.922	-0.09
820.095	-4.38
820.268	2.57
820.441	5.35
820.614	9.19
820.786	13.24
820.959	15.13
821.132	15.92
821.305	18.38
821.477	16.57
821.65	17.01
821.823	17.88
821.996	18
822.168	18.03
822.341	17.82
822.514	17.61
822.686	17.97
822.859	18.59
823.031	18.93
823.204	18.05
823.376	18.08
823.549	18.88
823.722	18.62
823.894	18.76
824.067	18.98
824.239	18.97
824.411	18.41
824.584	18.05
824.756	17.37
824.929	16.4
825.101	17.63
825.273	18.11
825.446	16.33
825.618	15.83
825.79	16.91
825.963	16.77
826.135	17.81
826.307	19.01
826.479	17.9
826.652	17.64
826.824	15.11
826.996	15.52
827.168	16.16
827.34	15.52
827.512	15.89
827.684	13.66
827.856	13.98
828.029	13.71
828.201	12.41
828.373	14.33
828.545	13.18
828.717	16.99
828.889	15.95
829.061	15.14
829.232	15.68
829.404	16.17
829.576	17.07
829.748	16.93
829.92	16.79
830.092	18.2
830.264	14.66
830.436	14.42
830.607	12.18
830.779	8.58
830.951	6.21
831.123	3.26
831.294	2.89
831.466	3.15
831.638	1.91
831.809	0.78
831.981	-1.45
832.153	0.04
832.324	3.88
832.496	8.84
832.667	9.77
832.839	8.92
833.011	11.83
833.182	8.79
833.354	6.35
833.525	7.67
833.697	8.63
833.868	10.66
834.039	12.77
834.211	14.91
834.382	13.45
834.554	14.59
834.725	12.87
834.896	13.27
835.068	13.83
835.239	15.78
835.41	14.35
835.581	15.65
835.753	13.97
835.924	12.9
836.095	10.32
836.266	10.08
836.438	9.65
836.609	10.43
836.78	13.34
836.951	13.19
837.122	14.16
837.293	15.82
837.464	15.35
837.635	14.67
837.806	11.46
837.977	12.03
838.148	10.6
838.319	16.33
838.49	18.79
838.661	9.35
838.832	12.15
839.003	12.71
839.174	10.86
839.345	13.09
839.516	10.16
839.687	14.18
839.857	12.72
840.028	14.94
840.199	6.99
840.37	9.33
840.54	13.5
840.711	14.48
840.882	8.34
841.053	7.09
841.223	-2.08
841.394	-1.69
841.564	-1.81
841.735	-3.25
841.906	-3.64
842.076	-2.91
842.247	-5.8
842.417	-6.52
842.588	-9.75
842.758	-3.34
842.929	-2.98
843.099	-3.31
843.27	-7.66
843.44	-12.33
843.611	-7.06
843.781	-6.52
843.951	-17.7
844.122	-27.98
844.292	-17.46
844.462	-19.68
844.633	-21.39
844.803	-10.22
844.973	-1.4
845.144	14.76
845.314	21.04
845.484	14.28
845.654	-7.96
845.824	-7.64
845.995	0.97
846.165	-10.1
846.335	-5.68
846.505	-2.38
846.675	-10.88
846.845	-15.72
847.015	-11.35
847.185	-11.54
847.355	-0.65
847.525	15.88
847.695	26.3
847.865	26.79
848.035	42.23
848.205	31.91
848.375	27.11
848.545	23.63
848.715	22.07
848.884	21.45
849.054	13.83
849.224	-8.06
849.394	-14.9
849.564	-6.83
849.733	-7.99
849.903	-15.09
850.073	-5.62
850.243	-9.79
850.412	2.8
850.582	10.88
850.752	15.98
850.921	4.65
851.091	10.37
851.26	13.2
851.43	17.7
851.599	12.17
851.769	15.85
851.939	11.24
852.108	7.3
852.278	2.95
852.447	10.99
852.616	0.1
852.786	20.06
852.955	24.29
853.125	27.66
853.294	21.55
853.463	19.16
853.633	7.48
853.802	23.23
853.971	26.13
854.141	24.72
854.31	16.82
854.479	21.56
854.648	10.88
854.818	14.44
854.987	14.4
855.156	9.49
855.325	22.61
855.494	28.03
855.663	6.84
855.832	12.97
856.001	15.31
856.171	9.69
856.34	7.94
856.509	17.16
856.678	15.37
856.847	23.85
857.016	23.23
857.185	17.99
857.353	15.36
857.522	18.51
857.691	14.23
857.86	14.43
858.029	17.39
858.198	15.85
858.367	21.08
858.535	11.64
858.704	-14.42
858.873	-2.72
859.042	-6.29
859.21	-0.89
859.379	10.58
859.548	-4.22
859.717	-4.04
859.885	3.27
860.054	6.37
860.222	-5.36
860.391	2.57
860.56	6.54
860.728	5.03
860.897	-7.37
861.065	-7.42
861.234	-27.88
861.402	-6.36
861.571	-3.73
861.739	-2.95
861.908	-3.3
862.076	5
862.244	9.85
862.413	5.83
862.581	23.67
862.749	28.81
862.918	47.41
863.086	42.27
863.254	31.84
863.423	28.11
863.591	30.46
863.759	26.84
863.927	5.84
864.096	-17.92
864.264	-19.26
864.432	-19.81
864.6	-26.07
864.768	-53.63
864.936	-52.81
865.104	-33.94
865.272	-34.81
865.44	-56.59
865.608	-52.59
865.776	-40.9
865.944	-34.07
866.112	-32.96
866.28	-43.16
866.448	-41.14
866.616	-56.23
866.784	-50.21
866.952	-64
867.12	-42.28
867.288	-23.97
867.455	-24.72
867.623	-11.31
867.791	-3.35
867.959	6.1
868.127	4.57
868.294	-19.39
868.462	-0.24
868.63	-19.2
868.797	-27.1
868.965	-30.63
869.133	-43.84
869.3	-40.32
869.468	-28.26
869.636	-27.75
869.803	-41.73
869.971	-37.56
870.138	-9.97
870.306	-20.68
870.473	-2.43
870.641	15.16
870.808	-7.68
870.975	-7.22
871.143	-4.6
871.31	-22.35
871.478	-30.52
871.645	-38.9
871.812	-43.89
871.98	-55.9
872.147	-40.97
872.314	-67.14
872.482	-54.9
872.649	-64.58
872.816	-77.68
872.983	-63.5
873.15	-50.84
873.318	-27.41
873.485	-10.62
873.652	-11.46
873.819	-6.5
873.986	-3.45
874.153	-4.64
874.32	-5.07
874.487	11.68
874.654	30.84
874.821	26.88
874.988	27.7
875.155	25.12
875.322	25.67
875.489	34.02
875.656	27.1
875.823	29.97
875.99	38.44
876.157	40.98
876.324	31.52
876.49	13.77
876.657	30.64
876.824	16.61
876.991	3.64
877.157	11.78
877.324	-4.98
877.491	9.05
877.658	5.33
877.824	6.77
877.991	-0.4
878.157	6.51
878.324	7.25
878.491	-26.52
878.657	-18.4
878.824	-6.26
878.99	-16.34
879.157	-1.45
879.323	-8.71
879.49	-1.99
879.656	-29.53
879.823	-36.58
879.989	-32.42
880.156	-30.63
880.322	-17.39
880.488	-1.81
880.655	-3.79
880.821	9.52
880.987	7.29
881.154	7.24
881.32	6.04
881.486	16.09
881.652	21.18
881.819	21.6
881.985	19.26
882.151	20.49
882.317	22.8
882.483	23.47
882.649	21.3
882.816	20.19
882.982	19.61
883.148	17.65
883.314	15.58
883.48	13.09
883.646	10.56
883.812	13.87
883.978	13.25
884.144	13.62
884.31	13.55
884.476	12.63
884.642	12.94
884.807	12.8
884.973	12.14
885.139	14.24
885.305	16.29
885.471	18.63
885.637	18.81
885.802	18.23
885.968	17.75
886.134	18.79
886.3	17.35
886.465	17.73
886.631	18.32
886.797	16.76
886.962	16.77
887.128	18.34
887.293	17.56
887.459	18.37
887.625	16.32
887.79	7.21
887.956	-0.27
888.121	-0.84
888.287	-1.91
888.452	-3.31
888.618	13.14
888.783	8.38
