Data from 2938069_Reflection_3.txt Node
Date: Sat Jul 11 20:42:35 EDT 2015
User: robert
Spectrometer: USB4E03001
Autoset integration time: false
Trigger mode: 4
Integration Time (sec): 1.000000E-1
Scans to average: 10
Electric dark correction enabled: true
Nonlinearity correction enabled: false
Boxcar width: 5
Stray light correction enabled: false
XAxis mode: Wavelengths
Stop averaging: false
Number of Pixels in Spectrum: 3648
>>>>>Begin Spectral Data<<<<<
177.566	14.13
177.785	47.64
178.005	74.82
178.225	96.71
178.445	160.74
178.665	425.17
178.885	-1512.57
179.105	-187.11
179.324	-1497.53
179.544	-51.35
179.764	-44.53
179.984	75.59
180.204	116.88
180.423	217.48
180.643	-1042.57
180.863	-113.86
181.083	-22.17
181.302	-25.48
181.522	4.73
181.742	12.4
181.961	26.6
182.181	36.73
182.401	54.49
182.621	45.01
182.84	34.3
183.06	55.6
183.279	28.49
183.499	29.78
183.719	122.13
183.938	104.59
184.158	130.99
184.377	158.26
184.597	86.17
184.816	-70.91
185.036	3.24
185.256	-102.82
185.475	16.07
185.695	50.24
185.914	33.85
186.134	-81.28
186.353	53.95
186.572	188.42
186.792	104.3
187.011	449.01
187.231	-81.03
187.45	-21.12
187.67	27.74
187.889	48.57
188.108	89.38
188.328	99.08
188.547	55.73
188.766	37.55
188.986	31
189.205	41.5
189.424	30.95
189.644	57.83
189.863	45.89
190.082	-25.72
190.302	-25.11
190.521	-55.74
190.74	-49.75
190.959	-20.97
191.178	-63.24
191.398	-10.86
191.617	29.06
191.836	53
192.055	13.1
192.274	49.05
192.494	87.45
192.713	79.52
192.932	58.93
193.151	31.49
193.37	27.47
193.589	59.84
193.808	34.54
194.027	-24.79
194.246	-53.77
194.465	-24.6
194.685	-68.4
194.904	71.38
195.123	-57.01
195.342	106.97
195.561	97.29
195.78	94.36
195.999	63.05
196.218	77.57
196.436	119.07
196.655	101.01
196.874	135.34
197.093	124.36
197.312	93.01
197.531	102.76
197.75	103.87
197.969	132.34
198.188	107.07
198.407	213.49
198.625	10.95
198.844	-13.12
199.063	59.63
199.282	240.37
199.501	133.86
199.719	202.51
199.938	190.33
200.157	227.82
200.376	226.69
200.594	110.1
200.813	84.57
201.032	76.55
201.251	73.88
201.469	91.88
201.688	15900
201.907	142.65
202.125	-2160.71
202.344	166.49
202.563	220.65
202.781	301.09
203	177.44
203.218	-29.13
203.437	34.79
203.656	162.85
203.874	99.23
204.093	129.95
204.311	292.02
204.53	47.7
204.748	122.02
204.967	12.83
205.185	-13.32
205.404	-57.54
205.622	31.98
205.841	-121.49
206.059	-161.01
206.278	-274.1
206.496	651.86
206.715	-388.5
206.933	347.97
207.151	350.35
207.37	141.98
207.588	258.44
207.806	162.25
208.025	483.04
208.243	-144.18
208.461	-131.53
208.68	-459.91
208.898	-205.04
209.116	-86.98
209.335	-40.46
209.553	7.76
209.771	16.59
209.989	30.25
210.208	38.5
210.426	72.2
210.644	82.96
210.862	73.94
211.081	69.78
211.299	56.98
211.517	91.69
211.735	39.26
211.953	-290.91
212.171	249.2
212.39	-39.97
212.608	50.38
212.826	284.02
213.044	-59.76
213.262	-633.42
213.48	-260.55
213.698	-19.38
213.916	146.96
214.134	76.87
214.352	79.88
214.57	105.92
214.788	105.99
215.006	94.52
215.224	152.91
215.442	768.41
215.66	391.47
215.878	-449.92
216.096	8.33
216.314	-16.39
216.532	47.97
216.75	75.12
216.968	87.76
217.185	82.26
217.403	84.62
217.621	173.61
217.839	256.61
218.057	-2259.88
218.275	-126.82
218.492	-18.24
218.71	-392.73
218.928	-599.72
219.146	-2180.83
219.363	-579.91
219.581	817.8
219.799	298.28
220.017	173.41
220.234	103.22
220.452	67.79
220.67	73.11
220.887	74.26
221.105	68.31
221.323	84.64
221.54	83.57
221.758	84.55
221.976	87.02
222.193	94.38
222.411	113.45
222.629	152.96
222.846	162.81
223.064	178.2
223.281	132
223.499	81.48
223.716	59.73
223.934	53.5
224.151	40.45
224.369	38.52
224.586	28.43
224.804	25.62
225.021	1.44
225.239	21.21
225.456	5.63
225.674	10.44
225.891	40.21
226.108	48.21
226.326	43.12
226.543	36.84
226.76	25.73
226.978	32.16
227.195	30.4
227.413	31.66
227.63	24.98
227.847	28.17
228.064	23.56
228.282	21.77
228.499	20.37
228.716	21.43
228.934	20.73
229.151	18.17
229.368	14.8
229.585	18.12
229.802	19.12
230.02	20.2
230.237	18.97
230.454	19.21
230.671	18.24
230.888	13.69
231.105	7.49
231.323	7.09
231.54	9.3
231.757	9.81
231.974	5.82
232.191	2.86
232.408	-6.85
232.625	-3.13
232.842	1.26
233.059	2.57
233.276	9.08
233.493	16.59
233.71	10.42
233.927	10.4
234.144	10.78
234.361	7.72
234.578	4.19
234.795	15.61
235.012	11.36
235.229	14.91
235.446	16.65
235.663	21.06
235.879	24.18
236.096	32.96
236.313	28.02
236.53	24.76
236.747	23.74
236.964	26.33
237.181	25.05
237.397	29.79
237.614	26.62
237.831	25.78
238.048	20.89
238.264	18.19
238.481	8.93
238.698	16.47
238.915	19.79
239.131	20
239.348	20.54
239.565	14.12
239.781	8.93
239.998	11.39
240.215	7.7
240.431	14.28
240.648	16.28
240.865	18.88
241.081	14.33
241.298	13.23
241.514	12.13
241.731	12.57
241.947	15.59
242.164	15
242.38	13.65
242.597	14.5
242.814	13.85
243.03	13.51
243.246	13.17
243.463	13.64
243.679	13.97
243.896	15.1
244.112	15.09
244.329	13.35
244.545	15.7
244.762	14.23
244.978	12.63
245.194	12.71
245.411	12.22
245.627	11.84
245.843	11.65
246.06	10.66
246.276	12.37
246.492	12.77
246.709	12.36
246.925	11.63
247.141	10.46
247.357	10.26
247.574	10.06
247.79	9.5
248.006	10.3
248.222	9.91
248.439	9.99
248.655	7.73
248.871	8.21
249.087	8.41
249.303	7.53
249.519	9.79
249.736	11.62
249.952	10.81
250.168	11.58
250.384	10.57
250.6	13.77
250.816	13.66
251.032	17.59
251.248	15.21
251.464	17.05
251.68	18.14
251.896	18.04
252.112	14.46
252.328	14.67
252.544	14.17
252.76	13.83
252.976	11.82
253.192	14.55
253.408	13.09
253.624	10.73
253.84	8.42
254.056	12.09
254.272	14.02
254.487	17.02
254.703	16.29
254.919	17.02
255.135	20.83
255.351	22.07
255.567	19.44
255.782	20.11
255.998	23.78
256.214	23.12
256.43	17.26
256.646	15.6
256.861	16.36
257.077	18.8
257.293	17.33
257.508	15.09
257.724	12.44
257.94	11.53
258.155	8.98
258.371	6.64
258.587	6.99
258.802	5.76
259.018	4.77
259.234	3.24
259.449	2.97
259.665	4.63
259.88	4.92
260.096	5.9
260.312	5.9
260.527	7.24
260.743	9.08
260.958	8.98
261.174	10.32
261.389	11.34
261.605	13.46
261.82	13.44
262.036	12.54
262.251	11.83
262.466	11.3
262.682	11.96
262.897	10.08
263.113	7.63
263.328	7.59
263.543	8.64
263.759	7.08
263.974	4.9
264.189	5.51
264.405	6.86
264.62	10.2
264.835	9.82
265.051	13.11
265.266	14.44
265.481	14.1
265.696	15.77
265.912	13.63
266.127	14.01
266.342	13.61
266.557	11.49
266.773	8.83
266.988	9.01
267.203	10.85
267.418	8.02
267.633	7.05
267.848	6.99
268.064	4.56
268.279	3.33
268.494	4.44
268.709	5.01
268.924	5.02
269.139	7.09
269.354	4.79
269.569	4.33
269.784	4.25
269.999	4.71
270.214	4.4
270.429	7.87
270.644	8.52
270.859	7.52
271.074	5.64
271.289	5.7
271.504	5.5
271.719	5.68
271.934	5.09
272.149	4.85
272.363	4.92
272.578	5.68
272.793	3.24
273.008	4.19
273.223	2.86
273.438	4.2
273.653	4.82
273.867	4.8
274.082	5.8
274.297	5.13
274.512	6.72
274.726	6.65
274.941	5.64
275.156	5.89
275.371	5.18
275.585	7.38
275.8	7.06
276.015	8.33
276.229	8.87
276.444	7.48
276.659	9.6
276.873	8.67
277.088	8.52
277.302	8.81
277.517	9.73
277.732	9.11
277.946	10.33
278.161	11.16
278.375	12.89
278.59	12.24
278.804	12.72
279.019	9.14
279.233	6.86
279.448	6.75
279.662	7.46
279.877	5.95
280.091	7.62
280.306	6.67
280.52	7.7
280.735	5.08
280.949	5.44
281.163	4.87
281.378	5.8
281.592	6.44
281.806	7.73
282.021	6.33
282.235	8.48
282.449	8.92
282.664	6.65
282.878	4.56
283.092	5.04
283.307	5.81
283.521	6.15
283.735	7.39
283.949	7.74
284.164	6.88
284.378	8.89
284.592	6.58
284.806	5.34
285.02	7.17
285.234	8.07
285.449	7.35
285.663	5.85
285.877	6.8
286.091	6.59
286.305	7.56
286.519	8.76
286.733	7.18
286.947	8.08
287.161	8.59
287.375	8.1
287.589	7.79
287.803	8.91
288.017	11.34
288.231	9.76
288.445	8.71
288.659	7.39
288.873	6.42
289.087	5.81
289.301	5.25
289.515	5.72
289.729	5.44
289.943	5.33
290.157	5.24
290.371	2.94
290.584	4.91
290.798	6.14
291.012	7.25
291.226	6.89
291.44	9.24
291.654	9.9
291.867	10.09
292.081	10.53
292.295	11.41
292.509	9.68
292.722	10.82
292.936	8.29
293.15	8.69
293.364	9.03
293.577	9.87
293.791	10.7
294.005	10.33
294.218	10.57
294.432	11.37
294.645	11.58
294.859	15.06
295.073	14.57
295.286	17.35
295.5	16.99
295.713	16.63
295.927	16.09
296.14	14.47
296.354	15.32
296.568	15.31
296.781	15.09
296.994	14.15
297.208	12.6
297.421	12.85
297.635	12.77
297.848	13.44
298.062	13.92
298.275	13.87
298.489	14.34
298.702	13.87
298.915	13.63
299.129	14.03
299.342	14.85
299.555	14.15
299.769	12.83
299.982	12.13
300.195	10.67
300.409	9.24
300.622	8.96
300.835	8.92
301.048	9.32
301.262	9.38
301.475	7.19
301.688	7.87
301.901	10.03
302.115	12.27
302.328	12.92
302.541	14.71
302.754	15.63
302.967	16.03
303.18	16.23
303.393	16.92
303.607	17.02
303.82	18.01
304.033	17.98
304.246	16.95
304.459	15.94
304.672	16.77
304.885	15.15
305.098	15.7
305.311	17.26
305.524	18.56
305.737	18.65
305.95	19.07
306.163	20.04
306.376	19.73
306.589	20.73
306.802	20.12
307.015	17.22
307.228	16.4
307.44	15.82
307.653	13.8
307.866	11.62
308.079	12.79
308.292	13.97
308.505	14.73
308.718	17.26
308.93	17.02
309.143	19.97
309.356	21.63
309.569	22.74
309.781	23.03
309.994	24.6
310.207	25.58
310.42	23.06
310.632	21.92
310.845	21.31
311.058	20.11
311.27	21.84
311.483	19.77
311.696	19.99
311.908	21.33
312.121	21.64
312.333	19.44
312.546	18.9
312.759	20.25
312.971	20.89
313.184	22.23
313.396	22.56
313.609	20.8
313.821	21.58
314.034	21.11
314.246	21.6
314.459	19.99
314.671	22.53
314.884	22.3
315.096	21.73
315.309	23.71
315.521	22.31
315.733	22.12
315.946	22.56
316.158	22.67
316.371	22.5
316.583	21.55
316.795	24.14
317.008	25.58
317.22	26.45
317.432	28.01
317.644	26.17
317.857	26.32
318.069	26.61
318.281	27.29
318.494	26.92
318.706	28.2
318.918	28.59
319.13	25.36
319.342	24.21
319.555	22.62
319.767	22.48
319.979	22.73
320.191	22.67
320.403	21.4
320.615	21.85
320.827	23.31
321.039	22.84
321.252	20.69
321.464	25.76
321.676	26.21
321.888	26.91
322.1	25.73
322.312	25.66
322.524	26.11
322.736	27.84
322.948	25.34
323.16	24.18
323.372	24.5
323.584	24.74
323.796	23.17
324.007	22.25
324.219	23.69
324.431	24.15
324.643	24.54
324.855	25.79
325.067	24.01
325.279	27.38
325.491	29.61
325.702	30.26
325.914	31.27
326.126	30.32
326.338	29.28
326.55	29.38
326.761	29.6
326.973	28.48
327.185	27.13
327.396	28.4
327.608	26.13
327.82	24.01
328.032	21.14
328.243	21.94
328.455	23.82
328.666	25.51
328.878	25.16
329.09	24.86
329.301	26.56
329.513	28.96
329.725	29.44
329.936	29.6
330.148	33.67
330.359	35.5
330.571	34.96
330.782	36.02
330.994	36.47
331.205	36.52
331.417	39.14
331.628	36.26
331.84	35.84
332.051	36.8
332.262	36.23
332.474	34.37
332.685	35.7
332.897	35.45
333.108	33.65
333.319	33.91
333.531	33.67
333.742	34.57
333.953	36.09
334.165	35.07
334.376	35.44
334.587	37.17
334.799	37.82
335.01	37.56
335.221	38.68
335.432	39.92
335.644	40.42
335.855	40.99
336.066	41.1
336.277	43.78
336.488	43.66
336.7	45.63
336.911	45.65
337.122	45.18
337.333	44.89
337.544	44.56
337.755	45.14
337.966	46.09
338.177	47.04
338.388	44.88
338.599	43.05
338.811	42.63
339.022	39.26
339.233	39.45
339.444	38.66
339.655	39.78
339.866	40.75
340.076	41.13
340.287	39.37
340.498	39.28
340.709	40.23
340.92	40.97
341.131	40.31
341.342	40.21
341.553	40.47
341.764	41.68
341.975	41.7
342.185	41.78
342.396	41.1
342.607	40.83
342.818	41.18
343.029	39.85
343.239	38.74
343.45	39.77
343.661	39.97
343.872	40.3
344.082	40.35
344.293	40.46
344.504	40.79
344.714	40.19
344.925	40.41
345.136	40.28
345.346	42.17
345.557	42.98
345.768	42.71
345.978	43.21
346.189	42.36
346.399	41.01
346.61	41.86
346.821	40.29
347.031	39.22
347.242	38.87
347.452	38.72
347.663	38.75
347.873	40.12
348.084	41.06
348.294	41.65
348.504	41.19
348.715	42.95
348.925	42.13
349.136	42.47
349.346	44.62
349.557	46.49
349.767	46.55
349.977	45.48
350.188	44.47
350.398	44.29
350.608	44.77
350.819	45.3
351.029	45.17
351.239	44.34
351.449	44.69
351.66	45.73
351.87	44.9
352.08	44.11
352.29	45.2
352.501	45.14
352.711	45.2
352.921	44.26
353.131	45.36
353.341	45.86
353.552	46.2
353.762	47.67
353.972	45.72
354.182	45.25
354.392	46.75
354.602	46.76
354.812	46.25
355.022	46.08
355.232	45.77
355.442	43.62
355.652	43.02
355.862	43.33
356.072	42.3
356.282	43.33
356.492	44.31
356.702	43.97
356.912	44.06
357.122	44.96
357.332	45.3
357.542	46.34
357.752	48.99
357.962	47.63
358.171	48.27
358.381	48.33
358.591	47.52
358.801	47.38
359.011	46.7
359.221	46.27
359.43	45.39
359.64	45.92
359.85	45.52
360.06	44.5
360.269	45.19
360.479	44.36
360.689	44.67
360.899	44.52
361.108	43.64
361.318	43.28
361.528	43.44
361.737	43.73
361.947	42.78
362.156	42.91
362.366	43.07
362.576	43.12
362.785	43.14
362.995	42.42
363.204	42.99
363.414	42.91
363.623	43.8
363.833	43.39
364.042	43.34
364.252	44.08
364.461	43.91
364.671	43.14
364.88	42.18
365.09	42.51
365.299	42.69
365.509	41.74
365.718	41.46
365.927	41.55
366.137	42.08
366.346	41.64
366.555	41.25
366.765	40.58
366.974	40.59
367.183	41.39
367.393	40.47
367.602	40.38
367.811	40.85
368.021	41.37
368.23	40.79
368.439	40.74
368.648	41.12
368.857	39.86
369.067	39.41
369.276	38.73
369.485	38.66
369.694	38.95
369.903	39.04
370.112	38.92
370.321	38.46
370.531	37.19
370.74	36.08
370.949	35.46
371.158	36.58
371.367	36.59
371.576	36.98
371.785	36.72
371.994	35.89
372.203	35.22
372.412	34.83
372.621	34.64
372.83	34.65
373.039	33.9
373.248	33.04
373.457	32.36
373.666	31.99
373.874	31.14
374.083	31.89
374.292	32.76
374.501	32.79
374.71	32.34
374.919	32.91
375.128	33.37
375.336	34.16
375.545	34.72
375.754	35.09
375.963	35.78
376.171	35.98
376.38	34.75
376.589	34.11
376.798	33.9
377.006	33.96
377.215	33.38
377.424	33.62
377.632	34.03
377.841	33.81
378.05	33.71
378.258	33.33
378.467	33.28
378.675	33.23
378.884	32.35
379.093	31.46
379.301	31.01
379.51	30.74
379.718	30.32
379.927	30.05
380.135	29.98
380.344	29.78
380.552	29.59
380.761	29.52
380.969	29.83
381.177	30.28
381.386	31.5
381.594	31.77
381.803	32.18
382.011	32.24
382.219	31.36
382.428	31.1
382.636	30.57
382.845	30.15
383.053	29.53
383.261	29.06
383.469	28.84
383.678	27.86
383.886	27.53
384.094	27.09
384.302	25.96
384.511	26.39
384.719	25.85
384.927	25.67
385.135	25.59
385.343	25.59
385.552	25.22
385.76	24.75
385.968	24.89
386.176	24.74
386.384	24.56
386.592	25.06
386.8	24.76
387.008	25.01
387.216	24.74
387.424	24.45
387.633	24.42
387.841	24.3
388.049	24.22
388.257	24.1
388.465	23.58
388.672	23.44
388.88	23.62
389.088	23.09
389.296	22.88
389.504	22.6
389.712	22.37
389.92	21.88
390.128	22.08
390.336	22.5
390.544	22.28
390.751	22.93
390.959	22.8
391.167	22.43
391.375	22.49
391.583	22.64
391.79	22.56
391.998	22.54
392.206	22.53
392.414	22.09
392.621	21.91
392.829	22.19
393.037	22.02
393.244	21.66
393.452	21.68
393.66	21.61
393.867	21.52
394.075	21.26
394.283	21.4
394.49	21.76
394.698	21.92
394.905	21.84
395.113	21.46
395.32	20.86
395.528	21.14
395.735	20.66
395.943	20.37
396.15	20.12
396.358	20.31
396.565	20.02
396.773	19.48
396.98	19.73
397.188	19.71
397.395	20.05
397.602	20.41
397.81	20.2
398.017	20.2
398.225	20.71
398.432	20.44
398.639	20.49
398.847	20.48
399.054	20.69
399.261	20.57
399.468	20.76
399.676	20.63
399.883	20.57
400.09	20.44
400.297	20.41
400.505	20.46
400.712	20.94
400.919	20.9
401.126	20.96
401.333	20.95
401.54	20.84
401.748	20.63
401.955	20.22
402.162	19.84
402.369	19.94
402.576	19.82
402.783	19.89
402.99	19.48
403.197	19.65
403.404	19.63
403.611	19.32
403.818	19.24
404.025	19.1
404.232	19.5
404.439	19.71
404.646	19.93
404.853	20.09
405.06	19.99
405.267	20.46
405.474	20.33
405.681	20.28
405.887	20.64
406.094	20.71
406.301	20.7
406.508	20.52
406.715	20.69
406.922	20.58
407.128	20.67
407.335	20.43
407.542	20.12
407.749	20.45
407.955	20.78
408.162	20.46
408.369	20.55
408.575	20.71
408.782	20.44
408.989	20.3
409.195	20.25
409.402	20.34
409.609	20.23
409.815	20.2
410.022	20.07
410.228	19.87
410.435	20.43
410.642	20.19
410.848	19.82
411.055	19.91
411.261	19.79
411.468	20.07
411.674	19.92
411.881	20.14
412.087	20.14
412.294	19.78
412.5	19.55
412.706	19.06
412.913	19.35
413.119	19.56
413.326	19.81
413.532	19.95
413.738	19.6
413.945	19.58
414.151	19.3
414.357	19.34
414.564	19.69
414.77	19.74
414.976	19.97
415.182	19.66
415.389	19.65
415.595	19.41
415.801	19.3
416.007	19.22
416.214	19.13
416.42	19.26
416.626	19.09
416.832	18.91
417.038	18.97
417.244	18.81
417.45	18.74
417.657	18.69
417.863	18.48
418.069	18.29
418.275	18.24
418.481	18.27
418.687	18.22
418.893	18.05
419.099	17.94
419.305	17.88
419.511	17.8
419.717	17.73
419.923	17.71
420.129	17.87
420.335	18.02
420.541	17.96
420.746	17.88
420.952	17.98
421.158	18.04
421.364	18.02
421.57	17.95
421.776	17.94
421.982	17.94
422.187	17.9
422.393	17.73
422.599	17.65
422.805	17.59
423.01	17.58
423.216	17.39
423.422	17.38
423.628	17.45
423.833	17.36
424.039	17.3
424.245	17.23
424.45	17.21
424.656	17.31
424.862	17.24
425.067	17.23
425.273	17.15
425.478	17.08
425.684	16.97
425.889	16.85
426.095	16.8
426.301	16.56
426.506	16.63
426.712	16.62
426.917	16.58
427.123	16.64
427.328	16.69
427.533	16.85
427.739	16.73
427.944	16.91
428.15	16.68
428.355	16.83
428.561	16.97
428.766	16.78
428.971	16.71
429.177	16.63
429.382	16.6
429.587	16.63
429.793	16.65
429.998	16.82
430.203	16.87
430.408	16.92
430.614	16.93
430.819	17.02
431.024	17.21
431.229	17.28
431.434	17.13
431.64	17.13
431.845	17.11
432.05	16.82
432.255	16.66
432.46	16.49
432.665	16.58
432.87	16.55
433.076	16.73
433.281	16.54
433.486	16.61
433.691	16.55
433.896	16.56
434.101	16.62
434.306	16.76
434.511	16.85
434.716	17.04
434.921	16.93
435.126	17.02
435.331	17.04
435.535	17.21
435.74	17.04
435.945	17.2
436.15	17.21
436.355	17.2
436.56	17.1
436.765	16.9
436.97	16.76
437.174	16.89
437.379	16.8
437.584	16.68
437.789	16.67
437.993	16.66
438.198	16.81
438.403	16.62
438.608	16.43
438.812	16.44
439.017	16.52
439.222	16.58
439.426	16.45
439.631	16.48
439.836	16.46
440.04	16.42
440.245	16.42
440.45	16.24
440.654	16.32
440.859	16.38
441.063	16.42
441.268	16.48
441.472	16.33
441.677	16.3
441.881	16.2
442.086	16.29
442.29	16.17
442.495	16.09
442.699	16.06
442.904	16.02
443.108	16.07
443.312	16.06
443.517	15.9
443.721	16.06
443.925	16.24
444.13	16.07
444.334	15.93
444.538	15.95
444.743	16.11
444.947	16.21
445.151	16.28
445.356	16.28
445.56	16.25
445.764	16.29
445.968	16.21
446.173	16.11
446.377	16.12
446.581	16.1
446.785	16.02
446.989	15.98
447.193	15.85
447.398	15.7
447.602	15.73
447.806	15.65
448.01	15.58
448.214	15.49
448.418	15.61
448.622	15.61
448.826	15.6
449.03	15.63
449.234	15.58
449.438	15.7
449.642	15.66
449.846	15.52
450.05	15.49
450.254	15.66
450.458	15.76
450.662	15.63
450.866	15.77
451.069	15.72
451.273	15.58
451.477	15.56
451.681	15.57
451.885	15.64
452.089	15.77
452.292	15.84
452.496	15.7
452.7	15.67
452.904	15.7
453.107	15.71
453.311	15.78
453.515	16.05
453.719	15.94
453.922	15.85
454.126	15.84
454.33	15.66
454.533	15.59
454.737	15.7
454.94	15.73
455.144	15.73
455.348	15.66
455.551	15.49
455.755	15.33
455.958	15.29
456.162	15.21
456.365	15.11
456.569	15.2
456.772	15.17
456.976	15.08
457.179	14.85
457.383	14.78
457.586	14.84
457.79	14.88
457.993	15.08
458.196	15.21
458.4	15.5
458.603	15.82
458.807	15.76
459.01	15.73
459.213	15.86
459.417	16.01
459.62	16.04
459.823	15.94
460.026	16
460.23	15.74
460.433	15.71
460.636	15.49
460.839	15.25
461.042	15.18
461.246	15.4
461.449	15.34
461.652	15.28
461.855	15.25
462.058	15.27
462.261	15.18
462.464	15.47
462.668	15.7
462.871	15.81
463.074	15.82
463.277	15.96
463.48	15.68
463.683	15.68
463.886	15.64
464.089	15.65
464.292	15.81
464.495	15.92
464.698	15.69
464.901	15.45
465.104	15.32
465.306	15.28
465.509	15.15
465.712	15.11
465.915	15.05
466.118	15.12
466.321	15.25
466.524	15.33
466.726	15.31
466.929	15.42
467.132	15.43
467.335	15.79
467.538	16.03
467.74	16.3
467.943	16.42
468.146	16.48
468.348	16.4
468.551	16.46
468.754	16.23
468.956	16.23
469.159	16.19
469.362	16.48
469.564	16.21
469.767	16.21
469.969	16.05
470.172	16.06
470.375	16.06
470.577	16.14
470.78	16.07
470.982	16.29
471.185	16.27
471.387	16.46
471.59	16.25
471.792	16.23
471.995	15.99
472.197	16.16
472.399	16.16
472.602	16.03
472.804	16.18
473.007	16.16
473.209	15.89
473.411	15.89
473.614	15.71
473.816	15.52
474.018	15.61
474.22	15.9
474.423	15.8
474.625	15.82
474.827	15.93
475.03	15.75
475.232	15.67
475.434	16.01
475.636	16.24
475.838	16.49
476.04	16.6
476.243	16.65
476.445	16.51
476.647	16.41
476.849	16.47
477.051	16.45
477.253	16.56
477.455	16.6
477.657	16.57
477.859	16.49
478.061	16.39
478.263	16.44
478.465	16.46
478.667	16.24
478.869	16.29
479.071	16.37
479.273	16.42
479.475	16.31
479.677	16.42
479.879	16.39
480.081	16.28
480.283	16.26
480.485	16.22
480.686	16.23
480.888	16.37
481.09	16.36
481.292	16.24
481.494	16.08
481.695	16.18
481.897	16.09
482.099	16.07
482.301	16.17
482.502	16.19
482.704	16.2
482.906	16.14
483.107	16.22
483.309	16.28
483.511	16.25
483.712	16.29
483.914	16.26
484.115	16.22
484.317	16.2
484.519	16.15
484.72	16.1
484.922	16.07
485.123	16.08
485.325	16.05
485.526	16.02
485.728	16.04
485.929	16.08
486.131	16.15
486.332	16.15
486.534	16.2
486.735	16.25
486.936	16.31
487.138	16.29
487.339	16.29
487.541	16.21
487.742	16.07
487.943	16.01
488.144	15.95
488.346	15.78
488.547	15.77
488.748	15.69
488.95	15.67
489.151	15.65
489.352	15.68
489.553	15.68
489.755	15.7
489.956	15.85
490.157	15.84
490.358	15.85
490.559	16
490.76	16.06
490.961	16.05
491.163	16.03
491.364	15.99
491.565	15.94
491.766	15.9
491.967	15.92
492.168	15.89
492.369	15.95
492.57	15.9
492.771	15.76
492.972	15.75
493.173	15.86
493.374	15.9
493.575	15.84
493.776	15.87
493.976	15.96
494.177	16.01
494.378	16.06
494.579	16.1
494.78	16.18
494.981	16.39
495.182	16.43
495.382	16.47
495.583	16.46
495.784	16.56
495.985	16.71
496.185	16.66
496.386	16.69
496.587	16.69
496.788	16.67
496.988	16.77
497.189	16.7
497.39	16.77
497.59	16.7
497.791	16.75
497.992	16.79
498.192	16.87
498.393	17.08
498.593	16.98
498.794	17.06
498.994	17.25
499.195	17.31
499.395	17.36
499.596	17.35
499.796	17.43
499.997	17.47
500.197	17.53
500.398	17.58
500.598	17.61
500.799	17.78
500.999	17.69
501.199	17.77
501.4	17.93
501.6	18.17
501.801	18.24
502.001	18.23
502.201	18.23
502.402	18.43
502.602	18.32
502.802	18.16
503.002	18.22
503.203	18.51
503.403	18.6
503.603	18.56
503.803	18.53
504.003	18.68
504.204	18.91
504.404	19.06
504.604	19.09
504.804	19.06
505.004	19.27
505.204	19.42
505.404	19.19
505.604	19.11
505.804	19.22
506.005	19.32
506.205	19.31
506.405	19.21
506.605	19.37
506.805	19.34
507.005	19.61
507.204	19.58
507.404	19.5
507.604	19.65
507.804	19.72
508.004	19.82
508.204	19.75
508.404	19.81
508.604	20
508.804	19.91
509.003	20.07
509.203	20.26
509.403	20.34
509.603	20.54
509.803	20.71
510.002	20.79
510.202	20.87
510.402	21.15
510.602	21.23
510.801	21.2
511.001	21.39
511.201	21.34
511.4	21.38
511.6	21.69
511.8	21.73
511.999	21.86
512.199	21.97
512.398	22.12
512.598	22.21
512.797	22.28
512.997	22.57
513.197	22.68
513.396	22.88
513.596	22.93
513.795	22.92
513.994	23.07
514.194	23.25
514.393	23.5
514.593	23.54
514.792	23.65
514.992	23.79
515.191	23.9
515.39	23.82
515.59	23.97
515.789	24.09
515.988	24.27
516.188	24.29
516.387	24.3
516.586	24.29
516.786	24.27
516.985	24.43
517.184	24.64
517.383	24.75
517.582	24.99
517.782	25.12
517.981	25.3
518.18	25.42
518.379	25.53
518.578	25.68
518.777	25.86
518.976	26.02
519.176	26.02
519.375	26.15
519.574	26.25
519.773	26.32
519.972	26.57
520.171	26.62
520.37	26.64
520.569	26.86
520.768	27
520.967	27.06
521.166	27.12
521.365	27.42
521.564	27.49
521.762	27.54
521.961	27.71
522.16	27.48
522.359	27.56
522.558	27.6
522.757	27.71
522.956	27.78
523.154	27.86
523.353	28.13
523.552	28.06
523.751	28.24
523.949	28.24
524.148	28.37
524.347	28.61
524.546	28.76
524.744	28.92
524.943	28.93
525.142	28.98
525.34	29.05
525.539	29.09
525.737	29.17
525.936	29.21
526.135	29.44
526.333	29.44
526.532	29.45
526.73	29.56
526.929	29.66
527.127	29.76
527.326	29.91
527.524	30.04
527.723	30.12
527.921	30.16
528.12	30.28
528.318	30.4
528.516	30.48
528.715	30.58
528.913	30.61
529.112	30.68
529.31	30.75
529.508	30.73
529.707	30.79
529.905	30.82
530.103	30.93
530.301	30.93
530.5	30.86
530.698	30.98
530.896	31.02
531.094	31.06
531.293	31.08
531.491	31.2
531.689	31.29
531.887	31.22
532.085	31.33
532.283	31.43
532.481	31.61
532.68	31.68
532.878	31.68
533.076	31.84
533.274	31.85
533.472	31.93
533.67	31.91
533.868	32.02
534.066	32.12
534.264	32.11
534.462	32.14
534.66	32.12
534.858	32.19
535.056	32.27
535.253	32.28
535.451	32.5
535.649	32.55
535.847	32.72
536.045	32.88
536.243	32.97
536.441	33.16
536.638	33.22
536.836	33.2
537.034	33.24
537.232	33.29
537.43	33.26
537.627	33.21
537.825	33.22
538.023	33.23
538.22	33.19
538.418	33.26
538.616	33.42
538.813	33.59
539.011	33.75
539.209	33.78
539.406	33.91
539.604	34.06
539.801	33.97
539.999	34.03
540.196	34.12
540.394	34.13
540.591	34.16
540.789	34.07
540.986	34.01
541.184	33.99
541.381	34.02
541.579	34.04
541.776	34.03
541.974	34.13
542.171	34.15
542.368	34.21
542.566	34.27
542.763	34.51
542.96	34.63
543.158	34.73
543.355	34.78
543.552	34.91
543.75	35.04
543.947	35.14
544.144	35.24
544.341	35.53
544.539	35.58
544.736	35.58
544.933	35.39
545.13	35.52
545.327	35.59
545.524	35.71
545.722	35.81
545.919	35.73
546.116	35.91
546.313	36.04
546.51	35.77
546.707	35.65
546.904	35.68
547.101	35.65
547.298	35.51
547.495	35.56
547.692	35.53
547.889	35.51
548.086	35.48
548.283	35.29
548.48	35.3
548.677	35.51
548.874	35.5
549.07	35.59
549.267	35.74
549.464	35.84
549.661	35.74
549.858	35.78
550.055	35.66
550.251	35.88
550.448	35.85
550.645	35.7
550.842	35.63
551.038	35.76
551.235	35.63
551.432	35.62
551.628	35.64
551.825	35.81
552.022	35.79
552.218	35.77
552.415	35.56
552.612	35.58
552.808	35.55
553.005	35.63
553.201	35.63
553.398	35.84
553.594	35.67
553.791	35.54
553.987	35.4
554.184	35.45
554.38	35.54
554.577	35.7
554.773	35.73
554.97	35.72
555.166	35.53
555.362	35.47
555.559	35.42
555.755	35.54
555.952	35.68
556.148	35.64
556.344	35.67
556.541	35.78
556.737	35.64
556.933	35.57
557.129	35.67
557.326	35.93
557.522	36.05
557.718	36.06
557.914	36.21
558.11	36.24
558.307	36.42
558.503	36.62
558.699	36.65
558.895	36.63
559.091	36.54
559.287	36.46
559.483	36.45
559.679	36.32
559.876	36.16
560.072	36.07
560.268	36.11
560.464	35.84
560.66	35.63
560.856	35.7
561.052	35.8
561.247	36.03
561.443	35.98
561.639	35.88
561.835	35.92
562.031	36.12
562.227	36.26
562.423	36.18
562.619	36.28
562.815	36.19
563.01	36.16
563.206	36.31
563.402	36.18
563.598	36.58
563.793	36.58
563.989	36.51
564.185	36.27
564.381	35.88
564.576	35.82
564.772	35.95
564.968	36.06
565.163	35.99
565.359	35.94
565.555	36.13
565.75	35.72
565.946	35.81
566.141	35.93
566.337	36.26
566.532	36.6
566.728	36.54
566.923	36.72
567.119	36.78
567.314	36.82
567.51	36.84
567.705	36.82
567.901	37.16
568.096	37.12
568.292	37.19
568.487	36.78
568.682	36.77
568.878	36.9
569.073	36.63
569.268	36.55
569.464	36.47
569.659	36.51
569.854	36.63
570.05	36.63
570.245	36.57
570.44	36.46
570.635	36.69
570.831	36.75
571.026	36.76
571.221	36.91
571.416	36.82
571.611	36.97
571.806	36.7
572.002	36.64
572.197	36.49
572.392	36.49
572.587	36.74
572.782	36.68
572.977	36.57
573.172	36.65
573.367	36.68
573.562	36.85
573.757	36.87
573.952	37.17
574.147	37.35
574.342	37.26
574.537	37.36
574.732	37.24
574.927	37.35
575.121	37.29
575.316	37.18
575.511	37.12
575.706	37.11
575.901	37.14
576.096	37.13
576.29	36.9
576.485	37.13
576.68	37.11
576.875	37.17
577.069	37.33
577.264	37.67
577.459	37.86
577.654	37.93
577.848	38.03
578.043	37.84
578.238	37.76
578.432	38.07
578.627	38.05
578.821	38.13
579.016	38.06
579.21	38.08
579.405	37.75
579.6	37.8
579.794	37.93
579.989	37.9
580.183	37.83
580.378	38.03
580.572	37.79
580.766	37.92
580.961	37.95
581.155	37.89
581.35	37.79
581.544	38
581.738	38.15
581.933	37.96
582.127	37.62
582.321	38.04
582.516	38.04
582.71	38.06
582.904	37.85
583.099	37.84
583.293	37.98
583.487	38.02
583.681	38.05
583.875	37.92
584.07	38.09
584.264	38.19
584.458	37.82
584.652	37.68
584.846	37.69
585.04	38.05
585.234	38.1
585.428	38.14
585.623	38.42
585.817	38.38
586.011	38.37
586.205	38.45
586.399	38.93
586.593	39.01
586.787	39.11
586.981	39.04
587.174	38.79
587.368	38.62
587.562	38.54
587.756	38.07
587.95	37.9
588.144	37.9
588.338	37.75
588.532	37.49
588.725	37.89
588.919	37.95
589.113	38
589.307	38.2
589.501	38.17
589.694	38.17
589.888	38.42
590.082	38.36
590.275	38.28
590.469	38.1
590.663	38.21
590.856	37.66
591.05	37.65
591.244	37.8
591.437	37.55
591.631	37.64
591.824	37.65
592.018	37.65
592.212	38.02
592.405	38.01
592.599	37.79
592.792	37.86
592.986	38.11
593.179	37.86
593.372	37.63
593.566	37.69
593.759	37.65
593.953	37.74
594.146	37.56
594.339	37.43
594.533	37.34
594.726	37.7
594.92	37.51
595.113	37.4
595.306	37.28
595.499	37.63
595.693	37.67
595.886	37.67
596.079	37.71
596.272	37.79
596.466	37.65
596.659	37.87
596.852	37.86
597.045	37.9
597.238	37.97
597.431	38.52
597.624	38.26
597.818	38.38
598.011	38.32
598.204	38.17
598.397	37.98
598.59	37.89
598.783	37.9
598.976	38.22
599.169	38.29
599.362	38.27
599.555	38.1
599.748	38.33
599.941	38.17
600.134	38.51
600.326	38.52
600.519	38.73
600.712	39.19
600.905	39.23
601.098	38.7
601.291	38.66
601.483	38.7
601.676	38.46
601.869	38.17
602.062	38.1
602.255	38.04
602.447	38.08
602.64	38.25
602.833	38.03
603.025	37.86
603.218	37.94
603.411	38.04
603.603	38.17
603.796	38.19
603.989	38.43
604.181	38.55
604.374	38.56
604.566	38.49
604.759	38.33
604.951	38.43
605.144	38.35
605.336	38.38
605.529	38.19
605.721	38.08
605.914	37.91
606.106	37.82
606.299	37.59
606.491	37.42
606.683	37.36
606.876	37.6
607.068	37.44
607.26	37.51
607.453	37.61
607.645	37.87
607.837	37.82
608.03	38.04
608.222	37.94
608.414	38.38
608.606	38.59
608.799	38.84
608.991	38.89
609.183	38.94
609.375	39.27
609.567	39.32
609.759	39.48
609.952	39.84
610.144	40.22
610.336	40.46
610.528	40.54
610.72	40.81
610.912	41.01
611.104	41.24
611.296	41.58
611.488	41.6
611.68	41.71
611.872	41.66
612.064	41.76
612.256	41.57
612.448	41.62
612.64	41.41
612.832	41.49
613.023	41.44
613.215	41.19
613.407	41.16
613.599	40.97
613.791	40.92
613.983	40.74
614.174	40.25
614.366	40.22
614.558	40.41
614.75	40.45
614.941	39.81
615.133	39.41
615.325	39.25
615.516	38.86
615.708	38.83
615.9	38.69
616.091	38.94
616.283	39.25
616.475	38.93
616.666	38.68
616.858	38.87
617.049	38.89
617.241	39.14
617.432	38.98
617.624	39.21
617.815	39.01
618.007	38.94
618.198	38.77
618.39	38.86
618.581	39.02
618.773	38.84
618.964	38.73
619.155	39.07
619.347	38.97
619.538	39.25
619.729	39.07
619.921	39.04
620.112	39.22
620.303	39.12
620.494	38.79
620.686	39.07
620.877	39.01
621.068	38.97
621.259	38.79
621.451	38.72
621.642	38.48
621.833	38.53
622.024	38.59
622.215	38.31
622.406	38.49
622.597	38.3
622.788	38.15
622.98	38.33
623.171	38.23
623.362	38.39
623.553	38.5
623.744	38.65
623.935	38.85
624.126	38.87
624.317	38.9
624.508	39.02
624.698	39.24
624.889	39.14
625.08	39.33
625.271	39.26
625.462	38.96
625.653	38.99
625.844	39
626.034	38.87
626.225	39.09
626.416	39.36
626.607	39.15
626.798	39.15
626.988	39.02
627.179	38.75
627.37	38.82
627.56	38.83
627.751	38.7
627.942	38.88
628.132	38.9
628.323	38.71
628.514	38.66
628.704	38.63
628.895	38.71
629.085	39.11
629.276	39.16
629.466	39.34
629.657	39.46
629.847	39.58
630.038	39.59
630.228	39.47
630.419	39.62
630.609	39.76
630.8	39.71
630.99	39.52
631.181	39.26
631.371	39.17
631.561	39.01
631.752	39.18
631.942	39.09
632.132	38.67
632.323	38.73
632.513	38.55
632.703	38.31
632.893	38.34
633.084	38.37
633.274	38.35
633.464	38.5
633.654	38.58
633.844	38.34
634.034	38.39
634.225	38.46
634.415	38.61
634.605	38.74
634.795	38.92
634.985	39.11
635.175	38.96
635.365	38.86
635.555	38.91
635.745	38.68
635.935	38.44
636.125	38.67
636.315	38.71
636.505	38.91
636.695	38.65
636.885	38.36
637.075	38.19
637.265	38.34
637.455	38.31
637.644	38.36
637.834	38.65
638.024	39.01
638.214	38.89
638.404	38.8
638.593	38.58
638.783	38.67
638.973	38.83
639.163	39.05
639.352	39.12
639.542	39.08
639.732	38.49
639.921	38.25
640.111	37.94
640.301	37.78
640.49	37.88
640.68	37.16
640.87	37.11
641.059	37.18
641.249	36.61
641.438	36.51
641.628	36.55
641.817	36.99
642.007	37.15
642.196	37.3
642.386	37.49
642.575	37.31
642.764	37.56
642.954	38.02
643.143	38.01
643.333	38.66
643.522	38.75
643.711	38.79
643.901	38.83
644.09	38.7
644.279	38.96
644.469	38.9
644.658	39.03
644.847	39.16
645.036	38.91
645.226	38.57
645.415	38.07
645.604	37.79
645.793	38.16
645.982	37.95
646.171	37.92
646.361	38
646.55	37.72
646.739	37.92
646.928	38.34
647.117	38.82
647.306	39.26
647.495	39.26
647.684	39.49
647.873	39.08
648.062	39.11
648.251	39.31
648.44	38.82
648.629	38.94
648.818	38.94
649.007	38.88
649.196	38.3
649.384	38.17
649.573	38.23
649.762	38.13
649.951	37.94
650.14	37.8
650.328	37.51
650.517	37.64
650.706	37.65
650.895	37.86
651.083	37.66
651.272	37.72
651.461	37.23
651.65	37.37
651.838	37.64
652.027	38.36
652.216	38.78
652.404	38.95
652.593	39.17
652.781	39.42
652.97	39.19
653.158	39.44
653.347	39.63
653.535	40.1
653.724	39.72
653.912	39.36
654.101	39.17
654.289	39.12
654.478	38.93
654.666	39.13
654.855	39.22
655.043	38.92
655.231	38.35
655.42	38
655.608	37.83
655.796	37.88
655.985	37.94
656.173	37.84
656.361	37.67
656.55	37.89
656.738	37.57
656.926	37.52
657.114	38.08
657.302	38.35
657.491	38.92
657.679	38.92
657.867	38.97
658.055	39.16
658.243	39.26
658.431	38.93
658.619	38.72
658.807	38.65
658.996	38.37
659.184	38.08
659.372	37.99
659.56	37.67
659.748	37.62
659.936	37.95
660.124	37.88
660.311	37.55
660.499	38.04
660.687	37.89
660.875	38
661.063	38.33
661.251	38.05
661.439	38.44
661.627	38.33
661.814	38.6
662.002	38.47
662.19	38.44
662.378	38.98
662.565	38.89
662.753	39.5
662.941	38.9
663.129	38.53
663.316	38.67
663.504	38.08
663.692	38.37
663.879	38.22
664.067	38.26
664.254	38.12
664.442	37.99
664.63	38.1
664.817	37.81
665.005	38.67
665.192	38.88
665.38	39.44
665.567	39.78
665.755	39.46
665.942	39.36
666.13	39.34
666.317	39.5
666.504	39.03
666.692	38.58
666.879	38.36
667.067	38.4
667.254	38.42
667.441	38.43
667.629	38.12
667.816	38.45
668.003	38.47
668.19	38.41
668.378	38.34
668.565	38.8
668.752	38.99
668.939	39.22
669.127	38.65
669.314	38.38
669.501	37.86
669.688	38.21
669.875	37.88
670.062	37.81
670.249	38.05
670.436	38.05
670.623	37.88
670.81	38.16
670.997	37.92
671.184	38.49
671.371	38.27
671.558	38.63
671.745	38.76
671.932	38.97
672.119	39.17
672.306	39.04
672.493	39.28
672.68	38.61
672.867	38.07
673.054	38.25
673.24	38.04
673.427	38.3
673.614	38.58
673.801	38.32
673.988	38.3
674.174	38.63
674.361	38.63
674.548	38.8
674.734	39.49
674.921	39.79
675.108	40.06
675.294	40.26
675.481	40.1
675.668	39.89
675.854	39.58
676.041	39.56
676.227	39.18
676.414	39.49
676.601	38.77
676.787	38.83
676.974	38.3
677.16	38.54
677.347	37.95
677.533	38.73
677.719	38.47
677.906	38.93
678.092	38.38
678.279	38.54
678.465	38.81
678.651	39.2
678.838	38.98
679.024	39.67
679.21	39.43
679.397	39.84
679.583	39.22
679.769	39.31
679.955	39.25
680.142	39.98
680.328	39.78
680.514	39.16
680.7	38.64
680.886	38.66
681.073	38.28
681.259	38.16
681.445	38.17
681.631	38.42
681.817	38.69
682.003	37.88
682.189	37.3
682.375	37.53
682.561	37.62
682.747	37.92
682.933	38.15
683.119	38.32
683.305	38.12
683.491	37.93
683.677	37.76
683.863	37.37
684.049	38.05
684.235	38.53
684.42	38.49
684.606	38.51
684.792	38.73
684.978	38.47
685.164	37.87
685.349	37.87
685.535	37.8
685.721	38.01
685.907	37.8
686.092	37.86
686.278	37.51
686.464	37.52
686.649	37.49
686.835	37.16
687.021	37.53
687.206	37.6
687.392	38.03
687.577	38.04
687.763	38.01
687.948	38.13
688.134	38.34
688.319	38.4
688.505	38.27
688.69	38.68
688.876	38.85
689.061	38.53
689.247	38.55
689.432	38.43
689.618	38.61
689.803	38.35
689.988	38.11
690.174	37.91
690.359	38.1
690.544	37.8
690.73	37.58
690.915	37.71
691.1	37.2
691.285	37.63
691.471	37.83
691.656	37.94
691.841	38.17
692.026	38.63
692.211	38.33
692.396	38.5
692.582	38.91
692.767	38.43
692.952	38.63
693.137	39.91
693.322	40.36
693.507	40.24
693.692	40.21
693.877	39.68
694.062	40.19
694.247	40.76
694.432	41.04
694.617	40.84
694.802	40.77
694.987	40.45
695.172	39.53
695.357	39.68
695.541	39.14
695.726	38.43
695.911	38.41
696.096	37.95
696.281	37.75
696.466	36.91
696.65	36.8
696.835	37.29
697.02	37.51
697.204	37.34
697.389	36.73
697.574	36.63
697.759	37.52
697.943	37.82
698.128	37.89
698.312	37.77
698.497	38.12
698.682	38.2
698.866	38.21
699.051	38.13
699.235	38.5
699.42	38.26
699.604	38.38
699.789	37.89
699.973	37.71
700.158	37.28
700.342	37.5
700.527	37.13
700.711	36.75
700.895	36.25
701.08	36.41
701.264	36.24
701.448	37.08
701.633	36.89
701.817	37.11
702.001	37.87
702.186	38.01
702.37	37.88
702.554	37.91
702.738	38.41
702.923	38.71
703.107	38.54
703.291	38.11
703.475	37.85
703.659	38.33
703.843	38.68
704.027	38.62
704.212	39.12
704.396	39.01
704.58	39.21
704.764	38.78
704.948	38.89
705.132	39.02
705.316	39.05
705.5	37.84
705.684	38.46
705.868	37.78
706.052	37.58
706.235	37.45
706.419	37.25
706.603	37.42
706.787	38.02
706.971	38.62
707.155	38.45
707.339	38.8
707.522	39.76
707.706	39
707.89	39.28
708.074	39.46
708.257	39.69
708.441	39.96
708.625	39.82
708.808	39.9
708.992	39.59
709.176	39.59
709.359	39.5
709.543	39.47
709.727	39.95
709.91	39.85
710.094	39.75
710.277	39.05
710.461	38.97
710.644	39.29
710.828	38.87
711.011	38.36
711.195	38.03
711.378	37.78
711.562	37.39
711.745	37.94
711.928	38.37
712.112	37.96
712.295	39.03
712.478	39.21
712.662	38.83
712.845	39.14
713.028	39.11
713.212	39.53
713.395	39.48
713.578	39.53
713.761	39.17
713.945	38.24
714.128	38.12
714.311	37.44
714.494	37.12
714.677	37.08
714.86	37.36
715.043	37.54
715.227	37.25
715.41	37.73
715.593	38.16
715.776	37.84
715.959	37.65
716.142	37.55
716.325	36.88
716.508	36.9
716.691	36.63
716.874	35.99
717.057	35.6
717.239	35.89
717.422	35.74
717.605	35.26
717.788	34.81
717.971	35.24
718.154	35.62
718.337	36.4
718.519	36.72
718.702	38.02
718.885	37.99
719.068	38.26
719.25	37.24
719.433	37.25
719.616	37.87
719.798	37.68
719.981	38.36
720.164	38.02
720.346	37.56
720.529	37.99
720.712	37.47
720.894	37.88
721.077	37.63
721.259	38.29
721.442	37.96
721.624	37.06
721.807	37.08
721.989	36.96
722.172	37.51
722.354	38.4
722.537	37.84
722.719	37.36
722.901	37.73
723.084	37.78
723.266	37.4
723.448	39.13
723.631	39.57
723.813	40.05
723.995	39.91
724.178	39.68
724.36	39.14
724.542	39.42
724.724	39.24
724.907	38.92
725.089	39.09
725.271	40.12
725.453	38.24
725.635	37.81
725.817	38.18
725.999	38.18
726.181	37.27
726.364	37.75
726.546	37.42
726.728	36.82
726.91	36.6
727.092	37.45
727.274	37.55
727.456	37.98
727.638	38.54
727.819	38.57
728.001	38.59
728.183	38.79
728.365	38.29
728.547	38.67
728.729	38.71
728.911	38.98
729.093	38.19
729.274	37.57
729.456	37.2
729.638	37.5
729.82	37.23
730.001	36.76
730.183	37.7
730.365	37.62
730.546	37.33
730.728	38.48
730.91	38.63
731.091	38.78
731.273	38.78
731.455	38.96
731.636	38.46
731.818	38.3
731.999	38.75
732.181	38.03
732.362	37.38
732.544	37.86
732.725	36.55
732.907	35.93
733.088	36.26
733.27	36.23
733.451	36.69
733.633	36.52
733.814	36.3
733.995	36.53
734.177	35.67
734.358	36.6
734.539	36.01
734.721	37.46
734.902	38.48
735.083	38.87
735.264	39.04
735.446	38.59
735.627	39.29
735.808	39.38
735.989	39.3
736.17	41.36
736.351	41.53
736.533	41.09
736.714	40.7
736.895	39.24
737.076	38.73
737.257	38.72
737.438	38.37
737.619	37.41
737.8	37.15
737.981	37.09
738.162	35.28
738.343	35.29
738.524	35.44
738.705	34.6
738.886	34.68
739.067	34.74
739.247	34.74
739.428	35.45
739.609	36.54
739.79	36.77
739.971	36.75
740.151	37.15
740.332	37.25
740.513	38.35
740.694	39.79
740.874	39.21
741.055	38.88
741.236	38.9
741.417	38.58
741.597	37.89
741.778	38.26
741.958	37.43
742.139	37.69
742.32	36.51
742.5	35.39
742.681	35.33
742.861	36.04
743.042	34.94
743.222	36.05
743.403	36.58
743.583	37.37
743.764	37.15
743.944	37.48
744.124	37.49
744.305	37.62
744.485	37.63
744.666	37.17
744.846	37.15
745.026	38.16
745.207	37.63
745.387	36.75
745.567	36.66
745.747	35.5
745.928	35.83
746.108	35.53
746.288	35.63
746.468	35.12
746.648	34.63
746.829	34.95
747.009	33.92
747.189	34.1
747.369	33.94
747.549	32.72
747.729	33.52
747.909	34.03
748.089	34.93
748.269	34.56
748.449	34.7
748.629	35.82
748.809	34.2
748.989	35.5
749.169	35.04
749.349	35.73
749.529	37.13
749.709	38.1
749.889	37.23
750.068	36.8
750.248	37.43
750.428	38.54
750.608	37.04
750.788	38.22
750.967	37.99
751.147	36.82
751.327	36.3
751.507	35.06
751.686	33.6
751.866	34.33
752.046	35.36
752.225	35.92
752.405	36.85
752.585	37.54
752.764	38.63
752.944	38.15
753.123	39.46
753.303	39.18
753.482	40.23
753.662	41.64
753.841	40.91
754.021	40.04
754.2	39.48
754.38	38.9
754.559	38
754.739	35.56
754.918	36.17
755.097	35.89
755.277	35.73
755.456	34.89
755.635	35.18
755.815	35.5
755.994	35.42
756.173	34.8
756.352	33.8
756.532	34.01
756.711	35.97
756.89	34.92
757.069	34.78
757.248	35.46
757.427	34.42
757.607	32.53
757.786	32.15
757.965	31.99
758.144	32.19
758.323	33.05
758.502	34.93
758.681	34.76
758.86	36.22
759.039	37.66
759.218	37.82
759.397	38.02
759.576	38.55
759.755	38.71
759.934	39.14
760.113	39.92
760.291	39.23
760.47	38.4
760.649	38.09
760.828	37.18
761.007	35.5
761.186	35.27
761.364	36.42
761.543	36.6
761.722	37.88
761.901	36.41
762.079	34.91
762.258	34.4
762.437	34.23
762.615	34.32
762.794	33.69
762.972	33.84
763.151	34.02
763.33	33.84
763.508	34.5
763.687	33.98
763.865	35.38
764.044	35.79
764.222	35.55
764.401	34.72
764.579	35.46
764.758	36.92
764.936	37.02
765.114	38.01
765.293	37.67
765.471	37.69
765.65	36.89
765.828	36.9
766.006	38.39
766.184	38.82
766.363	39.34
766.541	39.71
766.719	39.09
766.898	39.22
767.076	38.11
767.254	39.99
767.432	39.37
767.61	39.35
767.788	39.8
767.967	37.91
768.145	38.69
768.323	38.26
768.501	36.46
768.679	36.7
768.857	36.24
769.035	35.35
769.213	33.99
769.391	34.6
769.569	34.35
769.747	33.88
769.925	35.62
770.103	34.98
770.281	36.21
770.459	38.1
770.636	36.78
770.814	35.93
770.992	37.19
771.17	38.35
771.348	36.75
771.525	38.94
771.703	37.29
771.881	36.03
772.059	36.32
772.236	36.3
772.414	34.51
772.592	37.15
772.769	38.87
772.947	36.26
773.125	33.64
773.302	34.63
773.48	33.24
773.657	34.99
773.835	35.61
774.013	36.6
774.19	37
774.368	37.43
774.545	38.02
774.723	36.57
774.9	38.88
775.077	41.21
775.255	40.45
775.432	41.73
775.61	41.05
775.787	40.43
775.964	40.6
776.142	39.25
776.319	36.81
776.496	34.11
776.674	36.45
776.851	35.87
777.028	35.65
777.205	38.14
777.382	37.64
777.56	36.52
777.737	36.55
777.914	34.63
778.091	36.99
778.268	38.74
778.445	38.21
778.622	38.43
778.8	39.42
778.977	37.61
779.154	37.3
779.331	36.82
779.508	38.89
779.685	39.45
779.862	40.76
780.038	38.4
780.215	40.05
780.392	41.2
780.569	40.51
780.746	40.93
780.923	42
781.1	40.74
781.277	41.4
781.453	39.44
781.63	38.52
781.807	37.49
781.984	38.12
782.16	36.36
782.337	38.48
782.514	36.1
782.691	36.26
782.867	35.99
783.044	36.82
783.221	36.16
783.397	34.85
783.574	36.17
783.75	35.15
783.927	37.38
784.103	38.1
784.28	36.25
784.456	38.84
784.633	37.35
784.809	34.3
784.986	34.26
785.162	32.41
785.339	33.96
785.515	33.42
785.692	32.93
785.868	28.6
786.044	29.01
786.221	30.4
786.397	28.34
786.573	26.69
786.749	30.75
786.926	32.25
787.102	32.91
787.278	34.69
787.454	37.02
787.631	38.04
787.807	39.94
787.983	39.93
788.159	38.09
788.335	39.36
788.511	40.4
788.687	41.66
788.863	39.78
789.039	41.02
789.216	37.61
789.392	36.45
789.568	36.79
789.744	34.07
789.919	31.04
790.095	29.46
790.271	26.83
790.447	27.99
790.623	26.3
790.799	24.76
790.975	26.25
791.151	29.58
791.327	30.05
791.502	29.85
791.678	31.21
791.854	34.56
792.03	33.05
792.205	31.89
792.381	32.35
792.557	33.82
792.733	32.92
792.908	29.64
793.084	29.55
793.259	29.46
793.435	27.69
793.611	29.3
793.786	27.34
793.962	32.16
794.137	36.24
794.313	33.14
794.488	30
794.664	33.73
794.839	33.36
795.015	34.29
795.19	33.19
795.366	35.77
795.541	34.2
795.716	36.75
795.892	36.31
796.067	38.33
796.242	40.18
796.418	41.64
796.593	40.53
796.768	44.21
796.944	43.8
797.119	45.11
797.294	44.9
797.469	44.91
797.644	41.39
797.82	37.77
797.995	33.5
798.17	33.63
798.345	33.09
798.52	33.56
798.695	30.38
798.87	28.41
799.045	26.68
799.22	26.49
799.395	27.57
799.57	31.6
799.745	34.46
799.92	37.58
800.095	36.47
800.27	34.56
800.445	35.3
800.62	36.11
800.795	36.13
800.97	34.83
801.145	34.02
801.319	33.69
801.494	29.58
801.669	31.13
801.844	25.89
802.018	25.98
802.193	27.76
802.368	24.02
802.543	24.02
802.717	23.63
802.892	24.27
803.067	26.27
803.241	28.35
803.416	27.67
803.59	24.68
803.765	29.7
803.94	26.87
804.114	27.92
804.289	30.11
804.463	28.34
804.638	30.91
804.812	32.99
804.986	34.57
805.161	36.06
805.335	34.5
805.51	35.9
805.684	37.07
805.858	40.91
806.033	39.33
806.207	40.47
806.381	42.34
806.556	42.23
806.73	41.92
806.904	39.86
807.078	38.12
807.253	37.72
807.427	38.1
807.601	35.14
807.775	36.13
807.949	38.47
808.123	36.89
808.298	37.73
808.472	34.21
808.646	36.47
808.82	36.11
808.994	35.37
809.168	42.24
809.342	43.05
809.516	41.78
809.69	41.01
809.864	39.42
810.038	44.86
810.212	45.12
810.385	47.1
810.559	44.47
810.733	42.58
810.907	40.83
811.081	36.5
811.255	36.57
811.428	39.16
811.602	40.18
811.776	41.19
811.95	37.59
812.123	36.63
812.297	39.13
812.471	42.82
812.644	43.76
812.818	44.4
812.992	46.76
813.165	43.72
813.339	43.5
813.512	40.65
813.686	38.51
813.86	40.16
814.033	37.07
814.207	35.06
814.38	28.48
814.554	27.09
814.727	28.45
814.9	29.01
815.074	34.56
815.247	31.63
815.421	36.16
815.594	34.08
815.767	32.95
815.941	32.64
816.114	27.78
816.287	36.18
816.46	43.62
816.634	42.28
816.807	41.37
816.98	38.71
817.153	46.74
817.327	46.84
817.5	50.56
817.673	48.96
817.846	55.22
818.019	61.73
818.192	56.46
818.365	47.91
818.538	49.12
818.711	51.46
818.884	47.83
819.057	39.33
819.23	39.32
819.403	33.74
819.576	36.56
819.749	31.43
819.922	26.62
820.095	25.9
820.268	28.55
820.441	28.63
820.614	28.16
820.786	28.48
820.959	32.09
821.132	31.4
821.305	33.91
821.477	32.41
821.65	34.45
821.823	34.44
821.996	35.02
822.168	35.59
822.341	35.19
822.514	35.18
822.686	35.2
822.859	34.64
823.031	34.78
823.204	34.3
823.376	33.69
823.549	33.55
823.722	33.52
823.894	33.72
824.067	34.35
824.239	34.92
824.411	34.15
824.584	34.48
824.756	34.59
824.929	34.04
825.101	34.96
825.273	36.33
825.446	37.41
825.618	37.58
825.79	37.5
825.963	34.45
826.135	34.11
826.307	36.03
826.479	36.16
826.652	37.45
826.824	38.01
826.996	38.02
827.168	37.65
827.34	36.12
827.512	37.11
827.684	37.45
827.856	38.56
828.029	38.05
828.201	38.05
828.373	38.94
828.545	37.79
828.717	39.93
828.889	39.47
829.061	37.94
829.232	37.75
829.404	37.09
829.576	36.91
829.748	36.57
829.92	37.8
830.092	36.1
830.264	36.64
830.436	36.9
830.607	31.3
830.779	32.44
830.951	35.98
831.123	37.4
831.294	36.51
831.466	34.31
831.638	33.98
831.809	28.69
831.981	29.73
832.153	28.36
832.324	27.62
832.496	30.9
832.667	28.36
832.839	28.64
833.011	26.64
833.182	26.94
833.354	30.04
833.525	31.42
833.697	33.32
833.868	31.99
834.039	33.48
834.211	32.05
834.382	32.18
834.554	33.64
834.725	33.4
834.896	33.08
835.068	35.7
835.239	33.76
835.41	37.95
835.581	38.41
835.753	39.34
835.924	38.37
836.095	39.55
836.266	38.11
836.438	38.51
836.609	36.45
836.78	36.52
836.951	36.93
837.122	37.76
837.293	33.53
837.464	37.57
837.635	34.5
837.806	31.5
837.977	30.18
838.148	31.39
838.319	27.12
838.49	26.93
838.661	28.54
838.832	22.44
839.003	26.67
839.174	30.75
839.345	23.07
839.516	31.65
839.687	33.8
839.857	38.66
840.028	40.98
840.199	49.91
840.37	51.14
840.54	49.35
840.711	55.27
840.882	52.43
841.053	41.97
841.223	43.23
841.394	37.92
841.564	40.37
841.735	31.36
841.906	25.64
842.076	15.21
842.247	17.59
842.417	28.3
842.588	23.98
842.758	22.48
842.929	27.26
843.099	29.05
843.27	29.15
843.44	30.69
843.611	33.25
843.781	31.26
843.951	44.47
844.122	49.38
844.292	49.99
844.462	58.91
844.633	60.24
844.803	64.48
844.973	60.34
845.144	60.44
845.314	63.8
845.484	62.23
845.654	67.52
845.824	69.72
845.995	70.76
846.165	78.12
846.335	69.18
846.505	63.13
846.675	59.5
846.845	76.52
847.015	80.61
847.185	65.27
847.355	74.89
847.525	71.44
847.695	65.65
847.865	61.71
848.035	38.49
848.205	49.88
848.375	62.77
848.545	75.93
848.715	62.29
848.884	51.94
849.054	62.82
849.224	77.53
849.394	82.27
849.564	78.55
849.733	78.12
849.903	82.37
850.073	74.44
850.243	77.42
850.412	60.51
850.582	59.58
850.752	81.05
850.921	67.68
851.091	43.27
851.26	40.03
851.43	19.6
851.599	9.84
851.769	22.86
851.939	14.49
852.108	6.21
852.278	4.96
852.447	19.5
852.616	33.5
852.786	35.39
852.955	36.26
853.125	37.42
853.294	44.45
853.463	53.54
853.633	58.1
853.802	58.57
853.971	61.86
854.141	53.75
854.31	60.82
854.479	48.64
854.648	54.26
854.818	51.51
854.987	52.43
855.156	62.72
855.325	48.6
855.494	47.73
855.663	49.19
855.832	38.14
856.001	43.26
856.171	42.52
856.34	42.88
856.509	32.16
856.678	32.67
856.847	38.41
857.016	13.53
857.185	0.81
857.353	-29.41
857.522	-23.31
857.691	-12.75
857.86	2.66
858.029	1.63
858.198	6.18
858.367	19.91
858.535	24.38
858.704	14.39
858.873	24.84
859.042	42.47
859.21	55.61
859.379	54.5
859.548	54.59
859.717	34.79
859.885	21.47
860.054	27.7
860.222	17.17
860.391	23.63
860.56	22.9
860.728	28.64
860.897	-1.73
861.065	-4.7
861.234	3.82
861.402	0.71
861.571	24.74
861.739	35.32
861.908	41.33
862.076	36.36
862.244	19.13
862.413	16.32
862.581	23.17
862.749	38.64
862.918	31.9
863.086	40.43
863.254	31.67
863.423	14.28
863.591	3.85
863.759	-22.04
863.927	5.35
864.096	24.16
864.264	49.25
864.432	36.38
864.6	26.89
864.768	32.9
864.936	19.7
865.104	21.51
865.272	25.84
865.44	29.46
865.608	33.97
865.776	23.36
865.944	22.21
866.112	-2.58
866.28	-0.71
866.448	17.51
866.616	23.11
866.784	17.6
866.952	34.22
867.12	44.32
867.288	54.34
867.455	59.75
867.623	60.14
867.791	50.14
867.959	68.9
868.127	83
868.294	49.87
868.462	46.93
868.63	37.75
868.797	40.68
868.965	56.56
869.133	38
869.3	8.92
869.468	13.28
869.636	36.94
869.803	27.68
869.971	15.26
870.138	32.27
870.306	25.84
870.473	44.96
870.641	42.04
870.808	21.09
870.975	14.12
871.143	20.56
871.31	40.64
871.478	46.97
871.645	41.97
871.812	58.64
871.98	56.57
872.147	77.55
872.314	62.96
872.482	64.48
872.649	56.06
872.816	63.22
872.983	58.13
873.15	54.17
873.318	42.11
873.485	48.66
873.652	46.86
873.819	45.82
873.986	35.84
874.153	42.49
874.32	38.33
874.487	58.6
874.654	69.95
874.821	83.33
874.988	77.28
875.155	77.91
875.322	84.36
875.489	87.75
875.656	87.63
875.823	96.38
875.99	98.09
876.157	104.4
876.324	69.43
876.49	27.32
876.657	6.58
876.824	14.65
876.991	21.53
877.157	14.01
877.324	17.49
877.491	14.08
877.658	27.4
877.824	45.21
877.991	50.28
878.157	64.5
878.324	65.55
878.491	77.12
878.657	69.04
878.824	54.8
878.99	57.79
879.157	53.75
879.323	55.24
879.49	54.72
879.656	54.87
879.823	47.82
879.989	31.21
880.156	35.78
880.322	33.03
880.488	43.31
880.655	42.16
880.821	46.2
880.987	47.2
881.154	53.78
881.32	46.3
881.486	41.28
881.652	42.41
881.819	43.58
881.985	40.57
882.151	38.81
882.317	29.79
882.483	30.84
882.649	26.95
882.816	25.96
882.982	21.45
883.148	21.89
883.314	20.48
883.48	22.65
883.646	20.37
883.812	20.17
883.978	20.7
884.144	27.92
884.31	30.53
884.476	29.11
884.642	30.81
884.807	31.52
884.973	31.72
885.139	32.26
885.305	33.52
885.471	36.97
885.637	38.36
885.802	37.14
885.968	32.3
886.134	32.57
886.3	39.39
886.465	39.26
886.631	41.72
886.797	42.39
886.962	47.39
887.128	47.27
887.293	52.78
887.459	57.09
887.625	65.23
887.79	61.26
887.956	62.25
888.121	56.71
888.287	58.76
888.452	68.55
888.618	72.36
888.783	62.15
