Data from 2938112_Reflection_2.txt Node
Date: Sat Jul 11 18:22:41 EDT 2015
User: robert
Spectrometer: USB4E03001
Autoset integration time: false
Trigger mode: 4
Integration Time (sec): 1.000000E-1
Scans to average: 10
Electric dark correction enabled: true
Nonlinearity correction enabled: false
Boxcar width: 5
Stray light correction enabled: false
XAxis mode: Wavelengths
Stop averaging: false
Number of Pixels in Spectrum: 3648
>>>>>Begin Spectral Data<<<<<
177.566	-84.77
177.785	-88.19
178.005	510.24
178.225	193.09
178.445	183.04
178.665	-7412.9
178.885	105.22
179.105	262.66
179.324	227.63
179.544	245.8
179.764	1292.1
179.984	-1516.12
180.204	319.78
180.423	80.26
180.643	57.75
180.863	21.43
181.083	72
181.302	40.71
181.522	60.87
181.742	86.34
181.961	501.17
182.181	-47.3
182.401	-24.07
182.621	-33.53
182.84	-20.27
183.06	-68.4
183.279	-136.57
183.499	-110.97
183.719	-61.15
183.938	-104.05
184.158	-283.68
184.377	-285.2
184.597	-680.48
184.816	-673.43
185.036	-288.64
185.256	-601.86
185.475	-170.82
185.695	-156.78
185.914	-181.14
186.134	-511.59
186.353	-566.01
186.572	-734.81
186.792	252.63
187.011	123.44
187.231	168.13
187.45	124.36
187.67	152.83
187.889	206.99
188.108	188.51
188.328	149.84
188.547	249.53
188.766	138.37
188.986	-712.41
189.205	-131.95
189.424	-35.61
189.644	-2.41
189.863	-55.83
190.082	-198.42
190.302	-146.38
190.521	-287.18
190.74	-99.71
190.959	-497.56
191.178	-11528.57
191.398	-1017.47
191.617	81.03
191.836	153.32
192.055	138.33
192.274	154.86
192.494	13.54
192.713	96.7
192.932	48.3
193.151	-1610.64
193.37	-26980
193.589	19.04
193.808	26.82
194.027	-14.56
194.246	-17.22
194.465	-35.04
194.685	-146.85
194.904	-310.33
195.123	-311.38
195.342	-86.29
195.561	-16.3
195.78	-11.6
195.999	-34.56
196.218	-62.4
196.436	-42.88
196.655	-65.78
196.874	-25.52
197.093	12.45
197.312	29.31
197.531	17.57
197.75	-14.29
197.969	-65.83
198.188	-71.16
198.407	19.3
198.625	32.18
198.844	28.94
199.063	91.77
199.282	444.04
199.501	-136.26
199.719	-1464.38
199.938	344.76
200.157	73.87
200.376	-18.82
200.594	-233.51
200.813	-377.27
201.032	-18.86
201.251	33.84
201.469	29.01
201.688	30.36
201.907	44.26
202.125	2.16
202.344	44.9
202.563	62.96
202.781	109.78
203	137.97
203.218	143.58
203.437	122.1
203.656	236.21
203.874	189.17
204.093	187.69
204.311	62.99
204.53	105.47
204.748	65.32
204.967	79.54
205.185	47.91
205.404	28.24
205.622	12.55
205.841	68.54
206.059	34.81
206.278	40.52
206.496	39.41
206.715	64.27
206.933	87.41
207.151	92.88
207.37	186.25
207.588	100.77
207.806	82.01
208.025	128.43
208.243	-70.39
208.461	-74.45
208.68	-109.33
208.898	575.81
209.116	453.49
209.335	239.84
209.553	-144.74
209.771	-350.14
209.989	-292.67
210.208	-639.77
210.426	1750
210.644	426.81
210.862	458.08
211.081	194.18
211.299	206.02
211.517	144.62
211.735	168.76
211.953	308.53
212.171	226
212.39	187.8
212.608	277.49
212.826	320.55
213.044	319.64
213.262	268.38
213.48	311.42
213.698	255.39
213.916	203.15
214.134	200.75
214.352	139.12
214.57	231.51
214.788	474.87
215.006	1255.05
215.224	1894.44
215.442	51.97
215.66	1504.92
215.878	222.34
216.096	397.75
216.314	-1876.32
216.532	-3461.61
216.75	394.13
216.968	816.83
217.185	880.47
217.403	446.13
217.621	267.17
217.839	245.23
218.057	190.46
218.275	-1342.63
218.492	-332.1
218.71	-125.98
218.928	-61.03
219.146	-55.43
219.363	-13.69
219.581	-47.12
219.799	-58.65
220.017	-37.34
220.234	-10.24
220.452	-16.5
220.67	6.24
220.887	37.44
221.105	33.92
221.323	38.2
221.54	58.68
221.758	45.74
221.976	48.32
222.193	30.81
222.411	35.76
222.629	31.02
222.846	17.34
223.064	9.3
223.281	-7.49
223.499	5.57
223.716	2.98
223.934	-14.63
224.151	-1.34
224.369	4.3
224.586	-3.19
224.804	-21.59
225.021	-49.8
225.239	-38.89
225.456	-42.51
225.674	-59.02
225.891	-94.02
226.108	-61.47
226.326	-67.78
226.543	-134.08
226.76	-105.37
226.978	-77.94
227.195	-40.63
227.413	-15.76
227.63	-14.17
227.847	-11.27
228.064	-7.14
228.282	2.28
228.499	2.43
228.716	4.42
228.934	13.57
229.151	15.41
229.368	19.49
229.585	16.06
229.802	14.08
230.02	14.82
230.237	17.41
230.454	18.73
230.671	16.93
230.888	14.88
231.105	18.55
231.323	14.96
231.54	13.31
231.757	10.49
231.974	12.08
232.191	17.17
232.408	12.73
232.625	11.93
232.842	12.96
233.059	20.99
233.276	25.49
233.493	23.6
233.71	21.1
233.927	17.1
234.144	8.83
234.361	14.63
234.578	13.89
234.795	14.57
235.012	14.13
235.229	9.15
235.446	4.8
235.663	2.61
235.879	2.57
236.096	6.84
236.313	11.51
236.53	15.57
236.747	10.16
236.964	10.35
237.181	7.52
237.397	1.74
237.614	-4.17
237.831	-3.12
238.048	-5.87
238.264	-8.27
238.481	-15.74
238.698	-21.56
238.915	-24.85
239.131	-24.84
239.348	-30.37
239.565	-26.36
239.781	-16.05
239.998	-14.25
240.215	-6.76
240.431	-4.53
240.648	-1.19
240.865	2.48
241.081	7.25
241.298	8.38
241.514	7.5
241.731	8.79
241.947	8.92
242.164	7.1
242.38	9.63
242.597	6.57
242.814	4.49
243.03	2.5
243.246	1.61
243.463	0.13
243.679	1.69
243.896	2.29
244.112	4.96
244.329	5.21
244.545	5.55
244.762	4.26
244.978	3.66
245.194	7.09
245.411	11.39
245.627	10.92
245.843	12.59
246.06	11.74
246.276	10.84
246.492	8.96
246.709	8.36
246.925	9.59
247.141	10.78
247.357	11.91
247.574	10.95
247.79	10.29
248.006	10.37
248.222	10.71
248.439	9.76
248.655	9.4
248.871	9.74
249.087	11.18
249.303	9.91
249.519	7.77
249.736	6.22
249.952	7.64
250.168	7.07
250.384	8.18
250.6	5.13
250.816	8.7
251.032	9.97
251.248	6.53
251.464	5.35
251.68	5.6
251.896	7.6
252.112	8.61
252.328	10.49
252.544	9.66
252.76	9.5
252.976	10.36
253.192	9.19
253.408	7.82
253.624	9.77
253.84	8.98
254.056	6.72
254.272	8.38
254.487	9.82
254.703	6.32
254.919	7.5
255.135	5.64
255.351	4.62
255.567	10.13
255.782	11.62
255.998	8.77
256.214	10.86
256.43	16
256.646	13.18
256.861	10.09
257.077	10.82
257.293	8.85
257.508	9.65
257.724	7.71
257.94	5.92
258.155	6.2
258.371	8.13
258.587	7.53
258.802	6.14
259.018	8.65
259.234	10.18
259.449	9.8
259.665	9.6
259.88	8.98
260.096	10.03
260.312	9.07
260.527	9.2
260.743	9.89
260.958	10
261.174	9.51
261.389	7.76
261.605	6.25
261.82	5.87
262.036	5.68
262.251	6.79
262.466	5.98
262.682	5.54
262.897	6.03
263.113	5.32
263.328	4.73
263.543	7.7
263.759	8.78
263.974	10.91
264.189	11.34
264.405	11.42
264.62	11.96
264.835	10.27
265.051	12.82
265.266	11.97
265.481	9.8
265.696	8.72
265.912	7.38
266.127	6.65
266.342	4.04
266.557	5.35
266.773	5.12
266.988	2.92
267.203	4.39
267.418	2.7
267.633	4.52
267.848	3.94
268.064	3.32
268.279	3.24
268.494	2.76
268.709	3.87
268.924	1.68
269.139	3.29
269.354	2.93
269.569	1.04
269.784	1.45
269.999	1.32
270.214	1.19
270.429	1.35
270.644	2.5
270.859	2.47
271.074	2.57
271.289	3.59
271.504	2.93
271.719	3.86
271.934	4.22
272.149	3.76
272.363	2.77
272.578	5.28
272.793	5.35
273.008	4.01
273.223	4.58
273.438	4.86
273.653	3.89
273.867	3.23
274.082	4.66
274.297	6.72
274.512	6.59
274.726	5.76
274.941	5.72
275.156	5.92
275.371	5.25
275.585	3.29
275.8	3.34
276.015	3.58
276.229	3.63
276.444	0.83
276.659	-1.47
276.873	-0.05
277.088	2.07
277.302	1.08
277.517	2.46
277.732	3.13
277.946	6.53
278.161	7.69
278.375	8.94
278.59	10.3
278.804	10.08
279.019	9.99
279.233	9.66
279.448	6.75
279.662	7.11
279.877	7.26
280.091	9.16
280.306	8.57
280.52	7.39
280.735	6.81
280.949	7.34
281.163	8.29
281.378	8.86
281.592	8.49
281.806	11.69
282.021	10.04
282.235	9.88
282.449	10.19
282.664	10.15
282.878	9.48
283.092	12
283.307	11.54
283.521	11.74
283.735	10.79
283.949	10.02
284.164	8.03
284.378	8.74
284.592	6.91
284.806	5.3
285.02	4.31
285.234	4.2
285.449	2.7
285.663	1.8
285.877	0.19
286.091	1.42
286.305	1.12
286.519	1.59
286.733	1.71
286.947	3.53
287.161	4.97
287.375	6.12
287.589	4.9
287.803	5.09
288.017	4.58
288.231	4.31
288.445	3.6
288.659	4.94
288.873	3.28
289.087	3.11
289.301	3.12
289.515	3.29
289.729	3.97
289.943	4.95
290.157	5.33
290.371	6.04
290.584	8.28
290.798	9.17
291.012	9.34
291.226	12.04
291.44	10.94
291.654	9.22
291.867	6.54
292.081	5.85
292.295	5.76
292.509	4.55
292.722	4.92
292.936	4.24
293.15	3.72
293.364	4.3
293.577	3.63
293.791	3.94
294.005	4.37
294.218	5.92
294.432	5.63
294.645	6.33
294.859	6.85
295.073	7.78
295.286	7.52
295.5	7.05
295.713	6.63
295.927	8.52
296.14	9.78
296.354	9.99
296.568	10.16
296.781	10.44
296.994	10.68
297.208	9.81
297.421	9.56
297.635	8.95
297.848	9.76
298.062	9.17
298.275	7.32
298.489	7.53
298.702	8.84
298.915	9.24
299.129	9.06
299.342	9.93
299.555	10.02
299.769	9.34
299.982	11.25
300.195	12.49
300.409	13.5
300.622	13.45
300.835	12.33
301.048	12.7
301.262	13.05
301.475	12.09
301.688	12
301.901	12.62
302.115	11.58
302.328	10.68
302.541	8.64
302.754	6.79
302.967	8.94
303.18	9.09
303.393	6.58
303.607	7.95
303.82	9.56
304.033	10.16
304.246	10.71
304.459	11.41
304.672	11.97
304.885	10.98
305.098	11.57
305.311	9.38
305.524	12.59
305.737	14.19
305.95	12.6
306.163	10.27
306.376	10.7
306.589	10.52
306.802	10.68
307.015	9.59
307.228	12.12
307.44	12.56
307.653	13.36
307.866	9.97
308.079	9.79
308.292	10.53
308.505	12.32
308.718	10.39
308.93	9.89
309.143	10.36
309.356	11.54
309.569	10.04
309.781	9.59
309.994	9.04
310.207	9.9
310.42	8.73
310.632	8.01
310.845	7.27
311.058	7.26
311.27	8.15
311.483	9.01
311.696	8.53
311.908	9.37
312.121	10.76
312.333	12.38
312.546	12.23
312.759	12.9
312.971	12.69
313.184	14.36
313.396	15.23
313.609	13.95
313.821	12.46
314.034	13.58
314.246	11.5
314.459	10.94
314.671	10.15
314.884	9.89
315.096	11.65
315.309	11.39
315.521	11.51
315.733	12.26
315.946	14.21
316.158	14.32
316.371	14.19
316.583	14.53
316.795	13.72
317.008	11.36
317.22	10.46
317.432	9.98
317.644	10.48
317.857	5.52
318.069	4.93
318.281	4.03
318.494	4.3
318.706	3.08
318.918	1.08
319.13	1.84
319.342	2.95
319.555	3.01
319.767	1.12
319.979	1.7
320.191	6.21
320.403	3.89
320.615	3.42
320.827	4.59
321.039	2.71
321.252	7.23
321.464	5.22
321.676	3.76
321.888	3.5
322.1	4.92
322.312	5.24
322.524	4.67
322.736	6.85
322.948	6.22
323.16	6.17
323.372	10.26
323.584	9.43
323.796	11.09
324.007	11.65
324.219	13.36
324.431	12.69
324.643	12.44
324.855	11.33
325.067	10.72
325.279	12.09
325.491	12.37
325.702	9.47
325.914	9.48
326.126	10.62
326.338	8.56
326.55	7.3
326.761	7.02
326.973	7.06
327.185	7.36
327.396	7.23
327.608	8.02
327.82	8.73
328.032	9.68
328.243	8.06
328.455	8.39
328.666	10.44
328.878	10.66
329.09	11.22
329.301	10.75
329.513	11.22
329.725	12.15
329.936	9.86
330.148	9.44
330.359	8.92
330.571	11.05
330.782	9.17
330.994	9.19
331.205	10.14
331.417	9.56
331.628	9.88
331.84	8.58
332.051	7.91
332.262	10.45
332.474	10.35
332.685	12.32
332.897	12.32
333.108	11.59
333.319	12.83
333.531	12.67
333.742	14.12
333.953	13.42
334.165	14.71
334.376	13.72
334.587	13.89
334.799	13.07
335.01	13.38
335.221	12.22
335.432	14.2
335.644	13.16
335.855	12.22
336.066	10.74
336.277	11.65
336.488	13.01
336.7	14.45
336.911	14.14
337.122	13.73
337.333	12.82
337.544	13.5
337.755	10.31
337.966	10.22
338.177	10.24
338.388	10.53
338.599	9.42
338.811	7.85
339.022	7.22
339.233	6.45
339.444	8.46
339.655	6.85
339.866	6.42
340.076	6.94
340.287	7.11
340.498	7.82
340.709	7.35
340.92	8.23
341.131	8.39
341.342	8.57
341.553	8.99
341.764	7.69
341.975	8.03
342.185	8.81
342.396	10.88
342.607	11.01
342.818	11.66
343.029	12.36
343.239	12.84
343.45	13.24
343.661	12.2
343.872	11.81
344.082	12.41
344.293	14.11
344.504	14.96
344.714	14.41
344.925	14.27
345.136	13.6
345.346	12.22
345.557	12.06
345.768	11.78
345.978	14.01
346.189	14.02
346.399	14.19
346.61	13.96
346.821	13.61
347.031	13.23
347.242	13.3
347.452	14.55
347.663	16.06
347.873	15.77
348.084	16.28
348.294	14.01
348.504	14.19
348.715	13.98
348.925	13.51
349.136	12.86
349.346	13.34
349.557	14.26
349.767	13.2
349.977	13.53
350.188	13.61
350.398	12.25
350.608	12.71
350.819	11.18
351.029	10.12
351.239	9.75
351.449	10.15
351.66	9.56
351.87	9.68
352.08	9.6
352.29	10.22
352.501	10
352.711	10.38
352.921	10.9
353.131	12.15
353.341	12.3
353.552	13.25
353.762	11.35
353.972	11.98
354.182	13.48
354.392	12.67
354.602	11
354.812	11.32
355.022	11.96
355.232	13.1
355.442	12.51
355.652	13.4
355.862	13.11
356.072	14.53
356.282	13.42
356.492	12.62
356.702	12.63
356.912	13.62
357.122	11.92
357.332	11.38
357.542	9.77
357.752	10.15
357.962	8.8
358.171	8.45
358.381	8.13
358.591	8.64
358.801	7.13
359.011	7.34
359.221	8.23
359.43	9.79
359.64	10.79
359.85	11.1
360.06	11.25
360.269	12.41
360.479	11.7
360.689	11.93
360.899	11.59
361.108	11.9
361.318	11.91
361.528	10.64
361.737	11.08
361.947	10.01
362.156	9.72
362.366	9.53
362.576	9.58
362.785	10.23
362.995	10.22
363.204	10.3
363.414	11.38
363.623	11.26
363.833	11.49
364.042	9.89
364.252	10.76
364.461	10.75
364.671	10.84
364.88	9.66
365.09	10.32
365.299	9.97
365.509	10.32
365.718	8.54
365.927	8.89
366.137	9.36
366.346	10.89
366.555	9.49
366.765	10.28
366.974	9.95
367.183	10.59
367.393	9.74
367.602	10.18
367.811	10.2
368.021	10.21
368.23	10.01
368.439	10.02
368.648	9.73
368.857	11.32
369.067	10.39
369.276	9.84
369.485	9.38
369.694	8.39
369.903	8.01
370.112	7.62
370.321	8.07
370.531	6.96
370.74	7.88
370.949	7.57
371.158	6.62
371.367	7.55
371.576	7.83
371.785	7.18
371.994	8.34
372.203	8.26
372.412	8.39
372.621	8.72
372.83	9.82
373.039	8.47
373.248	7.93
373.457	8.54
373.666	7.75
373.874	7.91
374.083	9.03
374.292	8.86
374.501	8.47
374.71	7.37
374.919	6.6
375.128	6.4
375.336	7.19
375.545	7.02
375.754	6.95
375.963	6.81
376.171	6.49
376.38	5.68
376.589	5.19
376.798	5.68
377.006	6.52
377.215	7.78
377.424	7.62
377.632	7.68
377.841	8.26
378.05	7.63
378.258	8.21
378.467	8.61
378.675	9.99
378.884	10.54
379.093	9.83
379.301	9.85
379.51	9.37
379.718	9.73
379.927	9.06
380.135	9.06
380.344	9.15
380.552	8.39
380.761	7.65
380.969	7.1
381.177	7.2
381.386	7.41
381.594	7.26
381.803	7.01
382.011	6.51
382.219	6.39
382.428	6.41
382.636	6.28
382.845	6.16
383.053	6.45
383.261	6.17
383.469	5.9
383.678	6.01
383.886	5.93
384.094	6.14
384.302	6.29
384.511	6.55
384.719	5.41
384.927	5.3
385.135	5.18
385.343	4.97
385.552	4.46
385.76	4.29
385.968	3.92
386.176	4.54
386.384	4.11
386.592	3.82
386.8	4.02
387.008	5.11
387.216	5.55
387.424	5.78
387.633	5.79
387.841	5.98
388.049	6.23
388.257	6.63
388.465	6.19
388.672	6.36
388.88	6.08
389.088	5.9
389.296	5.34
389.504	5.2
389.712	5.14
389.92	5.03
390.128	4.68
390.336	4.43
390.544	4.47
390.751	4.6
390.959	4.49
391.167	4.73
391.375	4.61
391.583	4.73
391.79	4.74
391.998	4.77
392.206	4.92
392.414	5.14
392.621	5.49
392.829	5.36
393.037	4.79
393.244	4.77
393.452	4.77
393.66	4.58
393.867	4.7
394.075	4.35
394.283	4.29
394.49	4.1
394.698	4.21
394.905	3.58
395.113	3.4
395.32	3.89
395.528	3.95
395.735	4.12
395.943	4.58
396.15	4.31
396.358	4.6
396.565	4.59
396.773	4.5
396.98	4.3
397.188	4.57
397.395	4.69
397.602	4.32
397.81	4.29
398.017	4.33
398.225	4.14
398.432	3.88
398.639	3.75
398.847	3.76
399.054	3.56
399.261	3.27
399.468	3.03
399.676	2.96
399.883	2.88
400.09	2.56
400.297	2.5
400.505	2.09
400.712	2.57
400.919	2.67
401.126	3.06
401.333	3.62
401.54	4.2
401.748	4.33
401.955	4.24
402.162	4.36
402.369	4.46
402.576	4.25
402.783	4.35
402.99	4.42
403.197	4.4
403.404	4.33
403.611	4.08
403.818	3.6
404.025	3.84
404.232	3.92
404.439	4.02
404.646	4.1
404.853	4.25
405.06	4.26
405.267	3.92
405.474	3.95
405.681	3.77
405.887	3.78
406.094	3.91
406.301	3.59
406.508	3.64
406.715	3.69
406.922	4.02
407.128	4.08
407.335	4.1
407.542	4.16
407.749	4.06
407.955	3.97
408.162	3.71
408.369	3.96
408.575	3.86
408.782	3.78
408.989	4.05
409.195	3.85
409.402	3.66
409.609	3.46
409.815	3.41
410.022	3.71
410.228	3.69
410.435	3.94
410.642	4.02
410.848	4.06
411.055	3.95
411.261	3.66
411.468	3.87
411.674	3.67
411.881	3.87
412.087	4.02
412.294	3.73
412.5	3.8
412.706	3.58
412.913	3.3
413.119	3.27
413.326	3.33
413.532	3.23
413.738	2.83
413.945	3.15
414.151	2.9
414.357	2.56
414.564	2.79
414.77	2.65
414.976	2.75
415.182	2.82
415.389	2.87
415.595	2.7
415.801	2.91
416.007	2.96
416.214	2.92
416.42	3.13
416.626	3.4
416.832	3.3
417.038	3.38
417.244	3.6
417.45	3.61
417.657	3.57
417.863	3.73
418.069	3.61
418.275	3.65
418.481	3.53
418.687	3.65
418.893	3.66
419.099	3.6
419.305	3.5
419.511	3.45
419.717	3.34
419.923	3.26
420.129	3.25
420.335	3.24
420.541	3.24
420.746	3.25
420.952	3.15
421.158	3.18
421.364	3.13
421.57	3.13
421.776	3.08
421.982	3.31
422.187	3.56
422.393	3.6
422.599	3.66
422.805	3.52
423.01	3.48
423.216	3.44
423.422	3.55
423.628	3.57
423.833	3.72
424.039	3.8
424.245	3.7
424.45	3.52
424.656	3.46
424.862	3.57
425.067	3.76
425.273	3.73
425.478	3.85
425.684	3.76
425.889	3.89
426.095	3.7
426.301	3.61
426.506	3.53
426.712	3.53
426.917	3.69
427.123	3.63
427.328	3.61
427.533	3.75
427.739	3.59
427.944	3.8
428.15	3.56
428.355	3.77
428.561	3.86
428.766	3.98
428.971	3.88
429.177	3.65
429.382	3.52
429.587	3.38
429.793	3.2
429.998	3.4
430.203	2.92
430.408	2.87
430.614	2.8
430.819	2.87
431.024	2.83
431.229	3.39
431.434	3.39
431.64	3.54
431.845	3.54
432.05	3.79
432.255	3.58
432.46	3.73
432.665	3.76
432.87	3.78
433.076	3.77
433.281	3.73
433.486	3.44
433.691	3.61
433.896	3.43
434.101	3.47
434.306	3.37
434.511	3.39
434.716	3.39
434.921	3.48
435.126	3.58
435.331	3.52
435.535	3.4
435.74	3.32
435.945	2.98
436.15	3
436.355	2.81
436.56	2.82
436.765	2.97
436.97	3.08
437.174	3.01
437.379	2.92
437.584	2.91
437.789	3.01
437.993	3.16
438.198	3.33
438.403	3.25
438.608	3.42
438.812	3.36
439.017	3.28
439.222	2.95
439.426	3.16
439.631	3.18
439.836	3.16
440.04	3.15
440.245	3.05
440.45	3.08
440.654	3.34
440.859	3.26
441.063	3.25
441.268	3.17
441.472	3.44
441.677	3.33
441.881	3.29
442.086	3.39
442.29	3.35
442.495	3.33
442.699	3.23
442.904	2.91
443.108	2.97
443.312	3.11
443.517	3.06
443.721	2.99
443.925	2.9
444.13	2.83
444.334	2.73
444.538	2.83
444.743	3.06
444.947	3.1
445.151	3.15
445.356	3.05
445.56	2.94
445.764	2.96
445.968	3.01
446.173	3.13
446.377	3.29
446.581	3.2
446.785	3.12
446.989	2.89
447.193	2.92
447.398	2.88
447.602	2.97
447.806	3.11
448.01	3.11
448.214	3.18
448.418	3.16
448.622	3.08
448.826	3.18
449.03	3.18
449.234	3.43
449.438	3.51
449.642	3.63
449.846	3.68
450.05	3.64
450.254	3.68
450.458	3.6
450.662	3.41
450.866	3.12
451.069	3.01
451.273	3.08
451.477	3.05
451.681	3.02
451.885	2.9
452.089	2.85
452.292	2.92
452.496	2.9
452.7	3.06
452.904	3.04
453.107	3.29
453.311	3.42
453.515	3.48
453.719	3.39
453.922	3.32
454.126	3.42
454.33	3.3
454.533	3.22
454.737	3.23
454.94	3.09
455.144	2.99
455.348	3.18
455.551	3.2
455.755	3.11
455.958	3.17
456.162	3.11
456.365	3.09
456.569	3
456.772	2.92
456.976	3.08
457.179	2.72
457.383	3.05
457.586	2.79
457.79	2.78
457.993	2.8
458.196	2.81
458.4	3.04
458.603	3.17
458.807	3.48
459.01	3.45
459.213	3.31
459.417	3.48
459.62	3.38
459.823	3.32
460.026	3.29
460.23	3.26
460.433	3.2
460.636	3.1
460.839	3.15
461.042	3.03
461.246	3.01
461.449	3.1
461.652	3.03
461.855	3.1
462.058	3.12
462.261	3.08
462.464	3.24
462.668	3.16
462.871	3.23
463.074	2.99
463.277	2.88
463.48	3.05
463.683	3.03
463.886	3.03
464.089	3.02
464.292	3.13
464.495	3.28
464.698	3.08
464.901	3.3
465.104	3.24
465.306	3.27
465.509	3.31
465.712	3.32
465.915	3.25
466.118	3.22
466.321	3.19
466.524	3.08
466.726	3.12
466.929	3.4
467.132	3.27
467.335	3.16
467.538	3.14
467.74	3.18
467.943	3.03
468.146	3.27
468.348	3.29
468.551	3.24
468.754	3.26
468.956	3.11
469.159	2.89
469.362	2.91
469.564	3.07
469.767	3.04
469.969	2.98
470.172	3.05
470.375	2.81
470.577	2.73
470.78	2.82
470.982	3.02
471.185	2.98
471.387	3.15
471.59	3.04
471.792	3.02
471.995	3
472.197	3.2
472.399	3.13
472.602	3.1
472.804	3.29
473.007	3.35
473.209	3.04
473.411	3.07
473.614	2.93
473.816	2.97
474.018	2.96
474.22	3.08
474.423	2.87
474.625	3.04
474.827	3.16
475.03	3.09
475.232	3.01
475.434	3.31
475.636	3.43
475.838	3.36
476.04	3.43
476.243	3.42
476.445	3.49
476.647	3.48
476.849	3.38
477.051	3.36
477.253	3.38
477.455	3.26
477.657	3.22
477.859	3.15
478.061	3.28
478.263	3.27
478.465	3.4
478.667	3.22
478.869	3.22
479.071	3.2
479.273	3.06
479.475	3.02
479.677	3.09
479.879	2.92
480.081	3.05
480.283	2.97
480.485	2.86
480.686	2.7
480.888	2.79
481.09	2.71
481.292	2.62
481.494	2.66
481.695	2.76
481.897	2.81
482.099	2.98
482.301	2.92
482.502	2.96
482.704	3.12
482.906	3.2
483.107	3.16
483.309	3.15
483.511	3.21
483.712	3.23
483.914	3.21
484.115	3.18
484.317	3.21
484.519	3.21
484.72	3.22
484.922	3.17
485.123	3.1
485.325	3.14
485.526	3.26
485.728	3.32
485.929	3.32
486.131	3.32
486.332	3.38
486.534	3.27
486.735	3.26
486.936	3.21
487.138	3.22
487.339	3.22
487.541	3.22
487.742	3.1
487.943	2.99
488.144	2.98
488.346	3.01
488.547	3
488.748	3.07
488.95	3.08
489.151	3.12
489.352	3.1
489.553	3.18
489.755	3.18
489.956	3.22
490.157	3.28
490.358	3.34
490.559	3.27
490.76	3.24
490.961	3.15
491.163	3.14
491.364	3.05
491.565	3
491.766	3
491.967	2.95
492.168	2.93
492.369	2.95
492.57	2.92
492.771	2.91
492.972	2.9
493.173	2.86
493.374	2.94
493.575	2.96
493.776	3.06
493.976	2.98
494.177	3.02
494.378	3.04
494.579	3.02
494.78	2.94
494.981	3.03
495.182	2.98
495.382	3.06
495.583	3.05
495.784	3.02
495.985	2.79
496.185	2.82
496.386	2.95
496.587	2.99
496.788	2.9
496.988	3.02
497.189	2.94
497.39	2.87
497.59	2.9
497.791	2.82
497.992	2.97
498.192	3.12
498.393	3.14
498.593	3.12
498.794	3
498.994	3.04
499.195	2.99
499.395	3.1
499.596	3.26
499.796	3.2
499.997	3.26
500.197	3.06
500.398	3.11
500.598	3.03
500.799	2.91
500.999	3.1
501.199	3.24
501.4	3.19
501.6	3.16
501.801	3.11
502.001	3.27
502.201	3.21
502.402	3.37
502.602	3.32
502.802	3.55
503.002	3.61
503.203	3.58
503.403	3.6
503.603	3.58
503.803	3.56
504.003	3.62
504.204	3.6
504.404	3.66
504.604	3.81
504.804	3.92
505.004	3.7
505.204	3.62
505.404	3.5
505.604	3.39
505.804	3.4
506.005	3.31
506.205	3.21
506.405	3.2
506.605	3.13
506.805	3.09
507.005	3.05
507.204	2.99
507.404	3.01
507.604	3.13
507.804	3.21
508.004	3.2
508.204	3.24
508.404	3.34
508.604	3.32
508.804	3.39
509.003	3.31
509.203	3.26
509.403	3.37
509.603	3.48
509.803	3.38
510.002	3.35
510.202	3.4
510.402	3.54
510.602	3.52
510.801	3.58
511.001	3.6
511.201	3.64
511.4	3.72
511.6	3.73
511.8	3.61
511.999	3.8
512.199	3.87
512.398	3.83
512.598	3.73
512.797	3.74
512.997	3.69
513.197	3.59
513.396	3.63
513.596	3.61
513.795	3.6
513.994	3.68
514.194	3.61
514.393	3.54
514.593	3.68
514.792	3.67
514.992	3.8
515.191	3.83
515.39	3.97
515.59	4.02
515.789	4.1
515.988	4.04
516.188	4.05
516.387	3.99
516.586	3.86
516.786	3.84
516.985	3.98
517.184	3.92
517.383	3.83
517.582	3.73
517.782	3.64
517.981	3.61
518.18	3.8
518.379	3.84
518.578	3.86
518.777	4.09
518.976	4.04
519.176	3.93
519.375	3.95
519.574	3.99
519.773	3.98
519.972	4.03
520.171	4.05
520.37	4.02
520.569	3.95
520.768	3.99
520.967	3.97
521.166	3.96
521.365	4
521.564	4.06
521.762	4.15
521.961	4.18
522.16	4.28
522.359	4.38
522.558	4.41
522.757	4.39
522.956	4.37
523.154	4.39
523.353	4.57
523.552	4.61
523.751	4.49
523.949	4.49
524.148	4.42
524.347	4.22
524.546	4.14
524.744	3.99
524.943	3.98
525.142	4.03
525.34	3.93
525.539	3.89
525.737	3.89
525.936	3.89
526.135	3.88
526.333	4.09
526.532	4.22
526.73	4.26
526.929	4.42
527.127	4.46
527.326	4.45
527.524	4.49
527.723	4.52
527.921	4.59
528.12	4.58
528.318	4.59
528.516	4.57
528.715	4.6
528.913	4.6
529.112	4.55
529.31	4.62
529.508	4.61
529.707	4.61
529.905	4.61
530.103	4.54
530.301	4.56
530.5	4.54
530.698	4.5
530.896	4.51
531.094	4.45
531.293	4.53
531.491	4.45
531.689	4.52
531.887	4.62
532.085	4.67
532.283	4.76
532.481	4.81
532.68	4.86
532.878	4.89
533.076	4.8
533.274	4.95
533.472	4.87
533.67	4.9
533.868	4.9
534.066	5.02
534.264	4.99
534.462	4.99
534.66	5.12
534.858	5.14
535.056	5.13
535.253	5.21
535.451	5.12
535.649	5.25
535.847	5.34
536.045	5.26
536.243	5.12
536.441	5.18
536.638	5.24
536.836	5.11
537.034	5.13
537.232	5.26
537.43	5.31
537.627	5.49
537.825	5.45
538.023	5.53
538.22	5.72
538.418	5.79
538.616	5.94
538.813	5.94
539.011	6.07
539.209	6.15
539.406	6.06
539.604	5.98
539.801	5.82
539.999	5.82
540.196	5.87
540.394	5.94
540.591	5.91
540.789	5.75
540.986	5.93
541.184	5.91
541.381	5.94
541.579	5.91
541.776	6.07
541.974	6.16
542.171	6.2
542.368	6.14
542.566	6.08
542.763	6.03
542.96	6.16
543.158	6.05
543.355	6.03
543.552	6.05
543.75	6.15
543.947	6.1
544.144	5.98
544.341	6.03
544.539	6.01
544.736	6.09
544.933	6.29
545.13	6.2
545.327	6.19
545.524	6.33
545.722	6.34
545.919	6.34
546.116	6.4
546.313	6.6
546.51	6.59
546.707	6.61
546.904	6.56
547.101	6.53
547.298	6.66
547.495	6.74
547.692	6.75
547.889	6.82
548.086	6.96
548.283	6.88
548.48	6.83
548.677	6.85
548.874	6.96
549.07	7.08
549.267	7.08
549.464	6.99
549.661	6.99
549.858	7
550.055	6.79
550.251	6.75
550.448	6.85
550.645	6.72
550.842	6.86
551.038	6.95
551.235	6.8
551.432	6.83
551.628	6.88
551.825	7.14
552.022	7.18
552.218	7.31
552.415	7.33
552.612	7.44
552.808	7.71
553.005	7.8
553.201	7.63
553.398	7.72
553.594	7.91
553.791	7.99
553.987	7.84
554.184	7.96
554.38	8.09
554.577	8.05
554.773	8.06
554.97	7.91
555.166	8.09
555.362	8.18
555.559	8.43
555.755	8.3
555.952	8.35
556.148	8.4
556.344	8.24
556.541	8.35
556.737	8.48
556.933	8.39
557.129	8.36
557.326	8.19
557.522	8.32
557.718	8.15
557.914	8.22
558.11	8.27
558.307	8.24
558.503	8.27
558.699	8.06
558.895	7.91
559.091	7.81
559.287	8.12
559.483	8.17
559.679	8.13
559.876	8.29
560.072	8.24
560.268	8.34
560.464	8.35
560.66	8.39
560.856	8.4
561.052	8.66
561.247	8.84
561.443	8.78
561.639	8.79
561.835	9
562.031	8.98
562.227	9.28
562.423	9.3
562.619	9.38
562.815	9.49
563.01	9.5
563.206	9.51
563.402	9.48
563.598	9.5
563.793	9.52
563.989	9.55
564.185	9.61
564.381	9.24
564.576	9.2
564.772	9.18
564.968	9.13
565.163	9.39
565.359	9.3
565.555	9.51
565.75	9.38
565.946	9.42
566.141	9.31
566.337	9.26
566.532	9.57
566.728	9.65
566.923	9.94
567.119	10.23
567.314	10.12
567.51	10.17
567.705	9.96
567.901	10.11
568.096	10.09
568.292	10.25
568.487	10.28
568.682	10.1
568.878	10
569.073	9.73
569.268	9.61
569.464	9.9
569.659	10.09
569.854	10.07
570.05	10
570.245	9.97
570.44	10.2
570.635	10.22
570.831	10.27
571.026	10.43
571.221	10.46
571.416	10.46
571.611	10.34
571.806	10.14
572.002	10.25
572.197	10.41
572.392	10.57
572.587	10.31
572.782	10.47
572.977	10.42
573.172	10.16
573.367	10.26
573.562	10.25
573.757	10.2
573.952	10.34
574.147	10.37
574.342	10.4
574.537	10.36
574.732	10.52
574.927	10.18
575.121	10.35
575.316	10.52
575.511	10.34
575.706	10.27
575.901	10.35
576.096	10.36
576.29	10.49
576.485	10.47
576.68	10.38
576.875	10.35
577.069	10.61
577.264	10.64
577.459	10.67
577.654	10.7
577.848	10.57
578.043	10.47
578.238	10.39
578.432	10.32
578.627	10.34
578.821	10.49
579.016	10.34
579.21	10.2
579.405	10.31
579.6	10.42
579.794	10.51
579.989	10.75
580.183	10.46
580.378	10.64
580.572	10.63
580.766	10.59
580.961	10.34
581.155	10.22
581.35	10.2
581.544	9.69
581.738	9.56
581.933	9.43
582.127	9.42
582.321	9.85
582.516	9.93
582.71	9.96
582.904	9.72
583.099	10.02
583.293	10.32
583.487	10.44
583.681	10.65
583.875	10.87
584.07	11.14
584.264	11.02
584.458	10.64
584.652	10.49
584.846	10.37
585.04	10.45
585.234	10.1
585.428	9.95
585.623	9.98
585.817	9.97
586.011	9.9
586.205	9.72
586.399	9.9
586.593	10.06
586.787	9.93
586.981	10.09
587.174	10.17
587.368	10.61
587.562	10.65
587.756	10.67
587.95	10.77
588.144	10.68
588.338	10.93
588.532	10.84
588.725	10.91
588.919	10.97
589.113	10.87
589.307	10.91
589.501	10.52
589.694	10.57
589.888	10.42
590.082	10.66
590.275	10.59
590.469	10.58
590.663	10.52
590.856	10.68
591.05	10.79
591.244	10.8
591.437	10.84
591.631	11.11
591.824	11.25
592.018	11.35
592.212	11.21
592.405	11.32
592.599	11.39
592.792	11.47
592.986	11.46
593.179	11.56
593.372	11.58
593.566	11.43
593.759	11.44
593.953	11.32
594.146	11.3
594.339	11.26
594.533	11.48
594.726	11.29
594.92	11.44
595.113	11.47
595.306	11.51
595.499	11.53
595.693	11.59
595.886	11.57
596.079	11.64
596.272	11.84
596.466	12.02
596.659	11.85
596.852	11.93
597.045	11.72
597.238	11.67
597.431	11.54
597.624	11.61
597.818	11.7
598.011	11.51
598.204	11.52
598.397	11.53
598.59	11.25
598.783	11.27
598.976	11.13
599.169	11.15
599.362	11.18
599.555	11.12
599.748	10.89
599.941	11
600.134	11.17
600.326	11.18
600.519	11.1
600.712	11.19
600.905	11.17
601.098	11.21
601.291	11.2
601.483	11.27
601.676	11.19
601.869	11.23
602.062	11.1
602.255	11.35
602.447	11.15
602.64	11
602.833	10.98
603.025	11.03
603.218	11.07
603.411	11.37
603.603	11.36
603.796	11.41
603.989	11.58
604.181	11.59
604.374	11.37
604.566	11.47
604.759	11.62
604.951	11.55
605.144	11.36
605.336	11.61
605.529	11.53
605.721	11.52
605.914	11.61
606.106	11.61
606.299	11.84
606.491	11.83
606.683	11.8
606.876	11.55
607.068	11.74
607.26	12.04
607.453	11.85
607.645	11.68
607.837	11.77
608.03	11.65
608.222	11.48
608.414	11.21
608.606	11.58
608.799	11.62
608.991	11.86
609.183	11.78
609.375	11.46
609.567	11.33
609.759	11.37
609.952	11.4
610.144	11.4
610.336	11.17
610.528	10.99
610.72	10.83
610.912	10.72
611.104	10.52
611.296	10.5
611.488	10.68
611.68	10.57
611.872	10.5
612.064	10.06
612.256	10.33
612.448	10.59
612.64	10.84
612.832	10.64
613.023	10.67
613.215	10.98
613.407	11.12
613.599	11.1
613.791	11.55
613.983	11.78
614.174	12.09
614.366	11.7
614.558	11.68
614.75	11.58
614.941	11.71
615.133	11.78
615.325	11.71
615.516	11.32
615.708	11.58
615.9	11.25
616.091	11.02
616.283	10.76
616.475	11.12
616.666	11.11
616.858	11.3
617.049	11.57
617.241	11.74
617.432	11.44
617.624	11.73
617.815	11.67
618.007	11.59
618.198	12.09
618.39	12.41
618.581	12.31
618.773	11.98
618.964	11.73
619.155	11.5
619.347	11.29
619.538	11.67
619.729	11.46
619.921	11.46
620.112	11.61
620.303	11.26
620.494	11.24
620.686	11.04
620.877	11.37
621.068	11.63
621.259	11.23
621.451	11.2
621.642	11.19
621.833	11.32
622.024	11.2
622.215	10.94
622.406	11.02
622.597	11.2
622.788	11.36
622.98	11.52
623.171	11.55
623.362	12.14
623.553	12.19
623.744	12.02
623.935	12.41
624.126	12.27
624.317	12.51
624.508	12.54
624.698	12.51
624.889	12.65
625.08	12.65
625.271	12.52
625.462	12.55
625.653	12.87
625.844	13
626.034	12.64
626.225	12.83
626.416	12.68
626.607	12.56
626.798	12.37
626.988	12.21
627.179	12.25
627.37	12.47
627.56	12.31
627.751	12.21
627.942	12.08
628.132	12.27
628.323	11.82
628.514	11.75
628.704	11.61
628.895	11.7
629.085	11.83
629.276	11.8
629.466	11.41
629.657	11.25
629.847	11.14
630.038	11.28
630.228	11.15
630.419	11.64
630.609	11.78
630.8	11.7
630.99	11.62
631.181	11.46
631.371	11.39
631.561	11.44
631.752	11.46
631.942	11.4
632.132	10.99
632.323	11.01
632.513	11
632.703	11.21
632.893	11.43
633.084	11.75
633.274	11.89
633.464	11.81
633.654	11.65
633.844	11.66
634.034	11.79
634.225	11.98
634.415	12.14
634.605	12.07
634.795	12.09
634.985	12.18
635.175	11.81
635.365	11.45
635.555	11.61
635.745	11.77
635.935	11.93
636.125	11.72
636.315	11.45
636.505	11.36
636.695	11.13
636.885	11.19
637.075	10.85
637.265	11.31
637.455	11.78
637.644	11.95
637.834	12.44
638.024	12.59
638.214	12.71
638.404	13.08
638.593	13.04
638.783	13.34
638.973	12.86
639.163	13.26
639.352	12.76
639.542	12.49
639.732	12.19
639.921	11.83
640.111	11.41
640.301	11.14
640.49	11.39
640.68	11.19
640.87	11.3
641.059	11.6
641.249	11.14
641.438	11.33
641.628	11.23
641.817	11.2
642.007	11.19
642.196	11.26
642.386	11.16
642.575	10.35
642.764	10.49
642.954	10.33
643.143	10.52
643.333	10.99
643.522	11.08
643.711	11.64
643.901	11.7
644.09	11.42
644.279	11.46
644.469	12.01
644.658	12.71
644.847	12.1
645.036	11.82
645.226	12.06
645.415	11.88
645.604	11.96
645.793	11.64
645.982	11.65
646.171	11.78
646.361	12.12
646.55	12.4
646.739	12.22
646.928	12.73
647.117	13.4
647.306	13.17
647.495	13.53
647.684	13.61
647.873	13.71
648.062	13.74
648.251	13.9
648.44	13.51
648.629	13.2
648.818	13.07
649.007	13.11
649.196	12.41
649.384	12.21
649.573	11.52
649.762	11.65
649.951	12
650.14	11.99
650.328	12.03
650.517	11.84
650.706	11.32
650.895	11.72
651.083	11.69
651.272	12.05
651.461	12.19
651.65	12.91
651.838	12.49
652.027	11.93
652.216	11.66
652.404	11.67
652.593	12.19
652.781	12.57
652.97	12.61
653.158	12.44
653.347	12.64
653.535	12.41
653.724	11.81
653.912	11.75
654.101	11.94
654.289	12.17
654.478	11.92
654.666	11.65
654.855	11.64
655.043	11.31
655.231	11.79
655.42	11.6
655.608	12.33
655.796	12.45
655.985	12.47
656.173	12.63
656.361	12.63
656.55	12.81
656.738	12.93
656.926	12.97
657.114	13
657.302	12.63
657.491	12.54
657.679	12.16
657.867	11.87
658.055	11.87
658.243	11.34
658.431	11.35
658.619	11.26
658.807	11.35
658.996	11.27
659.184	11.16
659.372	11.22
659.56	11
659.748	10.61
659.936	11.15
660.124	11.08
660.311	11.55
660.499	11.42
660.687	11.76
660.875	11.64
661.063	11.45
661.251	11.56
661.439	11.76
661.627	12.02
661.814	12.22
662.002	12.12
662.19	12.04
662.378	11.63
662.565	11.59
662.753	11.07
662.941	10.63
663.129	11.05
663.316	10.93
663.504	10.65
663.692	10.3
663.879	10.6
664.067	10.65
664.254	10.99
664.442	11.07
664.63	11.39
664.817	11.49
665.005	12.05
665.192	11.58
665.38	11.67
665.567	12.11
665.755	12.73
665.942	12.71
666.13	12.4
666.317	12.43
666.504	12.42
666.692	12.33
666.879	12.46
667.067	12.31
667.254	12.58
667.441	12.8
667.629	12.38
667.816	11.97
668.003	11.58
668.19	11.5
668.378	11.53
668.565	11.07
668.752	11.26
668.939	11.29
669.127	11.27
669.314	11.91
669.501	11.47
669.688	11.09
669.875	10.81
670.062	10.72
670.249	10.8
670.436	10.65
670.623	10.7
670.81	10.62
670.997	10.68
671.184	10.68
671.371	10.17
671.558	10.4
671.745	10.24
671.932	10.85
672.119	10.82
672.306	11.12
672.493	11.16
672.68	11.98
672.867	12.08
673.054	11.82
673.24	12.37
673.427	12.27
673.614	12.6
673.801	13.15
673.988	12.82
674.174	13.32
674.361	12.82
674.548	12.89
674.734	12.66
674.921	12.38
675.108	12.48
675.294	12.17
675.481	12.45
675.668	12.1
675.854	11.92
676.041	12.25
676.227	11.88
676.414	12.31
676.601	12.1
676.787	12.15
676.974	12.49
677.16	12.55
677.347	12.49
677.533	12.09
677.719	12.28
677.906	12.55
678.092	12.46
678.279	12.43
678.465	12.16
678.651	12.01
678.838	12.14
679.024	12.04
679.21	12.24
679.397	12.02
679.583	12.32
679.769	12.18
679.955	12.35
680.142	12.47
680.328	12.54
680.514	12.75
680.7	13.17
680.886	13.12
681.073	13.2
681.259	13.2
681.445	13.43
681.631	13.17
681.817	13.32
682.003	13.3
682.189	13.03
682.375	12.99
682.561	12.79
682.747	12.71
682.933	12.4
683.119	12.88
683.305	12.66
683.491	12.33
683.677	12.58
683.863	12.59
684.049	13.05
684.235	13.67
684.42	14.13
684.606	14.54
684.792	14.37
684.978	14.6
685.164	13.83
685.349	13.74
685.535	13.56
685.721	13.19
685.907	13.36
686.092	12.68
686.278	12.85
686.464	12.7
686.649	12.69
686.835	13.25
687.021	13.77
687.206	13.42
687.392	13.41
687.577	13.61
687.763	13.16
687.948	13.31
688.134	13.02
688.319	12.32
688.505	11.9
688.69	11.84
688.876	11.24
689.061	10.37
689.247	11.1
689.432	10.76
689.618	10.72
689.803	11.3
689.988	11.03
690.174	11.29
690.359	11.48
690.544	11.9
690.73	11.67
690.915	11.7
691.1	12.11
691.285	11.82
691.471	12.4
691.656	12.46
691.841	12.76
692.026	12.9
692.211	12.76
692.396	12.2
692.582	12.11
692.767	12.03
692.952	11.91
693.137	11.84
693.322	11.8
693.507	11.58
693.692	12.34
693.877	12.24
694.062	11.74
694.247	11.59
694.432	12.01
694.617	11.94
694.802	12.14
694.987	12.43
695.172	12.65
695.357	12.19
695.541	12.2
695.726	11.67
695.911	12.38
696.096	12.48
696.281	13.07
696.466	13.42
696.65	13.31
696.835	13.26
697.02	13.57
697.204	13.2
697.389	14.07
697.574	13.94
697.759	13.92
697.943	13.33
698.128	13.17
698.312	12.92
698.497	12.66
698.682	12.96
698.866	13.2
699.051	12.82
699.235	13.23
699.42	12.68
699.604	12.96
699.789	13.18
699.973	13.48
700.158	13.51
700.342	13.65
700.527	13.96
700.711	13.96
700.895	13.81
701.08	13.87
701.264	13.4
701.448	13.82
701.633	13.62
701.817	12.94
702.001	12.26
702.186	11.99
702.37	12.61
702.554	12.74
702.738	12.31
702.923	12.39
703.107	11.94
703.291	12.02
703.475	12.17
703.659	12.61
703.843	13.3
704.027	13.46
704.212	13.98
704.396	13.35
704.58	12.99
704.764	13.38
704.948	12.86
705.132	13.7
705.316	14.35
705.5	14.36
705.684	13.16
705.868	13.23
706.052	13.35
706.235	13.19
706.419	12.87
706.603	12.78
706.787	12.81
706.971	13.68
707.155	13.71
707.339	13.03
707.522	12.6
707.706	13.2
707.89	13.25
708.074	12.93
708.257	12.96
708.441	13.61
708.625	12.94
708.808	13.08
708.992	12.34
709.176	12.15
709.359	12.17
709.543	11.83
709.727	12.57
709.91	11.87
710.094	12
710.277	12.4
710.461	12.33
710.644	12.32
710.828	11.59
711.011	11.78
711.195	11.66
711.378	12.92
711.562	14.01
711.745	13.87
711.928	13.38
712.112	13.79
712.295	13.71
712.478	13.39
712.662	13.8
712.845	14.11
713.028	14.48
713.212	14.45
713.395	13.24
713.578	13.11
713.761	12.64
713.945	13.81
714.128	13.72
714.311	13.87
714.494	13.82
714.677	13.89
714.86	14.18
715.043	14.41
715.227	14.7
715.41	14.47
715.593	13.74
715.776	13.64
715.959	13.48
716.142	13.73
716.325	13.36
716.508	13.15
716.691	13.13
716.874	12.76
717.057	12.57
717.239	12.35
717.422	13.06
717.605	13.11
717.788	13.3
717.971	13.96
718.154	13.09
718.337	13.89
718.519	14.11
718.702	14.5
718.885	14.6
719.068	14.12
719.25	14.43
719.433	14.52
719.616	13.95
719.798	14.03
719.981	13.04
720.164	13.84
720.346	13.16
720.529	12.69
720.712	11.14
720.894	10.93
721.077	10.52
721.259	10.05
721.442	9.03
721.624	9.96
721.807	10.34
721.989	11.54
722.172	10.94
722.354	10.8
722.537	10.86
722.719	11.62
722.901	12.95
723.084	13.46
723.266	13.19
723.448	12.44
723.631	11.78
723.813	11.44
723.995	11.17
724.178	10.94
724.36	10.99
724.542	11.3
724.724	11.84
724.907	10.98
725.089	10.27
725.271	10.38
725.453	11.49
725.635	11.72
725.817	11.48
725.999	10.16
726.181	10.62
726.364	10.84
726.546	10.98
726.728	11.73
726.91	11.65
727.092	11.13
727.274	11.8
727.456	12.33
727.638	12.7
727.819	12.27
728.001	12.56
728.183	11.91
728.365	12.36
728.547	12
728.729	11.26
728.911	11.03
729.093	11.8
729.274	11.07
729.456	10.91
729.638	10.78
729.82	11.27
730.001	11.42
730.183	12.02
730.365	11.2
730.546	11.29
730.728	11.05
730.91	11.21
731.091	10.86
731.273	10.84
731.455	11.37
731.636	11.93
731.818	11.82
731.999	11.85
732.181	12.17
732.362	12.11
732.544	12.79
732.725	12.8
732.907	13.08
733.088	13.24
733.27	13.47
733.451	12.29
733.633	12.21
733.814	12.5
733.995	12.92
734.177	13.57
734.358	14.89
734.539	14.59
734.721	15.31
734.902	15.1
735.083	16.08
735.264	15.9
735.446	16.27
735.627	14.89
735.808	15.22
735.989	14.58
736.17	13.8
736.351	12.62
736.533	13.24
736.714	12.49
736.895	12.27
737.076	11.43
737.257	11.76
737.438	12.46
737.619	13.3
737.8	13.1
737.981	13.66
738.162	13.51
738.343	14.07
738.524	14.38
738.705	13.96
738.886	13.49
739.067	13.67
739.247	14.6
739.428	13.45
739.609	14.59
739.79	14.96
739.971	15.18
740.151	15.49
740.332	14.03
740.513	13.11
740.694	14.13
740.874	15.18
741.055	14.91
741.236	13.57
741.417	14.01
741.597	12.58
741.778	12.59
741.958	13.07
742.139	12.15
742.32	13.86
742.5	15.28
742.681	15.18
742.861	15.01
743.042	14.65
743.222	15.46
743.403	15.55
743.583	16.47
743.764	15.33
743.944	14.07
744.124	13.07
744.305	12.03
744.485	10.62
744.666	9.01
744.846	9.29
745.026	9.9
745.207	9.46
745.387	10.03
745.567	10.29
745.747	10.34
745.928	10.94
746.108	13.25
746.288	12.72
746.468	12.97
746.648	14.32
746.829	13.82
747.009	13.96
747.189	13.74
747.369	13.26
747.549	13.48
747.729	13.92
747.909	12.94
748.089	11.98
748.269	13.62
748.449	14.38
748.629	13.43
748.809	14.02
748.989	13.17
749.169	12.52
749.349	12.53
749.529	12.03
749.709	11.66
749.889	12.8
750.068	12.93
750.248	11.83
750.428	10.76
750.608	10.61
750.788	10.19
750.967	11.4
751.147	12.01
751.327	13.13
751.507	11.89
751.686	12.02
751.866	11.24
752.046	10.96
752.225	10.7
752.405	11.12
752.585	12.11
752.764	12.26
752.944	11.55
753.123	12.01
753.303	10.69
753.482	11.54
753.662	12.77
753.841	12.47
754.021	13.92
754.2	12.55
754.38	11.88
754.559	12.5
754.739	13.56
754.918	15.06
755.097	15.02
755.277	14.44
755.456	15.34
755.635	13.39
755.815	13.9
755.994	14.61
756.173	15.81
756.352	15.13
756.532	14.19
756.711	12.16
756.89	11.17
757.069	10.79
757.248	10.53
757.427	9.76
757.607	11.33
757.786	11.28
757.965	9.54
758.144	10.5
758.323	10
758.502	9.67
758.681	9.88
758.86	10.05
759.039	10.69
759.218	11.85
759.397	11.36
759.576	10.84
759.755	11.47
759.934	11.17
760.113	10.69
760.291	11.57
760.47	13.62
760.649	13.45
760.828	12.77
761.007	10.87
761.186	11.3
761.364	11.71
761.543	11.77
761.722	10.93
761.901	11.32
762.079	10.26
762.258	10.61
762.437	9.16
762.615	10.14
762.794	9.87
762.972	10.66
763.151	10.35
763.33	10.42
763.508	10.4
763.687	11.46
763.865	11.31
764.044	12.41
764.222	13.05
764.401	13.33
764.579	12.14
764.758	12.66
764.936	13.09
765.114	13.12
765.293	13.6
765.471	14.15
765.65	13.87
765.828	14.17
766.006	13.92
766.184	13.11
766.363	14.18
766.541	15.39
766.719	15.09
766.898	16.09
767.076	16.19
767.254	16.21
767.432	16.84
767.61	15.38
767.788	15.92
767.967	15.65
768.145	16.3
768.323	13.37
768.501	13.99
768.679	15.58
768.857	13.59
769.035	13.15
769.213	12.12
769.391	11.38
769.569	10.72
769.747	10.9
769.925	12.17
770.103	13.29
770.281	17
770.459	15.89
770.636	13.95
770.814	15.03
770.992	14.81
771.17	14.31
771.348	13.24
771.525	14.62
771.703	13.84
771.881	12.99
772.059	11.85
772.236	10.26
772.414	10.65
772.592	13.41
772.769	13.96
772.947	14.9
773.125	16.37
773.302	15.55
773.48	15.53
773.657	16.01
773.835	16.62
774.013	17.07
774.19	16.64
774.368	17.24
774.545	14.27
774.723	12.51
774.9	11.22
775.077	10.29
775.255	10.4
775.432	11.07
775.61	9.56
775.787	8.45
775.964	8.81
776.142	8.87
776.319	8.69
776.496	9.59
776.674	9.34
776.851	10.54
777.028	12.2
777.205	13.45
777.382	12.23
777.56	15.2
777.737	15.55
777.914	13.94
778.091	15.61
778.268	14.24
778.445	14.62
778.622	15.43
778.8	14.82
778.977	13.93
779.154	14.1
779.331	15.99
779.508	15.41
779.685	14.67
779.862	16.65
780.038	14.4
780.215	12.69
780.392	13.98
780.569	12.44
780.746	14.71
780.923	14.85
781.1	13.93
781.277	12.69
781.453	11.99
781.63	13.89
781.807	11.84
781.984	12.21
782.16	15.56
782.337	14.01
782.514	16.59
782.691	13.76
782.867	13.75
783.044	12.82
783.221	12.51
783.397	12.43
783.574	11.7
783.75	11.94
783.927	14.42
784.103	11.88
784.28	11.59
784.456	12.36
784.633	15.52
784.809	14.92
784.986	14.27
785.162	14.34
785.339	12.21
785.515	13.38
785.692	13.4
785.868	9.54
786.044	11.28
786.221	12.4
786.397	12.09
786.573	9.05
786.749	9.6
786.926	14.07
787.102	14.39
787.278	16.9
787.454	13.34
787.631	14.25
787.807	15.36
787.983	14.57
788.159	14.38
788.335	12.11
788.511	13.76
788.687	14.82
788.863	11.35
789.039	13.71
789.216	12.37
789.392	15.02
789.568	13.02
789.744	16.48
789.919	19.09
790.095	18.03
790.271	19.26
790.447	19.23
790.623	18.22
790.799	20.24
790.975	20.6
791.151	19.44
791.327	16.61
791.502	16.5
791.678	13.36
791.854	9.23
792.03	13.4
792.205	13.94
792.381	12.88
792.557	12.03
792.733	11.49
792.908	8.66
793.084	8.46
793.259	9.89
793.435	11.59
793.611	12.44
793.786	14.19
793.962	10.94
794.137	10.8
794.313	11.44
794.488	8.1
794.664	10.55
794.839	9.42
795.015	11.68
795.19	13.55
795.366	13.27
795.541	12.22
795.716	13.57
795.892	11.95
796.067	9.53
796.242	8
796.418	12.14
796.593	10.77
796.768	12.39
796.944	13.8
797.119	12.32
797.294	10.37
797.469	11.28
797.644	10.84
797.82	10.56
797.995	13.84
798.17	15.3
798.345	13.56
798.52	12.76
798.695	11.69
798.87	11.05
799.045	11.28
799.22	13.62
799.395	12.43
799.57	13.8
799.745	14.63
799.92	12.4
800.095	11.92
800.27	13.47
800.445	11.99
800.62	13.47
800.795	12.48
800.97	11.69
801.145	12.06
801.319	11.58
801.494	10.31
801.669	11.63
801.844	14.11
802.018	12.2
802.193	9.16
802.368	9.2
802.543	7.77
802.717	9.45
802.892	9.25
803.067	9.29
803.241	9.41
803.416	10.16
803.59	9.35
803.765	8.05
803.94	10.53
804.114	12.45
804.289	13.73
804.463	13.52
804.638	11.67
804.812	9.44
804.986	10.11
805.161	13.22
805.335	12.13
805.51	13.65
805.684	12.87
805.858	14.98
806.033	20.54
806.207	21.39
806.381	23.76
806.556	23.53
806.73	25.43
806.904	25.1
807.078	21.19
807.253	21.44
807.427	20.29
807.601	19.64
807.775	16.61
807.949	13.21
808.123	13.93
808.298	11.23
808.472	8.81
808.646	9.15
808.82	10.99
808.994	10.76
809.168	13.23
809.342	11.51
809.516	9.19
809.69	11.4
809.864	8.15
810.038	5.11
810.212	1.83
810.385	4
810.559	10.09
810.733	8.69
810.907	10.93
811.081	6.13
811.255	6.49
811.428	12.74
811.602	13.38
811.776	16.22
811.95	17.84
812.123	19.08
812.297	17.33
812.471	11.42
812.644	13.91
812.818	12.91
812.992	14.01
813.165	13.14
813.339	10.4
813.512	3.59
813.686	0.03
813.86	-1.04
814.033	0.88
814.207	1.04
814.38	6.22
814.554	2.67
814.727	3.92
814.9	-0.26
815.074	4.89
815.247	0.4
815.421	6.8
815.594	9.74
815.767	12.79
815.941	13.45
816.114	13.03
816.287	11.35
816.46	13.9
816.634	12.15
816.807	15.1
816.98	15.35
817.153	17.34
817.327	14.02
817.5	11.84
817.673	8.72
817.846	7.94
818.019	11.39
818.192	8.86
818.365	6.1
818.538	12.47
818.711	12.39
818.884	8.73
819.057	13.55
819.23	15.15
819.403	13.97
819.576	15.11
819.749	14.35
819.922	16.48
820.095	15.65
820.268	15.86
820.441	11.67
820.614	12.94
820.786	12.72
820.959	11.67
821.132	12.02
821.305	12.46
821.477	12.14
821.65	13.68
821.823	12.88
821.996	13.71
822.168	13.18
822.341	13.3
822.514	12.87
822.686	14.09
822.859	14.31
823.031	15.01
823.204	15.78
823.376	16.45
823.549	16.49
823.722	16.66
823.894	16.43
824.067	16.6
824.239	17.58
824.411	17.45
824.584	16.9
824.756	16.63
824.929	16.37
825.101	16.56
825.273	15.46
825.446	15.22
825.618	14.94
825.79	16.59
825.963	15.57
826.135	13.76
826.307	14.57
826.479	14.33
826.652	13.44
826.824	12.96
826.996	12.7
827.168	13.57
827.34	13.64
827.512	12.98
827.684	10.89
827.856	12.57
828.029	13.22
828.201	13.57
828.373	13.42
828.545	14.39
828.717	15.19
828.889	13.35
829.061	12.94
829.232	11.74
829.404	12.39
829.576	12.95
829.748	12.17
829.92	12.34
830.092	11.92
830.264	9.84
830.436	11.2
830.607	10.83
830.779	9.61
830.951	7.91
831.123	6.77
831.294	5.28
831.466	6.93
831.638	8.82
831.809	7.82
831.981	5.72
832.153	8.46
832.324	5.28
832.496	-0.16
832.667	1.56
832.839	2.97
833.011	1.57
833.182	3.72
833.354	3.08
833.525	3.05
833.697	3.38
833.868	3.76
834.039	5.68
834.211	6.89
834.382	9.48
834.554	12.25
834.725	11.13
834.896	14.01
835.068	11.24
835.239	8.91
835.41	6.86
835.581	8.15
835.753	8.93
835.924	8.64
836.095	8.3
836.266	7.27
836.438	6.19
836.609	6.86
836.78	5.48
836.951	8.78
837.122	9.2
837.293	10.38
837.464	10.7
837.635	11.3
837.806	7.6
837.977	2.39
838.148	2.45
838.319	1.52
838.49	-1.98
838.661	-1.93
838.832	-2.91
839.003	-2.44
839.174	-1.72
839.345	-6.95
839.516	-5.51
839.687	-7.27
839.857	-1.23
840.028	-1.29
840.199	-4.96
840.37	1.34
840.54	0.54
840.711	2.58
840.882	4.2
841.053	4.49
841.223	4.68
841.394	4.63
841.564	7.43
841.735	4.28
841.906	2.61
842.076	6.48
842.247	6.29
842.417	4.08
842.588	6.11
842.758	9.58
842.929	15.53
843.099	17.49
843.27	15.05
843.44	12.04
843.611	16.92
843.781	21.76
843.951	19.28
844.122	17.58
844.292	15.25
844.462	17.44
844.633	12.92
844.803	1.34
844.973	15.25
845.144	4.87
845.314	13.72
845.484	15.91
845.654	15.78
845.824	27.79
845.995	22.48
846.165	34.07
846.335	22.31
846.505	25.03
846.675	19.47
846.845	-6.64
847.015	5
847.185	6.49
847.355	-1.22
847.525	-4.26
847.695	-36.02
847.865	-15.25
848.035	-20.75
848.205	-5.54
848.375	-13.9
848.545	-15.77
848.715	-11.15
848.884	-7.47
849.054	-4.45
849.224	20.1
849.394	13.87
849.564	22.14
849.733	20.5
849.903	22.16
850.073	17.28
850.243	14.33
850.412	24.84
850.582	32.85
850.752	32.72
850.921	27.79
851.091	6.33
851.26	13.05
851.43	1.61
851.599	-19.3
851.769	-37.93
851.939	-71.48
852.108	-39.95
852.278	-43.91
852.447	-56.95
852.616	-60.41
852.786	-68.78
852.955	-52.31
853.125	-65.2
853.294	-48.45
853.463	-32.51
853.633	-22.85
853.802	-17.67
853.971	-13.07
854.141	-18.03
854.31	-11.69
854.479	-16.38
854.648	-16.22
854.818	-4.85
854.987	-10.02
855.156	-9.37
855.325	-9.05
855.494	-9.18
855.663	1.59
855.832	-1.33
856.001	0.85
856.171	1.42
856.34	10.42
856.509	18.23
856.678	24.15
856.847	26.61
857.016	21.69
857.185	6.99
857.353	8.22
857.522	8.45
857.691	-5.65
857.86	5.06
858.029	-15.25
858.198	-15.2
858.367	-22.33
858.535	-38.12
858.704	-23.96
858.873	-8.37
859.042	2.57
859.21	1.41
859.379	8.64
859.548	0.25
859.717	-13.03
859.885	-2.27
860.054	-1.37
860.222	-5.83
860.391	-5.14
860.56	-13.54
860.728	-33.36
860.897	-25.03
861.065	-28.11
861.234	-18.03
861.402	-18.1
861.571	-13.37
861.739	-9.95
861.908	-18.78
862.076	-26.88
862.244	-14.05
862.413	-1.54
862.581	1.87
862.749	14.04
862.918	-8.93
863.086	-1.23
863.254	10.57
863.423	11.68
863.591	4.35
863.759	4.78
863.927	4.82
864.096	5.73
864.264	6.9
864.432	3.38
864.6	-15.37
864.768	12.76
864.936	-7.5
865.104	-1.46
865.272	2.26
865.44	1.36
865.608	13.4
865.776	23.96
865.944	22.45
866.112	3.56
866.28	20.34
866.448	37.66
866.616	24.37
866.784	30.36
866.952	23.17
867.12	20.63
867.288	18.3
867.455	-3.39
867.623	-12.79
867.791	-41.11
867.959	-3.17
868.127	-7.04
868.294	-22.33
868.462	-27.71
868.63	-25.17
868.797	-16.37
868.965	-27.65
869.133	-23.78
869.3	-4.41
869.468	6.33
869.636	21.13
869.803	19.8
869.971	13.66
870.138	33.06
870.306	41.42
870.473	24.17
870.641	29.6
870.808	36.9
870.975	19.57
871.143	-0.03
871.31	-12.69
871.478	-14.27
871.645	-17.18
871.812	-4.86
871.98	-28.69
872.147	-29.02
872.314	-8.15
872.482	-48.9
872.649	-123.86
872.816	-124.05
872.983	-76.89
873.15	-71.04
873.318	-93.12
873.485	-144.11
873.652	-111.57
873.819	-111.11
873.986	-94.52
874.153	-98.54
874.32	-76.29
874.487	-57.69
874.654	-56.71
874.821	-57.33
874.988	-49.74
875.155	-68.54
875.322	-57.99
875.489	-78.22
875.656	-128.77
875.823	-87.64
875.99	-113.52
876.157	-106.76
876.324	-70.37
876.49	-48.74
876.657	-27.32
876.824	-46.9
876.991	-15.97
877.157	-13.4
877.324	-31.15
877.491	-26.19
877.658	-35.13
877.824	-20.47
877.991	-7.47
878.157	-5.88
878.324	-18.99
878.491	-26.23
878.657	-30.11
878.824	-78.06
878.99	-130.14
879.157	-3
879.323	7.81
879.49	12.82
879.656	-4.22
879.823	-16.32
879.989	-45.81
880.156	-22.49
880.322	-31.64
880.488	-21.66
880.655	-20.58
880.821	-13.75
880.987	-32.14
881.154	-18.6
881.32	-8.8
881.486	-5.92
881.652	-3.93
881.819	9.86
881.985	6.19
882.151	5.54
882.317	4.32
882.483	8.56
882.649	7.96
882.816	7.89
882.982	8.92
883.148	9.71
883.314	10.41
883.48	9.71
883.646	6.98
883.812	7.58
883.978	7.61
884.144	7.38
884.31	8.66
884.476	8.63
884.642	5.99
884.807	2.32
884.973	0.29
885.139	2.69
885.305	5.15
885.471	5.3
885.637	1.51
885.802	-4.56
885.968	-6.17
886.134	-7.3
886.3	-5.46
886.465	-4.19
886.631	-4.89
886.797	-5.1
886.962	-4.41
887.128	-4.41
887.293	-8.48
887.459	0.43
887.625	8.49
887.79	13.63
887.956	12.78
888.121	9.29
888.287	15.29
888.452	15.35
888.618	11.21
888.783	4.06
