Data from 2938075_Reflection_2.txt Node
Date: Sat Jul 11 20:26:33 EDT 2015
User: robert
Spectrometer: USB4E03001
Autoset integration time: false
Trigger mode: 4
Integration Time (sec): 1.000000E-1
Scans to average: 10
Electric dark correction enabled: true
Nonlinearity correction enabled: false
Boxcar width: 5
Stray light correction enabled: false
XAxis mode: Wavelengths
Stop averaging: false
Number of Pixels in Spectrum: 3648
>>>>>Begin Spectral Data<<<<<
177.566	217.64
177.785	184.01
178.005	210.52
178.225	221.69
178.445	101.5
178.665	352.42
178.885	141.39
179.105	205.72
179.324	227.3
179.544	-1488.1
179.764	-11.36
179.984	4.3
180.204	15.63
180.423	42.8
180.643	42.31
180.863	19.92
181.083	26.28
181.302	67.91
181.522	108.12
181.742	95.46
181.961	127.11
182.181	142.7
182.401	137.8
182.621	128.34
182.84	86.72
183.06	24.32
183.279	1113.91
183.499	124.68
183.719	20.86
183.938	25.29
184.158	105.12
184.377	72.34
184.597	1.59
184.816	42.62
185.036	25.34
185.256	36.58
185.475	66.05
185.695	408.61
185.914	194.44
186.134	-3794.25
186.353	1979.17
186.572	233.23
186.792	211.13
187.011	257.63
187.231	319.78
187.45	156.88
187.67	-48.02
187.889	131.66
188.108	426.65
188.328	227.14
188.547	481.35
188.766	165.23
188.986	179.37
189.205	116.28
189.424	42.71
189.644	44.94
189.863	-24.63
190.082	-226.19
190.302	571.64
190.521	157.03
190.74	210.9
190.959	73.63
191.178	12.71
191.398	-8.17
191.617	-123.37
191.836	-913.33
192.055	89.17
192.274	921.24
192.494	-88.85
192.713	4.84
192.932	-38.86
193.151	-2.51
193.37	-20.42
193.589	17.04
193.808	27.43
194.027	-7.15
194.246	23.72
194.465	59.02
194.685	111.33
194.904	265.06
195.123	548.05
195.342	543.86
195.561	20134.29
195.78	-657.57
195.999	-410.4
196.218	-266.1
196.436	-445.55
196.655	-211.1
196.874	-204.42
197.093	-7.68
197.312	107.66
197.531	309.49
197.75	-538.39
197.969	-98.47
198.188	377.07
198.407	174.67
198.625	178.76
198.844	59.05
199.063	99.53
199.282	102.51
199.501	-168.22
199.719	2038.2
199.938	-59.84
200.157	-32.49
200.376	67.92
200.594	419.33
200.813	131.16
201.032	-4250
201.251	-315.46
201.469	-54.14
201.688	-31.34
201.907	-103.05
202.125	-73.95
202.344	8.69
202.563	-62.74
202.781	45.1
203	110.52
203.218	53.42
203.437	85.47
203.656	135.67
203.874	157.86
204.093	345.31
204.311	126.85
204.53	118.16
204.748	-139.59
204.967	4977.01
205.185	-383.94
205.404	-172.73
205.622	-173.82
205.841	-212.43
206.059	663.53
206.278	512.73
206.496	-224.81
206.715	7627.27
206.933	0.43
207.151	-901.52
207.37	84.23
207.588	97.06
207.806	161.6
208.025	-12241.18
208.243	54.53
208.461	-173.49
208.68	-2.09
208.898	16.56
209.116	54.74
209.335	42.77
209.553	28.63
209.771	27.13
209.989	44.8
210.208	11.97
210.426	8.81
210.644	-4.05
210.862	1.24
211.081	22.24
211.299	58.49
211.517	33.76
211.735	59.24
211.953	33.38
212.171	60.01
212.39	16.44
212.608	23.02
212.826	39.1
213.044	25.26
213.262	79.89
213.48	38.76
213.698	11.55
213.916	17.65
214.134	1.65
214.352	-6.16
214.57	-42.28
214.788	-58.75
215.006	-62.58
215.224	-29.98
215.442	-37.28
215.66	-139.89
215.878	-139.07
216.096	-121.1
216.314	3529.47
216.532	-222.7
216.75	-151.64
216.968	-79.81
217.185	-3.52
217.403	58.61
217.621	0.85
217.839	-8.51
218.057	1.94
218.275	0.92
218.492	7.64
218.71	2.88
218.928	47.01
219.146	114.91
219.363	203.82
219.581	58.96
219.799	62.04
220.017	72.55
220.234	103.59
220.452	100.33
220.67	96.4
220.887	72.15
221.105	75.01
221.323	62
221.54	33.54
221.758	28.27
221.976	17.09
222.193	11.29
222.411	14.1
222.629	-14.93
222.846	-10.07
223.064	-27.26
223.281	-18.4
223.499	-26.34
223.716	-54.15
223.934	2.95
224.151	17.08
224.369	46.5
224.586	47.56
224.804	42.43
225.021	63.52
225.239	81.86
225.456	61.69
225.674	53.59
225.891	46.62
226.108	34.48
226.326	22.11
226.543	10.37
226.76	-1.42
226.978	7.38
227.195	12.67
227.413	7.04
227.63	7.87
227.847	8.13
228.064	8.42
228.282	14.29
228.499	16.54
228.716	17.21
228.934	20.04
229.151	19.48
229.368	18.63
229.585	20.73
229.802	20.46
230.02	17.94
230.237	20.96
230.454	19.8
230.671	18.48
230.888	18.62
231.105	20.81
231.323	18.97
231.54	15.97
231.757	8.77
231.974	4.23
232.191	7.03
232.408	14.9
232.625	10.86
232.842	17.14
233.059	16.52
233.276	16.35
233.493	6.85
233.71	12.21
233.927	11.81
234.144	20.82
234.361	18.31
234.578	21.42
234.795	15.26
235.012	10.62
235.229	3.92
235.446	3.19
235.663	2.82
235.879	7.01
236.096	6.81
236.313	14.48
236.53	11.8
236.747	14.07
236.964	15.01
237.181	11.71
237.397	7.19
237.614	14.34
237.831	8.56
238.048	10.37
238.264	13.43
238.481	12.63
238.698	2.57
238.915	-0.15
239.131	-2.17
239.348	-1.64
239.565	6.7
239.781	15.66
239.998	10.18
240.215	13.67
240.431	13.52
240.648	15.01
240.865	14.3
241.081	17.18
241.298	15.22
241.514	15.89
241.731	15.3
241.947	15.69
242.164	13.57
242.38	13.58
242.597	13.05
242.814	13.02
243.03	12
243.246	11.33
243.463	11.58
243.679	14.57
243.896	14.39
244.112	14.6
244.329	13.21
244.545	12.87
244.762	15.59
244.978	15.42
245.194	17.95
245.411	15.26
245.627	14.73
245.843	13.36
246.06	11.02
246.276	8.97
246.492	9.87
246.709	9.98
246.925	9.71
247.141	9.76
247.357	9.76
247.574	8.43
247.79	9.58
248.006	9.28
248.222	9.55
248.439	10.1
248.655	10.99
248.871	9.52
249.087	9.27
249.303	9.31
249.519	8.26
249.736	8.96
249.952	9.76
250.168	8.25
250.384	9.38
250.6	6.06
250.816	4.09
251.032	2.89
251.248	4.23
251.464	6.77
251.68	8.01
251.896	9.33
252.112	7.96
252.328	8.74
252.544	9.43
252.76	7.88
252.976	8.44
253.192	8.56
253.408	9.9
253.624	11.16
253.84	9.96
254.056	10.73
254.272	9.57
254.487	9
254.703	7.51
254.919	9.55
255.135	13.19
255.351	12.78
255.567	14.09
255.782	11.9
255.998	9.56
256.214	12.87
256.43	12.31
256.646	14.37
256.861	14.5
257.077	16.37
257.293	16.15
257.508	11.69
257.724	12.72
257.94	12.88
258.155	14.59
258.371	15.03
258.587	13.08
258.802	11.65
259.018	10.65
259.234	11.14
259.449	9.76
259.665	8.33
259.88	9.42
260.096	9.86
260.312	9.49
260.527	8.6
260.743	8.62
260.958	8.2
261.174	8.6
261.389	7.78
261.605	7.57
261.82	7.29
262.036	7.59
262.251	7.18
262.466	6.44
262.682	5.48
262.897	6.35
263.113	5.72
263.328	4.85
263.543	4.86
263.759	5.75
263.974	6.09
264.189	5.23
264.405	8.06
264.62	10.86
264.835	12.26
265.051	12.88
265.266	13.97
265.481	12.59
265.696	14.13
265.912	13.77
266.127	14.58
266.342	14.31
266.557	14.62
266.773	14.55
266.988	13.44
267.203	12.16
267.418	11.36
267.633	10.53
267.848	12.62
268.064	11.98
268.279	11.32
268.494	10.64
268.709	11.04
268.924	12.24
269.139	12.16
269.354	12
269.569	12.86
269.784	13.48
269.999	11.9
270.214	9.41
270.429	9.72
270.644	10.28
270.859	9.61
271.074	8.35
271.289	7.5
271.504	6.07
271.719	4.8
271.934	4.25
272.149	3.62
272.363	4.48
272.578	5.56
272.793	5.38
273.008	5.52
273.223	5.53
273.438	5.12
273.653	5.91
273.867	5.62
274.082	6.62
274.297	7.67
274.512	8.74
274.726	8.67
274.941	8.7
275.156	9.55
275.371	8.33
275.585	8.97
275.8	9.74
276.015	7.97
276.229	8.29
276.444	7.24
276.659	7.9
276.873	6.72
277.088	7.15
277.302	8.58
277.517	7.35
277.732	7.58
277.946	8.21
278.161	8.63
278.375	9.18
278.59	7.67
278.804	7.72
279.019	6.49
279.233	7.22
279.448	6.84
279.662	5.03
279.877	5.37
280.091	6.72
280.306	6.99
280.52	6.81
280.735	7.37
280.949	9.44
281.163	10.86
281.378	9.83
281.592	9.38
281.806	9.73
282.021	11.07
282.235	9.84
282.449	8.97
282.664	8.84
282.878	7.39
283.092	6.78
283.307	5.82
283.521	5.31
283.735	5.69
283.949	6.16
284.164	6.12
284.378	5.88
284.592	6.98
284.806	6.24
285.02	4.75
285.234	6.76
285.449	7.43
285.663	7.31
285.877	8.13
286.091	8.48
286.305	10.01
286.519	10.1
286.733	9.76
286.947	8.61
287.161	8.74
287.375	9.79
287.589	9.18
287.803	8.95
288.017	8.98
288.231	7.92
288.445	7.65
288.659	5.2
288.873	4.5
289.087	4.1
289.301	4.83
289.515	5.92
289.729	5.56
289.943	4.73
290.157	5.78
290.371	5.81
290.584	6.74
290.798	6.94
291.012	6.25
291.226	6.98
291.44	7.45
291.654	8.33
291.867	8.67
292.081	9.58
292.295	10.01
292.509	9.31
292.722	8.75
292.936	7.53
293.15	9.25
293.364	10.65
293.577	8.69
293.791	7.41
294.005	6.37
294.218	5.64
294.432	5.94
294.645	6.62
294.859	7.65
295.073	8.68
295.286	10.37
295.5	8.5
295.713	9.82
295.927	10.64
296.14	11.62
296.354	12.54
296.568	13.75
296.781	13.85
296.994	13.56
297.208	12.47
297.421	13.48
297.635	12.34
297.848	12.04
298.062	9.62
298.275	11.15
298.489	11.4
298.702	11.69
298.915	10.31
299.129	9.75
299.342	9.19
299.555	8.58
299.769	8.3
299.982	8.7
300.195	11.2
300.409	11.91
300.622	10.11
300.835	9.49
301.048	9.91
301.262	12.3
301.475	10.51
301.688	11.01
301.901	12.75
302.115	11.27
302.328	11.62
302.541	9.71
302.754	11.27
302.967	12.42
303.18	12.27
303.393	11.23
303.607	9.2
303.82	10.17
304.033	8.91
304.246	7.97
304.459	9.66
304.672	9.66
304.885	9.81
305.098	11.48
305.311	11.51
305.524	11.87
305.737	11.29
305.95	12.48
306.163	14.17
306.376	15.81
306.589	16.9
306.802	16.12
307.015	14.65
307.228	14.36
307.44	12.86
307.653	12.62
307.866	11.31
308.079	12.01
308.292	12.72
308.505	11.46
308.718	11.66
308.93	11.31
309.143	11.5
309.356	12.61
309.569	12.15
309.781	11.25
309.994	10.61
310.207	11.67
310.42	9.97
310.632	8.5
310.845	9.65
311.058	9.39
311.27	8.62
311.483	8.44
311.696	8.05
311.908	9.28
312.121	9.3
312.333	10.44
312.546	9.71
312.759	11.16
312.971	11.73
313.184	11.47
313.396	10.99
313.609	12.38
313.821	12.09
314.034	11.05
314.246	9.99
314.459	12.27
314.671	10.6
314.884	12.58
315.096	12.32
315.309	12.95
315.521	13.64
315.733	13.67
315.946	13.86
316.158	13.11
316.371	14.49
316.583	15.57
316.795	13.57
317.008	14.53
317.22	12.7
317.432	15.24
317.644	15.07
317.857	14.32
318.069	15.15
318.281	13.75
318.494	14.98
318.706	16.29
318.918	17.1
319.13	16.77
319.342	16.72
319.555	16.3
319.767	14.62
319.979	13.91
320.191	13.27
320.403	12.13
320.615	10.82
320.827	10.1
321.039	9.84
321.252	8.79
321.464	8.48
321.676	8.26
321.888	10
322.1	9.4
322.312	8.98
322.524	8.95
322.736	9.37
322.948	11.04
323.16	11.65
323.372	10.11
323.584	9.6
323.796	11.59
324.007	10.9
324.219	9.81
324.431	8.59
324.643	8.82
324.855	9.08
325.067	9.03
325.279	7.96
325.491	6.92
325.702	5.76
325.914	6.14
326.126	4.45
326.338	5.6
326.55	6.28
326.761	8.62
326.973	8.34
327.185	6.48
327.396	7.03
327.608	7.43
327.82	9.04
328.032	10.56
328.243	9.03
328.455	8.49
328.666	9.73
328.878	9.54
329.09	7.19
329.301	5.99
329.513	8.17
329.725	7.62
329.936	9.33
330.148	7.69
330.359	8.15
330.571	9.25
330.782	11.2
330.994	8
331.205	6.92
331.417	8.67
331.628	11.15
331.84	10.87
332.051	11.1
332.262	8.3
332.474	10.32
332.685	10.66
332.897	11.07
333.108	10.11
333.319	11.27
333.531	11.58
333.742	10.89
333.953	10.72
334.165	10.62
334.376	10.42
334.587	11.89
334.799	11.77
335.01	10.62
335.221	10.24
335.432	11.57
335.644	10.98
335.855	10.86
336.066	10.66
336.277	10.45
336.488	10.55
336.7	10.42
336.911	10.55
337.122	9.76
337.333	10.53
337.544	10.54
337.755	8.16
337.966	7.04
338.177	7.18
338.388	8.46
338.599	7.75
338.811	7.97
339.022	9.29
339.233	7.1
339.444	6.98
339.655	6.27
339.866	6.6
340.076	8.01
340.287	8.29
340.498	7.92
340.709	7
340.92	7.51
341.131	6.19
341.342	5.48
341.553	6.61
341.764	6.44
341.975	6.46
342.185	5.9
342.396	6.4
342.607	7.37
342.818	8.41
343.029	8.66
343.239	8.82
343.45	8.83
343.661	7.99
343.872	7.32
344.082	8.49
344.293	8.67
344.504	9.37
344.714	9.39
344.925	9.86
345.136	10.35
345.346	11.08
345.557	11.24
345.768	12.17
345.978	11.84
346.189	13.55
346.399	12.4
346.61	12.74
346.821	12.71
347.031	11.95
347.242	11.1
347.452	10.72
347.663	10.27
347.873	9.45
348.084	9.99
348.294	11
348.504	10.77
348.715	11.38
348.925	11.98
349.136	12.33
349.346	12.57
349.557	12.6
349.767	12.24
349.977	10.69
350.188	10.51
350.398	9.76
350.608	9.92
350.819	8.26
351.029	7.52
351.239	5.81
351.449	5.02
351.66	5.38
351.87	5.58
352.08	5.56
352.29	5.81
352.501	6.47
352.711	5.65
352.921	5.28
353.131	5.44
353.341	7.22
353.552	7.09
353.762	6.54
353.972	6.05
354.182	7.1
354.392	6.52
354.602	6.58
354.812	6.43
355.022	7.84
355.232	8.67
355.442	9.04
355.652	8.01
355.862	8.64
356.072	9.34
356.282	9.34
356.492	9.22
356.702	8.89
356.912	9.3
357.122	8.72
357.332	8.1
357.542	8.13
357.752	8.16
357.962	7.54
358.171	7.04
358.381	6.86
358.591	7.32
358.801	6.8
359.011	7.04
359.221	7.41
359.43	8.02
359.64	8.13
359.85	8.27
360.06	8.27
360.269	8.7
360.479	8.71
360.689	9.15
360.899	8.74
361.108	8.78
361.318	8.76
361.528	8.64
361.737	7.92
361.947	7.98
362.156	7.26
362.366	7.06
362.576	6.6
362.785	6.89
362.995	6.41
363.204	6.11
363.414	5.9
363.623	6.19
363.833	5.94
364.042	6.41
364.252	6.17
364.461	6.14
364.671	5.82
364.88	6.24
365.09	6.14
365.299	5.7
365.509	5.91
365.718	5.99
365.927	6.37
366.137	6.46
366.346	6.3
366.555	5.81
366.765	5.78
366.974	5.77
367.183	5.68
367.393	5.91
367.602	5.93
367.811	5.92
368.021	6.18
368.23	5.94
368.439	6.09
368.648	6.65
368.857	7.11
369.067	7.23
369.276	8.2
369.485	8.01
369.694	8.36
369.903	9.14
370.112	9.01
370.321	8.24
370.531	7.28
370.74	6.9
370.949	8.16
371.158	8.12
371.367	8.44
371.576	7.9
371.785	7.88
371.994	6.74
372.203	6.11
372.412	6.12
372.621	6.69
372.83	6.61
373.039	6.47
373.248	4.58
373.457	4.83
373.666	4.24
373.874	4
374.083	3.65
374.292	4.18
374.501	5.1
374.71	4.65
374.919	3.26
375.128	4.47
375.336	4.98
375.545	5.84
375.754	5.73
375.963	6.08
376.171	6.1
376.38	6.48
376.589	6.74
376.798	6.01
377.006	6.97
377.215	7.93
377.424	7.26
377.632	6.82
377.841	5.88
378.05	5.59
378.258	4.89
378.467	5.19
378.675	4.7
378.884	5.27
379.093	5.53
379.301	4.95
379.51	4.87
379.718	4.93
379.927	5.34
380.135	5.99
380.344	6.56
380.552	7.16
380.761	7.5
380.969	8.02
381.177	7.59
381.386	7.25
381.594	6.97
381.803	6.89
382.011	6.6
382.219	6.36
382.428	6.09
382.636	5.5
382.845	5.8
383.053	5.69
383.261	5.51
383.469	4.84
383.678	4.51
383.886	4.6
384.094	4.61
384.302	4.53
384.511	4.26
384.719	4.21
384.927	4.06
385.135	3.68
385.343	2.95
385.552	2.5
385.76	2.67
385.968	3.06
386.176	3.52
386.384	3.45
386.592	3.43
386.8	3.41
387.008	3.57
387.216	3.76
387.424	3.45
387.633	3.77
387.841	4.3
388.049	4.59
388.257	4.52
388.465	4.12
388.672	3.76
388.88	4.09
389.088	4.55
389.296	4.38
389.504	4.29
389.712	4.29
389.92	4.07
390.128	4.3
390.336	3.97
390.544	3.99
390.751	4.02
390.959	4.48
391.167	4.54
391.375	3.91
391.583	3.98
391.79	3.93
391.998	4.03
392.206	4.22
392.414	3.91
392.621	3.96
392.829	3.84
393.037	3.71
393.244	3.84
393.452	3.89
393.66	4.21
393.867	4.26
394.075	4.12
394.283	4.39
394.49	4.53
394.698	4.64
394.905	4.54
395.113	4.66
395.32	4.93
395.528	4.68
395.735	4.16
395.943	4.04
396.15	3.87
396.358	3.98
396.565	4.08
396.773	3.83
396.98	3.57
397.188	3.8
397.395	3.32
397.602	3.31
397.81	3.38
398.017	3.82
398.225	3.84
398.432	4
398.639	4.04
398.847	3.43
399.054	3.6
399.261	3.66
399.468	3.62
399.676	3.72
399.883	3.37
400.09	3.25
400.297	2.91
400.505	2.93
400.712	2.79
400.919	2.86
401.126	2.98
401.333	2.69
401.54	2.64
401.748	2.23
401.955	2.39
402.162	2.03
402.369	2.29
402.576	2.41
402.783	2.43
402.99	2.47
403.197	2.47
403.404	2.62
403.611	2.94
403.818	3.13
404.025	3.35
404.232	3.44
404.439	3.59
404.646	3.26
404.853	3.33
405.06	2.96
405.267	2.84
405.474	2.82
405.681	2.86
405.887	2.45
406.094	2.51
406.301	2.42
406.508	2.44
406.715	2.79
406.922	2.7
407.128	2.68
407.335	3.09
407.542	3.13
407.749	3.21
407.955	3.26
408.162	3.45
408.369	2.94
408.575	3.16
408.782	3.36
408.989	3.18
409.195	2.89
409.402	2.72
409.609	2.53
409.815	2.53
410.022	2.28
410.228	2.08
410.435	2.19
410.642	2.24
410.848	2.24
411.055	1.73
411.261	1.74
411.468	2.01
411.674	2.11
411.881	2.07
412.087	1.98
412.294	2.24
412.5	2.19
412.706	2.37
412.913	2.39
413.119	2.32
413.326	2.66
413.532	2.74
413.738	2.73
413.945	2.85
414.151	3.24
414.357	3.26
414.564	3.06
414.77	3.17
414.976	3
415.182	3.21
415.389	3.18
415.595	2.9
415.801	3.05
416.007	3.22
416.214	3.09
416.42	2.75
416.626	2.61
416.832	2.46
417.038	2.76
417.244	2.81
417.45	2.86
417.657	2.82
417.863	3.22
418.069	3.01
418.275	2.92
418.481	3.02
418.687	3.02
418.893	3.14
419.099	3.29
419.305	3.16
419.511	3.01
419.717	3
419.923	3.07
420.129	2.86
420.335	2.96
420.541	3.03
420.746	2.99
420.952	2.97
421.158	2.99
421.364	2.95
421.57	2.88
421.776	2.85
421.982	2.87
422.187	2.84
422.393	2.95
422.599	2.96
422.805	3.07
423.01	3.16
423.216	3.16
423.422	3.05
423.628	3.15
423.833	3.11
424.039	3.18
424.245	3.17
424.45	3.04
424.656	3.02
424.862	3
425.067	2.96
425.273	2.9
425.478	3.05
425.684	3.18
425.889	3.09
426.095	3.21
426.301	3.2
426.506	3.09
426.712	3.2
426.917	3.16
427.123	3.04
427.328	2.91
427.533	2.94
427.739	2.9
427.944	2.79
428.15	2.65
428.355	2.47
428.561	2.64
428.766	2.78
428.971	2.82
429.177	2.67
429.382	2.92
429.587	2.9
429.793	2.88
429.998	3.09
430.203	3.04
430.408	3.09
430.614	3.06
430.819	3.04
431.024	3.06
431.229	3.13
431.434	3.16
431.64	2.99
431.845	3.04
432.05	2.87
432.255	2.57
432.46	2.68
432.665	2.75
432.87	2.75
433.076	2.66
433.281	2.67
433.486	2.74
433.691	2.73
433.896	2.69
434.101	2.64
434.306	2.69
434.511	2.72
434.716	2.75
434.921	2.8
435.126	3.06
435.331	2.87
435.535	2.9
435.74	2.86
435.945	3.02
436.15	2.99
436.355	2.93
436.56	3
436.765	3.09
436.97	2.91
437.174	2.89
437.379	2.74
437.584	2.91
437.789	2.64
437.993	2.59
438.198	2.52
438.403	2.59
438.608	2.63
438.812	2.56
439.017	2.59
439.222	2.85
439.426	2.82
439.631	2.69
439.836	2.82
440.04	2.9
440.245	2.98
440.45	2.88
440.654	2.94
440.859	2.92
441.063	2.92
441.268	2.89
441.472	2.63
441.677	2.68
441.881	2.73
442.086	2.51
442.29	2.48
442.495	2.51
442.699	2.64
442.904	2.71
443.108	2.82
443.312	2.94
443.517	2.94
443.721	3.13
443.925	3.03
444.13	3
444.334	3.12
444.538	3.17
444.743	3.1
444.947	3.03
445.151	2.83
445.356	2.74
445.56	2.6
445.764	2.62
445.968	2.66
446.173	2.74
446.377	2.86
446.581	2.76
446.785	2.81
446.989	2.78
447.193	2.73
447.398	2.73
447.602	2.79
447.806	2.82
448.01	2.85
448.214	2.79
448.418	2.66
448.622	2.48
448.826	2.57
449.03	2.29
449.234	2.17
449.438	2.18
449.642	2.36
449.846	2.1
450.05	1.97
450.254	1.93
450.458	1.87
450.662	1.97
450.866	2.09
451.069	2.01
451.273	2.21
451.477	2.37
451.681	2.47
451.885	2.23
452.089	2.46
452.292	2.63
452.496	2.56
452.7	2.62
452.904	2.64
453.107	2.55
453.311	2.74
453.515	2.78
453.719	2.59
453.922	2.51
454.126	2.43
454.33	2.42
454.533	2.51
454.737	2.48
454.94	2.47
455.144	2.32
455.348	2.27
455.551	2.21
455.755	2.02
455.958	2.08
456.162	1.91
456.365	2.16
456.569	2.15
456.772	1.88
456.976	1.89
457.179	1.96
457.383	2.18
457.586	2.36
457.79	2.25
457.993	2.44
458.196	2.34
458.4	2.57
458.603	2.4
458.807	2.43
459.01	2.55
459.213	2.52
459.417	2.58
459.62	2.45
459.823	2.39
460.026	2.44
460.23	2.42
460.433	2.59
460.636	2.49
460.839	2.43
461.042	2.48
461.246	2.48
461.449	2.57
461.652	2.54
461.855	2.64
462.058	2.68
462.261	2.62
462.464	2.8
462.668	2.66
462.871	2.78
463.074	2.95
463.277	2.77
463.48	2.67
463.683	2.46
463.886	2.43
464.089	2.58
464.292	2.53
464.495	2.42
464.698	2.28
464.901	2.35
465.104	2.3
465.306	2.41
465.509	2.53
465.712	2.66
465.915	2.93
466.118	3.09
466.321	2.79
466.524	2.81
466.726	3.05
466.929	2.96
467.132	3.02
467.335	3.09
467.538	3.02
467.74	3.02
467.943	2.89
468.146	2.7
468.348	2.45
468.551	2.46
468.754	2.45
468.956	2.37
469.159	2.18
469.362	2.07
469.564	1.9
469.767	1.72
469.969	1.6
470.172	1.66
470.375	1.86
470.577	1.97
470.78	2.16
470.982	2.22
471.185	2.2
471.387	2.3
471.59	2.25
471.792	2.12
471.995	2.24
472.197	2.44
472.399	2.46
472.602	2.38
472.804	2.45
473.007	2.23
473.209	2.2
473.411	2.3
473.614	2.4
473.816	2.42
474.018	2.54
474.22	2.67
474.423	2.43
474.625	2.44
474.827	2.44
475.03	2.24
475.232	2.22
475.434	2.3
475.636	2.19
475.838	2.18
476.04	2.2
476.243	2.33
476.445	2.22
476.647	2.26
476.849	2.12
477.051	1.99
477.253	1.9
477.455	1.86
477.657	1.9
477.859	2.01
478.061	1.99
478.263	2.14
478.465	1.96
478.667	2.03
478.869	2.22
479.071	2.31
479.273	2.44
479.475	2.65
479.677	3
479.879	2.84
480.081	2.69
480.283	2.76
480.485	2.79
480.686	2.71
480.888	2.61
481.09	2.48
481.292	2.51
481.494	2.57
481.695	2.57
481.897	2.36
482.099	2.35
482.301	2.38
482.502	2.45
482.704	2.42
482.906	2.52
483.107	2.51
483.309	2.48
483.511	2.44
483.712	2.41
483.914	2.37
484.115	2.41
484.317	2.45
484.519	2.45
484.72	2.41
484.922	2.35
485.123	2.34
485.325	2.35
485.526	2.37
485.728	2.35
485.929	2.38
486.131	2.38
486.332	2.29
486.534	2.25
486.735	2.27
486.936	2.24
487.138	2.29
487.339	2.31
487.541	2.3
487.742	2.36
487.943	2.4
488.144	2.34
488.346	2.31
488.547	2.34
488.748	2.36
488.95	2.32
489.151	2.26
489.352	2.25
489.553	2.24
489.755	2.24
489.956	2.25
490.157	2.33
490.358	2.39
490.559	2.42
490.76	2.46
490.961	2.46
491.163	2.52
491.364	2.57
491.565	2.58
491.766	2.52
491.967	2.47
492.168	2.45
492.369	2.37
492.57	2.42
492.771	2.36
492.972	2.34
493.173	2.25
493.374	2.22
493.575	2.16
493.776	2.11
493.976	2.21
494.177	2.32
494.378	2.24
494.579	2.26
494.78	2.05
494.981	2.16
495.182	2.13
495.382	2.34
495.583	2.36
495.784	2.4
495.985	2.37
496.185	2.34
496.386	2.37
496.587	2.25
496.788	2.25
496.988	2.43
497.189	2.39
497.39	2.38
497.59	2.16
497.791	2.15
497.992	2.23
498.192	2.32
498.393	2.26
498.593	2.06
498.794	2.23
498.994	2.29
499.195	2.15
499.395	2.23
499.596	2.32
499.796	2.47
499.997	2.29
500.197	2.25
500.398	2.32
500.598	2.39
500.799	2.56
500.999	2.63
501.199	2.63
501.4	2.72
501.6	2.65
501.801	2.76
502.001	2.69
502.201	2.68
502.402	2.78
502.602	2.7
502.802	2.74
503.002	2.67
503.203	2.55
503.403	2.56
503.603	2.42
503.803	2.42
504.003	2.22
504.204	2.55
504.404	2.88
504.604	2.85
504.804	2.7
505.004	2.67
505.204	2.68
505.404	2.66
505.604	2.73
505.804	2.78
506.005	2.84
506.205	2.86
506.405	2.65
506.605	2.49
506.805	2.51
507.005	2.66
507.204	2.63
507.404	2.73
507.604	2.7
507.804	2.5
508.004	2.53
508.204	2.49
508.404	2.57
508.604	2.64
508.804	2.72
509.003	2.64
509.203	2.64
509.403	2.57
509.603	2.53
509.803	2.54
510.002	2.51
510.202	2.49
510.402	2.68
510.602	2.69
510.801	2.6
511.001	2.47
511.201	2.54
511.4	2.6
511.6	2.69
511.8	2.56
511.999	2.71
512.199	2.89
512.398	2.99
512.598	2.93
512.797	3.04
512.997	3.12
513.197	3.14
513.396	3.22
513.596	3.16
513.795	3.13
513.994	3.16
514.194	3.06
514.393	3.04
514.593	3.08
514.792	3.06
514.992	3.05
515.191	3.04
515.39	3.17
515.59	3.17
515.789	3.3
515.988	3.44
516.188	3.54
516.387	3.67
516.586	3.62
516.786	3.49
516.985	3.38
517.184	3.45
517.383	3.41
517.582	3.32
517.782	3.27
517.981	3.23
518.18	3.13
518.379	3.2
518.578	3.1
518.777	3.13
518.976	3.11
519.176	3.06
519.375	3.03
519.574	3.13
519.773	3.1
519.972	3.06
520.171	2.95
520.37	2.94
520.569	2.84
520.768	2.97
520.967	3.01
521.166	3.09
521.365	3.16
521.564	3.01
521.762	2.84
521.961	2.85
522.16	3.01
522.359	2.98
522.558	3.09
522.757	3.24
522.956	3.07
523.154	3.08
523.353	3.09
523.552	3.17
523.751	3.26
523.949	3.31
524.148	3.43
524.347	3.39
524.546	3.56
524.744	3.5
524.943	3.54
525.142	3.54
525.34	3.56
525.539	3.5
525.737	3.6
525.936	3.53
526.135	3.61
526.333	3.58
526.532	3.45
526.73	3.37
526.929	3.36
527.127	3.34
527.326	3.3
527.524	3.24
527.723	3.28
527.921	3.2
528.12	3.17
528.318	3.13
528.516	3.15
528.715	3.17
528.913	3.16
529.112	3.15
529.31	3.1
529.508	3.14
529.707	3.11
529.905	3.07
530.103	3.06
530.301	3.11
530.5	3.08
530.698	3.03
530.896	3.07
531.094	3.15
531.293	3.17
531.491	3.17
531.689	3.19
531.887	3.16
532.085	3.23
532.283	3.29
532.481	3.28
532.68	3.33
532.878	3.34
533.076	3.35
533.274	3.26
533.472	3.22
533.67	3.25
533.868	3.14
534.066	3.21
534.264	3.2
534.462	3.25
534.66	3.26
534.858	3.25
535.056	3.33
535.253	3.35
535.451	3.49
535.649	3.58
535.847	3.65
536.045	3.77
536.243	3.82
536.441	3.85
536.638	3.77
536.836	3.76
537.034	3.8
537.232	3.74
537.43	3.76
537.627	3.73
537.825	3.78
538.023	3.72
538.22	3.67
538.418	3.53
538.616	3.56
538.813	3.61
539.011	3.73
539.209	3.81
539.406	3.99
539.604	4.04
539.801	3.94
539.999	3.95
540.196	4.02
540.394	4.21
540.591	4.27
540.789	4.27
540.986	4.19
541.184	4.2
541.381	4.18
541.579	4.07
541.776	4.11
541.974	4.16
542.171	4.06
542.368	4.01
542.566	3.92
542.763	3.93
542.96	3.88
543.158	3.86
543.355	3.79
543.552	3.78
543.75	3.78
543.947	3.69
544.144	3.73
544.341	3.77
544.539	3.82
544.736	3.84
544.933	3.9
545.13	3.94
545.327	4.02
545.524	4.11
545.722	4.07
545.919	4.15
546.116	4.17
546.313	4.21
546.51	4.23
546.707	4.15
546.904	4.31
547.101	4.25
547.298	4.44
547.495	4.41
547.692	4.31
547.889	4.45
548.086	4.52
548.283	4.65
548.48	4.59
548.677	4.71
548.874	4.94
549.07	4.92
549.267	5
549.464	4.9
549.661	5.1
549.858	5.3
550.055	5.31
550.251	5.35
550.448	5.36
550.645	5.45
550.842	5.46
551.038	5.38
551.235	5.28
551.432	5.49
551.628	5.51
551.825	5.42
552.022	5.3
552.218	5.25
552.415	5.28
552.612	5.16
552.808	5.05
553.005	5.06
553.201	5.26
553.398	5.25
553.594	5.14
553.791	5.04
553.987	5.18
554.184	5.36
554.38	5.4
554.577	5.26
554.773	5.35
554.97	5.42
555.166	5.65
555.362	5.5
555.559	5.5
555.755	5.51
555.952	5.6
556.148	5.68
556.344	5.51
556.541	5.55
556.737	5.58
556.933	5.69
557.129	5.71
557.326	5.61
557.522	5.89
557.718	6.16
557.914	6.02
558.11	6.22
558.307	6.11
558.503	6.43
558.699	6.68
558.895	6.71
559.091	6.76
559.287	6.78
559.483	6.95
559.679	6.67
559.876	6.62
560.072	6.74
560.268	6.75
560.464	6.79
560.66	6.48
560.856	6.32
561.052	6.49
561.247	6.47
561.443	6.55
561.639	6.48
561.835	6.57
562.031	6.72
562.227	7.04
562.423	6.8
562.619	6.74
562.815	7.02
563.01	7.12
563.206	7.1
563.402	7.14
563.598	7.23
563.793	7.4
563.989	7.3
564.185	7.23
564.381	7.1
564.576	7.22
564.772	7.21
564.968	6.93
565.163	6.71
565.359	6.57
565.555	6.66
565.75	6.66
565.946	6.38
566.141	6.45
566.337	6.53
566.532	6.43
566.728	6.66
566.923	6.73
567.119	6.87
567.314	7.13
567.51	7.35
567.705	7.24
567.901	7.25
568.096	7.37
568.292	7.33
568.487	7.01
568.682	7.14
568.878	6.9
569.073	7.1
569.268	7.15
569.464	7.18
569.659	7.09
569.854	7.29
570.05	7.29
570.245	7.29
570.44	7.32
570.635	7.52
570.831	7.56
571.026	7.78
571.221	7.78
571.416	7.74
571.611	7.5
571.806	7.66
572.002	7.74
572.197	7.87
572.392	7.98
572.587	8.07
572.782	8.17
572.977	8.16
573.172	8
573.367	8
573.562	8.16
573.757	8.54
573.952	8.46
574.147	8.26
574.342	8.14
574.537	8.2
574.732	8.2
574.927	8.11
575.121	8.15
575.316	8.34
575.511	8.11
575.706	8.01
575.901	7.95
576.096	8.05
576.29	8.17
576.485	8.27
576.68	8.39
576.875	8.56
577.069	8.7
577.264	8.79
577.459	8.88
577.654	9.04
577.848	8.88
578.043	8.75
578.238	8.59
578.432	8.43
578.627	8.29
578.821	8.14
579.016	8.27
579.21	8.49
579.405	8.24
579.6	8.21
579.794	8.5
579.989	8.92
580.183	8.86
580.378	9.09
580.572	8.98
580.766	8.99
580.961	9.06
581.155	8.83
581.35	8.5
581.544	8.61
581.738	8.34
581.933	8.07
582.127	7.87
582.321	7.89
582.516	7.83
582.71	8.06
582.904	8.22
583.099	8.32
583.293	8.23
583.487	8.24
583.681	8.26
583.875	8.68
584.07	8.74
584.264	8.79
584.458	8.86
584.652	8.98
584.846	9.01
585.04	9.03
585.234	8.68
585.428	8.89
585.623	8.9
585.817	8.89
586.011	8.57
586.205	8.48
586.399	8.38
586.593	8.04
586.787	8.15
586.981	8.13
587.174	8.1
587.368	8.13
587.562	8.17
587.756	8.44
587.95	8.56
588.144	8.74
588.338	8.92
588.532	9
588.725	9.19
588.919	9.04
589.113	9.07
589.307	9.2
589.501	9.43
589.694	9.42
589.888	9.23
590.082	9.18
590.275	9.06
590.469	9.06
590.663	8.87
590.856	8.92
591.05	8.77
591.244	8.8
591.437	8.75
591.631	8.61
591.824	8.54
592.018	8.57
592.212	8.72
592.405	8.77
592.599	8.88
592.792	8.91
592.986	9.02
593.179	9.09
593.372	9.24
593.566	8.9
593.759	8.79
593.953	9
594.146	8.98
594.339	8.79
594.533	8.94
594.726	8.73
594.92	8.93
595.113	8.98
595.306	8.98
595.499	8.69
595.693	9.1
595.886	9.35
596.079	9.32
596.272	9.25
596.466	9.27
596.659	9.04
596.852	9.04
597.045	9.13
597.238	9.29
597.431	9.32
597.624	9.49
597.818	9.38
598.011	9.29
598.204	9.3
598.397	9.57
598.59	9.68
598.783	9.73
598.976	9.97
599.169	9.98
599.362	9.77
599.555	10.04
599.748	10.08
599.941	10.34
600.134	10.38
600.326	10.64
600.519	10.56
600.712	10.24
600.905	10.33
601.098	10.25
601.291	10.26
601.483	10.45
601.676	10.07
601.869	10.27
602.062	10.14
602.255	10.27
602.447	9.92
602.64	9.95
602.833	10.14
603.025	10.03
603.218	10.07
603.411	9.92
603.603	9.62
603.796	9.65
603.989	9.48
604.181	9.45
604.374	9.34
604.566	9.35
604.759	9.17
604.951	9.2
605.144	9.38
605.336	9.41
605.529	9.54
605.721	9.81
605.914	9.99
606.106	9.94
606.299	9.9
606.491	10.16
606.683	10.15
606.876	10.06
607.068	9.94
607.26	9.93
607.453	9.88
607.645	9.93
607.837	9.81
608.03	9.55
608.222	9.79
608.414	9.69
608.606	9.47
608.799	9.52
608.991	9.8
609.183	9.7
609.375	9.64
609.567	9.56
609.759	9.34
609.952	9.29
610.144	9.45
610.336	9.17
610.528	9.16
610.72	9.15
610.912	9.09
611.104	9.05
611.296	9.26
611.488	9.19
611.68	9.15
611.872	9
612.064	8.95
612.256	8.86
612.448	8.72
612.64	8.69
612.832	8.48
613.023	8.45
613.215	7.96
613.407	7.98
613.599	7.85
613.791	7.94
613.983	8.25
614.174	8.26
614.366	8.24
614.558	8.43
614.75	8.66
614.941	8.76
615.133	8.88
615.325	9.21
615.516	9.13
615.708	9.14
615.9	9.14
616.091	9.39
616.283	9.53
616.475	9.66
616.666	9.77
616.858	9.7
617.049	9.83
617.241	10.06
617.432	10.11
617.624	10.09
617.815	10.26
618.007	10.11
618.198	9.76
618.39	9.57
618.581	9.25
618.773	9.3
618.964	9.4
619.155	9.69
619.347	9.4
619.538	9.29
619.729	9.24
619.921	9.05
620.112	9.21
620.303	9.28
620.494	9.54
620.686	10.03
620.877	9.81
621.068	9.63
621.259	9.18
621.451	9.14
621.642	9.4
621.833	9.58
622.024	10.17
622.215	9.98
622.406	10
622.597	9.84
622.788	9.33
622.98	9.44
623.171	9.39
623.362	9.6
623.553	9.78
623.744	9.64
623.935	9.58
624.126	9.5
624.317	9.56
624.508	9.72
624.698	9.7
624.889	10.13
625.08	10.01
625.271	10.24
625.462	10.08
625.653	9.7
625.844	9.77
626.034	9.66
626.225	9.31
626.416	9.4
626.607	9.22
626.798	9.03
626.988	8.79
627.179	9.43
627.37	9.51
627.56	9.55
627.751	9.7
627.942	9.76
628.132	9.84
628.323	9.8
628.514	9.82
628.704	10.01
628.895	10.25
629.085	10.42
629.276	9.98
629.466	9.78
629.657	9.81
629.847	10.04
630.038	10.3
630.228	10.49
630.419	10.98
630.609	11.4
630.8	11.42
630.99	11.6
631.181	11.52
631.371	11.33
631.561	11.54
631.752	11.64
631.942	11.58
632.132	11.28
632.323	11.43
632.513	11.05
632.703	10.99
632.893	10.89
633.084	10.7
633.274	10.69
633.464	10.92
633.654	10.52
633.844	10.82
634.034	10.88
634.225	10.97
634.415	10.82
634.605	10.84
634.795	10.66
634.985	10.65
635.175	10.96
635.365	10.81
635.555	10.52
635.745	10.94
635.935	10.45
636.125	9.78
636.315	9.69
636.505	9.49
636.695	9.3
636.885	9.5
637.075	9.16
637.265	8.82
637.455	8.99
637.644	9.25
637.834	9.19
638.024	9.61
638.214	10.3
638.404	10.35
638.593	10.22
638.783	10.45
638.973	10.38
639.163	10.93
639.352	11.18
639.542	11.05
639.732	10.89
639.921	10.81
640.111	10.84
640.301	10.74
640.49	10.45
640.68	10.33
640.87	10.51
641.059	9.88
641.249	9.85
641.438	9.57
641.628	10.07
641.817	10.38
642.007	10.48
642.196	10.27
642.386	10.02
642.575	10.33
642.764	10.75
642.954	10.39
643.143	10.6
643.333	10.5
643.522	10.81
643.711	10.73
643.901	10.18
644.09	10.05
644.279	9.99
644.469	10.38
644.658	10.17
644.847	9.51
645.036	9.54
645.226	9.77
645.415	9.82
645.604	9.31
645.793	9.13
645.982	9.43
646.171	9.19
646.361	9.6
646.55	9.68
646.739	9.96
646.928	10.28
647.117	10.82
647.306	10.91
647.495	11.18
647.684	11.99
647.873	12.03
648.062	12.41
648.251	12.47
648.44	12.11
648.629	11.77
648.818	11.67
649.007	11.93
649.196	11.79
649.384	11.28
649.573	11.05
649.762	10.9
649.951	11.31
650.14	11.06
650.328	11.55
650.517	11.29
650.706	11.18
650.895	11
651.083	11.05
651.272	10.57
651.461	10.37
651.65	10.37
651.838	9.92
652.027	9.79
652.216	9.81
652.404	9.57
652.593	9.68
652.781	10.13
652.97	10.28
653.158	10.21
653.347	10.57
653.535	11.28
653.724	11.06
653.912	11.43
654.101	10.96
654.289	10.72
654.478	11
654.666	11.19
654.855	11.15
655.043	11.03
655.231	11.57
655.42	11.6
655.608	11.3
655.796	11.89
655.985	11.6
656.173	11.48
656.361	11.82
656.55	11.03
656.738	10.6
656.926	10.24
657.114	10.27
657.302	9.57
657.491	9.39
657.679	9.71
657.867	9.45
658.055	9.63
658.243	9.81
658.431	9.52
658.619	10.04
658.807	10.21
658.996	10.56
659.184	10.64
659.372	10.8
659.56	11.29
659.748	10.87
659.936	10.92
660.124	10.77
660.311	10.4
660.499	10.57
660.687	10.56
660.875	10.56
661.063	10.27
661.251	10.41
661.439	10.55
661.627	10.18
661.814	10.34
662.002	10.48
662.19	10.87
662.378	11.51
662.565	12.05
662.753	12
662.941	12.08
663.129	12.27
663.316	12.17
663.504	12.26
663.692	12.08
663.879	12.16
664.067	11.69
664.254	11.41
664.442	11.19
664.63	11.01
664.817	10.65
665.005	10.61
665.192	11.25
665.38	10.88
665.567	10.56
665.755	10.49
665.942	10.41
666.13	10.59
666.317	10.27
666.504	10.59
666.692	10.47
666.879	11.28
667.067	11.52
667.254	10.73
667.441	11.27
667.629	11.12
667.816	11.26
668.003	11.5
668.19	11.57
668.378	11.76
668.565	11.73
668.752	11.62
668.939	11.45
669.127	11.37
669.314	11.41
669.501	10.66
669.688	10.99
669.875	10.81
670.062	10.72
670.249	10.67
670.436	11.03
670.623	10.85
670.81	10.66
670.997	10.07
671.184	10.06
671.371	10.14
671.558	10.3
671.745	10.04
671.932	9.93
672.119	9.74
672.306	9.77
672.493	9.67
672.68	9.98
672.867	10.3
673.054	10.49
673.24	10.57
673.427	10.54
673.614	11.37
673.801	11.61
673.988	11.64
674.174	11.85
674.361	11.85
674.548	11.6
674.734	11.32
674.921	10.9
675.108	10.91
675.294	10.73
675.481	10.88
675.668	10.58
675.854	10.81
676.041	10.82
676.227	10.56
676.414	10.64
676.601	10.79
676.787	10.69
676.974	10.6
677.16	11.05
677.347	11.5
677.533	11.56
677.719	11.75
677.906	11.62
678.092	11.46
678.279	11.75
678.465	11.83
678.651	12.11
678.838	12.41
679.024	12.81
679.21	12.41
679.397	12.18
679.583	12.35
679.769	11.86
679.955	11.84
680.142	12.4
680.328	12.3
680.514	12
680.7	11.56
680.886	11.26
681.073	11.33
681.259	11.51
681.445	10.69
681.631	10.42
681.817	10.51
682.003	10.57
682.189	10.65
682.375	10.36
682.561	10.41
682.747	10.64
682.933	10.71
683.119	10.28
683.305	10.24
683.491	11.1
683.677	11.17
683.863	11.4
684.049	11.36
684.235	11.03
684.42	11.44
684.606	11.5
684.792	11.5
684.978	11.75
685.164	11.61
685.349	10.93
685.535	11.27
685.721	11.17
685.907	10.94
686.092	10.58
686.278	9.95
686.464	9.48
686.649	9.65
686.835	9.6
687.021	9.29
687.206	9.23
687.392	9.79
687.577	9.89
687.763	10.13
687.948	9.94
688.134	10.42
688.319	11.45
688.505	11.83
688.69	12.01
688.876	12.06
689.061	12.18
689.247	12.69
689.432	12.83
689.618	11.94
689.803	11.56
689.988	11.55
690.174	11.34
690.359	10.89
690.544	11.02
690.73	10.86
690.915	11.04
691.1	11.38
691.285	11.83
691.471	11.68
691.656	12.23
691.841	12.37
692.026	12.71
692.211	12.37
692.396	12.03
692.582	11.85
692.767	11.56
692.952	10.51
693.137	10.34
693.322	10.33
693.507	10.46
693.692	10.07
693.877	9.83
694.062	9.4
694.247	9.7
694.432	9.92
694.617	9.56
694.802	10.05
694.987	10.93
695.172	10.64
695.357	10.32
695.541	10.29
695.726	10.81
695.911	11.16
696.096	11.84
696.281	12.22
696.466	12.6
696.65	12.52
696.835	11.65
697.02	11.6
697.204	11.67
697.389	11.44
697.574	11.16
697.759	10.95
697.943	10.64
698.128	10.28
698.312	9.92
698.497	9.85
698.682	10.28
698.866	10.63
699.051	10.58
699.235	10.34
699.42	10.63
699.604	10.81
699.789	11.11
699.973	11.41
700.158	11.72
700.342	11.84
700.527	12.19
700.711	12.23
700.895	12.94
701.08	13.24
701.264	13.91
701.448	13.46
701.633	13.16
701.817	12.41
702.001	12.84
702.186	12.64
702.37	12.93
702.554	12.86
702.738	12.85
702.923	11.92
703.107	12.01
703.291	11.26
703.475	11.98
703.659	11.89
703.843	12.31
704.027	12.15
704.212	12.37
704.396	12.31
704.58	12.31
704.764	12.32
704.948	12.47
705.132	11.77
705.316	12.72
705.5	12.34
705.684	12.53
705.868	13.27
706.052	13.27
706.235	13.2
706.419	12.92
706.603	12.94
706.787	13.39
706.971	13.31
707.155	14.03
707.339	13.31
707.522	13.18
707.706	13.99
707.89	12.92
708.074	12.92
708.257	13.19
708.441	13.32
708.625	12.99
708.808	12.65
708.992	12.22
709.176	11.57
709.359	12.44
709.543	12.31
709.727	12.12
709.91	11.98
710.094	11.5
710.277	11.01
710.461	11.11
710.644	10.34
710.828	9.86
711.011	10.26
711.195	10.57
711.378	10.11
711.562	10.26
711.745	9.95
711.928	10.11
712.112	10.18
712.295	10.19
712.478	9.76
712.662	10.57
712.845	11.25
713.028	10.78
713.212	10.34
713.395	9.75
713.578	10.03
713.761	10.29
713.945	10.95
714.128	10.82
714.311	11.32
714.494	11.99
714.677	12.4
714.86	12.16
715.043	12.97
715.227	13.72
715.41	13.79
715.593	13.66
715.776	13.88
715.959	13.98
716.142	14.05
716.325	13.22
716.508	12.9
716.691	12.38
716.874	12.61
717.057	11.92
717.239	11.5
717.422	11.93
717.605	11.1
717.788	10.33
717.971	8.95
718.154	9.57
718.337	10.46
718.519	10.99
718.702	10.5
718.885	10.14
719.068	10.81
719.25	10.72
719.433	10.37
719.616	10.45
719.798	10.89
719.981	11.46
720.164	10.71
720.346	10.72
720.529	9.91
720.712	10.35
720.894	10.75
721.077	10.58
721.259	10.8
721.442	10.81
721.624	12.29
721.807	12.91
721.989	12.81
722.172	12.26
722.354	12.12
722.537	12.68
722.719	12.28
722.901	11.68
723.084	11.37
723.266	10.79
723.448	11.26
723.631	10.62
723.813	9.58
723.995	9.97
724.178	11.09
724.36	10.3
724.542	9.65
724.724	10.2
724.907	10.02
725.089	10.49
725.271	11.96
725.453	11.57
725.635	11.03
725.817	11.47
725.999	10.9
726.181	9.89
726.364	10.09
726.546	9.53
726.728	9.43
726.91	9.75
727.092	9.74
727.274	8.6
727.456	8.06
727.638	6.37
727.819	6.94
728.001	7.89
728.183	8.38
728.365	8.7
728.547	10.46
728.729	10.73
728.911	10.85
729.093	9.8
729.274	10.6
729.456	11.77
729.638	13.52
729.82	13.72
730.001	14.04
730.183	14.79
730.365	14.7
730.546	13.74
730.728	13.95
730.91	14.5
731.091	15.13
731.273	14.33
731.455	14.78
731.636	14.51
731.818	13.34
731.999	12.75
732.181	12.29
732.362	12.37
732.544	12.23
732.725	11.59
732.907	10.57
733.088	10.96
733.27	10.91
733.451	10.65
733.633	11.47
733.814	11.36
733.995	11.11
734.177	10.85
734.358	11.05
734.539	11.02
734.721	10.58
734.902	10.52
735.083	10.46
735.264	10.47
735.446	10.86
735.627	9.91
735.808	11.23
735.989	11.88
736.17	12.26
736.351	12.41
736.533	13.24
736.714	14.24
736.895	14.98
737.076	14.81
737.257	14.91
737.438	13.86
737.619	14.07
737.8	13.25
737.981	13.48
738.162	12.91
738.343	12.13
738.524	11.3
738.705	11.27
738.886	9.82
739.067	10.53
739.247	10.76
739.428	10.26
739.609	10.05
739.79	9.4
739.971	8.4
740.151	8.58
740.332	8.85
740.513	8.52
740.694	7.99
740.874	10.08
741.055	9.13
741.236	8.71
741.417	8.78
741.597	7.36
741.778	8.04
741.958	9.06
742.139	9.04
742.32	7.61
742.5	8.36
742.681	8.77
742.861	7.64
743.042	8.13
743.222	8.18
743.403	8.28
743.583	10.26
743.764	10.65
743.944	9.34
744.124	7.76
744.305	10.11
744.485	10.91
744.666	11.58
744.846	11.28
745.026	10.96
745.207	11.62
745.387	11.73
745.567	12.43
745.747	14.31
745.928	14.46
746.108	16.16
746.288	16.25
746.468	15.82
746.648	15.12
746.829	15.97
747.009	16.21
747.189	15.24
747.369	14.91
747.549	14.6
747.729	13.29
747.909	14.31
748.089	13.04
748.269	13.66
748.449	12.56
748.629	12.47
748.809	12.88
748.989	13.99
749.169	14.13
749.349	14.83
749.529	14.82
749.709	13.56
749.889	12.55
750.068	13.56
750.248	11.81
750.428	14.02
750.608	12.72
750.788	11.94
750.967	11.41
751.147	12.32
751.327	12.26
751.507	10.92
751.686	10.79
751.866	11.13
752.046	10.37
752.225	11.43
752.405	8.91
752.585	10.06
752.764	10.87
752.944	10.14
753.123	9.43
753.303	9.21
753.482	10.72
753.662	11.07
753.841	11.78
754.021	12.87
754.2	12.62
754.38	12.54
754.559	12.24
754.739	11.77
754.918	11.75
755.097	11.64
755.277	11.95
755.456	11.91
755.635	11.88
755.815	11.07
755.994	11.69
756.173	11.52
756.352	12.36
756.532	12.34
756.711	12.79
756.89	12.14
757.069	12.26
757.248	12.76
757.427	12.47
757.607	14.23
757.786	14.15
757.965	14.15
758.144	14.87
758.323	15.38
758.502	16.32
758.681	14.99
758.86	15.6
759.039	16.06
759.218	15.68
759.397	15.78
759.576	14.16
759.755	15.45
759.934	15.18
760.113	15.75
760.291	15.74
760.47	14.4
760.649	15.87
760.828	16.5
761.007	15.95
761.186	15.84
761.364	16.01
761.543	15.86
761.722	15.7
761.901	16
762.079	14.88
762.258	14.24
762.437	15.02
762.615	13.36
762.794	13.62
762.972	13.52
763.151	12.89
763.33	12.35
763.508	12.58
763.687	12.11
763.865	11.62
764.044	12.43
764.222	12.66
764.401	13.12
764.579	13.5
764.758	12.83
764.936	13
765.114	13.4
765.293	13.4
765.471	13.19
765.65	13.69
765.828	13.12
766.006	12.35
766.184	11.93
766.363	11.04
766.541	11.48
766.719	11.94
766.898	12.83
767.076	13.16
767.254	13.16
767.432	13.49
767.61	13.83
767.788	14.55
767.967	14.16
768.145	15.17
768.323	14.75
768.501	15.31
768.679	15.03
768.857	15.56
769.035	14.57
769.213	14.87
769.391	15.4
769.569	14.63
769.747	13.01
769.925	12.41
770.103	11.91
770.281	11.17
770.459	9.28
770.636	8.87
770.814	7.41
770.992	8.71
771.17	9.04
771.348	7.24
771.525	7.65
771.703	10.76
771.881	11.49
772.059	11.05
772.236	12.77
772.414	12.71
772.592	13.44
772.769	11.77
772.947	12.97
773.125	12.69
773.302	14.78
773.48	13.71
773.657	11.9
773.835	13.44
774.013	14.74
774.19	16.91
774.368	18.27
774.545	16.06
774.723	19.19
774.9	16.65
775.077	17.7
775.255	17.03
775.432	16.1
775.61	18.02
775.787	16.18
775.964	14.98
776.142	13.09
776.319	14.48
776.496	16.78
776.674	14.54
776.851	15.01
777.028	14.09
777.205	13.54
777.382	16.06
777.56	13.93
777.737	13.58
777.914	13.18
778.091	12.93
778.268	12.23
778.445	12.32
778.622	14.26
778.8	14.07
778.977	14.13
779.154	16.71
779.331	17.1
779.508	17.85
779.685	18.95
779.862	21.1
780.038	21.3
780.215	21.42
780.392	19.72
780.569	19.4
780.746	19.63
780.923	19.02
781.1	16.11
781.277	14.6
781.453	13.56
781.63	14.08
781.807	12.62
781.984	13.9
782.16	14.64
782.337	14.63
782.514	12.94
782.691	13.13
782.867	12.93
783.044	13.07
783.221	12.03
783.397	13.9
783.574	15.71
783.75	17.23
783.927	15.79
784.103	15.84
784.28	17.6
784.456	17.38
784.633	16.45
784.809	19.62
784.986	20.3
785.162	21.02
785.339	19.7
785.515	15.17
785.692	11.55
785.868	13.91
786.044	10.56
786.221	9.12
786.397	10.87
786.573	12.28
786.749	8.52
786.926	9.01
787.102	7.86
787.278	7.82
787.454	9.18
787.631	12.56
787.807	11.52
787.983	11.03
788.159	10.13
788.335	10.44
788.511	9.86
788.687	12.04
788.863	11.37
789.039	13.02
789.216	12.4
789.392	13.42
789.568	16.06
789.744	16.57
789.919	17.95
790.095	18.91
790.271	17.11
790.447	19.11
790.623	18.28
790.799	17.21
790.975	15.71
791.151	18.03
791.327	19.76
791.502	16.85
791.678	15.31
791.854	16.61
792.03	18.41
792.205	19.64
792.381	20.5
792.557	20.28
792.733	19.81
792.908	18.35
793.084	19.92
793.259	16.7
793.435	15.65
793.611	13.39
793.786	15.09
793.962	14.71
794.137	14.89
794.313	10.93
794.488	10.63
794.664	12.04
794.839	15.27
795.015	12.72
795.19	13.31
795.366	12.17
795.541	14.15
795.716	11.61
795.892	11.01
796.067	8.46
796.242	11.08
796.418	10.17
796.593	9.37
796.768	10.09
796.944	11.35
797.119	12.67
797.294	12.06
797.469	11.06
797.644	9.67
797.82	9.39
797.995	11.29
798.17	7.99
798.345	8.36
798.52	10.38
798.695	7.53
798.87	6.67
799.045	6.2
799.22	8.36
799.395	12.4
799.57	14.38
799.745	14.35
799.92	14.28
800.095	18
800.27	19.35
800.445	16.78
800.62	19.21
800.795	17.4
800.97	15.22
801.145	14.64
801.319	9.36
801.494	10.12
801.669	11.14
801.844	10.17
802.018	6.41
802.193	6.01
802.368	6.87
802.543	3.77
802.717	6.2
802.892	8.24
803.067	11.86
803.241	13.13
803.416	9.16
803.59	4.77
803.765	3.74
803.94	2.72
804.114	4
804.289	3.67
804.463	5.09
804.638	3.2
804.812	2.12
804.986	-4.29
805.161	-5.08
805.335	1.38
805.51	6.45
805.684	5.94
805.858	9.18
806.033	9.85
806.207	11.8
806.381	13.79
806.556	11.37
806.73	11.13
806.904	11.91
807.078	10.89
807.253	9.4
807.427	5.89
807.601	7.44
807.775	5.69
807.949	4.09
808.123	1.1
808.298	-1.67
808.472	-0.89
808.646	-0.84
808.82	-0.45
808.994	1.27
809.168	0.93
809.342	2.81
809.516	5.46
809.69	7.04
809.864	8.77
810.038	9.01
810.212	9.12
810.385	11.67
810.559	11.49
810.733	11.21
810.907	10.17
811.081	8.33
811.255	9.17
811.428	5.81
811.602	5.93
811.776	4.38
811.95	8.07
812.123	9.31
812.297	9.86
812.471	9.76
812.644	13.08
812.818	14.42
812.992	18.4
813.165	17.17
813.339	23.27
813.512	20.28
813.686	19.76
813.86	19.73
814.033	18.46
814.207	16.31
814.38	15.49
814.554	15.45
814.727	14.98
814.9	13.39
815.074	16.59
815.247	13.22
815.421	16.2
815.594	18.21
815.767	14.39
815.941	13.6
816.114	15.36
816.287	19.2
816.46	18.68
816.634	17.85
816.807	17.19
816.98	12.42
817.153	13.95
817.327	18.78
817.5	20.37
817.673	20.06
817.846	23.95
818.019	23.34
818.192	22.7
818.365	18.53
818.538	17.54
818.711	16.79
818.884	19.01
819.057	15.88
819.23	12.53
819.403	10.21
819.576	10.82
819.749	11.81
819.922	14.33
820.095	15.2
820.268	16.05
820.441	17.36
820.614	17.44
820.786	18.83
820.959	18.79
821.132	17.17
821.305	15.19
821.477	17.2
821.65	15.19
821.823	15.42
821.996	13.71
822.168	13.54
822.341	13.84
822.514	13.78
822.686	13.08
822.859	13.65
823.031	13.79
823.204	14.75
823.376	14.17
823.549	13.7
823.722	12.69
823.894	13.34
824.067	13.73
824.239	12.9
824.411	13.12
824.584	13.12
824.756	12.52
824.929	12.51
825.101	11.8
825.273	13.29
825.446	14.09
825.618	14.47
825.79	13.96
825.963	14.18
826.135	15.28
826.307	15.3
826.479	15.85
826.652	16.6
826.824	16.68
826.996	15.39
827.168	12.93
827.34	12.78
827.512	13.45
827.684	13.4
827.856	14.36
828.029	14.72
828.201	12.16
828.373	11.76
828.545	12.07
828.717	12.64
828.889	13.34
829.061	14.9
829.232	13.77
829.404	13.73
829.576	14.48
829.748	14.66
829.92	11.75
830.092	14.75
830.264	15.02
830.436	14.28
830.607	14.11
830.779	14.06
830.951	14.03
831.123	15.28
831.294	13.62
831.466	15.36
831.638	12.68
831.809	12.08
831.981	11.67
832.153	8.75
832.324	2.45
832.496	-0.6
832.667	0.16
832.839	-3.14
833.011	1.34
833.182	0.57
833.354	1.38
833.525	1.99
833.697	4.07
833.868	6.24
834.039	8.43
834.211	12.95
834.382	11.4
834.554	12.56
834.725	14.46
834.896	14.42
835.068	16.29
835.239	14.58
835.41	13.65
835.581	14.56
835.753	13.17
835.924	11.62
836.095	9.32
836.266	12.71
836.438	13.96
836.609	14.82
836.78	12.53
836.951	11.13
837.122	9.54
837.293	8.02
837.464	8.66
837.635	11.37
837.806	12.69
837.977	16.85
838.148	14.35
838.319	14.06
838.49	10.82
838.661	16.12
838.832	18.76
839.003	21.86
839.174	29.47
839.345	26.19
839.516	18.68
839.687	19.48
839.857	18.5
840.028	17.89
840.199	14.56
840.37	13.99
840.54	9.94
840.711	10.17
840.882	6.35
841.053	8.04
841.223	10.75
841.394	13.79
841.564	14.57
841.735	12.6
841.906	17.61
842.076	22.11
842.247	21.64
842.417	15.97
842.588	17
842.758	24.54
842.929	21.21
843.099	20.06
843.27	26.22
843.44	22.93
843.611	24.61
843.781	19.33
843.951	14.39
844.122	19.19
844.292	19.49
844.462	13.65
844.633	9.4
844.803	-1.52
844.973	8.37
845.144	5.79
845.314	2.17
845.484	0.01
845.654	6.66
845.824	6.34
845.995	-4.97
846.165	16.25
846.335	18.04
846.505	23.17
846.675	29.02
846.845	23.94
847.015	16.4
847.185	18.6
847.355	24.31
847.525	28.05
847.695	29.03
847.865	27.41
848.035	25.36
848.205	18.8
848.375	14.49
848.545	5.41
848.715	5.05
848.884	2.16
849.054	5.73
849.224	-6.14
849.394	0.01
849.564	15.44
849.733	24.56
849.903	16.54
850.073	27.34
850.243	41.55
850.412	44.84
850.582	32.36
850.752	29.2
850.921	15.38
851.091	24.93
851.26	0.72
851.43	-13.84
851.599	-15.19
851.769	0.75
851.939	12.61
852.108	3.83
852.278	12.61
852.447	19.05
852.616	24.52
852.786	40.04
852.955	34.74
853.125	41.03
853.294	41.38
853.463	39.58
853.633	21.14
853.802	16.5
853.971	14.09
854.141	10.44
854.31	15.56
854.479	18.3
854.648	21.88
854.818	19.9
854.987	19.75
855.156	24.83
855.325	26.31
855.494	24.01
855.663	19.84
855.832	21.76
856.001	25.55
856.171	27.5
856.34	26.8
856.509	22.59
856.678	31.78
856.847	26.97
857.016	9.19
857.185	11.44
857.353	20.52
857.522	37.67
857.691	15.09
857.86	-2.96
858.029	-4.8
858.198	-8.77
858.367	2.06
858.535	-10.23
858.704	-6.14
858.873	1.5
859.042	0.02
859.21	-3.14
859.379	-69.87
859.548	27.16
859.717	57.79
859.885	63.62
860.054	55.56
860.222	36.88
860.391	30.66
860.56	44.32
860.728	27.48
860.897	22.94
861.065	23.03
861.234	19.08
861.402	4.28
861.571	1.07
861.739	-0.49
861.908	10.34
862.076	17.44
862.244	19.02
862.413	1.58
862.581	12.88
862.749	19.28
862.918	10.57
863.086	20.49
863.254	22.07
863.423	18.3
863.591	13.63
863.759	17.03
863.927	3.16
864.096	-1.93
864.264	6.02
864.432	1.6
864.6	-18.92
864.768	4.91
864.936	9.87
865.104	11.21
865.272	21.49
865.44	32.57
865.608	45.05
865.776	45.46
865.944	61.08
866.112	68.64
866.28	64.79
866.448	51.27
866.616	55.37
866.784	38.42
866.952	45.57
867.12	32.78
867.288	17.91
867.455	-19.01
867.623	-24.2
867.791	-22.79
867.959	-26.95
868.127	-23.79
868.294	12.77
868.462	6.72
868.63	18.19
868.797	16.35
868.965	24.35
869.133	27.04
869.3	25.61
869.468	60.72
869.636	36.04
869.803	26.19
869.971	22.29
870.138	17.55
870.306	6.06
870.473	16.89
870.641	10.13
870.808	15.07
870.975	15.6
871.143	15.4
871.31	3.92
871.478	13.81
871.645	23.77
871.812	22.02
871.98	14.37
872.147	27.66
872.314	17.46
872.482	11.47
872.649	24.65
872.816	29.87
872.983	26.49
873.15	24.67
873.318	18.89
873.485	28.45
873.652	44.69
873.819	58.09
873.986	56.97
874.153	50.08
874.32	48.61
874.487	26.28
874.654	36.41
874.821	34.56
874.988	18.96
875.155	18.42
875.322	3.82
875.489	7.06
875.656	1.17
875.823	-6.86
875.99	-7.18
876.157	-11.75
876.324	1.1
876.49	-11.66
876.657	-16.7
876.824	-8.55
876.991	-14.53
877.157	-8.41
877.324	-8.14
877.491	-26.19
877.658	-6.88
877.824	-6.36
877.991	-5.35
878.157	5.03
878.324	19.46
878.491	53.66
878.657	60.32
878.824	66.48
878.99	72.04
879.157	69.77
879.323	73.35
879.49	47.88
879.656	49.75
879.823	47.56
879.989	38.22
880.156	20.72
880.322	12.52
880.488	0.49
880.655	4.84
880.821	13.88
880.987	2.37
881.154	4.53
881.32	2.12
881.486	0.3
881.652	0.9
881.819	13.87
881.985	16.61
882.151	12.32
882.317	11.68
882.483	12.54
882.649	9.01
882.816	8.14
882.982	7.89
883.148	9.56
883.314	14.78
883.48	12.58
883.646	8.38
883.812	9.23
883.978	15.28
884.144	17
884.31	17.64
884.476	19.86
884.642	20.35
884.807	19.98
884.973	20.71
885.139	16.13
885.305	18.7
885.471	21.88
885.637	21.75
885.802	22.63
885.968	22.42
886.134	19.57
886.3	16.79
886.465	17.37
886.631	18.85
886.797	16.63
886.962	21.13
887.128	21.73
887.293	17.7
887.459	14.55
887.625	10.77
887.79	11.93
887.956	16.66
888.121	22.16
888.287	23.06
888.452	20.9
888.618	22.78
888.783	23.33
