Data from 2938094_Reflection_2.txt Node
Date: Sat Jul 11 19:08:09 EDT 2015
User: robert
Spectrometer: USB4E03001
Autoset integration time: false
Trigger mode: 4
Integration Time (sec): 1.000000E-1
Scans to average: 10
Electric dark correction enabled: true
Nonlinearity correction enabled: false
Boxcar width: 5
Stray light correction enabled: false
XAxis mode: Wavelengths
Stop averaging: false
Number of Pixels in Spectrum: 3648
>>>>>Begin Spectral Data<<<<<
177.566	63.16
177.785	52.51
178.005	59.01
178.225	122.11
178.445	111.25
178.665	550
178.885	4.62
179.105	206.67
179.324	-207.41
179.544	108.33
179.764	34.04
179.984	60.54
180.204	34.92
180.423	13
180.643	-247.62
180.863	-68.47
181.083	-155.49
181.302	-55.56
181.522	-105.13
181.742	355.56
181.961	182.49
182.181	2550
182.401	1203.45
182.621	-328.28
182.84	760.38
183.06	860
183.279	-320.29
183.499	-42.11
183.719	-36.12
183.938	-30.08
184.158	-8.49
184.377	5.22
184.597	10.1
184.816	-15.78
185.036	-25.72
185.256	-29.98
185.475	-27.1
185.695	-36.17
185.914	-24.59
186.134	-15.34
186.353	10.47
186.572	0
186.792	11.51
187.011	25.5
187.231	54.44
187.45	72.97
187.67	91.36
187.889	88.63
188.108	99.53
188.328	95.12
188.547	80.5
188.766	64.83
188.986	63.06
189.205	58.13
189.424	53.59
189.644	34.86
189.863	13.93
190.082	12.89
190.302	-36.44
190.521	-60.89
190.74	-100.45
190.959	-463.93
191.178	-1261.54
191.398	-3371.43
191.617	-40
191.836	-32.35
192.055	54.59
192.274	125.68
192.494	59.37
192.713	114.78
192.932	159.85
193.151	121
193.37	54.11
193.589	-23.17
193.808	19.9
194.027	-472.73
194.246	-584.37
194.465	3987.5
194.685	-78.84
194.904	-153.23
195.123	-143.32
195.342	-1292.31
195.561	-181.06
195.78	-387.9
195.999	-191.12
196.218	-243.23
196.436	-196.01
196.655	-164.43
196.874	-82.04
197.093	-47.08
197.312	-27.04
197.531	-29.7
197.75	-12.67
197.969	-43.74
198.188	-38.05
198.407	0.99
198.625	22.38
198.844	48.49
199.063	53.84
199.282	61.39
199.501	50.21
199.719	45.83
199.938	59.64
200.157	40.99
200.376	78.3
200.594	73.51
200.813	40.65
201.032	27.05
201.251	14.15
201.469	-0.85
201.688	-28.12
201.907	-84.96
202.125	-21.43
202.344	-146.77
202.563	-314.16
202.781	-415.89
203	-377.88
203.218	-270.69
203.437	-206.67
203.656	-264.41
203.874	-500
204.093	45.12
204.311	80.85
204.53	1240
204.748	-312.5
204.967	262.16
205.185	1344
205.404	530.23
205.622	97.44
205.841	97.13
206.059	121.22
206.278	97.87
206.496	46.94
206.715	24.03
206.933	48.22
207.151	77.41
207.37	33.11
207.588	-87.57
207.806	31.08
208.025	44.3
208.243	344.44
208.461	37.68
208.68	-80.95
208.898	-31.15
209.116	-62.79
209.335	104.88
209.553	-145.83
209.771	6.71
209.989	209.66
210.208	278.47
210.426	-1829.41
210.644	635.71
210.862	236.84
211.081	-372.58
211.299	11300
211.517	-811.76
211.735	525.61
211.953	284.89
212.171	239.19
212.39	77.75
212.608	40.28
212.826	45.94
213.044	50.63
213.262	62.52
213.48	47.87
213.698	21.67
213.916	17.33
214.134	11.54
214.352	47.3
214.57	54.46
214.788	44.66
215.006	44.58
215.224	75.3
215.442	67.87
215.66	81
215.878	69.63
216.096	76.64
216.314	68.69
216.532	58.22
216.75	12.89
216.968	1.95
217.185	-18.21
217.403	-5.48
217.621	-46.76
217.839	-22.4
218.057	-78.6
218.275	-82.73
218.492	-12.33
218.71	8.58
218.928	9.54
219.146	12.62
219.363	33.92
219.581	23.71
219.799	-47.66
220.017	-40.14
220.234	-28.61
220.452	-10.12
220.67	17.68
220.887	27.75
221.105	21.23
221.323	19.06
221.54	22.82
221.758	-1.13
221.976	2.26
222.193	10.05
222.411	15.54
222.629	22.56
222.846	24.74
223.064	13.12
223.281	4.22
223.499	1.81
223.716	-16.39
223.934	-0.12
224.151	19.6
224.369	22.02
224.586	62.94
224.804	46.04
225.021	53.43
225.239	59.78
225.456	52.26
225.674	34.88
225.891	27.39
226.108	52
226.326	30.85
226.543	13.02
226.76	21.43
226.978	-1.07
227.195	16.93
227.413	7.21
227.63	-0.05
227.847	6.83
228.064	10.53
228.282	11.26
228.499	16.18
228.716	19.84
228.934	20.61
229.151	20.25
229.368	19.98
229.585	17.32
229.802	17.78
230.02	19.95
230.237	22.12
230.454	21.89
230.671	21.85
230.888	22.19
231.105	23.7
231.323	23.3
231.54	21.65
231.757	27.48
231.974	23.32
232.191	21.41
232.408	19.48
232.625	16.41
232.842	21.35
233.059	19.07
233.276	15.3
233.493	5.82
233.71	6.54
233.927	8.64
234.144	4.38
234.361	11.79
234.578	17.46
234.795	20.93
235.012	15.89
235.229	15.13
235.446	19.9
235.663	17.4
235.879	22.92
236.096	24.13
236.313	24.48
236.53	28.23
236.747	22.34
236.964	17.36
237.181	14.69
237.397	17.47
237.614	16.17
237.831	10.08
238.048	9.88
238.264	10.65
238.481	10.57
238.698	12.39
238.915	10.83
239.131	16
239.348	20.93
239.565	22.32
239.781	21.25
239.998	21.84
240.215	21.1
240.431	18.62
240.648	15.72
240.865	13.3
241.081	12.12
241.298	10.5
241.514	10.11
241.731	7.13
241.947	7.43
242.164	8.58
242.38	8.55
242.597	8.42
242.814	9.69
243.03	11.51
243.246	12.12
243.463	11.83
243.679	14.84
243.896	14.48
244.112	15.82
244.329	14.73
244.545	13.84
244.762	13.5
244.978	11.09
245.194	14.23
245.411	12.67
245.627	11.13
245.843	10.36
246.06	8.84
246.276	9.36
246.492	9.24
246.709	10.01
246.925	9.4
247.141	9.36
247.357	10.86
247.574	10.16
247.79	11.22
248.006	11.08
248.222	11.04
248.439	9.78
248.655	9.44
248.871	9.32
249.087	8.23
249.303	8.65
249.519	8.97
249.736	9.96
249.952	8.44
250.168	7.38
250.384	8.19
250.6	8.99
250.816	11.47
251.032	14.01
251.248	13.72
251.464	16.94
251.68	15.67
251.896	15.11
252.112	14.67
252.328	15.94
252.544	13.77
252.76	13.64
252.976	13.3
253.192	13.61
253.408	10.51
253.624	10.99
253.84	7.24
254.056	8.49
254.272	6.54
254.487	3.95
254.703	2.91
254.919	2.98
255.135	1.89
255.351	3.03
255.567	0.31
255.782	0.19
255.998	-1.94
256.214	1.71
256.43	0.08
256.646	2.23
256.861	3.23
257.077	2.85
257.293	4.23
257.508	6.78
257.724	7.55
257.94	8.6
258.155	10.91
258.371	11.6
258.587	11
258.802	12.16
259.018	11.67
259.234	11.63
259.449	11.72
259.665	10.39
259.88	9.71
260.096	9.26
260.312	8.67
260.527	8.33
260.743	8.24
260.958	9.21
261.174	8.71
261.389	8.92
261.605	8.47
261.82	8.83
262.036	10.64
262.251	11.03
262.466	10.94
262.682	12.02
262.897	11.97
263.113	10.4
263.328	7.94
263.543	8.61
263.759	9.8
263.974	11.08
264.189	10.21
264.405	9.04
264.62	7.69
264.835	8.28
265.051	8.37
265.266	8.35
265.481	11.15
265.696	11.3
265.912	11.85
266.127	9.97
266.342	10.27
266.557	9.63
266.773	8.7
266.988	9.56
267.203	9.83
267.418	10.01
267.633	9.34
267.848	9.47
268.064	7.8
268.279	6.16
268.494	5.84
268.709	7.25
268.924	7.06
269.139	7.22
269.354	7.37
269.569	6.48
269.784	4.16
269.999	5.62
270.214	6.47
270.429	7.43
270.644	8.05
270.859	7.37
271.074	5.31
271.289	5.18
271.504	5.68
271.719	5.35
271.934	6.28
272.149	7.74
272.363	8.47
272.578	7.18
272.793	8.16
273.008	9.75
273.223	9.71
273.438	10.84
273.653	11.24
273.867	11.83
274.082	11.8
274.297	11.39
274.512	10.7
274.726	9.33
274.941	9.55
275.156	9.64
275.371	7.45
275.585	8.54
275.8	5.72
276.015	5.58
276.229	4.17
276.444	5.37
276.659	6.6
276.873	8.17
277.088	7.87
277.302	8.39
277.517	8.85
277.732	10.89
277.946	10.95
278.161	12.94
278.375	12.77
278.59	14.55
278.804	14.34
279.019	14.25
279.233	12.97
279.448	13.42
279.662	10.4
279.877	8.82
280.091	6.11
280.306	5.3
280.52	5.02
280.735	5.26
280.949	5.33
281.163	5.12
281.378	4.3
281.592	5.65
281.806	5.88
282.021	6.74
282.235	7.67
282.449	8.56
282.664	9.12
282.878	9.91
283.092	9.36
283.307	8.06
283.521	7.97
283.735	7.43
283.949	6.09
284.164	7.15
284.378	8.24
284.592	7.32
284.806	8.13
285.02	8.62
285.234	6.82
285.449	7.96
285.663	7.45
285.877	7.49
286.091	8.17
286.305	8.67
286.519	6.77
286.733	7.89
286.947	7.67
287.161	6.89
287.375	5.97
287.589	7.3
287.803	5.6
288.017	6.5
288.231	8.11
288.445	6.59
288.659	7.49
288.873	9.73
289.087	9.45
289.301	9.95
289.515	9.62
289.729	9.88
289.943	8.38
290.157	9.69
290.371	8.92
290.584	7.43
290.798	8.68
291.012	8.36
291.226	8.41
291.44	5.54
291.654	7.14
291.867	7.96
292.081	8.59
292.295	9.36
292.509	7.66
292.722	9.6
292.936	9.55
293.15	8.85
293.364	6.72
293.577	4.89
293.791	5.37
294.005	5.11
294.218	5.33
294.432	3.12
294.645	5.23
294.859	6.8
295.073	5.45
295.286	5.36
295.5	6.64
295.713	7.97
295.927	8.94
296.14	9.53
296.354	9.5
296.568	9.22
296.781	10.49
296.994	9.98
297.208	10.07
297.421	10.07
297.635	10.23
297.848	9.08
298.062	9.59
298.275	8.56
298.489	9.15
298.702	7.62
298.915	6.82
299.129	6.54
299.342	5.98
299.555	5.93
299.769	6.46
299.982	5.56
300.195	5.05
300.409	5.21
300.622	4.41
300.835	5
301.048	7.54
301.262	7.89
301.475	8.39
301.688	8.31
301.901	6.96
302.115	7.43
302.328	7.94
302.541	9.32
302.754	10.63
302.967	11.95
303.18	10.94
303.393	9.27
303.607	10.35
303.82	10.87
304.033	9.97
304.246	10.82
304.459	8.23
304.672	9.16
304.885	9.95
305.098	9.15
305.311	9.4
305.524	9.04
305.737	10.48
305.95	11.49
306.163	9.72
306.376	8.64
306.589	7.98
306.802	10.16
307.015	9.93
307.228	8.91
307.44	7.65
307.653	7.6
307.866	8.69
308.079	8.74
308.292	6.85
308.505	7.38
308.718	9.35
308.93	9.57
309.143	8.93
309.356	9.32
309.569	9.96
309.781	10.45
309.994	10.91
310.207	10.7
310.42	10.59
310.632	10.26
310.845	10.83
311.058	11.7
311.27	13.12
311.483	13.37
311.696	12.76
311.908	12.89
312.121	13.06
312.333	13.71
312.546	14.75
312.759	14.39
312.971	15.36
313.184	14.83
313.396	12.98
313.609	11.39
313.821	12.2
314.034	12.1
314.246	12.04
314.459	10.54
314.671	10.28
314.884	8.34
315.096	8.26
315.309	7.64
315.521	7.72
315.733	9.01
315.946	8.3
316.158	8.22
316.371	9.24
316.583	6.8
316.795	7.93
317.008	8.65
317.22	10.24
317.432	10.19
317.644	8.5
317.857	8.3
318.069	8.21
318.281	9.07
318.494	7.35
318.706	8.41
318.918	10.31
319.13	9.53
319.342	7.04
319.555	7.48
319.767	9.1
319.979	9.78
320.191	10.25
320.403	9.08
320.615	10.62
320.827	11.12
321.039	10.59
321.252	9.78
321.464	9.33
321.676	9.82
321.888	9.61
322.1	8.51
322.312	8.63
322.524	8.81
322.736	10.07
322.948	9.22
323.16	9.29
323.372	10.68
323.584	11.45
323.796	11.1
324.007	11.09
324.219	9.31
324.431	9.57
324.643	10.92
324.855	11.16
325.067	10.06
325.279	9.54
325.491	9.91
325.702	7.72
325.914	7.54
326.126	7.62
326.338	6.9
326.55	7.24
326.761	6.02
326.973	5.84
327.185	4.86
327.396	5.35
327.608	4.89
327.82	4.13
328.032	2.93
328.243	4.36
328.455	6.31
328.666	8.01
328.878	8.83
329.09	9.02
329.301	8.28
329.513	8.85
329.725	8.3
329.936	10.88
330.148	12.04
330.359	14.29
330.571	13.06
330.782	11.35
330.994	9.94
331.205	11.33
331.417	11.15
331.628	11.81
331.84	11.82
332.051	13.15
332.262	11.97
332.474	12.09
332.685	10.91
332.897	10.57
333.108	12.29
333.319	13.71
333.531	11.81
333.742	11.73
333.953	11.69
334.165	12.17
334.376	10.99
334.587	10.6
334.799	10.88
335.01	11.73
335.221	12.86
335.432	11.68
335.644	10.91
335.855	12.01
336.066	12.08
336.277	12.65
336.488	13.85
336.7	16.16
336.911	17.53
337.122	16.1
337.333	16.36
337.544	14.87
337.755	13.73
337.966	14.91
338.177	15.8
338.388	15.74
338.599	14.82
338.811	13.35
339.022	12.25
339.233	10.41
339.444	10.56
339.655	9.82
339.866	9.88
340.076	12.35
340.287	11.13
340.498	9.76
340.709	10.93
340.92	11.11
341.131	9.92
341.342	9.63
341.553	10.2
341.764	10.12
341.975	10.45
342.185	11.27
342.396	10.7
342.607	10.37
342.818	10.71
343.029	10.12
343.239	10.68
343.45	12.55
343.661	11.61
343.872	10.63
344.082	11.9
344.293	10.65
344.504	9.26
344.714	8.18
344.925	7.81
345.136	8.65
345.346	7.82
345.557	6.55
345.768	5.33
345.978	5.3
346.189	5.42
346.399	5.54
346.61	7.12
346.821	8.66
347.031	9.28
347.242	10.96
347.452	10.93
347.663	12.21
347.873	13.99
348.084	14.69
348.294	15.53
348.504	15.43
348.715	15.89
348.925	14.28
349.136	13.09
349.346	12.76
349.557	12.07
349.767	9.89
349.977	9.96
350.188	7.86
350.398	8.27
350.608	7.94
350.819	9.76
351.029	7.9
351.239	9.05
351.449	10.67
351.66	11.23
351.87	10.75
352.08	11.68
352.29	11.73
352.501	11.71
352.711	11.53
352.921	11.09
353.131	10.6
353.341	10.46
353.552	10.48
353.762	9.94
353.972	9.51
354.182	10.06
354.392	10.85
354.602	10.87
354.812	12.4
355.022	12.67
355.232	12.92
355.442	12.34
355.652	11.81
355.862	11.64
356.072	11.71
356.282	11.95
356.492	9.72
356.702	8.26
356.912	7.3
357.122	6.32
357.332	6.05
357.542	6.91
357.752	6.28
357.962	7.09
358.171	6.61
358.381	6
358.591	5.73
358.801	6.54
359.011	7.53
359.221	7.48
359.43	8.03
359.64	7.64
359.85	7.23
360.06	7.58
360.269	7.68
360.479	7.89
360.689	7.25
360.899	7.56
361.108	7.47
361.318	7.64
361.528	8.43
361.737	7.67
361.947	8.04
362.156	8.76
362.366	9.14
362.576	8.65
362.785	8.75
362.995	9.76
363.204	10.79
363.414	11.35
363.623	10.45
363.833	9.99
364.042	10.38
364.252	9.57
364.461	8.45
364.671	7.96
364.88	8.35
365.09	8.38
365.299	8.27
365.509	6.23
365.718	5.45
365.927	6.61
366.137	7.19
366.346	7.24
366.555	7.77
366.765	7.23
366.974	7.12
367.183	7.13
367.393	7.13
367.602	6.74
367.811	7.3
368.021	7.73
368.23	6.54
368.439	5.76
368.648	6.07
368.857	6.32
369.067	6.8
369.276	6.69
369.485	6.85
369.694	6.76
369.903	7.11
370.112	7.44
370.321	7.85
370.531	8.25
370.74	8.67
370.949	8.52
371.158	8.14
371.367	8.22
371.576	9.32
371.785	9.38
371.994	9.12
372.203	9.29
372.412	8.89
372.621	8.62
372.83	8.46
373.039	8.35
373.248	8.77
373.457	8.79
373.666	8.49
373.874	7.15
374.083	6.75
374.292	7.46
374.501	7.27
374.71	7.05
374.919	7.46
375.128	7.58
375.336	7.6
375.545	7.21
375.754	7.05
375.963	7.73
376.171	8.41
376.38	8.39
376.589	8.05
376.798	7.72
377.006	8.39
377.215	8.06
377.424	8.05
377.632	8.14
377.841	7.97
378.05	8.18
378.258	7.83
378.467	7.28
378.675	7.94
378.884	7.82
379.093	7.51
379.301	7.2
379.51	7.17
379.718	7.45
379.927	6.5
380.135	6.04
380.344	5.68
380.552	6.1
380.761	6.21
380.969	5.07
381.177	5.47
381.386	6.25
381.594	6.15
381.803	6.24
382.011	5.74
382.219	6.38
382.428	6.48
382.636	6.4
382.845	6.3
383.053	6.04
383.261	6.01
383.469	5.54
383.678	4.85
383.886	4.72
384.094	3.63
384.302	3.78
384.511	4.12
384.719	4.27
384.927	4.49
385.135	4.19
385.343	4.06
385.552	4.25
385.76	4.39
385.968	4.68
386.176	4.45
386.384	5.32
386.592	5.21
386.8	4.89
387.008	5.2
387.216	4.86
387.424	4.69
387.633	5.15
387.841	5.11
388.049	5.06
388.257	4.83
388.465	5.31
388.672	5.12
388.88	5.25
389.088	5.15
389.296	4.55
389.504	4.89
389.712	5.05
389.92	4.69
390.128	4.8
390.336	4.97
390.544	5.19
390.751	4.96
390.959	4.88
391.167	4.66
391.375	4.66
391.583	4.67
391.79	4.71
391.998	4.42
392.206	4.25
392.414	4.02
392.621	3.58
392.829	3.44
393.037	3.75
393.244	3.75
393.452	3.71
393.66	3.63
393.867	3.75
394.075	3.4
394.283	3.59
394.49	3.65
394.698	3.57
394.905	3.82
395.113	3.75
395.32	3.37
395.528	3.21
395.735	3.44
395.943	3.37
396.15	3.34
396.358	3.26
396.565	3.14
396.773	3.26
396.98	3.71
397.188	3.61
397.395	3.44
397.602	3.4
397.81	3.73
398.017	3.6
398.225	3.37
398.432	3.66
398.639	4.05
398.847	4.73
399.054	4.44
399.261	4.06
399.468	4.09
399.676	4.19
399.883	4.32
400.09	4.04
400.297	3.7
400.505	3.93
400.712	3.44
400.919	3.41
401.126	2.66
401.333	2.4
401.54	2.16
401.748	2.21
401.955	1.93
402.162	1.77
402.369	1.69
402.576	1.97
402.783	1.86
402.99	2.13
403.197	1.8
403.404	2.02
403.611	2.51
403.818	2.95
404.025	2.75
404.232	3.05
404.439	3.28
404.646	3.33
404.853	3.28
405.06	3.3
405.267	2.93
405.474	3.11
405.681	2.92
405.887	2.68
406.094	2.65
406.301	2.66
406.508	3
406.715	2.64
406.922	2.65
407.128	2.57
407.335	2.32
407.542	2.86
407.749	3.07
407.955	2.73
408.162	3.03
408.369	2.77
408.575	2.6
408.782	2.27
408.989	2.48
409.195	2.61
409.402	2.72
409.609	3.09
409.815	2.72
410.022	2.25
410.228	2.66
410.435	2.57
410.642	2.87
410.848	3.35
411.055	3.37
411.261	3.42
411.468	3.54
411.674	3.41
411.881	3.16
412.087	3.04
412.294	3.25
412.5	3.33
412.706	3.43
412.913	3.29
413.119	2.92
413.326	2.92
413.532	2.91
413.738	2.77
413.945	3.13
414.151	3.44
414.357	3.75
414.564	3.49
414.77	3.2
414.976	3.14
415.182	3.01
415.389	3.16
415.595	3.29
415.801	3.07
416.007	3.08
416.214	2.81
416.42	2.66
416.626	2.57
416.832	2.75
417.038	3.06
417.244	3.04
417.45	2.85
417.657	2.72
417.863	2.59
418.069	2.65
418.275	2.56
418.481	2.68
418.687	2.77
418.893	2.63
419.099	2.59
419.305	2.46
419.511	2.42
419.717	2.52
419.923	2.49
420.129	2.38
420.335	2.43
420.541	2.45
420.746	2.34
420.952	2.26
421.158	2.22
421.364	2.16
421.57	2.17
421.776	2.09
421.982	2.12
422.187	2.22
422.393	2.31
422.599	2.23
422.805	2.08
423.01	2.18
423.216	2.13
423.422	2.27
423.628	2.3
423.833	2.29
424.039	2.4
424.245	2.3
424.45	2.29
424.656	2.08
424.862	2.02
425.067	2.14
425.273	2.07
425.478	2.21
425.684	2.2
425.889	2.23
426.095	2.14
426.301	2.11
426.506	2.16
426.712	2.09
426.917	2.29
427.123	2.25
427.328	2.45
427.533	2.43
427.739	2.13
427.944	2.08
428.15	2.08
428.355	2.04
428.561	1.98
428.766	2.15
428.971	2.38
429.177	2.44
429.382	2.63
429.587	2.59
429.793	2.58
429.998	2.92
430.203	3.18
430.408	2.97
430.614	2.84
430.819	2.86
431.024	3.01
431.229	2.64
431.434	2.39
431.64	2.1
431.845	1.95
432.05	2.13
432.255	1.98
432.46	1.71
432.665	1.95
432.87	2.22
433.076	2.25
433.281	2.03
433.486	2.07
433.691	2.21
433.896	2.31
434.101	2.36
434.306	2.34
434.511	2.34
434.716	2.42
434.921	2.4
435.126	2.48
435.331	2.27
435.535	2.52
435.74	2.56
435.945	2.64
436.15	2.77
436.355	2.72
436.56	2.35
436.765	2.34
436.97	2.36
437.174	2.37
437.379	2.2
437.584	2.52
437.789	2.28
437.993	2.1
438.198	2.17
438.403	2.12
438.608	2.1
438.812	2.39
439.017	2.35
439.222	2.31
439.426	2.09
439.631	2.06
439.836	2.11
440.04	2.19
440.245	2.33
440.45	2.14
440.654	2.14
440.859	2.27
441.063	2.33
441.268	2.48
441.472	2.46
441.677	2.74
441.881	2.84
442.086	2.81
442.29	2.75
442.495	2.93
442.699	3.08
442.904	3.2
443.108	3.22
443.312	3.17
443.517	3.09
443.721	3.21
443.925	3.13
444.13	3.04
444.334	2.71
444.538	2.79
444.743	2.53
444.947	2.71
445.151	2.65
445.356	2.53
445.56	2.56
445.764	2.47
445.968	2.4
446.173	2.21
446.377	2.17
446.581	2.27
446.785	2.3
446.989	2.22
447.193	2.04
447.398	1.91
447.602	1.88
447.806	1.79
448.01	1.93
448.214	1.79
448.418	1.91
448.622	2.03
448.826	2.09
449.03	2.11
449.234	2.22
449.438	2.12
449.642	2.18
449.846	2.13
450.05	2.05
450.254	1.9
450.458	2.05
450.662	2.06
450.866	1.95
451.069	1.84
451.273	1.7
451.477	1.8
451.681	1.8
451.885	1.95
452.089	1.97
452.292	2.1
452.496	2.1
452.7	2.07
452.904	2.09
453.107	2.23
453.311	2.34
453.515	2.23
453.719	2.11
453.922	2.22
454.126	2.17
454.33	2.12
454.533	2.11
454.737	2.1
454.94	2.24
455.144	2.25
455.348	2.28
455.551	2.2
455.755	2.5
455.958	2.71
456.162	2.64
456.365	2.67
456.569	2.67
456.772	2.55
456.976	2.54
457.179	2.42
457.383	2.29
457.586	2.13
457.79	2.16
457.993	1.85
458.196	1.78
458.4	1.8
458.603	1.85
458.807	2.01
459.01	2.03
459.213	2.09
459.417	2.1
459.62	2.15
459.823	2.07
460.026	2.08
460.23	2.22
460.433	2.28
460.636	2.35
460.839	2.27
461.042	2.18
461.246	2.16
461.449	2.04
461.652	1.96
461.855	2.02
462.058	2.07
462.261	2.15
462.464	2.13
462.668	2.15
462.871	2.18
463.074	2.26
463.277	2.28
463.48	2.23
463.683	2.28
463.886	2.35
464.089	2.39
464.292	2.36
464.495	2.32
464.698	2.45
464.901	2.27
465.104	2.19
465.306	2.21
465.509	2.24
465.712	2.19
465.915	2.49
466.118	2.56
466.321	2.45
466.524	2.54
466.726	2.45
466.929	2.17
467.132	2.24
467.335	2.17
467.538	1.97
467.74	2.01
467.943	2.09
468.146	1.87
468.348	1.75
468.551	1.7
468.754	1.9
468.956	1.96
469.159	2.1
469.362	2
469.564	1.95
469.767	2.04
469.969	2.04
470.172	2.1
470.375	2.06
470.577	2.17
470.78	2.1
470.982	1.91
471.185	1.85
471.387	1.98
471.59	2.08
471.792	2.18
471.995	2.33
472.197	2.32
472.399	2.43
472.602	2.47
472.804	2.46
473.007	2.64
473.209	2.59
473.411	2.65
473.614	2.62
473.816	2.6
474.018	2.49
474.22	2.42
474.423	2.16
474.625	2.01
474.827	2.12
475.03	2.06
475.232	1.89
475.434	2.11
475.636	2.17
475.838	2.16
476.04	2.28
476.243	2.45
476.445	2.44
476.647	2.52
476.849	2.52
477.051	2.51
477.253	2.5
477.455	2.6
477.657	2.46
477.859	2.26
478.061	2.25
478.263	2.05
478.465	2.09
478.667	2.14
478.869	2.29
479.071	2.28
479.273	2.3
479.475	2.29
479.677	2.27
479.879	2.43
480.081	2.57
480.283	2.46
480.485	2.55
480.686	2.35
480.888	2.19
481.09	2.19
481.292	2.33
481.494	2.26
481.695	2.37
481.897	2.39
482.099	2.3
482.301	2.34
482.502	2.3
482.704	2.32
482.906	2.34
483.107	2.4
483.309	2.32
483.511	2.26
483.712	2.24
483.914	2.21
484.115	2.27
484.317	2.27
484.519	2.26
484.72	2.26
484.922	2.27
485.123	2.3
485.325	2.35
485.526	2.39
485.728	2.42
485.929	2.42
486.131	2.43
486.332	2.35
486.534	2.29
486.735	2.28
486.936	2.33
487.138	2.25
487.339	2.28
487.541	2.17
487.742	2.22
487.943	2.19
488.144	2.21
488.346	2.2
488.547	2.15
488.748	2.18
488.95	2.26
489.151	2.24
489.352	2.28
489.553	2.25
489.755	2.37
489.956	2.35
490.157	2.42
490.358	2.37
490.559	2.36
490.76	2.38
490.961	2.4
491.163	2.29
491.364	2.33
491.565	2.3
491.766	2.2
491.967	2.18
492.168	2.09
492.369	2.09
492.57	2.18
492.771	2.22
492.972	2.16
493.173	2.21
493.374	2.16
493.575	2.12
493.776	2.23
493.976	2.36
494.177	2.4
494.378	2.48
494.579	2.35
494.78	2.18
494.981	2.13
495.182	2.23
495.382	2.34
495.583	2.4
495.784	2.38
495.985	2.18
496.185	2.09
496.386	1.95
496.587	1.91
496.788	1.96
496.988	2.01
497.189	2.03
497.39	2.04
497.59	1.89
497.791	2.01
497.992	1.94
498.192	2.04
498.393	2.02
498.593	2.13
498.794	2.15
498.994	2.22
499.195	2.16
499.395	2.05
499.596	1.96
499.796	1.96
499.997	1.84
500.197	2.06
500.398	1.93
500.598	1.89
500.799	1.9
500.999	1.95
501.199	1.9
501.4	2.11
501.6	2.17
501.801	2.22
502.001	2.12
502.201	2.13
502.402	1.99
502.602	2.1
502.802	2.24
503.002	2.19
503.203	2.24
503.403	2.4
503.603	2.46
503.803	2.6
504.003	2.57
504.204	2.77
504.404	2.91
504.604	2.85
504.804	2.76
505.004	2.79
505.204	2.75
505.404	2.61
505.604	2.47
505.804	2.4
506.005	2.28
506.205	2.44
506.405	2.35
506.605	2.28
506.805	2.39
507.005	2.5
507.204	2.38
507.404	2.4
507.604	2.43
507.804	2.55
508.004	2.49
508.204	2.57
508.404	2.53
508.604	2.54
508.804	2.48
509.003	2.44
509.203	2.44
509.403	2.62
509.603	2.62
509.803	2.67
510.002	2.62
510.202	2.66
510.402	2.6
510.602	2.52
510.801	2.44
511.001	2.42
511.201	2.41
511.4	2.48
511.6	2.38
511.8	2.45
511.999	2.46
512.199	2.43
512.398	2.38
512.598	2.52
512.797	2.61
512.997	2.6
513.197	2.77
513.396	2.91
513.596	2.78
513.795	2.97
513.994	2.95
514.194	3.07
514.393	3.11
514.593	3.17
514.792	3.08
514.992	3
515.191	3.27
515.39	3.29
515.59	3.3
515.789	3.34
515.988	3.26
516.188	3.16
516.387	3.05
516.586	2.93
516.786	2.81
516.985	2.85
517.184	2.94
517.383	2.71
517.582	2.6
517.782	2.57
517.981	2.63
518.18	2.56
518.379	2.61
518.578	2.67
518.777	2.81
518.976	2.86
519.176	2.75
519.375	2.72
519.574	2.78
519.773	2.75
519.972	2.73
520.171	2.75
520.37	2.7
520.569	2.74
520.768	2.77
520.967	2.64
521.166	2.79
521.365	2.87
521.564	2.8
521.762	2.84
521.961	2.92
522.16	2.84
522.359	2.87
522.558	2.98
522.757	2.83
522.956	2.75
523.154	2.84
523.353	2.8
523.552	2.94
523.751	3.1
523.949	3.16
524.148	3.13
524.347	3.22
524.546	3.27
524.744	3.26
524.943	3.44
525.142	3.39
525.34	3.46
525.539	3.56
525.737	3.45
525.936	3.42
526.135	3.36
526.333	3.29
526.532	3.3
526.73	3.24
526.929	3.22
527.127	3.15
527.326	3.19
527.524	3.16
527.723	3.08
527.921	3.16
528.12	3.15
528.318	3.21
528.516	3.28
528.715	3.3
528.913	3.3
529.112	3.28
529.31	3.32
529.508	3.35
529.707	3.34
529.905	3.42
530.103	3.39
530.301	3.43
530.5	3.35
530.698	3.36
530.896	3.38
531.094	3.41
531.293	3.51
531.491	3.55
531.689	3.44
531.887	3.48
532.085	3.36
532.283	3.44
532.481	3.37
532.68	3.46
532.878	3.43
533.076	3.42
533.274	3.42
533.472	3.48
533.67	3.48
533.868	3.63
534.066	3.72
534.264	3.73
534.462	3.7
534.66	3.82
534.858	3.84
535.056	3.95
535.253	3.93
535.451	3.86
535.649	3.87
535.847	3.88
536.045	3.86
536.243	3.78
536.441	3.83
536.638	3.82
536.836	3.77
537.034	3.7
537.232	3.66
537.43	3.76
537.627	3.8
537.825	3.68
538.023	3.77
538.22	3.7
538.418	3.79
538.616	3.8
538.813	3.93
539.011	4.06
539.209	4.22
539.406	4.19
539.604	4.19
539.801	4.3
539.999	4.32
540.196	4.19
540.394	4.29
540.591	4.26
540.789	4.32
540.986	4.26
541.184	4.19
541.381	4.25
541.579	4.3
541.776	4.3
541.974	4.37
542.171	4.4
542.368	4.46
542.566	4.52
542.763	4.6
542.96	4.62
543.158	4.58
543.355	4.66
543.552	4.64
543.75	4.66
543.947	4.7
544.144	4.65
544.341	4.63
544.539	4.67
544.736	4.52
544.933	4.34
545.13	4.29
545.327	4.35
545.524	4.41
545.722	4.35
545.919	4.36
546.116	4.45
546.313	4.5
546.51	4.65
546.707	4.61
546.904	4.77
547.101	4.82
547.298	4.96
547.495	5.06
547.692	5.15
547.889	5.21
548.086	5.32
548.283	5.24
548.48	5.24
548.677	5.25
548.874	5.26
549.07	5.27
549.267	5.56
549.464	5.59
549.661	5.73
549.858	5.61
550.055	5.56
550.251	5.64
550.448	5.74
550.645	5.79
550.842	5.82
551.038	6.1
551.235	6.29
551.432	6.3
551.628	6.24
551.825	6.32
552.022	6.32
552.218	6.51
552.415	6.39
552.612	6.45
552.808	6.58
553.005	6.46
553.201	6.38
553.398	6.2
553.594	6.25
553.791	6.24
553.987	6.23
554.184	6.41
554.38	6.41
554.577	6.54
554.773	6.64
554.97	6.6
555.166	6.72
555.362	6.95
555.559	6.96
555.755	6.81
555.952	7.14
556.148	7.05
556.344	6.85
556.541	6.75
556.737	6.81
556.933	6.78
557.129	7.01
557.326	7.09
557.522	7.07
557.718	7.31
557.914	7.36
558.11	7.25
558.307	7.39
558.503	7.55
558.699	7.68
558.895	7.6
559.091	7.61
559.287	7.43
559.483	7.56
559.679	7.43
559.876	7.35
560.072	7.56
560.268	7.53
560.464	7.56
560.66	7.64
560.856	7.58
561.052	7.77
561.247	7.83
561.443	8.13
561.639	7.94
561.835	7.92
562.031	8.15
562.227	8.11
562.423	8.12
562.619	8.36
562.815	8.43
563.01	8.67
563.206	8.67
563.402	8.83
563.598	8.75
563.793	8.98
563.989	9.18
564.185	9.12
564.381	9.03
564.576	9.1
564.772	8.93
564.968	8.9
565.163	8.94
565.359	9.06
565.555	8.97
565.75	8.85
565.946	8.89
566.141	8.95
566.337	8.96
566.532	9.08
566.728	9.22
566.923	9.26
567.119	9.32
567.314	9.37
567.51	9.27
567.705	9.41
567.901	9.57
568.096	9.72
568.292	9.71
568.487	9.79
568.682	9.78
568.878	9.84
569.073	9.82
569.268	9.95
569.464	10.01
569.659	10.1
569.854	9.99
570.05	9.82
570.245	9.81
570.44	9.84
570.635	9.89
570.831	9.84
571.026	9.88
571.221	9.95
571.416	9.93
571.611	9.89
571.806	9.98
572.002	10.13
572.197	10.34
572.392	10.26
572.587	10.22
572.782	10.27
572.977	10.49
573.172	10.37
573.367	10.38
573.562	10.43
573.757	10.41
573.952	10.42
574.147	10.38
574.342	10.21
574.537	10.34
574.732	10.36
574.927	10.41
575.121	10.31
575.316	10.18
575.511	10.13
575.706	10.11
575.901	10.12
576.096	10.2
576.29	10.35
576.485	10.32
576.68	10.29
576.875	10.51
577.069	10.64
577.264	10.77
577.459	10.96
577.654	11.05
577.848	11.22
578.043	11.18
578.238	11.12
578.432	11.04
578.627	11.43
578.821	11.51
579.016	11.38
579.21	11.11
579.405	11.08
579.6	10.93
579.794	11.15
579.989	11.15
580.183	11.38
580.378	11.3
580.572	11.45
580.766	11.63
580.961	11.79
581.155	11.92
581.35	11.91
581.544	11.85
581.738	12.13
581.933	12.06
582.127	11.88
582.321	11.73
582.516	11.7
582.71	11.61
582.904	11.14
583.099	11.05
583.293	11.05
583.487	11.31
583.681	11.49
583.875	11.52
584.07	11.49
584.264	11.73
584.458	11.82
584.652	11.89
584.846	11.91
585.04	12.12
585.234	11.86
585.428	11.8
585.623	11.64
585.817	11.68
586.011	11.85
586.205	11.94
586.399	11.74
586.593	11.67
586.787	11.77
586.981	11.65
587.174	11.4
587.368	11.49
587.562	11.31
587.756	11.37
587.95	11.43
588.144	11.29
588.338	11.45
588.532	11.5
588.725	11.43
588.919	11.3
589.113	11.41
589.307	11.63
589.501	11.67
589.694	11.91
589.888	11.68
590.082	11.28
590.275	11.32
590.469	11.27
590.663	11.29
590.856	10.99
591.05	11.19
591.244	11.21
591.437	11.16
591.631	11.49
591.824	11.54
592.018	11.7
592.212	12.17
592.405	12.18
592.599	12.04
592.792	12.15
592.986	12.86
593.179	12.83
593.372	12.85
593.566	12.85
593.759	12.56
593.953	12.47
594.146	12.45
594.339	12.12
594.533	12.07
594.726	12.19
594.92	12.29
595.113	12.33
595.306	12.36
595.499	12.21
595.693	12.3
595.886	12.37
596.079	12.54
596.272	12.46
596.466	12.66
596.659	12.72
596.852	12.58
597.045	12.44
597.238	12.33
597.431	12.29
597.624	12.49
597.818	12.59
598.011	12.59
598.204	12.49
598.397	12.56
598.59	12.48
598.783	12.36
598.976	12.25
599.169	12.54
599.362	12.47
599.555	12.5
599.748	12.29
599.941	12.28
600.134	12.3
600.326	12.23
600.519	12.38
600.712	12.22
600.905	11.92
601.098	12.07
601.291	11.79
601.483	11.7
601.676	11.64
601.869	11.84
602.062	11.64
602.255	11.61
602.447	11.56
602.64	11.58
602.833	11.85
603.025	12.11
603.218	12.27
603.411	12.23
603.603	12.38
603.796	12.36
603.989	12.3
604.181	12.45
604.374	12.51
604.566	12.63
604.759	12.59
604.951	12.47
605.144	12.6
605.336	12.41
605.529	12.34
605.721	12.35
605.914	12.41
606.106	12.6
606.299	12.43
606.491	12.33
606.683	12.25
606.876	12.28
607.068	12.3
607.26	12.18
607.453	12.58
607.645	12.54
607.837	12.45
608.03	12.49
608.222	12.19
608.414	12.34
608.606	12.35
608.799	12.16
608.991	12.12
609.183	12.04
609.375	12.02
609.567	11.89
609.759	11.73
609.952	11.55
610.144	11.38
610.336	11.2
610.528	11.29
610.72	11.39
610.912	11.51
611.104	11.14
611.296	11.42
611.488	11.32
611.68	11.2
611.872	11.43
612.064	11.52
612.256	11.65
612.448	11.91
612.64	11.86
612.832	11.74
613.023	12.05
613.215	12.53
613.407	12.31
613.599	12.34
613.791	12.56
613.983	12.44
614.174	12.66
614.366	12.66
614.558	12.65
614.75	12.51
614.941	12.86
615.133	12.5
615.325	12.59
615.516	12.64
615.708	12.84
615.9	12.53
616.091	12.85
616.283	12.98
616.475	12.96
616.666	13.11
616.858	13.04
617.049	12.76
617.241	13.06
617.432	13.08
617.624	13.03
617.815	12.9
618.007	13.21
618.198	13.11
618.39	12.81
618.581	12.72
618.773	12.8
618.964	13.04
619.155	12.98
619.347	12.6
619.538	12.57
619.729	12.65
619.921	12.92
620.112	12.77
620.303	12.58
620.494	12.38
620.686	12.71
620.877	12.54
621.068	12.53
621.259	12.68
621.451	12.79
621.642	12.58
621.833	12.65
622.024	12.68
622.215	12.8
622.406	13.06
622.597	13.34
622.788	13.26
622.98	13.15
623.171	13.13
623.362	13.1
623.553	13.12
623.744	13.22
623.935	13.03
624.126	12.78
624.317	12.48
624.508	12.38
624.698	12.43
624.889	12.55
625.08	12.7
625.271	12.56
625.462	12.78
625.653	13.1
625.844	13.33
626.034	13.31
626.225	13.3
626.416	13.46
626.607	13.49
626.798	13.34
626.988	13.55
627.179	13.71
627.37	13.58
627.56	13.18
627.751	12.93
627.942	12.99
628.132	13.07
628.323	13.05
628.514	12.88
628.704	12.99
628.895	13.35
629.085	12.96
629.276	12.75
629.466	13.15
629.657	13.34
629.847	13.15
630.038	12.93
630.228	12.84
630.419	12.82
630.609	12.87
630.8	12.91
630.99	12.95
631.181	12.91
631.371	12.86
631.561	12.65
631.752	12.64
631.942	12.66
632.132	12.55
632.323	12.91
632.513	13.13
632.703	13.25
632.893	13.08
633.084	12.46
633.274	12.7
633.464	12.61
633.654	12.78
633.844	12.97
634.034	12.99
634.225	13
634.415	12.75
634.605	12.77
634.795	12.83
634.985	13.06
635.175	13.59
635.365	13.27
635.555	13.43
635.745	13.44
635.935	13.7
636.125	14.01
636.315	14.53
636.505	14.56
636.695	14.2
636.885	14.12
637.075	14.22
637.265	14.07
637.455	14.46
637.644	14.3
637.834	14.42
638.024	13.84
638.214	13.99
638.404	13.35
638.593	13.25
638.783	13.59
638.973	13.87
639.163	13.49
639.352	13.59
639.542	13.08
639.732	13.05
639.921	12.57
640.111	12.73
640.301	12.49
640.49	12.91
640.68	13.5
640.87	13.52
641.059	13.36
641.249	13.72
641.438	13.77
641.628	13.96
641.817	14.38
642.007	14.44
642.196	14.81
642.386	14.76
642.575	14.73
642.764	13.94
642.954	13.94
643.143	13.89
643.333	13.71
643.522	13.7
643.711	13.86
643.901	13.68
644.09	13.92
644.279	13.64
644.469	13.87
644.658	13.57
644.847	14.13
645.036	14.17
645.226	13.82
645.415	13.28
645.604	13.21
645.793	13.12
645.982	12.82
646.171	12.69
646.361	12.61
646.55	13.06
646.739	13.25
646.928	12.89
647.117	13.02
647.306	13.32
647.495	13.8
647.684	13.5
647.873	14.05
648.062	14.39
648.251	14.4
648.44	14.63
648.629	14.11
648.818	13.74
649.007	13.85
649.196	13.41
649.384	13.48
649.573	12.87
649.762	12.93
649.951	12.59
650.14	12.79
650.328	12.76
650.517	12.38
650.706	12.72
650.895	13.02
651.083	12.76
651.272	13.29
651.461	13.23
651.65	13.57
651.838	13.61
652.027	13.43
652.216	13.16
652.404	12.84
652.593	13.16
652.781	12.88
652.97	13.1
653.158	13.43
653.347	13.23
653.535	13.58
653.724	13.8
653.912	13.82
654.101	13.81
654.289	13.77
654.478	14.47
654.666	14.19
654.855	14.23
655.043	14.47
655.231	14.35
655.42	14.02
655.608	13.7
655.796	14.06
655.985	14.23
656.173	14.03
656.361	13.89
656.55	13.18
656.738	13.27
656.926	13.23
657.114	13.05
657.302	13.13
657.491	12.97
657.679	12.97
657.867	12.82
658.055	13.04
658.243	13.25
658.431	13.36
658.619	13.63
658.807	13.81
658.996	13.42
659.184	13.27
659.372	13.25
659.56	13.62
659.748	13.71
659.936	13.82
660.124	13.65
660.311	13.76
660.499	13.97
660.687	14.22
660.875	14.19
661.063	14.45
661.251	14.23
661.439	14.85
661.627	14.88
661.814	14.88
662.002	14.53
662.19	14.48
662.378	14.72
662.565	14.56
662.753	14.42
662.941	14.58
663.129	14.27
663.316	14.93
663.504	14.67
663.692	14.79
663.879	14.65
664.067	14.74
664.254	14.79
664.442	14.44
664.63	14.25
664.817	14.17
665.005	13.59
665.192	14.09
665.38	13.54
665.567	13.12
665.755	12.33
665.942	12.25
666.13	12.05
666.317	12.7
666.504	12.51
666.692	12.67
666.879	12.41
667.067	12.62
667.254	12.62
667.441	13.12
667.629	13.42
667.816	14.16
668.003	14.46
668.19	14.6
668.378	14.15
668.565	14.73
668.752	14.63
668.939	15.26
669.127	15.33
669.314	15.39
669.501	15.17
669.688	15.37
669.875	15.69
670.062	15.77
670.249	15.83
670.436	15.51
670.623	15.07
670.81	15.36
670.997	15.19
671.184	15.04
671.371	15.13
671.558	14.96
671.745	14.43
671.932	13.87
672.119	13.53
672.306	13.72
672.493	14.08
672.68	14.19
672.867	13.92
673.054	13.46
673.24	13.7
673.427	13.85
673.614	13.93
673.801	14.09
673.988	13.98
674.174	14.07
674.361	14.3
674.548	14.15
674.734	14.15
674.921	14.32
675.108	14.96
675.294	15.2
675.481	14.78
675.668	15.07
675.854	14.77
676.041	15.19
676.227	15.1
676.414	14.85
676.601	14.68
676.787	14.6
676.974	14.45
677.16	14.1
677.347	13.86
677.533	13.88
677.719	13.94
677.906	14.14
678.092	13.77
678.279	14.07
678.465	14.23
678.651	14.34
678.838	14.63
679.024	14.74
679.21	14.68
679.397	15.01
679.583	15.39
679.769	15.01
679.955	15.38
680.142	15.38
680.328	15.53
680.514	15.27
680.7	15.1
680.886	14.67
681.073	14.45
681.259	14.79
681.445	14.7
681.631	14.76
681.817	14.97
682.003	14.15
682.189	14.28
682.375	14.3
682.561	13.91
682.747	13.87
682.933	14.35
683.119	14.75
683.305	14.58
683.491	14.15
683.677	14.08
683.863	13.66
684.049	14.28
684.235	14.37
684.42	13.96
684.606	14.44
684.792	14.21
684.978	13.94
685.164	13.86
685.349	13.66
685.535	13.8
685.721	13.67
685.907	14.02
686.092	13.81
686.278	13.45
686.464	13.97
686.649	13.83
686.835	14.55
687.021	14.52
687.206	14.03
687.392	13.91
687.577	14.33
687.763	14.27
687.948	13.94
688.134	14.11
688.319	14.54
688.505	13.91
688.69	14.32
688.876	14.36
689.061	14.78
689.247	15.31
689.432	15.75
689.618	15.67
689.803	15.6
689.988	16.3
690.174	15.88
690.359	15.5
690.544	15.81
690.73	15.59
690.915	15.8
691.1	15.24
691.285	15.7
691.471	15.43
691.656	14.94
691.841	15.08
692.026	15.06
692.211	15.42
692.396	15.34
692.582	14.94
692.767	14.71
692.952	14.24
693.137	14.42
693.322	13.74
693.507	14.27
693.692	14.52
693.877	14.26
694.062	14.21
694.247	14.54
694.432	14.82
694.617	14.97
694.802	15.09
694.987	15.44
695.172	15.7
695.357	15.61
695.541	15.43
695.726	15.65
695.911	15.93
696.096	15.51
696.281	15.42
696.466	15.74
696.65	15.99
696.835	16.01
697.02	15.72
697.204	15.42
697.389	15.69
697.574	15.52
697.759	15.44
697.943	15.18
698.128	15.39
698.312	15.42
698.497	15.44
698.682	15.54
698.866	15.74
699.051	15.7
699.235	15.64
699.42	15.88
699.604	15.72
699.789	15.56
699.973	15.78
700.158	15.35
700.342	15.61
700.527	15.49
700.711	15.31
700.895	15.4
701.08	15.38
701.264	15.13
701.448	14.69
701.633	15.01
701.817	15.38
702.001	15.36
702.186	15.77
702.37	15.34
702.554	15.19
702.738	14.97
702.923	14.62
703.107	14.78
703.291	15.09
703.475	15.26
703.659	15.04
703.843	14.79
704.027	15.03
704.212	14.83
704.396	15.06
704.58	15.22
704.764	15.65
704.948	15.67
705.132	15.81
705.316	16.39
705.5	16.21
705.684	16.13
705.868	15.76
706.052	15.83
706.235	16.34
706.419	16.7
706.603	16.23
706.787	16.3
706.971	16.31
707.155	15.86
707.339	15.62
707.522	15.54
707.706	15.98
707.89	16.19
708.074	15.97
708.257	15.54
708.441	15.03
708.625	15.26
708.808	14.66
708.992	14.49
709.176	14.98
709.359	15.19
709.543	15.37
709.727	15.01
709.91	14.22
710.094	13.56
710.277	13.85
710.461	14.49
710.644	14.32
710.828	14.64
711.011	14.83
711.195	14.87
711.378	15.19
711.562	15.54
711.745	16.08
711.928	16.98
712.112	17.84
712.295	17.6
712.478	16.94
712.662	17.18
712.845	17.2
713.028	17.18
713.212	16.99
713.395	16.21
713.578	16.4
713.761	15.81
713.945	16.11
714.128	15.22
714.311	15.73
714.494	15.74
714.677	15.48
714.86	14.87
715.043	15
715.227	15.04
715.41	14.93
715.593	13.95
715.776	14.84
715.959	13.8
716.142	13.87
716.325	13.34
716.508	13.56
716.691	13.5
716.874	14.21
717.057	13.85
717.239	13.87
717.422	13.79
717.605	14.55
717.788	14.09
717.971	14.59
718.154	15.47
718.337	15.18
718.519	15.21
718.702	16.05
718.885	17.04
719.068	16.3
719.25	16.07
719.433	16.89
719.616	15.79
719.798	14.12
719.981	14.31
720.164	13.61
720.346	14.91
720.529	14.1
720.712	12.96
720.894	11.61
721.077	12.56
721.259	12.81
721.442	12.35
721.624	12.54
721.807	13.96
721.989	14.88
722.172	15.07
722.354	14.09
722.537	14.94
722.719	16.45
722.901	16.66
723.084	16.75
723.266	16.5
723.448	17.07
723.631	17.45
723.813	17.24
723.995	16.42
724.178	15.9
724.36	15.98
724.542	15.65
724.724	15
724.907	15.43
725.089	15.88
725.271	16.45
725.453	15.66
725.635	16.32
725.817	16.24
725.999	15.73
726.181	16.16
726.364	15.73
726.546	16.09
726.728	16.94
726.91	16.13
727.092	14.93
727.274	14.16
727.456	13.99
727.638	13.24
727.819	13.61
728.001	14.93
728.183	15.37
728.365	16.34
728.547	16.2
728.729	14.98
728.911	15.72
729.093	16.92
729.274	17.52
729.456	17.76
729.638	17.33
729.82	17.65
730.001	16.63
730.183	16.51
730.365	16.5
730.546	16.49
730.728	16.89
730.91	16.92
731.091	16.68
731.273	16.88
731.455	17.17
731.636	17.94
731.818	17.59
731.999	17.42
732.181	16.91
732.362	16.16
732.544	15.79
732.725	16.1
732.907	15.26
733.088	15.04
733.27	14.78
733.451	14.36
733.633	15.07
733.814	15.25
733.995	16.09
734.177	16.56
734.358	16.85
734.539	16.66
734.721	15.7
734.902	16.35
735.083	16.97
735.264	17.51
735.446	18.4
735.627	18.12
735.808	18.06
735.989	18.47
736.17	19.12
736.351	20.08
736.533	20.78
736.714	21.3
736.895	20.78
737.076	21.08
737.257	20.71
737.438	20.17
737.619	19.54
737.8	19.71
737.981	18.08
738.162	17.05
738.343	15.58
738.524	16.36
738.705	16.31
738.886	16.19
739.067	15.24
739.247	14.29
739.428	14.41
739.609	13.57
739.79	13.81
739.971	16.11
740.151	15.66
740.332	16.28
740.513	15
740.694	14.68
740.874	15.23
741.055	15.25
741.236	15.83
741.417	16.7
741.597	16.59
741.778	16.1
741.958	14.43
742.139	15.99
742.32	14.39
742.5	14.13
742.681	14.59
742.861	13.74
743.042	14.57
743.222	13.25
743.403	12.72
743.583	13.6
743.764	13.3
743.944	13.24
744.124	12.88
744.305	14.36
744.485	15.32
744.666	15.64
744.846	16.54
745.026	16.17
745.207	17.01
745.387	17.33
745.567	17.17
745.747	17.69
745.928	19.83
746.108	18.34
746.288	17.53
746.468	15.92
746.648	13.83
746.829	14.63
747.009	14.48
747.189	14.24
747.369	13.21
747.549	13.18
747.729	12.59
747.909	9.94
748.089	10.58
748.269	12.39
748.449	12.92
748.629	14.51
748.809	13.36
748.989	13.47
749.169	13.32
749.349	14.57
749.529	15.91
749.709	16.65
749.889	17.41
750.068	17.38
750.248	15.88
750.428	16.41
750.608	16.48
750.788	17.34
750.967	16.59
751.147	16.8
751.327	15.24
751.507	14.11
751.686	13.49
751.866	13.87
752.046	14.63
752.225	15.44
752.405	16.11
752.585	16.7
752.764	16.75
752.944	16.56
753.123	17.3
753.303	18.06
753.482	18.21
753.662	19.05
753.841	18.75
754.021	18.79
754.2	18.53
754.38	18.18
754.559	17.34
754.739	16.31
754.918	17.8
755.097	18.25
755.277	18.74
755.456	19.09
755.635	17.5
755.815	17.44
755.994	17.15
756.173	18.01
756.352	16.93
756.532	17.12
756.711	17.25
756.89	16.83
757.069	15.85
757.248	15.26
757.427	15.8
757.607	16.6
757.786	15.75
757.965	15.87
758.144	15.46
758.323	17.55
758.502	17.33
758.681	17.33
758.86	16.83
759.039	16.3
759.218	15.37
759.397	15.59
759.576	16.15
759.755	16.82
759.934	17.23
760.113	16.69
760.291	15.85
760.47	15.81
760.649	15.35
760.828	16.1
761.007	17.19
761.186	17.47
761.364	16.58
761.543	15.38
761.722	15.53
761.901	14.56
762.079	15.21
762.258	15.17
762.437	17.41
762.615	17.36
762.794	16.46
762.972	16.63
763.151	16.65
763.33	17.19
763.508	18.14
763.687	17.53
763.865	17.1
764.044	16.53
764.222	16.03
764.401	13.83
764.579	14.71
764.758	15.12
764.936	14.39
765.114	15.05
765.293	14.65
765.471	13.85
765.65	15.04
765.828	15.73
766.006	15.27
766.184	17.23
766.363	19.06
766.541	17.84
766.719	18.03
766.898	17.91
767.076	16.97
767.254	17.5
767.432	18.55
767.61	18.3
767.788	19.57
767.967	22.39
768.145	20.51
768.323	18.39
768.501	19.14
768.679	18.57
768.857	20.63
769.035	21.33
769.213	20.42
769.391	19.69
769.569	19.82
769.747	19.79
769.925	16.47
770.103	18.1
770.281	19.74
770.459	21.07
770.636	20.71
770.814	18.04
770.992	18.66
771.17	18.45
771.348	19.25
771.525	18.01
771.703	17.06
771.881	18.98
772.059	18.31
772.236	20.7
772.414	19.7
772.592	20.21
772.769	21.81
772.947	19.01
773.125	19.46
773.302	17.88
773.48	19.31
773.657	18.81
773.835	16.76
774.013	17.09
774.19	14.87
774.368	15.84
774.545	16.84
774.723	17.28
774.9	18.38
775.077	16.96
775.255	15.65
775.432	14.85
775.61	16.12
775.787	16.57
775.964	15.26
776.142	14.01
776.319	10.81
776.496	9.11
776.674	8.97
776.851	10.01
777.028	11.37
777.205	15.27
777.382	15.47
777.56	14.89
777.737	14.14
777.914	14.57
778.091	15.88
778.268	16.7
778.445	18
778.622	18.97
778.8	19
778.977	19.02
779.154	16.66
779.331	15.58
779.508	15.22
779.685	14.93
779.862	13.18
780.038	13.24
780.215	13.85
780.392	12.03
780.569	10.47
780.746	11.37
780.923	9.41
781.1	10.31
781.277	11.29
781.453	11.89
781.63	15.07
781.807	16.72
781.984	17.42
782.16	19.44
782.337	21.79
782.514	20.81
782.691	19.47
782.867	20.95
783.044	22.4
783.221	22.43
783.397	21.7
783.574	20.98
783.75	20.66
783.927	18.85
784.103	15.87
784.28	12.58
784.456	14.53
784.633	15.43
784.809	16.44
784.986	14.93
785.162	14.95
785.339	15.12
785.515	17.33
785.692	17.71
785.868	17.5
786.044	19.15
786.221	21.01
786.397	18.63
786.573	18.63
786.749	17.91
786.926	19.62
787.102	18.23
787.278	19.27
787.454	15.33
787.631	16.65
787.807	17.16
787.983	17.28
788.159	17.51
788.335	18.71
788.511	18.5
788.687	17.32
788.863	14.36
789.039	17.25
789.216	15.99
789.392	17.7
789.568	16.68
789.744	16.25
789.919	16.09
790.095	13.23
790.271	11.15
790.447	11.82
790.623	12.1
790.799	13.85
790.975	12.67
791.151	10.77
791.327	7.07
791.502	9.57
791.678	10.2
791.854	10.31
792.03	11.79
792.205	16.46
792.381	15.87
792.557	18.43
792.733	18.27
792.908	15.73
793.084	16.88
793.259	16.89
793.435	16.12
793.611	17.3
793.786	14.03
793.962	15.73
794.137	16.72
794.313	19.07
794.488	19.5
794.664	18.77
794.839	20.32
795.015	23.11
795.19	27.39
795.366	24.88
795.541	23.4
795.716	25.79
795.892	27.22
796.067	25.87
796.242	23.67
796.418	21.4
796.593	23.43
796.768	22.35
796.944	18.66
797.119	19.16
797.294	19.51
797.469	19.28
797.644	18.85
797.82	17.91
797.995	15.02
798.17	14.18
798.345	14.32
798.52	13.45
798.695	14.83
798.87	16.9
799.045	16.12
799.22	15.56
799.395	18.04
799.57	19.61
799.745	18.75
799.92	17.36
800.095	17.23
800.27	19.18
800.445	20.19
800.62	22.55
800.795	22.17
800.97	21.56
801.145	21.81
801.319	18.11
801.494	16.6
801.669	16.47
801.844	20.95
802.018	23.77
802.193	25.23
802.368	20.98
802.543	16.68
802.717	14.79
802.892	15.23
803.067	15.47
803.241	18
803.416	15.52
803.59	11.67
803.765	13.06
803.94	8.47
804.114	4.47
804.289	12.93
804.463	14.7
804.638	20.58
804.812	20.3
804.986	18.51
805.161	19.74
805.335	27.37
805.51	27.95
805.684	27.21
805.858	29.53
806.033	27.75
806.207	24.49
806.381	22.03
806.556	18.96
806.73	16.82
806.904	16.74
807.078	15.94
807.253	13
807.427	14.67
807.601	9.67
807.775	8.44
807.949	7.14
808.123	6.28
808.298	12.21
808.472	12.12
808.646	10.86
808.82	13.55
808.994	14.63
809.168	11.74
809.342	14.31
809.516	19.07
809.69	16.53
809.864	17.76
810.038	16.98
810.212	17.6
810.385	18.96
810.559	20.12
810.733	20.69
810.907	20.93
811.081	21.19
811.255	22.54
811.428	20.67
811.602	21.84
811.776	23.69
811.95	20.13
812.123	14.65
812.297	12.22
812.471	12.64
812.644	9.87
812.818	12.75
812.992	14.2
813.165	9.87
813.339	8.98
813.512	5.87
813.686	7.35
813.86	13.6
814.033	14.65
814.207	19.26
814.38	19.16
814.554	17.59
814.727	7.5
814.9	3.86
815.074	3.36
815.247	2.09
815.421	9.02
815.594	4.44
815.767	7.33
815.941	10.36
816.114	7.12
816.287	8.05
816.46	8.26
816.634	13.54
816.807	13.02
816.98	14.46
817.153	17.66
817.327	13.79
817.5	16.99
817.673	17.44
817.846	18.43
818.019	17.08
818.192	19.25
818.365	20.5
818.538	18.05
818.711	21.53
818.884	21.55
819.057	18.33
819.23	19.18
819.403	20.22
819.576	16.76
819.749	17.26
819.922	19.84
820.095	16.01
820.268	15.56
820.441	15.7
820.614	15.85
820.786	17.35
820.959	17.55
821.132	19.11
821.305	18.41
821.477	19.22
821.65	19.45
821.823	20
821.996	20.54
822.168	20.96
822.341	22.22
822.514	22.58
822.686	22.13
822.859	22.22
823.031	22.17
823.204	21.24
823.376	21.54
823.549	21.23
823.722	20.96
823.894	20.93
824.067	21.64
824.239	20.66
824.411	20.72
824.584	20.29
824.756	20.88
824.929	20.76
825.101	22.31
825.273	22.1
825.446	21.75
825.618	21.18
825.79	22.67
825.963	21.16
826.135	20.88
826.307	20.39
826.479	21.14
826.652	19.97
826.824	19.85
826.996	19.47
827.168	19.38
827.34	19.14
827.512	18.32
827.684	17.09
827.856	17.81
828.029	17.89
828.201	17.55
828.373	18.94
828.545	20.14
828.717	19.36
828.889	17.34
829.061	17
829.232	18.12
829.404	22.16
829.576	21.29
829.748	21.19
829.92	20.98
830.092	20.02
830.264	15.38
830.436	16.49
830.607	18.29
830.779	22.22
830.951	22.34
831.123	19.65
831.294	15.6
831.466	18.99
831.638	21.95
831.809	20.16
831.981	24.72
832.153	26.79
832.324	26.99
832.496	25.75
832.667	24.62
832.839	25.04
833.011	24.85
833.182	25.87
833.354	22.92
833.525	18.37
833.697	22.91
833.868	23.68
834.039	23.26
834.211	18.68
834.382	19.1
834.554	19.24
834.725	19.12
834.896	19.28
835.068	18.47
835.239	18.15
835.41	19.19
835.581	19.22
835.753	16.47
835.924	16.63
836.095	19.88
836.266	16.67
836.438	19.38
836.609	18.34
836.78	20.86
836.951	18.07
837.122	20.27
837.293	23.37
837.464	21.32
837.635	19.78
837.806	20.31
837.977	21.21
838.148	27.92
838.319	21.08
838.49	21.34
838.661	21.31
838.832	18.5
839.003	19.46
839.174	19.65
839.345	19.17
839.516	23.27
839.687	22.81
839.857	21.39
840.028	16.89
840.199	19.13
840.37	17.46
840.54	18.02
840.711	24.93
840.882	22.33
841.053	20.67
841.223	21.78
841.394	19.82
841.564	17.05
841.735	17.11
841.906	17.9
842.076	19.99
842.247	20.3
842.417	14.99
842.588	12.12
842.758	8.61
842.929	9.2
843.099	3.15
843.27	8.11
843.44	16.9
843.611	14.59
843.781	12.47
843.951	17.42
844.122	13.52
844.292	17.08
844.462	4.11
844.633	3.86
844.803	5.91
844.973	14.84
845.144	11.07
845.314	5.67
845.484	10.73
845.654	11.92
845.824	18.54
845.995	26.62
846.165	27.61
846.335	35.25
846.505	45.45
846.675	38.97
846.845	36.91
847.015	33.18
847.185	31.01
847.355	21.97
847.525	23.99
847.695	12.19
847.865	15.34
848.035	18.23
848.205	22.73
848.375	20.75
848.545	24.71
848.715	30.3
848.884	35.52
849.054	40.96
849.224	44.21
849.394	42.09
849.564	34.69
849.733	27.95
849.903	16.86
850.073	11.03
850.243	9.49
850.412	9.15
850.582	-8.29
850.752	-5.47
850.921	8.56
851.091	6.4
851.26	16.05
851.43	13.44
851.599	23.36
851.769	24.83
851.939	22.05
852.108	19.92
852.278	21.5
852.447	17.89
852.616	11.92
852.786	0
852.955	4.29
853.125	-0.79
853.294	0.57
853.463	-25.84
853.633	-20.92
853.802	-11.2
853.971	-20.1
854.141	-31.07
854.31	-30.49
854.479	-7.58
854.648	3.29
854.818	12.46
854.987	19.04
855.156	27.14
855.325	31.21
855.494	39.56
855.663	44.65
855.832	50.3
856.001	44.85
856.171	54.82
856.34	42.8
856.509	41.74
856.678	34.34
856.847	32.07
857.016	36.14
857.185	46.12
857.353	37.78
857.522	37.75
857.691	29.38
857.86	32.37
858.029	26.75
858.198	32.95
858.367	33.13
858.535	36.9
858.704	34.57
858.873	33.66
859.042	30.32
859.21	31.07
859.379	30.18
859.548	37.69
859.717	37.25
859.885	40.37
860.054	47.58
860.222	53.41
860.391	48.36
860.56	49.22
860.728	40.66
860.897	41.26
861.065	43.34
861.234	42.64
861.402	39.9
861.571	44.52
861.739	43.76
861.908	32.44
862.076	21.14
862.244	22.89
862.413	23.5
862.581	29.12
862.749	26.48
862.918	22.63
863.086	10.71
863.254	16.87
863.423	36.48
863.591	28.86
863.759	43.33
863.927	56.74
864.096	47.02
864.264	51.98
864.432	48.09
864.6	50.08
864.768	50.59
864.936	55.21
865.104	43.07
865.272	33.33
865.44	38.54
865.608	37.87
865.776	31.43
865.944	34.69
866.112	24.92
866.28	30.98
866.448	32.9
866.616	28.19
866.784	29.24
866.952	37.58
867.12	31.9
867.288	32.72
867.455	31.56
867.623	36.86
867.791	34.88
867.959	37.57
868.127	33.15
868.294	25.98
868.462	31.63
868.63	30.26
868.797	38.37
868.965	46.48
869.133	34.89
869.3	31.13
869.468	29.02
869.636	28.2
869.803	18.91
869.971	26.14
870.138	27.9
870.306	25.78
870.473	35.52
870.641	27.51
870.808	26.55
870.975	30.47
871.143	35.35
871.31	36.8
871.478	34.67
871.645	49.34
871.812	43.35
871.98	38.89
872.147	47.25
872.314	38.22
872.482	29.56
872.649	31.49
872.816	39.86
872.983	27.63
873.15	25.14
873.318	29.81
873.485	35.99
873.652	29.19
873.819	35.18
873.986	28.53
874.153	19.47
874.32	20.16
874.487	2.22
874.654	-9.39
874.821	1.8
874.988	-0.88
875.155	-8.53
875.322	-27.15
875.489	-20.97
875.656	-32.09
875.823	-28.69
875.99	-11.6
876.157	-13.94
876.324	-5.29
876.49	9.29
876.657	10.38
876.824	28.91
876.991	30.16
877.157	35.33
877.324	45.51
877.491	50.43
877.658	57.19
877.824	53.62
877.991	66.44
878.157	85.38
878.324	80.42
878.491	78.39
878.657	69.07
878.824	86.43
878.99	85.01
879.157	78.8
879.323	84.54
879.49	68.82
879.656	68.58
879.823	63.38
879.989	48.08
880.156	44.87
880.322	51.24
880.488	45.26
880.655	24.78
880.821	40.22
880.987	24.51
881.154	19.95
881.32	22.71
881.486	17.52
881.652	16.8
881.819	13.13
881.985	11.86
882.151	12.94
882.317	13.29
882.483	16.85
882.649	14.6
882.816	17.2
882.982	21.59
883.148	22.24
883.314	21.79
883.48	23.03
883.646	24.12
883.812	24.21
883.978	22.54
884.144	23.01
884.31	22.59
884.476	24.07
884.642	23.6
884.807	22.35
884.973	19.49
885.139	19.74
885.305	18.3
885.471	19.52
885.637	20.28
885.802	21.78
885.968	24.87
886.134	21.06
886.3	19.74
886.465	20.97
886.631	20.34
886.797	26.45
886.962	28.61
887.128	30.56
887.293	29.12
887.459	31.21
887.625	32.12
887.79	27.75
887.956	33.58
888.121	32.69
888.287	31.44
888.452	29.14
888.618	27.94
888.783	26.71
