Data from 2938093_Reflection_2.txt Node
Date: Sat Jul 11 19:11:24 EDT 2015
User: robert
Spectrometer: USB4E03001
Autoset integration time: false
Trigger mode: 4
Integration Time (sec): 1.000000E-1
Scans to average: 10
Electric dark correction enabled: true
Nonlinearity correction enabled: false
Boxcar width: 5
Stray light correction enabled: false
XAxis mode: Wavelengths
Stop averaging: false
Number of Pixels in Spectrum: 3648
>>>>>Begin Spectral Data<<<<<
177.566	90.63
177.785	64.48
178.005	20.65
178.225	22.19
178.445	5.38
178.665	-28.7
178.885	269.94
179.105	854.87
179.324	-1383.19
179.544	252.86
179.764	223.65
179.984	136.21
180.204	89.81
180.423	112.46
180.643	-382.05
180.863	-194.11
181.083	-146.01
181.302	-87.84
181.522	-298.69
181.742	891.21
181.961	309.87
182.181	2977.88
182.401	1515.38
182.621	-529.76
182.84	1249.93
183.06	1826.15
183.279	-599.22
183.499	-127.94
183.719	-60.25
183.938	-25.18
184.158	5.84
184.377	8.03
184.597	11.35
184.816	-7.53
185.036	22.19
185.256	18.22
185.475	23.62
185.695	10.48
185.914	-13.72
186.134	-24.29
186.353	-23.53
186.572	-47.21
186.792	-34.43
187.011	-21.02
187.231	-18.08
187.45	-50.82
187.67	-35.21
187.889	-7.52
188.108	-19.54
188.328	-21.4
188.547	-0.62
188.766	-17.63
188.986	-5.87
189.205	-2.56
189.424	-15.84
189.644	-14.23
189.863	1.18
190.082	-3.5
190.302	-73.53
190.521	-52.09
190.74	-158.13
190.959	-682.72
191.178	-1949.7
191.398	-2578.02
191.617	-709.85
191.836	-686.65
192.055	-99.29
192.274	-222.25
192.494	-27.79
192.713	67.19
192.932	83.92
193.151	142.26
193.37	145.05
193.589	136.8
193.808	109.22
194.027	201.22
194.246	114.18
194.465	-94.23
194.685	-36.22
194.904	-324.57
195.123	-250.9
195.342	-1814
195.561	-250.17
195.78	-590.69
195.999	-364.77
196.218	-346.59
196.436	-220.75
196.655	-170.98
196.874	-87.42
197.093	-60.94
197.312	-22.83
197.531	-22.16
197.75	-15.53
197.969	-20.23
198.188	-68.83
198.407	-40.31
198.625	-21.06
198.844	11.89
199.063	36.74
199.282	31.4
199.501	37.03
199.719	16.16
199.938	11.3
200.157	-6.13
200.376	-1.54
200.594	17.86
200.813	-13.43
201.032	-52.88
201.251	-149.49
201.469	-219.86
201.688	-361.3
201.907	-326.96
202.125	-156.3
202.344	-217.31
202.563	-234.04
202.781	-206.04
203	-88.91
203.218	-177.12
203.437	-139.49
203.656	-336.38
203.874	-543.01
204.093	11.41
204.311	-67.51
204.53	5409.23
204.748	-1793.59
204.967	-260.78
205.185	-1477.85
205.404	-1359.21
205.622	-224.56
205.841	-151.14
206.059	-163.45
206.278	-99.23
206.496	-274.73
206.715	-201.34
206.933	-70.32
207.151	-38.19
207.37	-149.31
207.588	-140.37
207.806	-109.1
208.025	-76.82
208.243	712.39
208.461	-442.7
208.68	-495.79
208.898	-502.4
209.116	-1054.56
209.335	1118.2
209.553	-652.03
209.771	-148.01
209.989	-287.21
210.208	-229.49
210.426	2267.42
210.644	-958.24
210.862	-2744.53
211.081	687.84
211.299	-13082.05
211.517	487.18
211.735	-305.44
211.953	-232.71
212.171	-124.64
212.39	-19.62
212.608	-3.81
212.826	18.63
213.044	31.25
213.262	26.37
213.48	14.27
213.698	-36.85
213.916	-32.46
214.134	-34.91
214.352	14.63
214.57	-13.84
214.788	-41.62
215.006	-49.99
215.224	-68.39
215.442	-147.82
215.66	-69.87
215.878	-62.72
216.096	61.57
216.314	31.95
216.532	14.52
216.75	-16.99
216.968	-67.26
217.185	-67.88
217.403	-19.16
217.621	3.53
217.839	45.5
218.057	33.87
218.275	21.06
218.492	-6.92
218.71	25.67
218.928	31.29
219.146	34.23
219.363	45.26
219.581	32.42
219.799	-6.57
220.017	-81.85
220.234	-81.6
220.452	-72.53
220.67	-39.96
220.887	-138.5
221.105	-78.6
221.323	-15.26
221.54	-15.33
221.758	-14.96
221.976	-13.8
222.193	-1
222.411	11.49
222.629	9.9
222.846	15.19
223.064	-5.47
223.281	10.31
223.499	-0.69
223.716	-14.46
223.934	-5.78
224.151	0.61
224.369	2.4
224.586	8.61
224.804	8.39
225.021	36.55
225.239	29.9
225.456	44.29
225.674	24.72
225.891	21.05
226.108	11.55
226.326	-10.77
226.543	-26.68
226.76	-19.16
226.978	-21.28
227.195	-8.82
227.413	-15.9
227.63	-13.71
227.847	-14.16
228.064	-8.11
228.282	-6.82
228.499	0.19
228.716	4.19
228.934	8.28
229.151	9.38
229.368	7.89
229.585	6.28
229.802	7.7
230.02	9.05
230.237	12
230.454	10.88
230.671	13.34
230.888	11.64
231.105	13.07
231.323	13.69
231.54	11.93
231.757	14.92
231.974	17.39
232.191	14.79
232.408	16.75
232.625	13.3
232.842	14.49
233.059	9.54
233.276	1.52
233.493	-2.71
233.71	-7.8
233.927	-4.36
234.144	-3.88
234.361	-5.28
234.578	-5.14
234.795	-9.04
235.012	-9.27
235.229	-2.87
235.446	-0.94
235.663	0.37
235.879	4.77
236.096	9.54
236.313	10.66
236.53	12.47
236.747	15.09
236.964	14.73
237.181	17.31
237.397	21.98
237.614	18.66
237.831	15.49
238.048	18.03
238.264	16.74
238.481	20.07
238.698	20.52
238.915	19.05
239.131	16.26
239.348	18.89
239.565	14.84
239.781	12.29
239.998	14.15
240.215	13.26
240.431	10.3
240.648	7.16
240.865	5.01
241.081	3.8
241.298	3.07
241.514	3.4
241.731	2.16
241.947	5.28
242.164	6.18
242.38	5.33
242.597	6.53
242.814	7.73
243.03	9.61
243.246	10.68
243.463	9.67
243.679	10.93
243.896	10.6
244.112	12.08
244.329	12.63
244.545	12.64
244.762	14.83
244.978	12.59
245.194	15.49
245.411	12.26
245.627	10.25
245.843	10.51
246.06	9.83
246.276	9.43
246.492	8.76
246.709	7.22
246.925	6.8
247.141	7.16
247.357	7.94
247.574	7.69
247.79	9
248.006	8.26
248.222	7.89
248.439	6.75
248.655	6.76
248.871	7.2
249.087	7.6
249.303	7.81
249.519	6.73
249.736	5.87
249.952	4.35
250.168	2.6
250.384	2.64
250.6	2.77
250.816	6.02
251.032	8.22
251.248	3.33
251.464	3.75
251.68	3.55
251.896	3.2
252.112	4.37
252.328	3.5
252.544	3.41
252.76	5.03
252.976	5.84
253.192	6.07
253.408	2.48
253.624	6.22
253.84	5.91
254.056	7.6
254.272	7.38
254.487	5.99
254.703	7.73
254.919	7.21
255.135	3.54
255.351	3.69
255.567	-0.34
255.782	-0.55
255.998	-3.71
256.214	-2.6
256.43	-4.32
256.646	-7.98
256.861	-7.01
257.077	-6.66
257.293	-4.4
257.508	-0.25
257.724	0.17
257.94	2.57
258.155	4.69
258.371	6.91
258.587	6.99
258.802	7.61
259.018	8.01
259.234	8.76
259.449	8.95
259.665	8.98
259.88	7.81
260.096	7.73
260.312	7
260.527	6.74
260.743	6.44
260.958	6.89
261.174	5.5
261.389	6.26
261.605	6.61
261.82	6.59
262.036	6.15
262.251	6.38
262.466	6.91
262.682	7.91
262.897	7.43
263.113	5.41
263.328	4.88
263.543	7.07
263.759	6.04
263.974	4.26
264.189	3.18
264.405	3
264.62	6.22
264.835	6.53
265.051	7.24
265.266	9.44
265.481	11.52
265.696	10.53
265.912	11.74
266.127	11.6
266.342	10.77
266.557	11.66
266.773	12.45
266.988	10.21
267.203	9.07
267.418	8.99
267.633	8.93
267.848	9.57
268.064	8.01
268.279	7.15
268.494	7.14
268.709	9.32
268.924	8.19
269.139	6.79
269.354	8.39
269.569	8.57
269.784	7.31
269.999	7.75
270.214	7.94
270.429	8.57
270.644	8.58
270.859	9.73
271.074	9.26
271.289	9.31
271.504	9.73
271.719	8.96
271.934	8.65
272.149	9.19
272.363	8.5
272.578	7.3
272.793	8.05
273.008	8.49
273.223	7.13
273.438	6.45
273.653	6.53
273.867	6.95
274.082	5.91
274.297	6.54
274.512	5.07
274.726	5.06
274.941	4.37
275.156	4.79
275.371	4.24
275.585	5.77
275.8	3.58
276.015	4.84
276.229	3.17
276.444	3.69
276.659	3.06
276.873	5.25
277.088	5.49
277.302	8.16
277.517	9.84
277.732	9.34
277.946	8.42
278.161	10.85
278.375	9.22
278.59	11.79
278.804	13.01
279.019	16.51
279.233	16.99
279.448	17
279.662	14.41
279.877	11.04
280.091	9.7
280.306	8.86
280.52	9.78
280.735	10.48
280.949	9.79
281.163	9.92
281.378	6.5
281.592	5.92
281.806	5.74
282.021	6.36
282.235	7.32
282.449	7.17
282.664	8.61
282.878	8.22
283.092	7.57
283.307	6.33
283.521	6.47
283.735	7.06
283.949	6.54
284.164	7.55
284.378	7.04
284.592	7.48
284.806	9.43
285.02	9.84
285.234	9.3
285.449	9.78
285.663	8.86
285.877	8.62
286.091	7.86
286.305	7.64
286.519	6.41
286.733	7.85
286.947	7.05
287.161	5.98
287.375	4.42
287.589	5.05
287.803	3.5
288.017	5.62
288.231	6.25
288.445	5.55
288.659	5.57
288.873	5.37
289.087	4.44
289.301	4.48
289.515	4.46
289.729	4.94
289.943	2.94
290.157	4.66
290.371	2.89
290.584	1.51
290.798	2.73
291.012	3.48
291.226	5.48
291.44	3.79
291.654	5.8
291.867	6.22
292.081	6.56
292.295	6.71
292.509	5.24
292.722	6.4
292.936	8.22
293.15	8.5
293.364	7.69
293.577	7.33
293.791	8.42
294.005	6.25
294.218	5.26
294.432	4.47
294.645	6.39
294.859	8.27
295.073	8.91
295.286	6.71
295.5	7.58
295.713	7.24
295.927	6.86
296.14	7.75
296.354	8.82
296.568	9.27
296.781	10.69
296.994	10.13
297.208	9.91
297.421	9.88
297.635	9.74
297.848	9.7
298.062	9.7
298.275	9.34
298.489	9.05
298.702	9.15
298.915	9.28
299.129	8.16
299.342	8.98
299.555	8.75
299.769	8.58
299.982	8.85
300.195	7.47
300.409	8.88
300.622	7.4
300.835	9.11
301.048	8.21
301.262	7.86
301.475	8.31
301.688	7.94
301.901	6.65
302.115	6.95
302.328	7.79
302.541	9.25
302.754	8.74
302.967	12.57
303.18	12.04
303.393	12.78
303.607	14.17
303.82	13.64
304.033	12.76
304.246	14.89
304.459	14.31
304.672	14.97
304.885	14.87
305.098	14.71
305.311	13.86
305.524	12.71
305.737	12.84
305.95	12.01
306.163	12.84
306.376	12.21
306.589	9.67
306.802	10.64
307.015	11.67
307.228	11.83
307.44	11.21
307.653	9.71
307.866	10.84
308.079	9.54
308.292	9.57
308.505	9.8
308.718	10.86
308.93	11.24
309.143	10.32
309.356	8.6
309.569	9.1
309.781	9.46
309.994	10.09
310.207	9.6
310.42	11.04
310.632	11.31
310.845	10.82
311.058	10.69
311.27	12.16
311.483	11.97
311.696	12.45
311.908	13.16
312.121	13.55
312.333	13.24
312.546	13.68
312.759	13.33
312.971	12.88
313.184	12.98
313.396	13.33
313.609	12.37
313.821	14.74
314.034	14.72
314.246	13.61
314.459	12.93
314.671	13.71
314.884	12.91
315.096	12.99
315.309	12.58
315.521	10.63
315.733	10.54
315.946	11.32
316.158	8.97
316.371	9.51
316.583	8.25
316.795	9.17
317.008	7.98
317.22	8.22
317.432	6.16
317.644	5.31
317.857	6.49
318.069	5.27
318.281	4.59
318.494	2.79
318.706	4.13
318.918	4.25
319.13	3.1
319.342	3.56
319.555	4.27
319.767	6.01
319.979	7.89
320.191	10.23
320.403	10.73
320.615	11.73
320.827	14.52
321.039	12.93
321.252	12.07
321.464	12.22
321.676	13.04
321.888	12.79
322.1	12.2
322.312	14.06
322.524	12.37
322.736	12.06
322.948	12.02
323.16	11.18
323.372	11.92
323.584	13.19
323.796	14.02
324.007	13.14
324.219	12.48
324.431	14.15
324.643	13.95
324.855	14.14
325.067	13.87
325.279	13.16
325.491	13.29
325.702	12.49
325.914	12.08
326.126	11.49
326.338	9.66
326.55	10.75
326.761	9.25
326.973	9.09
327.185	8.25
327.396	8.24
327.608	7.64
327.82	8.97
328.032	7.43
328.243	8.71
328.455	10.02
328.666	13.01
328.878	12.84
329.09	12.23
329.301	11.26
329.513	11.26
329.725	13.68
329.936	14.14
330.148	14.52
330.359	17.19
330.571	17.12
330.782	16.31
330.994	13.38
331.205	12.46
331.417	12.3
331.628	12.69
331.84	14.94
332.051	13.38
332.262	14.07
332.474	13.33
332.685	12.53
332.897	11.88
333.108	12.78
333.319	14
333.531	13.82
333.742	14.69
333.953	13.83
334.165	12.94
334.376	13.18
334.587	12.35
334.799	12.53
335.01	13.32
335.221	12.92
335.432	12.42
335.644	13.9
335.855	14.49
336.066	15.03
336.277	14.98
336.488	15.87
336.7	15.74
336.911	17.06
337.122	15.3
337.333	15.01
337.544	15.19
337.755	15.19
337.966	13.68
338.177	14.86
338.388	13.74
338.599	14.24
338.811	13.19
339.022	13.69
339.233	13.24
339.444	13.35
339.655	12.29
339.866	11.16
340.076	11.28
340.287	12.53
340.498	12.14
340.709	13.45
340.92	13.96
341.131	12.8
341.342	12.74
341.553	13.17
341.764	14.69
341.975	15.68
342.185	17.09
342.396	16.25
342.607	16.13
342.818	15.13
343.029	14.44
343.239	14.8
343.45	16.35
343.661	15.41
343.872	13.49
344.082	12.3
344.293	11.03
344.504	9.47
344.714	9.33
344.925	9.03
345.136	8.77
345.346	8.1
345.557	7.19
345.768	6.5
345.978	6.93
346.189	7.93
346.399	8.4
346.61	9.56
346.821	10.92
347.031	10.97
347.242	11.63
347.452	12.32
347.663	12.51
347.873	13.24
348.084	13
348.294	12.96
348.504	13.3
348.715	14.97
348.925	13.83
349.136	12.69
349.346	12.98
349.557	12.5
349.767	12.28
349.977	12.53
350.188	10.68
350.398	11.01
350.608	10.7
350.819	10.19
351.029	7.99
351.239	7.8
351.449	8.06
351.66	7.71
351.87	6.72
352.08	7.73
352.29	8.61
352.501	9.33
352.711	9.9
352.921	10.6
353.131	10.69
353.341	10.07
353.552	10.63
353.762	11.28
353.972	11.8
354.182	13.94
354.392	13.79
354.602	14.28
354.812	14.02
355.022	14.42
355.232	13.81
355.442	13.46
355.652	13.53
355.862	12.94
356.072	13.32
356.282	13.84
356.492	12.65
356.702	11.37
356.912	10.82
357.122	10.33
357.332	8.77
357.542	9.02
357.752	9.2
357.962	9.95
358.171	10.92
358.381	11.68
358.591	10.48
358.801	9.91
359.011	10.21
359.221	9.32
359.43	9.32
359.64	8.89
359.85	9.85
360.06	9.36
360.269	9.38
360.479	8.53
360.689	6.98
360.899	7.07
361.108	6.98
361.318	6.8
361.528	7.74
361.737	7.69
361.947	8.74
362.156	7.98
362.366	8.09
362.576	8.07
362.785	8.66
362.995	8.84
363.204	9.81
363.414	10.37
363.623	10.17
363.833	9.61
364.042	9.56
364.252	8.37
364.461	9.23
364.671	9.76
364.88	9.43
365.09	8.62
365.299	9.51
365.509	8.77
365.718	7.41
365.927	7.03
366.137	6.72
366.346	6.2
366.555	6.81
366.765	5.63
366.974	4.6
367.183	4.64
367.393	4.57
367.602	4.12
367.811	4.11
368.021	5.04
368.23	4.96
368.439	5.74
368.648	7.73
368.857	8.4
369.067	8.57
369.276	9.98
369.485	9.41
369.694	10.02
369.903	9.27
370.112	9.05
370.321	9.58
370.531	9.94
370.74	9.27
370.949	7.89
371.158	7.95
371.367	7.49
371.576	7.17
371.785	8.25
371.994	7.7
372.203	7.69
372.412	7.43
372.621	6.95
372.83	7.61
373.039	7.75
373.248	7.99
373.457	6.32
373.666	6.63
373.874	6.43
374.083	6.14
374.292	6.61
374.501	7.02
374.71	7.23
374.919	7.09
375.128	6.1
375.336	5.63
375.545	5.94
375.754	6.73
375.963	7.36
376.171	6.99
376.38	6.34
376.589	5.95
376.798	5.77
377.006	5.99
377.215	6.22
377.424	6.69
377.632	7.29
377.841	6.9
378.05	6.98
378.258	6.7
378.467	6.97
378.675	7.42
378.884	7.84
379.093	7.38
379.301	7.46
379.51	7.49
379.718	7.57
379.927	6.45
380.135	6.4
380.344	6.17
380.552	6.08
380.761	5.68
380.969	5.14
381.177	4.58
381.386	5.33
381.594	4.98
381.803	4.98
382.011	4.57
382.219	4.96
382.428	5.11
382.636	5.66
382.845	5.51
383.053	5.53
383.261	5.13
383.469	5.44
383.678	4.74
383.886	4.88
384.094	4.07
384.302	4.26
384.511	4.39
384.719	4.52
384.927	4.34
385.135	4.68
385.343	4.75
385.552	5.32
385.76	5.53
385.968	5.77
386.176	4.8
386.384	5.11
386.592	4.57
386.8	4.44
387.008	3.98
387.216	3.49
387.424	2.99
387.633	3.25
387.841	2.9
388.049	2.41
388.257	2.1
388.465	3.05
388.672	2.93
388.88	3.26
389.088	3.58
389.296	3.77
389.504	3.88
389.712	3.74
389.92	3.31
390.128	3.57
390.336	3.87
390.544	4.16
390.751	4.11
390.959	4.44
391.167	4.37
391.375	4.34
391.583	4.25
391.79	4.51
391.998	4.37
392.206	4.38
392.414	4.26
392.621	4.21
392.829	4.23
393.037	4.39
393.244	4.13
393.452	4.07
393.66	3.95
393.867	4.11
394.075	3.9
394.283	4.15
394.49	4.13
394.698	4.09
394.905	4.11
395.113	3.59
395.32	3.51
395.528	3.48
395.735	3.66
395.943	3.65
396.15	3.41
396.358	3.48
396.565	3.47
396.773	3.44
396.98	3.4
397.188	3.38
397.395	3.38
397.602	3.12
397.81	3.37
398.017	3.57
398.225	3.24
398.432	3.6
398.639	3.76
398.847	3.59
399.054	3.55
399.261	3.78
399.468	3.57
399.676	3.87
399.883	3.79
400.09	3.41
400.297	2.93
400.505	3.09
400.712	2.64
400.919	2.75
401.126	2.86
401.333	2.82
401.54	2.52
401.748	2.85
401.955	2.94
402.162	3.06
402.369	3.49
402.576	3.56
402.783	3.87
402.99	3.99
403.197	3.71
403.404	3.64
403.611	3.66
403.818	3.92
404.025	3.48
404.232	3.31
404.439	3.58
404.646	3.4
404.853	3.48
405.06	3.49
405.267	3.38
405.474	3.59
405.681	3.66
405.887	3.6
406.094	3.55
406.301	3.84
406.508	4.09
406.715	3.88
406.922	3.74
407.128	3.92
407.335	3.68
407.542	4.12
407.749	3.99
407.955	4.05
408.162	4.25
408.369	4.41
408.575	4.29
408.782	4.13
408.989	3.85
409.195	4.03
409.402	3.9
409.609	4.23
409.815	3.96
410.022	3.97
410.228	4.05
410.435	3.9
410.642	3.73
410.848	3.97
411.055	4.03
411.261	4.08
411.468	4.16
411.674	3.97
411.881	3.65
412.087	3.49
412.294	3.41
412.5	3.05
412.706	3.22
412.913	2.99
413.119	2.99
413.326	3.26
413.532	3.47
413.738	3.56
413.945	3.85
414.151	3.61
414.357	3.95
414.564	3.64
414.77	3.68
414.976	3.68
415.182	3.64
415.389	3.6
415.595	3.33
415.801	3.09
416.007	3.22
416.214	3.08
416.42	3.26
416.626	3.05
416.832	3.33
417.038	3.41
417.244	3.32
417.45	3.24
417.657	3.11
417.863	3.01
418.069	3.07
418.275	2.83
418.481	3.07
418.687	3.27
418.893	3.16
419.099	3.19
419.305	3.17
419.511	3.2
419.717	3.17
419.923	3.15
420.129	3.24
420.335	3.35
420.541	3.28
420.746	3.1
420.952	2.9
421.158	2.92
421.364	2.79
421.57	2.72
421.776	2.65
421.982	2.73
422.187	2.8
422.393	2.81
422.599	2.7
422.805	2.59
423.01	2.6
423.216	2.65
423.422	2.7
423.628	2.7
423.833	2.81
424.039	2.8
424.245	2.79
424.45	2.74
424.656	2.56
424.862	2.55
425.067	2.65
425.273	2.75
425.478	2.73
425.684	2.73
425.889	2.86
426.095	2.76
426.301	2.91
426.506	2.83
426.712	2.9
426.917	3.15
427.123	3.02
427.328	3.19
427.533	3.06
427.739	3
427.944	3.18
428.15	2.92
428.355	2.81
428.561	2.76
428.766	2.9
428.971	2.88
429.177	2.74
429.382	2.89
429.587	2.64
429.793	2.61
429.998	2.52
430.203	2.59
430.408	2.47
430.614	2.61
430.819	2.5
431.024	2.61
431.229	2.48
431.434	2.36
431.64	2.53
431.845	2.51
432.05	2.59
432.255	2.71
432.46	2.34
432.665	2.75
432.87	2.82
433.076	2.85
433.281	2.77
433.486	2.81
433.691	2.97
433.896	2.78
434.101	2.94
434.306	2.88
434.511	2.91
434.716	3.06
434.921	2.97
435.126	3.02
435.331	2.98
435.535	3.25
435.74	3.16
435.945	3.17
436.15	3.35
436.355	3.34
436.56	3.17
436.765	3.04
436.97	2.99
437.174	3.02
437.379	2.93
437.584	2.88
437.789	2.62
437.993	2.69
438.198	2.69
438.403	2.63
438.608	2.64
438.812	2.9
439.017	2.83
439.222	2.81
439.426	2.66
439.631	2.57
439.836	2.72
440.04	2.68
440.245	2.66
440.45	2.62
440.654	2.66
440.859	2.76
441.063	2.65
441.268	2.78
441.472	2.84
441.677	3.04
441.881	3.12
442.086	3.15
442.29	3.18
442.495	3.34
442.699	3.35
442.904	3.27
443.108	3.21
443.312	3.31
443.517	3.4
443.721	3.26
443.925	3.03
444.13	3.1
444.334	2.73
444.538	2.94
444.743	2.7
444.947	2.76
445.151	2.86
445.356	2.77
445.56	2.77
445.764	2.65
445.968	2.81
446.173	2.72
446.377	2.61
446.581	2.9
446.785	2.79
446.989	2.77
447.193	2.76
447.398	2.71
447.602	2.68
447.806	2.58
448.01	2.76
448.214	2.57
448.418	2.58
448.622	2.63
448.826	2.49
449.03	2.31
449.234	2.3
449.438	2.23
449.642	2.07
449.846	2.17
450.05	2.11
450.254	1.94
450.458	2.07
450.662	2.2
450.866	2.12
451.069	2.14
451.273	2.36
451.477	2.53
451.681	2.56
451.885	2.74
452.089	2.61
452.292	2.79
452.496	2.95
452.7	2.91
452.904	2.9
453.107	2.93
453.311	3.05
453.515	2.91
453.719	2.69
453.922	2.54
454.126	2.32
454.33	2.21
454.533	2
454.737	1.79
454.94	1.84
455.144	1.8
455.348	2
455.551	1.81
455.755	1.89
455.958	2.08
456.162	2.24
456.365	2.43
456.569	2.58
456.772	2.63
456.976	2.71
457.179	2.66
457.383	2.6
457.586	2.29
457.79	2.32
457.993	2.28
458.196	2.3
458.4	2.31
458.603	2.24
458.807	2.29
459.01	2.36
459.213	2.47
459.417	2.45
459.62	2.58
459.823	2.66
460.026	2.74
460.23	2.81
460.433	2.96
460.636	2.97
460.839	2.94
461.042	2.96
461.246	2.97
461.449	2.8
461.652	2.85
461.855	2.75
462.058	2.84
462.261	2.97
462.464	2.93
462.668	2.89
462.871	2.88
463.074	3.01
463.277	3
463.48	3.01
463.683	2.93
463.886	2.89
464.089	3.06
464.292	2.82
464.495	2.74
464.698	2.86
464.901	2.66
465.104	2.73
465.306	2.68
465.509	2.57
465.712	2.45
465.915	2.57
466.118	2.65
466.321	2.6
466.524	2.8
466.726	2.89
466.929	2.79
467.132	2.9
467.335	2.75
467.538	2.62
467.74	2.65
467.943	2.7
468.146	2.63
468.348	2.49
468.551	2.25
468.754	2.32
468.956	2.06
469.159	2.06
469.362	1.99
469.564	2.02
469.767	2.12
469.969	2.09
470.172	2.06
470.375	2.08
470.577	2.14
470.78	2.49
470.982	2.31
471.185	2.43
471.387	2.6
471.59	2.59
471.792	2.53
471.995	2.67
472.197	2.78
472.399	2.89
472.602	3.01
472.804	3.21
473.007	3.08
473.209	3.15
473.411	3.06
473.614	2.93
473.816	2.89
474.018	2.92
474.22	2.83
474.423	2.56
474.625	2.39
474.827	2.41
475.03	2.13
475.232	2.18
475.434	2.38
475.636	2.43
475.838	2.38
476.04	2.35
476.243	2.38
476.445	2.4
476.647	2.54
476.849	2.73
477.051	2.75
477.253	2.86
477.455	2.71
477.657	2.57
477.859	2.45
478.061	2.53
478.263	2.62
478.465	2.71
478.667	2.81
478.869	2.89
479.071	2.81
479.273	2.76
479.475	2.68
479.677	2.63
479.879	2.63
480.081	2.65
480.283	2.58
480.485	2.48
480.686	2.35
480.888	2.2
481.09	2.21
481.292	2.16
481.494	2.24
481.695	2.36
481.897	2.35
482.099	2.35
482.301	2.48
482.502	2.48
482.704	2.53
482.906	2.58
483.107	2.59
483.309	2.57
483.511	2.64
483.712	2.59
483.914	2.59
484.115	2.69
484.317	2.75
484.519	2.74
484.72	2.74
484.922	2.74
485.123	2.75
485.325	2.84
485.526	2.86
485.728	2.84
485.929	2.87
486.131	2.82
486.332	2.79
486.534	2.67
486.735	2.66
486.936	2.7
487.138	2.66
487.339	2.7
487.541	2.59
487.742	2.63
487.943	2.58
488.144	2.57
488.346	2.59
488.547	2.5
488.748	2.54
488.95	2.58
489.151	2.52
489.352	2.54
489.553	2.48
489.755	2.62
489.956	2.6
490.157	2.63
490.358	2.53
490.559	2.54
490.76	2.55
490.961	2.56
491.163	2.5
491.364	2.61
491.565	2.61
491.766	2.55
491.967	2.5
492.168	2.38
492.369	2.43
492.57	2.59
492.771	2.57
492.972	2.63
493.173	2.67
493.374	2.64
493.575	2.56
493.776	2.59
493.976	2.74
494.177	2.8
494.378	2.91
494.579	2.82
494.78	2.64
494.981	2.74
495.182	2.78
495.382	2.74
495.583	2.78
495.784	2.79
495.985	2.83
496.185	2.81
496.386	2.68
496.587	2.66
496.788	2.69
496.988	2.8
497.189	2.73
497.39	2.71
497.59	2.81
497.791	2.86
497.992	2.85
498.192	2.81
498.393	2.68
498.593	2.77
498.794	2.76
498.994	2.74
499.195	2.59
499.395	2.56
499.596	2.55
499.796	2.38
499.997	2.32
500.197	2.39
500.398	2.28
500.598	2.22
500.799	2.18
500.999	2.23
501.199	2.4
501.4	2.48
501.6	2.37
501.801	2.35
502.001	2.29
502.201	2.29
502.402	2.01
502.602	2.1
502.802	2.3
503.002	2.42
503.203	2.64
503.403	2.48
503.603	2.48
503.803	2.64
504.003	2.74
504.204	2.95
504.404	3.03
504.604	3.13
504.804	3.13
505.004	3.07
505.204	2.95
505.404	2.89
505.604	2.98
505.804	3.06
506.005	2.96
506.205	2.96
506.405	2.87
506.605	2.84
506.805	2.98
507.005	3.04
507.204	3.15
507.404	3.07
507.604	2.98
507.804	3.1
508.004	3.17
508.204	3.19
508.404	2.96
508.604	2.98
508.804	2.96
509.003	2.89
509.203	2.84
509.403	2.83
509.603	2.95
509.803	2.87
510.002	2.77
510.202	2.61
510.402	2.66
510.602	2.85
510.801	2.9
511.001	2.92
511.201	2.96
511.4	3.05
511.6	3.13
511.8	3.08
511.999	3.17
512.199	3.07
512.398	3.13
512.598	3.13
512.797	3.13
512.997	3.02
513.197	2.93
513.396	2.91
513.596	2.83
513.795	2.92
513.994	2.94
514.194	3.04
514.393	3.02
514.593	2.97
514.792	2.95
514.992	3.03
515.191	3.22
515.39	3.29
515.59	3.37
515.789	3.37
515.988	3.19
516.188	3.03
516.387	2.95
516.586	3.08
516.786	3.2
516.985	3.25
517.184	3.23
517.383	3.08
517.582	3.05
517.782	3.04
517.981	3.1
518.18	3.13
518.379	3.25
518.578	3.29
518.777	3.35
518.976	3.31
519.176	3.2
519.375	3.26
519.574	3.33
519.773	3.44
519.972	3.45
520.171	3.43
520.37	3.32
520.569	3.27
520.768	3.3
520.967	3.11
521.166	3.31
521.365	3.4
521.564	3.24
521.762	3.27
521.961	3.2
522.16	3.11
522.359	3.26
522.558	3.34
522.757	3.25
522.956	3.1
523.154	3.29
523.353	3.16
523.552	3.33
523.751	3.35
523.949	3.42
524.148	3.38
524.347	3.43
524.546	3.41
524.744	3.38
524.943	3.46
525.142	3.51
525.34	3.49
525.539	3.47
525.737	3.45
525.936	3.45
526.135	3.35
526.333	3.34
526.532	3.44
526.73	3.39
526.929	3.41
527.127	3.38
527.326	3.43
527.524	3.43
527.723	3.4
527.921	3.36
528.12	3.44
528.318	3.55
528.516	3.58
528.715	3.59
528.913	3.55
529.112	3.54
529.31	3.56
529.508	3.58
529.707	3.6
529.905	3.64
530.103	3.62
530.301	3.62
530.5	3.51
530.698	3.47
530.896	3.36
531.094	3.38
531.293	3.43
531.491	3.51
531.689	3.43
531.887	3.39
532.085	3.39
532.283	3.46
532.481	3.43
532.68	3.49
532.878	3.55
533.076	3.58
533.274	3.63
533.472	3.74
533.67	3.67
533.868	3.83
534.066	3.9
534.264	3.93
534.462	3.97
534.66	4.03
534.858	4.04
535.056	4.12
535.253	4.17
535.451	4.16
535.649	4.15
535.847	4.26
536.045	4.14
536.243	4.04
536.441	4.01
536.638	4
536.836	3.94
537.034	3.89
537.232	3.81
537.43	3.81
537.627	3.84
537.825	3.7
538.023	3.8
538.22	3.75
538.418	3.91
538.616	4
538.813	4.01
539.011	4.06
539.209	4.19
539.406	4.26
539.604	4.32
539.801	4.33
539.999	4.29
540.196	4.09
540.394	4.22
540.591	4.11
540.789	4.14
540.986	4.19
541.184	4.19
541.381	4.24
541.579	4.24
541.776	4.25
541.974	4.22
542.171	4.28
542.368	4.4
542.566	4.45
542.763	4.55
542.96	4.55
543.158	4.62
543.355	4.57
543.552	4.58
543.75	4.6
543.947	4.54
544.144	4.69
544.341	4.69
544.539	4.67
544.736	4.62
544.933	4.59
545.13	4.67
545.327	4.6
545.524	4.72
545.722	4.64
545.919	4.61
546.116	4.72
546.313	4.73
546.51	4.93
546.707	5.02
546.904	5.14
547.101	5.08
547.298	5.01
547.495	5.05
547.692	5.16
547.889	5.14
548.086	5.25
548.283	5.32
548.48	5.24
548.677	5.23
548.874	5.12
549.07	5.11
549.267	5.23
549.464	5.35
549.661	5.3
549.858	5.31
550.055	5.57
550.251	5.72
550.448	5.58
550.645	5.69
550.842	5.58
551.038	5.81
551.235	5.68
551.432	5.79
551.628	5.76
551.825	5.89
552.022	5.92
552.218	6.01
552.415	6
552.612	6.17
552.808	6.2
553.005	6.22
553.201	6
553.398	6.02
553.594	6.13
553.791	6.14
553.987	6.21
554.184	6.28
554.38	6.38
554.577	6.36
554.773	6.38
554.97	6.34
555.166	6.25
555.362	6.56
555.559	6.59
555.755	6.56
555.952	6.81
556.148	6.78
556.344	6.65
556.541	6.27
556.737	6.42
556.933	6.41
557.129	6.78
557.326	6.88
557.522	6.84
557.718	7.05
557.914	7.07
558.11	7.11
558.307	7.19
558.503	7.39
558.699	7.63
558.895	7.53
559.091	7.58
559.287	7.32
559.483	7.82
559.679	8.03
559.876	8.04
560.072	7.98
560.268	8.11
560.464	8.08
560.66	8.1
560.856	8.03
561.052	8
561.247	8.13
561.443	8.37
561.639	7.91
561.835	7.73
562.031	7.79
562.227	7.93
562.423	7.8
562.619	8.16
562.815	8.34
563.01	8.43
563.206	8.67
563.402	8.81
563.598	8.81
563.793	9.27
563.989	9.47
564.185	9.62
564.381	9.57
564.576	9.57
564.772	9.61
564.968	9.44
565.163	9.51
565.359	9.62
565.555	9.59
565.75	9.52
565.946	9.43
566.141	9.45
566.337	9.42
566.532	9.64
566.728	9.77
566.923	9.66
567.119	9.63
567.314	9.75
567.51	9.67
567.705	9.81
567.901	9.94
568.096	10.07
568.292	10.19
568.487	10.04
568.682	9.95
568.878	9.96
569.073	10.09
569.268	10.47
569.464	10.6
569.659	10.66
569.854	10.36
570.05	10.23
570.245	10.14
570.44	10.03
570.635	10.28
570.831	10.42
571.026	10.49
571.221	10.38
571.416	10.17
571.611	9.99
571.806	10.01
572.002	10.33
572.197	10.44
572.392	10.5
572.587	10.55
572.782	10.63
572.977	10.65
573.172	10.6
573.367	10.67
573.562	10.77
573.757	10.84
573.952	10.97
574.147	11.05
574.342	11.07
574.537	11.17
574.732	11.15
574.927	11.04
575.121	11.09
575.316	11.15
575.511	11.13
575.706	10.91
575.901	10.86
576.096	10.92
576.29	10.77
576.485	10.59
576.68	10.62
576.875	10.57
577.069	10.8
577.264	10.82
577.459	10.85
577.654	10.98
577.848	11.29
578.043	11.36
578.238	11.16
578.432	11.32
578.627	11.74
578.821	11.6
579.016	11.88
579.21	11.6
579.405	11.63
579.6	11.45
579.794	11.61
579.989	11.86
580.183	12.36
580.378	12.56
580.572	12.71
580.766	12.97
580.961	13.05
581.155	13.05
581.35	13.15
581.544	12.95
581.738	13.2
581.933	13.22
582.127	12.97
582.321	12.74
582.516	12.73
582.71	12.62
582.904	12.27
583.099	12.22
583.293	12.33
583.487	12.58
583.681	12.95
583.875	12.93
584.07	12.79
584.264	12.95
584.458	12.93
584.652	12.81
584.846	13.03
585.04	13.1
585.234	13.37
585.428	13.27
585.623	13.03
585.817	13.07
586.011	13.04
586.205	13.12
586.399	13.04
586.593	12.85
586.787	12.92
586.981	12.68
587.174	12.75
587.368	12.46
587.562	12.65
587.756	12.64
587.95	12.53
588.144	12.6
588.338	12.66
588.532	12.96
588.725	12.93
588.919	13.18
589.113	13.37
589.307	13.31
589.501	13.45
589.694	13.17
589.888	13.1
590.082	13.18
590.275	13.37
590.469	13.48
590.663	13.31
590.856	13.46
591.05	13.51
591.244	13.43
591.437	13.62
591.631	13.77
591.824	14
592.018	14.07
592.212	14.03
592.405	13.89
592.599	13.74
592.792	13.87
592.986	14.06
593.179	13.97
593.372	13.97
593.566	13.99
593.759	13.75
593.953	13.61
594.146	13.65
594.339	13.41
594.533	13.24
594.726	13.16
594.92	13.18
595.113	13.16
595.306	12.96
595.499	12.9
595.693	12.96
595.886	13.14
596.079	13.36
596.272	13.31
596.466	13.43
596.659	13.55
596.852	13.65
597.045	13.43
597.238	13.51
597.431	13.72
597.624	13.82
597.818	13.76
598.011	13.74
598.204	13.63
598.397	13.53
598.59	13.39
598.783	13.53
598.976	13.53
599.169	13.78
599.362	13.75
599.555	13.75
599.748	13.54
599.941	13.68
600.134	13.61
600.326	13.59
600.519	13.83
600.712	13.92
600.905	13.56
601.098	13.54
601.291	13.41
601.483	13.27
601.676	13.03
601.869	13.3
602.062	13.22
602.255	13.22
602.447	13.35
602.64	13.47
602.833	13.71
603.025	13.96
603.218	13.98
603.411	14
603.603	14.05
603.796	14.07
603.989	13.82
604.181	13.72
604.374	13.89
604.566	13.88
604.759	13.84
604.951	13.66
605.144	13.81
605.336	13.77
605.529	13.63
605.721	13.69
605.914	13.73
606.106	14.11
606.299	14.11
606.491	13.99
606.683	13.94
606.876	13.92
607.068	13.95
607.26	13.79
607.453	13.89
607.645	14.28
607.837	14.13
608.03	14.28
608.222	13.97
608.414	14.05
608.606	14.12
608.799	13.93
608.991	14
609.183	13.99
609.375	13.83
609.567	13.83
609.759	13.47
609.952	13.49
610.144	13.26
610.336	12.98
610.528	12.93
610.72	12.98
610.912	12.95
611.104	12.83
611.296	13.06
611.488	13
611.68	12.85
611.872	13.05
612.064	13.01
612.256	13.18
612.448	13.46
612.64	13.43
612.832	13.26
613.023	13.63
613.215	13.93
613.407	13.78
613.599	13.77
613.791	13.93
613.983	13.69
614.174	13.68
614.366	13.59
614.558	13.55
614.75	13.4
614.941	13.42
615.133	13.06
615.325	12.83
615.516	12.74
615.708	12.88
615.9	12.7
616.091	12.93
616.283	13.33
616.475	13.63
616.666	14
616.858	13.96
617.049	13.94
617.241	14.45
617.432	14.52
617.624	14.63
617.815	14.64
618.007	14.66
618.198	14.59
618.39	14.33
618.581	14.11
618.773	14.03
618.964	14.26
619.155	14.09
619.347	13.84
619.538	13.95
619.729	13.91
619.921	14.09
620.112	14.32
620.303	14.39
620.494	14.28
620.686	14.41
620.877	14.53
621.068	14.46
621.259	14.82
621.451	14.91
621.642	14.72
621.833	14.87
622.024	14.94
622.215	15.05
622.406	14.94
622.597	15.03
622.788	15.02
622.98	14.84
623.171	14.96
623.362	14.96
623.553	14.9
623.744	14.72
623.935	14.63
624.126	14.49
624.317	14.39
624.508	14.38
624.698	14.36
624.889	14.46
625.08	14.63
625.271	14.51
625.462	14.4
625.653	14.36
625.844	14.55
626.034	14.46
626.225	14.44
626.416	14.53
626.607	14.64
626.798	14.66
626.988	14.78
627.179	14.66
627.37	14.71
627.56	14.66
627.751	14.6
627.942	14.71
628.132	14.75
628.323	14.74
628.514	14.44
628.704	14.49
628.895	14.57
629.085	14.27
629.276	14.27
629.466	14.32
629.657	14.13
629.847	14.02
630.038	13.93
630.228	13.84
630.419	13.79
630.609	14.04
630.8	14.19
630.99	14.07
631.181	13.99
631.371	13.84
631.561	13.66
631.752	14.06
631.942	14.02
632.132	13.82
632.323	13.86
632.513	13.87
632.703	13.77
632.893	13.69
633.084	13.57
633.274	13.67
633.464	13.95
633.654	14.22
633.844	13.97
634.034	14.03
634.225	14.15
634.415	14.08
634.605	14.45
634.795	14.35
634.985	14.14
635.175	14.55
635.365	14.49
635.555	13.98
635.745	13.97
635.935	14.27
636.125	14.53
636.315	14.7
636.505	14.72
636.695	14.06
636.885	14.39
637.075	14.49
637.265	14.39
637.455	14.54
637.644	14.63
637.834	14.59
638.024	14.07
638.214	14.14
638.404	13.75
638.593	13.9
638.783	14.04
638.973	13.83
639.163	13.79
639.352	13.06
639.542	13.06
639.732	13.48
639.921	13.34
640.111	13.58
640.301	13.42
640.49	13.81
640.68	14.06
640.87	14.48
641.059	14.48
641.249	14.5
641.438	15.02
641.628	14.9
641.817	14.9
642.007	15.1
642.196	15.16
642.386	15.1
642.575	15.18
642.764	14.39
642.954	14.29
643.143	14.4
643.333	14.43
643.522	14.48
643.711	14.26
643.901	14.13
644.09	14.09
644.279	14.09
644.469	14.06
644.658	13.97
644.847	14.57
645.036	14.49
645.226	14.39
645.415	14.48
645.604	14.79
645.793	15.15
645.982	15.16
646.171	15.14
646.361	15.39
646.55	15.67
646.739	15.5
646.928	15.23
647.117	15.36
647.306	15.28
647.495	15.14
647.684	14.61
647.873	14.4
648.062	14.06
648.251	13.74
648.44	13.55
648.629	13.8
648.818	13.53
649.007	13.57
649.196	13.69
649.384	13.59
649.573	13.58
649.762	13.87
649.951	13.84
650.14	14.34
650.328	15
650.517	15.18
650.706	14.72
650.895	14.85
651.083	14.72
651.272	14.64
651.461	14.47
651.65	14.16
651.838	14.21
652.027	14.33
652.216	14.18
652.404	13.11
652.593	13.01
652.781	13.16
652.97	13.51
653.158	14.05
653.347	13.87
653.535	14.11
653.724	14.62
653.912	14.62
654.101	14.32
654.289	14.32
654.478	15.16
654.666	15.13
654.855	15.03
655.043	14.9
655.231	14.59
655.42	14.58
655.608	14.61
655.796	14.64
655.985	14.53
656.173	14.68
656.361	14.68
656.55	14.47
656.738	14.33
656.926	14.2
657.114	13.94
657.302	13.89
657.491	13.54
657.679	13.7
657.867	13.58
658.055	13.79
658.243	13.91
658.431	13.83
658.619	13.42
658.807	13.7
658.996	13.67
659.184	13.94
659.372	14.16
659.56	14.64
659.748	14.41
659.936	14.53
660.124	14.35
660.311	14.29
660.499	14.43
660.687	14.72
660.875	14.28
661.063	14.24
661.251	13.95
661.439	14.16
661.627	14.12
661.814	14.76
662.002	14.13
662.19	13.93
662.378	14.55
662.565	14.5
662.753	14.8
662.941	14.98
663.129	14.63
663.316	15.17
663.504	14.91
663.692	14.75
663.879	13.68
664.067	14.44
664.254	14.65
664.442	13.95
664.63	13.52
664.817	13.18
665.005	13.17
665.192	13.95
665.38	13.75
665.567	13.34
665.755	13.09
665.942	13.63
666.13	13.24
666.317	13.35
666.504	13.4
666.692	13.61
666.879	14.19
667.067	14.04
667.254	13.67
667.441	13.84
667.629	13.74
667.816	14.36
668.003	14.57
668.19	14.45
668.378	14.72
668.565	15.22
668.752	15.19
668.939	15.34
669.127	15.58
669.314	15.58
669.501	15.41
669.688	16.06
669.875	15.89
670.062	15.79
670.249	16.04
670.436	15.7
670.623	14.8
670.81	15.04
670.997	14.93
671.184	15.15
671.371	15.29
671.558	15.07
671.745	14.67
671.932	14.58
672.119	14.08
672.306	14.25
672.493	14.42
672.68	14.91
672.867	14.71
673.054	14.19
673.24	14.17
673.427	14.19
673.614	14.67
673.801	15.16
673.988	15.19
674.174	15.59
674.361	15.72
674.548	15.84
674.734	15.42
674.921	15.59
675.108	15.4
675.294	15.32
675.481	15.44
675.668	15.19
675.854	14.79
676.041	14.7
676.227	14.65
676.414	14.56
676.601	14.08
676.787	14.44
676.974	14.77
677.16	15.05
677.347	15.24
677.533	14.96
677.719	14.91
677.906	14.78
678.092	14.84
678.279	14.8
678.465	14.79
678.651	14.83
678.838	15.16
679.024	14.96
679.21	14.74
679.397	14.66
679.583	15.06
679.769	15.03
679.955	15.31
680.142	15.57
680.328	15.64
680.514	15.25
680.7	15.51
680.886	15.29
681.073	15.2
681.259	15.39
681.445	15.31
681.631	15.13
681.817	15.11
682.003	14.81
682.189	14.22
682.375	14.8
682.561	14.87
682.747	14.76
682.933	14.77
683.119	15
683.305	14.94
683.491	14.69
683.677	14.81
683.863	14.73
684.049	14.97
684.235	15
684.42	14.51
684.606	14.75
684.792	14.86
684.978	15.2
685.164	15.27
685.349	15.5
685.535	15.42
685.721	15.54
685.907	15.96
686.092	15.44
686.278	15.52
686.464	15.94
686.649	16.13
686.835	15.89
687.021	15.28
687.206	14.88
687.392	14.32
687.577	14.94
687.763	14.54
687.948	14.3
688.134	15.05
688.319	15.08
688.505	14.54
688.69	14.29
688.876	14.8
689.061	15.07
689.247	15.35
689.432	16.15
689.618	16.06
689.803	16.44
689.988	16.32
690.174	15.6
690.359	15.64
690.544	15.51
690.73	15.71
690.915	15.81
691.1	15.4
691.285	15.64
691.471	15.01
691.656	14.48
691.841	13.8
692.026	14.15
692.211	14.49
692.396	14.28
692.582	14
692.767	13.91
692.952	13.43
693.137	13.9
693.322	13.52
693.507	14.17
693.692	14.48
693.877	14.64
694.062	14.55
694.247	14.32
694.432	13.86
694.617	14.26
694.802	13.85
694.987	14.11
695.172	13.99
695.357	13.7
695.541	13.24
695.726	13.22
695.911	13.68
696.096	13.49
696.281	14.22
696.466	15.09
696.65	15.08
696.835	15.74
697.02	15.51
697.204	15.7
697.389	15.86
697.574	16.02
697.759	15.93
697.943	15.84
698.128	15.93
698.312	15.95
698.497	15.74
698.682	15.38
698.866	15.43
699.051	15.48
699.235	15.29
699.42	15.26
699.604	14.92
699.789	14.83
699.973	14.4
700.158	13.94
700.342	13.93
700.527	13.84
700.711	14.39
700.895	14.16
701.08	13.87
701.264	13.4
701.448	13.61
701.633	13.68
701.817	13.72
702.001	14.46
702.186	14.95
702.37	15.11
702.554	14.91
702.738	14.51
702.923	14.41
703.107	14.81
703.291	15.84
703.475	15.87
703.659	16.37
703.843	16.5
704.027	16.84
704.212	16.89
704.396	16.81
704.58	17.18
704.764	17.45
704.948	17.19
705.132	17.22
705.316	17
705.5	17.17
705.684	16.31
705.868	15.79
706.052	15.68
706.235	16.28
706.419	15.51
706.603	15.35
706.787	15.08
706.971	15.5
707.155	15.11
707.339	15.66
707.522	15.02
707.706	16.13
707.89	16.47
708.074	16.15
708.257	15.34
708.441	15.06
708.625	14.9
708.808	14.65
708.992	14.94
709.176	14.67
709.359	13.49
709.543	13.87
709.727	13.5
709.91	13.44
710.094	12.96
710.277	13.67
710.461	14.32
710.644	14.88
710.828	15.36
711.011	14.98
711.195	15.74
711.378	16.65
711.562	16.59
711.745	16.83
711.928	16.85
712.112	17.29
712.295	16.8
712.478	16.43
712.662	16.29
712.845	16.2
713.028	15.64
713.212	15.8
713.395	15.36
713.578	15.69
713.761	15.84
713.945	16.94
714.128	16.21
714.311	16.45
714.494	16.13
714.677	15.73
714.86	14.86
715.043	15.15
715.227	14.54
715.41	14.45
715.593	13.73
715.776	13.68
715.959	12.52
716.142	13.15
716.325	12.47
716.508	12.21
716.691	12.63
716.874	13.09
717.057	13.69
717.239	13.08
717.422	12.9
717.605	12.93
717.788	12.65
717.971	13.39
718.154	13.21
718.337	14.06
718.519	14.79
718.702	14.75
718.885	15.76
719.068	14.03
719.25	14.5
719.433	15.6
719.616	15.48
719.798	15.2
719.981	15.25
720.164	14.97
720.346	14.49
720.529	14.22
720.712	13.93
720.894	12.72
721.077	13.41
721.259	13.25
721.442	11.86
721.624	12.46
721.807	13.9
721.989	13.48
722.172	13.72
722.354	13.44
722.537	14.56
722.719	15.94
722.901	16.01
723.084	15.81
723.266	16.23
723.448	16.47
723.631	16.01
723.813	14.32
723.995	13.45
724.178	12.36
724.36	12.36
724.542	11.82
724.724	10.77
724.907	11.95
725.089	12.76
725.271	13.03
725.453	13.53
725.635	13.84
725.817	13.77
725.999	15.28
726.181	16.47
726.364	16.73
726.546	16.95
726.728	17.48
726.91	15.94
727.092	15.69
727.274	14.69
727.456	14.45
727.638	14.96
727.819	14.45
728.001	14.24
728.183	14.48
728.365	14.47
728.547	13.84
728.729	12.97
728.911	13.86
729.093	13.96
729.274	14.76
729.456	14.77
729.638	14.35
729.82	15.02
730.001	15.03
730.183	14.7
730.365	15.72
730.546	15.5
730.728	16.22
730.91	16.13
731.091	16.97
731.273	17.54
731.455	17.62
731.636	17.41
731.818	17.52
731.999	16.09
732.181	15.83
732.362	13.95
732.544	13.71
732.725	13.88
732.907	14.31
733.088	13.59
733.27	13.02
733.451	13.07
733.633	13.47
733.814	13.51
733.995	14.31
734.177	14.71
734.358	15.69
734.539	16.75
734.721	17.03
734.902	16.56
735.083	16.32
735.264	16.19
735.446	16.28
735.627	15.56
735.808	15.5
735.989	15.69
736.17	15.91
736.351	16.76
736.533	17.37
736.714	16.75
736.895	16.26
737.076	17.27
737.257	17.66
737.438	17.6
737.619	18.27
737.8	17.84
737.981	18.03
738.162	18.63
738.343	17.36
738.524	16.44
738.705	17.43
738.886	17.79
739.067	16.96
739.247	15.92
739.428	16.38
739.609	16.15
739.79	16.53
739.971	17.22
740.151	15.93
740.332	17.09
740.513	17.12
740.694	16.68
740.874	17.37
741.055	16.78
741.236	18.16
741.417	18.02
741.597	17.06
741.778	17.32
741.958	16.59
742.139	17.49
742.32	15.15
742.5	15.13
742.681	13.98
742.861	12.94
743.042	13.99
743.222	13.67
743.403	13.01
743.583	14.26
743.764	14.34
743.944	14.69
744.124	14.53
744.305	15.27
744.485	15.06
744.666	14.58
744.846	14.59
745.026	13.95
745.207	14.48
745.387	14.84
745.567	14.18
745.747	13.56
745.928	12.91
746.108	11.78
746.288	12.11
746.468	12.26
746.648	12.69
746.829	14.95
747.009	15.68
747.189	14.61
747.369	15.32
747.549	16.16
747.729	15.84
747.909	15.22
748.089	14.79
748.269	16.1
748.449	16.18
748.629	16.34
748.809	14.6
748.989	14.02
749.169	13.87
749.349	12.12
749.529	12.01
749.709	12.82
749.889	13.2
750.068	14.6
750.248	12.97
750.428	13.09
750.608	12.94
750.788	13.9
750.967	14.41
751.147	14.32
751.327	14.47
751.507	14.59
751.686	15.03
751.866	14.78
752.046	15.87
752.225	16.75
752.405	16.67
752.585	16.65
752.764	15.67
752.944	15.46
753.123	16.44
753.303	17.35
753.482	16
753.662	15.33
753.841	15.96
754.021	14.88
754.2	16.04
754.38	16.46
754.559	16.86
754.739	16.33
754.918	16.99
755.097	16.16
755.277	16.63
755.456	17.3
755.635	16.62
755.815	16.02
755.994	16.43
756.173	15.08
756.352	12.98
756.532	12.37
756.711	12.96
756.89	11.15
757.069	10.75
757.248	9.16
757.427	10.08
757.607	10.99
757.786	10.56
757.965	9.86
758.144	10.82
758.323	12.47
758.502	12.03
758.681	12.39
758.86	13.89
759.039	14.32
759.218	15.11
759.397	14.1
759.576	13.38
759.755	14.7
759.934	14.22
760.113	13.73
760.291	14.41
760.47	15.4
760.649	15.34
760.828	14.83
761.007	15.84
761.186	15.75
761.364	15.31
761.543	16.23
761.722	16.98
761.901	17.5
762.079	18.18
762.258	17.09
762.437	18.47
762.615	18.17
762.794	18.02
762.972	17.16
763.151	17.16
763.33	17.23
763.508	17.76
763.687	17.17
763.865	16.26
764.044	15.5
764.222	16.24
764.401	14.65
764.579	15.92
764.758	16.39
764.936	16.37
765.114	16.12
765.293	16.62
765.471	15.93
765.65	16.91
765.828	17.53
766.006	17.11
766.184	16.72
766.363	17.82
766.541	15.42
766.719	15.01
766.898	14.92
767.076	14.43
767.254	14.71
767.432	16.09
767.61	14.84
767.788	15.94
767.967	17.61
768.145	16.4
768.323	16.29
768.501	16.64
768.679	16.94
768.857	16.3
769.035	18.56
769.213	17.44
769.391	14.86
769.569	13.42
769.747	12.11
769.925	9.02
770.103	11.94
770.281	12.28
770.459	14.18
770.636	12.03
770.814	11.08
770.992	8.52
771.17	11.38
771.348	12.41
771.525	14.28
771.703	15.48
771.881	15.79
772.059	14.36
772.236	13.19
772.414	11.67
772.592	14.11
772.769	16.04
772.947	16.44
773.125	14
773.302	14.29
773.48	14.55
773.657	12.66
773.835	12.69
774.013	13.16
774.19	13.92
774.368	14.6
774.545	14.32
774.723	15.28
774.9	13.97
775.077	13.52
775.255	12.95
775.432	11.77
775.61	15.51
775.787	15.54
775.964	14.93
776.142	12.82
776.319	11.07
776.496	9.96
776.674	8.61
776.851	10.13
777.028	10.49
777.205	11.56
777.382	12.42
777.56	9.22
777.737	10.32
777.914	10.54
778.091	12.44
778.268	14.3
778.445	14.12
778.622	15.93
778.8	15.99
778.977	16.04
779.154	15.45
779.331	13.86
779.508	15.82
779.685	14.51
779.862	12.41
780.038	10.62
780.215	10.15
780.392	10.34
780.569	8.21
780.746	7.82
780.923	6.41
781.1	5.05
781.277	4.97
781.453	5.01
781.63	7.45
781.807	9.38
781.984	10.59
782.16	10.7
782.337	12.53
782.514	13.37
782.691	15.35
782.867	15.73
783.044	17.76
783.221	19.05
783.397	17.42
783.574	15.96
783.75	15.73
783.927	15.84
784.103	16.38
784.28	14.89
784.456	15.52
784.633	15.61
784.809	18.2
784.986	16.31
785.162	16.02
785.339	16.95
785.515	20.52
785.692	20.61
785.868	19.14
786.044	18.81
786.221	19.7
786.397	17.59
786.573	15.16
786.749	16.26
786.926	17.07
787.102	16.47
787.278	17.36
787.454	12.19
787.631	13.54
787.807	12.91
787.983	13.94
788.159	15.02
788.335	15.96
788.511	16.29
788.687	12.3
788.863	11.57
789.039	12.06
789.216	12.98
789.392	14.05
789.568	14.22
789.744	17.03
789.919	15.96
790.095	12.66
790.271	11.25
790.447	11.25
790.623	13.24
790.799	15.52
790.975	16.11
791.151	11.65
791.327	13.16
791.502	12.09
791.678	11.41
791.854	14.24
792.03	15.21
792.205	16.33
792.381	18.66
792.557	17.59
792.733	15.27
792.908	15.66
793.084	16.16
793.259	13.92
793.435	12.45
793.611	11.06
793.786	7.7
793.962	8.79
794.137	8.71
794.313	9.36
794.488	10.51
794.664	11.31
794.839	9.53
795.015	12.81
795.19	16.21
795.366	16.93
795.541	17.11
795.716	16.98
795.892	17.03
796.067	18.08
796.242	17.28
796.418	18.59
796.593	17.06
796.768	17.83
796.944	15.48
797.119	17.64
797.294	15.76
797.469	14.88
797.644	16.38
797.82	17.38
797.995	17.93
798.17	17.09
798.345	14.29
798.52	16.76
798.695	16
798.87	16.3
799.045	13.21
799.22	12.09
799.395	14.46
799.57	14.81
799.745	13.05
799.92	9.78
800.095	7.99
800.27	10.47
800.445	11.01
800.62	12.54
800.795	12.89
800.97	12.12
801.145	17.17
801.319	14.19
801.494	14.36
801.669	16.76
801.844	19.66
802.018	21.44
802.193	23.39
802.368	19.41
802.543	16.56
802.717	16.95
802.892	20.73
803.067	17.29
803.241	19.82
803.416	16.85
803.59	11.89
803.765	11.2
803.94	5.17
804.114	3.15
804.289	7.42
804.463	10.72
804.638	12.28
804.812	8.1
804.986	10.4
805.161	12.07
805.335	12.32
805.51	13.78
805.684	15.65
805.858	19.23
806.033	18.44
806.207	17.07
806.381	14.25
806.556	13.65
806.73	11.11
806.904	10.25
807.078	6.47
807.253	7.98
807.427	9.73
807.601	5.74
807.775	3.57
807.949	-0.25
808.123	3.51
808.298	7.43
808.472	4.22
808.646	4.18
808.82	3.47
808.994	6.23
809.168	3.67
809.342	4.7
809.516	8.8
809.69	10.4
809.864	10.31
810.038	7.04
810.212	8.83
810.385	10
810.559	10.91
810.733	9.92
810.907	7.96
811.081	10.41
811.255	10.42
811.428	7.23
811.602	7.59
811.776	10.66
811.95	4.62
812.123	-1.66
812.297	0.46
812.471	3.45
812.644	2.74
812.818	8.53
812.992	6.98
813.165	5.27
813.339	6.35
813.512	6.44
813.686	8.32
813.86	15.14
814.033	19.51
814.207	17.82
814.38	15.42
814.554	15.38
814.727	7.26
814.9	4.51
815.074	6.65
815.247	4.3
815.421	3.62
815.594	-0.7
815.767	3.91
815.941	1.32
816.114	1.83
816.287	3.21
816.46	6.46
816.634	13.4
816.807	14.14
816.98	13.31
817.153	15.09
817.327	15.06
817.5	17.07
817.673	12.8
817.846	16.92
818.019	17.25
818.192	18.67
818.365	14.28
818.538	10.4
818.711	13.6
818.884	9.29
819.057	9.8
819.23	12.24
819.403	12.51
819.576	12.84
819.749	11.83
819.922	12.45
820.095	11.39
820.268	13.73
820.441	9.83
820.614	8.7
820.786	11.41
820.959	12.06
821.132	12.73
821.305	14.93
821.477	13.88
821.65	14.94
821.823	14.68
821.996	15.22
822.168	15.95
822.341	17.85
822.514	18.34
822.686	18.9
822.859	18.22
823.031	18.67
823.204	17.34
823.376	17.87
823.549	17.64
823.722	18.08
823.894	17.6
824.067	18.28
824.239	17.46
824.411	17.75
824.584	17.46
824.756	18.69
824.929	17.79
825.101	18.74
825.273	18.63
825.446	17.45
825.618	16.72
825.79	18.49
825.963	16.27
826.135	16.88
826.307	16.46
826.479	16.12
826.652	14.59
826.824	14.58
826.996	13.47
827.168	12.35
827.34	12.94
827.512	12.52
827.684	10.85
827.856	11.85
828.029	11.99
828.201	10.97
828.373	12.03
828.545	13.35
828.717	12.82
828.889	13.37
829.061	14.59
829.232	15.52
829.404	17.7
829.576	17.75
829.748	18.51
829.92	16.89
830.092	17.41
830.264	13.74
830.436	14.75
830.607	15.59
830.779	15.66
830.951	16.24
831.123	14.79
831.294	13.16
831.466	14.77
831.638	12.73
831.809	11.55
831.981	12.35
832.153	13.86
832.324	9.27
832.496	8.38
832.667	9.16
832.839	7.46
833.011	8.79
833.182	8.97
833.354	8.47
833.525	11.71
833.697	15.13
833.868	16.49
834.039	17.6
834.211	16.03
834.382	17.36
834.554	17.2
834.725	17.74
834.896	17.33
835.068	17.65
835.239	16.58
835.41	15.23
835.581	16.03
835.753	14.29
835.924	12.88
836.095	14.41
836.266	11.37
836.438	12.1
836.609	12.04
836.78	9.95
836.951	5.55
837.122	5.85
837.293	5.38
837.464	4.99
837.635	2.68
837.806	2.24
837.977	3.51
838.148	6.98
838.319	4.92
838.49	2.63
838.661	4.35
838.832	6.8
839.003	6.44
839.174	11.49
839.345	4.74
839.516	6.9
839.687	6.99
839.857	7.11
840.028	6.15
840.199	9.5
840.37	9.72
840.54	11.67
840.711	13.03
840.882	16.33
841.053	12.23
841.223	14.98
841.394	15.89
841.564	11
841.735	12.73
841.906	12.48
842.076	8.72
842.247	13.25
842.417	5.82
842.588	5.82
842.758	3.49
842.929	3.87
843.099	3.86
843.27	4.49
843.44	17.51
843.611	10.08
843.781	9.75
843.951	14.18
844.122	7.28
844.292	16.45
844.462	6.25
844.633	-1.29
844.803	-7.07
844.973	4.94
845.144	7.01
845.314	2.17
845.484	0.58
845.654	8.33
845.824	3.81
845.995	8.69
846.165	11.85
846.335	17.84
846.505	30.82
846.675	36.08
846.845	19.03
847.015	25.92
847.185	27.88
847.355	33.46
847.525	21.89
847.695	29.42
847.865	19.62
848.035	18.64
848.205	15.83
848.375	12.55
848.545	3.13
848.715	15.66
848.884	-4.15
849.054	-8.44
849.224	-0.18
849.394	-8.48
849.564	-14.16
849.733	-5.16
849.903	-12.84
850.073	-13.23
850.243	-17.9
850.412	-0.89
850.582	-12.97
850.752	-8.06
850.921	-14.01
851.091	-9.89
851.26	2.2
851.43	-4.2
851.599	1.59
851.769	-9.86
851.939	-9.52
852.108	-14.82
852.278	-14.69
852.447	-8.4
852.616	-6.23
852.786	-0.57
852.955	-15.36
853.125	-27.79
853.294	-29.27
853.463	-57.1
853.633	-40.35
853.802	-29.94
853.971	-28.54
854.141	-56.18
854.31	-71.36
854.479	-67.23
854.648	-53.23
854.818	-32.3
854.987	-15.67
855.156	-13.57
855.325	-4.6
855.494	5.71
855.663	18.65
855.832	9.02
856.001	8.4
856.171	16.34
856.34	4.09
856.509	-7.03
856.678	-11.36
856.847	-19.14
857.016	-0.48
857.185	-1.25
857.353	-17.68
857.522	-42.3
857.691	-22.03
857.86	-7.83
858.029	-5.92
858.198	0.87
858.367	15.33
858.535	10.6
858.704	21.07
858.873	14.4
859.042	18.94
859.21	26.09
859.379	34.14
859.548	29.96
859.717	25.66
859.885	24.45
860.054	35.19
860.222	27.22
860.391	27.92
860.56	19.35
860.728	20.99
860.897	26.22
861.065	28.7
861.234	19.45
861.402	24.2
861.571	26.81
861.739	29.02
861.908	13.2
862.076	3.23
862.244	11.68
862.413	11.29
862.581	1.62
862.749	-13.87
862.918	-25.93
863.086	-17.62
863.254	-8.58
863.423	-4.78
863.591	-3.77
863.759	11.19
863.927	25.6
864.096	22.51
864.264	31.28
864.432	31.16
864.6	25
864.768	19.76
864.936	16.39
865.104	-3.05
865.272	-3.44
865.44	-14.42
865.608	-13.11
865.776	-13.97
865.944	-7.5
866.112	-12.55
866.28	-10.15
866.448	-8.49
866.616	-7.71
866.784	-2.41
866.952	10.19
867.12	6.65
867.288	7.25
867.455	7.41
867.623	17.69
867.791	17.53
867.959	28.88
868.127	24.03
868.294	31.15
868.462	21
868.63	16.49
868.797	9.45
868.965	11.19
869.133	19.82
869.3	20.59
869.468	8.16
869.636	-6.57
869.803	-20.79
869.971	-20.71
870.138	-31.38
870.306	-6.01
870.473	-10.8
870.641	-11.6
870.808	-14.29
870.975	-28.1
871.143	-33.67
871.31	-15.2
871.478	-8.57
871.645	-12.12
871.812	-12.83
871.98	-11.84
872.147	-12.41
872.314	-2.28
872.482	3.8
872.649	5.49
872.816	-8.6
872.983	-5.15
873.15	-18.63
873.318	-33.77
873.485	-15.43
873.652	-1.62
873.819	6.66
873.986	-2.31
874.153	-5.78
874.32	-15.78
874.487	-21.3
874.654	-7.6
874.821	2.7
874.988	16.14
875.155	16.24
875.322	3.43
875.489	-3.43
875.656	-19.82
875.823	-17.13
875.99	-14.37
876.157	-7.71
876.324	-9.14
876.49	-1.35
876.657	-0.03
876.824	-8.43
876.991	2.56
877.157	15.81
877.324	13.35
877.491	19.74
877.658	21.84
877.824	22.6
877.991	20.61
878.157	35.5
878.324	39.26
878.491	28.36
878.657	32.41
878.824	30.58
878.99	22.66
879.157	30.39
879.323	24.39
879.49	26.87
879.656	26.83
879.823	35.06
879.989	19.84
880.156	22.39
880.322	24.78
880.488	32.11
880.655	27.36
880.821	18.52
880.987	6.02
881.154	9.74
881.32	16.38
881.486	9.18
881.652	16.54
881.819	19.59
881.985	15.58
882.151	15.64
882.317	12.87
882.483	16.18
882.649	17.67
882.816	19.78
882.982	22.5
883.148	19.89
883.314	20.72
883.48	19.82
883.646	19.71
883.812	21.81
883.978	21.93
884.144	23.91
884.31	23.21
884.476	23.74
884.642	22.32
884.807	23.47
884.973	22.38
885.139	21.65
885.305	21.92
885.471	22.93
885.637	20.27
885.802	17.96
885.968	17.21
886.134	11.91
886.3	6.3
886.465	5.98
886.631	4.56
886.797	12.19
886.962	8.49
887.128	5.59
887.293	-0.11
887.459	-8.54
887.625	-10.73
887.79	-15.32
887.956	-14.28
888.121	-9.51
888.287	-8.59
888.452	-20.69
888.618	-35
888.783	-30.14
