Data from 2938125_Reflection_3.txt Node
Date: Sat Jul 11 17:28:38 EDT 2015
User: robert
Spectrometer: USB4E03001
Autoset integration time: false
Trigger mode: 4
Integration Time (sec): 1.000000E-1
Scans to average: 10
Electric dark correction enabled: true
Nonlinearity correction enabled: false
Boxcar width: 5
Stray light correction enabled: false
XAxis mode: Wavelengths
Stop averaging: false
Number of Pixels in Spectrum: 3648
>>>>>Begin Spectral Data<<<<<
177.566	68.05
177.785	-2447.06
178.005	326.9
178.225	1381.25
178.445	102.31
178.665	122.61
178.885	258.65
179.105	529.86
179.324	-214.09
179.544	-19.6
179.764	96.74
179.984	137.11
180.204	144.47
180.423	128.73
180.643	101.01
180.863	109.61
181.083	92.85
181.302	78.62
181.522	86.82
181.742	91.84
181.961	103.91
182.181	79.89
182.401	60.68
182.621	80.21
182.84	84.12
183.06	112.94
183.279	79.02
183.499	100.46
183.719	132.91
183.938	108.98
184.158	84.28
184.377	72.59
184.597	76.92
184.816	70.94
185.036	68.34
185.256	62.31
185.475	67.13
185.695	79.24
185.914	65.25
186.134	67.84
186.353	58.96
186.572	59.92
186.792	52.62
187.011	43.23
187.231	47.61
187.45	54.75
187.67	68.48
187.889	38.12
188.108	39.74
188.328	43.88
188.547	33.84
188.766	44.5
188.986	60.37
189.205	58.28
189.424	70.02
189.644	62.59
189.863	52.8
190.082	23.61
190.302	52.2
190.521	51.36
190.74	69.68
190.959	75.72
191.178	66.16
191.398	72.71
191.617	73.45
191.836	48.9
192.055	49.07
192.274	52.43
192.494	55.06
192.713	58.58
192.932	43.38
193.151	32.15
193.37	24.47
193.589	28.48
193.808	23.49
194.027	34.16
194.246	42.52
194.465	45.7
194.685	34.75
194.904	40.33
195.123	19.89
195.342	48.63
195.561	52.96
195.78	106.51
195.999	83.24
196.218	76.33
196.436	44.96
196.655	53.44
196.874	46.96
197.093	53.08
197.312	47.87
197.531	52.85
197.75	52.28
197.969	50.33
198.188	42.89
198.407	29.06
198.625	19.65
198.844	29.41
199.063	29.93
199.282	29.75
199.501	25.94
199.719	30.38
199.938	27.89
200.157	23.65
200.376	26.13
200.594	27.63
200.813	47.02
201.032	54.34
201.251	50.61
201.469	39.96
201.688	48.89
201.907	44.82
202.125	52.52
202.344	40.45
202.563	44.55
202.781	43.37
203	47.67
203.218	51.42
203.437	54.35
203.656	66.73
203.874	69.77
204.093	72.87
204.311	75.92
204.53	77.56
204.748	101.17
204.967	115.27
205.185	104.85
205.404	100.65
205.622	99.71
205.841	98.35
206.059	93.2
206.278	124.62
206.496	95.02
206.715	89.67
206.933	70.09
207.151	71.44
207.37	71.08
207.588	69.13
207.806	72.09
208.025	64.06
208.243	68.61
208.461	64.45
208.68	44.34
208.898	44.56
209.116	47.74
209.335	59.1
209.553	51.41
209.771	50.89
209.989	65.83
210.208	61.01
210.426	91.86
210.644	91.96
210.862	86.18
211.081	98.55
211.299	93.95
211.517	107.17
211.735	102.34
211.953	92.28
212.171	69.76
212.39	59.71
212.608	65.71
212.826	49
213.044	37.33
213.262	43.41
213.48	51.36
213.698	50.08
213.916	18.03
214.134	9.52
214.352	-17.32
214.57	27.72
214.788	32.14
215.006	28.94
215.224	37.28
215.442	33.4
215.66	51.97
215.878	26.56
216.096	48.18
216.314	47.9
216.532	55.46
216.75	61.34
216.968	53.09
217.185	57.21
217.403	59.66
217.621	65.42
217.839	71.39
218.057	61.97
218.275	77.1
218.492	54.26
218.71	83.32
218.928	100.23
219.146	82.08
219.363	80.52
219.581	71.91
219.799	69.59
220.017	64.62
220.234	61.22
220.452	68.15
220.67	62.96
220.887	60.01
221.105	54.04
221.323	44.92
221.54	48.44
221.758	60.15
221.976	59.17
222.193	55.92
222.411	58.68
222.629	72.99
222.846	48.75
223.064	41.18
223.281	54.55
223.499	41.65
223.716	30.55
223.934	37.25
224.151	32.5
224.369	30.34
224.586	36.56
224.804	34.59
225.021	28.63
225.239	34.45
225.456	29.78
225.674	24.84
225.891	21.53
226.108	22.15
226.326	17.56
226.543	14.24
226.76	17.12
226.978	19.28
227.195	13
227.413	12.98
227.63	11.16
227.847	12.41
228.064	11.71
228.282	13.27
228.499	11.56
228.716	11.48
228.934	9.29
229.151	8.23
229.368	8.49
229.585	9.47
229.802	8.37
230.02	12.09
230.237	12.15
230.454	12.8
230.671	11.18
230.888	12.3
231.105	12.07
231.323	13.71
231.54	15.36
231.757	15.19
231.974	15.73
232.191	16.27
232.408	10.94
232.625	11.91
232.842	16.16
233.059	18.25
233.276	20.01
233.493	20.18
233.71	21.86
233.927	17.03
234.144	14.86
234.361	19.11
234.578	20.39
234.795	22.09
235.012	22.32
235.229	15.57
235.446	18.89
235.663	20.51
235.879	20.41
236.096	18.24
236.313	24.63
236.53	25.89
236.747	25.76
236.964	24.3
237.181	22.85
237.397	21.53
237.614	25.78
237.831	20.97
238.048	21.59
238.264	20
238.481	20.02
238.698	13.93
238.915	13.14
239.131	8.47
239.348	7.71
239.565	7.04
239.781	10.97
239.998	9.4
240.215	10.7
240.431	9.08
240.648	7.71
240.865	9.44
241.081	10.1
241.298	7.6
241.514	8
241.731	8.3
241.947	7.5
242.164	5.88
242.38	5.1
242.597	3.99
242.814	4
243.03	5.11
243.246	6.14
243.463	5.23
243.679	6.83
243.896	7.86
244.112	7.7
244.329	6.75
244.545	9.36
244.762	11.05
244.978	11.99
245.194	10.24
245.411	9.24
245.627	5.25
245.843	6.81
246.06	4.5
246.276	2.96
246.492	1.7
246.709	4.2
246.925	2.28
247.141	1.83
247.357	1.16
247.574	1.79
247.79	1.98
248.006	1.89
248.222	2.01
248.439	2.67
248.655	3.41
248.871	4.94
249.087	4.24
249.303	3.85
249.519	4.41
249.736	6.22
249.952	6.48
250.168	8.04
250.384	9.25
250.6	7.77
250.816	9.04
251.032	9.58
251.248	7.45
251.464	5.89
251.68	6.5
251.896	5.82
252.112	5.33
252.328	7.21
252.544	6.24
252.76	7.27
252.976	7.68
253.192	7.63
253.408	7.64
253.624	9.33
253.84	11.48
254.056	14.67
254.272	13.9
254.487	13.54
254.703	9.8
254.919	7.82
255.135	7.41
255.351	5.96
255.567	7.23
255.782	3.28
255.998	1.63
256.214	0.9
256.43	-3.55
256.646	-0.81
256.861	0.62
257.077	2.9
257.293	3.86
257.508	2.74
257.724	3.06
257.94	1.53
258.155	3.98
258.371	3.82
258.587	2.83
258.802	3.4
259.018	2.19
259.234	1.2
259.449	0.42
259.665	0.58
259.88	1.14
260.096	0.77
260.312	0.39
260.527	0.04
260.743	0.62
260.958	0.97
261.174	1.03
261.389	1.7
261.605	2.69
261.82	4.13
262.036	4.67
262.251	4.64
262.466	5.86
262.682	6.59
262.897	7.09
263.113	7.3
263.328	6.86
263.543	6.45
263.759	5.85
263.974	6.3
264.189	3.2
264.405	3.66
264.62	2.47
264.835	3.27
265.051	4.69
265.266	4.05
265.481	2.93
265.696	4.36
265.912	6.04
266.127	6.62
266.342	5.18
266.557	6.26
266.773	4.62
266.988	5.97
267.203	5.44
267.418	4.72
267.633	3.67
267.848	4.31
268.064	3.49
268.279	4.52
268.494	3.62
268.709	3.63
268.924	3.81
269.139	5.1
269.354	4.09
269.569	3.76
269.784	3.31
269.999	4.9
270.214	4.29
270.429	5.55
270.644	2.48
270.859	4.12
271.074	3.29
271.289	3.32
271.504	3.61
271.719	3.82
271.934	4.8
272.149	4.06
272.363	3.67
272.578	3.39
272.793	2.89
273.008	3.29
273.223	2.22
273.438	3.58
273.653	4.86
273.867	5.29
274.082	6.12
274.297	5.53
274.512	7.61
274.726	8.16
274.941	8.43
275.156	8.45
275.371	10.4
275.585	10.81
275.8	10.78
276.015	9.93
276.229	9.07
276.444	8.73
276.659	7.52
276.873	7.07
277.088	7.75
277.302	7.88
277.517	8.03
277.732	7.18
277.946	6.73
278.161	7.97
278.375	7.32
278.59	7.23
278.804	4.8
279.019	6.73
279.233	6.82
279.448	5.56
279.662	5.76
279.877	5.75
280.091	4.93
280.306	5.21
280.52	5.07
280.735	4.9
280.949	4.24
281.163	7.05
281.378	6.74
281.592	6.22
281.806	6.98
282.021	8.27
282.235	10.03
282.449	10.23
282.664	9.23
282.878	7.64
283.092	8.63
283.307	8.13
283.521	7.12
283.735	7.12
283.949	7.99
284.164	6.76
284.378	4.43
284.592	2.51
284.806	2.19
285.02	4.63
285.234	4.79
285.449	3.65
285.663	4.46
285.877	4.42
286.091	4.41
286.305	4.24
286.519	4.6
286.733	5.66
286.947	5.55
287.161	4.68
287.375	4.05
287.589	4.28
287.803	5.57
288.017	5.17
288.231	3.49
288.445	2.99
288.659	2.34
288.873	3.87
289.087	3.72
289.301	3.47
289.515	3.88
289.729	1.92
289.943	1.4
290.157	-0.11
290.371	0.52
290.584	3.07
290.798	3.2
291.012	3.12
291.226	1.33
291.44	0.47
291.654	1.68
291.867	2.8
292.081	3.86
292.295	4.12
292.509	5.22
292.722	5.86
292.936	5.93
293.15	7.43
293.364	8.14
293.577	8.73
293.791	10.89
294.005	10.62
294.218	11.38
294.432	11.49
294.645	11.57
294.859	10.48
295.073	9.83
295.286	9.07
295.5	7.02
295.713	6.28
295.927	7.05
296.14	6.45
296.354	6.06
296.568	4.14
296.781	4.8
296.994	4.95
297.208	5.01
297.421	5.13
297.635	4.2
297.848	3.9
298.062	3.73
298.275	3.33
298.489	3.28
298.702	3.39
298.915	4.36
299.129	3.73
299.342	4.22
299.555	6.08
299.769	5.73
299.982	6.39
300.195	7.67
300.409	9.38
300.622	9.37
300.835	8.95
301.048	8.97
301.262	9.8
301.475	11.2
301.688	11.53
301.901	10.03
302.115	9.47
302.328	10.31
302.541	10.25
302.754	8.37
302.967	9.77
303.18	9.76
303.393	9.45
303.607	9.54
303.82	9.23
304.033	8.17
304.246	8.92
304.459	9.31
304.672	8.9
304.885	9.77
305.098	10.66
305.311	10.24
305.524	10.66
305.737	10.85
305.95	11.23
306.163	10.21
306.376	8.33
306.589	8.39
306.802	8.96
307.015	9.95
307.228	9.61
307.44	9.37
307.653	8.7
307.866	8.1
308.079	8.06
308.292	7.24
308.505	6.84
308.718	8.17
308.93	8.05
309.143	8.09
309.356	6.74
309.569	7.04
309.781	6.63
309.994	6.9
310.207	7.62
310.42	6.92
310.632	6.92
310.845	7.9
311.058	8.7
311.27	7.33
311.483	7.6
311.696	7.75
311.908	7.66
312.121	7.47
312.333	7.61
312.546	7.48
312.759	8.38
312.971	8.43
313.184	6.96
313.396	7.64
313.609	8.46
313.821	8.72
314.034	8.66
314.246	9.59
314.459	11.97
314.671	10.57
314.884	10.72
315.096	11.76
315.309	14.84
315.521	15.36
315.733	15.29
315.946	15.38
316.158	14.7
316.371	15.31
316.583	13.26
316.795	12.81
317.008	14.17
317.22	14.43
317.432	12.43
317.644	9.42
317.857	8.66
318.069	7.78
318.281	8.78
318.494	8.8
318.706	8.94
318.918	9.56
319.13	9.34
319.342	8.02
319.555	8.59
319.767	9.43
319.979	9.33
320.191	10.29
320.403	10.22
320.615	10.25
320.827	9.83
321.039	10.26
321.252	11.77
321.464	11.27
321.676	13
321.888	11.82
322.1	12.72
322.312	11.82
322.524	12.43
322.736	13.1
322.948	12.22
323.16	12.38
323.372	11.18
323.584	10.13
323.796	11.09
324.007	8.63
324.219	7.94
324.431	7.4
324.643	8.75
324.855	7.37
325.067	6.86
325.279	7.61
325.491	9.34
325.702	8.96
325.914	9.25
326.126	7.98
326.338	9.75
326.55	9.71
326.761	10.57
326.973	10.82
327.185	11.96
327.396	12.18
327.608	11.49
327.82	11.4
328.032	13.53
328.243	13.35
328.455	13.07
328.666	13.31
328.878	13.58
329.09	11.5
329.301	11.23
329.513	10.44
329.725	9.95
329.936	11.31
330.148	10.3
330.359	8.6
330.571	8.77
330.782	10.17
330.994	8.44
331.205	9.77
331.417	10.53
331.628	10.25
331.84	12.27
332.051	11.62
332.262	11.44
332.474	10.78
332.685	11.21
332.897	10.33
333.108	10.42
333.319	12.21
333.531	11.72
333.742	12.93
333.953	13.02
334.165	13.17
334.376	13.67
334.587	12.59
334.799	11.68
335.01	11.66
335.221	11.61
335.432	11.32
335.644	9.75
335.855	8.8
336.066	8.75
336.277	7.83
336.488	6.5
336.7	6.36
336.911	8.08
337.122	8.24
337.333	8.61
337.544	10.13
337.755	9.35
337.966	9.96
338.177	10.94
338.388	10.49
338.599	10.5
338.811	10.36
339.022	10.7
339.233	8.62
339.444	10.17
339.655	9.9
339.866	9.81
340.076	11.41
340.287	12.46
340.498	13.54
340.709	14.02
340.92	15.01
341.131	16.17
341.342	16.65
341.553	17.59
341.764	17.92
341.975	18.99
342.185	17.99
342.396	16.68
342.607	16.03
342.818	15.3
343.029	15.66
343.239	14.92
343.45	14.06
343.661	13.63
343.872	13.86
344.082	13.58
344.293	12.89
344.504	13.89
344.714	13.47
344.925	14.15
345.136	13.94
345.346	12.95
345.557	13.01
345.768	13.24
345.978	13.99
346.189	14.02
346.399	13.55
346.61	12.49
346.821	12.2
347.031	13.64
347.242	12.94
347.452	13.99
347.663	14.82
347.873	15.38
348.084	15.15
348.294	15.44
348.504	15
348.715	14.87
348.925	16.1
349.136	16.33
349.346	16.78
349.557	17.11
349.767	16.66
349.977	16.4
350.188	14.68
350.398	15.21
350.608	13.76
350.819	14.12
351.029	15.21
351.239	15.34
351.449	15
351.66	13.61
351.87	13.65
352.08	12.88
352.29	12.9
352.501	15.14
352.711	15.11
352.921	15.75
353.131	15.26
353.341	14.82
353.552	14.76
353.762	13.74
353.972	14.35
354.182	14.08
354.392	15.01
354.602	15.16
354.812	14.14
355.022	13.78
355.232	14.01
355.442	14.71
355.652	14.36
355.862	13.68
356.072	14.63
356.282	14.75
356.492	14.52
356.702	14.75
356.912	14.32
357.122	14.79
357.332	15.73
357.542	15.46
357.752	14.67
357.962	14.82
358.171	15.19
358.381	15.44
358.591	15.13
358.801	15.55
359.011	14.89
359.221	14.82
359.43	15.41
359.64	14.67
359.85	15.92
360.06	16.47
360.269	17.06
360.479	16.6
360.689	16.27
360.899	16.78
361.108	16.5
361.318	17.61
361.528	17.16
361.737	17.18
361.947	17.69
362.156	16.57
362.366	16.85
362.576	16
362.785	16.3
362.995	16.27
363.204	16.22
363.414	16.3
363.623	14.94
363.833	15.84
364.042	14.96
364.252	14.69
364.461	14.5
364.671	13.89
364.88	14.43
365.09	14.51
365.299	15.05
365.509	14.61
365.718	14.26
365.927	14.86
366.137	15.56
366.346	15.21
366.555	15.16
366.765	16.86
366.974	17.15
367.183	17.38
367.393	18.31
367.602	18.03
367.811	18.91
368.021	19.32
368.23	18.98
368.439	18.16
368.648	19.48
368.857	19.65
369.067	19
369.276	19.19
369.485	19.54
369.694	18.4
369.903	18.88
370.112	17.51
370.321	17.4
370.531	17.71
370.74	17.7
370.949	17.52
371.158	18.07
371.367	17.4
371.576	17.51
371.785	17.4
371.994	18.53
372.203	18.56
372.412	19.23
372.621	19.54
372.83	19.44
373.039	19.86
373.248	19.95
373.457	19.56
373.666	20.16
373.874	19.56
374.083	19.63
374.292	19.14
374.501	18.74
374.71	18.91
374.919	19.2
375.128	18.93
375.336	18.29
375.545	17.85
375.754	18.02
375.963	17.42
376.171	17.54
376.38	17.25
376.589	17.42
376.798	17.4
377.006	17.15
377.215	17.05
377.424	16.78
377.632	17.79
377.841	17.86
378.05	17.46
378.258	17.77
378.467	18.24
378.675	18.25
378.884	18.17
379.093	18.64
379.301	18.72
379.51	18.78
379.718	19.2
379.927	18.47
380.135	18.68
380.344	19.36
380.552	20.24
380.761	19.74
380.969	20.06
381.177	19.86
381.386	20.2
381.594	20.4
381.803	20.21
382.011	20.06
382.219	20.59
382.428	20.62
382.636	20.18
382.845	20.12
383.053	20.73
383.261	20.37
383.469	20.97
383.678	20.39
383.886	20.21
384.094	20.51
384.302	21.34
384.511	21.29
384.719	21.61
384.927	21.8
385.135	21.66
385.343	21.96
385.552	22.29
385.76	21.51
385.968	21.97
386.176	22.27
386.384	22.25
386.592	21.95
386.8	22.55
387.008	22.64
387.216	22.84
387.424	23.04
387.633	22.97
387.841	22.83
388.049	23.71
388.257	23.45
388.465	23.36
388.672	23.66
388.88	23.95
389.088	23.62
389.296	23.65
389.504	23.36
389.712	23.53
389.92	23.57
390.128	23.47
390.336	22.92
390.544	23.17
390.751	23.35
390.959	23.29
391.167	23.27
391.375	23.15
391.583	22.95
391.79	23.2
391.998	22.99
392.206	22.84
392.414	23.04
392.621	23.37
392.829	23.46
393.037	23.66
393.244	24.07
393.452	24.19
393.66	24.51
393.867	24.98
394.075	25.11
394.283	25.24
394.49	25.65
394.698	26.1
394.905	26.34
395.113	26.5
395.32	26.52
395.528	26.42
395.735	26.7
395.943	26.44
396.15	26.44
396.358	26.52
396.565	26.64
396.773	26.68
396.98	26.45
397.188	26.62
397.395	26.47
397.602	27.25
397.81	27.33
398.017	27.5
398.225	27.95
398.432	27.82
398.639	28.15
398.847	28.36
399.054	28.28
399.261	28.75
399.468	28.59
399.676	28.84
399.883	28.95
400.09	29.61
400.297	29.59
400.505	30.18
400.712	30.58
400.919	30.41
401.126	30.65
401.333	30.96
401.54	30.9
401.748	31.08
401.955	31.21
402.162	30.52
402.369	30.08
402.576	29.82
402.783	29.28
402.99	29.42
403.197	29.54
403.404	29.56
403.611	29.7
403.818	29.56
404.025	29.56
404.232	29.91
404.439	30.2
404.646	30.31
404.853	30.48
405.06	30.61
405.267	30.42
405.474	30.3
405.681	30.18
405.887	30.04
406.094	30.29
406.301	30.56
406.508	30.06
406.715	29.96
406.922	30.02
407.128	29.85
407.335	29.74
407.542	29.87
407.749	29.86
407.955	29.91
408.162	29.76
408.369	29.79
408.575	29.91
408.782	30.64
408.989	30.51
409.195	30.43
409.402	30.79
409.609	31.11
409.815	31.29
410.022	31.74
410.228	31.71
410.435	31.94
410.642	31.9
410.848	31.65
411.055	31.24
411.261	31.52
411.468	31.25
411.674	31.2
411.881	31.1
412.087	31.1
412.294	30.92
412.5	31.1
412.706	30.8
412.913	30.92
413.119	30.9
413.326	30.95
413.532	30.91
413.738	30.98
413.945	31.12
414.151	30.7
414.357	30.43
414.564	30.41
414.77	30.27
414.976	30.38
415.182	30.07
415.389	29.94
415.595	29.63
415.801	29.3
416.007	29.21
416.214	28.9
416.42	28.94
416.626	29.26
416.832	29.17
417.038	29.27
417.244	29.37
417.45	29.45
417.657	29.71
417.863	29.73
418.069	29.98
418.275	30.02
418.481	30.27
418.687	30.49
418.893	30.42
419.099	30.36
419.305	30.26
419.511	30.15
419.717	30.07
419.923	29.88
420.129	30.01
420.335	29.88
420.541	29.87
420.746	29.63
420.952	29.49
421.158	29.29
421.364	29.36
421.57	29.36
421.776	29.38
421.982	29.4
422.187	29.31
422.393	29.27
422.599	29.31
422.805	29.33
423.01	29.44
423.216	29.56
423.422	29.52
423.628	29.47
423.833	29.33
424.039	29.36
424.245	29.35
424.45	29.39
424.656	29.31
424.862	29.25
425.067	29.26
425.273	29.27
425.478	29.2
425.684	29.2
425.889	29.3
426.095	29.5
426.301	29.4
426.506	29.42
426.712	29.38
426.917	29.32
427.123	29.22
427.328	29.22
427.533	29.07
427.739	28.99
427.944	28.96
428.15	28.9
428.355	28.74
428.561	28.84
428.766	29.05
428.971	29.36
429.177	29.56
429.382	29.71
429.587	29.59
429.793	29.66
429.998	29.76
430.203	30.09
430.408	29.78
430.614	29.85
430.819	29.83
431.024	29.69
431.229	29.5
431.434	29.42
431.64	29.33
431.845	29.34
432.05	29.3
432.255	29.24
432.46	28.86
432.665	29.16
432.87	29.25
433.076	29.28
433.281	29.3
433.486	29.33
433.691	29.47
433.896	29.65
434.101	29.65
434.306	29.75
434.511	29.89
434.716	30.33
434.921	30.26
435.126	30.38
435.331	30.54
435.535	30.6
435.74	30.45
435.945	30.29
436.15	30.2
436.355	30.38
436.56	30.24
436.765	30.28
436.97	29.97
437.174	29.8
437.379	29.69
437.584	29.6
437.789	29.42
437.993	29.54
438.198	29.45
438.403	29.45
438.608	29.19
438.812	29.28
439.017	29.07
439.222	29.14
439.426	29.18
439.631	29
439.836	28.82
440.04	28.97
440.245	29
440.45	29.17
440.654	29.23
440.859	29.49
441.063	29.35
441.268	29.36
441.472	29.43
441.677	29.42
441.881	29.5
442.086	29.61
442.29	29.38
442.495	29.36
442.699	29.33
442.904	29.35
443.108	29.18
443.312	29.24
443.517	29.18
443.721	29.05
443.925	29.04
444.13	29.02
444.334	28.93
444.538	29.01
444.743	29.04
444.947	28.85
445.151	28.81
445.356	28.77
445.56	28.76
445.764	28.74
445.968	28.74
446.173	28.8
446.377	28.7
446.581	28.78
446.785	28.84
446.989	28.71
447.193	28.82
447.398	28.74
447.602	28.72
447.806	28.78
448.01	28.83
448.214	28.67
448.418	28.65
448.622	28.75
448.826	28.82
449.03	28.72
449.234	28.74
449.438	28.69
449.642	28.75
449.846	28.55
450.05	28.43
450.254	28.32
450.458	28.32
450.662	28.2
450.866	28.26
451.069	28.07
451.273	28.03
451.477	28.06
451.681	27.88
451.885	27.85
452.089	28.1
452.292	28.12
452.496	28.35
452.7	28.59
452.904	28.56
453.107	28.64
453.311	28.58
453.515	28.67
453.719	28.6
453.922	28.7
454.126	28.79
454.33	28.78
454.533	28.91
454.737	28.72
454.94	28.65
455.144	28.65
455.348	28.46
455.551	28.51
455.755	28.59
455.958	28.59
456.162	28.61
456.365	28.46
456.569	28.56
456.772	28.42
456.976	28.59
457.179	28.61
457.383	28.6
457.586	28.63
457.79	28.83
457.993	28.71
458.196	28.68
458.4	28.79
458.603	28.81
458.807	28.79
459.01	28.88
459.213	28.85
459.417	28.94
459.62	29.01
459.823	28.95
460.026	28.8
460.23	28.84
460.433	28.96
460.636	28.9
460.839	28.79
461.042	28.81
461.246	28.9
461.449	28.79
461.652	28.69
461.855	28.71
462.058	28.93
462.261	28.94
462.464	28.8
462.668	28.91
462.871	29
463.074	29.24
463.277	29.12
463.48	29.03
463.683	29
463.886	29.27
464.089	29.23
464.292	29.04
464.495	29.08
464.698	29.46
464.901	29.35
465.104	29.16
465.306	29.17
465.509	29.32
465.712	29.34
465.915	29.41
466.118	29.12
466.321	29.29
466.524	29.18
466.726	29.15
466.929	29.02
467.132	28.94
467.335	29.06
467.538	28.92
467.74	28.97
467.943	28.98
468.146	29.14
468.348	29.17
468.551	29.07
468.754	29.03
468.956	29.05
469.159	28.98
469.362	29.15
469.564	29.18
469.767	29.21
469.969	29.08
470.172	29.18
470.375	29.04
470.577	29.21
470.78	29.31
470.982	29.62
471.185	29.77
471.387	29.9
471.59	29.73
471.792	29.92
471.995	30.13
472.197	30.21
472.399	30.12
472.602	30.34
472.804	30.25
473.007	30.17
473.209	30.09
473.411	30.21
473.614	30.08
473.816	30.27
474.018	30.08
474.22	30
474.423	30.12
474.625	30.03
474.827	29.91
475.03	29.96
475.232	29.97
475.434	30
475.636	29.75
475.838	29.83
476.04	29.62
476.243	29.74
476.445	29.73
476.647	29.79
476.849	29.89
477.051	29.94
477.253	30.03
477.455	30.07
477.657	30
477.859	30.19
478.061	30.19
478.263	30.18
478.465	30.13
478.667	30.09
478.869	29.98
479.071	29.93
479.273	29.91
479.475	29.88
479.677	29.76
479.879	29.92
480.081	29.72
480.283	29.78
480.485	30
480.686	30.12
480.888	30.22
481.09	30.33
481.292	30.27
481.494	30.17
481.695	30.14
481.897	30.14
482.099	30.03
482.301	30.04
482.502	29.98
482.704	29.91
482.906	29.74
483.107	29.69
483.309	29.57
483.511	29.57
483.712	29.54
483.914	29.52
484.115	29.43
484.317	29.43
484.519	29.44
484.72	29.44
484.922	29.42
485.123	29.48
485.325	29.55
485.526	29.62
485.728	29.68
485.929	29.71
486.131	29.68
486.332	29.81
486.534	29.74
486.735	29.65
486.936	29.64
487.138	29.66
487.339	29.63
487.541	29.5
487.742	29.39
487.943	29.35
488.144	29.32
488.346	29.37
488.547	29.42
488.748	29.43
488.95	29.43
489.151	29.41
489.352	29.41
489.553	29.42
489.755	29.46
489.956	29.54
490.157	29.69
490.358	29.84
490.559	29.86
490.76	29.83
490.961	29.81
491.163	29.91
491.364	29.94
491.565	29.93
491.766	29.89
491.967	29.87
492.168	29.87
492.369	29.76
492.57	29.62
492.771	29.53
492.972	29.49
493.173	29.51
493.374	29.54
493.575	29.47
493.776	29.42
493.976	29.54
494.177	29.66
494.378	29.76
494.579	29.82
494.78	30.02
494.981	30.09
495.182	30.09
495.382	30.26
495.583	30.29
495.784	30.32
495.985	30.5
496.185	30.48
496.386	30.4
496.587	30.31
496.788	30.39
496.988	30.37
497.189	30.38
497.39	30.53
497.59	30.42
497.791	30.45
497.992	30.47
498.192	30.4
498.393	30.3
498.593	30.33
498.794	30.54
498.994	30.46
499.195	30.39
499.395	30.58
499.596	30.41
499.796	30.38
499.997	30.38
500.197	30.29
500.398	30.39
500.598	30.44
500.799	30.32
500.999	30.02
501.199	30.12
501.4	30.13
501.6	29.98
501.801	30.02
502.001	30.09
502.201	29.95
502.402	30.04
502.602	29.8
502.802	29.73
503.002	29.75
503.203	29.8
503.403	29.8
503.603	29.72
503.803	29.67
504.003	29.8
504.204	29.91
504.404	29.94
504.604	30.12
504.804	30.15
505.004	30.41
505.204	30.58
505.404	30.61
505.604	30.38
505.804	30.39
506.005	30.5
506.205	30.41
506.405	30.38
506.605	30.32
506.805	30.29
507.005	30.36
507.204	30.23
507.404	30.11
507.604	30.13
507.804	30.28
508.004	30.32
508.204	30.14
508.404	30.22
508.604	30.2
508.804	30.35
509.003	30.16
509.203	30.08
509.403	30.01
509.603	30.04
509.803	30.02
510.002	30.15
510.202	30.11
510.402	30.23
510.602	30.13
510.801	30.08
511.001	30.02
511.201	30.16
511.4	30.16
511.6	30.16
511.8	30.19
511.999	30.2
512.199	30.13
512.398	30.15
512.598	30.09
512.797	30.15
512.997	30.15
513.197	30.05
513.396	30.03
513.596	30.11
513.795	30.22
513.994	30.11
514.194	29.96
514.393	29.84
514.593	29.9
514.792	29.86
514.992	29.64
515.191	29.68
515.39	29.75
515.59	29.7
515.789	29.67
515.988	29.65
516.188	29.84
516.387	29.87
516.586	29.77
516.786	29.85
516.985	30.04
517.184	30.31
517.383	30.23
517.582	30.17
517.782	30.08
517.981	30.1
518.18	29.98
518.379	29.95
518.578	30.02
518.777	30.05
518.976	29.97
519.176	30.05
519.375	29.94
519.574	30.07
519.773	30.08
519.972	30.17
520.171	30.21
520.37	30.23
520.569	30.08
520.768	30.2
520.967	30.29
521.166	30.31
521.365	30.06
521.564	30.18
521.762	30.1
521.961	30.21
522.16	30.25
522.359	30.22
522.558	30.22
522.757	30.34
522.956	30.23
523.154	30.28
523.353	30.33
523.552	30.43
523.751	30.29
523.949	30.24
524.148	30.18
524.347	30.14
524.546	30.04
524.744	30.19
524.943	30.1
525.142	30.04
525.34	30
525.539	30.01
525.737	29.94
525.936	29.9
526.135	29.82
526.333	29.83
526.532	29.86
526.73	29.83
526.929	29.64
527.127	29.75
527.326	29.75
527.524	29.79
527.723	29.8
527.921	29.78
528.12	29.75
528.318	29.84
528.516	29.76
528.715	29.69
528.913	29.67
529.112	29.67
529.31	29.6
529.508	29.57
529.707	29.5
529.905	29.39
530.103	29.42
530.301	29.43
530.5	29.46
530.698	29.47
530.896	29.58
531.094	29.71
531.293	29.71
531.491	29.85
531.689	29.84
531.887	29.92
532.085	30.08
532.283	30.08
532.481	30.07
532.68	30.02
532.878	30.14
533.076	29.98
533.274	29.83
533.472	29.93
533.67	29.76
533.868	29.78
534.066	29.75
534.264	29.69
534.462	29.62
534.66	29.69
534.858	29.61
535.056	29.53
535.253	29.58
535.451	29.74
535.649	29.72
535.847	29.85
536.045	29.88
536.243	29.87
536.441	29.87
536.638	30.06
536.836	29.96
537.034	30.03
537.232	30.07
537.43	30.18
537.627	30.09
537.825	30.17
538.023	30.16
538.22	30.24
538.418	30.47
538.616	30.57
538.813	30.36
539.011	30.54
539.209	30.51
539.406	30.53
539.604	30.54
539.801	30.63
539.999	30.6
540.196	30.54
540.394	30.56
540.591	30.51
540.789	30.43
540.986	30.47
541.184	30.44
541.381	30.43
541.579	30.42
541.776	30.33
541.974	30.33
542.171	30.38
542.368	30.48
542.566	30.55
542.763	30.59
542.96	30.67
543.158	30.78
543.355	30.84
543.552	30.87
543.75	30.99
543.947	31.24
544.144	31.35
544.341	31.46
544.539	31.57
544.736	31.73
544.933	31.78
545.13	31.95
545.327	32.14
545.524	32.15
545.722	32.26
545.919	32.28
546.116	32.12
546.313	32.01
546.51	31.82
546.707	31.59
546.904	31.37
547.101	31.23
547.298	30.99
547.495	30.71
547.692	30.69
547.889	30.55
548.086	30.37
548.283	30.34
548.48	30.39
548.677	30.38
548.874	30.51
549.07	30.41
549.267	30.53
549.464	30.49
549.661	30.53
549.858	30.43
550.055	30.64
550.251	30.51
550.448	30.62
550.645	30.58
550.842	30.66
551.038	30.73
551.235	30.74
551.432	30.65
551.628	30.74
551.825	30.74
552.022	30.76
552.218	30.61
552.415	30.73
552.612	30.67
552.808	30.65
553.005	30.63
553.201	30.47
553.398	30.6
553.594	30.51
553.791	30.62
553.987	30.57
554.184	30.51
554.38	30.62
554.577	30.64
554.773	30.48
554.97	30.48
555.166	30.49
555.362	30.5
555.559	30.57
555.755	30.66
555.952	30.68
556.148	30.86
556.344	30.84
556.541	30.85
556.737	30.98
556.933	31.16
557.129	31.36
557.326	31.42
557.522	31.62
557.718	31.58
557.914	31.51
558.11	31.25
558.307	30.87
558.503	31.08
558.699	31.03
558.895	30.92
559.091	31
559.287	30.82
559.483	30.91
559.679	30.84
559.876	30.59
560.072	30.66
560.268	30.75
560.464	30.9
560.66	30.91
560.856	30.92
561.052	30.9
561.247	30.91
561.443	30.59
561.639	30.37
561.835	30.26
562.031	30.22
562.227	30.02
562.423	29.97
562.619	30.19
562.815	30.18
563.01	29.91
563.206	29.96
563.402	29.56
563.598	29.8
563.793	29.69
563.989	29.71
564.185	29.75
564.381	29.84
564.576	29.8
564.772	29.41
564.968	29.43
565.163	29.39
565.359	29.19
565.555	29.15
565.75	29.13
565.946	29.12
566.141	29.18
566.337	29.14
566.532	29.2
566.728	29.2
566.923	29.33
567.119	29.29
567.314	29.57
567.51	29.61
567.705	29.83
567.901	29.87
568.096	29.95
568.292	29.9
568.487	30.04
568.682	30.04
568.878	29.99
569.073	29.84
569.268	29.83
569.464	29.65
569.659	29.77
569.854	29.75
570.05	29.76
570.245	29.72
570.44	29.73
570.635	29.52
570.831	29.5
571.026	29.61
571.221	29.82
571.416	29.81
571.611	29.87
571.806	29.79
572.002	29.74
572.197	29.76
572.392	29.83
572.587	29.85
572.782	30.05
572.977	30.07
573.172	30.15
573.367	30.03
573.562	30.04
573.757	30.1
573.952	30.16
574.147	30.2
574.342	30.04
574.537	30.02
574.732	29.96
574.927	29.86
575.121	29.85
575.316	29.74
575.511	29.94
575.706	29.85
575.901	29.81
576.096	29.66
576.29	29.64
576.485	29.77
576.68	29.74
576.875	29.74
577.069	29.78
577.264	29.74
577.459	29.85
577.654	29.82
577.848	29.82
578.043	29.88
578.238	30.17
578.432	30.39
578.627	30.49
578.821	30.43
579.016	30.53
579.21	30.59
579.405	30.47
579.6	30.56
579.794	30.67
579.989	30.84
580.183	30.99
580.378	30.98
580.572	31.01
580.766	30.97
580.961	31.06
581.155	31.03
581.35	31.14
581.544	31.17
581.738	31.37
581.933	31.38
582.127	31.43
582.321	31.16
582.516	30.94
582.71	30.84
582.904	30.94
583.099	30.99
583.293	31.13
583.487	30.95
583.681	31.24
583.875	30.91
584.07	30.86
584.264	30.85
584.458	30.9
584.652	31.25
584.846	31.28
585.04	31.05
585.234	31.18
585.428	31.19
585.623	31.08
585.817	30.88
586.011	31.07
586.205	30.9
586.399	30.79
586.593	31
586.787	30.83
586.981	30.54
587.174	30.71
587.368	30.63
587.562	30.47
587.756	30.58
587.95	30.43
588.144	30.22
588.338	30.22
588.532	30.19
588.725	29.78
588.919	29.89
589.113	30
589.307	29.74
589.501	29.71
589.694	29.86
589.888	30.14
590.082	30.24
590.275	29.93
590.469	29.82
590.663	29.77
590.856	29.86
591.05	29.54
591.244	29.63
591.437	29.85
591.631	29.77
591.824	29.64
592.018	29.56
592.212	29.67
592.405	30.12
592.599	30.34
592.792	30.24
592.986	30.34
593.179	30.44
593.372	30.37
593.566	30.29
593.759	30.34
593.953	30.39
594.146	30.22
594.339	30.09
594.533	29.94
594.726	29.98
594.92	30.11
595.113	30.04
595.306	30.06
595.499	30.07
595.693	30.12
595.886	30.24
596.079	30.14
596.272	30.11
596.466	30.26
596.659	30.06
596.852	29.88
597.045	29.74
597.238	29.87
597.431	29.81
597.624	29.81
597.818	29.92
598.011	29.78
598.204	29.92
598.397	29.91
598.59	30.05
598.783	30.35
598.976	30.49
599.169	30.51
599.362	30.39
599.555	30.52
599.748	30.53
599.941	30.44
600.134	30.56
600.326	30.59
600.519	30.5
600.712	30
600.905	29.77
601.098	29.86
601.291	30.18
601.483	30.26
601.676	30.51
601.869	30.51
602.062	30.46
602.255	30.43
602.447	30.28
602.64	30.3
602.833	30.52
603.025	30.64
603.218	30.59
603.411	30.48
603.603	30.34
603.796	30.13
603.989	29.89
604.181	29.85
604.374	29.74
604.566	29.58
604.759	29.6
604.951	29.58
605.144	29.44
605.336	29.38
605.529	29.27
605.721	29.54
605.914	29.46
606.106	29.62
606.299	29.8
606.491	29.67
606.683	29.8
606.876	29.95
607.068	29.94
607.26	30.24
607.453	30.25
607.645	30.48
607.837	29.99
608.03	30.2
608.222	30.19
608.414	30.14
608.606	30.44
608.799	30.51
608.991	30.62
609.183	30.93
609.375	31.02
609.567	31.45
609.759	31.4
609.952	32.02
610.144	32.46
610.336	33.06
610.528	33.2
610.72	33.63
610.912	33.77
611.104	34.23
611.296	34.18
611.488	34.33
611.68	34.19
611.872	34.37
612.064	34.36
612.256	34.32
612.448	34.05
612.64	34.35
612.832	34.2
613.023	34.4
613.215	34.11
613.407	34.09
613.599	33.88
613.791	33.83
613.983	33.62
614.174	33.32
614.366	32.77
614.558	32.48
614.75	32.07
614.941	31.49
615.133	31.47
615.325	31.45
615.516	31.22
615.708	31.35
615.9	31.16
616.091	31.28
616.283	31.25
616.475	31.39
616.666	31.38
616.858	31.3
617.049	31.45
617.241	31.19
617.432	30.98
617.624	31.25
617.815	30.95
618.007	30.79
618.198	30.72
618.39	30.64
618.581	30.5
618.773	30.74
618.964	30.69
619.155	30.45
619.347	30.4
619.538	30.31
619.729	29.98
619.921	30.02
620.112	30.11
620.303	29.99
620.494	30.06
620.686	29.85
620.877	29.64
621.068	29.6
621.259	29.9
621.451	29.94
621.642	29.92
621.833	30.09
622.024	30.21
622.215	30.33
622.406	30.41
622.597	30.6
622.788	30.8
622.98	30.74
623.171	30.69
623.362	30.86
623.553	30.93
623.744	30.97
623.935	30.82
624.126	30.39
624.317	30.08
624.508	30.26
624.698	30.4
624.889	30.42
625.08	30.72
625.271	31.16
625.462	30.93
625.653	31.06
625.844	30.79
626.034	30.79
626.225	30.96
626.416	31.24
626.607	31.11
626.798	30.69
626.988	30.87
627.179	30.67
627.37	30.31
627.56	30.44
627.751	30.25
627.942	30.3
628.132	30.23
628.323	30.16
628.514	30.05
628.704	29.99
628.895	30.18
629.085	29.97
629.276	30.14
629.466	30.44
629.657	30.44
629.847	30.38
630.038	30.7
630.228	31
630.419	31.32
630.609	31.37
630.8	31.57
630.99	31.58
631.181	31.69
631.371	31.57
631.561	31.39
631.752	31.49
631.942	31.66
632.132	31.55
632.323	31.39
632.513	31.24
632.703	31.3
632.893	31.2
633.084	31.09
633.274	31.18
633.464	31.31
633.654	31.13
633.844	30.9
634.034	30.68
634.225	30.71
634.415	30.5
634.605	30.31
634.795	30.2
634.985	30.2
635.175	30.21
635.365	30.31
635.555	29.99
635.745	30.11
635.935	30.29
636.125	30.11
636.315	29.9
636.505	29.97
636.695	30.09
636.885	30.34
637.075	30.12
637.265	30.24
637.455	29.66
637.644	29.78
637.834	29.44
638.024	29.22
638.214	29.38
638.404	29.31
638.593	29.67
638.783	29.75
638.973	29.65
639.163	29.79
639.352	29.53
639.542	29.82
639.732	30.07
639.921	30.21
640.111	30.39
640.301	30.44
640.49	30.79
640.68	30.71
640.87	30.68
641.059	30.63
641.249	30.91
641.438	30.94
641.628	30.88
641.817	30.92
642.007	31.39
642.196	31.32
642.386	31.55
642.575	31.36
642.764	31.14
642.954	30.93
643.143	30.55
643.333	29.98
643.522	30.12
643.711	30.09
643.901	29.82
644.09	29.66
644.279	29.9
644.469	29.61
644.658	29.83
644.847	29.94
645.036	30.33
645.226	30.58
645.415	30.88
645.604	30.86
645.793	30.88
645.982	30.81
646.171	30.64
646.361	30.1
646.55	30.58
646.739	30.58
646.928	30.6
647.117	30.39
647.306	30.48
647.495	30.52
647.684	30.42
647.873	30.31
648.062	30.39
648.251	30.37
648.44	30.45
648.629	29.96
648.818	29.67
649.007	29.7
649.196	29.99
649.384	30.14
649.573	30.24
649.762	30.08
649.951	30.24
650.14	30.12
650.328	30.11
650.517	30.29
650.706	30.56
650.895	30.9
651.083	31.14
651.272	31.19
651.461	30.98
651.65	30.49
651.838	30.86
652.027	31.13
652.216	31.31
652.404	31.6
652.593	31.44
652.781	31.29
652.97	30.85
653.158	30.53
653.347	30.11
653.535	29.94
653.724	30.23
653.912	30.41
654.101	29.92
654.289	29.62
654.478	29.53
654.666	29.64
654.855	30
655.043	30.18
655.231	30.22
655.42	30.85
655.608	30.83
655.796	30.97
655.985	30.55
656.173	30.96
656.361	31.29
656.55	30.71
656.738	30.92
656.926	30.67
657.114	30.56
657.302	30.87
657.491	30.29
657.679	30.56
657.867	30.54
658.055	30.6
658.243	30.45
658.431	29.97
658.619	30.27
658.807	30.31
658.996	30
659.184	29.91
659.372	29.53
659.56	29.27
659.748	29.14
659.936	29.28
660.124	29.24
660.311	29.41
660.499	29.54
660.687	29.66
660.875	29.43
661.063	29.7
661.251	30.29
661.439	30.36
661.627	30.79
661.814	30.66
662.002	30.32
662.19	30.64
662.378	30.64
662.565	30.96
662.753	30.97
662.941	31.11
663.129	30.76
663.316	30.39
663.504	30.46
663.692	30.53
663.879	30.86
664.067	31.19
664.254	30.84
664.442	30.77
664.63	30.96
664.817	31.39
665.005	31.28
665.192	31.85
665.38	32.2
665.567	32.24
665.755	32.15
665.942	31.93
666.13	31.92
666.317	32.12
666.504	31.73
666.692	31.37
666.879	31.25
667.067	31.16
667.254	30.9
667.441	30.34
667.629	30.27
667.816	30.44
668.003	30.91
668.19	30.83
668.378	30.79
668.565	30.69
668.752	30.49
668.939	30.05
669.127	30.21
669.314	30.36
669.501	30.18
669.688	30.57
669.875	29.89
670.062	29.79
670.249	29.93
670.436	29.75
670.623	29.92
670.81	30.27
670.997	30.36
671.184	30.36
671.371	30.56
671.558	30.69
671.745	30.17
671.932	30.59
672.119	30.31
672.306	29.78
672.493	29.77
672.68	30.18
672.867	29.79
673.054	29.92
673.24	29.62
673.427	29.07
673.614	29.37
673.801	29.55
673.988	29.64
674.174	30
674.361	30.15
674.548	30.39
674.734	29.86
674.921	29.97
675.108	29.77
675.294	30.08
675.481	30.32
675.668	30.21
675.854	30.85
676.041	30.92
676.227	30.72
676.414	31.28
676.601	31.45
676.787	31.75
676.974	32.07
677.16	32.05
677.347	31.95
677.533	32.31
677.719	32.53
677.906	32.06
678.092	32.08
678.279	31.75
678.465	31.12
678.651	31.07
678.838	31.4
679.024	31.29
679.21	31.4
679.397	31.41
679.583	31.06
679.769	30.82
679.955	30.51
680.142	30.52
680.328	30.87
680.514	30.7
680.7	30.59
680.886	30.24
681.073	30.23
681.259	30.15
681.445	30.07
681.631	30.14
681.817	30.54
682.003	30.56
682.189	30.54
682.375	30.34
682.561	31.07
682.747	30.77
682.933	30.42
683.119	30.41
683.305	30.55
683.491	30.55
683.677	30.33
683.863	29.94
684.049	30.13
684.235	30.11
684.42	29.87
684.606	29.27
684.792	29.56
684.978	29.71
685.164	29.89
685.349	29.83
685.535	30
685.721	29.75
685.907	29.55
686.092	29.38
686.278	29.48
686.464	29.92
686.649	30.01
686.835	30.28
687.021	30.82
687.206	30.97
687.392	31.29
687.577	30.97
687.763	31.25
687.948	30.88
688.134	30.89
688.319	31.14
688.505	31.4
688.69	31.68
688.876	31.25
689.061	30.76
689.247	30.37
689.432	30.27
689.618	30.57
689.803	30.64
689.988	31.48
690.174	31.53
690.359	30.8
690.544	30.25
690.73	30.07
690.915	30.55
691.1	30.2
691.285	30.62
691.471	30.31
691.656	30.22
691.841	30.26
692.026	30.16
692.211	30.5
692.396	31.08
692.582	31.37
692.767	32.02
692.952	31.94
693.137	32.45
693.322	32.54
693.507	32.7
693.692	32.93
693.877	33.22
694.062	33.14
694.247	32.71
694.432	33.14
694.617	33.24
694.802	32.83
694.987	32.35
695.172	32.22
695.357	31.49
695.541	31.5
695.726	31.34
695.911	31.83
696.096	31.68
696.281	32.23
696.466	31.25
696.65	30.93
696.835	30.63
697.02	30.97
697.204	30.77
697.389	31.25
697.574	30.92
697.759	30.65
697.943	30.05
698.128	29.33
698.312	28.95
698.497	29.17
698.682	28.49
698.866	28.6
699.051	28.13
699.235	28.21
699.42	27.89
699.604	28.01
699.789	28.11
699.973	28.2
700.158	28.48
700.342	28.24
700.527	27.99
700.711	28.78
700.895	28.97
701.08	29.05
701.264	29.34
701.448	29.7
701.633	29.61
701.817	29.44
702.001	28.99
702.186	29.57
702.37	29.79
702.554	30.12
702.738	30.06
702.923	29.28
703.107	29.36
703.291	29.05
703.475	28.56
703.659	28.58
703.843	29.07
704.027	29.12
704.212	28.89
704.396	29.11
704.58	29.52
704.764	29.51
704.948	29.99
705.132	30.38
705.316	30.82
705.5	31.14
705.684	31.08
705.868	30.81
706.052	31.56
706.235	31.83
706.419	32.62
706.603	31.82
706.787	32.09
706.971	32.75
707.155	32.37
707.339	31.9
707.522	32.11
707.706	32.25
707.89	31.92
708.074	31.37
708.257	30.83
708.441	30.12
708.625	30.43
708.808	30.9
708.992	30.04
709.176	29.85
709.359	30.09
709.543	29.51
709.727	29.64
709.91	29.43
710.094	29.46
710.277	29.79
710.461	29.48
710.644	29.64
710.828	29.13
711.011	29.54
711.195	30.26
711.378	30.2
711.562	30.28
711.745	30.01
711.928	30.76
712.112	30.76
712.295	31.13
712.478	30.9
712.662	30.7
712.845	30.41
713.028	30.02
713.212	29.2
713.395	29.12
713.578	29.27
713.761	28.98
713.945	28.35
714.128	28.43
714.311	28.05
714.494	27.92
714.677	28.2
714.86	28.67
715.043	28.63
715.227	29.03
715.41	28.88
715.593	29.02
715.776	29.72
715.959	30.22
716.142	30.02
716.325	30.13
716.508	30.72
716.691	30.96
716.874	30.59
717.057	30.84
717.239	30.76
717.422	31.03
717.605	30.72
717.788	29.89
717.971	30.14
718.154	29.97
718.337	30.38
718.519	29.97
718.702	29.56
718.885	30.05
719.068	30.15
719.25	31.25
719.433	31.23
719.616	30.79
719.798	31.19
719.981	31.26
720.164	31.86
720.346	30.99
720.529	30.55
720.712	30.49
720.894	31.02
721.077	30.52
721.259	29.96
721.442	30.31
721.624	31.42
721.807	31.31
721.989	30.93
722.172	31.19
722.354	32.01
722.537	33.49
722.719	33.07
722.901	32.48
723.084	32.03
723.266	31.54
723.448	31.21
723.631	31.02
723.813	31.03
723.995	31.34
724.178	30.56
724.36	30.26
724.542	29.86
724.724	30.76
724.907	30.81
725.089	31.46
725.271	31.21
725.453	31.59
725.635	31.32
725.817	31.95
725.999	30.95
726.181	31.79
726.364	30.96
726.546	30.42
726.728	30.69
726.91	30.49
727.092	30.67
727.274	31.76
727.456	31.69
727.638	31.71
727.819	31.3
728.001	31.28
728.183	30.97
728.365	31.53
728.547	31.4
728.729	31.14
728.911	30.8
729.093	30.46
729.274	29.48
729.456	28.4
729.638	28.66
729.82	29.21
730.001	30.3
730.183	29.58
730.365	29.35
730.546	29.87
730.728	28.91
730.91	29.58
731.091	30.69
731.273	31.3
731.455	33.22
731.636	32.47
731.818	31.68
731.999	30.79
732.181	31.1
732.362	31.62
732.544	31.33
732.725	31.75
732.907	31.38
733.088	30.23
733.27	30.17
733.451	28.76
733.633	29.95
733.814	30.68
733.995	31.01
734.177	31.47
734.358	30.42
734.539	30.24
734.721	29.88
734.902	29.62
735.083	29.95
735.264	29.67
735.446	30.1
735.627	29
735.808	28.55
735.989	28.86
736.17	27.94
736.351	28.8
736.533	29.1
736.714	29.94
736.895	30.42
737.076	30.05
737.257	30.12
737.438	31
737.619	31.02
737.8	30.31
737.981	30.83
738.162	31.46
738.343	31.31
738.524	31.26
738.705	31.43
738.886	30.36
739.067	30.6
739.247	30.01
739.428	29.02
739.609	29.62
739.79	30.44
739.971	28.81
740.151	29.23
740.332	29.35
740.513	29.66
740.694	27.9
740.874	28.33
741.055	28.66
741.236	29.62
741.417	29.72
741.597	28.42
741.778	28.87
741.958	29.43
742.139	28.6
742.32	28.16
742.5	28.46
742.681	30.56
742.861	29.99
743.042	30.3
743.222	28.9
743.403	28.12
743.583	29.2
743.764	29.07
743.944	28.78
744.124	29.69
744.305	30.43
744.485	30.09
744.666	28.4
744.846	30.77
745.026	30.39
745.207	31.88
745.387	33.14
745.567	33.12
745.747	33.01
745.928	32.91
746.108	32.45
746.288	31.2
746.468	30.7
746.648	32.05
746.829	31.72
747.009	32.79
747.189	31.76
747.369	31.23
747.549	30.54
747.729	30.45
747.909	30.61
748.089	30.81
748.269	32.68
748.449	33.52
748.629	33.51
748.809	32.9
748.989	31.8
749.169	32.53
749.349	32.69
749.529	32.77
749.709	32.13
749.889	32.24
750.068	31.51
750.248	30.36
750.428	30.61
750.608	29.75
750.788	28.39
750.967	28.19
751.147	26.65
751.327	27.86
751.507	26.67
751.686	27.02
751.866	28.32
752.046	29.28
752.225	29.22
752.405	28.6
752.585	29.22
752.764	31.04
752.944	31.09
753.123	32.24
753.303	30.31
753.482	32.03
753.662	31.4
753.841	30.36
754.021	30.25
754.2	30.62
754.38	30.44
754.559	31.49
754.739	30.7
754.918	29.49
755.097	28.92
755.277	29.15
755.456	28.97
755.635	29.84
755.815	29.33
755.994	29.7
756.173	29.54
756.352	30.21
756.532	28.4
756.711	27.71
756.89	28.79
757.069	29.13
757.248	30.18
757.427	29.07
757.607	29.1
757.786	30.67
757.965	29.71
758.144	28.89
758.323	28.66
758.502	29.13
758.681	29.39
758.86	29.69
759.039	30.89
759.218	29.59
759.397	30.83
759.576	29.65
759.755	28.99
759.934	29.68
760.113	31.41
760.291	30.19
760.47	30.66
760.649	32.35
760.828	31.5
761.007	30.9
761.186	31.59
761.364	32
761.543	32.92
761.722	32.49
761.901	32.23
762.079	31.04
762.258	31.44
762.437	31.14
762.615	29.88
762.794	30.02
762.972	30
763.151	29.96
763.33	28.83
763.508	28.98
763.687	29.26
763.865	29.6
764.044	30.31
764.222	30.83
764.401	30.58
764.579	30.48
764.758	30.32
764.936	30.34
765.114	31.12
765.293	31.79
765.471	31.77
765.65	31.95
765.828	31.94
766.006	31.86
766.184	31.59
766.363	32.22
766.541	32.08
766.719	33.01
766.898	33.78
767.076	31.76
767.254	31.19
767.432	30.54
767.61	29.46
767.788	29.77
767.967	28.73
768.145	28.69
768.323	28.41
768.501	29.42
768.679	28.74
768.857	26.85
769.035	28.33
769.213	30.43
769.391	31.32
769.569	31.63
769.747	31.73
769.925	33.1
770.103	31.57
770.281	30.94
770.459	29.02
770.636	28.42
770.814	28.86
770.992	29.56
771.17	28.47
771.348	26.93
771.525	27.27
771.703	26.22
771.881	27.09
772.059	28.9
772.236	29.08
772.414	29.12
772.592	29.83
772.769	31.6
772.947	30.8
773.125	30.03
773.302	32.23
773.48	32.98
773.657	32.59
773.835	31.16
774.013	31.73
774.19	31.56
774.368	32.76
774.545	33.31
774.723	32.97
774.9	32.77
775.077	34.12
775.255	32.47
775.432	33.84
775.61	35
775.787	35.2
775.964	35.89
776.142	36.08
776.319	36.99
776.496	37.94
776.674	37.21
776.851	37.93
777.028	37.01
777.205	37.4
777.382	34.28
777.56	33.11
777.737	34.59
777.914	31.35
778.091	32.09
778.268	30.89
778.445	30.44
778.622	28.51
778.8	29.09
778.977	29.57
779.154	30.66
779.331	31.98
779.508	31.97
779.685	30.77
779.862	32.32
780.038	34.89
780.215	35.09
780.392	35.05
780.569	37.26
780.746	37.23
780.923	37.21
781.1	35.51
781.277	36
781.453	34.99
781.63	34.48
781.807	37.32
781.984	32.51
782.16	33.45
782.337	32.08
782.514	31.67
782.691	31.62
782.867	32.1
783.044	33.02
783.221	34.74
783.397	35.97
783.574	33.69
783.75	31.19
783.927	34.88
784.103	33.47
784.28	35.76
784.456	34.92
784.633	33.55
784.809	33.46
784.986	32.56
785.162	31.45
785.339	30.44
785.515	33.55
785.692	33.7
785.868	32.65
786.044	33.43
786.221	31.75
786.397	31.94
786.573	33.35
786.749	34.15
786.926	36.2
787.102	35.32
787.278	36.78
787.454	35.39
787.631	34.12
787.807	32.19
787.983	31.41
788.159	31.22
788.335	30.86
788.511	30.06
788.687	27.14
788.863	27.46
789.039	27.18
789.216	27.35
789.392	27.57
789.568	29.17
789.744	32.72
789.919	33.26
790.095	33.27
790.271	33.54
790.447	32.18
790.623	33.82
790.799	32.09
790.975	31.6
791.151	29.74
791.327	31.69
791.502	29.41
791.678	28.19
791.854	27.08
792.03	27.39
792.205	27.14
792.381	28.11
792.557	29.76
792.733	27.92
792.908	27.14
793.084	26.82
793.259	25.2
793.435	29.27
793.611	26.52
793.786	26.79
793.962	27.98
794.137	30.81
794.313	29.99
794.488	29.54
794.664	29.58
794.839	30.54
795.015	32.51
795.19	32.05
795.366	30.41
795.541	32.28
795.716	33.59
795.892	32.2
796.067	30.22
796.242	30.02
796.418	27.55
796.593	29.01
796.768	29.79
796.944	30.44
797.119	31.55
797.294	31.22
797.469	30.38
797.644	29.25
797.82	27.9
797.995	28.27
798.17	30.67
798.345	32.17
798.52	31.23
798.695	30.2
798.87	29.13
799.045	28.29
799.22	26.73
799.395	27.17
799.57	29.27
799.745	30.93
799.92	30.91
800.095	29.56
800.27	27.68
800.445	30.05
800.62	30.45
800.795	32.01
800.97	30.92
801.145	33.61
801.319	29.18
801.494	29.38
801.669	30.24
801.844	29.23
802.018	29.19
802.193	30.17
802.368	27.08
802.543	27.56
802.717	26.88
802.892	28.64
803.067	27.54
803.241	35.33
803.416	36.24
803.59	34.96
803.765	33.85
803.94	33.27
804.114	34.4
804.289	35.12
804.463	33.67
804.638	32.98
804.812	34.64
804.986	35.34
805.161	31.91
805.335	29.24
805.51	28.69
805.684	32.2
805.858	30.9
806.033	30.41
806.207	32.23
806.381	29.74
806.556	30.53
806.73	29.73
806.904	30.52
807.078	30.93
807.253	29.7
807.427	30.82
807.601	28.89
807.775	31.28
807.949	31.01
808.123	29.91
808.298	33.09
808.472	33.14
808.646	31.65
808.82	28.61
808.994	29.52
809.168	31.93
809.342	34.42
809.516	34.46
809.69	35.13
809.864	34.43
810.038	34.16
810.212	34.72
810.385	33.34
810.559	32.54
810.733	35.84
810.907	32.16
811.081	32.22
811.255	32.71
811.428	34.27
811.602	35.56
811.776	35.27
811.95	34.9
812.123	33.3
812.297	33.45
812.471	35.43
812.644	30.63
812.818	35.11
812.992	34.99
813.165	32.21
813.339	28.55
813.512	26.05
813.686	24.23
813.86	27.18
814.033	23.38
814.207	21.42
814.38	17.52
814.554	20.81
814.727	22.23
814.9	23.19
815.074	21.85
815.247	23.62
815.421	24.3
815.594	23.44
815.767	20.34
815.941	24.98
816.114	27.36
816.287	31.85
816.46	30.96
816.634	29.52
816.807	28.42
816.98	25.43
817.153	25.22
817.327	22.88
817.5	24.22
817.673	28
817.846	30.36
818.019	28.12
818.192	27.1
818.365	27.86
818.538	27.34
818.711	27.9
818.884	30.36
819.057	30.01
819.23	32.92
819.403	35.22
819.576	34.71
819.749	31.26
819.922	33.69
820.095	34.61
820.268	34.32
820.441	33.65
820.614	31.2
820.786	30.73
820.959	31.07
821.132	29.74
821.305	28.87
821.477	27.17
821.65	29.16
821.823	28.99
821.996	27.55
822.168	27.67
822.341	27.38
822.514	28.36
822.686	28.12
822.859	28.33
823.031	28.65
823.204	28.69
823.376	29.14
823.549	28.75
823.722	28.98
823.894	29.55
824.067	29.38
824.239	29.32
824.411	28.96
824.584	29.78
824.756	28.63
824.929	27.22
825.101	27.25
825.273	27.08
825.446	26.37
825.618	25.76
825.79	25.86
825.963	26.51
826.135	27.1
826.307	26.98
826.479	26.59
826.652	26.73
826.824	28.18
826.996	28.28
827.168	29.52
827.34	29.42
827.512	28.89
827.684	28.53
827.856	28.38
828.029	27.78
828.201	27.26
828.373	27.37
828.545	28.81
828.717	29.42
828.889	30.48
829.061	29.69
829.232	29.08
829.404	30.07
829.576	31.1
829.748	31.44
829.92	33.29
830.092	34.68
830.264	33.8
830.436	32.88
830.607	32.1
830.779	29.97
830.951	29.34
831.123	30.08
831.294	28.53
831.466	27.08
831.638	26.71
831.809	25.52
831.981	23.96
832.153	25.35
832.324	26.54
832.496	25.21
832.667	25.14
832.839	27.65
833.011	28.15
833.182	30.58
833.354	29.05
833.525	29.05
833.697	27.27
833.868	28.06
834.039	30.32
834.211	29.5
834.382	31.41
834.554	32.54
834.725	30.12
834.896	31.96
835.068	29.66
835.239	33.67
835.41	31.89
835.581	34.14
835.753	34.87
835.924	32.28
836.095	33.07
836.266	31.65
836.438	33.14
836.609	35
836.78	32.6
836.951	32.5
837.122	29.87
837.293	32.18
837.464	31.28
837.635	30.42
837.806	32.63
837.977	33.02
838.148	35.43
838.319	31.87
838.49	32.18
838.661	35.75
838.832	41.34
839.003	41.49
839.174	41.41
839.345	41.68
839.516	40.54
839.687	40.58
839.857	37.76
840.028	37.84
840.199	43.02
840.37	40.67
840.54	41.1
840.711	37.32
840.882	34.11
841.053	34.63
841.223	35.78
841.394	36.67
841.564	38.56
841.735	42.17
841.906	41.36
842.076	37.91
842.247	35.88
842.417	39.08
842.588	36.74
842.758	40.87
842.929	36.54
843.099	31.43
843.27	34
843.44	32.2
843.611	31.85
843.781	33.02
843.951	31.65
844.122	35.51
844.292	29.84
844.462	35.2
844.633	31.88
844.803	34.39
844.973	35.46
845.144	38.98
845.314	44.4
845.484	46.09
845.654	40.03
845.824	41.65
845.995	38.99
846.165	44.66
846.335	48.6
846.505	53.21
846.675	56.43
846.845	53.96
847.015	47.27
847.185	35.84
847.355	32.19
847.525	35.28
847.695	37.87
847.865	41.96
848.035	33.08
848.205	32.81
848.375	32.58
848.545	32.56
848.715	37.02
848.884	36.52
849.054	42.85
849.224	41.16
849.394	46.38
849.564	44.16
849.733	44.67
849.903	45.06
850.073	36.12
850.243	34.23
850.412	31.75
850.582	36.79
850.752	40.68
850.921	38.48
851.091	41.08
851.26	38.45
851.43	30.23
851.599	30.1
851.769	38.4
851.939	35.11
852.108	31.28
852.278	34.4
852.447	34.73
852.616	40.31
852.786	36.39
852.955	36.24
853.125	39.03
853.294	45.54
853.463	43.11
853.633	37.72
853.802	45.98
853.971	52.6
854.141	58.02
854.31	59.91
854.479	50.66
854.648	55.83
854.818	48.26
854.987	47.48
855.156	54.52
855.325	54.71
855.494	53.72
855.663	52.13
855.832	45.54
856.001	48.66
856.171	44.16
856.34	37.84
856.509	37.11
856.678	46.22
856.847	44.6
857.016	45.48
857.185	40.95
857.353	43.74
857.522	38.53
857.691	43.32
857.86	36.99
858.029	31.2
858.198	38.84
858.367	28.96
858.535	24.76
858.704	28.92
858.873	27.37
859.042	21.49
859.21	21.17
859.379	32.69
859.548	31.92
859.717	31.65
859.885	32.62
860.054	32.07
860.222	34.38
860.391	41.17
860.56	43.34
860.728	41.65
860.897	44.87
861.065	49.37
861.234	41.29
861.402	43.91
861.571	38.87
861.739	41.63
861.908	37.4
862.076	40.6
862.244	38.35
862.413	36.16
862.581	44.29
862.749	41.73
862.918	33.56
863.086	41.29
863.254	41.65
863.423	51.08
863.591	56.59
863.759	58.58
863.927	47.95
864.096	49.75
864.264	50.65
864.432	38.37
864.6	46.69
864.768	41.4
864.936	39
865.104	32.88
865.272	34.28
865.44	37.47
865.608	40.34
865.776	49.19
865.944	49.62
866.112	42.71
866.28	53.61
866.448	51.87
866.616	64.71
866.784	63.51
866.952	67.68
867.12	57.36
867.288	48.56
867.455	50.95
867.623	46.57
867.791	44.88
867.959	48.58
868.127	39.74
868.294	41.78
868.462	33.48
868.63	34.5
868.797	33.97
868.965	38.68
869.133	42.79
869.3	37.36
869.468	39.58
869.636	42.25
869.803	38.96
869.971	43.02
870.138	41.9
870.306	39.77
870.473	32.83
870.641	35.93
870.808	37.59
870.975	24.53
871.143	29.69
871.31	34.54
871.478	32.78
871.645	38.58
871.812	40.27
871.98	39.11
872.147	45.34
872.314	58.53
872.482	50.56
872.649	47.32
872.816	55.63
872.983	64.23
873.15	69.8
873.318	70
873.485	68.92
873.652	65.65
873.819	72.68
873.986	75.68
874.153	75.71
874.32	88.77
874.487	78.4
874.654	83.68
874.821	68.9
874.988	62.37
875.155	54.53
875.322	36.75
875.489	52.84
875.656	41.34
875.823	42.28
875.99	33.24
876.157	25.91
876.324	24.84
876.49	27.99
876.657	23.29
876.824	12.83
876.991	20.07
877.157	30.08
877.324	25.42
877.491	27.98
877.658	20.9
877.824	21.21
877.991	26.65
878.157	29.13
878.324	25.42
878.491	22.91
878.657	26.88
878.824	32.26
878.99	33.66
879.157	31.93
879.323	28.73
879.49	35.47
879.656	40.47
879.823	43.67
879.989	38.45
880.156	44.26
880.322	47.41
880.488	49.84
880.655	47.93
880.821	43.22
880.987	48.84
881.154	47.21
881.32	44.69
881.486	36.93
881.652	36.41
881.819	37.81
881.985	33.97
882.151	32.46
882.317	28.52
882.483	30.4
882.649	29.78
882.816	26.81
882.982	25.11
883.148	27.22
883.314	26.08
883.48	25.64
883.646	25.89
883.812	24.01
883.978	25.29
884.144	28.06
884.31	26.2
884.476	28.71
884.642	28.41
884.807	31.89
884.973	28.72
885.139	32.13
885.305	34.78
885.471	37.06
885.637	39.61
885.802	41.56
885.968	43.69
886.134	42.96
886.3	43.47
886.465	47.3
886.631	45.43
886.797	49.04
886.962	49.82
887.128	43.23
887.293	38.76
887.459	37.26
887.625	32.14
887.79	24.94
887.956	21.15
888.121	18.01
888.287	13.54
888.452	9.5
888.618	1.06
888.783	-6.36
