Data from 2938030_Reflection_3.txt Node
Date: Sun Jul 12 15:03:55 EDT 2015
User: robert
Spectrometer: USB4E03001
Autoset integration time: false
Trigger mode: 4
Integration Time (sec): 1.000000E-1
Scans to average: 10
Electric dark correction enabled: true
Nonlinearity correction enabled: false
Boxcar width: 5
Stray light correction enabled: false
XAxis mode: Wavelengths
Stop averaging: false
Number of Pixels in Spectrum: 3648
>>>>>Begin Spectral Data<<<<<
177.566	165.15
177.785	-78.3
178.005	-1145.71
178.225	321.43
178.445	128.87
178.665	27.81
178.885	50.8
179.105	29.85
179.324	65.04
179.544	70.85
179.764	80.23
179.984	-190.57
180.204	64.16
180.423	125.6
180.643	256.93
180.863	5651.43
181.083	221.9
181.302	168.5
181.522	135.43
181.742	272.05
181.961	1140.45
182.181	163.35
182.401	27.06
182.621	-14.44
182.84	1.15
183.06	-23.3
183.279	-45.07
183.499	-89.53
183.719	-78.55
183.938	-78.02
184.158	-76.95
184.377	-37.99
184.597	-47.55
184.816	-62.64
185.036	-72.46
185.256	-53.91
185.475	1.42
185.695	10.39
185.914	33.98
186.134	14.74
186.353	12.4
186.572	33.11
186.792	19.39
187.011	32.98
187.231	31.39
187.45	26.2
187.67	-12.87
187.889	-120.68
188.108	-74.9
188.328	-2.46
188.547	20.72
188.766	40.14
188.986	43.78
189.205	111.47
189.424	213.9
189.644	57.91
189.863	255.76
190.082	300.1
190.302	96.69
190.521	66.02
190.74	131.24
190.959	91.9
191.178	55.55
191.398	126.66
191.617	172.02
191.836	139.92
192.055	-364.34
192.274	188.94
192.494	113.45
192.713	121.13
192.932	135.46
193.151	89.56
193.37	131.78
193.589	190.71
193.808	153.77
194.027	76.22
194.246	67.39
194.465	36.05
194.685	53.46
194.904	37.56
195.123	47.49
195.342	51.87
195.561	93.7
195.78	0.95
195.999	6.03
196.218	5.17
196.436	-25.56
196.655	27.83
196.874	66.38
197.093	63.1
197.312	64.49
197.531	81.57
197.75	23.55
197.969	-2.52
198.188	3.23
198.407	-42.05
198.625	-14.42
198.844	49.53
199.063	62.1
199.282	-1.63
199.501	-36.76
199.719	-22.92
199.938	-37.44
200.157	-26.2
200.376	-19.9
200.594	4.58
200.813	20.48
201.032	16.55
201.251	3.5
201.469	-29.67
201.688	-15.44
201.907	2.71
202.125	15.35
202.344	17.96
202.563	44.7
202.781	28.35
203	62.84
203.218	3.95
203.437	-2060.47
203.656	26.05
203.874	-14.72
204.093	12.16
204.311	63.6
204.53	45.16
204.748	53.56
204.967	53.61
205.185	63.57
205.404	48.8
205.622	83.14
205.841	6.26
206.059	-61.51
206.278	-20.62
206.496	-5.38
206.715	-38.51
206.933	-36.37
207.151	-43.27
207.37	-70.68
207.588	-32.21
207.806	-21.74
208.025	0.26
208.243	15.27
208.461	16.33
208.68	32.97
208.898	44.96
209.116	70.71
209.335	62.63
209.553	63.35
209.771	70.9
209.989	71.74
210.208	75.98
210.426	96.47
210.644	94.26
210.862	84.71
211.081	29.87
211.299	-35.98
211.517	-65.12
211.735	-58.16
211.953	-62.34
212.171	-45.55
212.39	-52.4
212.608	-6.85
212.826	-40.73
213.044	-74.32
213.262	-124.65
213.48	-153.89
213.698	-52.32
213.916	-107.12
214.134	-53.99
214.352	-54.49
214.57	-29.21
214.788	-46.52
215.006	-59.74
215.224	-7.73
215.442	17.71
215.66	23.81
215.878	11.89
216.096	21.54
216.314	48.67
216.532	57.49
216.75	61.09
216.968	59.47
217.185	68.59
217.403	76.06
217.621	47.24
217.839	55.52
218.057	62.91
218.275	107.97
218.492	102.32
218.71	138.47
218.928	190.94
219.146	136.58
219.363	169.21
219.581	157.06
219.799	102.6
220.017	110.85
220.234	99.37
220.452	108.24
220.67	64.27
220.887	72.79
221.105	46.86
221.323	24.7
221.54	22.21
221.758	17.9
221.976	31.4
222.193	46.17
222.411	52.57
222.629	59.12
222.846	57.02
223.064	66.9
223.281	44.56
223.499	28.55
223.716	46.08
223.934	53.19
224.151	44.8
224.369	35.71
224.586	31.84
224.804	16.25
225.021	12.33
225.239	2.46
225.456	-7.66
225.674	-20.81
225.891	-9.4
226.108	-16.19
226.326	-17.83
226.543	-24.29
226.76	-20.45
226.978	-28.63
227.195	-19.16
227.413	-23.34
227.63	-16.08
227.847	-4.44
228.064	-1.22
228.282	1.57
228.499	1.71
228.716	3.06
228.934	4.84
229.151	4.45
229.368	6.39
229.585	5.92
229.802	9.97
230.02	10.45
230.237	8.35
230.454	9.08
230.671	8.1
230.888	9.2
231.105	8.8
231.323	7.21
231.54	8.31
231.757	8.19
231.974	8.73
232.191	4.42
232.408	8
232.625	8.44
232.842	5.23
233.059	3.98
233.276	-0.28
233.493	-0.85
233.71	-0.16
233.927	-1.68
234.144	3.09
234.361	0.61
234.578	1.1
234.795	-4.72
235.012	-4.58
235.229	-2.87
235.446	1.43
235.663	2.26
235.879	2.7
236.096	0.09
236.313	0.66
236.53	-0.35
236.747	3.47
236.964	1.96
237.181	8.32
237.397	9.8
237.614	10.36
237.831	7.58
238.048	11.04
238.264	10.92
238.481	13.65
238.698	14.67
238.915	11.5
239.131	11.69
239.348	11.73
239.565	9.03
239.781	7.12
239.998	5.17
240.215	5.93
240.431	2.23
240.648	0.72
240.865	-0.44
241.081	-0.05
241.298	2.72
241.514	3.1
241.731	5.34
241.947	5.22
242.164	7.69
242.38	8.91
242.597	9.66
242.814	11.72
243.03	12.62
243.246	13.66
243.463	13.77
243.679	13.61
243.896	14.02
244.112	13.51
244.329	13.7
244.545	13.25
244.762	12.98
244.978	12.32
245.194	10.56
245.411	9.2
245.627	7.62
245.843	7.98
246.06	8.11
246.276	6.96
246.492	7.1
246.709	5.85
246.925	3.95
247.141	4.81
247.357	4.72
247.574	4.81
247.79	5.5
248.006	6.5
248.222	6.22
248.439	5.42
248.655	5.19
248.871	5.21
249.087	5.24
249.303	7.08
249.519	5.08
249.736	5.08
249.952	5.49
250.168	4.72
250.384	2.07
250.6	1.78
250.816	3.14
251.032	3.94
251.248	2.9
251.464	5.04
251.68	3.78
251.896	3.97
252.112	3.14
252.328	1.59
252.544	1.13
252.76	1.51
252.976	0.31
253.192	-2.23
253.408	-2.72
253.624	-3.43
253.84	-5.83
254.056	-6.22
254.272	-3.76
254.487	-2.03
254.703	0.44
254.919	1.44
255.135	4.46
255.351	7.9
255.567	10.7
255.782	11.97
255.998	11.77
256.214	13.67
256.43	15.21
256.646	14.72
256.861	13.64
257.077	11.35
257.293	9.98
257.508	9.02
257.724	5.39
257.94	5.25
258.155	4.95
258.371	5.64
258.587	5.39
258.802	4.01
259.018	3.87
259.234	3.49
259.449	4.34
259.665	4.92
259.88	4.58
260.096	5.06
260.312	5.54
260.527	6.38
260.743	6.04
260.958	6.04
261.174	6.69
261.389	6.19
261.605	6.1
261.82	5.64
262.036	5.48
262.251	5.8
262.466	7.78
262.682	8.57
262.897	6.54
263.113	5.88
263.328	6.7
263.543	8.6
263.759	9.64
263.974	10.34
264.189	11.87
264.405	11.48
264.62	12.35
264.835	11.11
265.051	11.16
265.266	12.33
265.481	11.12
265.696	10.77
265.912	8.87
266.127	7.12
266.342	7.14
266.557	6.75
266.773	7.35
266.988	6.92
267.203	6.41
267.418	5.63
267.633	4.09
267.848	5.22
268.064	4.26
268.279	3.72
268.494	4.12
268.709	3.88
268.924	4.37
269.139	3.32
269.354	3.1
269.569	2.27
269.784	1.27
269.999	1.78
270.214	3.02
270.429	2.39
270.644	1.81
270.859	3.04
271.074	3.02
271.289	1.98
271.504	3.34
271.719	3.28
271.934	4.28
272.149	4.81
272.363	4.62
272.578	4.61
272.793	6.23
273.008	6.03
273.223	6
273.438	6.55
273.653	6.85
273.867	4.69
274.082	5.05
274.297	5.31
274.512	6.19
274.726	7.44
274.941	7.84
275.156	7.52
275.371	7.92
275.585	6.84
275.8	6.07
276.015	5.96
276.229	7.58
276.444	7.68
276.659	7.33
276.873	6.86
277.088	5.91
277.302	4.77
277.517	4.16
277.732	5.61
277.946	6.67
278.161	7.01
278.375	6
278.59	6.41
278.804	5.53
279.019	5.56
279.233	4.11
279.448	3.79
279.662	3.51
279.877	3.13
280.091	1.12
280.306	1.11
280.52	1.06
280.735	1.51
280.949	1.78
281.163	3.51
281.378	3.7
281.592	5.24
281.806	5.78
282.021	5.96
282.235	5.93
282.449	7.45
282.664	6.87
282.878	7.89
283.092	8.27
283.307	7.91
283.521	7
283.735	6.6
283.949	4.81
284.164	3.93
284.378	3.74
284.592	4.5
284.806	4.23
285.02	4.56
285.234	3.1
285.449	2.43
285.663	2.87
285.877	2.19
286.091	3.46
286.305	4.38
286.519	4.45
286.733	5.23
286.947	5.49
287.161	5.83
287.375	6.52
287.589	6.75
287.803	7.27
288.017	6.96
288.231	6.27
288.445	5.28
288.659	4.69
288.873	5.85
289.087	5.1
289.301	4.56
289.515	3.77
289.729	3.23
289.943	5.25
290.157	6.74
290.371	6.73
290.584	7.69
290.798	7.83
291.012	8.82
291.226	8.75
291.44	9.58
291.654	9.86
291.867	9.35
292.081	7.76
292.295	6.93
292.509	5.74
292.722	5.63
292.936	6.98
293.15	6.32
293.364	5.73
293.577	5.97
293.791	5.29
294.005	5.28
294.218	6.22
294.432	8.73
294.645	8.12
294.859	9.33
295.073	10.51
295.286	10.13
295.5	10.28
295.713	8.99
295.927	9.24
296.14	9.32
296.354	9.02
296.568	7.96
296.781	7.92
296.994	8.33
297.208	7.48
297.421	6.3
297.635	6.39
297.848	5.45
298.062	6.37
298.275	5.34
298.489	5.73
298.702	7.17
298.915	7.32
299.129	6.24
299.342	5.83
299.555	5.29
299.769	4.99
299.982	3.81
300.195	3.73
300.409	4.27
300.622	4.6
300.835	3.92
301.048	2.84
301.262	4.98
301.475	6.43
301.688	6.67
301.901	7.11
302.115	8.13
302.328	8.04
302.541	9.32
302.754	8.08
302.967	9.01
303.18	7.95
303.393	6.62
303.607	4.46
303.82	4.14
304.033	4.21
304.246	3.94
304.459	5.48
304.672	6.33
304.885	6.62
305.098	7.1
305.311	7.42
305.524	8.62
305.737	10.07
305.95	10.95
306.163	11.17
306.376	11.06
306.589	12.34
306.802	9.76
307.015	8.47
307.228	8.78
307.44	8.22
307.653	7.39
307.866	6.3
308.079	4.67
308.292	5.22
308.505	5.92
308.718	8.18
308.93	8.11
309.143	8.63
309.356	9.85
309.569	8.85
309.781	9.44
309.994	9.54
310.207	10.76
310.42	12.25
310.632	11.96
310.845	12.49
311.058	10.9
311.27	10.8
311.483	11.86
311.696	12.31
311.908	11.92
312.121	11.67
312.333	10.8
312.546	10.27
312.759	10.17
312.971	9.48
313.184	8.69
313.396	8.99
313.609	8.15
313.821	7.62
314.034	6.76
314.246	8.17
314.459	9.22
314.671	10.16
314.884	10.39
315.096	11.86
315.309	12.85
315.521	12.21
315.733	12.01
315.946	12.3
316.158	11.76
316.371	10.88
316.583	10.5
316.795	10.6
317.008	11.22
317.22	11.9
317.432	9.86
317.644	10.05
317.857	10.57
318.069	9.6
318.281	11.06
318.494	11.67
318.706	12.85
318.918	13.36
319.13	12.62
319.342	11.72
319.555	10.28
319.767	8.25
319.979	7.26
320.191	7.66
320.403	9.45
320.615	7.16
320.827	7.36
321.039	7.19
321.252	8.25
321.464	9.07
321.676	10.77
321.888	11.42
322.1	15.17
322.312	16.3
322.524	15.95
322.736	15.81
322.948	15.55
323.16	15.95
323.372	16.21
323.584	15.03
323.796	14.15
324.007	12.64
324.219	12.53
324.431	10.56
324.643	10.33
324.855	9.74
325.067	9.48
325.279	12.87
325.491	13.56
325.702	13.2
325.914	14.08
326.126	14.88
326.338	16.32
326.55	16.44
326.761	17.73
326.973	18.63
327.185	19.41
327.396	20.01
327.608	18.66
327.82	18.1
328.032	18.51
328.243	18.98
328.455	19.55
328.666	20.15
328.878	22.22
329.09	22.61
329.301	23.13
329.513	24.51
329.725	24.89
329.936	24.48
330.148	24.79
330.359	26.5
330.571	28.07
330.782	28.58
330.994	29.33
331.205	29.02
331.417	29.41
331.628	30.01
331.84	30.37
332.051	31.13
332.262	32.49
332.474	33.55
332.685	32.81
332.897	31.63
333.108	31.83
333.319	31.98
333.531	32
333.742	32.22
333.953	31.38
334.165	31.06
334.376	30.52
334.587	30.92
334.799	31.69
335.01	31.82
335.221	32.91
335.432	33.15
335.644	32.94
335.855	32.38
336.066	32.68
336.277	33.3
336.488	34.59
336.7	36.17
336.911	35.18
337.122	33.32
337.333	33.54
337.544	34.07
337.755	34.97
337.966	35.18
338.177	36.31
338.388	37.2
338.599	37.39
338.811	37.59
339.022	37.72
339.233	39.27
339.444	41.13
339.655	41.67
339.866	40.99
340.076	40.26
340.287	41.03
340.498	42.37
340.709	43.18
340.92	43.37
341.131	43.17
341.342	43.45
341.553	43.07
341.764	43.24
341.975	42.76
342.185	43
342.396	43.07
342.607	43.02
342.818	42.4
343.029	42.01
343.239	42.29
343.45	40.97
343.661	40.69
343.872	41.21
344.082	41.22
344.293	42.65
344.504	43.96
344.714	44.51
344.925	44.49
345.136	43.93
345.346	44.33
345.557	43.6
345.768	44.37
345.978	44.16
346.189	44.77
346.399	44.1
346.61	43.54
346.821	41.68
347.031	41.16
347.242	40.38
347.452	40.25
347.663	38.3
347.873	39.78
348.084	39.82
348.294	39.86
348.504	38.84
348.715	39.55
348.925	40.13
349.136	40.81
349.346	40.61
349.557	41.96
349.767	42.44
349.977	43.7
350.188	43.14
350.398	43.86
350.608	44
350.819	43.29
351.029	43.08
351.239	43.19
351.449	42.57
351.66	43.73
351.87	43.25
352.08	43.83
352.29	43.74
352.501	44.61
352.711	43.54
352.921	43.96
353.131	45.17
353.341	45.1
353.552	44.6
353.762	45.41
353.972	45.07
354.182	45.16
354.392	44.98
354.602	45.28
354.812	44.89
355.022	44.94
355.232	43.65
355.442	43.68
355.652	44.21
355.862	43.93
356.072	43.9
356.282	43.67
356.492	43.25
356.702	42.06
356.912	41.12
357.122	40.55
357.332	41.84
357.542	42.49
357.752	41.98
357.962	41.33
358.171	41.67
358.381	41.88
358.591	41.98
358.801	42.03
359.011	43.1
359.221	43.91
359.43	44.32
359.64	42.56
359.85	42.8
360.06	42.86
360.269	43.6
360.479	43.7
360.689	44.05
360.899	44.05
361.108	43.3
361.318	43.04
361.528	43
361.737	43.06
361.947	43.29
362.156	42.99
362.366	43.28
362.576	42.88
362.785	42.84
362.995	42.14
363.204	41.38
363.414	42.17
363.623	42.5
363.833	42.03
364.042	40.75
364.252	41.35
364.461	40.93
364.671	41.06
364.88	40.79
365.09	40.08
365.299	39.9
365.509	40.54
365.718	39.85
365.927	38.8
366.137	39.06
366.346	40.36
366.555	39.84
366.765	40.02
366.974	39.2
367.183	38.47
367.393	38.44
367.602	38.47
367.811	38.44
368.021	39.31
368.23	39.86
368.439	39.11
368.648	39.2
368.857	39.24
369.067	39.29
369.276	38.7
369.485	39.59
369.694	40.13
369.903	40.29
370.112	40.06
370.321	39.16
370.531	39.21
370.74	39.74
370.949	38.99
371.158	39.01
371.367	39.24
371.576	39.43
371.785	40.16
371.994	39.78
372.203	39.98
372.412	40.28
372.621	40.99
372.83	40.76
373.039	41.05
373.248	41.22
373.457	41.32
373.666	40.87
373.874	41
374.083	39.98
374.292	39.5
374.501	39.07
374.71	38.43
374.919	38.19
375.128	37.9
375.336	37.36
375.545	37.39
375.754	36.9
375.963	36.76
376.171	36.48
376.38	36.24
376.589	36.81
376.798	36.88
377.006	37.2
377.215	36.83
377.424	37.1
377.632	36.96
377.841	36.89
378.05	37.1
378.258	37.27
378.467	37.66
378.675	37.5
378.884	37.76
379.093	37.79
379.301	37.17
379.51	36.86
379.718	36.21
379.927	36.03
380.135	36.04
380.344	36.12
380.552	36.2
380.761	35.79
380.969	36.58
381.177	35.99
381.386	35.53
381.594	35.65
381.803	36.1
382.011	36.5
382.219	36.61
382.428	36.86
382.636	36.5
382.845	36.25
383.053	35.98
383.261	35.56
383.469	35.18
383.678	35.24
383.886	35.22
384.094	34.82
384.302	34.61
384.511	34.58
384.719	34
384.927	33.98
385.135	34.03
385.343	34.52
385.552	34.37
385.76	34.29
385.968	33.93
386.176	34.07
386.384	34.02
386.592	33.88
386.8	33.7
387.008	33.4
387.216	32.9
387.424	32.33
387.633	31.35
387.841	31.37
388.049	31.8
388.257	31.94
388.465	31.53
388.672	31.32
388.88	31.48
389.088	31
389.296	31.4
389.504	31.44
389.712	31.38
389.92	32.03
390.128	31.82
390.336	31.31
390.544	31.28
390.751	31.47
390.959	31.68
391.167	31.62
391.375	32.26
391.583	31.93
391.79	32.1
391.998	32.52
392.206	32.7
392.414	32.87
392.621	32.65
392.829	32.52
393.037	32.35
393.244	32.2
393.452	32.18
393.66	31.96
393.867	31.93
394.075	31.94
394.283	31.89
394.49	31.44
394.698	31.11
394.905	31.45
395.113	31.42
395.32	31.43
395.528	31.08
395.735	30.83
395.943	30.82
396.15	30.94
396.358	30.91
396.565	30.8
396.773	31.11
396.98	31.34
397.188	31.19
397.395	31.13
397.602	31.34
397.81	31.56
398.017	31.8
398.225	31.4
398.432	31.6
398.639	31.52
398.847	30.97
399.054	30.48
399.261	30.34
399.468	30.61
399.676	30.76
399.883	30.51
400.09	30.5
400.297	30.41
400.505	30.66
400.712	30.25
400.919	30.33
401.126	30.56
401.333	30.74
401.54	30.43
401.748	30.07
401.955	29.83
402.162	29.74
402.369	29.59
402.576	29.58
402.783	29.3
402.99	29.26
403.197	28.83
403.404	28.78
403.611	28.73
403.818	28.9
404.025	28.92
404.232	28.84
404.439	29.04
404.646	28.99
404.853	28.82
405.06	28.92
405.267	28.96
405.474	29.27
405.681	29.47
405.887	29.45
406.094	29.47
406.301	29.34
406.508	29.57
406.715	29.44
406.922	29.77
407.128	29.66
407.335	29.57
407.542	29.67
407.749	29.39
407.955	29.12
408.162	29.1
408.369	29.19
408.575	29.39
408.782	28.96
408.989	28.57
409.195	28.36
409.402	28.27
409.609	28.35
409.815	28.36
410.022	28.55
410.228	28.57
410.435	28.38
410.642	28.27
410.848	28.34
411.055	28.41
411.261	28.82
411.468	28.62
411.674	28.45
411.881	28.3
412.087	28.06
412.294	27.78
412.5	28.12
412.706	28.41
412.913	28.32
413.119	28.18
413.326	28.16
413.532	28.09
413.738	28.44
413.945	28.71
414.151	28.88
414.357	28.54
414.564	28.7
414.77	28.35
414.976	28.15
415.182	27.9
415.389	27.85
415.595	27.82
415.801	27.73
416.007	27.64
416.214	27.68
416.42	27.53
416.626	28.06
416.832	28.05
417.038	27.89
417.244	27.92
417.45	28.09
417.657	28.07
417.863	28.05
418.069	27.78
418.275	27.71
418.481	27.64
418.687	27.57
418.893	27.24
419.099	27.13
419.305	27.26
419.511	27.27
419.717	27.22
419.923	27.24
420.129	27.22
420.335	27.31
420.541	27.13
420.746	27.08
420.952	27
421.158	27.04
421.364	27.1
421.57	26.91
421.776	26.88
421.982	26.93
422.187	26.83
422.393	26.78
422.599	26.6
422.805	26.75
423.01	26.73
423.216	26.74
423.422	26.68
423.628	26.62
423.833	26.6
424.039	26.49
424.245	26.39
424.45	26.22
424.656	26.16
424.862	26.28
425.067	26.17
425.273	26.24
425.478	26.25
425.684	26.18
425.889	26.11
426.095	26.2
426.301	26.14
426.506	25.98
426.712	26.06
426.917	26.19
427.123	26.32
427.328	26.23
427.533	26.06
427.739	26.04
427.944	26.22
428.15	26.15
428.355	25.93
428.561	26.16
428.766	26.12
428.971	26.16
429.177	26.17
429.382	25.91
429.587	25.79
429.793	25.92
429.998	25.86
430.203	25.77
430.408	25.76
430.614	26.07
430.819	25.9
431.024	25.77
431.229	25.6
431.434	25.38
431.64	25.37
431.845	25.62
432.05	25.6
432.255	25.57
432.46	25.72
432.665	25.82
432.87	25.63
433.076	25.57
433.281	25.83
433.486	25.96
433.691	26.17
433.896	26.26
434.101	26.17
434.306	26.19
434.511	26.31
434.716	26.29
434.921	26.28
435.126	26.44
435.331	26.56
435.535	26.37
435.74	26.36
435.945	26.3
436.15	26.16
436.355	26.17
436.56	25.98
436.765	25.93
436.97	25.87
437.174	25.81
437.379	25.74
437.584	25.69
437.789	25.7
437.993	25.79
438.198	25.73
438.403	26
438.608	25.95
438.812	26.03
439.017	25.88
439.222	25.98
439.426	26.05
439.631	25.89
439.836	25.86
440.04	26.02
440.245	26.05
440.45	26.05
440.654	25.93
440.859	26.01
441.063	26.04
441.268	26.12
441.472	26
441.677	26.1
441.881	26.16
442.086	26.23
442.29	26.19
442.495	26.09
442.699	26.1
442.904	26.09
443.108	26.04
443.312	26.05
443.517	26
443.721	25.97
443.925	25.99
444.13	26.11
444.334	26.03
444.538	26.1
444.743	26.01
444.947	25.94
445.151	25.97
445.356	25.93
445.56	25.92
445.764	26.07
445.968	26.14
446.173	26.01
446.377	25.94
446.581	25.95
446.785	25.91
446.989	25.96
447.193	25.92
447.398	25.9
447.602	25.99
447.806	26.03
448.01	25.99
448.214	25.76
448.418	25.84
448.622	25.81
448.826	25.75
449.03	25.7
449.234	25.71
449.438	25.9
449.642	25.89
449.846	25.87
450.05	25.65
450.254	25.51
450.458	25.76
450.662	25.57
450.866	25.34
451.069	25.4
451.273	25.29
451.477	25.26
451.681	25.15
451.885	25.24
452.089	25.05
452.292	25.09
452.496	25.31
452.7	25.16
452.904	25.18
453.107	25.4
453.311	25.52
453.515	25.73
453.719	25.72
453.922	25.6
454.126	25.4
454.33	25.42
454.533	25.35
454.737	25.09
454.94	25.44
455.144	25.42
455.348	25.43
455.551	25.35
455.755	25.13
455.958	25.01
456.162	24.93
456.365	24.95
456.569	25.07
456.772	25.25
456.976	25.23
457.179	24.91
457.383	24.79
457.586	24.81
457.79	24.56
457.993	24.7
458.196	24.87
458.4	24.93
458.603	24.97
458.807	24.92
459.01	24.84
459.213	24.92
459.417	24.93
459.62	25.03
459.823	24.98
460.026	25.12
460.23	25.02
460.433	24.89
460.636	24.98
460.839	25.03
461.042	25
461.246	25.09
461.449	24.94
461.652	24.93
461.855	24.82
462.058	24.89
462.261	24.98
462.464	24.97
462.668	25.15
462.871	25.22
463.074	25.1
463.277	25.23
463.48	25.14
463.683	25.26
463.886	25.29
464.089	25.5
464.292	25.3
464.495	25.27
464.698	25.32
464.901	25.16
465.104	25.13
465.306	25.21
465.509	25.1
465.712	25.02
465.915	24.98
466.118	25.05
466.321	24.87
466.524	24.83
466.726	24.86
466.929	24.71
467.132	24.89
467.335	24.76
467.538	24.68
467.74	24.77
467.943	24.92
468.146	24.9
468.348	24.83
468.551	24.97
468.754	25.15
468.956	24.98
469.159	25.34
469.362	25.22
469.564	25.22
469.767	25.23
469.969	25.35
470.172	25.41
470.375	25.48
470.577	25.7
470.78	25.54
470.982	25.47
471.185	25.75
471.387	25.44
471.59	25.47
471.792	25.51
471.995	25.64
472.197	25.29
472.399	25.28
472.602	25.47
472.804	25.35
473.007	25.4
473.209	25.26
473.411	25.12
473.614	25.35
473.816	25.27
474.018	25.51
474.22	25.47
474.423	25.67
474.625	25.69
474.827	25.65
475.03	25.67
475.232	25.69
475.434	25.96
475.636	25.9
475.838	25.77
476.04	25.89
476.243	25.7
476.445	25.61
476.647	25.72
476.849	25.67
477.051	25.61
477.253	25.49
477.455	25.45
477.657	25.47
477.859	25.5
478.061	25.58
478.263	25.52
478.465	25.67
478.667	25.61
478.869	25.47
479.071	25.42
479.273	25.39
479.475	25.34
479.677	25.29
479.879	25.14
480.081	25.16
480.283	25.14
480.485	25.14
480.686	24.97
480.888	25.01
481.09	24.97
481.292	24.92
481.494	25.03
481.695	25.09
481.897	25.13
482.099	25.28
482.301	25.34
482.502	25.26
482.704	25.28
482.906	25.3
483.107	25.34
483.309	25.33
483.511	25.36
483.712	25.27
483.914	25.28
484.115	25.31
484.317	25.27
484.519	25.21
484.72	25.25
484.922	25.29
485.123	25.28
485.325	25.24
485.526	25.25
485.728	25.31
485.929	25.37
486.131	25.36
486.332	25.31
486.534	25.31
486.735	25.31
486.936	25.16
487.138	25.08
487.339	25.08
487.541	25.11
487.742	25.16
487.943	25.11
488.144	25.11
488.346	25.09
488.547	25.09
488.748	25.11
488.95	25.14
489.151	25.25
489.352	25.27
489.553	25.24
489.755	25.3
489.956	25.26
490.157	25.24
490.358	25.23
490.559	25.18
490.76	25.24
490.961	25.28
491.163	25.29
491.364	25.33
491.565	25.27
491.766	25.33
491.967	25.32
492.168	25.34
492.369	25.28
492.57	25.33
492.771	25.37
492.972	25.34
493.173	25.23
493.374	25.23
493.575	25.13
493.776	25.3
493.976	25.17
494.177	25.11
494.378	25.12
494.579	25.16
494.78	25.04
494.981	25.15
495.182	25.28
495.382	25.42
495.583	25.39
495.784	25.6
495.985	25.52
496.185	25.66
496.386	25.67
496.587	25.51
496.788	25.49
496.988	25.63
497.189	25.56
497.39	25.44
497.59	25.36
497.791	25.39
497.992	25.28
498.192	25.34
498.393	25.5
498.593	25.37
498.794	25.42
498.994	25.48
499.195	25.43
499.395	25.45
499.596	25.63
499.796	25.64
499.997	25.62
500.197	25.69
500.398	25.73
500.598	25.45
500.799	25.51
500.999	25.59
501.199	25.61
501.4	25.6
501.6	25.64
501.801	25.59
502.001	25.67
502.201	25.74
502.402	25.85
502.602	25.88
502.802	26.09
503.002	26.28
503.203	26.3
503.403	26.35
503.603	26.56
503.803	26.67
504.003	26.73
504.204	26.99
504.404	26.9
504.604	26.71
504.804	26.54
505.004	26.64
505.204	26.57
505.404	26.65
505.604	26.84
505.804	26.91
506.005	26.85
506.205	26.77
506.405	26.55
506.605	26.87
506.805	26.97
507.005	27.04
507.204	26.99
507.404	27.13
507.604	27.29
507.804	27.07
508.004	26.97
508.204	27.05
508.404	27.11
508.604	27.24
508.804	27.04
509.003	27.11
509.203	27.09
509.403	27.06
509.603	27.03
509.803	26.9
510.002	27.01
510.202	27.04
510.402	27.14
510.602	27.24
510.801	27.24
511.001	27.3
511.201	27.38
511.4	27.49
511.6	27.59
511.8	27.6
511.999	27.59
512.199	27.79
512.398	27.82
512.598	27.76
512.797	27.71
512.997	27.7
513.197	27.89
513.396	27.76
513.596	27.81
513.795	27.89
513.994	28
514.194	28.09
514.393	27.88
514.593	27.71
514.792	27.81
514.992	27.93
515.191	27.88
515.39	27.86
515.59	27.99
515.789	27.97
515.988	27.87
516.188	27.8
516.387	27.98
516.586	28.27
516.786	28.51
516.985	28.52
517.184	28.63
517.383	28.69
517.582	28.69
517.782	28.75
517.981	28.78
518.18	28.93
518.379	29.02
518.578	28.99
518.777	28.96
518.976	28.93
519.176	29.02
519.375	29
519.574	29.1
519.773	29.05
519.972	29.08
520.171	29.11
520.37	29.05
520.569	29.14
520.768	29.16
520.967	29
521.166	29.04
521.365	28.98
521.564	28.99
521.762	29.04
521.961	29.21
522.16	29.25
522.359	29.23
522.558	29.4
522.757	29.41
522.956	29.49
523.154	29.68
523.353	29.72
523.552	29.81
523.751	29.73
523.949	29.82
524.148	29.71
524.347	29.87
524.546	30.12
524.744	30.02
524.943	29.97
525.142	29.92
525.34	30.06
525.539	29.98
525.737	30.02
525.936	30.02
526.135	29.97
526.333	30.03
526.532	29.96
526.73	29.94
526.929	30.01
527.127	30
527.326	30.02
527.524	30.03
527.723	30.15
527.921	30.21
528.12	30.28
528.318	30.3
528.516	30.37
528.715	30.34
528.913	30.35
529.112	30.37
529.31	30.41
529.508	30.49
529.707	30.48
529.905	30.49
530.103	30.42
530.301	30.41
530.5	30.43
530.698	30.41
530.896	30.5
531.094	30.55
531.293	30.55
531.491	30.55
531.689	30.56
531.887	30.54
532.085	30.5
532.283	30.58
532.481	30.68
532.68	30.62
532.878	30.62
533.076	30.73
533.274	30.71
533.472	30.73
533.67	30.8
533.868	30.75
534.066	30.79
534.264	30.85
534.462	30.83
534.66	30.77
534.858	30.79
535.056	30.9
535.253	30.82
535.451	30.89
535.649	30.79
535.847	30.85
536.045	30.9
536.243	30.84
536.441	30.77
536.638	30.89
536.836	30.96
537.034	31
537.232	31.02
537.43	31.08
537.627	31.13
537.825	31.32
538.023	31.33
538.22	31.4
538.418	31.46
538.616	31.54
538.813	31.48
539.011	31.46
539.209	31.66
539.406	31.57
539.604	31.58
539.801	31.44
539.999	31.33
540.196	31.27
540.394	31.32
540.591	31.3
540.789	31.35
540.986	31.4
541.184	31.44
541.381	31.39
541.579	31.43
541.776	31.39
541.974	31.48
542.171	31.52
542.368	31.58
542.566	31.55
542.763	31.57
542.96	31.57
543.158	31.6
543.355	31.62
543.552	31.68
543.75	31.66
543.947	31.69
544.144	31.72
544.341	31.82
544.539	31.92
544.736	31.86
544.933	31.96
545.13	32.07
545.327	32.09
545.524	32.15
545.722	32.19
545.919	32.3
546.116	32.3
546.313	32.36
546.51	32.35
546.707	32.26
546.904	32.38
547.101	32.51
547.298	32.5
547.495	32.48
547.692	32.53
547.889	32.48
548.086	32.42
548.283	32.57
548.48	32.49
548.677	32.48
548.874	32.57
549.07	32.55
549.267	32.61
549.464	32.75
549.661	32.72
549.858	32.56
550.055	32.51
550.251	32.47
550.448	32.26
550.645	32.53
550.842	32.4
551.038	32.42
551.235	32.34
551.432	32.14
551.628	31.99
551.825	32.08
552.022	32.29
552.218	32.39
552.415	32.44
552.612	32.63
552.808	32.5
553.005	32.84
553.201	32.94
553.398	33.12
553.594	33.22
553.791	33.25
553.987	33.2
554.184	33.19
554.38	33.36
554.577	33.58
554.773	33.7
554.97	33.8
555.166	33.58
555.362	33.35
555.559	33.41
555.755	33.42
555.952	33.39
556.148	33.54
556.344	33.36
556.541	33.26
556.737	33.23
556.933	33.21
557.129	33.11
557.326	33.3
557.522	33.6
557.718	33.37
557.914	33.21
558.11	33.26
558.307	33.42
558.503	33.57
558.699	33.38
558.895	33.29
559.091	33.22
559.287	32.99
559.483	32.86
559.679	32.66
559.876	33
560.072	33.11
560.268	33.02
560.464	32.96
560.66	32.95
560.856	33.1
561.052	33.22
561.247	33.42
561.443	33.63
561.639	33.49
561.835	33.65
562.031	33.55
562.227	33.66
562.423	33.81
562.619	33.89
562.815	34.1
563.01	34.44
563.206	34.43
563.402	34.42
563.598	34.5
563.793	34.81
563.989	34.78
564.185	34.74
564.381	34.74
564.576	34.83
564.772	34.61
564.968	34.6
565.163	34.69
565.359	34.83
565.555	34.82
565.75	34.91
565.946	34.84
566.141	34.9
566.337	35.02
566.532	35.02
566.728	34.95
566.923	35.11
567.119	35.01
567.314	34.9
567.51	34.79
567.705	34.64
567.901	34.39
568.096	34.57
568.292	34.54
568.487	34.47
568.682	34.55
568.878	34.63
569.073	34.49
569.268	34.56
569.464	34.57
569.659	34.42
569.854	34.3
570.05	34.28
570.245	34.29
570.44	34.34
570.635	34.27
570.831	34.32
571.026	34.15
571.221	34.27
571.416	34.23
571.611	34.21
571.806	34.32
572.002	34.61
572.197	34.87
572.392	34.79
572.587	34.75
572.782	34.99
572.977	35.08
573.172	35.32
573.367	35.46
573.562	35.62
573.757	35.65
573.952	35.68
574.147	35.7
574.342	35.75
574.537	35.58
574.732	35.61
574.927	35.52
575.121	35.27
575.316	35.37
575.511	35.25
575.706	35.36
575.901	35.45
576.096	35.36
576.29	35.37
576.485	35.43
576.68	35.71
576.875	35.68
577.069	35.55
577.264	35.75
577.459	35.65
577.654	35.76
577.848	35.54
578.043	35.48
578.238	35.64
578.432	35.68
578.627	35.51
578.821	35.54
579.016	35.77
579.21	36.15
579.405	36.11
579.6	36.3
579.794	36.32
579.989	36.28
580.183	36.22
580.378	36.37
580.572	36.38
580.766	36.62
580.961	36.47
581.155	36.27
581.35	36.11
581.544	36.35
581.738	36.06
581.933	35.98
582.127	36.16
582.321	36.25
582.516	36.22
582.71	36.08
582.904	35.77
583.099	35.93
583.293	35.97
583.487	35.9
583.681	35.57
583.875	35.4
584.07	35.76
584.264	35.73
584.458	35.82
584.652	35.82
584.846	35.74
585.04	36.07
585.234	36.11
585.428	36.11
585.623	36.21
585.817	36.05
586.011	36.09
586.205	35.8
586.399	35.59
586.593	35.35
586.787	35.22
586.981	35.34
587.174	35.03
587.368	34.79
587.562	35.03
587.756	34.83
587.95	35.17
588.144	35.58
588.338	35.71
588.532	35.91
588.725	36.18
588.919	36.23
589.113	36.18
589.307	36.22
589.501	36.24
589.694	35.95
589.888	35.91
590.082	36.02
590.275	35.76
590.469	35.64
590.663	35.47
590.856	35.29
591.05	35.23
591.244	35.18
591.437	35.23
591.631	35.26
591.824	35.52
592.018	35.68
592.212	35.84
592.405	35.8
592.599	35.79
592.792	35.9
592.986	35.92
593.179	36.11
593.372	36.25
593.566	36.54
593.759	36.39
593.953	36.13
594.146	36.26
594.339	35.74
594.533	35.74
594.726	35.82
594.92	35.79
595.113	35.69
595.306	35.73
595.499	35.83
595.693	35.66
595.886	35.98
596.079	36.11
596.272	36.05
596.466	36.14
596.659	36.12
596.852	36.13
597.045	36.28
597.238	36.5
597.431	36.4
597.624	36.47
597.818	36.35
598.011	36.12
598.204	36.25
598.397	36.06
598.59	36.31
598.783	36.62
598.976	36.61
599.169	36.78
599.362	36.65
599.555	36.45
599.748	36.01
599.941	36.26
600.134	36.42
600.326	36.28
600.519	36.55
600.712	36.33
600.905	36.07
601.098	36.02
601.291	35.85
601.483	35.98
601.676	36.15
601.869	36.66
602.062	36.42
602.255	36.47
602.447	36.55
602.64	36.54
602.833	36.69
603.025	36.53
603.218	36.75
603.411	36.55
603.603	36.48
603.796	36.53
603.989	36.4
604.181	36.44
604.374	36.76
604.566	36.67
604.759	36.65
604.951	36.7
605.144	36.94
605.336	36.84
605.529	37.1
605.721	37.05
605.914	36.99
606.106	37.01
606.299	37.12
606.491	36.64
606.683	36.84
606.876	36.6
607.068	36.45
607.26	36.58
607.453	36.57
607.645	36.28
607.837	36.51
608.03	36.62
608.222	36.48
608.414	36.32
608.606	36.37
608.799	36.26
608.991	36.43
609.183	36.51
609.375	36.17
609.567	35.96
609.759	36.01
609.952	35.81
610.144	35.75
610.336	35.88
610.528	36.17
610.72	36.24
610.912	36.17
611.104	36.36
611.296	36.26
611.488	36.58
611.68	36.72
611.872	37.08
612.064	37.19
612.256	37.37
612.448	37.09
612.64	36.93
612.832	36.77
613.023	36.64
613.215	36.52
613.407	36.43
613.599	36.45
613.791	36.36
613.983	35.89
614.174	35.9
614.366	36.15
614.558	36.44
614.75	36.12
614.941	36.24
615.133	36.54
615.325	36.54
615.516	36.92
615.708	36.69
615.9	36.95
616.091	37.1
616.283	37.04
616.475	36.61
616.666	36.77
616.858	37.05
617.049	37.19
617.241	36.86
617.432	36.72
617.624	36.48
617.815	36.45
618.007	36.36
618.198	36.26
618.39	36.31
618.581	36.23
618.773	36.06
618.964	36.2
619.155	36.12
619.347	36.26
619.538	36.46
619.729	36.7
619.921	37.09
620.112	37.26
620.303	37.42
620.494	37.33
620.686	37.55
620.877	37.6
621.068	37.53
621.259	37.44
621.451	37.42
621.642	37.13
621.833	36.89
622.024	36.59
622.215	36.49
622.406	36.5
622.597	36.53
622.788	36.57
622.98	36.44
623.171	36.3
623.362	36.13
623.553	36.19
623.744	36.17
623.935	36.36
624.126	36.36
624.317	36.32
624.508	36.07
624.698	35.93
624.889	35.88
625.08	36.02
625.271	36.19
625.462	36.35
625.653	36.63
625.844	37.06
626.034	36.61
626.225	36.82
626.416	36.85
626.607	37.06
626.798	37.44
626.988	37.45
627.179	37.4
627.37	37.27
627.56	37.15
627.751	37.03
627.942	36.87
628.132	37.21
628.323	36.99
628.514	36.94
628.704	36.98
628.895	36.56
629.085	36.18
629.276	35.81
629.466	36.06
629.657	36.2
629.847	36.13
630.038	36.08
630.228	35.68
630.419	35.62
630.609	35.58
630.8	35.67
630.99	35.85
631.181	36.26
631.371	37
631.561	36.76
631.752	36.75
631.942	36.94
632.132	37.07
632.323	37.64
632.513	37.77
632.703	37.61
632.893	37.29
633.084	37.24
633.274	37.07
633.464	36.66
633.654	36.63
633.844	36.73
634.034	36.34
634.225	36.2
634.415	36.2
634.605	36.2
634.795	36.38
634.985	36.36
635.175	36.42
635.365	36.75
635.555	37.05
635.745	37.32
635.935	37.49
636.125	37.74
636.315	37.72
636.505	37.62
636.695	37.38
636.885	37.23
637.075	37.35
637.265	37.45
637.455	37.12
637.644	36.32
637.834	36.16
638.024	36
638.214	36.02
638.404	36.16
638.593	36.15
638.783	36.2
638.973	36.55
639.163	36.65
639.352	36.53
639.542	36.29
639.732	37.04
639.921	36.51
640.111	36.31
640.301	36.19
640.49	36.11
640.68	36.03
640.87	36.13
641.059	35.72
641.249	35.69
641.438	35.39
641.628	35.8
641.817	35.64
642.007	36.3
642.196	36.65
642.386	36.61
642.575	36.39
642.764	36.35
642.954	36.47
643.143	36.65
643.333	36.74
643.522	36.96
643.711	37.13
643.901	37.81
644.09	37.53
644.279	37.47
644.469	37.49
644.658	37.73
644.847	37.87
645.036	38.01
645.226	38.38
645.415	37.91
645.604	37.87
645.793	37.55
645.982	36.9
646.171	37.05
646.361	36.58
646.55	36.78
646.739	37.14
646.928	36.99
647.117	37.08
647.306	36.93
647.495	37.63
647.684	37.7
647.873	37.93
648.062	37.78
648.251	37.33
648.44	37.6
648.629	37.18
648.818	36.98
649.007	37.16
649.196	36.74
649.384	36.46
649.573	36.22
649.762	36.42
649.951	36.27
650.14	36.24
650.328	36.26
650.517	36.4
650.706	36.73
650.895	36.64
651.083	36.54
651.272	36.63
651.461	36.49
651.65	36.69
651.838	36.82
652.027	37.15
652.216	37.15
652.404	37.65
652.593	37.24
652.781	37.08
652.97	36.97
653.158	36.82
653.347	37.04
653.535	36.96
653.724	36.47
653.912	36.39
654.101	36.07
654.289	36.46
654.478	36.42
654.666	37.05
654.855	37.3
655.043	37.43
655.231	37.77
655.42	37.64
655.608	38.11
655.796	38.32
655.985	38.1
656.173	38.1
656.361	37.94
656.55	37.81
656.738	37.35
656.926	36.96
657.114	36.53
657.302	36.27
657.491	36.15
657.679	35.93
657.867	36.14
658.055	36.38
658.243	36
658.431	36.13
658.619	36.11
658.807	36.17
658.996	36.59
659.184	36.68
659.372	36.78
659.56	36.84
659.748	36.82
659.936	36.57
660.124	36.23
660.311	36.43
660.499	36.15
660.687	35.94
660.875	36.15
661.063	36.06
661.251	36.15
661.439	36.11
661.627	36.22
661.814	36.34
662.002	36.86
662.19	36.96
662.378	37.21
662.565	37.33
662.753	37.73
662.941	37.37
663.129	37.09
663.316	37.24
663.504	37.55
663.692	37.13
663.879	37
664.067	36.88
664.254	36.92
664.442	36.97
664.63	37.07
664.817	36.69
665.005	36.64
665.192	36.56
665.38	36.79
665.567	36.56
665.755	36.65
665.942	36.85
666.13	36.43
666.317	36.46
666.504	36.42
666.692	36.14
666.879	36.34
667.067	36.46
667.254	37.01
667.441	36.76
667.629	37
667.816	37.48
668.003	37.35
668.19	37.11
668.378	36.75
668.565	36.92
668.752	37.01
668.939	37.04
669.127	37.2
669.314	36.59
669.501	36.45
669.688	36.23
669.875	36.01
670.062	36.33
670.249	36.35
670.436	36.38
670.623	36
670.81	36.22
670.997	36.32
671.184	35.93
671.371	36.02
671.558	36.26
671.745	36.09
671.932	36.21
672.119	36.02
672.306	36.62
672.493	37.27
672.68	37.39
672.867	37.33
673.054	36.87
673.24	37.24
673.427	36.98
673.614	36.58
673.801	36.41
673.988	36.07
674.174	36.03
674.361	35.65
674.548	35.83
674.734	35.88
674.921	35.74
675.108	35.76
675.294	35.86
675.481	36.43
675.668	36.58
675.854	36.97
676.041	37.44
676.227	37.41
676.414	37.37
676.601	37.27
676.787	37.16
676.974	37.51
677.16	38.12
677.347	38.11
677.533	37.79
677.719	37.64
677.906	37.64
678.092	37.41
678.279	37.52
678.465	36.86
678.651	36.59
678.838	36.68
679.024	36.71
679.21	36.23
679.397	35.96
679.583	35.98
679.769	36.15
679.955	35.78
680.142	35.83
680.328	35.8
680.514	36.5
680.7	36.39
680.886	36.46
681.073	36.14
681.259	36.61
681.445	37.08
681.631	37.17
681.817	37.28
682.003	37.97
682.189	37.51
682.375	37.34
682.561	37.45
682.747	37.64
682.933	37.66
683.119	37.77
683.305	37.73
683.491	37.32
683.677	37.15
683.863	37.08
684.049	37.15
684.235	37.78
684.42	38.06
684.606	37.37
684.792	37.1
684.978	36.85
685.164	36.6
685.349	36.08
685.535	36.36
685.721	36.72
685.907	37.13
686.092	36.31
686.278	36.8
686.464	36.91
686.649	37.38
686.835	37.19
687.021	37.15
687.206	37
687.392	37.76
687.577	37.76
687.763	37.71
687.948	36.97
688.134	37.32
688.319	36.77
688.505	36.99
688.69	36.31
688.876	36.33
689.061	36.12
689.247	36.72
689.432	36.18
689.618	36.13
689.803	35.99
689.988	36.45
690.174	36.75
690.359	36.49
690.544	35.95
690.73	36.49
690.915	36.95
691.1	37.54
691.285	37.35
691.471	37.56
691.656	37.5
691.841	37.67
692.026	37.55
692.211	36.97
692.396	37.2
692.582	37.27
692.767	37.54
692.952	37.03
693.137	37.55
693.322	38.09
693.507	38
693.692	37.54
693.877	37.5
694.062	37.21
694.247	37.21
694.432	36.7
694.617	36.51
694.802	36.91
694.987	36.88
695.172	36.11
695.357	35.28
695.541	35.77
695.726	36.32
695.911	36.62
696.096	36.93
696.281	36.89
696.466	37.38
696.65	37.88
696.835	37.42
697.02	37.73
697.204	37.53
697.389	38.05
697.574	37.43
697.759	37.67
697.943	37.21
698.128	37.52
698.312	37.56
698.497	37.64
698.682	37.58
698.866	37.71
699.051	37.99
699.235	38.23
699.42	38.29
699.604	38.63
699.789	38.37
699.973	38.85
700.158	38.69
700.342	38.81
700.527	38.77
700.711	38.4
700.895	38.14
701.08	37.93
701.264	37.74
701.448	37.14
701.633	36.43
701.817	36.37
702.001	35.6
702.186	35.25
702.37	35.13
702.554	34.9
702.738	35.5
702.923	35.8
703.107	35.74
703.291	36.29
703.475	36.65
703.659	37.25
703.843	37.63
704.027	38.22
704.212	38.61
704.396	38.96
704.58	38.87
704.764	38.46
704.948	38.08
705.132	38.35
705.316	37.5
705.5	37.29
705.684	37.32
705.868	37.39
706.052	36.79
706.235	36.99
706.419	36.69
706.603	36.62
706.787	37.16
706.971	37.44
707.155	36.92
707.339	37.16
707.522	37.17
707.706	36.68
707.89	36.01
708.074	36.44
708.257	35.55
708.441	35.3
708.625	35.4
708.808	34.88
708.992	34.91
709.176	35.24
709.359	35.21
709.543	35.16
709.727	34.88
709.91	35.53
710.094	36.12
710.277	36.84
710.461	37.27
710.644	37.15
710.828	37.38
711.011	36.95
711.195	37.12
711.378	37.63
711.562	37.41
711.745	37.95
711.928	38.09
712.112	37.86
712.295	37.42
712.478	37.11
712.662	36.91
712.845	36.09
713.028	36.38
713.212	36.01
713.395	35.59
713.578	35.69
713.761	35.95
713.945	35.46
714.128	35.23
714.311	35.48
714.494	36.03
714.677	36.75
714.86	37.07
715.043	37.47
715.227	37.59
715.41	38.03
715.593	38.7
715.776	37.84
715.959	37.36
716.142	37.81
716.325	38.02
716.508	37.72
716.691	37.11
716.874	36.64
717.057	36.52
717.239	36.7
717.422	36.88
717.605	35.8
717.788	36.57
717.971	37.49
718.154	37
718.337	36.81
718.519	36.21
718.702	36.35
718.885	37.38
719.068	37.27
719.25	37.19
719.433	36.34
719.616	37.62
719.798	37.46
719.981	36.27
720.164	35.42
720.346	35.66
720.529	37.05
720.712	37.01
720.894	36.33
721.077	36.22
721.259	35.85
721.442	36.41
721.624	34.98
721.807	35.51
721.989	36.08
722.172	37.46
722.354	36.02
722.537	34.24
722.719	34.97
722.901	35.82
723.084	36.43
723.266	37
723.448	36.27
723.631	36.83
723.813	36.06
723.995	36.05
724.178	35.89
724.36	37.07
724.542	38.35
724.724	38.2
724.907	36.98
725.089	36.45
725.271	36.25
725.453	37.45
725.635	37.44
725.817	37.54
725.999	38.19
726.181	38.38
726.364	38.72
726.546	39.28
726.728	39.43
726.91	40.86
727.092	41.42
727.274	41.32
727.456	40.89
727.638	41.09
727.819	41.44
728.001	40.59
728.183	40
728.365	38.77
728.547	38.16
728.729	37.93
728.911	37.75
729.093	36.46
729.274	36.57
729.456	37
729.638	36.54
729.82	35.73
730.001	36.16
730.183	36.83
730.365	37.44
730.546	37.01
730.728	37.58
730.91	36.94
731.091	37.19
731.273	36.45
731.455	35.69
731.636	36.05
731.818	36.32
731.999	36.59
732.181	35.9
732.362	36.85
732.544	37.29
732.725	35.49
732.907	35.83
733.088	36.59
733.27	36.79
733.451	37.24
733.633	37.81
733.814	37.17
733.995	37.32
734.177	37.05
734.358	36.22
734.539	36.02
734.721	36.85
734.902	36.68
735.083	36.18
735.264	36.26
735.446	36.06
735.627	34.97
735.808	35.25
735.989	34.12
736.17	34.29
736.351	34.54
736.533	34.63
736.714	34.82
736.895	35.21
737.076	34.46
737.257	34.23
737.438	35.01
737.619	35.43
737.8	36.27
737.981	37.11
738.162	37.36
738.343	36.76
738.524	36.11
738.705	36.52
738.886	36.07
739.067	37.37
739.247	37.41
739.428	35.74
739.609	35.32
739.79	34.92
739.971	34.22
740.151	33.96
740.332	35.08
740.513	35.25
740.694	34.62
740.874	34.71
741.055	34.71
741.236	35.02
741.417	35.76
741.597	36.13
741.778	36.1
741.958	36.11
742.139	36.03
742.32	34.52
742.5	34.22
742.681	34.25
742.861	34.1
743.042	34.62
743.222	34.61
743.403	34.63
743.583	35.03
743.764	35.24
743.944	35.39
744.124	35.3
744.305	35.93
744.485	35.99
744.666	36.57
744.846	36.82
745.026	35.48
745.207	35.27
745.387	34.04
745.567	33.68
745.747	33.55
745.928	33.96
746.108	34.03
746.288	33.67
746.468	33.08
746.648	33.06
746.829	33.08
747.009	33.13
747.189	33.33
747.369	33.76
747.549	33.56
747.729	33.96
747.909	34.07
748.089	33.12
748.269	31.98
748.449	33.41
748.629	33.03
748.809	32.5
748.989	33.24
749.169	32.85
749.349	34.45
749.529	36.55
749.709	36.41
749.889	36.39
750.068	36.86
750.248	38.91
750.428	38.36
750.608	38.49
750.788	38.97
750.967	39.46
751.147	39.83
751.327	38.29
751.507	36.74
751.686	37.09
751.866	36.87
752.046	38.15
752.225	37.11
752.405	36.8
752.585	38.31
752.764	37.91
752.944	37.97
753.123	37.83
753.303	37.79
753.482	38.87
753.662	38.22
753.841	38.69
754.021	38.39
754.2	39.99
754.38	40.5
754.559	38.72
754.739	38.28
754.918	36.27
755.097	36.47
755.277	36.4
755.456	34.86
755.635	34.12
755.815	33.2
755.994	33.28
756.173	32.16
756.352	32.86
756.532	33.11
756.711	34.72
756.89	35.49
757.069	36.11
757.248	36.65
757.427	35.77
757.607	37.6
757.786	39.41
757.965	39.2
758.144	40.08
758.323	37.99
758.502	37.57
758.681	36.41
758.86	36.62
759.039	35.53
759.218	36.66
759.397	37.61
759.576	36.15
759.755	35.02
759.934	34.83
760.113	33.58
760.291	34.96
760.47	35.76
760.649	35.69
760.828	35.23
761.007	36.76
761.186	35.43
761.364	36.27
761.543	36.1
761.722	36.55
761.901	36.94
762.079	38.28
762.258	37.39
762.437	37.02
762.615	38.22
762.794	38.32
762.972	37.16
763.151	37.42
763.33	37.65
763.508	38.14
763.687	37.9
763.865	38.16
764.044	37.07
764.222	37.71
764.401	37.88
764.579	37.56
764.758	38.03
764.936	38.32
765.114	39.06
765.293	36.89
765.471	37.45
765.65	37.69
765.828	36.8
766.006	36.97
766.184	36.07
766.363	35.7
766.541	33.98
766.719	33.04
766.898	31.85
767.076	30.63
767.254	32.22
767.432	31.46
767.61	29.58
767.788	30.88
767.967	30.13
768.145	30.82
768.323	30.72
768.501	32.08
768.679	31.93
768.857	34.07
769.035	33.66
769.213	35.44
769.391	34.6
769.569	35.75
769.747	34.03
769.925	34.06
770.103	32.59
770.281	33.65
770.459	33.54
770.636	33.69
770.814	32.87
770.992	34.93
771.17	33.31
771.348	33.71
771.525	33.95
771.703	32.9
771.881	33.58
772.059	35.41
772.236	32.4
772.414	32.52
772.592	35.23
772.769	34.34
772.947	33.91
773.125	34.74
773.302	35.51
773.48	35.3
773.657	38.03
773.835	37.03
774.013	36.03
774.19	37.09
774.368	38
774.545	35.56
774.723	36.13
774.9	33.49
775.077	31.39
775.255	32.21
775.432	30.7
775.61	30.05
775.787	31.43
775.964	31.19
776.142	32.98
776.319	34.07
776.496	34.43
776.674	35.85
776.851	36.89
777.028	37.17
777.205	34.3
777.382	35.96
777.56	37.28
777.737	35.94
777.914	36.6
778.091	36.5
778.268	36.3
778.445	37.03
778.622	35.73
778.8	36.5
778.977	36.82
779.154	36.5
779.331	36.91
779.508	35.08
779.685	36.3
779.862	36.65
780.038	36.03
780.215	34.26
780.392	31.6
780.569	30.93
780.746	28.22
780.923	28.13
781.1	30.65
781.277	30.15
781.453	27.99
781.63	28.09
781.807	26.51
781.984	26.83
782.16	26.23
782.337	27.58
782.514	23.85
782.691	26.41
782.867	25.16
783.044	25.08
783.221	23.64
783.397	23.97
783.574	24.39
783.75	25.61
783.927	27.37
784.103	27.92
784.28	29.88
784.456	36.38
784.633	38.6
784.809	37
784.986	35.57
785.162	37.23
785.339	39.15
785.515	40.21
785.692	41.43
785.868	39.05
786.044	36.94
786.221	37.07
786.397	33.89
786.573	31.35
786.749	33.31
786.926	33.44
787.102	34.27
787.278	33.52
787.454	29.69
787.631	26.86
787.807	27.54
787.983	30.08
788.159	27.63
788.335	28
788.511	28.65
788.687	28.4
788.863	28.52
789.039	28.74
789.216	29.23
789.392	30.69
789.568	31.27
789.744	32.95
789.919	34.71
790.095	35.95
790.271	34.44
790.447	34.5
790.623	36.45
790.799	37.07
790.975	36.1
791.151	36.01
791.327	37.33
791.502	40.23
791.678	38.43
791.854	32.92
792.03	34.25
792.205	35.86
792.381	34.22
792.557	30.32
792.733	30.89
792.908	28.23
793.084	30.12
793.259	29.59
793.435	28.9
793.611	29.26
793.786	32.69
793.962	32.73
794.137	35.16
794.313	35.2
794.488	39.94
794.664	39.29
794.839	40.98
795.015	39.7
795.19	39.78
795.366	40.57
795.541	38.55
795.716	38.24
795.892	34.8
796.067	32.64
796.242	31.25
796.418	27.12
796.593	27.44
796.768	27.98
796.944	29.4
797.119	30.49
797.294	28.47
797.469	29.64
797.644	28.15
797.82	28.11
797.995	27.21
798.17	31.78
798.345	32.86
798.52	32.11
798.695	33.92
798.87	31.22
799.045	29.35
799.22	29.9
799.395	27.91
799.57	28.48
799.745	28.71
799.92	33
800.095	32.16
800.27	33.26
800.445	34.93
800.62	34.68
800.795	35.82
800.97	33.41
801.145	31.6
801.319	35.08
801.494	35.79
801.669	37.77
801.844	36.9
802.018	35.13
802.193	34.13
802.368	30.13
802.543	27.97
802.717	27.83
802.892	28.86
803.067	25.67
803.241	22.63
803.416	21.77
803.59	20.4
803.765	19.81
803.94	22.95
804.114	23.65
804.289	25.51
804.463	24.12
804.638	26.19
804.812	30.61
804.986	35.98
805.161	42.88
805.335	43.11
805.51	45.33
805.684	44.37
805.858	41.22
806.033	41.08
806.207	45.05
806.381	45.68
806.556	44.02
806.73	45.22
806.904	45.49
807.078	39.53
807.253	39.7
807.427	40.95
807.601	42.88
807.775	40.35
807.949	41.38
808.123	36.18
808.298	39.67
808.472	37.44
808.646	32.22
808.82	30.1
808.994	31.93
809.168	31.19
809.342	28.62
809.516	24.48
809.69	24.88
809.864	26.76
810.038	29.06
810.212	26.16
810.385	27.58
810.559	33.54
810.733	31.92
810.907	29.33
811.081	26.81
811.255	28.03
811.428	27.59
811.602	30.37
811.776	32.46
811.95	33.66
812.123	34.65
812.297	39.13
812.471	34.23
812.644	36.1
812.818	36.66
812.992	35.92
813.165	36.8
813.339	39.97
813.512	36.98
813.686	30.44
813.86	28.11
814.033	27.72
814.207	21.81
814.38	23.74
814.554	21.52
814.727	24.44
814.9	27.48
815.074	23.3
815.247	17.72
815.421	19.38
815.594	23.43
815.767	28.51
815.941	28.62
816.114	27.14
816.287	27.53
816.46	29.35
816.634	28.29
816.807	29.65
816.98	29.53
817.153	31.4
817.327	30.86
817.5	32.38
817.673	30.93
817.846	30.23
818.019	33.45
818.192	32.44
818.365	30.53
818.538	29.28
818.711	30.56
818.884	30.33
819.057	31.47
819.23	34.41
819.403	32.19
819.576	28.32
819.749	27.72
819.922	25.8
820.095	29.74
820.268	31.02
820.441	33.37
820.614	32.87
820.786	36.44
820.959	38.16
821.132	37.33
821.305	38.1
821.477	38.22
821.65	37.45
821.823	37.06
821.996	35.95
822.168	36.64
822.341	36.42
822.514	36.5
822.686	35.86
822.859	35.14
823.031	35.18
823.204	34.86
823.376	34.99
823.549	35.33
823.722	35.89
823.894	36.14
824.067	35.68
824.239	34.97
824.411	35.26
824.584	34.03
824.756	34.31
824.929	33.8
825.101	33.83
825.273	33.83
825.446	32.76
825.618	32.33
825.79	31.76
825.963	31.45
826.135	31.94
826.307	30.37
826.479	33.03
826.652	32.22
826.824	32.3
826.996	32.11
827.168	32.93
827.34	35.07
827.512	35.63
827.684	35.95
827.856	36.64
828.029	36.16
828.201	37.44
828.373	36.81
828.545	36.76
828.717	37.95
828.889	39.1
829.061	38.68
829.232	38.59
829.404	39.37
829.576	38.87
829.748	39.08
829.92	40.15
830.092	38.82
830.264	38.59
830.436	38.49
830.607	37.73
830.779	36.31
830.951	38.81
831.123	36.94
831.294	35.26
831.466	34.89
831.638	34.4
831.809	33.61
831.981	35.27
832.153	31.09
832.324	29.95
832.496	27.88
832.667	24
832.839	22.12
833.011	20.78
833.182	20.68
833.354	21.3
833.525	24.28
833.697	26.76
833.868	25.6
834.039	27.19
834.211	30.17
834.382	33.36
834.554	36.27
834.725	35.86
834.896	36.89
835.068	35.11
835.239	35.21
835.41	33.63
835.581	35.22
835.753	35.04
835.924	32.16
836.095	31.66
836.266	29.72
836.438	29.02
836.609	30.41
836.78	29.65
836.951	32.56
837.122	34.25
837.293	30.13
837.464	23.16
837.635	22.47
837.806	26.14
837.977	25.05
838.148	24.19
838.319	26.44
838.49	25.6
838.661	25.94
838.832	26.68
839.003	24.53
839.174	26.88
839.345	30.65
839.516	34.89
839.687	38.26
839.857	38.66
840.028	36.35
840.199	36.73
840.37	41.46
840.54	45.62
840.711	45.23
840.882	44.97
841.053	45.54
841.223	44.82
841.394	40.01
841.564	36.33
841.735	39.39
841.906	45.73
842.076	44.06
842.247	41.51
842.417	33.1
842.588	30.26
842.758	31.11
842.929	32.5
843.099	34.88
843.27	37.42
843.44	34.33
843.611	29.7
843.781	21.61
843.951	20.39
844.122	18.89
844.292	31.77
844.462	30.83
844.633	29.67
844.803	34.63
844.973	33.62
845.144	38.45
845.314	48.2
845.484	51.33
845.654	55.05
845.824	53.13
845.995	53.77
846.165	42.48
846.335	44.09
846.505	48.24
846.675	58.22
846.845	53.4
847.015	42.61
847.185	44.74
847.355	40.57
847.525	37.11
847.695	44.01
847.865	43.56
848.035	47.06
848.205	52.29
848.375	47.53
848.545	43.25
848.715	49.61
848.884	50.76
849.054	41.82
849.224	56.24
849.394	57.3
849.564	60.92
849.733	61.63
849.903	66.89
850.073	72.11
850.243	71.16
850.412	56.95
850.582	49.37
850.752	56
850.921	50.25
851.091	45.14
851.26	49.99
851.43	40.11
851.599	26.67
851.769	17.44
851.939	19.84
852.108	23.21
852.278	3.39
852.447	-0.9
852.616	3.27
852.786	1.26
852.955	0.89
853.125	6.77
853.294	14.75
853.463	27.53
853.633	33.05
853.802	28.58
853.971	39.86
854.141	53.5
854.31	56.86
854.479	52.2
854.648	62.2
854.818	60.15
854.987	48.35
855.156	47.81
855.325	45.04
855.494	52.56
855.663	50.17
855.832	36.6
856.001	35.34
856.171	35.17
856.34	35.12
856.509	22.93
856.678	17.4
856.847	21.99
857.016	23.7
857.185	25.61
857.353	20.69
857.522	25.08
857.691	30.78
857.86	19.11
858.029	21.67
858.198	23.93
858.367	32.14
858.535	44.12
858.704	48.65
858.873	53.59
859.042	52.67
859.21	44.39
859.379	42.01
859.548	34.26
859.717	42.01
859.885	40.72
860.054	47.81
860.222	39.57
860.391	36.99
860.56	27.19
860.728	23.59
860.897	17.84
861.065	18.6
861.234	17.21
861.402	23.44
861.571	28.43
861.739	37.54
861.908	33.92
862.076	39.36
862.244	43.7
862.413	56.32
862.581	53.68
862.749	44.58
862.918	45.4
863.086	51.13
863.254	43.42
863.423	39.38
863.591	24.23
863.759	20.6
863.927	22.99
864.096	13.67
864.264	11.26
864.432	25.19
864.6	39.49
864.768	42.18
864.936	35.08
865.104	47.56
865.272	41.08
865.44	63.76
865.608	65.17
865.776	66.86
865.944	105.17
866.112	93.8
866.28	79.72
866.448	67.01
866.616	72.46
866.784	73.09
866.952	62.03
867.12	58.4
867.288	56.81
867.455	65.22
867.623	56.69
867.791	36.27
867.959	14.64
868.127	7.11
868.294	19.89
868.462	14.99
868.63	17.3
868.797	28.64
868.965	46.61
869.133	25.44
869.3	31.54
869.468	39.81
869.636	48.23
869.803	40.47
869.971	38.49
870.138	36.06
870.306	48.75
870.473	51.72
870.641	47.11
870.808	38.91
870.975	46.2
871.143	41.43
871.31	37.87
871.478	37.53
871.645	40.63
871.812	34.09
871.98	32.07
872.147	36.68
872.314	31.18
872.482	26.23
872.649	24.71
872.816	23.96
872.983	34
873.15	28.74
873.318	22.86
873.485	31.54
873.652	27.62
873.819	28.32
873.986	19.41
874.153	31.55
874.32	46.43
874.487	52.24
874.654	54.75
874.821	27.42
874.988	45.06
875.155	46.15
875.322	44.98
875.489	45.39
875.656	45.62
875.823	40.27
875.99	30.96
876.157	31.22
876.324	19.83
876.49	15.6
876.657	31.92
876.824	14.18
876.991	15.42
877.157	17.13
877.324	33.51
877.491	30.59
877.658	27.89
877.824	42.53
877.991	27.75
878.157	39.34
878.324	63.17
878.491	55.13
878.657	71.53
878.824	84.94
878.99	73.82
879.157	67.06
879.323	49.73
879.49	53.96
879.656	41.75
879.823	42.75
879.989	43.15
880.156	15.7
880.322	-4.2
880.488	-15.01
880.655	-14.58
880.821	-9.86
880.987	-7.02
881.154	15.41
881.32	22.83
881.486	18.37
881.652	24.86
881.819	18.21
881.985	22.41
882.151	25.44
882.317	29.02
882.483	32.46
882.649	35.57
882.816	36.99
882.982	33.48
883.148	31.7
883.314	30.26
883.48	30.22
883.646	33.03
883.812	31.18
883.978	31.46
884.144	30.54
884.31	29.55
884.476	25.77
884.642	25.25
884.807	24.52
884.973	23.01
885.139	23.52
885.305	22.14
885.471	23.16
885.637	25.65
885.802	21.79
885.968	21.67
886.134	18.61
886.3	18.97
886.465	17.14
886.631	17.94
886.797	21.49
886.962	25.33
887.128	24.71
887.293	22.33
887.459	17.11
887.625	20.54
887.79	22.59
887.956	23.88
888.121	27.59
888.287	26.93
888.452	27.37
888.618	22.8
888.783	12.84
