Data from 2938056_Reflection_1.txt Node
Date: Sun Jul 12 14:01:35 EDT 2015
User: robert
Spectrometer: USB4E03001
Autoset integration time: false
Trigger mode: 4
Integration Time (sec): 1.000000E-1
Scans to average: 10
Electric dark correction enabled: true
Nonlinearity correction enabled: false
Boxcar width: 5
Stray light correction enabled: false
XAxis mode: Wavelengths
Stop averaging: false
Number of Pixels in Spectrum: 3648
>>>>>Begin Spectral Data<<<<<
177.566	4.7
177.785	-82.31
178.005	-174.17
178.225	-18080
178.445	-90.12
178.665	-164.36
178.885	-58.49
179.105	247.3
179.324	157.14
179.544	68.99
179.764	212.21
179.984	570.36
180.204	-848.44
180.423	-583.89
180.643	845.5
180.863	674.93
181.083	1551.13
181.302	922.64
181.522	367.22
181.742	362.07
181.961	827.48
182.181	477.06
182.401	6696.18
182.621	386.1
182.84	369.45
183.06	461.26
183.279	621.79
183.499	252.61
183.719	246.04
183.938	348.81
184.158	243.19
184.377	191.48
184.597	239.55
184.816	181.59
185.036	200.14
185.256	150.12
185.475	172.3
185.695	230.58
185.914	290.12
186.134	351.97
186.353	204.36
186.572	265.8
186.792	253.83
187.011	196.72
187.231	184.28
187.45	143.5
187.67	254.43
187.889	209.38
188.108	205.33
188.328	156.32
188.547	181.72
188.766	219.59
188.986	267.19
189.205	261.99
189.424	261.17
189.644	177.13
189.863	305.26
190.082	200.18
190.302	203.21
190.521	165.23
190.74	195.76
190.959	162.65
191.178	196.43
191.398	181.74
191.617	175.73
191.836	158.46
192.055	243.48
192.274	232.68
192.494	195.47
192.713	200.66
192.932	325.4
193.151	563.85
193.37	535.55
193.589	335.72
193.808	756.56
194.027	-976.23
194.246	-240.92
194.465	-445.06
194.685	-694.78
194.904	-47.98
195.123	73.2
195.342	-76.78
195.561	6.57
195.78	-424.49
195.999	2790.91
196.218	-88.79
196.436	-33.98
196.655	560.45
196.874	38.59
197.093	185.54
197.312	190.19
197.531	336.04
197.75	510.18
197.969	-1267.84
198.188	-5279.71
198.407	-2051.98
198.625	-541.79
198.844	-1178.82
199.063	3227.37
199.282	1149.03
199.501	-1684.97
199.719	1024.86
199.938	778.18
200.157	-1088.68
200.376	647.54
200.594	596.47
200.813	934.45
201.032	878.14
201.251	507.9
201.469	398.85
201.688	894.9
201.907	344.61
202.125	585.99
202.344	266.86
202.563	131.91
202.781	141.13
203	190.96
203.218	169.93
203.437	166.05
203.656	154.59
203.874	267.8
204.093	325.49
204.311	368.54
204.53	299.38
204.748	277.17
204.967	1548.91
205.185	965
205.404	276.24
205.622	245.26
205.841	164.04
206.059	174.31
206.278	137.46
206.496	95.6
206.715	87.83
206.933	104.6
207.151	133.49
207.37	89.88
207.588	93.89
207.806	112.24
208.025	132.76
208.243	161.55
208.461	143.34
208.68	116.1
208.898	241.37
209.116	152.09
209.335	322.92
209.553	220.25
209.771	364.47
209.989	-823.95
210.208	4289.29
210.426	383.16
210.644	267.76
210.862	382.13
211.081	213.58
211.299	165.88
211.517	221.46
211.735	170.34
211.953	221.91
212.171	189.34
212.39	180.76
212.608	152.29
212.826	269.09
213.044	232.03
213.262	211.07
213.48	280.03
213.698	252.54
213.916	232.82
214.134	273.01
214.352	269.27
214.57	465.76
214.788	353.81
215.006	255.48
215.224	116.23
215.442	106.7
215.66	146.94
215.878	100.27
216.096	93.05
216.314	103.71
216.532	105.18
216.75	112.58
216.968	84.69
217.185	105.8
217.403	208.75
217.621	145.3
217.839	187.08
218.057	238.2
218.275	295.76
218.492	1102.56
218.71	637.4
218.928	463.57
219.146	108.45
219.363	125.8
219.581	92.15
219.799	75.6
220.017	97.03
220.234	86.3
220.452	78.65
220.67	73.39
220.887	66.21
221.105	68
221.323	76.02
221.54	74.04
221.758	83.81
221.976	95.6
222.193	98.28
222.411	107.77
222.629	97
222.846	91.84
223.064	91.22
223.281	122.72
223.499	128.48
223.716	112.55
223.934	135.84
224.151	103.54
224.369	98.75
224.586	97.86
224.804	93.71
225.021	113.43
225.239	115.45
225.456	127.65
225.674	123.99
225.891	115.46
226.108	112.3
226.326	100.85
226.543	90.5
226.76	64.24
226.978	62.4
227.195	45.96
227.413	39.83
227.63	40.85
227.847	38.8
228.064	27.45
228.282	24.1
228.499	27.09
228.716	21.87
228.934	26.3
229.151	25.5
229.368	22.05
229.585	23.75
229.802	22.14
230.02	19.93
230.237	18.58
230.454	22.1
230.671	24.98
230.888	23.62
231.105	25.73
231.323	18.74
231.54	24.02
231.757	29.11
231.974	33.82
232.191	34.66
232.408	39.24
232.625	36.84
232.842	37.76
233.059	38.62
233.276	44.42
233.493	42.42
233.71	45.95
233.927	38.39
234.144	37.21
234.361	31.03
234.578	31.65
234.795	29.65
235.012	33.17
235.229	24.16
235.446	23.81
235.663	11.75
235.879	13.3
236.096	12.94
236.313	19.91
236.53	26.14
236.747	31.44
236.964	33.42
237.181	34.04
237.397	35.17
237.614	37.97
237.831	38.98
238.048	39.7
238.264	40.44
238.481	38
238.698	38.34
238.915	30.3
239.131	26.66
239.348	26.65
239.565	24.13
239.781	24.24
239.998	21.32
240.215	17.37
240.431	18.99
240.648	17.69
240.865	20
241.081	20.39
241.298	22.9
241.514	21.73
241.731	20.12
241.947	20.73
242.164	19.92
242.38	21.02
242.597	23
242.814	24.36
243.03	25.04
243.246	24.14
243.463	22.53
243.679	21.17
243.896	22.34
244.112	20.72
244.329	19.7
244.545	19.5
244.762	18.37
244.978	15.99
245.194	15.92
245.411	14.92
245.627	15.97
245.843	18.68
246.06	19.1
246.276	19.18
246.492	19.9
246.709	19.76
246.925	18.66
247.141	18.82
247.357	18.46
247.574	17.79
247.79	18.22
248.006	17.51
248.222	17.53
248.439	16.34
248.655	16.56
248.871	16.96
249.087	17.26
249.303	18.29
249.519	18.01
249.736	18.08
249.952	18.57
250.168	18.07
250.384	17.81
250.6	17.64
250.816	18.15
251.032	16.16
251.248	15.8
251.464	14.61
251.68	14.71
251.896	15.02
252.112	15.29
252.328	15.44
252.544	14.09
252.76	16.51
252.976	14.95
253.192	16.02
253.408	16.62
253.624	16.57
253.84	16.47
254.056	15.85
254.272	16.25
254.487	15.88
254.703	15.51
254.919	16.73
255.135	14.03
255.351	16.33
255.567	13.48
255.782	12.18
255.998	10.89
256.214	10.36
256.43	10.52
256.646	9.07
256.861	11.84
257.077	11.6
257.293	12.77
257.508	13.28
257.724	11.19
257.94	14.29
258.155	13.96
258.371	13.27
258.587	14.66
258.802	14.4
259.018	13.28
259.234	12.74
259.449	12.59
259.665	12.85
259.88	12.11
260.096	11.86
260.312	10.97
260.527	11.27
260.743	11.57
260.958	11.53
261.174	12.03
261.389	13.19
261.605	12.91
261.82	12.78
262.036	12.35
262.251	13.69
262.466	15.2
262.682	16.49
262.897	17.75
263.113	17.92
263.328	18.14
263.543	18.36
263.759	17.89
263.974	17.43
264.189	18.38
264.405	17.76
264.62	17
264.835	15.27
265.051	16.09
265.266	15.24
265.481	16.1
265.696	16.55
265.912	13.27
266.127	12.41
266.342	12.81
266.557	12.35
266.773	11.78
266.988	10.44
267.203	10.69
267.418	9.67
267.633	10.17
267.848	10.45
268.064	10.18
268.279	11.53
268.494	12.65
268.709	13.22
268.924	13.36
269.139	14.19
269.354	16.04
269.569	16.38
269.784	17.45
269.999	17.45
270.214	16.65
270.429	15.58
270.644	16.81
270.859	16.05
271.074	15.41
271.289	15.09
271.504	13.75
271.719	13.1
271.934	13.53
272.149	12.55
272.363	10.77
272.578	10.38
272.793	10.06
273.008	9.28
273.223	9.01
273.438	9.71
273.653	9.8
273.867	10.04
274.082	9.64
274.297	10.04
274.512	8.94
274.726	9.41
274.941	10.02
275.156	11.65
275.371	10.72
275.585	11.28
275.8	11.55
276.015	12.72
276.229	13.76
276.444	15.71
276.659	14.52
276.873	16.75
277.088	17.68
277.302	17.73
277.517	15.58
277.732	15.82
277.946	15.9
278.161	15.49
278.375	14.26
278.59	14.18
278.804	11.07
279.019	11.8
279.233	10.51
279.448	10.13
279.662	10.24
279.877	11.34
280.091	12.75
280.306	13.52
280.52	12.64
280.735	12.38
280.949	13.28
281.163	13.73
281.378	13.08
281.592	12.28
281.806	13.71
282.021	13.16
282.235	14.16
282.449	12.95
282.664	13.2
282.878	14.46
283.092	13.86
283.307	13.56
283.521	14.52
283.735	14.96
283.949	15.99
284.164	14.61
284.378	15.25
284.592	15.49
284.806	16
285.02	15.52
285.234	14.39
285.449	14.87
285.663	14.15
285.877	14.85
286.091	15.23
286.305	15.07
286.519	15.62
286.733	15.3
286.947	14.46
287.161	14.49
287.375	14.32
287.589	15.02
287.803	14.44
288.017	15.22
288.231	13.83
288.445	13.06
288.659	13.07
288.873	13.77
289.087	13.39
289.301	13.93
289.515	14.23
289.729	14.3
289.943	14.07
290.157	15.37
290.371	15.39
290.584	16.2
290.798	17.07
291.012	18.78
291.226	17.42
291.44	17.11
291.654	15.93
291.867	16.04
292.081	16.56
292.295	16.15
292.509	14.85
292.722	14.51
292.936	13.88
293.15	12.79
293.364	11.36
293.577	12.2
293.791	12.86
294.005	14.19
294.218	12.96
294.432	13.45
294.645	13.97
294.859	14.77
295.073	13.11
295.286	13.16
295.5	13.44
295.713	12.93
295.927	13.11
296.14	13.74
296.354	13.96
296.568	14.34
296.781	13.23
296.994	13.82
297.208	14.11
297.421	15.06
297.635	14.73
297.848	14.93
298.062	14.52
298.275	14.76
298.489	14.98
298.702	15.23
298.915	15.16
299.129	15.82
299.342	15.86
299.555	14.28
299.769	14.86
299.982	15.87
300.195	16.28
300.409	16.56
300.622	17.51
300.835	16.54
301.048	16.24
301.262	15.89
301.475	16.94
301.688	16.59
301.901	16.7
302.115	15.83
302.328	15.28
302.541	14.29
302.754	15.32
302.967	14.86
303.18	15.51
303.393	15.69
303.607	16.25
303.82	15.52
304.033	15.72
304.246	16.16
304.459	18.12
304.672	18.62
304.885	19.85
305.098	19.05
305.311	17.86
305.524	17.05
305.737	15.36
305.95	15.61
306.163	15.68
306.376	15.5
306.589	16.59
306.802	14.83
307.015	15.35
307.228	14.22
307.44	14.99
307.653	15.21
307.866	16.62
308.079	17.42
308.292	17.23
308.505	17.11
308.718	17.02
308.93	17.48
309.143	17.63
309.356	16.13
309.569	15.22
309.781	14.72
309.994	15.81
310.207	16.15
310.42	16.24
310.632	17.33
310.845	18.46
311.058	18.59
311.27	18.21
311.483	17.87
311.696	17.76
311.908	18.44
312.121	19.18
312.333	18.82
312.546	18.46
312.759	18.72
312.971	17.33
313.184	15.05
313.396	14.97
313.609	14.66
313.821	15.73
314.034	17.57
314.246	18.61
314.459	18.8
314.671	18.84
314.884	18.06
315.096	17.81
315.309	17.01
315.521	17.46
315.733	17.24
315.946	16.83
316.158	16.67
316.371	16.28
316.583	16.75
316.795	16.08
317.008	16.3
317.22	17.09
317.432	17.37
317.644	17.82
317.857	18.12
318.069	18.46
318.281	17.92
318.494	18.51
318.706	18.93
318.918	18.41
319.13	19.06
319.342	17.61
319.555	17.44
319.767	16.76
319.979	16.91
320.191	16.79
320.403	16.51
320.615	17.37
320.827	16.32
321.039	17.12
321.252	16.27
321.464	16.24
321.676	17.25
321.888	17.04
322.1	17.67
322.312	18.45
322.524	17.69
322.736	15.61
322.948	15.88
323.16	15.51
323.372	14.45
323.584	15.23
323.796	14.12
324.007	14.07
324.219	13.54
324.431	13.56
324.643	13.24
324.855	15.58
325.067	17.43
325.279	17.93
325.491	16.97
325.702	16.03
325.914	15.26
326.126	14.99
326.338	15.12
326.55	14.98
326.761	14.49
326.973	14.06
327.185	12.78
327.396	12.26
327.608	11.7
327.82	13.5
328.032	13.39
328.243	14.05
328.455	14.9
328.666	15.59
328.878	15.54
329.09	15.53
329.301	16.4
329.513	15.19
329.725	16.05
329.936	16.19
330.148	16.33
330.359	16.06
330.571	16.63
330.782	15.59
330.994	14.57
331.205	17.19
331.417	17.5
331.628	17
331.84	17.87
332.051	16.86
332.262	16.65
332.474	15.89
332.685	17.55
332.897	15.36
333.108	16.03
333.319	14.51
333.531	13.65
333.742	13.95
333.953	14.08
334.165	13.95
334.376	13.36
334.587	13.78
334.799	13.81
335.01	12.38
335.221	13
335.432	12.34
335.644	12.75
335.855	11.94
336.066	12.31
336.277	12.65
336.488	12.03
336.7	12.38
336.911	12.32
337.122	11.17
337.333	11.94
337.544	13.22
337.755	14.21
337.966	14.12
338.177	14.07
338.388	14.27
338.599	13.17
338.811	13.36
339.022	13.9
339.233	13.6
339.444	14.88
339.655	13.66
339.866	12.66
340.076	12.88
340.287	13.6
340.498	13.38
340.709	13.07
340.92	13.89
341.131	14.61
341.342	14.36
341.553	15.17
341.764	15.81
341.975	17.04
342.185	17.15
342.396	15.84
342.607	15.5
342.818	15.57
343.029	15.41
343.239	15.82
343.45	16.18
343.661	16.73
343.872	16.01
344.082	14.86
344.293	14.13
344.504	14.05
344.714	13.58
344.925	13.7
345.136	14.27
345.346	14.52
345.557	14.92
345.768	14.78
345.978	13.22
346.189	13.08
346.399	13.66
346.61	15.09
346.821	15.31
347.031	16.72
347.242	16.45
347.452	15.71
347.663	15.5
347.873	15.18
348.084	15.23
348.294	15.74
348.504	16.1
348.715	15.84
348.925	15.18
349.136	14.96
349.346	14.25
349.557	14.07
349.767	14.39
349.977	14.13
350.188	12.93
350.398	13.28
350.608	13.84
350.819	13.3
351.029	13.14
351.239	13.53
351.449	12.97
351.66	14.18
351.87	14.81
352.08	14.96
352.29	14.53
352.501	14.57
352.711	13.8
352.921	14.24
353.131	13.97
353.341	13.85
353.552	12.46
353.762	12.87
353.972	12.56
354.182	12.49
354.392	12.12
354.602	11.83
354.812	12.5
355.022	12.14
355.232	11.85
355.442	11.4
355.652	11.96
355.862	11.87
356.072	11.6
356.282	11.42
356.492	11.35
356.702	11.32
356.912	11.7
357.122	11.78
357.332	12.72
357.542	12.43
357.752	12.76
357.962	11.51
358.171	11.91
358.381	12.16
358.591	11.56
358.801	11.36
359.011	11.04
359.221	10.99
359.43	9.97
359.64	9.55
359.85	9.05
360.06	8.11
360.269	8.29
360.479	8.74
360.689	8.97
360.899	9.64
361.108	9.92
361.318	10.15
361.528	10.25
361.737	11.18
361.947	11
362.156	11.5
362.366	12.55
362.576	13.22
362.785	12.66
362.995	12.74
363.204	12.36
363.414	11.72
363.623	12.2
363.833	12.54
364.042	12.12
364.252	12.05
364.461	12.24
364.671	11.95
364.88	12.34
365.09	12.81
365.299	12.8
365.509	12.91
365.718	13.38
365.927	12.85
366.137	11.97
366.346	11.88
366.555	11.92
366.765	12.07
366.974	12.61
367.183	12.82
367.393	12.61
367.602	12.15
367.811	12.07
368.021	12.34
368.23	12.69
368.439	13.63
368.648	13.1
368.857	13.43
369.067	12.7
369.276	12.25
369.485	10.97
369.694	10.26
369.903	10.84
370.112	10.99
370.321	11.69
370.531	10.96
370.74	10.13
370.949	10.09
371.158	9.23
371.367	9.24
371.576	8.97
371.785	8.87
371.994	9.52
372.203	9.02
372.412	9.02
372.621	8.39
372.83	8.96
373.039	9.43
373.248	9.81
373.457	10.42
373.666	10.33
373.874	11.2
374.083	11.38
374.292	10.4
374.501	10.78
374.71	10.28
374.919	10.29
375.128	10.46
375.336	9.94
375.545	10.51
375.754	9.82
375.963	10.13
376.171	9.18
376.38	9.25
376.589	9.54
376.798	8.45
377.006	8.26
377.215	8.01
377.424	7.43
377.632	7.79
377.841	7.36
378.05	8.17
378.258	7.8
378.467	8.55
378.675	8.41
378.884	9.06
379.093	9.58
379.301	10.15
379.51	10.39
379.718	10.5
379.927	10.66
380.135	10.34
380.344	10.11
380.552	10.09
380.761	9.64
380.969	9.28
381.177	8.89
381.386	9.2
381.594	8.81
381.803	8.46
382.011	8.68
382.219	8.65
382.428	8.57
382.636	8.55
382.845	9.22
383.053	9.48
383.261	9.47
383.469	9.51
383.678	9.37
383.886	9.32
384.094	8.89
384.302	8.66
384.511	8.18
384.719	8.07
384.927	7.77
385.135	7.04
385.343	6.56
385.552	6.42
385.76	6.3
385.968	6.18
386.176	6.22
386.384	6.38
386.592	6.38
386.8	6.35
387.008	6.65
387.216	6.95
387.424	7.63
387.633	7.6
387.841	8.04
388.049	7.95
388.257	8.09
388.465	7.77
388.672	7.85
388.88	8.1
389.088	8.23
389.296	8.24
389.504	8.21
389.712	7.49
389.92	7.47
390.128	7.24
390.336	7.22
390.544	7.11
390.751	7.35
390.959	7.5
391.167	7.19
391.375	7.06
391.583	7.1
391.79	6.86
391.998	6.85
392.206	6.89
392.414	6.89
392.621	6.81
392.829	6.9
393.037	7.06
393.244	6.65
393.452	6.76
393.66	6.48
393.867	6.01
394.075	6.09
394.283	6.22
394.49	6.09
394.698	6.15
394.905	6.19
395.113	5.62
395.32	5.29
395.528	5.61
395.735	5.41
395.943	5.76
396.15	6.25
396.358	6.24
396.565	6.29
396.773	6.26
396.98	6.41
397.188	6.58
397.395	7.09
397.602	7.31
397.81	7.29
398.017	7.46
398.225	7.34
398.432	7.32
398.639	7.38
398.847	7.58
399.054	7.56
399.261	7.42
399.468	7.2
399.676	7.1
399.883	7.05
400.09	7.1
400.297	6.85
400.505	6.83
400.712	6.41
400.919	6.39
401.126	5.96
401.333	5.91
401.54	5.81
401.748	5.92
401.955	5.84
402.162	5.78
402.369	5.87
402.576	5.96
402.783	5.79
402.99	6.07
403.197	5.78
403.404	6.05
403.611	6.25
403.818	6.16
404.025	6.31
404.232	6.38
404.439	6.28
404.646	5.91
404.853	5.81
405.06	5.73
405.267	5.53
405.474	5.35
405.681	4.95
405.887	4.62
406.094	4.98
406.301	4.87
406.508	4.62
406.715	4.91
406.922	4.66
407.128	4.71
407.335	5.13
407.542	5.06
407.749	5.39
407.955	5.41
408.162	5.66
408.369	5.42
408.575	5.6
408.782	5.74
408.989	5.42
409.195	5.7
409.402	5.96
409.609	5.91
409.815	6.23
410.022	6.21
410.228	6.39
410.435	6.55
410.642	6.41
410.848	6.22
411.055	6.39
411.261	6.48
411.468	6.59
411.674	6.42
411.881	6.05
412.087	5.56
412.294	5.61
412.5	5.48
412.706	5.29
412.913	5.49
413.119	5.04
413.326	4.74
413.532	4.67
413.738	4.56
413.945	4.52
414.151	4.91
414.357	5.2
414.564	4.8
414.77	4.47
414.976	4.37
415.182	4.19
415.389	4.22
415.595	4.25
415.801	4.41
416.007	4.31
416.214	4.06
416.42	3.87
416.626	3.74
416.832	4.11
417.038	4.43
417.244	4.36
417.45	4.5
417.657	4.36
417.863	4.29
418.069	4.09
418.275	4.26
418.481	4.27
418.687	4.41
418.893	4.48
419.099	4.17
419.305	4.24
419.511	4.42
419.717	4.33
419.923	4.6
420.129	4.69
420.335	4.79
420.541	4.68
420.746	4.83
420.952	4.69
421.158	4.73
421.364	4.94
421.57	4.71
421.776	4.74
421.982	4.82
422.187	4.7
422.393	4.54
422.599	4.39
422.805	4.42
423.01	4.24
423.216	4.17
423.422	4.15
423.628	4.09
423.833	4.29
424.039	4.23
424.245	4.1
424.45	4.23
424.656	4.33
424.862	4.4
425.067	4.45
425.273	4.66
425.478	4.77
425.684	4.71
425.889	4.79
426.095	4.7
426.301	4.71
426.506	4.8
426.712	4.8
426.917	4.79
427.123	4.97
427.328	4.89
427.533	4.72
427.739	4.88
427.944	4.94
428.15	4.65
428.355	4.88
428.561	4.73
428.766	4.7
428.971	4.61
429.177	4.66
429.382	4.61
429.587	4.61
429.793	4.45
429.998	4.47
430.203	4.61
430.408	4.69
430.614	4.43
430.819	4.59
431.024	4.53
431.229	4.65
431.434	4.46
431.64	4.39
431.845	4.55
432.05	4.8
432.255	4.6
432.46	4.49
432.665	4.6
432.87	4.76
433.076	4.64
433.281	4.62
433.486	4.68
433.691	4.8
433.896	4.69
434.101	4.55
434.306	4.64
434.511	4.68
434.716	4.63
434.921	4.57
435.126	4.5
435.331	4.47
435.535	4.59
435.74	4.68
435.945	4.52
436.15	4.75
436.355	4.95
436.56	4.97
436.765	4.83
436.97	4.71
437.174	4.76
437.379	4.84
437.584	4.86
437.789	4.67
437.993	4.45
438.198	4.59
438.403	4.31
438.608	4.11
438.812	3.96
439.017	4.09
439.222	4.28
439.426	4.2
439.631	4.16
439.836	4.22
440.04	4.27
440.245	4.41
440.45	4.4
440.654	4.51
440.859	4.52
441.063	4.38
441.268	4.4
441.472	4.45
441.677	4.58
441.881	4.53
442.086	4.61
442.29	4.62
442.495	4.6
442.699	4.62
442.904	4.59
443.108	4.59
443.312	4.75
443.517	4.65
443.721	4.6
443.925	4.51
444.13	4.61
444.334	4.57
444.538	4.54
444.743	4.3
444.947	4.22
445.151	4.18
445.356	4.13
445.56	4.18
445.764	4.2
445.968	4.15
446.173	4.04
446.377	3.98
446.581	3.89
446.785	3.92
446.989	4.07
447.193	4.14
447.398	4.24
447.602	4.31
447.806	4.26
448.01	4.46
448.214	4.61
448.418	4.84
448.622	4.81
448.826	4.78
449.03	4.66
449.234	4.64
449.438	4.61
449.642	4.27
449.846	4.39
450.05	4.22
450.254	4
450.458	3.8
450.662	3.58
450.866	3.71
451.069	3.84
451.273	4.06
451.477	4.13
451.681	4.17
451.885	4.5
452.089	4.52
452.292	4.58
452.496	4.43
452.7	4.51
452.904	4.47
453.107	4.46
453.311	4.53
453.515	4.62
453.719	4.73
453.922	4.74
454.126	4.57
454.33	4.31
454.533	4.49
454.737	4.54
454.94	4.45
455.144	4.51
455.348	4.53
455.551	4.33
455.755	4.34
455.958	4.25
456.162	4.3
456.365	4.27
456.569	4.41
456.772	4.29
456.976	4.22
457.179	4.22
457.383	4.23
457.586	4.09
457.79	4.09
457.993	3.9
458.196	3.8
458.4	3.74
458.603	3.99
458.807	3.92
459.01	3.95
459.213	4.11
459.417	4.08
459.62	4.01
459.823	4
460.026	3.93
460.23	3.97
460.433	3.98
460.636	4.05
460.839	3.93
461.042	3.91
461.246	3.83
461.449	3.76
461.652	3.73
461.855	3.92
462.058	4.01
462.261	4.03
462.464	4.12
462.668	4.26
462.871	4.08
463.074	4.03
463.277	4.27
463.48	4.45
463.683	4.48
463.886	4.55
464.089	4.41
464.292	4.36
464.495	4.52
464.698	4.29
464.901	4.13
465.104	4.26
465.306	4.32
465.509	4.14
465.712	3.96
465.915	3.82
466.118	3.79
466.321	3.81
466.524	3.7
466.726	3.86
466.929	3.91
467.132	3.83
467.335	3.9
467.538	3.92
467.74	3.98
467.943	4.13
468.146	4.39
468.348	4.47
468.551	4.5
468.754	4.5
468.956	4.27
469.159	4.36
469.362	4.3
469.564	3.95
469.767	4
469.969	3.93
470.172	3.88
470.375	3.74
470.577	3.79
470.78	3.63
470.982	3.59
471.185	3.66
471.387	3.46
471.59	3.36
471.792	3.49
471.995	3.31
472.197	3.49
472.399	3.42
472.602	3.31
472.804	3.18
473.007	3.31
473.209	3.54
473.411	3.48
473.614	3.6
473.816	3.67
474.018	3.68
474.22	4.08
474.423	3.89
474.625	4.13
474.827	4.32
475.03	4.42
475.232	4.24
475.434	4.09
475.636	4.02
475.838	3.92
476.04	3.98
476.243	3.98
476.445	3.62
476.647	3.56
476.849	3.53
477.051	3.37
477.253	3.36
477.455	3.5
477.657	3.51
477.859	3.57
478.061	3.69
478.263	3.57
478.465	3.67
478.667	3.73
478.869	3.75
479.071	3.55
479.273	3.48
479.475	3.28
479.677	3.37
479.879	3.47
480.081	3.57
480.283	3.59
480.485	3.69
480.686	3.76
480.888	3.92
481.09	4.02
481.292	4.1
481.494	4.23
481.695	4.22
481.897	4.07
482.099	3.91
482.301	3.83
482.502	3.74
482.704	3.76
482.906	3.65
483.107	3.57
483.309	3.52
483.511	3.48
483.712	3.37
483.914	3.37
484.115	3.4
484.317	3.41
484.519	3.41
484.72	3.36
484.922	3.35
485.123	3.39
485.325	3.29
485.526	3.27
485.728	3.29
485.929	3.37
486.131	3.4
486.332	3.32
486.534	3.4
486.735	3.4
486.936	3.45
487.138	3.43
487.339	3.36
487.541	3.45
487.742	3.43
487.943	3.4
488.144	3.37
488.346	3.34
488.547	3.37
488.748	3.35
488.95	3.33
489.151	3.35
489.352	3.37
489.553	3.49
489.755	3.55
489.956	3.62
490.157	3.61
490.358	3.7
490.559	3.81
490.76	3.84
490.961	3.8
491.163	3.69
491.364	3.67
491.565	3.62
491.766	3.45
491.967	3.42
492.168	3.28
492.369	3.29
492.57	3.23
492.771	3.19
492.972	3.13
493.173	3.12
493.374	3.27
493.575	3.33
493.776	3.32
493.976	3.51
494.177	3.47
494.378	3.76
494.579	3.73
494.78	3.9
494.981	3.87
495.182	3.96
495.382	3.95
495.583	3.98
495.784	3.99
495.985	4.12
496.185	4.13
496.386	4.19
496.587	4.06
496.788	4.12
496.988	4.08
497.189	4.21
497.39	4.14
497.59	4.18
497.791	4.04
497.992	3.92
498.192	3.73
498.393	3.68
498.593	3.68
498.794	3.67
498.994	3.73
499.195	3.64
499.395	3.48
499.596	3.62
499.796	3.59
499.997	3.72
500.197	3.89
500.398	3.9
500.598	3.96
500.799	3.89
500.999	4.03
501.199	3.97
501.4	3.9
501.6	3.97
501.801	3.94
502.001	3.99
502.201	3.96
502.402	3.95
502.602	4
502.802	3.95
503.002	4.18
503.203	4.04
503.403	3.95
503.603	4.07
503.803	4.08
504.003	3.99
504.204	4.09
504.404	4.01
504.604	4.1
504.804	4.21
505.004	4.27
505.204	4.09
505.404	4.23
505.604	4.46
505.804	4.56
506.005	4.52
506.205	4.53
506.405	4.39
506.605	4.42
506.805	4.25
507.005	4.39
507.204	4.3
507.404	4.31
507.604	4.16
507.804	3.99
508.004	4
508.204	4.04
508.404	4.02
508.604	3.9
508.804	3.84
509.003	3.9
509.203	3.76
509.403	3.78
509.603	3.68
509.803	3.77
510.002	3.93
510.202	3.82
510.402	3.71
510.602	3.81
510.801	3.87
511.001	3.9
511.201	3.87
511.4	3.84
511.6	3.75
511.8	3.77
511.999	3.74
512.199	3.6
512.398	3.59
512.598	3.72
512.797	3.71
512.997	3.75
513.197	3.84
513.396	3.76
513.596	3.84
513.795	3.88
513.994	3.95
514.194	4.09
514.393	4.19
514.593	4.19
514.792	4.14
514.992	4.04
515.191	4.13
515.39	4.12
515.59	4.06
515.789	3.95
515.988	3.98
516.188	4.01
516.387	4.06
516.586	4.01
516.786	4.19
516.985	4.32
517.184	4.4
517.383	4.43
517.582	4.41
517.782	4.49
517.981	4.53
518.18	4.52
518.379	4.41
518.578	4.27
518.777	4.14
518.976	4.01
519.176	3.98
519.375	3.87
519.574	3.92
519.773	3.88
519.972	3.85
520.171	3.84
520.37	3.89
520.569	3.9
520.768	3.93
520.967	4.2
521.166	4.27
521.365	4.18
521.564	4.4
521.762	4.4
521.961	4.47
522.16	4.57
522.359	4.68
522.558	4.73
522.757	4.76
522.956	4.73
523.154	4.54
523.353	4.47
523.552	4.4
523.751	4.25
523.949	4.18
524.148	4.16
524.347	4.13
524.546	4.02
524.744	3.95
524.943	4.01
525.142	4.1
525.34	4.13
525.539	4.09
525.737	4.1
525.936	4.12
526.135	4.15
526.333	4.14
526.532	4.15
526.73	4.21
526.929	4.13
527.127	4.09
527.326	4.01
527.524	3.96
527.723	4.05
527.921	4.08
528.12	4.08
528.318	3.98
528.516	4.03
528.715	4
528.913	4.04
529.112	4.04
529.31	4.12
529.508	4.14
529.707	4.15
529.905	4.16
530.103	4.2
530.301	4.27
530.5	4.34
530.698	4.29
530.896	4.4
531.094	4.34
531.293	4.51
531.491	4.44
531.689	4.51
531.887	4.55
532.085	4.51
532.283	4.55
532.481	4.43
532.68	4.46
532.878	4.39
533.076	4.35
533.274	4.42
533.472	4.31
533.67	4.26
533.868	4.29
534.066	4.2
534.264	4.26
534.462	4.25
534.66	4.33
534.858	4.43
535.056	4.47
535.253	4.43
535.451	4.39
535.649	4.41
535.847	4.5
536.045	4.46
536.243	4.64
536.441	4.68
536.638	4.61
536.836	4.58
537.034	4.57
537.232	4.62
537.43	4.65
537.627	4.58
537.825	4.7
538.023	4.73
538.22	4.84
538.418	4.92
538.616	4.91
538.813	4.96
539.011	5
539.209	4.96
539.406	5.01
539.604	5.28
539.801	5.32
539.999	5.35
540.196	5.4
540.394	5.29
540.591	5.2
540.789	5.13
540.986	5.1
541.184	5.1
541.381	5.14
541.579	5.13
541.776	5.06
541.974	5.16
542.171	5.1
542.368	5.17
542.566	5.22
542.763	5.19
542.96	5.25
543.158	5.29
543.355	5.43
543.552	5.49
543.75	5.53
543.947	5.59
544.144	5.63
544.341	5.67
544.539	5.5
544.736	5.55
544.933	5.72
545.13	5.62
545.327	5.69
545.524	5.61
545.722	5.58
545.919	5.64
546.116	5.54
546.313	5.57
546.51	5.63
546.707	5.85
546.904	5.84
547.101	5.78
547.298	5.98
547.495	6.09
547.692	6.01
547.889	6.15
548.086	6.14
548.283	6.27
548.48	6.35
548.677	6.27
548.874	6.14
549.07	6.3
549.267	6.43
549.464	6.45
549.661	6.39
549.858	6.48
550.055	6.61
550.251	6.75
550.448	6.68
550.645	6.54
550.842	6.9
551.038	7.16
551.235	7.22
551.432	7.43
551.628	7.33
551.825	7.44
552.022	7.55
552.218	7.4
552.415	7.26
552.612	7.46
552.808	7.57
553.005	7.47
553.201	7.37
553.398	7.23
553.594	7.16
553.791	7.3
553.987	7.4
554.184	7.43
554.38	7.56
554.577	7.78
554.773	7.77
554.97	7.89
555.166	8.25
555.362	8.26
555.559	8.43
555.755	8.45
555.952	8.81
556.148	8.9
556.344	8.89
556.541	8.95
556.737	8.83
556.933	8.8
557.129	8.73
557.326	8.52
557.522	8.63
557.718	8.8
557.914	8.87
558.11	8.67
558.307	8.76
558.503	9.03
558.699	9.04
558.895	9.38
559.091	9.52
559.287	9.63
559.483	9.76
559.679	9.87
559.876	9.72
560.072	9.77
560.268	9.89
560.464	9.9
560.66	9.92
560.856	10.07
561.052	9.93
561.247	10.02
561.443	10.02
561.639	9.81
561.835	9.77
562.031	9.85
562.227	9.99
562.423	9.96
562.619	9.96
562.815	9.91
563.01	9.89
563.206	10.07
563.402	10.04
563.598	10.08
563.793	10.4
563.989	10.46
564.185	10.61
564.381	10.54
564.576	10.56
564.772	10.68
564.968	10.81
565.163	10.9
565.359	10.9
565.555	10.9
565.75	10.86
565.946	10.8
566.141	10.76
566.337	10.73
566.532	10.86
566.728	10.82
566.923	10.78
567.119	10.65
567.314	10.56
567.51	10.32
567.705	10.33
567.901	10.27
568.096	10.27
568.292	10.48
568.487	10.65
568.682	10.58
568.878	10.75
569.073	10.7
569.268	10.85
569.464	10.8
569.659	11.21
569.854	11.37
570.05	11.78
570.245	11.94
570.44	11.96
570.635	11.89
570.831	11.95
571.026	12.02
571.221	12.22
571.416	12.26
571.611	12.32
571.806	12.33
572.002	12.31
572.197	12.2
572.392	12
572.587	11.98
572.782	12.1
572.977	12.11
573.172	12.26
573.367	12.11
573.562	12.14
573.757	12.25
573.952	12.26
574.147	12.34
574.342	12.42
574.537	12.69
574.732	12.67
574.927	12.56
575.121	12.62
575.316	12.4
575.511	12.58
575.706	12.62
575.901	12.65
576.096	12.6
576.29	12.64
576.485	12.65
576.68	12.63
576.875	12.76
577.069	12.85
577.264	12.9
577.459	13.18
577.654	12.92
577.848	12.9
578.043	12.78
578.238	12.8
578.432	12.66
578.627	12.65
578.821	12.69
579.016	12.78
579.21	12.74
579.405	12.53
579.6	12.23
579.794	12.65
579.989	12.66
580.183	12.7
580.378	12.52
580.572	12.76
580.766	12.75
580.961	12.73
581.155	12.39
581.35	12.71
581.544	12.79
581.738	12.99
581.933	12.99
582.127	13.01
582.321	12.97
582.516	13.31
582.71	13.25
582.904	13.02
583.099	13.24
583.293	13.41
583.487	13.2
583.681	13.45
583.875	13.4
584.07	13.38
584.264	13.29
584.458	13.34
584.652	13.17
584.846	13.42
585.04	13.66
585.234	13.58
585.428	13.76
585.623	13.82
585.817	13.81
586.011	13.78
586.205	14.07
586.399	14.02
586.593	14.11
586.787	14.27
586.981	14.1
587.174	14.14
587.368	13.94
587.562	13.74
587.756	13.71
587.95	13.62
588.144	13.62
588.338	13.18
588.532	13.61
588.725	13.92
588.919	13.97
589.113	13.9
589.307	13.81
589.501	13.98
589.694	14.07
589.888	14.23
590.082	13.9
590.275	13.83
590.469	13.99
590.663	13.74
590.856	13.44
591.05	13.52
591.244	13.51
591.437	13.46
591.631	13.32
591.824	13.09
592.018	12.95
592.212	13.39
592.405	13.38
592.599	13.36
592.792	13.27
592.986	13.1
593.179	12.99
593.372	13.19
593.566	13.21
593.759	13.4
593.953	13.82
594.146	13.71
594.339	13.41
594.533	13.47
594.726	13.58
594.92	13.71
595.113	14.17
595.306	14.3
595.499	14.09
595.693	14.1
595.886	14.35
596.079	14.22
596.272	14.24
596.466	14.26
596.659	14.56
596.852	14.35
597.045	14.12
597.238	13.89
597.431	13.71
597.624	13.83
597.818	14.02
598.011	13.75
598.204	13.87
598.397	14.01
598.59	14.16
598.783	13.91
598.976	13.93
599.169	14.23
599.362	14.3
599.555	14.57
599.748	14.61
599.941	14.39
600.134	14.43
600.326	14.14
600.519	13.95
600.712	14.09
600.905	13.99
601.098	14
601.291	14.11
601.483	13.89
601.676	13.75
601.869	13.71
602.062	13.72
602.255	13.43
602.447	13.58
602.64	13.59
602.833	13.33
603.025	13.44
603.218	13.38
603.411	13.32
603.603	13.38
603.796	13.27
603.989	13.24
604.181	13.21
604.374	13.43
604.566	13.55
604.759	13.67
604.951	13.86
605.144	13.9
605.336	13.83
605.529	13.82
605.721	14
605.914	13.99
606.106	14.04
606.299	14.22
606.491	14.32
606.683	14.07
606.876	14.25
607.068	14.22
607.26	14.1
607.453	14.37
607.645	14.26
607.837	14.44
608.03	14.49
608.222	14.64
608.414	14.42
608.606	14.18
608.799	14.39
608.991	14.1
609.183	14.05
609.375	13.91
609.567	13.98
609.759	14.08
609.952	13.98
610.144	14.09
610.336	14.1
610.528	14.17
610.72	14.61
610.912	14.48
611.104	14.68
611.296	14.85
611.488	15.06
611.68	15.25
611.872	15.23
612.064	15.36
612.256	15.28
612.448	15.41
612.64	15.62
612.832	15.1
613.023	15.15
613.215	15.25
613.407	15.16
613.599	15.22
613.791	15.11
613.983	15
614.174	15.21
614.366	15.31
614.558	14.97
614.75	14.92
614.941	15.08
615.133	15.69
615.325	15.3
615.516	15.45
615.708	15.77
615.9	15.71
616.091	15.76
616.283	15.53
616.475	15.6
616.666	15.93
616.858	15.78
617.049	15.89
617.241	15.24
617.432	15.33
617.624	15.1
617.815	14.68
618.007	14.72
618.198	14.75
618.39	14.64
618.581	14.6
618.773	14.41
618.964	14.28
619.155	14.27
619.347	14.36
619.538	14.23
619.729	14.38
619.921	14.36
620.112	14.37
620.303	14.35
620.494	14.41
620.686	14.52
620.877	14.45
621.068	14.57
621.259	14.5
621.451	14.55
621.642	14.81
621.833	14.57
622.024	14.6
622.215	14.34
622.406	14.45
622.597	14.28
622.788	13.69
622.98	13.63
623.171	13.78
623.362	14.03
623.553	14
623.744	13.97
623.935	14.21
624.126	14.13
624.317	14.37
624.508	14.37
624.698	14.59
624.889	15.28
625.08	15.29
625.271	15.22
625.462	15.25
625.653	15.26
625.844	15.38
626.034	15.14
626.225	15.33
626.416	15.13
626.607	15.06
626.798	14.91
626.988	14.82
627.179	15.09
627.37	15.17
627.56	14.92
627.751	15.1
627.942	14.86
628.132	14.94
628.323	14.9
628.514	15.1
628.704	14.84
628.895	15.13
629.085	15.18
629.276	14.85
629.466	14.53
629.657	14.33
629.847	14.52
630.038	14.47
630.228	14.69
630.419	14.63
630.609	14.52
630.8	14.87
630.99	14.6
631.181	14.45
631.371	14.71
631.561	15.03
631.752	15.09
631.942	14.86
632.132	15.11
632.323	14.76
632.513	14.93
632.703	15.15
632.893	15.32
633.084	15.08
633.274	15.28
633.464	15.22
633.654	15.36
633.844	15.97
634.034	15.85
634.225	15.67
634.415	15.88
634.605	15.93
634.795	15.89
634.985	15.75
635.175	15.93
635.365	15.74
635.555	15.67
635.745	15.49
635.935	15.09
636.125	15.27
636.315	15.44
636.505	15.75
636.695	15.84
636.885	15.64
637.075	15.82
637.265	15.78
637.455	15.84
637.644	15.8
637.834	15.74
638.024	15.46
638.214	15.3
638.404	15.31
638.593	15.03
638.783	14.95
638.973	14.8
639.163	14.72
639.352	14.54
639.542	14.44
639.732	14.38
639.921	14.67
640.111	14.68
640.301	14.56
640.49	14.42
640.68	14.63
640.87	14.6
641.059	14.89
641.249	14.78
641.438	15.08
641.628	14.97
641.817	14.99
642.007	14.34
642.196	14.82
642.386	14.86
642.575	14.79
642.764	14.41
642.954	14.48
643.143	14.37
643.333	14.09
643.522	14.4
643.711	14.38
643.901	14.62
644.09	15.04
644.279	15.08
644.469	15.01
644.658	15.09
644.847	15.42
645.036	15.45
645.226	15.61
645.415	15.75
645.604	15.64
645.793	15.61
645.982	15.53
646.171	15.41
646.361	15.19
646.55	15.27
646.739	15.69
646.928	15.42
647.117	15.41
647.306	15.35
647.495	15.58
647.684	15.38
647.873	15.43
648.062	15.21
648.251	15.77
648.44	15.66
648.629	15.56
648.818	15.26
649.007	15.61
649.196	15.18
649.384	15.34
649.573	15.53
649.762	15.16
649.951	15.13
650.14	15.22
650.328	14.98
650.517	14.98
650.706	15.11
650.895	15.02
651.083	14.97
651.272	15.29
651.461	14.86
651.65	14.71
651.838	15.18
652.027	15.11
652.216	15.54
652.404	15.26
652.593	15.34
652.781	15.42
652.97	15.45
653.158	14.99
653.347	15.14
653.535	15.42
653.724	15.66
653.912	15.86
654.101	15.88
654.289	15.37
654.478	15.71
654.666	15.82
654.855	15.98
655.043	15.78
655.231	16.2
655.42	15.64
655.608	15.47
655.796	15.14
655.985	14.46
656.173	14.82
656.361	14.89
656.55	14.59
656.738	14.78
656.926	14.56
657.114	14.93
657.302	15.01
657.491	15.02
657.679	15.25
657.867	15.41
658.055	15.49
658.243	15.85
658.431	16.07
658.619	16.04
658.807	15.91
658.996	15.78
659.184	15.61
659.372	15.41
659.56	15.74
659.748	15.59
659.936	15.57
660.124	15.65
660.311	15.25
660.499	15.3
660.687	15.26
660.875	15.29
661.063	15.3
661.251	15.35
661.439	15.42
661.627	15.18
661.814	15.19
662.002	15.06
662.19	15.22
662.378	14.92
662.565	14.51
662.753	14.68
662.941	14.47
663.129	14.42
663.316	14.9
663.504	15.14
663.692	15.78
663.879	15.49
664.067	15.49
664.254	15.69
664.442	15.64
664.63	15.8
664.817	15.72
665.005	15.94
665.192	16.24
665.38	15.86
665.567	15.8
665.755	15.05
665.942	15.81
666.13	15.84
666.317	15.29
666.504	15.53
666.692	15.45
666.879	15.58
667.067	15.23
667.254	15.82
667.441	15.87
667.629	15.69
667.816	16.1
668.003	15.91
668.19	16.07
668.378	16.52
668.565	16.92
668.752	17.11
668.939	16.92
669.127	17.17
669.314	16.49
669.501	16.18
669.688	16.38
669.875	16.51
670.062	16.43
670.249	16.44
670.436	16.39
670.623	16.34
670.81	16.55
670.997	17.14
671.184	17.1
671.371	17.02
671.558	16.97
671.745	16.66
671.932	16.5
672.119	16.44
672.306	15.96
672.493	16.23
672.68	15.74
672.867	15.28
673.054	14.88
673.24	14.98
673.427	15.62
673.614	16.1
673.801	16.37
673.988	15.84
674.174	15.82
674.361	15.99
674.548	15.28
674.734	15.55
674.921	15.63
675.108	15.81
675.294	16.13
675.481	15.37
675.668	15.06
675.854	15.19
676.041	16.08
676.227	16.36
676.414	16.73
676.601	17.63
676.787	17.61
676.974	17.47
677.16	17.71
677.347	17.13
677.533	17.66
677.719	17.78
677.906	17.45
678.092	17.32
678.279	16.9
678.465	16.41
678.651	15.68
678.838	15.93
679.024	15.95
679.21	15.22
679.397	15.39
679.583	15.45
679.769	15
679.955	15.4
680.142	15.43
680.328	15.51
680.514	15.66
680.7	15.61
680.886	15.41
681.073	15.84
681.259	16.3
681.445	16.13
681.631	15.96
681.817	16.11
682.003	15.81
682.189	15.37
682.375	15.66
682.561	16.02
682.747	15.79
682.933	15.89
683.119	15.37
683.305	15.45
683.491	15.78
683.677	15.67
683.863	15.91
684.049	16.14
684.235	16.32
684.42	16.39
684.606	15.95
684.792	16.61
684.978	16.38
685.164	16.81
685.349	16.48
685.535	16.19
685.721	15.98
685.907	16.29
686.092	15.98
686.278	15.81
686.464	15.39
686.649	15.29
686.835	15.62
687.021	15.78
687.206	15.73
687.392	15.56
687.577	15.4
687.763	15.64
687.948	15.66
688.134	15.6
688.319	15.94
688.505	15.98
688.69	16.15
688.876	15.88
689.061	16.02
689.247	15.9
689.432	16.61
689.618	17.13
689.803	17.67
689.988	17.5
690.174	17.43
690.359	16.5
690.544	17.14
690.73	17.23
690.915	16.93
691.1	17
691.285	17.48
691.471	17.33
691.656	16.65
691.841	15.93
692.026	15.94
692.211	16.27
692.396	16.7
692.582	16.06
692.767	16.52
692.952	17.17
693.137	16.67
693.322	16.46
693.507	16.64
693.692	17.32
693.877	17.73
694.062	18.03
694.247	17.97
694.432	17.96
694.617	18.23
694.802	17.7
694.987	17.53
695.172	17.63
695.357	17.46
695.541	16.26
695.726	15.9
695.911	15.65
696.096	15.23
696.281	15.21
696.466	16.19
696.65	15.92
696.835	15.81
697.02	15.73
697.204	16.13
697.389	15.38
697.574	15.94
697.759	15.56
697.943	16.03
698.128	15.94
698.312	15.99
698.497	15.45
698.682	15.56
698.866	15.52
699.051	15.3
699.235	15.37
699.42	15.78
699.604	15.67
699.789	15.86
699.973	16.01
700.158	16.2
700.342	15.98
700.527	16.65
700.711	16.46
700.895	17.03
701.08	17.21
701.264	17.18
701.448	17.41
701.633	18.58
701.817	19.06
702.001	18.51
702.186	18.78
702.37	19.39
702.554	19.75
702.738	20.43
702.923	19.69
703.107	19.78
703.291	19.16
703.475	19.15
703.659	18.39
703.843	18.17
704.027	18.21
704.212	18.12
704.396	18.33
704.58	17.83
704.764	17.89
704.948	19
705.132	19.19
705.316	19.16
705.5	19.33
705.684	19.78
705.868	20.35
706.052	19.78
706.235	18.99
706.419	18.84
706.603	18.31
706.787	17.64
706.971	17.38
707.155	16.39
707.339	17.54
707.522	17.2
707.706	16.58
707.89	15.85
708.074	16.44
708.257	17.18
708.441	16.86
708.625	16.67
708.808	16.63
708.992	16.77
709.176	16.93
709.359	16.37
709.543	16.33
709.727	16.6
709.91	16.93
710.094	16.61
710.277	16.68
710.461	16.32
710.644	16.65
710.828	16.97
711.011	16.71
711.195	17.79
711.378	17.93
711.562	17.61
711.745	16.98
711.928	17.04
712.112	16.24
712.295	16
712.478	16.7
712.662	17.27
712.845	17.24
713.028	17.22
713.212	16.87
713.395	17.23
713.578	17.77
713.761	18.04
713.945	17.15
714.128	17.93
714.311	17.91
714.494	17.2
714.677	15.93
714.86	15.77
715.043	16.24
715.227	16.06
715.41	15.17
715.593	15.12
715.776	15.22
715.959	15.73
716.142	15.76
716.325	15.99
716.508	16.56
716.691	17.55
716.874	17.88
717.057	17.76
717.239	18.1
717.422	19.05
717.605	19.16
717.788	20.11
717.971	21
718.154	21.38
718.337	21.35
718.519	21.36
718.702	21.02
718.885	21.35
719.068	20.66
719.25	19.95
719.433	18.61
719.616	18.82
719.798	17.65
719.981	17.6
720.164	17.01
720.346	17.16
720.529	16.97
720.712	16.74
720.894	15.95
721.077	16.34
721.259	16.67
721.442	18.44
721.624	17.98
721.807	18.9
721.989	18.31
722.172	18.73
722.354	18.68
722.537	18.84
722.719	18.89
722.901	19.23
723.084	19.36
723.266	18.56
723.448	18.43
723.631	18.57
723.813	19.44
723.995	19.44
724.178	19.39
724.36	19.8
724.542	21
724.724	21.16
724.907	20.46
725.089	20.07
725.271	20.98
725.453	20.16
725.635	20.8
725.817	19.08
725.999	19.53
726.181	20.22
726.364	19.4
726.546	18.48
726.728	17.87
726.91	19.07
727.092	18.92
727.274	19.23
727.456	19.59
727.638	19.53
727.819	19.39
728.001	19.06
728.183	18.92
728.365	19.53
728.547	18.73
728.729	20.3
728.911	20.29
729.093	20.73
729.274	21.17
729.456	20.8
729.638	19.8
729.82	19.5
730.001	19.58
730.183	18.69
730.365	17.87
730.546	18.94
730.728	18.56
730.91	17.07
731.091	17.61
731.273	16.81
731.455	16.06
731.636	16.2
731.818	16.85
731.999	16.35
732.181	16.28
732.362	17.25
732.544	16.3
732.725	15.76
732.907	17.26
733.088	17.03
733.27	17.35
733.451	18.85
733.633	19.16
733.814	19.48
733.995	19.73
734.177	21.25
734.358	20.82
734.539	21.23
734.721	21.28
734.902	21.88
735.083	21.48
735.264	21.41
735.446	22.02
735.627	22.5
735.808	21.65
735.989	22.26
736.17	21.14
736.351	21.67
736.533	22.51
736.714	23.43
736.895	20.75
737.076	21.51
737.257	21.77
737.438	20.99
737.619	20.3
737.8	20.99
737.981	21.7
738.162	21.87
738.343	21.8
738.524	21.5
738.705	19.96
738.886	20.33
739.067	18.81
739.247	19.21
739.428	18.29
739.609	19.62
739.79	19.05
739.971	18.99
740.151	19.14
740.332	19.55
740.513	20.16
740.694	20.86
740.874	22.33
741.055	22.87
741.236	21.52
741.417	21.06
741.597	19.75
741.778	20.36
741.958	19.87
742.139	20.37
742.32	19.5
742.5	18.52
742.681	18.59
742.861	18.48
743.042	18.74
743.222	19.7
743.403	20.2
743.583	20.71
743.764	20.32
743.944	20.12
744.124	19.66
744.305	19.73
744.485	18.47
744.666	18.58
744.846	18.14
745.026	17.4
745.207	17.28
745.387	17.74
745.567	17.9
745.747	17.64
745.928	17.48
746.108	17.82
746.288	17.47
746.468	20.02
746.648	21.25
746.829	21.15
747.009	23.21
747.189	24.48
747.369	24.1
747.549	23.97
747.729	23.68
747.909	23.54
748.089	22.51
748.269	22.3
748.449	21.07
748.629	19.74
748.809	20.36
748.989	19.75
749.169	18.02
749.349	18.03
749.529	18.04
749.709	18.87
749.889	17.52
750.068	18.85
750.248	19.62
750.428	19.02
750.608	18.58
750.788	17.93
750.967	17.88
751.147	18.91
751.327	18.93
751.507	19.24
751.686	19.01
751.866	20.22
752.046	20.49
752.225	19.59
752.405	20.47
752.585	20.9
752.764	21.19
752.944	21.05
753.123	20.37
753.303	20.14
753.482	18.46
753.662	18.35
753.841	19.58
754.021	17.7
754.2	20.14
754.38	20.71
754.559	20.87
754.739	21.2
754.918	20.83
755.097	22.12
755.277	21.65
755.456	23.68
755.635	24.53
755.815	23.79
755.994	25.15
756.173	23.33
756.352	21.18
756.532	21.41
756.711	22.02
756.89	21.52
757.069	20.48
757.248	23.02
757.427	23.08
757.607	22.36
757.786	21.49
757.965	19.52
758.144	19.06
758.323	20.12
758.502	20.28
758.681	19.21
758.86	19.98
759.039	20.93
759.218	20.23
759.397	20.13
759.576	20
759.755	19.43
759.934	20.26
760.113	20.55
760.291	21.84
760.47	22.43
760.649	23.1
760.828	23.14
761.007	22.15
761.186	21.64
761.364	22.05
761.543	21.57
761.722	23.04
761.901	24.29
762.079	24.79
762.258	24.7
762.437	24.44
762.615	24.08
762.794	23.44
762.972	23.76
763.151	22.87
763.33	22
763.508	22.77
763.687	22.26
763.865	22.73
764.044	22.08
764.222	20.62
764.401	20.19
764.579	20.72
764.758	20.97
764.936	21.52
765.114	22.3
765.293	22.84
765.471	23.02
765.65	22.99
765.828	21.22
766.006	21.58
766.184	23.31
766.363	23.96
766.541	22.6
766.719	22.55
766.898	20.39
767.076	21.72
767.254	21.69
767.432	21.7
767.61	22.37
767.788	24.4
767.967	25.34
768.145	24.75
768.323	23.69
768.501	23.75
768.679	22.83
768.857	25.33
769.035	24.31
769.213	22.96
769.391	21.67
769.569	21.25
769.747	20.89
769.925	18.91
770.103	18.53
770.281	18.95
770.459	19.63
770.636	21.19
770.814	18.55
770.992	18
771.17	18.93
771.348	18.32
771.525	17.58
771.703	15.26
771.881	17.54
772.059	17.04
772.236	17.09
772.414	17.64
772.592	17.06
772.769	20.22
772.947	20.01
773.125	18.43
773.302	21.76
773.48	22.86
773.657	22.72
773.835	22.82
774.013	23.36
774.19	24.28
774.368	22.05
774.545	21.57
774.723	19.63
774.9	21.45
775.077	21.51
775.255	19.83
775.432	20.06
775.61	21.5
775.787	19.5
775.964	21.24
776.142	20.85
776.319	22.79
776.496	24.34
776.674	23.95
776.851	23.49
777.028	27.07
777.205	26.68
777.382	24.99
777.56	24.54
777.737	25.32
777.914	22.78
778.091	20.75
778.268	20.91
778.445	21.09
778.622	20.97
778.8	18.28
778.977	16.88
779.154	18.72
779.331	20.58
779.508	21.14
779.685	21.63
779.862	22.77
780.038	23.28
780.215	24.65
780.392	24.12
780.569	24.39
780.746	27.21
780.923	26.45
781.1	24.59
781.277	27.54
781.453	27.45
781.63	25.29
781.807	25.58
781.984	26.16
782.16	24.98
782.337	25.39
782.514	28.13
782.691	25.04
782.867	25.33
783.044	25.4
783.221	21.22
783.397	20.67
783.574	20.74
783.75	23.02
783.927	23.17
784.103	24
784.28	24.59
784.456	22.2
784.633	24.18
784.809	22.66
784.986	23.71
785.162	24.92
785.339	25.55
785.515	28.14
785.692	24.52
785.868	26.53
786.044	28.92
786.221	29.58
786.397	28.58
786.573	29.03
786.749	31.19
786.926	31.11
787.102	30.21
787.278	30.33
787.454	30.41
787.631	30.62
787.807	28.24
787.983	25.85
788.159	25.73
788.335	25.67
788.511	25.23
788.687	26.26
788.863	29.01
789.039	30.38
789.216	29.58
789.392	27.19
789.568	27.49
789.744	29.89
789.919	30.45
790.095	29.98
790.271	28.9
790.447	29.72
790.623	28.41
790.799	27.45
790.975	28.41
791.151	31.51
791.327	33.17
791.502	32.07
791.678	30.75
791.854	28.41
792.03	28.93
792.205	31.07
792.381	31.86
792.557	33.01
792.733	31.55
792.908	30.01
793.084	27.38
793.259	26.61
793.435	29.52
793.611	28.85
793.786	29.9
793.962	30.7
794.137	32.51
794.313	32.35
794.488	30.23
794.664	28.33
794.839	27.64
795.015	29.98
795.19	26.59
795.366	25
795.541	27.54
795.716	31.2
795.892	28.7
796.067	26.86
796.242	24.4
796.418	25.08
796.593	25.52
796.768	25.62
796.944	25
797.119	29.4
797.294	30.88
797.469	28.4
797.644	26.19
797.82	27.5
797.995	26.3
798.17	27.91
798.345	28.43
798.52	30.31
798.695	28.17
798.87	27.57
799.045	23.8
799.22	22.76
799.395	24.48
799.57	26.53
799.745	24.21
799.92	26.88
800.095	25.58
800.27	26.34
800.445	24.59
800.62	27.54
800.795	28.56
800.97	30.29
801.145	27.08
801.319	27.07
801.494	24.84
801.669	27.17
801.844	27.85
802.018	27.54
802.193	25.75
802.368	28.07
802.543	30.71
802.717	32.32
802.892	31.31
803.067	34.15
803.241	32.88
803.416	31.93
803.59	31.22
803.765	30.28
803.94	31.99
804.114	34.32
804.289	35.23
804.463	33.32
804.638	32.62
804.812	35.61
804.986	34.25
805.161	32.14
805.335	32.04
805.51	30.69
805.684	28.65
805.858	29.4
806.033	29.66
806.207	30.44
806.381	28.44
806.556	28.74
806.73	29.65
806.904	31.5
807.078	34.67
807.253	34.28
807.427	34.24
807.601	33.99
807.775	32.23
807.949	27.49
808.123	22.85
808.298	23.75
808.472	22.54
808.646	21.02
808.82	20.86
808.994	15.63
809.168	18.38
809.342	20.61
809.516	24.58
809.69	26.74
809.864	31
810.038	34.11
810.212	31.97
810.385	27.72
810.559	28.91
810.733	28.82
810.907	33.46
811.081	32.04
811.255	34.92
811.428	30.63
811.602	31.13
811.776	29.11
811.95	27
812.123	27.79
812.297	30.23
812.471	31.3
812.644	31.36
812.818	33.48
812.992	33.95
813.165	32.5
813.339	40.79
813.512	41.61
813.686	44.54
813.86	40.32
814.033	40.66
814.207	38.1
814.38	35.01
814.554	30.71
814.727	28.18
814.9	29.59
815.074	26.93
815.247	25.33
815.421	19.37
815.594	21.08
815.767	22.52
815.941	19.69
816.114	21.79
816.287	20.84
816.46	21.33
816.634	20.92
816.807	20.4
816.98	23.08
817.153	23.49
817.327	30.06
817.5	28.5
817.673	34.1
817.846	36.61
818.019	35.31
818.192	35.42
818.365	41.01
818.538	41.62
818.711	41.03
818.884	41.61
819.057	38.57
819.23	36.61
819.403	36.22
819.576	33.54
819.749	32.55
819.922	35.62
820.095	37.73
820.268	34.71
820.441	32.62
820.614	28.58
820.786	26.57
820.959	25.5
821.132	24.21
821.305	24.19
821.477	23.35
821.65	24.5
821.823	22.97
821.996	22.33
822.168	23.09
822.341	22.86
822.514	23.21
822.686	22.35
822.859	22.69
823.031	23.06
823.204	23.16
823.376	23.64
823.549	22.31
823.722	22.64
823.894	22.84
824.067	21.65
824.239	21.51
824.411	22.45
824.584	23.61
824.756	23.5
824.929	22.52
825.101	20.99
825.273	20.97
825.446	22.6
825.618	22.68
825.79	20.92
825.963	21.28
826.135	22.32
826.307	21.43
826.479	20.99
826.652	21.24
826.824	21.96
826.996	22.03
827.168	21.97
827.34	21.48
827.512	19.71
827.684	20.74
827.856	21.93
828.029	21.06
828.201	20.15
828.373	18.91
828.545	19.99
828.717	21.35
828.889	23.01
829.061	22.84
829.232	21.29
829.404	21.47
829.576	22.68
829.748	20.32
829.92	18.65
830.092	21.57
830.264	22.9
830.436	16.84
830.607	15.1
830.779	15.8
830.951	18.15
831.123	22.17
831.294	25.79
831.466	26.82
831.638	29.85
831.809	33.26
831.981	35.65
832.153	36.03
832.324	37.92
832.496	40.24
832.667	34.55
832.839	33.38
833.011	33.52
833.182	31.76
833.354	28.31
833.525	26
833.697	26.78
833.868	23.36
834.039	20.08
834.211	23.02
834.382	21.63
834.554	24.82
834.725	24.01
834.896	23.21
835.068	23.65
835.239	23.82
835.41	24.24
835.581	22.98
835.753	24.43
835.924	26.2
836.095	26.18
836.266	26.07
836.438	28.16
836.609	31.96
836.78	30.39
836.951	32.22
837.122	34.75
837.293	36.38
837.464	39.15
837.635	38.42
837.806	42.7
837.977	47.79
838.148	49.48
838.319	51.38
838.49	50.58
838.661	56.71
838.832	56.8
839.003	62.86
839.174	64.55
839.345	60.78
839.516	58.3
839.687	58.42
839.857	50.51
840.028	48.28
840.199	51.69
840.37	49.5
840.54	47.19
840.711	45.95
840.882	45.74
841.053	47.52
841.223	47.71
841.394	54.01
841.564	57.9
841.735	56.03
841.906	58.99
842.076	52.2
842.247	53.99
842.417	55.88
842.588	58.2
842.758	52.16
842.929	45.16
843.099	45.56
843.27	41.54
843.44	25.23
843.611	26.66
843.781	24.24
843.951	21.7
844.122	26.14
844.292	33.21
844.462	41.37
844.633	52.54
844.803	66.14
844.973	61.54
845.144	60.57
845.314	66.61
845.484	71.45
845.654	75.31
845.824	80.66
845.995	73.8
846.165	69.02
846.335	61.56
846.505	50.99
846.675	56.63
846.845	63.38
847.015	72.48
847.185	79.94
847.355	82.25
847.525	76.22
847.695	67.4
847.865	64.87
848.035	52.39
848.205	52.53
848.375	48.79
848.545	38.3
848.715	28.56
848.884	12.42
849.054	11.23
849.224	3.32
849.394	10.58
849.564	18.7
849.733	14.92
849.903	26.45
850.073	34.47
850.243	47.22
850.412	49.05
850.582	53.2
850.752	58.42
850.921	62.44
851.091	61.9
851.26	50.82
851.43	57.98
851.599	61.74
851.769	58.33
851.939	49.49
852.108	39.05
852.278	48.35
852.447	46.69
852.616	42.68
852.786	46.25
852.955	56.44
853.125	62.53
853.294	48.99
853.463	44.51
853.633	66.66
853.802	58
853.971	63.51
854.141	55.48
854.31	57.84
854.479	65.46
854.648	59.96
854.818	55.61
854.987	64.35
855.156	74.28
855.325	76.78
855.494	78.08
855.663	86.31
855.832	82.24
856.001	85.77
856.171	107.22
856.34	103.95
856.509	116.75
856.678	131.37
856.847	107.26
857.016	91.6
857.185	95.76
857.353	85.48
857.522	75.36
857.691	81.41
857.86	82.68
858.029	71.57
858.198	67.07
858.367	53.4
858.535	48.38
858.704	54.6
858.873	64.58
859.042	69.51
859.21	78.53
859.379	82.7
859.548	96.96
859.717	102.02
859.885	103.15
860.054	101.71
860.222	116.57
860.391	128.08
860.56	124.92
860.728	104.5
860.897	94.83
861.065	91.7
861.234	98.16
861.402	73.55
861.571	76.59
861.739	66.95
861.908	66.32
862.076	67.66
862.244	60.28
862.413	58.51
862.581	68.98
862.749	70.64
862.918	65.27
863.086	65.31
863.254	67.91
863.423	66.98
863.591	79.85
863.759	78.52
863.927	67.54
864.096	69.25
864.264	68.79
864.432	47.53
864.6	48.36
864.768	36.72
864.936	31.13
865.104	41.59
865.272	30.97
865.44	15.3
865.608	47.75
865.776	44.82
865.944	50.24
866.112	73.78
866.28	90.46
866.448	99.09
866.616	113.29
866.784	125.28
866.952	79.11
867.12	71.42
867.288	72.52
867.455	60.84
867.623	51.89
867.791	46.85
867.959	44.21
868.127	46.43
868.294	52.08
868.462	49.16
868.63	55.49
868.797	70.42
868.965	68.64
869.133	63.42
869.3	55.71
869.468	55.83
869.636	57.39
869.803	51.1
869.971	55.43
870.138	47.5
870.306	45.53
870.473	40.7
870.641	35.03
870.808	43.45
870.975	53.44
871.143	61
871.31	70.77
871.478	74.74
871.645	84.51
871.812	91.32
871.98	95.19
872.147	95.76
872.314	108.68
872.482	91.72
872.649	76.18
872.816	100.9
872.983	95.36
873.15	93.34
873.318	98.1
873.485	83.24
873.652	75.38
873.819	60.6
873.986	60.62
874.153	63.38
874.32	62.53
874.487	61.77
874.654	47.94
874.821	58.46
874.988	57.15
875.155	58.18
875.322	56.86
875.489	53.99
875.656	59.87
875.823	62.15
875.99	61.46
876.157	56.41
876.324	65.08
876.49	65.88
876.657	62.7
876.824	61.1
876.991	59.8
877.157	67.07
877.324	70.66
877.491	74.66
877.658	72.32
877.824	75.2
877.991	82.55
878.157	79.13
878.324	74.27
878.491	73.17
878.657	86.79
878.824	89
878.99	88.85
879.157	84.44
879.323	88.57
879.49	108.31
879.656	96.58
879.823	94.83
879.989	92.12
880.156	97.39
880.322	101.73
880.488	75.34
880.655	76.17
880.821	61.53
880.987	48.32
881.154	44.42
881.32	40.43
881.486	37.92
881.652	39.18
881.819	35.65
881.985	37.25
882.151	34.85
882.317	30.58
882.483	30.74
882.649	30.65
882.816	35.55
882.982	33.8
883.148	31.54
883.314	30.55
883.48	27.23
883.646	25.59
883.812	24.3
883.978	27.67
884.144	30.99
884.31	28.46
884.476	29.06
884.642	31.23
884.807	29.5
884.973	27.76
885.139	28.97
885.305	32.63
885.471	32.22
885.637	32.65
885.802	28.02
885.968	28.53
886.134	28.75
886.3	31.47
886.465	26.97
886.631	32.85
886.797	39.45
886.962	44.05
887.128	42.86
887.293	48.71
887.459	52.15
887.625	55.83
887.79	51.53
887.956	56.15
888.121	56.69
888.287	57.67
888.452	58.15
888.618	54.08
888.783	46.29
