Data from 2938051_Reflection_2.txt Node
Date: Sun Jul 12 14:12:34 EDT 2015
User: robert
Spectrometer: USB4E03001
Autoset integration time: false
Trigger mode: 4
Integration Time (sec): 1.000000E-1
Scans to average: 10
Electric dark correction enabled: true
Nonlinearity correction enabled: false
Boxcar width: 5
Stray light correction enabled: false
XAxis mode: Wavelengths
Stop averaging: false
Number of Pixels in Spectrum: 3648
>>>>>Begin Spectral Data<<<<<
177.566	29.73
177.785	142.74
178.005	142.05
178.225	209.9
178.445	-377.72
178.665	-88.98
178.885	113.09
179.105	108.84
179.324	118.98
179.544	82.88
179.764	79.92
179.984	52.59
180.204	103.61
180.423	103.08
180.643	136.76
180.863	265.04
181.083	195
181.302	92.64
181.522	99.4
181.742	114.72
181.961	234.34
182.181	107.84
182.401	104.66
182.621	78.12
182.84	107.99
183.06	79.61
183.279	71.17
183.499	83.36
183.719	75.32
183.938	57.22
184.158	51.43
184.377	29.45
184.597	40.68
184.816	48.05
185.036	61.4
185.256	52.26
185.475	65.29
185.695	62.43
185.914	42.43
186.134	51.32
186.353	73.91
186.572	77.22
186.792	113.85
187.011	101.57
187.231	92.8
187.45	62.08
187.67	51.93
187.889	37.46
188.108	54.45
188.328	64.33
188.547	62.63
188.766	62.2
188.986	58.63
189.205	59.18
189.424	61.33
189.644	59.27
189.863	78.19
190.082	88.93
190.302	121.05
190.521	110.51
190.74	139.32
190.959	155.21
191.178	231.3
191.398	-2114.5
191.617	-294.66
191.836	-379.42
192.055	-147.22
192.274	-253.35
192.494	-233.93
192.713	-287.24
192.932	-269.54
193.151	-142.64
193.37	-42.97
193.589	-35.14
193.808	340.69
194.027	213.16
194.246	177.18
194.465	128.84
194.685	182.75
194.904	107.8
195.123	78.9
195.342	87.46
195.561	66.65
195.78	94.23
195.999	81.4
196.218	88.5
196.436	114.74
196.655	129.52
196.874	90.78
197.093	96.84
197.312	94.51
197.531	118.58
197.75	118.74
197.969	110.59
198.188	114.27
198.407	120.29
198.625	105.57
198.844	84.69
199.063	66.71
199.282	130.81
199.501	127.56
199.719	128.51
199.938	143.66
200.157	119.32
200.376	120.87
200.594	161.07
200.813	164.3
201.032	220.83
201.251	87.79
201.469	134.24
201.688	107.46
201.907	62.11
202.125	83.29
202.344	84.17
202.563	179.58
202.781	117.44
203	81.88
203.218	98.65
203.437	108.41
203.656	102.43
203.874	81.33
204.093	83.98
204.311	228.26
204.53	180.02
204.748	131.19
204.967	53.24
205.185	54.71
205.404	61.77
205.622	45.94
205.841	39.69
206.059	110.53
206.278	85.04
206.496	83.93
206.715	44.09
206.933	57.7
207.151	30.79
207.37	55
207.588	76.94
207.806	57.39
208.025	40.18
208.243	21.06
208.461	14.93
208.68	34.51
208.898	23.15
209.116	28.89
209.335	11.57
209.553	59.32
209.771	63.26
209.989	34.78
210.208	124.29
210.426	119.22
210.644	148.04
210.862	133.74
211.081	118.27
211.299	109.75
211.517	116.22
211.735	99
211.953	79.36
212.171	65.85
212.39	62.06
212.608	38.12
212.826	61.82
213.044	19.2
213.262	30.91
213.48	25.31
213.698	32.27
213.916	32.04
214.134	48.22
214.352	43.73
214.57	41.28
214.788	60.06
215.006	81.41
215.224	40.5
215.442	53.82
215.66	38.94
215.878	61.62
216.096	63.67
216.314	27.97
216.532	36.63
216.75	42.28
216.968	62.47
217.185	65.13
217.403	58.59
217.621	62.17
217.839	66.15
218.057	67.73
218.275	70
218.492	72.5
218.71	98.47
218.928	90.59
219.146	85.22
219.363	66.77
219.581	61.12
219.799	81.84
220.017	69.81
220.234	79.59
220.452	73.63
220.67	70.26
220.887	66.81
221.105	56.45
221.323	61.63
221.54	77.77
221.758	72.78
221.976	66.51
222.193	56.37
222.411	58.75
222.629	48.34
222.846	56.81
223.064	47.17
223.281	50.88
223.499	56.66
223.716	57.48
223.934	48.02
224.151	42.93
224.369	52.72
224.586	49.43
224.804	53.43
225.021	51.87
225.239	53.17
225.456	57.37
225.674	56.82
225.891	48.1
226.108	37.76
226.326	35.35
226.543	38.38
226.76	31.31
226.978	30.19
227.195	25.7
227.413	23.47
227.63	21.95
227.847	23.19
228.064	19.59
228.282	17.71
228.499	18.14
228.716	16.54
228.934	15.08
229.151	13.44
229.368	11.57
229.585	12.23
229.802	12.96
230.02	13.89
230.237	13.45
230.454	13.97
230.671	16.51
230.888	16.97
231.105	16.32
231.323	17.35
231.54	19.85
231.757	22.64
231.974	22.13
232.191	22.52
232.408	20.55
232.625	20.95
232.842	23.1
233.059	25.07
233.276	21.81
233.493	25.93
233.71	21.75
233.927	21.73
234.144	22.16
234.361	22.81
234.578	20.3
234.795	17.5
235.012	15.49
235.229	12.86
235.446	7.74
235.663	8.72
235.879	7.82
236.096	14.36
236.313	9.29
236.53	10.6
236.747	8.41
236.964	8.37
237.181	11.58
237.397	9.89
237.614	14.07
237.831	14.05
238.048	16.09
238.264	16.86
238.481	11.43
238.698	15.02
238.915	13.15
239.131	14.59
239.348	17.83
239.565	14.3
239.781	16.24
239.998	16.86
240.215	18.4
240.431	17.34
240.648	15.27
240.865	14.69
241.081	15.22
241.298	14.83
241.514	15.34
241.731	14.12
241.947	14.7
242.164	14.35
242.38	12.53
242.597	11.15
242.814	12.08
243.03	13.65
243.246	14.12
243.463	12.89
243.679	13.56
243.896	12.89
244.112	12.58
244.329	14.33
244.545	13.14
244.762	15
244.978	14.55
245.194	15
245.411	14.17
245.627	14.13
245.843	14.65
246.06	13.76
246.276	13.38
246.492	13.65
246.709	11.91
246.925	12.77
247.141	12.35
247.357	12.72
247.574	12.64
247.79	12.26
248.006	12.33
248.222	12.71
248.439	12.52
248.655	12.47
248.871	12.01
249.087	12.57
249.303	12.29
249.519	11.22
249.736	11.28
249.952	10.64
250.168	11.76
250.384	12.25
250.6	11.63
250.816	11.23
251.032	11.35
251.248	10.8
251.464	10.01
251.68	11.14
251.896	10.84
252.112	10.99
252.328	10.31
252.544	9.85
252.76	9.59
252.976	10.11
253.192	11.06
253.408	10.97
253.624	13.08
253.84	14.27
254.056	12.86
254.272	15.58
254.487	17.22
254.703	17.14
254.919	18.67
255.135	18.71
255.351	16.26
255.567	16.82
255.782	18.61
255.998	16.2
256.214	16.86
256.43	16.85
256.646	14.79
256.861	12.32
257.077	12.29
257.293	10.71
257.508	10.98
257.724	12.66
257.94	12.42
258.155	12.01
258.371	11.32
258.587	10.41
258.802	10.15
259.018	9.64
259.234	9.64
259.449	9.68
259.665	9.57
259.88	9.57
260.096	9.6
260.312	9.02
260.527	9.05
260.743	9.19
260.958	8.59
261.174	8.48
261.389	8.94
261.605	8.9
261.82	8.44
262.036	8.16
262.251	8.1
262.466	7.44
262.682	8.05
262.897	7.72
263.113	8.34
263.328	9
263.543	9.09
263.759	10.31
263.974	11.36
264.189	11.81
264.405	11.09
264.62	10.12
264.835	11.05
265.051	10.59
265.266	8.9
265.481	8.52
265.696	9.13
265.912	9.07
266.127	8.75
266.342	8.68
266.557	9.71
266.773	10.62
266.988	11.32
267.203	10.59
267.418	9.88
267.633	10.92
267.848	10.57
268.064	10.05
268.279	11.09
268.494	10.75
268.709	10.33
268.924	10.01
269.139	9.98
269.354	9.73
269.569	8.67
269.784	9.88
269.999	9.15
270.214	10.14
270.429	10.63
270.644	11.03
270.859	10.88
271.074	11.17
271.289	11.02
271.504	11.27
271.719	11.05
271.934	11.56
272.149	10.04
272.363	10.69
272.578	10.39
272.793	9.96
273.008	9.62
273.223	8.83
273.438	7.87
273.653	8.52
273.867	8.25
274.082	8.61
274.297	9.42
274.512	10.98
274.726	10.61
274.941	10.82
275.156	10.63
275.371	9.71
275.585	10.93
275.8	9.9
276.015	9.83
276.229	9.84
276.444	10.03
276.659	8.5
276.873	8.18
277.088	8.88
277.302	8.83
277.517	9.09
277.732	9.45
277.946	8.94
278.161	10.53
278.375	8.67
278.59	6.92
278.804	6.25
279.019	8.57
279.233	8.1
279.448	7.6
279.662	6.59
279.877	8.35
280.091	9.42
280.306	9.02
280.52	9.1
280.735	9.23
280.949	10.2
281.163	10.36
281.378	9.29
281.592	10.59
281.806	9.29
282.021	9.33
282.235	7.78
282.449	6.8
282.664	6.84
282.878	6.92
283.092	8.41
283.307	10.08
283.521	9.78
283.735	10.34
283.949	9.27
284.164	10.33
284.378	10.92
284.592	11.64
284.806	11.44
285.02	12.51
285.234	13.58
285.449	12.67
285.663	12.3
285.877	12.29
286.091	12.68
286.305	13.31
286.519	13.47
286.733	13.56
286.947	13
287.161	13.32
287.375	12.26
287.589	11.55
287.803	11.34
288.017	9.73
288.231	9.69
288.445	9.33
288.659	8.84
288.873	9.02
289.087	9.58
289.301	11.38
289.515	11.03
289.729	10.86
289.943	10.91
290.157	11.73
290.371	12.22
290.584	12.88
290.798	12.53
291.012	12.9
291.226	12.92
291.44	12.22
291.654	10.59
291.867	11.22
292.081	11.69
292.295	10.6
292.509	9.96
292.722	10.29
292.936	9.73
293.15	9.15
293.364	8.1
293.577	7.85
293.791	8.61
294.005	10.11
294.218	10.19
294.432	11.51
294.645	12.62
294.859	12.58
295.073	12.39
295.286	12.89
295.5	13.36
295.713	14.62
295.927	14.19
296.14	14
296.354	13.53
296.568	13.34
296.781	12.34
296.994	12.18
297.208	12.58
297.421	12.62
297.635	12.11
297.848	11.96
298.062	11.33
298.275	11.55
298.489	10.76
298.702	11.19
298.915	11.1
299.129	10.68
299.342	10.08
299.555	10.14
299.769	10.51
299.982	10.91
300.195	11.32
300.409	11.51
300.622	11.87
300.835	13.04
301.048	12.72
301.262	13.46
301.475	13.98
301.688	14.69
301.901	14.63
302.115	14.76
302.328	14.58
302.541	14.02
302.754	13.43
302.967	14
303.18	14.22
303.393	13.8
303.607	12.73
303.82	13.83
304.033	13.77
304.246	13.46
304.459	13.39
304.672	13.81
304.885	14.41
305.098	14.43
305.311	14.38
305.524	14.84
305.737	14.32
305.95	14.83
306.163	13.6
306.376	14.41
306.589	15.16
306.802	14.05
307.015	14.75
307.228	14.48
307.44	15.06
307.653	13.92
307.866	12.2
308.079	12.7
308.292	12.64
308.505	12.87
308.718	13.35
308.93	14.17
309.143	14.68
309.356	13.77
309.569	13.7
309.781	14.29
309.994	15.66
310.207	15.78
310.42	15.58
310.632	15.51
310.845	15.56
311.058	15.19
311.27	14.31
311.483	14.92
311.696	14.95
311.908	15.12
312.121	14.9
312.333	13.74
312.546	13.57
312.759	14.01
312.971	14.41
313.184	14.49
313.396	14.45
313.609	14.29
313.821	13.74
314.034	14.42
314.246	14.98
314.459	14.99
314.671	15.28
314.884	15.3
315.096	15.42
315.309	14.92
315.521	14.75
315.733	13.18
315.946	13.18
316.158	13.99
316.371	13.13
316.583	12.11
316.795	11.48
317.008	11.5
317.22	10.82
317.432	10.09
317.644	11.74
317.857	11.09
318.069	12.8
318.281	12.71
318.494	12.68
318.706	12.9
318.918	13.11
319.13	12.94
319.342	12.48
319.555	12.54
319.767	13.09
319.979	11.54
320.191	11.98
320.403	11.66
320.615	13.17
320.827	12.18
321.039	12.34
321.252	13.95
321.464	15.32
321.676	15.57
321.888	16.4
322.1	16.31
322.312	15.26
322.524	15.23
322.736	15.5
322.948	14.15
323.16	15.02
323.372	14.91
323.584	13.91
323.796	13.36
324.007	13.67
324.219	13.67
324.431	13.55
324.643	14.1
324.855	14.52
325.067	13.69
325.279	14.86
325.491	14.27
325.702	14.16
325.914	13.51
326.126	13.11
326.338	13.12
326.55	13.03
326.761	12.01
326.973	12.02
327.185	12.17
327.396	12.3
327.608	11.09
327.82	11.4
328.032	11.85
328.243	13.08
328.455	13.49
328.666	13.16
328.878	14.52
329.09	15.37
329.301	16.84
329.513	14.96
329.725	16.19
329.936	16.54
330.148	17.25
330.359	15.97
330.571	15.49
330.782	14.59
330.994	13.58
331.205	13.08
331.417	13.42
331.628	12.39
331.84	13.22
332.051	11.83
332.262	13.4
332.474	12.68
332.685	14.75
332.897	13.64
333.108	15
333.319	15.39
333.531	13.54
333.742	14.31
333.953	14.37
334.165	15.61
334.376	15.39
334.587	13.03
334.799	13.84
335.01	12.24
335.221	12.55
335.432	11.32
335.644	11.79
335.855	12.24
336.066	11.84
336.277	11.74
336.488	11.05
336.7	12.07
336.911	12.24
337.122	11.61
337.333	12.17
337.544	12.77
337.755	12.89
337.966	12.88
338.177	14.13
338.388	13.18
338.599	14.11
338.811	14.41
339.022	13.58
339.233	14.28
339.444	14.18
339.655	13.7
339.866	12.61
340.076	13.01
340.287	13.38
340.498	12.52
340.709	12.84
340.92	11.87
341.131	11.68
341.342	12.7
341.553	12.21
341.764	12.46
341.975	12.13
342.185	13.53
342.396	13.23
342.607	13.49
342.818	14.13
343.029	13.69
343.239	14.78
343.45	14.95
343.661	14.76
343.872	14.9
344.082	15.76
344.293	15.92
344.504	15.82
344.714	16.58
344.925	15.83
345.136	15.93
345.346	17.17
345.557	16.84
345.768	17.48
345.978	16.83
346.189	17
346.399	15.56
346.61	15.81
346.821	15
347.031	14.61
347.242	15.52
347.452	14.45
347.663	13.54
347.873	12.96
348.084	12.69
348.294	13.91
348.504	14.07
348.715	13.39
348.925	13.41
349.136	14.13
349.346	13.43
349.557	12.23
349.767	12.19
349.977	12.39
350.188	11.87
350.398	11.03
350.608	10.79
350.819	10.32
351.029	11.22
351.239	10.88
351.449	10.06
351.66	9.97
351.87	11.11
352.08	12.48
352.29	12.08
352.501	12.8
352.711	13.12
352.921	11.44
353.131	11.84
353.341	12.21
353.552	12.92
353.762	12.87
353.972	13.23
354.182	13.07
354.392	12.16
354.602	12.24
354.812	11.83
355.022	11.83
355.232	12.83
355.442	12.42
355.652	12.49
355.862	12.44
356.072	12.89
356.282	12.8
356.492	12.06
356.702	12.3
356.912	11.94
357.122	11.94
357.332	12.5
357.542	12.65
357.752	12.48
357.962	12
358.171	11.2
358.381	11.74
358.591	12.5
358.801	12.51
359.011	12.83
359.221	13.51
359.43	13.32
359.64	12.51
359.85	12.22
360.06	12.51
360.269	13.06
360.479	13.56
360.689	13.01
360.899	12.56
361.108	12.93
361.318	12.46
361.528	12.02
361.737	12.16
361.947	12.31
362.156	12.27
362.366	12.67
362.576	12.41
362.785	11.97
362.995	11.95
363.204	11.61
363.414	11.16
363.623	11.19
363.833	10.84
364.042	10.8
364.252	10.31
364.461	10.24
364.671	9.92
364.88	9.37
365.09	10.35
365.299	10.72
365.509	10.74
365.718	11.45
365.927	11.27
366.137	11.31
366.346	11.15
366.555	11.24
366.765	10.85
366.974	10.89
367.183	10.47
367.393	9.98
367.602	9.49
367.811	9.64
368.021	9.07
368.23	9.25
368.439	9.64
368.648	9.79
368.857	9.97
369.067	10.01
369.276	10.19
369.485	11
369.694	10.3
369.903	10.17
370.112	10.25
370.321	10.81
370.531	10.77
370.74	10.78
370.949	11
371.158	11.15
371.367	11.36
371.576	10.95
371.785	10.6
371.994	11.15
372.203	11.46
372.412	11.18
372.621	10.86
372.83	10.5
373.039	10.84
373.248	10.34
373.457	10.01
373.666	10.16
373.874	10.07
374.083	10.3
374.292	9.98
374.501	9.58
374.71	9.28
374.919	9.39
375.128	10.1
375.336	9.59
375.545	9.56
375.754	9.42
375.963	9.2
376.171	8.99
376.38	8.92
376.589	9.22
376.798	9.43
377.006	10.01
377.215	10.13
377.424	9.07
377.632	8.89
377.841	9.08
378.05	9.16
378.258	9.18
378.467	9.42
378.675	9.91
378.884	10.05
379.093	10.29
379.301	9.78
379.51	9.36
379.718	9.7
379.927	10.09
380.135	9.75
380.344	9.64
380.552	10.19
380.761	10.87
380.969	10.93
381.177	10.38
381.386	9.7
381.594	9.96
381.803	9.86
382.011	10.48
382.219	10.63
382.428	11.53
382.636	12.18
382.845	11.74
383.053	10.92
383.261	10.68
383.469	10.92
383.678	11.18
383.886	10.91
384.094	10.91
384.302	10.36
384.511	9.93
384.719	9.12
384.927	8.46
385.135	8.58
385.343	8.34
385.552	8.12
385.76	7.89
385.968	7.99
386.176	8.37
386.384	8.19
386.592	7.85
386.8	7.79
387.008	8.14
387.216	8.35
387.424	7.81
387.633	7.97
387.841	8.19
388.049	8.66
388.257	8.45
388.465	8.53
388.672	8.68
388.88	8.96
389.088	8.77
389.296	8.32
389.504	8.12
389.712	8.33
389.92	8.56
390.128	8.2
390.336	7.5
390.544	7.7
390.751	7.3
390.959	7.31
391.167	7.36
391.375	7.63
391.583	7.77
391.79	7.63
391.998	7.57
392.206	7.13
392.414	7.06
392.621	7.34
392.829	6.97
393.037	6.68
393.244	6.62
393.452	6.73
393.66	6.68
393.867	6.73
394.075	6.77
394.283	6.49
394.49	6.81
394.698	6.93
394.905	6.99
395.113	7.02
395.32	7.15
395.528	7.18
395.735	7.13
395.943	6.81
396.15	6.93
396.358	6.85
396.565	6.89
396.773	6.98
396.98	6.7
397.188	6.57
397.395	6.68
397.602	6.75
397.81	6.52
398.017	6.43
398.225	6.82
398.432	6.7
398.639	6.83
398.847	6.91
399.054	7.01
399.261	6.98
399.468	6.9
399.676	6.88
399.883	6.98
400.09	7.24
400.297	7.13
400.505	7.07
400.712	6.94
400.919	7.08
401.126	7.15
401.333	6.82
401.54	7.04
401.748	6.95
401.955	6.92
402.162	6.79
402.369	6.88
402.576	6.91
402.783	6.72
402.99	6.86
403.197	6.35
403.404	6.33
403.611	6.21
403.818	6.32
404.025	6.37
404.232	6.31
404.439	6.27
404.646	6.13
404.853	5.97
405.06	5.73
405.267	5.5
405.474	5.7
405.681	5.76
405.887	5.76
406.094	5.5
406.301	5.41
406.508	5.34
406.715	5.6
406.922	5.5
407.128	5.9
407.335	6.26
407.542	6.18
407.749	6.26
407.955	6.3
408.162	6.27
408.369	6.24
408.575	6.13
408.782	5.91
408.989	5.52
409.195	5.26
409.402	5.14
409.609	5.35
409.815	5.59
410.022	5.7
410.228	5.31
410.435	5.24
410.642	5.55
410.848	5.64
411.055	6.01
411.261	6.22
411.468	6.46
411.674	6.51
411.881	6.39
412.087	6.44
412.294	6.37
412.5	6.55
412.706	6.6
412.913	6.41
413.119	6.46
413.326	6.17
413.532	6.26
413.738	6.27
413.945	6.12
414.151	5.79
414.357	5.74
414.564	5.7
414.77	5.79
414.976	5.66
415.182	5.54
415.389	5.39
415.595	5.63
415.801	5.59
416.007	5.66
416.214	5.61
416.42	5.7
416.626	5.62
416.832	5.71
417.038	5.75
417.244	5.85
417.45	5.87
417.657	6.12
417.863	6.06
418.069	6.11
418.275	6.07
418.481	6.11
418.687	6.27
418.893	6.17
419.099	5.98
419.305	6.03
419.511	5.9
419.717	5.96
419.923	5.8
420.129	5.75
420.335	5.65
420.541	5.61
420.746	5.48
420.952	5.32
421.158	5.22
421.364	5.28
421.57	5.12
421.776	5.25
421.982	5.18
422.187	5.24
422.393	5.13
422.599	5.12
422.805	5.13
423.01	5.18
423.216	5.15
423.422	5.21
423.628	5.29
423.833	5.4
424.039	5.42
424.245	5.44
424.45	5.33
424.656	5.44
424.862	5.56
425.067	5.55
425.273	5.57
425.478	5.57
425.684	5.6
425.889	5.44
426.095	5.35
426.301	5.21
426.506	5.02
426.712	5
426.917	5
427.123	4.77
427.328	4.9
427.533	4.97
427.739	5.04
427.944	5.18
428.15	5.43
428.355	5.62
428.561	5.58
428.766	5.87
428.971	6.08
429.177	6.03
429.382	6.34
429.587	6.12
429.793	6.05
429.998	6.28
430.203	6.15
430.408	6.1
430.614	5.93
430.819	6.09
431.024	6.05
431.229	6
431.434	5.97
431.64	5.65
431.845	5.36
432.05	5.28
432.255	5.09
432.46	4.9
432.665	4.69
432.87	4.79
433.076	4.86
433.281	4.84
433.486	4.95
433.691	5.04
433.896	5.06
434.101	5.36
434.306	5.57
434.511	5.52
434.716	5.75
434.921	5.95
435.126	5.93
435.331	5.76
435.535	5.67
435.74	5.61
435.945	5.56
436.15	5.63
436.355	5.57
436.56	5.47
436.765	5.66
436.97	5.65
437.174	5.54
437.379	5.58
437.584	5.68
437.789	5.78
437.993	5.9
438.198	5.83
438.403	5.73
438.608	5.73
438.812	5.62
439.017	5.45
439.222	5.27
439.426	5.22
439.631	5.1
439.836	5.01
440.04	4.96
440.245	4.7
440.45	4.76
440.654	4.81
440.859	4.93
441.063	4.97
441.268	5.01
441.472	5.21
441.677	5.29
441.881	5.34
442.086	5.34
442.29	5.4
442.495	5.51
442.699	5.49
442.904	5.59
443.108	5.57
443.312	5.32
443.517	5.19
443.721	5.14
443.925	5.04
444.13	5.02
444.334	5.17
444.538	5.06
444.743	5.04
444.947	4.94
445.151	4.83
445.356	4.86
445.56	5.14
445.764	5.17
445.968	5.09
446.173	5.03
446.377	5
446.581	4.92
446.785	4.97
446.989	5.07
447.193	5.12
447.398	5.2
447.602	5.04
447.806	4.96
448.01	5.03
448.214	5.05
448.418	5.26
448.622	5.28
448.826	5.3
449.03	5.38
449.234	5.27
449.438	5.26
449.642	5.19
449.846	5.27
450.05	5.22
450.254	5.2
450.458	5.24
450.662	5.02
450.866	5.17
451.069	5.24
451.273	4.99
451.477	4.85
451.681	4.79
451.885	4.7
452.089	4.78
452.292	4.96
452.496	4.82
452.7	4.8
452.904	5.03
453.107	5.05
453.311	5.07
453.515	5.26
453.719	5.26
453.922	5.37
454.126	5.45
454.33	5.24
454.533	5.17
454.737	5.34
454.94	5.51
455.144	5.37
455.348	5.19
455.551	5.19
455.755	5.08
455.958	5.24
456.162	5.25
456.365	5.22
456.569	5.4
456.772	5.27
456.976	5.27
457.179	5.2
457.383	5.15
457.586	5.12
457.79	5.23
457.993	5.21
458.196	5.25
458.4	5.27
458.603	5.31
458.807	5.25
459.01	5.28
459.213	5.13
459.417	4.97
459.62	4.95
459.823	5.03
460.026	4.94
460.23	4.99
460.433	5.02
460.636	5.04
460.839	5.05
461.042	5.18
461.246	5.15
461.449	5.23
461.652	5.31
461.855	5.33
462.058	5.31
462.261	5.21
462.464	5.29
462.668	5.26
462.871	5.36
463.074	5.35
463.277	5.25
463.48	5.16
463.683	5.29
463.886	5.48
464.089	5.49
464.292	5.57
464.495	5.59
464.698	5.67
464.901	5.58
465.104	5.31
465.306	5.26
465.509	5.16
465.712	5.22
465.915	5.13
466.118	4.94
466.321	5.04
466.524	5.04
466.726	5.02
466.929	4.85
467.132	5.07
467.335	5.22
467.538	5.24
467.74	5.22
467.943	5.19
468.146	5.2
468.348	5.09
468.551	5.13
468.754	5.08
468.956	5.2
469.159	5.18
469.362	5.01
469.564	5.04
469.767	5.28
469.969	5.31
470.172	5.55
470.375	5.48
470.577	5.72
470.78	5.78
470.982	5.84
471.185	5.8
471.387	6.07
471.59	6.25
471.792	6.14
471.995	5.83
472.197	5.82
472.399	5.85
472.602	5.93
472.804	5.84
473.007	5.77
473.209	5.79
473.411	5.86
473.614	5.63
473.816	5.46
474.018	5.4
474.22	5.54
474.423	5.46
474.625	5.31
474.827	5.25
475.03	5.44
475.232	5.36
475.434	5.32
475.636	5.24
475.838	5.1
476.04	5.07
476.243	5.12
476.445	5.11
476.647	5.24
476.849	5.25
477.051	5.33
477.253	5.25
477.455	5.18
477.657	4.99
477.859	5.09
478.061	5.15
478.263	5.25
478.465	5.2
478.667	5.14
478.869	5.1
479.071	4.95
479.273	4.85
479.475	4.74
479.677	4.94
479.879	4.93
480.081	4.8
480.283	4.78
480.485	4.69
480.686	4.67
480.888	4.61
481.09	4.54
481.292	4.58
481.494	4.69
481.695	4.68
481.897	4.57
482.099	4.69
482.301	4.68
482.502	4.75
482.704	4.73
482.906	4.76
483.107	4.78
483.309	4.73
483.511	4.74
483.712	4.66
483.914	4.67
484.115	4.7
484.317	4.72
484.519	4.7
484.72	4.72
484.922	4.74
485.123	4.7
485.325	4.72
485.526	4.79
485.728	4.84
485.929	4.92
486.131	4.92
486.332	4.89
486.534	4.88
486.735	4.88
486.936	4.81
487.138	4.77
487.339	4.84
487.541	4.81
487.742	4.75
487.943	4.69
488.144	4.64
488.346	4.61
488.547	4.57
488.748	4.55
488.95	4.57
489.151	4.63
489.352	4.65
489.553	4.65
489.755	4.68
489.956	4.76
490.157	4.88
490.358	4.88
490.559	4.88
490.76	4.87
490.961	4.73
491.163	4.76
491.364	4.71
491.565	4.71
491.766	4.7
491.967	4.73
492.168	4.73
492.369	4.66
492.57	4.7
492.771	4.68
492.972	4.71
493.173	4.81
493.374	4.85
493.575	4.81
493.776	4.71
493.976	4.69
494.177	4.6
494.378	4.6
494.579	4.65
494.78	4.7
494.981	4.87
495.182	4.91
495.382	5.02
495.583	5.02
495.784	5.18
495.985	5.39
496.185	5.47
496.386	5.41
496.587	5.29
496.788	5.23
496.988	5.15
497.189	5.12
497.39	5.13
497.59	5.19
497.791	5.16
497.992	5.07
498.192	5.16
498.393	5.08
498.593	5.11
498.794	5.19
498.994	5.1
499.195	5.27
499.395	5.29
499.596	5.31
499.796	5.23
499.997	5.18
500.197	5.3
500.398	5.28
500.598	5.49
500.799	5.65
500.999	5.73
501.199	5.78
501.4	5.85
501.6	5.96
501.801	6.06
502.001	6.03
502.201	6.09
502.402	6.12
502.602	6.06
502.802	5.94
503.002	5.89
503.203	5.79
503.403	5.9
503.603	5.65
503.803	5.62
504.003	5.51
504.204	5.57
504.404	5.79
504.604	5.82
504.804	5.71
505.004	5.6
505.204	5.6
505.404	5.62
505.604	5.56
505.804	5.68
506.005	5.6
506.205	5.51
506.405	5.6
506.605	5.49
506.805	5.47
507.005	5.38
507.204	5.44
507.404	5.32
507.604	5.38
507.804	5.42
508.004	5.46
508.204	5.32
508.404	5.34
508.604	5.22
508.804	5.14
509.003	5.09
509.203	5.17
509.403	5.27
509.603	5.3
509.803	5.28
510.002	5.19
510.202	5.23
510.402	5.32
510.602	5.48
510.801	5.54
511.001	5.64
511.201	5.57
511.4	5.67
511.6	5.7
511.8	5.67
511.999	5.84
512.199	5.94
512.398	5.89
512.598	5.92
512.797	5.89
512.997	6.01
513.197	5.83
513.396	5.86
513.596	5.81
513.795	5.68
513.994	5.75
514.194	5.59
514.393	5.58
514.593	5.59
514.792	5.68
514.992	5.69
515.191	5.56
515.39	5.55
515.59	5.68
515.789	5.77
515.988	5.69
516.188	5.71
516.387	5.74
516.586	5.77
516.786	5.76
516.985	5.76
517.184	5.76
517.383	5.77
517.582	5.76
517.782	5.85
517.981	5.75
518.18	5.79
518.379	5.95
518.578	6.02
518.777	6.09
518.976	6.04
519.176	5.98
519.375	5.86
519.574	5.91
519.773	5.98
519.972	5.82
520.171	5.79
520.37	5.81
520.569	5.74
520.768	5.77
520.967	5.62
521.166	5.61
521.365	5.73
521.564	6.01
521.762	5.96
521.961	6.04
522.16	6.12
522.359	6.19
522.558	6.23
522.757	6.22
522.956	6.17
523.154	6.26
523.353	6.35
523.552	6.29
523.751	6.15
523.949	6.27
524.148	6.24
524.347	6.32
524.546	6.37
524.744	6.3
524.943	6.26
525.142	6.29
525.34	6.23
525.539	6.31
525.737	6.25
525.936	6.19
526.135	6.12
526.333	6.08
526.532	6.01
526.73	5.95
526.929	5.93
527.127	5.94
527.326	5.86
527.524	5.93
527.723	5.92
527.921	5.94
528.12	6.02
528.318	6.02
528.516	6.04
528.715	6.02
528.913	6.03
529.112	6.08
529.31	6.1
529.508	6.13
529.707	6.15
529.905	6.16
530.103	6.19
530.301	6.16
530.5	6.19
530.698	6.19
530.896	6.27
531.094	6.37
531.293	6.39
531.491	6.42
531.689	6.52
531.887	6.43
532.085	6.37
532.283	6.41
532.481	6.49
532.68	6.53
532.878	6.53
533.076	6.55
533.274	6.49
533.472	6.58
533.67	6.52
533.868	6.46
534.066	6.58
534.264	6.62
534.462	6.62
534.66	6.66
534.858	6.71
535.056	6.72
535.253	6.71
535.451	6.78
535.649	6.76
535.847	6.82
536.045	6.87
536.243	6.75
536.441	6.79
536.638	6.8
536.836	6.75
537.034	6.74
537.232	6.81
537.43	6.79
537.627	6.84
537.825	6.75
538.023	6.74
538.22	6.73
538.418	6.84
538.616	6.79
538.813	6.79
539.011	6.85
539.209	6.81
539.406	6.87
539.604	6.92
539.801	6.98
539.999	7.04
540.196	7.21
540.394	7.19
540.591	7.38
540.789	7.54
540.986	7.49
541.184	7.45
541.381	7.56
541.579	7.57
541.776	7.62
541.974	7.61
542.171	7.74
542.368	7.69
542.566	7.81
542.763	7.73
542.96	7.72
543.158	7.85
543.355	7.94
543.552	7.97
543.75	8.11
543.947	8.18
544.144	8.36
544.341	8.32
544.539	8.49
544.736	8.54
544.933	8.56
545.13	8.6
545.327	8.61
545.524	8.67
545.722	8.73
545.919	8.72
546.116	8.76
546.313	8.57
546.51	8.61
546.707	8.58
546.904	8.54
547.101	8.61
547.298	8.6
547.495	8.71
547.692	8.84
547.889	8.78
548.086	8.82
548.283	8.95
548.48	9.23
548.677	9.28
548.874	9.26
549.07	9.42
549.267	9.59
549.464	9.73
549.661	9.76
549.858	9.71
550.055	9.81
550.251	9.96
550.448	9.72
550.645	9.81
550.842	9.72
551.038	9.7
551.235	9.59
551.432	9.44
551.628	9.45
551.825	9.55
552.022	9.63
552.218	9.51
552.415	9.43
552.612	9.69
552.808	9.59
553.005	9.67
553.201	10.07
553.398	10.26
553.594	10.48
553.791	10.57
553.987	10.62
554.184	10.7
554.38	10.92
554.577	10.98
554.773	11.03
554.97	11.05
555.166	11.1
555.362	10.86
555.559	10.82
555.755	10.77
555.952	10.69
556.148	10.59
556.344	10.62
556.541	10.75
556.737	10.82
556.933	10.93
557.129	11.04
557.326	11.25
557.522	11.34
557.718	11.42
557.914	11.45
558.11	11.5
558.307	11.92
558.503	11.8
558.699	11.6
558.895	11.42
559.091	11.45
559.287	11.53
559.483	11.47
559.679	11.46
559.876	11.39
560.072	11.43
560.268	11.38
560.464	11.11
560.66	11.18
560.856	11.33
561.052	11.37
561.247	11.26
561.443	11.24
561.639	11.54
561.835	11.59
562.031	11.83
562.227	11.87
562.423	12.04
562.619	12.03
562.815	12.21
563.01	12.3
563.206	12.59
563.402	12.72
563.598	12.67
563.793	12.4
563.989	12.44
564.185	12.31
564.381	12.29
564.576	12.36
564.772	12.54
564.968	12.41
565.163	12.36
565.359	12.28
565.555	12.31
565.75	12.34
565.946	12.53
566.141	12.74
566.337	12.99
566.532	12.96
566.728	12.86
566.923	12.75
567.119	12.94
567.314	13.01
567.51	13.12
567.705	13.28
567.901	13.57
568.096	13.68
568.292	13.63
568.487	13.73
568.682	13.96
568.878	14.19
569.073	14.43
569.268	14.46
569.464	14.42
569.659	14.33
569.854	14.22
570.05	14.19
570.245	14.1
570.44	13.88
570.635	13.59
570.831	13.59
571.026	13.58
571.221	13.5
571.416	13.4
571.611	13.56
571.806	13.58
572.002	13.49
572.197	13.51
572.392	13.63
572.587	13.71
572.782	13.83
572.977	13.77
573.172	13.75
573.367	13.6
573.562	13.78
573.757	13.75
573.952	13.89
574.147	13.98
574.342	13.78
574.537	13.53
574.732	13.46
574.927	13.44
575.121	13.42
575.316	13.34
575.511	13.55
575.706	13.39
575.901	13.44
576.096	13.35
576.29	13.45
576.485	13.55
576.68	13.86
576.875	14.23
577.069	14.37
577.264	14.34
577.459	14.38
577.654	14.31
577.848	14.42
578.043	14.26
578.238	14.46
578.432	14.32
578.627	14.33
578.821	14.1
579.016	13.92
579.21	13.84
579.405	14.16
579.6	14.21
579.794	14.37
579.989	14.34
580.183	14.4
580.378	14.24
580.572	14.22
580.766	14.17
580.961	14.22
581.155	14.12
581.35	14.08
581.544	14.15
581.738	14.23
581.933	14.3
582.127	14.29
582.321	14.22
582.516	14.28
582.71	14.3
582.904	14.51
583.099	14.57
583.293	14.8
583.487	14.97
583.681	14.79
583.875	14.84
584.07	14.77
584.264	14.59
584.458	14.41
584.652	14.41
584.846	14.63
585.04	14.79
585.234	14.73
585.428	14.56
585.623	14.5
585.817	14.77
586.011	14.69
586.205	14.65
586.399	14.85
586.593	15.26
586.787	15.35
586.981	15.46
587.174	15.3
587.368	15.34
587.562	15.46
587.756	15.58
587.95	15.45
588.144	15.4
588.338	15.42
588.532	15.6
588.725	15.62
588.919	15.42
589.113	15.43
589.307	15.22
589.501	15.5
589.694	15.58
589.888	15.44
590.082	15.25
590.275	15.41
590.469	15.63
590.663	15.65
590.856	15.4
591.05	15.61
591.244	15.4
591.437	15.52
591.631	15.3
591.824	15.36
592.018	15.2
592.212	15.24
592.405	15.4
592.599	15.23
592.792	15.06
592.986	15.31
593.179	15.47
593.372	15.46
593.566	15.71
593.759	15.59
593.953	15.59
594.146	15.83
594.339	15.75
594.533	15.62
594.726	15.5
594.92	15.61
595.113	15.59
595.306	15.29
595.499	15.48
595.693	15.52
595.886	15.65
596.079	15.53
596.272	15.47
596.466	15.71
596.659	15.61
596.852	15.61
597.045	15.5
597.238	15.73
597.431	15.79
597.624	15.93
597.818	15.67
598.011	15.7
598.204	15.84
598.397	15.75
598.59	15.5
598.783	15.55
598.976	15.67
599.169	15.69
599.362	15.55
599.555	15.63
599.748	15.36
599.941	15.84
600.134	15.95
600.326	15.79
600.519	15.79
600.712	15.99
600.905	16.03
601.098	16.02
601.291	15.92
601.483	16
601.676	16.13
601.869	16.33
602.062	15.81
602.255	15.74
602.447	15.87
602.64	16.07
602.833	16.32
603.025	16.46
603.218	16.35
603.411	16.48
603.603	16.38
603.796	16.31
603.989	16.37
604.181	16.53
604.374	16.51
604.566	16.44
604.759	16.26
604.951	16.14
605.144	16.17
605.336	16.35
605.529	16.36
605.721	16.23
605.914	16.21
606.106	16
606.299	16.05
606.491	16.04
606.683	16.13
606.876	16.16
607.068	16.24
607.26	16.21
607.453	16.24
607.645	16.31
607.837	16.47
608.03	16.41
608.222	16.19
608.414	16.23
608.606	16.14
608.799	16
608.991	16.05
609.183	16.01
609.375	15.79
609.567	15.77
609.759	15.79
609.952	15.75
610.144	15.9
610.336	15.98
610.528	15.83
610.72	15.91
610.912	16.07
611.104	16.21
611.296	16.01
611.488	16.2
611.68	16.18
611.872	16.28
612.064	16.39
612.256	16.54
612.448	16.87
612.64	16.66
612.832	16.5
613.023	16.37
613.215	16.22
613.407	16.36
613.599	16.41
613.791	16.54
613.983	16.44
614.174	16.11
614.366	16.23
614.558	16.05
614.75	16.56
614.941	16.75
615.133	16.7
615.325	16.88
615.516	16.8
615.708	16.44
615.9	16.45
616.091	16.43
616.283	16.86
616.475	16.52
616.666	16.39
616.858	16.3
617.049	16.48
617.241	16.45
617.432	16.51
617.624	16.29
617.815	16.62
618.007	16.34
618.198	16.28
618.39	16.13
618.581	16.25
618.773	16.22
618.964	16.03
619.155	15.87
619.347	15.83
619.538	15.69
619.729	15.94
619.921	15.56
620.112	15.79
620.303	15.81
620.494	15.66
620.686	15.79
620.877	16.08
621.068	16.44
621.259	16.46
621.451	16.99
621.642	17.11
621.833	17.12
622.024	17.54
622.215	16.98
622.406	16.91
622.597	17.21
622.788	16.94
622.98	16.95
623.171	16.91
623.362	16.88
623.553	16.7
623.744	16.66
623.935	16.97
624.126	16.92
624.317	17.36
624.508	17.51
624.698	17.47
624.889	17.34
625.08	17.22
625.271	17.09
625.462	16.9
625.653	16.82
625.844	16.87
626.034	16.61
626.225	16.94
626.416	16.84
626.607	16.48
626.798	16.33
626.988	16.54
627.179	16.56
627.37	16.44
627.56	16.58
627.751	16.55
627.942	16.52
628.132	16.51
628.323	16.13
628.514	16.03
628.704	16.4
628.895	16.4
629.085	16.21
629.276	16.17
629.466	16.25
629.657	16.36
629.847	16.2
630.038	16.01
630.228	16.14
630.419	16.02
630.609	16.31
630.8	16.17
630.99	16.43
631.181	16.32
631.371	16.53
631.561	16.67
631.752	16.57
631.942	16.66
632.132	16.67
632.323	16.8
632.513	16.95
632.703	16.75
632.893	16.68
633.084	16.54
633.274	16.7
633.464	16.33
633.654	16.32
633.844	16.3
634.034	16.2
634.225	16.31
634.415	16.03
634.605	16.05
634.795	16.26
634.985	16.18
635.175	16.21
635.365	16.4
635.555	16.79
635.745	16.86
635.935	16.77
636.125	17.24
636.315	17.37
636.505	17.44
636.695	17.55
636.885	17.45
637.075	17.58
637.265	17.68
637.455	17.52
637.644	17.24
637.834	16.99
638.024	17.18
638.214	17.05
638.404	16.99
638.593	17.33
638.783	17.23
638.973	17.52
639.163	17.56
639.352	17.28
639.542	17.6
639.732	17.67
639.921	17.92
640.111	17.86
640.301	17.92
640.49	18.23
640.68	17.95
640.87	17.63
641.059	17.28
641.249	17.18
641.438	17.5
641.628	17.25
641.817	17.24
642.007	17.61
642.196	17.8
642.386	17.64
642.575	17.84
642.764	18.25
642.954	18.69
643.143	18.8
643.333	19.12
643.522	19.1
643.711	19.14
643.901	19.31
644.09	18.74
644.279	18.72
644.469	18.58
644.658	17.94
644.847	17.59
645.036	17.67
645.226	17.6
645.415	17.56
645.604	17.61
645.793	17.51
645.982	17.81
646.171	17.91
646.361	18.08
646.55	18.42
646.739	18.76
646.928	19.04
647.117	18.91
647.306	18.77
647.495	18.91
647.684	18.66
647.873	18.58
648.062	17.65
648.251	17.51
648.44	17.66
648.629	17.46
648.818	17.32
649.007	17.04
649.196	17.23
649.384	17.57
649.573	17.42
649.762	17.67
649.951	17.6
650.14	18.23
650.328	18.24
650.517	18
650.706	17.99
650.895	17.47
651.083	17.49
651.272	17.51
651.461	17.18
651.65	17.6
651.838	17.42
652.027	17.47
652.216	17.7
652.404	17.65
652.593	17.53
652.781	17.69
652.97	18.16
653.158	18.08
653.347	17.75
653.535	17.96
653.724	17.65
653.912	17.92
654.101	17.76
654.289	17.31
654.478	17.51
654.666	17.67
654.855	17.47
655.043	17.63
655.231	17.64
655.42	18.02
655.608	18.12
655.796	18.38
655.985	18.15
656.173	18.29
656.361	18.21
656.55	18.44
656.738	18.18
656.926	18.36
657.114	18.38
657.302	18.78
657.491	18.57
657.679	18.13
657.867	17.61
658.055	17.56
658.243	17.55
658.431	17.73
658.619	17.44
658.807	17.69
658.996	17.33
659.184	17.28
659.372	16.94
659.56	16.63
659.748	17.15
659.936	17.14
660.124	17.2
660.311	17.22
660.499	17.14
660.687	17.37
660.875	17.21
661.063	17.67
661.251	17.43
661.439	17.89
661.627	18.1
661.814	17.91
662.002	18.25
662.19	17.89
662.378	18.12
662.565	18.16
662.753	18.33
662.941	18.56
663.129	18.32
663.316	18.75
663.504	18.38
663.692	18.35
663.879	18.32
664.067	18.13
664.254	18.3
664.442	18.2
664.63	18.23
664.817	17.76
665.005	17.54
665.192	17.57
665.38	17.31
665.567	17.21
665.755	17.82
665.942	17.49
666.13	17.27
666.317	17.31
666.504	16.98
666.692	17.03
666.879	17.33
667.067	17.7
667.254	17.81
667.441	18.03
667.629	18.12
667.816	17.84
668.003	18.29
668.19	18.64
668.378	18.9
668.565	19.31
668.752	19.16
668.939	19.26
669.127	19.57
669.314	19.54
669.501	19.12
669.688	19.11
669.875	18.84
670.062	18.47
670.249	18.67
670.436	18.73
670.623	18.33
670.81	18.25
670.997	17.88
671.184	17.29
671.371	17.41
671.558	17.71
671.745	17.01
671.932	17.26
672.119	17.15
672.306	16.67
672.493	16.82
672.68	17.1
672.867	17.6
673.054	17.41
673.24	17.04
673.427	16.72
673.614	16.43
673.801	17.24
673.988	17.3
674.174	18.04
674.361	17.8
674.548	17.38
674.734	17.65
674.921	17.35
675.108	17.63
675.294	17.72
675.481	17.57
675.668	17.97
675.854	17.83
676.041	17.74
676.227	17.04
676.414	17.31
676.601	17.27
676.787	17.14
676.974	17.28
677.16	17.62
677.347	17.59
677.533	17.58
677.719	17.47
677.906	17.62
678.092	18.08
678.279	18.48
678.465	18.71
678.651	18.64
678.838	18.93
679.024	18.84
679.21	18.71
679.397	18.87
679.583	18.75
679.769	18.96
679.955	18.67
680.142	18.48
680.328	18.56
680.514	18.57
680.7	18.56
680.886	18.29
681.073	18.03
681.259	18.33
681.445	18.41
681.631	18.61
681.817	17.82
682.003	18.1
682.189	18.39
682.375	18.45
682.561	18.26
682.747	18.68
682.933	18.59
683.119	19.17
683.305	18.97
683.491	18.71
683.677	19.18
683.863	19.77
684.049	19.66
684.235	19.3
684.42	19.45
684.606	19.94
684.792	19.78
684.978	19.8
685.164	19.51
685.349	19.31
685.535	19.2
685.721	19.28
685.907	19.79
686.092	19.19
686.278	18.91
686.464	18.38
686.649	18.05
686.835	17.9
687.021	17.96
687.206	17.29
687.392	17.42
687.577	17.4
687.763	16.53
687.948	16.72
688.134	17.27
688.319	17.66
688.505	17.54
688.69	17.8
688.876	18.08
689.061	18.15
689.247	18.8
689.432	18.68
689.618	19.28
689.803	19.92
689.988	19.33
690.174	19.02
690.359	18.86
690.544	18.98
690.73	18.9
690.915	19.01
691.1	18.75
691.285	18.89
691.471	19.16
691.656	19.16
691.841	18.92
692.026	18.56
692.211	18.71
692.396	18.51
692.582	19.01
692.767	19.07
692.952	19.07
693.137	19.22
693.322	19.27
693.507	19.12
693.692	18.88
693.877	18.51
694.062	18.79
694.247	19.42
694.432	19.58
694.617	19.02
694.802	19.07
694.987	18.84
695.172	18.81
695.357	18.41
695.541	17.82
695.726	18.2
695.911	18.77
696.096	18.85
696.281	18.6
696.466	18.91
696.65	19.27
696.835	19.3
697.02	19.53
697.204	19.69
697.389	20.05
697.574	19.85
697.759	19.55
697.943	19.34
698.128	19.55
698.312	19.28
698.497	19.13
698.682	18.75
698.866	18.73
699.051	18.66
699.235	18.69
699.42	18.5
699.604	19.24
699.789	19.02
699.973	19.28
700.158	18.83
700.342	19.09
700.527	19.12
700.711	19.36
700.895	18.87
701.08	19.02
701.264	18.92
701.448	18.91
701.633	17.79
701.817	17.8
702.001	17.52
702.186	17.85
702.37	18.08
702.554	17.75
702.738	17.77
702.923	18.06
703.107	17.27
703.291	17.4
703.475	17.43
703.659	18.58
703.843	19.08
704.027	18.78
704.212	19.43
704.396	19.03
704.58	19.14
704.764	19.01
704.948	19.03
705.132	19.59
705.316	20.07
705.5	20.52
705.684	19.87
705.868	20.17
706.052	20.65
706.235	20.8
706.419	21.14
706.603	21.07
706.787	21.03
706.971	20.48
707.155	20.54
707.339	19.94
707.522	19.66
707.706	20.63
707.89	19.96
708.074	20.35
708.257	19.59
708.441	20.03
708.625	20.3
708.808	20.16
708.992	20.72
709.176	20.68
709.359	20.59
709.543	20.45
709.727	19.76
709.91	19.91
710.094	19.85
710.277	20
710.461	19.42
710.644	19.25
710.828	19.47
711.011	19.55
711.195	19.4
711.378	19.43
711.562	19.33
711.745	19.13
711.928	19.65
712.112	19.44
712.295	19.34
712.478	19.22
712.662	18.81
712.845	19.53
713.028	19.63
713.212	19.55
713.395	19.52
713.578	19.72
713.761	20.09
713.945	19.98
714.128	20.25
714.311	20.28
714.494	19.97
714.677	21.02
714.86	20.4
715.043	21.01
715.227	21.8
715.41	21.46
715.593	21.42
715.776	21.31
715.959	21.24
716.142	20.56
716.325	20.17
716.508	20.35
716.691	19.44
716.874	19.96
717.057	19.1
717.239	19.15
717.422	19.03
717.605	19.34
717.788	19.39
717.971	18.92
718.154	18.9
718.337	19.55
718.519	19.58
718.702	20.03
718.885	19.74
719.068	19.98
719.25	19
719.433	19.87
719.616	19.44
719.798	19.4
719.981	19.46
720.164	19.64
720.346	18.94
720.529	19.91
720.712	20.47
720.894	20.96
721.077	21.93
721.259	21.93
721.442	22.14
721.624	23.28
721.807	23.2
721.989	23.95
722.172	24.94
722.354	25.04
722.537	24.21
722.719	23.72
722.901	22.6
723.084	20.77
723.266	20.79
723.448	20.18
723.631	19.38
723.813	19.77
723.995	19.33
724.178	18.91
724.36	19.31
724.542	19.55
724.724	19.48
724.907	19.75
725.089	20.77
725.271	20.86
725.453	21.08
725.635	20.71
725.817	20.78
725.999	20.55
726.181	20.4
726.364	20.22
726.546	19.53
726.728	20.26
726.91	21.17
727.092	21.7
727.274	22.11
727.456	21.8
727.638	22.01
727.819	21.77
728.001	21.37
728.183	21.25
728.365	21.26
728.547	22.2
728.729	21.84
728.911	20.96
729.093	20.01
729.274	20.2
729.456	20.98
729.638	21.46
729.82	22.11
730.001	22.73
730.183	22.37
730.365	23.23
730.546	22.92
730.728	22.49
730.91	23.37
731.091	23.91
731.273	23.21
731.455	22.9
731.636	22.1
731.818	21.63
731.999	20.83
732.181	20.87
732.362	20.13
732.544	20.79
732.725	21.26
732.907	20.62
733.088	20.54
733.27	21.92
733.451	22.04
733.633	22.46
733.814	22.56
733.995	23.57
734.177	23.22
734.358	23.23
734.539	22.55
734.721	22.43
734.902	22.31
735.083	22.11
735.264	21.01
735.446	20.88
735.627	20.79
735.808	21.41
735.989	20.81
736.17	22.09
736.351	22.89
736.533	23.7
736.714	23.76
736.895	25.22
737.076	25.43
737.257	25.14
737.438	25.08
737.619	24.98
737.8	23.48
737.981	24.12
738.162	23.38
738.343	22.89
738.524	22.43
738.705	22.6
738.886	20.93
739.067	19.88
739.247	19.9
739.428	19.4
739.609	18.6
739.79	18.63
739.971	18.16
740.151	18.61
740.332	17.81
740.513	17.03
740.694	16.37
740.874	16.19
741.055	17.08
741.236	17.58
741.417	18.96
741.597	19.59
741.778	19.15
741.958	19.79
742.139	21.6
742.32	22.79
742.5	23.3
742.681	24.22
742.861	24.73
743.042	24.52
743.222	24.24
743.403	23.7
743.583	24.76
743.764	26.13
743.944	25.31
744.124	22.81
744.305	23.29
744.485	22.86
744.666	22.43
744.846	22.16
745.026	22.68
745.207	21.86
745.387	21.58
745.567	21.72
745.747	21.52
745.928	21.68
746.108	21.22
746.288	19.72
746.468	19.55
746.648	20.28
746.829	20.43
747.009	19.19
747.189	19.1
747.369	19.04
747.549	18.45
747.729	18.59
747.909	19.02
748.089	20.66
748.269	21.22
748.449	21.4
748.629	20.01
748.809	20.53
748.989	21.41
749.169	22.48
749.349	22.7
749.529	21.57
749.709	21.41
749.889	20.59
750.068	20.26
750.248	20.45
750.428	19.6
750.608	20.05
750.788	19.69
750.967	19.26
751.147	18.38
751.327	17.35
751.507	18.23
751.686	17.61
751.866	17.92
752.046	18.17
752.225	18.53
752.405	19.94
752.585	19.97
752.764	20.01
752.944	20.1
753.123	21.1
753.303	21.82
753.482	22.1
753.662	22.23
753.841	23.95
754.021	24.32
754.2	23.44
754.38	23.41
754.559	23.91
754.739	24.13
754.918	23.22
755.097	23.52
755.277	23.74
755.456	22.48
755.635	22.06
755.815	21.61
755.994	20.86
756.173	21.28
756.352	19.73
756.532	19.24
756.711	19.35
756.89	21.41
757.069	20.35
757.248	19.82
757.427	20.93
757.607	22.99
757.786	21.98
757.965	22.23
758.144	22.7
758.323	23.74
758.502	24.09
758.681	23.98
758.86	22.9
759.039	22.54
759.218	23.2
759.397	22.41
759.576	20.68
759.755	20.7
759.934	20.28
760.113	18.92
760.291	19.69
760.47	18.76
760.649	20.15
760.828	21.13
761.007	21.87
761.186	22.12
761.364	22.56
761.543	24.19
761.722	23.39
761.901	23.91
762.079	24.68
762.258	24.17
762.437	25.24
762.615	23.92
762.794	22.75
762.972	22.02
763.151	22.02
763.33	21.8
763.508	20.62
763.687	21.4
763.865	20.96
764.044	21.46
764.222	21.15
764.401	19.9
764.579	20.33
764.758	20.82
764.936	21.29
765.114	21.21
765.293	21.59
765.471	21.83
765.65	21.66
765.828	22.48
766.006	21.21
766.184	20.68
766.363	22.06
766.541	20.29
766.719	21.04
766.898	21.75
767.076	22.06
767.254	22.91
767.432	23.73
767.61	23.54
767.788	23.06
767.967	23.8
768.145	25.51
768.323	24.92
768.501	27.57
768.679	29.04
768.857	28.61
769.035	28.17
769.213	27.93
769.391	27.21
769.569	28.81
769.747	28.27
769.925	27.64
770.103	27.23
770.281	27.69
770.459	27.24
770.636	23.28
770.814	22.52
770.992	22.51
771.17	20.45
771.348	21.06
771.525	20.48
771.703	21.67
771.881	22.78
772.059	21.77
772.236	21.55
772.414	19.93
772.592	21.97
772.769	23.51
772.947	24.6
773.125	27.47
773.302	27.73
773.48	26.52
773.657	27.83
773.835	28.55
774.013	29.1
774.19	28.16
774.368	30.09
774.545	30.95
774.723	31.17
774.9	29.67
775.077	27.4
775.255	27.09
775.432	27.48
775.61	24.87
775.787	21.83
775.964	23.4
776.142	26.58
776.319	26.32
776.496	27.29
776.674	27.78
776.851	28.1
777.028	30.43
777.205	30.08
777.382	29.51
777.56	30.32
777.737	32.84
777.914	31.33
778.091	29.39
778.268	30.12
778.445	29.1
778.622	28.19
778.8	28.01
778.977	25.95
779.154	25.07
779.331	23.96
779.508	19.54
779.685	19.02
779.862	21.84
780.038	22.8
780.215	22
780.392	22.15
780.569	20.02
780.746	21.46
780.923	20.77
781.1	21.03
781.277	23.86
781.453	27.31
781.63	26.37
781.807	25.86
781.984	25.56
782.16	21.54
782.337	21.86
782.514	24.68
782.691	22.87
782.867	23.02
783.044	26.09
783.221	26.84
783.397	27.94
783.574	29.42
783.75	26.64
783.927	27.53
784.103	31.8
784.28	29.92
784.456	31.3
784.633	31.77
784.809	32.81
784.986	31.19
785.162	29.9
785.339	29.36
785.515	29.06
785.692	30.49
785.868	31.53
786.044	31.06
786.221	32.44
786.397	29.54
786.573	29.28
786.749	29.59
786.926	29.06
787.102	28.22
787.278	27.6
787.454	28.44
787.631	28.77
787.807	25.92
787.983	27.89
788.159	28.14
788.335	28.17
788.511	29.1
788.687	30.4
788.863	30.83
789.039	31.1
789.216	30.26
789.392	29.04
789.568	31.15
789.744	32.15
789.919	30.54
790.095	28.08
790.271	28.25
790.447	27.43
790.623	25.94
790.799	26.33
790.975	25.47
791.151	27.48
791.327	29.28
791.502	27.23
791.678	26.25
791.854	26.58
792.03	29.02
792.205	29.94
792.381	30.24
792.557	28.8
792.733	29.92
792.908	31.1
793.084	29.4
793.259	27.12
793.435	27.23
793.611	30.22
793.786	27.83
793.962	27.55
794.137	28.85
794.313	30.24
794.488	30.82
794.664	27.65
794.839	27.48
795.015	29.77
795.19	30.3
795.366	27.88
795.541	24.16
795.716	26.08
795.892	25.8
796.067	24.98
796.242	24.86
796.418	24.87
796.593	25.14
796.768	27.48
796.944	25.49
797.119	26.55
797.294	27.73
797.469	26.45
797.644	24.12
797.82	22.73
797.995	22.73
798.17	20.7
798.345	21.52
798.52	20.23
798.695	16.55
798.87	14.24
799.045	12.17
799.22	12.11
799.395	14.54
799.57	15.45
799.745	18.01
799.92	18.04
800.095	19.51
800.27	18.64
800.445	21.34
800.62	24.03
800.795	25.49
800.97	27.84
801.145	28.27
801.319	27.77
801.494	28.25
801.669	26.29
801.844	26.18
802.018	24.98
802.193	29.71
802.368	29.63
802.543	28.13
802.717	29.53
802.892	30.39
803.067	30.54
803.241	33.4
803.416	35.02
803.59	36.64
803.765	36.05
803.94	35.6
804.114	31.86
804.289	34.01
804.463	35.24
804.638	35.5
804.812	35.26
804.986	33.39
805.161	30.46
805.335	33.11
805.51	33.04
805.684	32.66
805.858	35.92
806.033	35.93
806.207	33.94
806.381	33.05
806.556	33.45
806.73	30.94
806.904	32.33
807.078	32.71
807.253	30.57
807.427	31.5
807.601	34.38
807.775	32.05
807.949	31.81
808.123	31.95
808.298	28.25
808.472	30.55
808.646	29.53
808.82	28.78
808.994	31.59
809.168	31.3
809.342	28.89
809.516	25.94
809.69	27.5
809.864	26.83
810.038	23.84
810.212	30.08
810.385	29.53
810.559	32.37
810.733	33.64
810.907	26.56
811.081	25.81
811.255	26.16
811.428	26.32
811.602	22.7
811.776	27.1
811.95	29.34
812.123	29.63
812.297	30.19
812.471	29.43
812.644	28.88
812.818	32.3
812.992	33.77
813.165	33.52
813.339	33.43
813.512	34.72
813.686	29.7
813.86	32.86
814.033	32.71
814.207	28.37
814.38	26.46
814.554	25.52
814.727	26.31
814.9	24.63
815.074	25.75
815.247	27.44
815.421	31.98
815.594	33.27
815.767	32.52
815.941	29.21
816.114	30.21
816.287	30.78
816.46	29.33
816.634	27.1
816.807	30.04
816.98	29.07
817.153	27.41
817.327	21.35
817.5	20.12
817.673	21.66
817.846	19.32
818.019	21.98
818.192	23.5
818.365	23.04
818.538	25.33
818.711	23.95
818.884	23.89
819.057	22.94
819.23	26.91
819.403	30.22
819.576	24.43
819.749	26.83
819.922	23.79
820.095	21.64
820.268	23.23
820.441	22.07
820.614	23.16
820.786	24.9
820.959	23.79
821.132	23.07
821.305	22.41
821.477	23.18
821.65	23.09
821.823	24.25
821.996	24.66
822.168	24.55
822.341	24.21
822.514	23.34
822.686	23.28
822.859	24.04
823.031	23.49
823.204	23.52
823.376	24.13
823.549	24.5
823.722	23.89
823.894	23.28
824.067	23.15
824.239	23.96
824.411	24.32
824.584	23.98
824.756	23.55
824.929	22.69
825.101	21.47
825.273	21.26
825.446	19.91
825.618	19.81
825.79	20.52
825.963	20.27
826.135	19.11
826.307	18.33
826.479	18.89
826.652	18.75
826.824	19.74
826.996	22.09
827.168	20.62
827.34	20.61
827.512	20.48
827.684	19.33
827.856	19.36
828.029	20.25
828.201	20.86
828.373	22.27
828.545	22.67
828.717	21.99
828.889	21.09
829.061	21.23
829.232	21.62
829.404	21.35
829.576	23.78
829.748	25.64
829.92	24.96
830.092	25.67
830.264	21.16
830.436	20.62
830.607	24.24
830.779	23.67
830.951	24.89
831.123	25.87
831.294	27.45
831.466	27.61
831.638	29.23
831.809	30.7
831.981	29.92
832.153	34.52
832.324	33.7
832.496	32.55
832.667	32.48
832.839	35.38
833.011	33.72
833.182	35.81
833.354	34.49
833.525	31.92
833.697	30.68
833.868	30.39
834.039	28.21
834.211	28.33
834.382	27.41
834.554	27.47
834.725	23.57
834.896	22.7
835.068	20.33
835.239	19.87
835.41	19.36
835.581	22.16
835.753	23.16
835.924	20.78
836.095	22.15
836.266	23.32
836.438	22.86
836.609	26.16
836.78	28.19
836.951	26.6
837.122	29.3
837.293	31.14
837.464	29.29
837.635	30.11
837.806	33.35
837.977	30.09
838.148	32.92
838.319	31.23
838.49	31.52
838.661	33.07
838.832	37.22
839.003	35.3
839.174	36.34
839.345	35.46
839.516	33.7
839.687	31.98
839.857	35.15
840.028	30.17
840.199	30.37
840.37	27.73
840.54	21.59
840.711	24.6
840.882	23.19
841.053	20.75
841.223	20.2
841.394	17.22
841.564	16.87
841.735	13.65
841.906	13.48
842.076	15.82
842.247	22.87
842.417	23.58
842.588	20.12
842.758	21.9
842.929	24.38
843.099	26.24
843.27	36.98
843.44	43.33
843.611	39.84
843.781	39.93
843.951	39.87
844.122	33.47
844.292	36.1
844.462	29.63
844.633	35.82
844.803	32.96
844.973	29.67
845.144	35.77
845.314	24.38
845.484	35.16
845.654	41
845.824	39.96
845.995	42.58
846.165	44.44
846.335	52.08
846.505	44.21
846.675	39.08
846.845	42.1
847.015	36.02
847.185	43.89
847.355	46.65
847.525	42.13
847.695	39.95
847.865	40.18
848.035	37.86
848.205	42.62
848.375	45.64
848.545	51.15
848.715	47.38
848.884	38.77
849.054	39.51
849.224	39.34
849.394	46.99
849.564	50.57
849.733	49.76
849.903	56.67
850.073	51.04
850.243	50.84
850.412	51.04
850.582	56.57
850.752	54.08
850.921	52.72
851.091	56.98
851.26	57.73
851.43	51.4
851.599	51.46
851.769	42.51
851.939	36.04
852.108	43.58
852.278	47.51
852.447	46.59
852.616	56.93
852.786	61.04
852.955	65.42
853.125	50.42
853.294	55.62
853.463	53.54
853.633	56.37
853.802	66
853.971	57.11
854.141	54.52
854.31	57.89
854.479	56.11
854.648	56.9
854.818	52.38
854.987	60.19
855.156	64.99
855.325	61.65
855.494	63.42
855.663	59.98
855.832	62.18
856.001	41.64
856.171	32.53
856.34	30.2
856.509	29.56
856.678	21.28
856.847	3.82
857.016	-6.82
857.185	10.51
857.353	17.81
857.522	17.36
857.691	22.01
857.86	41.48
858.029	45.56
858.198	48.45
858.367	52.49
858.535	56.05
858.704	61.48
858.873	61
859.042	56.13
859.21	64.74
859.379	72.15
859.548	75.25
859.717	74.19
859.885	78
860.054	76.53
860.222	66.92
860.391	70.64
860.56	75.7
860.728	79.32
860.897	75.45
861.065	61.56
861.234	55.37
861.402	52.1
861.571	57.79
861.739	50.26
861.908	54
862.076	71.01
862.244	70.68
862.413	70.17
862.581	78.6
862.749	86.64
862.918	95.85
863.086	93.09
863.254	93.91
863.423	90.6
863.591	83.38
863.759	73.46
863.927	57.48
864.096	50.41
864.264	39.12
864.432	33
864.6	30.28
864.768	35.39
864.936	43.22
865.104	39.64
865.272	38.08
865.44	42.74
865.608	57.54
865.776	56.73
865.944	56.64
866.112	61.58
866.28	71.5
866.448	74.97
866.616	66.16
866.784	71.11
866.952	68.87
867.12	72.16
867.288	74.35
867.455	62.9
867.623	62.62
867.791	67.68
867.959	69.51
868.127	64.99
868.294	63.31
868.462	67.24
868.63	53.64
868.797	58.79
868.965	53.05
869.133	51.8
869.3	47.92
869.468	54.16
869.636	57.01
869.803	55.59
869.971	47.99
870.138	50.71
870.306	45.54
870.473	46.92
870.641	44.39
870.808	49.2
870.975	53.81
871.143	60.35
871.31	54.15
871.478	46.79
871.645	47.35
871.812	53.34
871.98	53.69
872.147	55.11
872.314	62.76
872.482	56.19
872.649	64.07
872.816	57.64
872.983	56.47
873.15	69.59
873.318	72.62
873.485	70.19
873.652	64.36
873.819	61.65
873.986	86.64
874.153	73.84
874.32	96.96
874.487	78.48
874.654	79.73
874.821	79.24
874.988	82.52
875.155	82.78
875.322	79.92
875.489	76.43
875.656	69.49
875.823	67.63
875.99	75.08
876.157	63.94
876.324	68.06
876.49	74.58
876.657	62.49
876.824	53.86
876.991	49.08
877.157	55.82
877.324	55.87
877.491	52.95
877.658	50.37
877.824	46.9
877.991	60.32
878.157	61.97
878.324	58.3
878.491	62.79
878.657	63.28
878.824	68.4
878.99	57.65
879.157	63.98
879.323	75.26
879.49	80.3
879.656	77.6
879.823	66.25
879.989	63.86
880.156	66.46
880.322	68.57
880.488	64.36
880.655	55.99
880.821	53.32
880.987	46.99
881.154	38.87
881.32	30.11
881.486	27.78
881.652	25.94
881.819	26.37
881.985	24.3
882.151	20.82
882.317	20.86
882.483	21.99
882.649	25.23
882.816	24.69
882.982	25.82
883.148	23.05
883.314	24.06
883.48	23.51
883.646	22.87
883.812	22.5
883.978	24.21
884.144	22.76
884.31	21.23
884.476	20.33
884.642	23.08
884.807	26.5
884.973	30.25
885.139	30.31
885.305	29.08
885.471	28.3
885.637	30.95
885.802	32.2
885.968	37.7
886.134	39.86
886.3	38.08
886.465	40.59
886.631	36
886.797	33.54
886.962	39.23
887.128	46.28
887.293	47.44
887.459	47.04
887.625	46.88
887.79	48.23
887.956	45.69
888.121	49.65
888.287	42.13
888.452	41.03
888.618	49.56
888.783	32.67
