Data from 2938112_Reflection_1.txt Node
Date: Sat Jul 11 18:22:32 EDT 2015
User: robert
Spectrometer: USB4E03001
Autoset integration time: false
Trigger mode: 4
Integration Time (sec): 1.000000E-1
Scans to average: 10
Electric dark correction enabled: true
Nonlinearity correction enabled: false
Boxcar width: 5
Stray light correction enabled: false
XAxis mode: Wavelengths
Stop averaging: false
Number of Pixels in Spectrum: 3648
>>>>>Begin Spectral Data<<<<<
177.566	49.02
177.785	215.57
178.005	-781.71
178.225	-338.66
178.445	-208.82
178.665	5267.74
178.885	7.39
179.105	20.55
179.324	63
179.544	80.37
179.764	203.78
179.984	1237.6
180.204	-514.73
180.423	-82.88
180.643	-72.56
180.863	-66.76
181.083	-85.76
181.302	-46.25
181.522	-56.94
181.742	-98.3
181.961	-1085.42
182.181	512.87
182.401	388
182.621	281.13
182.84	247.42
183.06	329.48
183.279	181.28
183.499	184.4
183.719	105.59
183.938	197.96
184.158	311.93
184.377	224.73
184.597	152.66
184.816	-8.4
185.036	-70.45
185.256	-162.94
185.475	25.43
185.695	56.27
185.914	20.28
186.134	108.87
186.353	126.52
186.572	81.01
186.792	-65.27
187.011	-39.74
187.231	2.82
187.45	-22.74
187.67	-20.42
187.889	50.82
188.108	-4.47
188.328	-10.07
188.547	23.72
188.766	77.9
188.986	374.45
189.205	118.99
189.424	112.4
189.644	107.57
189.863	106.19
190.082	141.68
190.302	150.67
190.521	45.67
190.74	102.1
190.959	844.67
191.178	20080.95
191.398	1762.01
191.617	-149.42
191.836	-259.6
192.055	-202.07
192.274	-580.18
192.494	487.96
192.713	544
192.932	709.26
193.151	20036.17
193.37	-193800
193.589	411.09
193.808	433.12
194.027	182.34
194.246	117.43
194.465	59.56
194.685	-19.17
194.904	-145.52
195.123	-100.85
195.342	-47.05
195.561	-8.99
195.78	-22.72
195.999	-13.99
196.218	-60.58
196.436	-54.02
196.655	-45.28
196.874	15.83
197.093	53.09
197.312	57.69
197.531	33.27
197.75	3.28
197.969	2.82
198.188	51.97
198.407	55.02
198.625	95.66
198.844	167.01
199.063	294.6
199.282	-100
199.501	-42.97
199.719	-919.18
199.938	80.76
200.157	-25.47
200.376	84.02
200.594	25.98
200.813	168.37
201.032	75.25
201.251	149.82
201.469	119.91
201.688	105.35
201.907	107.07
202.125	94.2
202.344	144.9
202.563	173.88
202.781	182.47
203	186.1
203.218	159.63
203.437	131.56
203.656	115.95
203.874	105.97
204.093	94.24
204.311	64.7
204.53	27.17
204.748	-16.07
204.967	-44.58
205.185	0.12
205.404	8.41
205.622	32.36
205.841	45.41
206.059	59.94
206.278	45.35
206.496	105.21
206.715	110.43
206.933	259.1
207.151	-308.37
207.37	-259.98
207.588	-106.34
207.806	-29.15
208.025	35.04
208.243	118.29
208.461	115.72
208.68	168.33
208.898	145.62
209.116	79.49
209.335	34.35
209.553	66.64
209.771	315.08
209.989	486.04
210.208	616.5
210.426	-1725
210.644	-184.86
210.862	-179.01
211.081	8.05
211.299	-45.92
211.517	-9.38
211.735	0.94
211.953	60.38
212.171	91.21
212.39	137.56
212.608	128.51
212.826	154.16
213.044	149.83
213.262	179.97
213.48	193.72
213.698	189.38
213.916	133.37
214.134	60.97
214.352	33.74
214.57	-29.82
214.788	-220.99
215.006	-1614.68
215.224	-13966.67
215.442	-691.57
215.66	-1613.11
215.878	-35.48
216.096	-20.89
216.314	358.42
216.532	-691.96
216.75	140.26
216.968	446.11
217.185	346.7
217.403	87.31
217.621	31.01
217.839	42.75
218.057	10.5
218.275	1405.26
218.492	369.86
218.71	105
218.928	84.48
219.146	94.28
219.363	83.41
219.581	78.88
219.799	77.75
220.017	58.74
220.234	52.37
220.452	41.22
220.67	47.25
220.887	42.84
221.105	38.79
221.323	27.74
221.54	34.67
221.758	31.61
221.976	13.2
222.193	8.42
222.411	-1.34
222.629	11.77
222.846	14.05
223.064	15.64
223.281	12.56
223.499	13.19
223.716	14.96
223.934	15.96
224.151	28.94
224.369	42.85
224.586	21.55
224.804	13.23
225.021	-16.03
225.239	-16.47
225.456	-19.31
225.674	-13.48
225.891	-12.59
226.108	8.57
226.326	4.89
226.543	-12.97
226.76	-21.07
226.978	-13.21
227.195	-11.98
227.413	8.25
227.63	6.42
227.847	2.27
228.064	2.79
228.282	-0.43
228.499	-1.54
228.716	-0.14
228.934	5.03
229.151	10.75
229.368	16.88
229.585	18.64
229.802	17.11
230.02	18.37
230.237	20.09
230.454	21.98
230.671	26.57
230.888	26.07
231.105	27.71
231.323	25.45
231.54	22.48
231.757	22.22
231.974	23.57
232.191	22.39
232.408	22.96
232.625	25.77
232.842	24.07
233.059	32.83
233.276	33.81
233.493	34.61
233.71	32.42
233.927	26.07
234.144	21.07
234.361	24.36
234.578	22.92
234.795	18.65
235.012	15.43
235.229	7.87
235.446	-0.16
235.663	1.9
235.879	0.14
236.096	10.15
236.313	18.27
236.53	12.26
236.747	12.19
236.964	23.7
237.181	26.48
237.397	26.65
237.614	24.39
237.831	22.79
238.048	19.17
238.264	19.5
238.481	14.23
238.698	13.54
238.915	23.55
239.131	18.58
239.348	16.57
239.565	16.51
239.781	18
239.998	16.77
240.215	15.54
240.431	17.18
240.648	16.87
240.865	16.95
241.081	15.15
241.298	15.32
241.514	16.49
241.731	14.82
241.947	16.35
242.164	14.51
242.38	18.58
242.597	17.68
242.814	15.84
243.03	15.51
243.246	12.97
243.463	12.86
243.679	14.48
243.896	11.55
244.112	13.2
244.329	8.78
244.545	8.99
244.762	5.26
244.978	5.13
245.194	6.2
245.411	8.49
245.627	10.37
245.843	11.22
246.06	9.28
246.276	11.2
246.492	10.24
246.709	11.58
246.925	11.97
247.141	11.59
247.357	12.29
247.574	11.95
247.79	11.93
248.006	10.91
248.222	10.83
248.439	10.69
248.655	9.87
248.871	10.24
249.087	10.84
249.303	10.69
249.519	11.05
249.736	9.51
249.952	10.14
250.168	9.19
250.384	11.75
250.6	10.1
250.816	9.05
251.032	9.98
251.248	6.01
251.464	6.42
251.68	9.23
251.896	11.32
252.112	12.74
252.328	15.17
252.544	13.74
252.76	13.79
252.976	16.42
253.192	20.41
253.408	22.13
253.624	25.61
253.84	25.18
254.056	23.83
254.272	25.67
254.487	26.81
254.703	22.14
254.919	25.44
255.135	24.45
255.351	25.14
255.567	28.27
255.782	25.51
255.998	21.77
256.214	21.84
256.43	19.21
256.646	16.44
256.861	12.76
257.077	14.74
257.293	12.83
257.508	12.54
257.724	10.52
257.94	7.09
258.155	6.45
258.371	8.73
258.587	8.81
258.802	8.16
259.018	10.71
259.234	12.04
259.449	13
259.665	13.13
259.88	13.37
260.096	13.58
260.312	12.59
260.527	13.43
260.743	13.5
260.958	14.23
261.174	14.98
261.389	13.2
261.605	11.83
261.82	11.01
262.036	11.16
262.251	10.56
262.466	9.52
262.682	9.31
262.897	8.63
263.113	7.67
263.328	5.19
263.543	7.46
263.759	9.8
263.974	12.54
264.189	12.59
264.405	9.8
264.62	10.3
264.835	10.96
265.051	13.89
265.266	13.88
265.481	13
265.696	12.59
265.912	11.5
266.127	8.89
266.342	10.79
266.557	11.75
266.773	11.96
266.988	9.97
267.203	10.28
267.418	8.4
267.633	10.27
267.848	11.17
268.064	12.44
268.279	11.46
268.494	11.92
268.709	9.39
268.924	8.25
269.139	9.86
269.354	11.37
269.569	11.55
269.784	12.74
269.999	12.41
270.214	11.65
270.429	10.58
270.644	10.75
270.859	12.09
271.074	12.02
271.289	10.44
271.504	8.53
271.719	9.22
271.934	8.62
272.149	6.77
272.363	6.1
272.578	6.75
272.793	7.28
273.008	7.09
273.223	6.86
273.438	7.22
273.653	7.17
273.867	8.67
274.082	9.62
274.297	10.56
274.512	11.53
274.726	11.28
274.941	12.29
275.156	11.67
275.371	11.88
275.585	9.58
275.8	8.05
276.015	10.22
276.229	8.61
276.444	6.65
276.659	7.59
276.873	6.77
277.088	7.61
277.302	5.75
277.517	7.95
277.732	7.45
277.946	9.09
278.161	11.66
278.375	11.04
278.59	12.89
278.804	12.29
279.019	9.15
279.233	10.12
279.448	8.51
279.662	9.22
279.877	7.76
280.091	8.86
280.306	10.37
280.52	10.1
280.735	9.31
280.949	10.96
281.163	11.95
281.378	14.11
281.592	14.59
281.806	15.45
282.021	14.52
282.235	14.55
282.449	14.99
282.664	15.3
282.878	16.3
283.092	17.8
283.307	16.05
283.521	15.94
283.735	13.55
283.949	12.66
284.164	11.33
284.378	12.25
284.592	12.01
284.806	11.36
285.02	9.54
285.234	8.59
285.449	7.7
285.663	8.37
285.877	7.44
286.091	9.39
286.305	10.29
286.519	11.69
286.733	12.46
286.947	12.3
287.161	12.68
287.375	13.5
287.589	11.68
287.803	13.06
288.017	12.46
288.231	11.99
288.445	11.55
288.659	10.69
288.873	9.47
289.087	8.73
289.301	10.13
289.515	9.45
289.729	10.51
289.943	11
290.157	10.39
290.371	9.86
290.584	11.15
290.798	11.2
291.012	12.79
291.226	13.64
291.44	11.87
291.654	11.21
291.867	11.03
292.081	10.89
292.295	11.59
292.509	12.71
292.722	12.24
292.936	12.8
293.15	12.07
293.364	10.95
293.577	11.06
293.791	12.23
294.005	11.69
294.218	12.25
294.432	12.38
294.645	12.29
294.859	11.15
295.073	12.63
295.286	11.7
295.5	12.42
295.713	12.33
295.927	13.64
296.14	13.48
296.354	13.81
296.568	14.42
296.781	13.57
296.994	14.68
297.208	13.73
297.421	13.14
297.635	13.31
297.848	13.37
298.062	13.77
298.275	12.73
298.489	12.71
298.702	13.33
298.915	12.67
299.129	12.09
299.342	11.25
299.555	13.29
299.769	13.05
299.982	14.21
300.195	13.86
300.409	12.88
300.622	12.95
300.835	13.71
301.048	13.66
301.262	14.1
301.475	16.11
301.688	14.89
301.901	14.3
302.115	15.24
302.328	13.64
302.541	15.59
302.754	14.34
302.967	14.85
303.18	14.75
303.393	14.41
303.607	15.61
303.82	16.44
304.033	18.48
304.246	19.54
304.459	18.83
304.672	19.52
304.885	15.98
305.098	16.73
305.311	15.48
305.524	14.59
305.737	13.72
305.95	11.72
306.163	9.51
306.376	9.21
306.589	6.28
306.802	5.45
307.015	5.1
307.228	7.56
307.44	8.08
307.653	8.61
307.866	9.94
308.079	11.25
308.292	11.83
308.505	11.26
308.718	10.07
308.93	11.15
309.143	12.58
309.356	15.26
309.569	14.55
309.781	15.12
309.994	14.47
310.207	12.87
310.42	12.98
310.632	13.8
310.845	15.09
311.058	13.99
311.27	12.81
311.483	13.74
311.696	12.66
311.908	13.21
312.121	13.64
312.333	17.03
312.546	18.66
312.759	18.39
312.971	18.02
313.184	17.07
313.396	19.98
313.609	20.71
313.821	19.38
314.034	19.89
314.246	18.5
314.459	18.35
314.671	15.04
314.884	13.69
315.096	14.71
315.309	15.32
315.521	17.31
315.733	15.95
315.946	16.44
316.158	18.48
316.371	18.58
316.583	20.23
316.795	19.11
317.008	17.95
317.22	19.7
317.432	16.38
317.644	15.72
317.857	13.55
318.069	14
318.281	13.73
318.494	12
318.706	9.94
318.918	9.5
319.13	10.96
319.342	14
319.555	11.78
319.767	12.45
319.979	10.79
320.191	13.29
320.403	12.4
320.615	13.12
320.827	11.6
321.039	10.96
321.252	12.53
321.464	11.73
321.676	10.57
321.888	9.54
322.1	10.32
322.312	11.4
322.524	8.18
322.736	11.91
322.948	9.84
323.16	11.91
323.372	14.69
323.584	13.61
323.796	13.87
324.007	13.01
324.219	14.23
324.431	13.75
324.643	13.47
324.855	15.18
325.067	12.18
325.279	13.61
325.491	13.37
325.702	12.46
325.914	13.27
326.126	13.99
326.338	13.62
326.55	12.95
326.761	13.57
326.973	14.59
327.185	14.34
327.396	15.4
327.608	14.98
327.82	17.38
328.032	17.16
328.243	16.46
328.455	15.03
328.666	14.26
328.878	15.41
329.09	16.22
329.301	15.76
329.513	17.73
329.725	18.38
329.936	19.33
330.148	17
330.359	17.23
330.571	18.38
330.782	19.11
330.994	19.95
331.205	21.52
331.417	20.72
331.628	21.58
331.84	19.8
332.051	19.16
332.262	19.77
332.474	20
332.685	20.6
332.897	19.63
333.108	19.02
333.319	20.29
333.531	19.31
333.742	20.09
333.953	19.23
334.165	18.59
334.376	18.82
334.587	18.13
334.799	18.26
335.01	17.53
335.221	18.98
335.432	20.56
335.644	20.17
335.855	18.89
336.066	19.86
336.277	21.04
336.488	22.33
336.7	21.9
336.911	21.31
337.122	21.22
337.333	20.33
337.544	19.26
337.755	18.2
337.966	18.18
338.177	20.29
338.388	18.7
338.599	16.95
338.811	15.46
339.022	15.27
339.233	15.97
339.444	15.83
339.655	15.67
339.866	15.64
340.076	15.32
340.287	14.16
340.498	12.64
340.709	13.01
340.92	13.62
341.131	14.6
341.342	15.48
341.553	15.85
341.764	15.79
341.975	16.1
342.185	16.35
342.396	17.87
342.607	19.09
342.818	19.74
343.029	19.72
343.239	20.29
343.45	19.52
343.661	19.34
343.872	18.52
344.082	19.23
344.293	19.52
344.504	18.98
344.714	17.59
344.925	17.77
345.136	17.44
345.346	15.7
345.557	14.92
345.768	15.67
345.978	15.28
346.189	14.9
346.399	14.18
346.61	15.75
346.821	16.55
347.031	16.83
347.242	16.65
347.452	16.91
347.663	19.48
347.873	21.72
348.084	21.27
348.294	21.41
348.504	23.66
348.715	23.77
348.925	22.22
349.136	20.72
349.346	21.4
349.557	21.08
349.767	21.34
349.977	20.76
350.188	18.41
350.398	18.94
350.608	19.17
350.819	15.97
351.029	13.98
351.239	13.96
351.449	15.07
351.66	13.53
351.87	13.71
352.08	13.69
352.29	14.09
352.501	14.78
352.711	14.97
352.921	14.48
353.131	15.55
353.341	16.86
353.552	17.99
353.762	16.32
353.972	15.71
354.182	16.57
354.392	15.34
354.602	13.74
354.812	14.62
355.022	13.34
355.232	14.53
355.442	14.01
355.652	14.35
355.862	12.39
356.072	13.58
356.282	14.46
356.492	13.57
356.702	13.69
356.912	15.02
357.122	13.64
357.332	14.38
357.542	12.46
357.752	13.62
357.962	13.68
358.171	14.09
358.381	13.73
358.591	14.9
358.801	14.44
359.011	15.6
359.221	15.26
359.43	14.99
359.64	15.49
359.85	16.18
360.06	16.3
360.269	16.49
360.479	16.06
360.689	16.02
360.899	14.11
361.108	14.57
361.318	13.99
361.528	13.41
361.737	14.14
361.947	13.39
362.156	12.62
362.366	12.41
362.576	12.37
362.785	13.7
362.995	14.24
363.204	15
363.414	15.55
363.623	15.79
363.833	16.38
364.042	16.05
364.252	16.08
364.461	16.9
364.671	16.62
364.88	15.86
365.09	15.55
365.299	14.74
365.509	14.72
365.718	13.58
365.927	13.38
366.137	13.98
366.346	15.27
366.555	15.37
366.765	16.46
366.974	16.33
367.183	16.29
367.393	15.73
367.602	15.61
367.811	16.44
368.021	15.97
368.23	15.79
368.439	15.6
368.648	14.96
368.857	15.38
369.067	14.47
369.276	14.98
369.485	15.25
369.694	14.3
369.903	14.51
370.112	14.35
370.321	15.06
370.531	14.5
370.74	14.95
370.949	14.44
371.158	13.19
371.367	13.08
371.576	12.78
371.785	12.57
371.994	13.3
372.203	13.36
372.412	12.69
372.621	12.14
372.83	13.68
373.039	13.53
373.248	12.97
373.457	13.68
373.666	13.72
373.874	13.08
374.083	13.57
374.292	14.1
374.501	13.37
374.71	12.24
374.919	12.51
375.128	11.64
375.336	10.74
375.545	10.38
375.754	10.45
375.963	9.45
376.171	10.15
376.38	9.56
376.589	9.64
376.798	10.06
377.006	11.49
377.215	11.72
377.424	11.67
377.632	11.58
377.841	12.02
378.05	12
378.258	13.69
378.467	13.29
378.675	13.73
378.884	12.92
379.093	13
379.301	11.71
379.51	11.36
379.718	11.23
379.927	11.13
380.135	10.67
380.344	10.08
380.552	9.05
380.761	9.02
380.969	8.78
381.177	9.39
381.386	9.06
381.594	9.52
381.803	9.58
382.011	9.68
382.219	9.74
382.428	10.73
382.636	10.9
382.845	10.02
383.053	10.23
383.261	10.32
383.469	9.82
383.678	9.35
383.886	9.33
384.094	9.37
384.302	8.93
384.511	8.76
384.719	7.34
384.927	7.17
385.135	7.27
385.343	6.67
385.552	6.06
385.76	6.28
385.968	6.18
386.176	6.71
386.384	6.23
386.592	6.53
386.8	6.93
387.008	7.44
387.216	7.97
387.424	8.23
387.633	8.66
387.841	9.14
388.049	8.89
388.257	9.7
388.465	8.82
388.672	8.85
388.88	8.42
389.088	8.14
389.296	8.09
389.504	7.57
389.712	7.71
389.92	7.52
390.128	7.28
390.336	7.01
390.544	6.58
390.751	7.2
390.959	7.12
391.167	7.29
391.375	7.19
391.583	6.91
391.79	7.07
391.998	6.82
392.206	6.96
392.414	6.79
392.621	7.29
392.829	7.73
393.037	7.32
393.244	7.28
393.452	7.13
393.66	6.73
393.867	7.39
394.075	7.02
394.283	7.27
394.49	7.24
394.698	7.34
394.905	6.65
395.113	6.1
395.32	6.31
395.528	6.85
395.735	7.14
395.943	7.53
396.15	7.02
396.358	7.64
396.565	7.47
396.773	7.25
396.98	7.29
397.188	7.88
397.395	7.83
397.602	7.55
397.81	6.91
398.017	6.74
398.225	6.76
398.432	6.64
398.639	6.28
398.847	6.31
399.054	6.37
399.261	6.27
399.468	5.67
399.676	5.74
399.883	5.86
400.09	6.01
400.297	5.94
400.505	5.71
400.712	6.13
400.919	5.71
401.126	5.85
401.333	5.96
401.54	6.06
401.748	6.42
401.955	6.2
402.162	6.33
402.369	6.51
402.576	6.51
402.783	6.4
402.99	6.4
403.197	6.95
403.404	6.89
403.611	6.66
403.818	6.35
404.025	6.23
404.232	6.5
404.439	6.41
404.646	6.32
404.853	6.37
405.06	6.49
405.267	6.09
405.474	6.19
405.681	6.14
405.887	6.14
406.094	6.29
406.301	6.26
406.508	6.37
406.715	6.5
406.922	6.94
407.128	6.89
407.335	6.83
407.542	7.03
407.749	6.59
407.955	6.27
408.162	6.29
408.369	6.48
408.575	6.63
408.782	6.23
408.989	6.24
409.195	5.87
409.402	5.96
409.609	6.06
409.815	6.03
410.022	6.25
410.228	6.4
410.435	6.34
410.642	6.11
410.848	6.08
411.055	6.16
411.261	6.15
411.468	6.25
411.674	6.02
411.881	5.97
412.087	5.8
412.294	5.69
412.5	5.87
412.706	5.76
412.913	5.89
413.119	6.01
413.326	5.78
413.532	5.87
413.738	5.89
413.945	6.05
414.151	6.07
414.357	6.06
414.564	6.15
414.77	5.8
414.976	5.74
415.182	5.62
415.389	5.12
415.595	5.34
415.801	5.18
416.007	4.92
416.214	4.85
416.42	4.69
416.626	4.73
416.832	4.79
417.038	4.84
417.244	5.03
417.45	5.02
417.657	5.21
417.863	5.21
418.069	5.09
418.275	5.08
418.481	5.02
418.687	5.08
418.893	5.19
419.099	5.08
419.305	4.98
419.511	5
419.717	4.89
419.923	4.8
420.129	4.72
420.335	4.66
420.541	4.63
420.746	4.54
420.952	4.5
421.158	4.58
421.364	4.66
421.57	4.74
421.776	4.48
421.982	4.72
422.187	4.86
422.393	4.94
422.599	4.99
422.805	4.95
423.01	4.92
423.216	4.88
423.422	4.76
423.628	4.65
423.833	4.67
424.039	4.84
424.245	4.71
424.45	4.64
424.656	4.63
424.862	4.69
425.067	4.82
425.273	4.86
425.478	4.96
425.684	4.9
425.889	4.93
426.095	4.93
426.301	5.05
426.506	5.03
426.712	5.05
426.917	5.06
427.123	4.91
427.328	4.74
427.533	4.83
427.739	4.7
427.944	5.04
428.15	5.01
428.355	5.08
428.561	5.1
428.766	5.13
428.971	4.92
429.177	4.98
429.382	4.88
429.587	5.07
429.793	4.91
429.998	4.97
430.203	4.54
430.408	4.39
430.614	4.28
430.819	4.19
431.024	4.12
431.229	4.76
431.434	4.63
431.64	4.98
431.845	4.9
432.05	5.09
432.255	5.12
432.46	5.24
432.665	5.4
432.87	5.27
433.076	5.07
433.281	5.12
433.486	4.76
433.691	4.88
433.896	4.71
434.101	4.75
434.306	4.78
434.511	4.86
434.716	4.85
434.921	4.64
435.126	4.73
435.331	5.01
435.535	4.98
435.74	4.88
435.945	4.35
436.15	4.51
436.355	4.5
436.56	4.3
436.765	4.32
436.97	4.45
437.174	4.62
437.379	4.57
437.584	4.34
437.789	4.39
437.993	4.79
438.198	5.12
438.403	4.97
438.608	4.86
438.812	4.92
439.017	4.82
439.222	4.52
439.426	4.65
439.631	4.75
439.836	4.68
440.04	4.64
440.245	4.4
440.45	4.46
440.654	4.63
440.859	4.62
441.063	4.59
441.268	4.46
441.472	4.61
441.677	4.62
441.881	4.58
442.086	4.8
442.29	4.79
442.495	4.85
442.699	4.88
442.904	4.61
443.108	4.86
443.312	4.93
443.517	5.13
443.721	5.32
443.925	5.27
444.13	5.18
444.334	5.13
444.538	5.24
444.743	5.32
444.947	5.21
445.151	5.2
445.356	4.98
445.56	5.02
445.764	4.9
445.968	4.86
446.173	4.96
446.377	5.09
446.581	5.03
446.785	4.91
446.989	4.78
447.193	4.86
447.398	4.92
447.602	4.91
447.806	4.9
448.01	4.89
448.214	4.91
448.418	4.64
448.622	4.69
448.826	4.74
449.03	4.76
449.234	4.94
449.438	4.95
449.642	4.94
449.846	5.2
450.05	5.26
450.254	5.38
450.458	5.27
450.662	5.53
450.866	5.13
451.069	5.19
451.273	5.29
451.477	5.27
451.681	5.24
451.885	5.14
452.089	5.14
452.292	5.08
452.496	4.91
452.7	4.96
452.904	4.79
453.107	4.92
453.311	4.82
453.515	4.86
453.719	4.79
453.922	4.7
454.126	4.71
454.33	4.58
454.533	4.54
454.737	4.73
454.94	4.83
455.144	4.82
455.348	4.9
455.551	4.85
455.755	4.89
455.958	5.04
456.162	5.12
456.365	5.24
456.569	5.23
456.772	5.28
456.976	5.22
457.179	5
457.383	5.17
457.586	5.21
457.79	5.17
457.993	5.05
458.196	4.94
458.4	5.06
458.603	5.04
458.807	5.29
459.01	5.1
459.213	5.06
459.417	5.06
459.62	5.06
459.823	4.88
460.026	4.86
460.23	4.7
460.433	4.61
460.636	4.45
460.839	4.52
461.042	4.21
461.246	4.31
461.449	4.16
461.652	4.2
461.855	4.08
462.058	4.07
462.261	4.12
462.464	4.32
462.668	4.26
462.871	4.4
463.074	4.28
463.277	4.25
463.48	4.3
463.683	4.62
463.886	4.62
464.089	4.58
464.292	4.54
464.495	4.47
464.698	4.35
464.901	4.55
465.104	4.42
465.306	4.46
465.509	4.6
465.712	4.54
465.915	4.45
466.118	4.21
466.321	4.2
466.524	4.44
466.726	4.48
466.929	4.71
467.132	4.53
467.335	4.66
467.538	4.54
467.74	4.58
467.943	4.64
468.146	4.71
468.348	4.85
468.551	4.91
468.754	4.93
468.956	4.91
469.159	4.67
469.362	4.66
469.564	4.5
469.767	4.57
469.969	4.47
470.172	4.47
470.375	4.29
470.577	4.13
470.78	4.12
470.982	4.09
471.185	4.14
471.387	4.43
471.59	4.41
471.792	4.47
471.995	4.46
472.197	4.57
472.399	4.62
472.602	4.87
472.804	5.07
473.007	4.96
473.209	4.86
473.411	4.93
473.614	4.68
473.816	4.72
474.018	4.78
474.22	4.96
474.423	4.87
474.625	4.93
474.827	4.79
475.03	4.65
475.232	4.64
475.434	4.74
475.636	4.71
475.838	4.79
476.04	4.81
476.243	4.75
476.445	4.79
476.647	4.84
476.849	4.71
477.051	4.66
477.253	4.87
477.455	4.96
477.657	5.06
477.859	5.02
478.061	5.12
478.263	5.07
478.465	5.27
478.667	4.94
478.869	4.8
479.071	4.68
479.273	4.66
479.475	4.53
479.677	4.57
479.879	4.39
480.081	4.51
480.283	4.4
480.485	4.36
480.686	4.14
480.888	4.37
481.09	4.4
481.292	4.45
481.494	4.44
481.695	4.41
481.897	4.34
482.099	4.44
482.301	4.44
482.502	4.47
482.704	4.52
482.906	4.57
483.107	4.59
483.309	4.64
483.511	4.62
483.712	4.62
483.914	4.6
484.115	4.61
484.317	4.59
484.519	4.57
484.72	4.57
484.922	4.56
485.123	4.52
485.325	4.49
485.526	4.52
485.728	4.59
485.929	4.6
486.131	4.64
486.332	4.68
486.534	4.65
486.735	4.61
486.936	4.6
487.138	4.59
487.339	4.54
487.541	4.42
487.742	4.29
487.943	4.19
488.144	4.23
488.346	4.2
488.547	4.13
488.748	4.18
488.95	4.21
489.151	4.17
489.352	4.22
489.553	4.29
489.755	4.41
489.956	4.54
490.157	4.65
490.358	4.63
490.559	4.66
490.76	4.69
490.961	4.64
491.163	4.62
491.364	4.66
491.565	4.53
491.766	4.57
491.967	4.57
492.168	4.54
492.369	4.54
492.57	4.54
492.771	4.55
492.972	4.54
493.173	4.52
493.374	4.59
493.575	4.49
493.776	4.64
493.976	4.59
494.177	4.69
494.378	4.6
494.579	4.57
494.78	4.48
494.981	4.53
495.182	4.46
495.382	4.57
495.583	4.53
495.784	4.6
495.985	4.45
496.185	4.4
496.386	4.41
496.587	4.52
496.788	4.43
496.988	4.62
497.189	4.64
497.39	4.57
497.59	4.62
497.791	4.6
497.992	4.75
498.192	4.78
498.393	4.86
498.593	4.75
498.794	4.59
498.994	4.65
499.195	4.52
499.395	4.46
499.596	4.63
499.796	4.58
499.997	4.61
500.197	4.36
500.398	4.46
500.598	4.49
500.799	4.45
500.999	4.81
501.199	4.73
501.4	4.72
501.6	4.9
501.801	4.88
502.001	4.85
502.201	4.85
502.402	5.01
502.602	4.88
502.802	4.97
503.002	5.04
503.203	4.89
503.403	5.17
503.603	5.03
503.803	4.83
504.003	4.8
504.204	4.8
504.404	4.74
504.604	4.76
504.804	4.92
505.004	4.66
505.204	4.67
505.404	4.51
505.604	4.38
505.804	4.62
506.005	4.64
506.205	4.79
506.405	4.83
506.605	4.74
506.805	4.83
507.005	4.84
507.204	4.92
507.404	4.88
507.604	5.08
507.804	4.96
508.004	4.9
508.204	4.94
508.404	5.04
508.604	4.99
508.804	5.16
509.003	5
509.203	5
509.403	5.05
509.603	5.11
509.803	5.11
510.002	5.15
510.202	5.25
510.402	5.3
510.602	5.26
510.801	5.31
511.001	5.32
511.201	5.35
511.4	5.37
511.6	5.35
511.8	5.26
511.999	5.35
512.199	5.39
512.398	5.15
512.598	5.04
512.797	5.01
512.997	4.84
513.197	4.9
513.396	4.9
513.596	4.9
513.795	4.94
513.994	5.05
514.194	5.01
514.393	5.04
514.593	5.23
514.792	5.38
514.992	5.43
515.191	5.65
515.39	5.61
515.59	5.77
515.789	5.84
515.988	5.81
516.188	5.83
516.387	5.69
516.586	5.67
516.786	5.63
516.985	5.69
517.184	5.59
517.383	5.44
517.582	5.44
517.782	5.46
517.981	5.29
518.18	5.36
518.379	5.39
518.578	5.51
518.777	5.54
518.976	5.55
519.176	5.42
519.375	5.37
519.574	5.44
519.773	5.37
519.972	5.27
520.171	5.38
520.37	5.4
520.569	5.31
520.768	5.25
520.967	5.17
521.166	5.2
521.365	5.27
521.564	5.35
521.762	5.45
521.961	5.45
522.16	5.57
522.359	5.65
522.558	5.71
522.757	5.85
522.956	5.81
523.154	5.81
523.353	5.84
523.552	5.84
523.751	5.8
523.949	5.78
524.148	5.96
524.347	5.82
524.546	5.73
524.744	5.67
524.943	5.51
525.142	5.56
525.34	5.67
525.539	5.77
525.737	5.79
525.936	5.76
526.135	5.67
526.333	5.62
526.532	5.66
526.73	5.73
526.929	5.79
527.127	5.78
527.326	5.91
527.524	5.89
527.723	5.82
527.921	5.87
528.12	5.89
528.318	5.97
528.516	5.99
528.715	6.01
528.913	5.99
529.112	6
529.31	6.02
529.508	5.92
529.707	5.94
529.905	5.92
530.103	5.9
530.301	5.98
530.5	5.99
530.698	6.03
530.896	6.07
531.094	6.03
531.293	6.03
531.491	6.16
531.689	6.28
531.887	6.36
532.085	6.49
532.283	6.46
532.481	6.49
532.68	6.55
532.878	6.56
533.076	6.51
533.274	6.56
533.472	6.52
533.67	6.47
533.868	6.54
534.066	6.59
534.264	6.56
534.462	6.65
534.66	6.69
534.858	6.62
535.056	6.7
535.253	6.79
535.451	6.92
535.649	7.08
535.847	7.2
536.045	7.03
536.243	6.99
536.441	7.06
536.638	7.1
536.836	7.11
537.034	7.08
537.232	7.11
537.43	7.12
537.627	7.16
537.825	7.06
538.023	7.1
538.22	7.16
538.418	7.27
538.616	7.35
538.813	7.34
539.011	7.35
539.209	7.51
539.406	7.38
539.604	7.34
539.801	7.22
539.999	7.22
540.196	7.37
540.394	7.54
540.591	7.48
540.789	7.44
540.986	7.55
541.184	7.57
541.381	7.58
541.579	7.57
541.776	7.64
541.974	7.74
542.171	7.8
542.368	7.66
542.566	7.66
542.763	7.67
542.96	7.7
543.158	7.69
543.355	7.7
543.552	7.73
543.75	7.78
543.947	7.73
544.144	7.59
544.341	7.58
544.539	7.69
544.736	7.63
544.933	7.65
545.13	7.71
545.327	7.58
545.524	7.57
545.722	7.6
545.919	7.68
546.116	7.91
546.313	8.17
546.51	8.33
546.707	8.35
546.904	8.41
547.101	8.5
547.298	8.59
547.495	8.69
547.692	8.94
547.889	8.99
548.086	9.11
548.283	9.02
548.48	8.94
548.677	8.99
548.874	8.93
549.07	9.08
549.267	9.09
549.464	9.11
549.661	9.15
549.858	9.12
550.055	9.08
550.251	9.09
550.448	9.45
550.645	9.49
550.842	9.52
551.038	9.8
551.235	9.66
551.432	9.67
551.628	9.67
551.825	9.9
552.022	9.9
552.218	9.96
552.415	9.98
552.612	9.96
552.808	10.08
553.005	10
553.201	9.91
553.398	9.96
553.594	10.16
553.791	10.11
553.987	9.98
554.184	9.87
554.38	9.92
554.577	9.85
554.773	9.72
554.97	9.5
555.166	9.67
555.362	9.83
555.559	10.04
555.755	9.92
555.952	10.06
556.148	10.2
556.344	10.14
556.541	10.24
556.737	10.47
556.933	10.36
557.129	10.57
557.326	10.55
557.522	10.61
557.718	10.44
557.914	10.65
558.11	10.69
558.307	10.58
558.503	10.74
558.699	10.64
558.895	10.43
559.091	10.64
559.287	10.84
559.483	10.83
559.679	10.5
559.876	10.61
560.072	10.63
560.268	10.76
560.464	11.02
560.66	11.07
560.856	11.01
561.052	11.31
561.247	11.38
561.443	11.11
561.639	11.15
561.835	11.64
562.031	11.62
562.227	11.6
562.423	11.47
562.619	11.45
562.815	11.61
563.01	11.91
563.206	11.85
563.402	11.88
563.598	12
563.793	12.05
563.989	12.05
564.185	12.18
564.381	12.19
564.576	12.15
564.772	12
564.968	11.89
565.163	11.89
565.359	11.79
565.555	11.81
565.75	11.98
565.946	12.02
566.141	12.07
566.337	11.96
566.532	12.03
566.728	12.32
566.923	12.48
567.119	12.72
567.314	12.61
567.51	12.63
567.705	12.47
567.901	12.42
568.096	12.26
568.292	12.21
568.487	12.23
568.682	11.9
568.878	11.62
569.073	11.58
569.268	11.62
569.464	11.88
569.659	12.13
569.854	12.4
570.05	12.26
570.245	12.46
570.44	12.51
570.635	12.67
570.831	12.92
571.026	13.02
571.221	12.9
571.416	12.75
571.611	12.6
571.806	12.33
572.002	12.24
572.197	12.55
572.392	12.52
572.587	12.32
572.782	12.42
572.977	12.39
573.172	12.32
573.367	12.56
573.562	12.77
573.757	12.85
573.952	13.12
574.147	13.18
574.342	13.22
574.537	13.4
574.732	13.58
574.927	13.26
575.121	13.43
575.316	13.55
575.511	13.56
575.706	13.35
575.901	13.45
576.096	13.55
576.29	13.51
576.485	13.46
576.68	13.47
576.875	13.4
577.069	13.51
577.264	13.66
577.459	13.71
577.654	13.66
577.848	13.49
578.043	13.31
578.238	13.03
578.432	13.03
578.627	13.06
578.821	12.89
579.016	12.83
579.21	12.86
579.405	12.78
579.6	12.7
579.794	12.74
579.989	13.09
580.183	12.85
580.378	13.02
580.572	13.1
580.766	13.09
580.961	13.27
581.155	13.32
581.35	13.39
581.544	13.12
581.738	13.23
581.933	13.23
582.127	13.06
582.321	13.59
582.516	13.82
582.71	13.96
582.904	13.71
583.099	13.54
583.293	13.75
583.487	13.72
583.681	13.71
583.875	13.75
584.07	13.73
584.264	13.85
584.458	13.53
584.652	13.3
584.846	13.12
585.04	13.2
585.234	13.18
585.428	12.96
585.623	13.08
585.817	13.33
586.011	13.16
586.205	12.71
586.399	12.65
586.593	12.75
586.787	12.88
586.981	12.95
587.174	12.89
587.368	13.15
587.562	13.47
587.756	13.5
587.95	13.43
588.144	13.39
588.338	13.76
588.532	13.86
588.725	13.92
588.919	13.77
589.113	13.53
589.307	13.75
589.501	13.56
589.694	13.42
589.888	13.31
590.082	13.47
590.275	13.42
590.469	13.65
590.663	13.56
590.856	13.65
591.05	13.43
591.244	13.6
591.437	13.6
591.631	13.51
591.824	13.46
592.018	13.49
592.212	13.41
592.405	13.89
592.599	13.81
592.792	13.87
592.986	13.8
593.179	14.08
593.372	14.33
593.566	14.06
593.759	14.25
593.953	14.41
594.146	14.4
594.339	14.48
594.533	14.11
594.726	13.96
594.92	14.12
595.113	14.25
595.306	14.33
595.499	14.17
595.693	14.35
595.886	14.33
596.079	14.23
596.272	14.35
596.466	14.37
596.659	14.47
596.852	14.44
597.045	14.4
597.238	14.37
597.431	14.23
597.624	14.45
597.818	14.46
598.011	14.22
598.204	14.4
598.397	14.17
598.59	14.05
598.783	14.19
598.976	14.21
599.169	14.16
599.362	14.3
599.555	14.48
599.748	14.09
599.941	14.24
600.134	14.71
600.326	14.34
600.519	14.56
600.712	14.53
600.905	14.59
601.098	14.6
601.291	14.6
601.483	14.5
601.676	14.26
601.869	14.4
602.062	14.39
602.255	14.38
602.447	14.43
602.64	14.41
602.833	14.5
603.025	14.35
603.218	14.58
603.411	14.54
603.603	14.39
603.796	14.43
603.989	14.56
604.181	14.42
604.374	14.36
604.566	14.62
604.759	14.76
604.951	14.67
605.144	14.62
605.336	14.5
605.529	14.5
605.721	14.53
605.914	14.69
606.106	14.6
606.299	14.75
606.491	14.59
606.683	14.43
606.876	14.24
607.068	14.2
607.26	14.29
607.453	14.51
607.645	14.62
607.837	14.79
608.03	14.6
608.222	14.49
608.414	14.24
608.606	14.42
608.799	14.3
608.991	14.31
609.183	14.45
609.375	14.3
609.567	14.04
609.759	13.94
609.952	13.98
610.144	14.06
610.336	13.9
610.528	13.77
610.72	13.79
610.912	13.63
611.104	13.69
611.296	13.59
611.488	13.64
611.68	13.68
611.872	13.68
612.064	13.52
612.256	13.5
612.448	13.59
612.64	13.86
612.832	13.75
613.023	13.92
613.215	14.08
613.407	14.28
613.599	14.29
613.791	14.54
613.983	14.73
614.174	14.8
614.366	14.6
614.558	14.84
614.75	14.7
614.941	14.73
615.133	14.63
615.325	14.61
615.516	14.26
615.708	14.52
615.9	14.07
616.091	13.89
616.283	13.75
616.475	14.04
616.666	13.72
616.858	13.63
617.049	13.84
617.241	14.1
617.432	13.63
617.624	14.07
617.815	14.04
618.007	14.2
618.198	14.26
618.39	14.62
618.581	14.73
618.773	14.84
618.964	14.93
619.155	14.62
619.347	14.54
619.538	15.08
619.729	15.08
619.921	14.91
620.112	15.17
620.303	15.15
620.494	14.88
620.686	14.78
620.877	14.82
621.068	15.18
621.259	15.11
621.451	15.23
621.642	15.06
621.833	14.86
622.024	14.54
622.215	14.18
622.406	14.17
622.597	14.19
622.788	13.93
622.98	14.19
623.171	13.97
623.362	14.69
623.553	14.8
623.744	14.91
623.935	15.2
624.126	15.46
624.317	15.46
624.508	15.46
624.698	15.49
624.889	15.98
625.08	15.88
625.271	15.98
625.462	15.56
625.653	15.28
625.844	15.25
626.034	14.84
626.225	14.93
626.416	15.01
626.607	15.17
626.798	15.2
626.988	14.91
627.179	14.83
627.37	14.86
627.56	14.85
627.751	15.03
627.942	15.11
628.132	15.46
628.323	15.34
628.514	15.36
628.704	15.24
628.895	15.28
629.085	15.29
629.276	15.55
629.466	15.43
629.657	15.42
629.847	15.57
630.038	15.09
630.228	14.72
630.419	14.89
630.609	14.85
630.8	14.93
630.99	15.02
631.181	15.07
631.371	14.9
631.561	15.1
631.752	15.48
631.942	15.3
632.132	15.6
632.323	15.57
632.513	15.47
632.703	15.38
632.893	15.29
633.084	15.24
633.274	15.37
633.464	15.43
633.654	15.41
633.844	14.77
634.034	14.72
634.225	14.73
634.415	14.75
634.605	14.64
634.795	15.04
634.985	15.24
635.175	14.98
635.365	14.7
635.555	14.54
635.745	14.38
635.935	14.35
636.125	14.26
636.315	14.34
636.505	14.65
636.695	14.67
636.885	14.32
637.075	14.11
637.265	14.45
637.455	14.72
637.644	15.17
637.834	15.42
638.024	15.79
638.214	16.11
638.404	16.28
638.593	16.28
638.783	16.45
638.973	16.73
639.163	16.89
639.352	16.9
639.542	16.72
639.732	16.33
639.921	16.43
640.111	16.52
640.301	16.11
640.49	16
640.68	15.89
640.87	15.89
641.059	15.74
641.249	15.33
641.438	15.01
641.628	15.17
641.817	15.19
642.007	14.74
642.196	14.77
642.386	14.85
642.575	14.45
642.764	14.52
642.954	14.52
643.143	14.39
643.333	14.7
643.522	14.78
643.711	15
643.901	14.96
644.09	15.22
644.279	15.32
644.469	15.35
644.658	15.69
644.847	15.8
645.036	16.14
645.226	16.5
645.415	16.29
645.604	16.24
645.793	16.1
645.982	16.31
646.171	16.18
646.361	15.99
646.55	16.32
646.739	16.48
646.928	16.12
647.117	15.69
647.306	15.65
647.495	16.01
647.684	16.63
647.873	16.65
648.062	16.43
648.251	16.71
648.44	16.3
648.629	16.29
648.818	15.62
649.007	16.01
649.196	16.3
649.384	16.14
649.573	16.02
649.762	15.45
649.951	15.19
650.14	15.15
650.328	14.76
650.517	14.7
650.706	14.18
650.895	14.67
651.083	14.85
651.272	14.43
651.461	14.32
651.65	14.06
651.838	14.07
652.027	14.14
652.216	14.03
652.404	14.6
652.593	14.93
652.781	15.1
652.97	15.1
653.158	14.86
653.347	14.98
653.535	15.16
653.724	15.17
653.912	15.32
654.101	15.41
654.289	15.22
654.478	14.57
654.666	14.44
654.855	14.4
655.043	14.22
655.231	14
655.42	14.13
655.608	14.36
655.796	14.58
655.985	14.57
656.173	15.07
656.361	15.45
656.55	15.48
656.738	15.75
656.926	16.09
657.114	16.36
657.302	16.25
657.491	16.32
657.679	16.01
657.867	15.8
658.055	15.72
658.243	15.31
658.431	15.63
658.619	15.48
658.807	15.49
658.996	15.15
659.184	14.98
659.372	15.31
659.56	15.14
659.748	15.17
659.936	15.6
660.124	15.51
660.311	15.43
660.499	15
660.687	15.23
660.875	15.14
661.063	15.21
661.251	15.58
661.439	15.6
661.627	15.84
661.814	15.7
662.002	15.44
662.19	15.63
662.378	15.51
662.565	15.67
662.753	15.6
662.941	15.65
663.129	15.86
663.316	15.53
663.504	15.28
663.692	15.06
663.879	15.59
664.067	15.78
664.254	15.76
664.442	16.09
664.63	16.04
664.817	16.45
665.005	16.82
665.192	16.5
665.38	16.61
665.567	16.88
665.755	16.84
665.942	16.6
666.13	16.42
666.317	16.36
666.504	16.04
666.692	15.52
666.879	15.19
667.067	14.65
667.254	14.66
667.441	14.75
667.629	14.48
667.816	14.71
668.003	14.89
668.19	14.78
668.378	14.52
668.565	14.78
668.752	15.51
668.939	15.67
669.127	15.64
669.314	16.18
669.501	16.01
669.688	15.69
669.875	15.33
670.062	15.23
670.249	15.27
670.436	15.42
670.623	15.3
670.81	15.14
670.997	14.98
671.184	14.81
671.371	14.71
671.558	14.61
671.745	14.95
671.932	15.12
672.119	14.86
672.306	14.63
672.493	14.51
672.68	14.91
672.867	15.03
673.054	15.03
673.24	15.49
673.427	15.42
673.614	15.73
673.801	15.84
673.988	15.5
674.174	15.59
674.361	15.66
674.548	15.73
674.734	15.82
674.921	15.37
675.108	15.57
675.294	15.46
675.481	15.28
675.668	15.07
675.854	14.81
676.041	15.6
676.227	15.81
676.414	15.93
676.601	16.2
676.787	15.8
676.974	16.15
677.16	15.98
677.347	16.17
677.533	16.06
677.719	16.05
677.906	16
678.092	15.88
678.279	15.58
678.465	15.61
678.651	15.55
678.838	15.18
679.024	15.12
679.21	15.37
679.397	15.42
679.583	15.61
679.769	15.41
679.955	15.87
680.142	15.77
680.328	15.75
680.514	16.06
680.7	16.1
680.886	16.42
681.073	16.75
681.259	16.43
681.445	16.59
681.631	16.58
681.817	16.85
682.003	16.76
682.189	16.76
682.375	16.65
682.561	16.23
682.747	16.35
682.933	16.23
683.119	16.15
683.305	16.5
683.491	16.17
683.677	16.4
683.863	16.18
684.049	15.8
684.235	15.86
684.42	16.31
684.606	16.69
684.792	16.92
684.978	17.41
685.164	17.04
685.349	16.86
685.535	16.65
685.721	16.3
685.907	16.72
686.092	16.98
686.278	17.24
686.464	16.8
686.649	16.22
686.835	15.81
687.021	15.6
687.206	15.67
687.392	15.39
687.577	15.54
687.763	15.1
687.948	15.24
688.134	14.91
688.319	14.67
688.505	14.9
688.69	14.73
688.876	14.32
689.061	14.06
689.247	14.2
689.432	13.65
689.618	13.99
689.803	14.83
689.988	14.19
690.174	14.29
690.359	14.1
690.544	14.28
690.73	14.53
690.915	14.9
691.1	15.18
691.285	15.43
691.471	16.84
691.656	16.48
691.841	15.98
692.026	15.95
692.211	16.28
692.396	15.97
692.582	16.33
692.767	16.38
692.952	16.12
693.137	16.16
693.322	15.75
693.507	15.54
693.692	15.94
693.877	16.49
694.062	16.19
694.247	15.91
694.432	16.21
694.617	15.6
694.802	15.36
694.987	15.85
695.172	15.91
695.357	15.44
695.541	15.21
695.726	14.66
695.911	14.53
696.096	15.07
696.281	15.76
696.466	16.06
696.65	16.55
696.835	16.88
697.02	17.03
697.204	16.53
697.389	17.23
697.574	16.75
697.759	16.89
697.943	17.18
698.128	17.04
698.312	16.56
698.497	16.22
698.682	15.81
698.866	16.31
699.051	16.17
699.235	16.59
699.42	16.41
699.604	16.69
699.789	16.6
699.973	16.02
700.158	16.1
700.342	16.42
700.527	16.93
700.711	16.98
700.895	16.26
701.08	16.12
701.264	15.69
701.448	16.19
701.633	16.17
701.817	16.76
702.001	17.15
702.186	17.09
702.37	17.05
702.554	16.59
702.738	17.11
702.923	18.03
703.107	18
703.291	18.12
703.475	17
703.659	16.73
703.843	16.58
704.027	16.02
704.212	16.55
704.396	16.86
704.58	17.06
704.764	16.81
704.948	15.96
705.132	16.55
705.316	16.71
705.5	17.21
705.684	16.59
705.868	16.39
706.052	16.13
706.235	15.64
706.419	14.94
706.603	14.97
706.787	14.78
706.971	15.31
707.155	15.63
707.339	15.46
707.522	15.22
707.706	15.94
707.89	16.01
708.074	16.45
708.257	16.5
708.441	16.79
708.625	16.37
708.808	16.83
708.992	16.91
709.176	16.21
709.359	16.56
709.543	17.09
709.727	17.3
709.91	16.68
710.094	16.5
710.277	16.53
710.461	16.84
710.644	16.71
710.828	15.87
711.011	15.47
711.195	15.29
711.378	15.9
711.562	15.72
711.745	15.92
711.928	16.66
712.112	16.99
712.295	17.22
712.478	16.36
712.662	16.84
712.845	17.5
713.028	17.24
713.212	17.77
713.395	17.24
713.578	16.89
713.761	16.23
713.945	15.63
714.128	15.49
714.311	15.28
714.494	15.99
714.677	16
714.86	16.34
715.043	17.31
715.227	17.06
715.41	16.84
715.593	16.88
715.776	17.33
715.959	17.24
716.142	17.58
716.325	17.56
716.508	17.3
716.691	17.23
716.874	17.18
717.057	16.89
717.239	17.64
717.422	17.88
717.605	18.33
717.788	18.11
717.971	19.78
718.154	19.36
718.337	19.89
718.519	20.29
718.702	20.76
718.885	20.38
719.068	20.62
719.25	20.46
719.433	19.82
719.616	18.77
719.798	19.71
719.981	18.43
720.164	19.58
720.346	19.27
720.529	17.71
720.712	16.53
720.894	16.16
721.077	15.26
721.259	14.54
721.442	14.79
721.624	15.89
721.807	15.77
721.989	15.77
722.172	15.08
722.354	14.73
722.537	16.67
722.719	16.66
722.901	17.38
723.084	17.56
723.266	17.79
723.448	17.4
723.631	16.92
723.813	17.04
723.995	17.75
724.178	17.56
724.36	18.15
724.542	17.47
724.724	18.62
724.907	18.2
725.089	18.26
725.271	17.21
725.453	17.53
725.635	18.21
725.817	16.53
725.999	15.58
726.181	15.84
726.364	16.61
726.546	16.65
726.728	16.63
726.91	16.89
727.092	16.65
727.274	18.55
727.456	18.53
727.638	18.27
727.819	18.64
728.001	19.53
728.183	18.78
728.365	18.09
728.547	17.83
728.729	17.61
728.911	17.76
729.093	17.67
729.274	15.17
729.456	15.08
729.638	14.83
729.82	14.54
730.001	13.97
730.183	15.41
730.365	14.73
730.546	14.83
730.728	15.19
730.91	15.24
731.091	15.65
731.273	16.88
731.455	17.65
731.636	17.65
731.818	19.06
731.999	19.47
732.181	18.56
732.362	19.01
732.544	19.26
732.725	18.34
732.907	18.17
733.088	18.11
733.27	18.65
733.451	18.41
733.633	18.47
733.814	17.92
733.995	17.93
734.177	19.48
734.358	20.16
734.539	19.82
734.721	20.44
734.902	20.57
735.083	21.14
735.264	20.44
735.446	20
735.627	19.14
735.808	19.43
735.989	18.48
736.17	16.64
736.351	15.06
736.533	15.47
736.714	15.94
736.895	14.75
737.076	13.38
737.257	13.48
737.438	14.37
737.619	15.83
737.8	16.61
737.981	17.79
738.162	18.27
738.343	19.92
738.524	20.46
738.705	19.37
738.886	19.85
739.067	20.86
739.247	21.04
739.428	19.9
739.609	19.57
739.79	19.13
739.971	18.54
740.151	18.26
740.332	16.98
740.513	16.8
740.694	17.83
740.874	17.97
741.055	17.86
741.236	17.48
741.417	19.38
741.597	18.42
741.778	18.14
741.958	18.33
742.139	18.5
742.32	19.67
742.5	19.12
742.681	18.89
742.861	17.81
743.042	17.45
743.222	18.28
743.403	17.42
743.583	18.15
743.764	17.29
743.944	17.05
744.124	16.08
744.305	14.52
744.485	14.2
744.666	13.81
744.846	15.09
745.026	16.14
745.207	15.51
745.387	15.41
745.567	16.11
745.747	16.98
745.928	16.62
746.108	18.71
746.288	20.21
746.468	22.03
746.648	22.35
746.829	23.06
747.009	21.91
747.189	23.09
747.369	23.63
747.549	23.72
747.729	24.97
747.909	24.36
748.089	22.77
748.269	22.26
748.449	22
748.629	21.92
748.809	21.59
748.989	21.15
749.169	20.14
749.349	19.6
749.529	19.46
749.709	18.7
749.889	19.72
750.068	20.4
750.248	19.72
750.428	18.54
750.608	17.71
750.788	17.85
750.967	17.55
751.147	17.39
751.327	17.85
751.507	16.57
751.686	15.45
751.866	14.4
752.046	13.81
752.225	14.23
752.405	14.7
752.585	15.6
752.764	15.64
752.944	17.08
753.123	17.77
753.303	17.44
753.482	18.06
753.662	19.19
753.841	19.36
754.021	19.59
754.2	18.49
754.38	18.62
754.559	18.75
754.739	18.9
754.918	18.87
755.097	17.94
755.277	17.58
755.456	17.15
755.635	15.67
755.815	16.09
755.994	16.4
756.173	17.28
756.352	16.23
756.532	14.41
756.711	13.9
756.89	13.36
757.069	13.52
757.248	12.49
757.427	13.29
757.607	13.59
757.786	14.05
757.965	14.12
758.144	14.08
758.323	13.71
758.502	14.88
758.681	14.82
758.86	15.1
759.039	16.11
759.218	17.06
759.397	16.83
759.576	16.91
759.755	16.76
759.934	16.73
760.113	17.62
760.291	18.17
760.47	19.92
760.649	19.31
760.828	19.05
761.007	18.35
761.186	18.68
761.364	18.83
761.543	19.52
761.722	20.17
761.901	19.81
762.079	18.49
762.258	19
762.437	16.98
762.615	17.92
762.794	17.69
762.972	17.46
763.151	16.87
763.33	16.32
763.508	15.99
763.687	15.61
763.865	15.28
764.044	15.83
764.222	15.88
764.401	16.53
764.579	15.65
764.758	15.87
764.936	15.9
765.114	15.77
765.293	16.67
765.471	16.95
765.65	16.71
765.828	17.21
766.006	16.6
766.184	17.12
766.363	17.59
766.541	17.88
766.719	17.27
766.898	18.2
767.076	17.82
767.254	17.97
767.432	17.79
767.61	18.25
767.788	18.28
767.967	18.96
768.145	17.88
768.323	17.67
768.501	17.72
768.679	18.21
768.857	17.97
769.035	20.54
769.213	19.63
769.391	20.25
769.569	19.83
769.747	18.79
769.925	18.93
770.103	19.49
770.281	21.35
770.459	21.07
770.636	21.52
770.814	20.62
770.992	18.18
771.17	17.95
771.348	18
771.525	18.39
771.703	19.58
771.881	20.83
772.059	21.09
772.236	18.91
772.414	18.41
772.592	19.06
772.769	19.13
772.947	20.65
773.125	21.54
773.302	20.93
773.48	20.12
773.657	20.86
773.835	21.45
774.013	21.46
774.19	21.96
774.368	24.39
774.545	23.85
774.723	24.53
774.9	24.08
775.077	24.64
775.255	25.19
775.432	23.79
775.61	22.45
775.787	20.66
775.964	21.34
776.142	21.81
776.319	21.84
776.496	21.25
776.674	19.5
776.851	17.26
777.028	18.6
777.205	18.03
777.382	18.81
777.56	21.28
777.737	22.85
777.914	21.64
778.091	20.85
778.268	21.46
778.445	22.33
778.622	24.8
778.8	26.7
778.977	23.94
779.154	23.57
779.331	24.3
779.508	23.79
779.685	22.36
779.862	24.13
780.038	23.41
780.215	21.66
780.392	22.68
780.569	19.79
780.746	20.13
780.923	21.08
781.1	23.09
781.277	24.1
781.453	24.76
781.63	26.01
781.807	22.31
781.984	23.15
782.16	24.89
782.337	24.29
782.514	27.6
782.691	27.2
782.867	29.37
783.044	26.79
783.221	27.65
783.397	26.77
783.574	26.14
783.75	26.46
783.927	25.73
784.103	22.66
784.28	19.03
784.456	18.5
784.633	21.64
784.809	18.84
784.986	17.75
785.162	16.34
785.339	15.33
785.515	15.83
785.692	18.22
785.868	18.99
786.044	21.02
786.221	22.46
786.397	22.27
786.573	19.26
786.749	21.59
786.926	24.29
787.102	24.94
787.278	26.33
787.454	24.53
787.631	24.36
787.807	24.06
787.983	22.08
788.159	22.01
788.335	21.36
788.511	20.83
788.687	19.02
788.863	18.63
789.039	18.01
789.216	17.18
789.392	16.44
789.568	15
789.744	16
789.919	17.89
790.095	20.15
790.271	19.09
790.447	22.35
790.623	24.58
790.799	24.91
790.975	26.95
791.151	26.6
791.327	27.48
791.502	26.04
791.678	22.93
791.854	21.1
792.03	21.42
792.205	22.29
792.381	19.33
792.557	14.1
792.733	14.81
792.908	9.43
793.084	6.87
793.259	7.96
793.435	12.19
793.611	12.74
793.786	16.14
793.962	14.38
794.137	12.87
794.313	14.44
794.488	15.21
794.664	16.5
794.839	19.6
795.015	20.9
795.19	22.1
795.366	19.02
795.541	19.34
795.716	18.3
795.892	17.94
796.067	17.4
796.242	13.76
796.418	15.78
796.593	15.26
796.768	17.26
796.944	20.25
797.119	19.6
797.294	22.85
797.469	23.43
797.644	21.37
797.82	19.46
797.995	22.7
798.17	26.02
798.345	25.22
798.52	25.15
798.695	21.47
798.87	21.45
799.045	20.02
799.22	20.1
799.395	20.71
799.57	23.32
799.745	25.81
799.92	24.03
800.095	22.33
800.27	24.46
800.445	22.06
800.62	24.21
800.795	23.28
800.97	23.77
801.145	24.37
801.319	26.42
801.494	25.93
801.669	24.94
801.844	24.22
802.018	25.06
802.193	20.49
802.368	20.83
802.543	22
802.717	23.37
802.892	21.8
803.067	21.07
803.241	18.77
803.416	19.73
803.59	20.52
803.765	20.14
803.94	24.47
804.114	27.23
804.289	30.5
804.463	28.34
804.638	26.06
804.812	26.71
804.986	25.97
805.161	27.07
805.335	26.29
805.51	27.58
805.684	25.76
805.858	21.33
806.033	22.81
806.207	19.54
806.381	22.08
806.556	22.67
806.73	23.2
806.904	22.65
807.078	21.9
807.253	23.43
807.427	21.9
807.601	24.69
807.775	27.77
807.949	28.14
808.123	27.89
808.298	26.22
808.472	23.99
808.646	22.71
808.82	25.32
808.994	25.62
809.168	23.86
809.342	25.72
809.516	22.4
809.69	21.65
809.864	21.14
810.038	21.03
810.212	19.17
810.385	22.87
810.559	24.11
810.733	22.37
810.907	22.63
811.081	20.34
811.255	17.55
811.428	23.27
811.602	23.66
811.776	23.34
811.95	22.6
812.123	25.14
812.297	21.5
812.471	17.93
812.644	19.9
812.818	19.39
812.992	19.76
813.165	21.44
813.339	17.45
813.512	10.29
813.686	3.35
813.86	5.34
814.033	2.85
814.207	7.49
814.38	17.38
814.554	10.83
814.727	10.77
814.9	8.91
815.074	8.59
815.247	12.4
815.421	16.6
815.594	25.31
815.767	29.39
815.941	28.22
816.114	25.1
816.287	23.42
816.46	27.53
816.634	23.67
816.807	26.92
816.98	27.49
817.153	29.83
817.327	31.33
817.5	26.18
817.673	20.35
817.846	23.68
818.019	25.04
818.192	25.7
818.365	23.3
818.538	29.25
818.711	25.49
818.884	25.13
819.057	23.22
819.23	24.14
819.403	26.35
819.576	29.72
819.749	25.88
819.922	27.37
820.095	24.3
820.268	20.44
820.441	20.16
820.614	24.5
820.786	22.9
820.959	22.51
821.132	21.41
821.305	19.7
821.477	18.65
821.65	19.11
821.823	17.79
821.996	18.07
822.168	18.71
822.341	17.49
822.514	16.59
822.686	17.35
822.859	17.19
823.031	17.9
823.204	17.77
823.376	18.13
823.549	19.18
823.722	19.76
823.894	20.33
824.067	20.64
824.239	21.15
824.411	21.48
824.584	21.04
824.756	20.41
824.929	20.16
825.101	22.24
825.273	21.21
825.446	20.12
825.618	20.61
825.79	21.09
825.963	22.01
826.135	23.05
826.307	22.58
826.479	23.09
826.652	24.02
826.824	23.63
826.996	21.63
827.168	21.67
827.34	20.35
827.512	18.85
827.684	18.4
827.856	17.45
828.029	16.28
828.201	15.73
828.373	15.39
828.545	16.5
828.717	16.86
828.889	17.63
829.061	19.02
829.232	20.42
829.404	21.97
829.576	21.8
829.748	22.72
829.92	24.8
830.092	26.38
830.264	25.72
830.436	22.68
830.607	23.96
830.779	24.19
830.951	23.44
831.123	20.96
831.294	18.75
831.466	19.59
831.638	20.68
831.809	18.76
831.981	19.26
832.153	20.82
832.324	22.97
832.496	19.23
832.667	16.32
832.839	17.86
833.011	18.48
833.182	17.61
833.354	14.5
833.525	16.3
833.697	11.16
833.868	9.94
834.039	10.46
834.211	12.13
834.382	11.92
834.554	13.46
834.725	12.83
834.896	15.39
835.068	15.38
835.239	15.65
835.41	13.81
835.581	17.86
835.753	20.18
835.924	21.94
836.095	20.06
836.266	22.45
836.438	22.43
836.609	20.34
836.78	19.09
836.951	20.77
837.122	19.61
837.293	21.89
837.464	23.57
837.635	21.66
837.806	15.94
837.977	12.92
838.148	10.82
838.319	10.94
838.49	14.03
838.661	17.24
838.832	20.36
839.003	26.97
839.174	25.69
839.345	23.55
839.516	23
839.687	26.75
839.857	34.15
840.028	42.42
840.199	40.03
840.37	41.23
840.54	34.8
840.711	34.55
840.882	30.88
841.053	31.38
841.223	28.01
841.394	29.01
841.564	26.83
841.735	26.07
841.906	17.02
842.076	22.49
842.247	20.81
842.417	25.82
842.588	28.86
842.758	31.74
842.929	28.27
843.099	30.85
843.27	32.45
843.44	33.84
843.611	33.71
843.781	32.09
843.951	27.52
844.122	34.57
844.292	24.39
844.462	17.83
844.633	11.41
844.803	0.48
844.973	7.46
845.144	-3.28
845.314	-2.73
845.484	2.12
845.654	17.01
845.824	22.01
845.995	23.8
846.165	32.81
846.335	26.48
846.505	17.22
846.675	24.53
846.845	18.99
847.015	25.78
847.185	27.9
847.355	26.91
847.525	20.53
847.695	17.07
847.865	-3.25
848.035	-15.25
848.205	15.34
848.375	26.84
848.545	33.28
848.715	25.19
848.884	25.64
849.054	25.75
849.224	31.49
849.394	27.65
849.564	18.61
849.733	26.89
849.903	43.73
850.073	35.97
850.243	37.02
850.412	33.81
850.582	43.72
850.752	37.96
850.921	38.27
851.091	43.39
851.26	45.53
851.43	49.88
851.599	49.34
851.769	38.53
851.939	7.46
852.108	0.61
852.278	-5.45
852.447	-17.56
852.616	-14.07
852.786	-24.97
852.955	-20.9
853.125	-45.37
853.294	-41.04
853.463	-23.44
853.633	-20.08
853.802	-0.7
853.971	11.88
854.141	17.69
854.31	22.25
854.479	21.24
854.648	21.46
854.818	19.86
854.987	39.17
855.156	46.09
855.325	44.42
855.494	49.26
855.663	57.39
855.832	43.86
856.001	54.91
856.171	58.18
856.34	71.69
856.509	79.39
856.678	70.51
856.847	46.53
857.016	38.87
857.185	22.51
857.353	25.27
857.522	13.63
857.691	38.22
857.86	25.24
858.029	4.64
858.198	-4.08
858.367	-14.32
858.535	3.93
858.704	25.16
858.873	37.98
859.042	48.24
859.21	41.34
859.379	40.82
859.548	32.68
859.717	32.37
859.885	43.46
860.054	44.85
860.222	45.23
860.391	45.46
860.56	37.53
860.728	24.19
860.897	27.25
861.065	34.03
861.234	44.98
861.402	37.43
861.571	31.93
861.739	28.61
861.908	33.57
862.076	33.65
862.244	35.4
862.413	37.76
862.581	55.05
862.749	47.66
862.918	32.57
863.086	26.53
863.254	30.43
863.423	35.88
863.591	40.31
863.759	40.74
863.927	37.47
864.096	38.98
864.264	45.16
864.432	35.82
864.6	44.42
864.768	57.5
864.936	50.01
865.104	62.11
865.272	70.27
865.44	67.25
865.608	77.98
865.776	87.28
865.944	69.18
866.112	55.4
866.28	50.59
866.448	74.54
866.616	55.32
866.784	57.99
866.952	38.48
867.12	23.05
867.288	34.11
867.455	20.08
867.623	2.5
867.791	11.29
867.959	37.08
868.127	34.33
868.294	24.89
868.462	17.59
868.63	9.93
868.797	18.24
868.965	21.65
869.133	15.52
869.3	19.35
869.468	22.38
869.636	25.88
869.803	12.16
869.971	5.71
870.138	7.82
870.306	20.07
870.473	25.54
870.641	18.74
870.808	17.84
870.975	19.83
871.143	6.54
871.31	11.69
871.478	14.98
871.645	33.01
871.812	34.44
871.98	28.58
872.147	22.48
872.314	36.06
872.482	39.89
872.649	35.78
872.816	22.38
872.983	32.44
873.15	33.06
873.318	12.98
873.485	9.83
873.652	79.46
873.819	70.93
873.986	65.85
874.153	49.54
874.32	38.19
874.487	45.34
874.654	39.07
874.821	49.24
874.988	55.07
875.155	45.16
875.322	14.91
875.489	-53.05
875.656	-88.78
875.823	-62.96
875.99	-46.73
876.157	-33.28
876.324	8.39
876.49	41.4
876.657	50.37
876.824	39.07
876.991	51.44
877.157	63.34
877.324	75.3
877.491	78.3
877.658	65.51
877.824	41.35
877.991	50.69
878.157	40.74
878.324	26.07
878.491	29.95
878.657	31.5
878.824	21.94
878.99	0.77
879.157	-12.62
879.323	17.23
879.49	41.53
879.656	50.54
879.823	24.89
879.989	22.28
880.156	24.58
880.322	8.63
880.488	18.32
880.655	18.94
880.821	12.83
880.987	13.8
881.154	19.32
881.32	13.17
881.486	20.53
881.652	26.22
881.819	26.13
881.985	25.04
882.151	24.22
882.317	24.87
882.483	26.64
882.649	29.27
882.816	28.8
882.982	32.4
883.148	34.93
883.314	33.36
883.48	33.72
883.646	31.39
883.812	30.38
883.978	31.24
884.144	31.09
884.31	32.37
884.476	30.88
884.642	26.59
884.807	21.27
884.973	19.33
885.139	19.77
885.305	19.17
885.471	20.95
885.637	18.2
885.802	19.21
885.968	16.82
886.134	13
886.3	13.11
886.465	19.66
886.631	19.8
886.797	20.63
886.962	23.93
887.128	21.01
887.293	18.49
887.459	28.99
887.625	31.45
887.79	31.76
887.956	32.09
888.121	36.39
888.287	39.5
888.452	44.05
888.618	43.85
888.783	34.45
