Data from 2938056_Reflection_2.txt Node
Date: Sun Jul 12 14:01:47 EDT 2015
User: robert
Spectrometer: USB4E03001
Autoset integration time: false
Trigger mode: 4
Integration Time (sec): 1.000000E-1
Scans to average: 10
Electric dark correction enabled: true
Nonlinearity correction enabled: false
Boxcar width: 5
Stray light correction enabled: false
XAxis mode: Wavelengths
Stop averaging: false
Number of Pixels in Spectrum: 3648
>>>>>Begin Spectral Data<<<<<
177.566	148.31
177.785	185.58
178.005	165.9
178.225	20460
178.445	220.6
178.665	382.49
178.885	65.3
179.105	-281.74
179.324	-123.12
179.544	-48.33
179.764	-153.23
179.984	-618.57
180.204	778.72
180.423	385.77
180.643	-324.1
180.863	-250.69
181.083	-579.58
181.302	-217.73
181.522	-46.61
181.742	-37.41
181.961	-307.28
182.181	-132.45
182.401	-2189.81
182.621	-78.12
182.84	-77.25
183.06	-152.17
183.279	-345.82
183.499	-96.87
183.719	-72.79
183.938	-145.53
184.158	-89.39
184.377	-12.05
184.597	-63.69
184.816	0.36
185.036	9.45
185.256	-28.81
185.475	-61.63
185.695	-48.78
185.914	-34.59
186.134	-93.16
186.353	-29.04
186.572	-33.57
186.792	-49.09
187.011	-26.38
187.231	-45.55
187.45	-94.64
187.67	-114.67
187.889	-73.93
188.108	-57.88
188.328	-65.34
188.547	-57.38
188.766	-90.26
188.986	-214.84
189.205	-159.05
189.424	-210.74
189.644	-96.88
189.863	-64.73
190.082	-37.94
190.302	-32.15
190.521	-37.51
190.74	-25.11
190.959	-15.9
191.178	11.51
191.398	27.45
191.617	44.74
191.836	59.64
192.055	86.43
192.274	57.39
192.494	57.11
192.713	60.09
192.932	61.62
193.151	54.96
193.37	122.14
193.589	-4.92
193.808	-222.35
194.027	775.16
194.246	239.01
194.465	586.52
194.685	1009.52
194.904	254.11
195.123	329.72
195.342	-925.59
195.561	-268.68
195.78	-1155.8
195.999	9057.14
196.218	-467.81
196.436	-389.64
196.655	2494.78
196.874	-386.95
197.093	-222.89
197.312	-159.54
197.531	-141.68
197.75	-369.53
197.969	661.35
198.188	2659.42
198.407	1152.17
198.625	356.78
198.844	1026.84
199.063	-1318.16
199.282	-628.14
199.501	1213.49
199.719	-582.37
199.938	-327.82
200.157	630.22
200.376	-322.12
200.594	-110.65
200.813	-237.1
201.032	-289.83
201.251	-120.09
201.469	-78.25
201.688	-295.14
201.907	-115.47
202.125	-293.78
202.344	-160.98
202.563	-28.72
202.781	-36.75
203	-103.27
203.218	-51.66
203.437	-32.56
203.656	-6.8
203.874	-27.86
204.093	-35.45
204.311	-57.99
204.53	-90.08
204.748	-75.56
204.967	-741.07
205.185	-401.83
205.404	-120.18
205.622	-159.71
205.841	-90.69
206.059	-63.82
206.278	4.28
206.496	-4.02
206.715	30.08
206.933	62.61
207.151	70.8
207.37	69.14
207.588	76.04
207.806	70.11
208.025	78.07
208.243	103.13
208.461	50.28
208.68	19.72
208.898	115.43
209.116	44.36
209.335	25.69
209.553	22.63
209.771	28.73
209.989	202.53
210.208	547.45
210.426	-8.85
210.644	-19.09
210.862	-16.2
211.081	8.72
211.299	-4.93
211.517	-65.87
211.735	-19.15
211.953	-43.66
212.171	-28.35
212.39	-6.98
212.608	-34.24
212.826	-114.71
213.044	-60.7
213.262	-66.79
213.48	-94.93
213.698	-37.28
213.916	-29.67
214.134	-85.52
214.352	-80.08
214.57	-195.74
214.788	-340.97
215.006	-620.71
215.224	-141.41
215.442	-157.4
215.66	-171.56
215.878	-192.78
216.096	-160.69
216.314	-138.59
216.532	-102.47
216.75	-175.03
216.968	-161.21
217.185	-256.06
217.403	-241.98
217.621	-196.44
217.839	-464.01
218.057	-546.61
218.275	-541.59
218.492	-2779.77
218.71	-1784.97
218.928	-1976.61
219.146	-273.46
219.363	-211.95
219.581	-73.78
219.799	-57.92
220.017	-9.62
220.234	13.48
220.452	19.26
220.67	19.74
220.887	22.38
221.105	23.63
221.323	22.86
221.54	20.91
221.758	21.39
221.976	12.06
222.193	27.08
222.411	19.3
222.629	30.69
222.846	11.43
223.064	-11.11
223.281	-43.95
223.499	-35.8
223.716	-24.55
223.934	-47.53
224.151	-34.4
224.369	-4.65
224.586	-15.37
224.804	-25.46
225.021	-33.18
225.239	-43.54
225.456	-21.46
225.674	-7.77
225.891	-4.9
226.108	-6.5
226.326	5.29
226.543	-2.63
226.76	-19.83
226.978	-6.08
227.195	2.69
227.413	1.15
227.63	13
227.847	16.44
228.064	17.96
228.282	12.42
228.499	17.69
228.716	15.47
228.934	21.27
229.151	20.52
229.368	19.33
229.585	17.61
229.802	17.35
230.02	16.08
230.237	14.04
230.454	15.17
230.671	16.87
230.888	13.17
231.105	12.76
231.323	8.08
231.54	12.89
231.757	11.02
231.974	12.23
232.191	15.33
232.408	17.17
232.625	12.46
232.842	16.19
233.059	16.24
233.276	17.69
233.493	18.2
233.71	17.89
233.927	10.61
234.144	10.13
234.361	9.29
234.578	1.68
234.795	-3.02
235.012	6.42
235.229	-9.46
235.446	-7.58
235.663	-9.94
235.879	-10.31
236.096	-14.07
236.313	-6.3
236.53	-4
236.747	0.88
236.964	4.61
237.181	6.94
237.397	5.61
237.614	8.23
237.831	10.88
238.048	13.45
238.264	15.64
238.481	13.81
238.698	8.87
238.915	6.13
239.131	1.1
239.348	2.54
239.565	0.97
239.781	0.68
239.998	1.04
240.215	-5.89
240.431	-1.74
240.648	-1.29
240.865	2.54
241.081	8.26
241.298	9.09
241.514	9.07
241.731	8.48
241.947	9.38
242.164	8.7
242.38	10.36
242.597	13.74
242.814	13.75
243.03	14.43
243.246	13.76
243.463	10.94
243.679	12.45
243.896	12.75
244.112	12.47
244.329	12.95
244.545	13.79
244.762	12.59
244.978	10.63
245.194	10.4
245.411	8.69
245.627	10.68
245.843	14.34
246.06	14.07
246.276	15.09
246.492	14.73
246.709	14.58
246.925	15.05
247.141	14.97
247.357	15.88
247.574	15.47
247.79	15.52
248.006	14.9
248.222	14.59
248.439	14.03
248.655	13.17
248.871	14.15
249.087	13.79
249.303	12.83
249.519	12.6
249.736	11.79
249.952	10.96
250.168	10.6
250.384	8.43
250.6	7.96
250.816	6.22
251.032	6.12
251.248	6.09
251.464	6.14
251.68	6.54
251.896	6.67
252.112	5.87
252.328	6.53
252.544	6.21
252.76	8.37
252.976	7.34
253.192	6.92
253.408	5.24
253.624	3.18
253.84	2.44
254.056	3.76
254.272	3.55
254.487	5.32
254.703	3.32
254.919	5.4
255.135	3.45
255.351	6.6
255.567	10.2
255.782	12.36
255.998	10.97
256.214	10.54
256.43	8.05
256.646	5.33
256.861	7.16
257.077	9.06
257.293	8.35
257.508	7.97
257.724	5.28
257.94	4.89
258.155	4.4
258.371	4.84
258.587	6.82
258.802	7.99
259.018	8.85
259.234	7.69
259.449	7.82
259.665	8.43
259.88	8.42
260.096	8.82
260.312	9.04
260.527	9.74
260.743	9.91
260.958	9.84
261.174	9.98
261.389	9.58
261.605	9.24
261.82	9.04
262.036	8.05
262.251	9.84
262.466	10.3
262.682	10.13
262.897	9.41
263.113	9.3
263.328	10.56
263.543	10.77
263.759	10.48
263.974	11.1
264.189	10.55
264.405	9.94
264.62	7.03
264.835	6.72
265.051	7.21
265.266	7.4
265.481	7.81
265.696	6.97
265.912	3.92
266.127	3.86
266.342	2.8
266.557	3.28
266.773	3.41
266.988	4.45
267.203	5.17
267.418	4.74
267.633	6.22
267.848	5.88
268.064	5.71
268.279	7.98
268.494	8.86
268.709	10.75
268.924	10.76
269.139	11.32
269.354	11
269.569	9.2
269.784	9.15
269.999	9.01
270.214	9.54
270.429	9.33
270.644	9.27
270.859	9.3
271.074	9.25
271.289	9.46
271.504	9.5
271.719	10.42
271.934	11.1
272.149	10.54
272.363	8.9
272.578	8.93
272.793	9.04
273.008	8.86
273.223	9.4
273.438	9.09
273.653	9.38
273.867	8.85
274.082	7.27
274.297	8.89
274.512	9.31
274.726	10.72
274.941	11.87
275.156	11.47
275.371	10.39
275.585	10.86
275.8	11.1
276.015	10.81
276.229	12.2
276.444	13.28
276.659	11.76
276.873	11.86
277.088	11.97
277.302	10.59
277.517	9.27
277.732	10.22
277.946	9.09
278.161	8.81
278.375	7.11
278.59	7.01
278.804	6.91
279.019	6.34
279.233	6.72
279.448	6.03
279.662	7.4
279.877	8.2
280.091	8.36
280.306	9.21
280.52	7.89
280.735	8.04
280.949	7.78
281.163	7.25
281.378	8.43
281.592	7.61
281.806	8.06
282.021	7.68
282.235	10.17
282.449	10.93
282.664	10.5
282.878	12.04
283.092	12.61
283.307	12.68
283.521	13.98
283.735	13.1
283.949	12.47
284.164	12.79
284.378	12.53
284.592	12.69
284.806	11.2
285.02	11.54
285.234	10.52
285.449	10.77
285.663	10.24
285.877	9.76
286.091	10.63
286.305	12.42
286.519	12.43
286.733	12.56
286.947	11.2
287.161	11.81
287.375	12.01
287.589	12.92
287.803	12.5
288.017	13.03
288.231	12.16
288.445	11.9
288.659	11.07
288.873	11.2
289.087	9.54
289.301	9.93
289.515	9.79
289.729	9.63
289.943	9.71
290.157	11.31
290.371	11.64
290.584	12.31
290.798	11.99
291.012	12.71
291.226	12.19
291.44	13.99
291.654	13.63
291.867	14.52
292.081	14.8
292.295	14.95
292.509	14.04
292.722	12.84
292.936	13.77
293.15	14.29
293.364	13.53
293.577	14.7
293.791	14.53
294.005	14.76
294.218	13.58
294.432	13.51
294.645	12.44
294.859	13.15
295.073	13.29
295.286	12.95
295.5	12.38
295.713	11.83
295.927	11.48
296.14	12.13
296.354	12.81
296.568	13.16
296.781	13.5
296.994	14.61
297.208	14.26
297.421	14.25
297.635	13.83
297.848	13.81
298.062	13.64
298.275	13.6
298.489	12.88
298.702	13
298.915	13.02
299.129	13.23
299.342	12.04
299.555	12.42
299.769	13.12
299.982	13.85
300.195	14.41
300.409	13.53
300.622	13.96
300.835	14.27
301.048	13.92
301.262	13.22
301.475	13.6
301.688	15.2
301.901	14.19
302.115	14.5
302.328	15.25
302.541	14.8
302.754	16.9
302.967	17.24
303.18	17.67
303.393	17.41
303.607	18.05
303.82	17.86
304.033	18.15
304.246	18.14
304.459	18.14
304.672	18.13
304.885	18.67
305.098	18.33
305.311	17.33
305.524	16.29
305.737	14.71
305.95	14.23
306.163	13.55
306.376	11.47
306.589	12.59
306.802	12.28
307.015	11.23
307.228	10.71
307.44	11.28
307.653	10.81
307.866	11.85
308.079	13.82
308.292	14.55
308.505	16.25
308.718	17.37
308.93	17.13
309.143	16.05
309.356	15.31
309.569	13.73
309.781	13.81
309.994	15.27
310.207	16.47
310.42	16.48
310.632	16.77
310.845	16.37
311.058	16.75
311.27	16
311.483	17.09
311.696	17.17
311.908	18.84
312.121	18.5
312.333	17.5
312.546	16.5
312.759	16.43
312.971	15.57
313.184	13.71
313.396	12.87
313.609	13.51
313.821	13.11
314.034	13.42
314.246	12.25
314.459	12.66
314.671	12.78
314.884	11.76
315.096	10.63
315.309	10.52
315.521	10.91
315.733	11.06
315.946	11.29
316.158	11.31
316.371	12.34
316.583	13.01
316.795	13.08
317.008	13.09
317.22	12.99
317.432	12.61
317.644	13.41
317.857	14.4
318.069	13.39
318.281	12.34
318.494	14.17
318.706	13.54
318.918	14.08
319.13	13.74
319.342	14.28
319.555	15.49
319.767	15.4
319.979	14.36
320.191	14.99
320.403	15.29
320.615	16.29
320.827	15.39
321.039	16.82
321.252	15.89
321.464	15.78
321.676	15.84
321.888	15.23
322.1	16.77
322.312	17.22
322.524	15.74
322.736	15.01
322.948	14.97
323.16	14.28
323.372	12.17
323.584	13.15
323.796	14.22
324.007	13.88
324.219	14.45
324.431	14.55
324.643	14.89
324.855	16.68
325.067	18.84
325.279	19.8
325.491	20.06
325.702	20.16
325.914	19.58
326.126	18.6
326.338	18.57
326.55	17.94
326.761	16.51
326.973	15.52
327.185	13.94
327.396	13.21
327.608	12.94
327.82	12.14
328.032	12
328.243	11.57
328.455	11.97
328.666	13.07
328.878	12.53
329.09	13.96
329.301	15.15
329.513	13.81
329.725	13.62
329.936	13.12
330.148	14.1
330.359	13.95
330.571	16.16
330.782	14.57
330.994	13.19
331.205	13.75
331.417	12.97
331.628	11.79
331.84	12.25
332.051	11.78
332.262	11.53
332.474	10.57
332.685	12.49
332.897	9.99
333.108	11.58
333.319	11.06
333.531	11.63
333.742	11.45
333.953	12.15
334.165	12.66
334.376	11.4
334.587	11.29
334.799	11.8
335.01	10.89
335.221	12.08
335.432	10.61
335.644	10.92
335.855	10.38
336.066	10.83
336.277	10.6
336.488	10.47
336.7	12.27
336.911	12.89
337.122	12.69
337.333	12.53
337.544	13.26
337.755	13.7
337.966	13.57
338.177	13.22
338.388	13.62
338.599	13.82
338.811	13.72
339.022	13.31
339.233	12.06
339.444	11.5
339.655	11.31
339.866	11.19
340.076	11.48
340.287	11.47
340.498	11.9
340.709	10.54
340.92	10.74
341.131	11.12
341.342	11.05
341.553	11.86
341.764	12.71
341.975	13.08
342.185	12.93
342.396	12.06
342.607	12.09
342.818	11.82
343.029	12.79
343.239	12.39
343.45	12.48
343.661	12.92
343.872	12.49
344.082	12.3
344.293	12.59
344.504	11.9
344.714	11.21
344.925	11.89
345.136	12.74
345.346	12.83
345.557	13.63
345.768	13.32
345.978	12.18
346.189	12.75
346.399	12.75
346.61	12.92
346.821	13.77
347.031	14.45
347.242	13.77
347.452	13.79
347.663	13.44
347.873	12.89
348.084	13.53
348.294	13.26
348.504	12.87
348.715	12.55
348.925	11.74
349.136	10.79
349.346	11.34
349.557	11.46
349.767	10.71
349.977	10.41
350.188	10.01
350.398	10.28
350.608	11.52
350.819	11.61
351.029	12.26
351.239	13.13
351.449	13.98
351.66	13.99
351.87	13.68
352.08	13.33
352.29	14.09
352.501	14.85
352.711	14.95
352.921	15.24
353.131	14.59
353.341	13.9
353.552	12.58
353.762	11.7
353.972	11.16
354.182	11.51
354.392	11.78
354.602	11.45
354.812	11.56
355.022	11.04
355.232	10.6
355.442	11.48
355.652	11.73
355.862	12.2
356.072	12.73
356.282	13.41
356.492	12.93
356.702	13.33
356.912	13.68
357.122	13.24
357.332	13.08
357.542	12.7
357.752	12.36
357.962	11.69
358.171	11.19
358.381	10.59
358.591	10.3
358.801	10.91
359.011	10.41
359.221	10.43
359.43	10.32
359.64	10.47
359.85	10.52
360.06	10.27
360.269	10.31
360.479	11.35
360.689	12.24
360.899	12.12
361.108	11.98
361.318	12.28
361.528	12.14
361.737	12.68
361.947	12.24
362.156	12.05
362.366	12.4
362.576	12.72
362.785	12.21
362.995	12.09
363.204	11.9
363.414	11.88
363.623	12.15
363.833	11.68
364.042	11.36
364.252	11.25
364.461	11.75
364.671	11.96
364.88	11.8
365.09	11.91
365.299	11.4
365.509	11.81
365.718	11.77
365.927	10.57
366.137	10.11
366.346	9.54
366.555	10.31
366.765	10.06
366.974	9.72
367.183	10.9
367.393	11.09
367.602	10.38
367.811	10.7
368.021	10.08
368.23	10.98
368.439	11.95
368.648	11.86
368.857	11.88
369.067	11.65
369.276	11.19
369.485	9.99
369.694	9.71
369.903	10.6
370.112	10.22
370.321	11.18
370.531	10.32
370.74	9.97
370.949	10.05
371.158	9.2
371.367	9.34
371.576	9.57
371.785	9.73
371.994	9.8
372.203	9.34
372.412	9.8
372.621	9.55
372.83	10.2
373.039	10
373.248	10.65
373.457	10.55
373.666	10.32
373.874	10.13
374.083	10.27
374.292	9.96
374.501	9.87
374.71	9.19
374.919	8.88
375.128	8.55
375.336	8.28
375.545	8.04
375.754	8.23
375.963	8.32
376.171	7.94
376.38	8.01
376.589	7.79
376.798	6.97
377.006	6.75
377.215	7.02
377.424	7.17
377.632	7.92
377.841	7.86
378.05	8.64
378.258	7.96
378.467	8.68
378.675	8.37
378.884	9.02
379.093	9.91
379.301	10.57
379.51	10.42
379.718	10.11
379.927	9.92
380.135	9.55
380.344	8.58
380.552	9.17
380.761	8.6
380.969	8.69
381.177	8.07
381.386	8.13
381.594	7.87
381.803	7.96
382.011	8.49
382.219	8.4
382.428	8.83
382.636	9.29
382.845	8.88
383.053	8.91
383.261	8.45
383.469	8.64
383.678	8.57
383.886	8.18
384.094	7.63
384.302	7.39
384.511	7.18
384.719	6.76
384.927	6.71
385.135	7.03
385.343	7.06
385.552	7.1
385.76	6.84
385.968	7.05
386.176	7.48
386.384	7.58
386.592	7.7
386.8	7.66
387.008	7.86
387.216	7.88
387.424	8.17
387.633	7.94
387.841	8.18
388.049	8.3
388.257	8.15
388.465	7.86
388.672	8.12
388.88	7.96
389.088	7.71
389.296	7.88
389.504	7.75
389.712	7.06
389.92	6.91
390.128	6.9
390.336	7.05
390.544	7.05
390.751	7.33
390.959	7.3
391.167	7.03
391.375	7.46
391.583	7.21
391.79	7.31
391.998	7.62
392.206	8
392.414	7.93
392.621	7.84
392.829	7.79
393.037	7.89
393.244	7.53
393.452	7.66
393.66	7.3
393.867	7.02
394.075	7.13
394.283	7.13
394.49	6.81
394.698	7.08
394.905	6.93
395.113	6.59
395.32	5.97
395.528	6.09
395.735	6.25
395.943	6.6
396.15	7.18
396.358	6.92
396.565	6.86
396.773	6.69
396.98	6.31
397.188	6.42
397.395	6.51
397.602	7.14
397.81	7.27
398.017	6.98
398.225	6.97
398.432	6.96
398.639	7.06
398.847	7.1
399.054	7.06
399.261	7.1
399.468	6.96
399.676	6.92
399.883	6.65
400.09	6.53
400.297	6.76
400.505	6.5
400.712	5.91
400.919	5.8
401.126	5.91
401.333	6.23
401.54	6.1
401.748	6.46
401.955	6.64
402.162	6.62
402.369	6.55
402.576	6.28
402.783	6.19
402.99	6.3
403.197	5.96
403.404	5.76
403.611	5.76
403.818	5.93
404.025	6.14
404.232	6.1
404.439	6
404.646	6.07
404.853	6.04
405.06	5.99
405.267	6.08
405.474	6.26
405.681	6.06
405.887	6.04
406.094	5.87
406.301	5.56
406.508	5.38
406.715	5.09
406.922	4.68
407.128	4.75
407.335	4.9
407.542	4.83
407.749	5.09
407.955	5.46
408.162	5.4
408.369	5.59
408.575	5.54
408.782	6.01
408.989	6.16
409.195	6.58
409.402	6.63
409.609	6.66
409.815	6.63
410.022	6.28
410.228	6.23
410.435	6.49
410.642	6.44
410.848	6.64
411.055	6.68
411.261	6.83
411.468	6.95
411.674	7.1
411.881	6.79
412.087	6.56
412.294	6.89
412.5	6.79
412.706	6.81
412.913	6.57
413.119	5.92
413.326	5.59
413.532	5.69
413.738	5.27
413.945	5.15
414.151	5.48
414.357	5.63
414.564	5.32
414.77	5.05
414.976	4.85
415.182	4.82
415.389	4.76
415.595	4.94
415.801	4.99
416.007	5.04
416.214	4.96
416.42	4.97
416.626	5.21
416.832	5.51
417.038	5.78
417.244	5.86
417.45	6.13
417.657	6.47
417.863	6.37
418.069	6.22
418.275	6.31
418.481	6.25
418.687	6.25
418.893	6.25
419.099	6.03
419.305	5.97
419.511	5.93
419.717	5.85
419.923	5.91
420.129	5.9
420.335	5.94
420.541	5.93
420.746	6.02
420.952	5.93
421.158	5.86
421.364	6.12
421.57	6.09
421.776	6.11
421.982	6.29
422.187	6.04
422.393	5.98
422.599	5.81
422.805	5.8
423.01	5.67
423.216	5.63
423.422	5.73
423.628	5.55
423.833	5.68
424.039	5.6
424.245	5.37
424.45	5.53
424.656	5.61
424.862	5.8
425.067	5.83
425.273	5.87
425.478	5.95
425.684	5.92
425.889	5.87
426.095	5.73
426.301	5.73
426.506	5.8
426.712	6
426.917	6.01
427.123	6.02
427.328	6.02
427.533	6.05
427.739	6.24
427.944	6.07
428.15	6.26
428.355	6.37
428.561	6.51
428.766	6.31
428.971	6.04
429.177	6.1
429.382	6.05
429.587	6.01
429.793	6.02
429.998	5.71
430.203	5.72
430.408	5.47
430.614	5.41
430.819	5.38
431.024	5.55
431.229	5.51
431.434	5.4
431.64	5.41
431.845	5.48
432.05	5.68
432.255	5.87
432.46	5.94
432.665	5.95
432.87	5.93
433.076	5.97
433.281	5.98
433.486	6.11
433.691	6
433.896	6.05
434.101	6.03
434.306	6
434.511	5.9
434.716	5.9
434.921	5.93
435.126	5.95
435.331	5.98
435.535	5.93
435.74	5.84
435.945	5.76
436.15	5.68
436.355	5.68
436.56	5.62
436.765	5.58
436.97	5.29
437.174	5.37
437.379	5.36
437.584	5.34
437.789	5.41
437.993	5.4
438.198	5.58
438.403	5.63
438.608	5.62
438.812	5.42
439.017	5.52
439.222	5.72
439.426	5.6
439.631	5.62
439.836	5.56
440.04	5.57
440.245	5.69
440.45	5.67
440.654	5.63
440.859	5.61
441.063	5.71
441.268	5.66
441.472	5.76
441.677	5.99
441.881	6.08
442.086	6.12
442.29	6
442.495	5.92
442.699	5.86
442.904	5.84
443.108	5.93
443.312	5.91
443.517	5.91
443.721	5.95
443.925	5.78
444.13	5.78
444.334	5.75
444.538	5.77
444.743	5.87
444.947	5.98
445.151	5.96
445.356	5.97
445.56	6.09
445.764	6.21
445.968	6.12
446.173	6.11
446.377	5.9
446.581	5.85
446.785	5.94
446.989	5.88
447.193	5.8
447.398	5.79
447.602	5.75
447.806	5.65
448.01	5.55
448.214	5.6
448.418	5.66
448.622	5.7
448.826	5.79
449.03	5.57
449.234	5.5
449.438	5.51
449.642	5.5
449.846	5.52
450.05	5.46
450.254	5.45
450.458	5.25
450.662	5.13
450.866	5.23
451.069	5.12
451.273	5.29
451.477	5.33
451.681	5.31
451.885	5.45
452.089	5.47
452.292	5.3
452.496	5.31
452.7	5.65
452.904	5.65
453.107	5.93
453.311	5.92
453.515	6.02
453.719	6.18
453.922	6.26
454.126	6.12
454.33	6.05
454.533	6.19
454.737	6.07
454.94	5.85
455.144	5.88
455.348	5.77
455.551	5.86
455.755	5.71
455.958	5.52
456.162	5.57
456.365	5.66
456.569	5.76
456.772	5.73
456.976	5.78
457.179	5.82
457.383	5.69
457.586	5.22
457.79	5.21
457.993	5.43
458.196	5.52
458.4	5.6
458.603	5.42
458.807	5.34
459.01	5.56
459.213	5.65
459.417	5.66
459.62	5.63
459.823	5.84
460.026	5.69
460.23	5.49
460.433	5.36
460.636	5.26
460.839	5.38
461.042	5.4
461.246	5.2
461.449	5.19
461.652	5.16
461.855	5.25
462.058	5.25
462.261	5.58
462.464	5.54
462.668	5.92
462.871	5.9
463.074	5.86
463.277	5.86
463.48	5.96
463.683	5.88
463.886	5.71
464.089	5.65
464.292	5.58
464.495	5.19
464.698	5.13
464.901	4.82
465.104	4.81
465.306	4.77
465.509	4.82
465.712	4.77
465.915	4.71
466.118	4.77
466.321	4.92
466.524	4.85
466.726	5.04
466.929	5.3
467.132	5.27
467.335	5.27
467.538	5.39
467.74	5.33
467.943	5.38
468.146	5.54
468.348	5.59
468.551	5.43
468.754	5.53
468.956	5.37
469.159	5.28
469.362	5.28
469.564	5.16
469.767	5.13
469.969	5.25
470.172	5.15
470.375	5.12
470.577	5.04
470.78	5.04
470.982	4.95
471.185	4.97
471.387	4.94
471.59	4.9
471.792	4.97
471.995	4.82
472.197	4.87
472.399	4.97
472.602	4.95
472.804	5.07
473.007	5.07
473.209	5.25
473.411	5.4
473.614	5.41
473.816	5.41
474.018	5.4
474.22	5.72
474.423	5.37
474.625	5.39
474.827	5.35
475.03	5.32
475.232	5.29
475.434	5.01
475.636	5
475.838	4.98
476.04	5.18
476.243	5.25
476.445	4.96
476.647	5.14
476.849	5.15
477.051	5.14
477.253	5.27
477.455	5.33
477.657	5.52
477.859	5.49
478.061	5.5
478.263	5.27
478.465	5.21
478.667	5.23
478.869	5.14
479.071	5.02
479.273	4.98
479.475	4.88
479.677	4.92
479.879	4.85
480.081	4.79
480.283	4.92
480.485	5.02
480.686	5.17
480.888	5.17
481.09	5.31
481.292	5.44
481.494	5.53
481.695	5.49
481.897	5.48
482.099	5.52
482.301	5.6
482.502	5.53
482.704	5.48
482.906	5.36
483.107	5.43
483.309	5.33
483.511	5.31
483.712	5.26
483.914	5.24
484.115	5.19
484.317	5.13
484.519	5.14
484.72	5.16
484.922	5.12
485.123	5.17
485.325	5.1
485.526	5.12
485.728	5.16
485.929	5.17
486.131	5.18
486.332	5.2
486.534	5.29
486.735	5.27
486.936	5.23
487.138	5.3
487.339	5.34
487.541	5.37
487.742	5.37
487.943	5.33
488.144	5.31
488.346	5.29
488.547	5.31
488.748	5.25
488.95	5.22
489.151	5.23
489.352	5.16
489.553	5.06
489.755	5.13
489.956	5.13
490.157	5.07
490.358	5.07
490.559	5.05
490.76	5.19
490.961	5.19
491.163	5.19
491.364	5.21
491.565	5.26
491.766	5.25
491.967	5.19
492.168	5.07
492.369	5.16
492.57	5.22
492.771	5.17
492.972	4.97
493.173	4.96
493.374	5.02
493.575	5.02
493.776	5
493.976	4.89
494.177	4.85
494.378	5.07
494.579	4.87
494.78	4.96
494.981	5.18
495.182	5.28
495.382	5.39
495.583	5.36
495.784	5.34
495.985	5.56
496.185	5.63
496.386	5.68
496.587	5.71
496.788	5.76
496.988	5.58
497.189	5.52
497.39	5.41
497.59	5.33
497.791	5.15
497.992	5.12
498.192	5
498.393	5.03
498.593	4.9
498.794	4.9
498.994	4.98
499.195	5.04
499.395	4.97
499.596	5.18
499.796	5.23
499.997	5.32
500.197	5.43
500.398	5.35
500.598	5.49
500.799	5.64
500.999	5.54
501.199	5.35
501.4	5.26
501.6	5.25
501.801	5.3
502.001	5.37
502.201	5.33
502.402	5.17
502.602	5.19
502.802	5.14
503.002	5.15
503.203	5.1
503.403	5.2
503.603	5.28
503.803	5.22
504.003	5.2
504.204	5.18
504.404	5.16
504.604	5.27
504.804	5.15
505.004	5.21
505.204	5.16
505.404	5.17
505.604	5.28
505.804	5.36
506.005	5.42
506.205	5.27
506.405	5.29
506.605	5.38
506.805	5.22
507.005	5.37
507.204	5.18
507.404	5.18
507.604	5.29
507.804	5.23
508.004	5.33
508.204	5.43
508.404	5.44
508.604	5.51
508.804	5.35
509.003	5.54
509.203	5.49
509.403	5.53
509.603	5.54
509.803	5.54
510.002	5.63
510.202	5.49
510.402	5.42
510.602	5.46
510.801	5.35
511.001	5.53
511.201	5.47
511.4	5.49
511.6	5.58
511.8	5.35
511.999	5.35
512.199	5.23
512.398	5.21
512.598	5.13
512.797	5.13
512.997	5.03
513.197	4.99
513.396	4.95
513.596	5.08
513.795	5.03
513.994	5.18
514.194	5.31
514.393	5.43
514.593	5.43
514.792	5.53
514.992	5.49
515.191	5.5
515.39	5.43
515.59	5.33
515.789	5.05
515.988	5.17
516.188	5.27
516.387	5.23
516.586	5.14
516.786	5.4
516.985	5.4
517.184	5.53
517.383	5.64
517.582	5.76
517.782	5.88
517.981	5.96
518.18	5.92
518.379	5.86
518.578	5.69
518.777	5.74
518.976	5.53
519.176	5.66
519.375	5.57
519.574	5.59
519.773	5.5
519.972	5.39
520.171	5.47
520.37	5.58
520.569	5.46
520.768	5.52
520.967	5.55
521.166	5.54
521.365	5.24
521.564	5.45
521.762	5.4
521.961	5.4
522.16	5.58
522.359	5.55
522.558	5.34
522.757	5.49
522.956	5.71
523.154	5.61
523.353	5.68
523.552	5.69
523.751	5.62
523.949	5.65
524.148	5.69
524.347	5.64
524.546	5.61
524.744	5.65
524.943	5.71
525.142	5.7
525.34	5.64
525.539	5.67
525.737	5.83
525.936	5.77
526.135	5.71
526.333	5.69
526.532	5.67
526.73	5.7
526.929	5.8
527.127	5.8
527.326	5.72
527.524	5.78
527.723	5.77
527.921	5.77
528.12	5.76
528.318	5.78
528.516	5.88
528.715	5.87
528.913	5.92
529.112	5.87
529.31	5.9
529.508	5.93
529.707	5.89
529.905	5.94
530.103	5.93
530.301	6
530.5	6.03
530.698	5.96
530.896	5.98
531.094	5.86
531.293	5.88
531.491	5.88
531.689	5.9
531.887	5.92
532.085	5.92
532.283	5.96
532.481	5.97
532.68	5.98
532.878	6
533.076	6.05
533.274	6.1
533.472	6.04
533.67	6.02
533.868	6.09
534.066	6.12
534.264	6.14
534.462	6.1
534.66	6.11
534.858	6.09
535.056	6.1
535.253	6.06
535.451	6.16
535.649	6.24
535.847	6.29
536.045	6.24
536.243	6.32
536.441	6.27
536.638	6.37
536.836	6.4
537.034	6.42
537.232	6.45
537.43	6.45
537.627	6.28
537.825	6.2
538.023	6.22
538.22	6.33
538.418	6.33
538.616	6.4
538.813	6.31
539.011	6.18
539.209	6.15
539.406	6.14
539.604	6.23
539.801	6.39
539.999	6.45
540.196	6.4
540.394	6.27
540.591	6.33
540.789	6.3
540.986	6.33
541.184	6.43
541.381	6.5
541.579	6.56
541.776	6.54
541.974	6.59
542.171	6.61
542.368	6.69
542.566	6.72
542.763	6.73
542.96	6.79
543.158	6.76
543.355	6.79
543.552	6.85
543.75	6.85
543.947	6.94
544.144	6.91
544.341	6.99
544.539	6.76
544.736	6.86
544.933	6.9
545.13	6.88
545.327	6.95
545.524	6.99
545.722	6.87
545.919	6.9
546.116	6.86
546.313	6.92
546.51	6.97
546.707	7.18
546.904	7.15
547.101	7.08
547.298	7.11
547.495	7.26
547.692	7.1
547.889	7.26
548.086	7.22
548.283	7.25
548.48	7.31
548.677	7.26
548.874	7.31
549.07	7.45
549.267	7.51
549.464	7.56
549.661	7.47
549.858	7.52
550.055	7.58
550.251	7.59
550.448	7.62
550.645	7.51
550.842	7.69
551.038	7.7
551.235	7.73
551.432	7.81
551.628	7.75
551.825	7.82
552.022	7.99
552.218	8.03
552.415	8.19
552.612	8.37
552.808	8.52
553.005	8.42
553.201	8.38
553.398	8.32
553.594	8.49
553.791	8.46
553.987	8.54
554.184	8.56
554.38	8.46
554.577	8.47
554.773	8.22
554.97	8.14
555.166	8.36
555.362	8.46
555.559	8.54
555.755	8.28
555.952	8.57
556.148	8.67
556.344	8.73
556.541	8.94
556.737	8.78
556.933	8.95
557.129	9.09
557.326	8.96
557.522	8.99
557.718	8.87
557.914	9.16
558.11	8.9
558.307	8.88
558.503	9.01
558.699	9.01
558.895	9.32
559.091	9.3
559.287	9.34
559.483	9.73
559.679	9.79
559.876	9.68
560.072	9.57
560.268	9.77
560.464	9.59
560.66	9.55
560.856	9.41
561.052	9.32
561.247	9.63
561.443	9.6
561.639	9.21
561.835	9.32
562.031	9.73
562.227	9.81
562.423	10.05
562.619	10.24
562.815	10.45
563.01	10.74
563.206	10.92
563.402	10.77
563.598	10.93
563.793	10.94
563.989	10.93
564.185	10.82
564.381	10.88
564.576	10.91
564.772	10.82
564.968	10.81
565.163	10.8
565.359	10.79
565.555	10.79
565.75	10.83
565.946	10.93
566.141	10.96
566.337	11.07
566.532	11.24
566.728	11.18
566.923	11.41
567.119	11.2
567.314	11.11
567.51	11.07
567.705	10.98
567.901	11.02
568.096	11.07
568.292	11.19
568.487	11.3
568.682	11.14
568.878	11.13
569.073	11.22
569.268	11.39
569.464	11.46
569.659	11.75
569.854	12
570.05	12.02
570.245	12.13
570.44	12.2
570.635	12.22
570.831	12.21
571.026	12.22
571.221	12.19
571.416	12.26
571.611	12.38
571.806	12.29
572.002	12.19
572.197	12.16
572.392	11.99
572.587	11.95
572.782	12
572.977	12.02
573.172	12.23
573.367	12.18
573.562	12.22
573.757	12.22
573.952	12.19
574.147	12.34
574.342	12.49
574.537	12.71
574.732	12.69
574.927	12.67
575.121	12.74
575.316	12.59
575.511	12.53
575.706	12.64
575.901	12.83
576.096	12.7
576.29	12.73
576.485	12.84
576.68	12.76
576.875	12.75
577.069	12.77
577.264	12.79
577.459	12.96
577.654	12.96
577.848	12.97
578.043	12.94
578.238	13.19
578.432	13.11
578.627	12.91
578.821	13.04
579.016	13.12
579.21	13.03
579.405	12.99
579.6	12.81
579.794	13.04
579.989	12.94
580.183	12.82
580.378	12.63
580.572	12.71
580.766	12.9
580.961	12.99
581.155	13.09
581.35	13.29
581.544	13.57
581.738	13.55
581.933	13.57
582.127	13.46
582.321	13.33
582.516	13.55
582.71	13.48
582.904	13.23
583.099	13.22
583.293	13.16
583.487	13.01
583.681	12.92
583.875	13.31
584.07	13.3
584.264	13.48
584.458	13.59
584.652	13.64
584.846	14.1
585.04	13.98
585.234	14.11
585.428	14.21
585.623	14.09
585.817	14.27
586.011	14.12
586.205	14.23
586.399	14.21
586.593	14.03
586.787	14.23
586.981	14.01
587.174	14.28
587.368	14.02
587.562	14.04
587.756	14.22
587.95	14.01
588.144	13.99
588.338	13.92
588.532	13.92
588.725	14.22
588.919	13.92
589.113	13.6
589.307	13.33
589.501	13.52
589.694	13.34
589.888	13.29
590.082	13.05
590.275	12.88
590.469	13
590.663	12.93
590.856	12.83
591.05	12.97
591.244	13.02
591.437	13.36
591.631	13.09
591.824	13.17
592.018	13.16
592.212	13.52
592.405	13.56
592.599	13.48
592.792	13.27
592.986	13.14
593.179	13.13
593.372	13.4
593.566	13.36
593.759	13.57
593.953	13.63
594.146	13.69
594.339	13.63
594.533	13.67
594.726	13.55
594.92	13.94
595.113	14.06
595.306	14.11
595.499	13.89
595.693	13.7
595.886	13.74
596.079	13.6
596.272	13.42
596.466	13.24
596.659	13.31
596.852	13.18
597.045	13
597.238	13.05
597.431	12.97
597.624	13.22
597.818	13.33
598.011	13.38
598.204	13.6
598.397	13.87
598.59	13.89
598.783	13.78
598.976	13.94
599.169	14.16
599.362	13.98
599.555	14.1
599.748	14.11
599.941	14.23
600.134	14.09
600.326	13.9
600.519	13.45
600.712	13.6
600.905	13.42
601.098	13.49
601.291	13.45
601.483	13.34
601.676	13.22
601.869	12.97
602.062	12.72
602.255	12.94
602.447	13.24
602.64	13.64
602.833	13.6
603.025	13.89
603.218	13.73
603.411	13.65
603.603	13.8
603.796	13.6
603.989	13.83
604.181	13.94
604.374	13.9
604.566	13.84
604.759	13.82
604.951	13.83
605.144	13.85
605.336	13.91
605.529	13.94
605.721	14.12
605.914	14.38
606.106	14.38
606.299	14.57
606.491	14.6
606.683	14.67
606.876	14.9
607.068	15
607.26	15.03
607.453	15.16
607.645	15.2
607.837	14.95
608.03	14.82
608.222	14.98
608.414	14.8
608.606	14.66
608.799	14.68
608.991	14.49
609.183	14.75
609.375	14.77
609.567	14.8
609.759	14.99
609.952	15.08
610.144	15.09
610.336	14.99
610.528	14.93
610.72	14.96
610.912	14.75
611.104	14.4
611.296	14.23
611.488	13.88
611.68	14.02
611.872	13.84
612.064	13.82
612.256	14.05
612.448	13.87
612.64	14
612.832	14.09
613.023	14.02
613.215	14.46
613.407	14.48
613.599	14.94
613.791	14.84
613.983	14.6
614.174	14.82
614.366	14.42
614.558	14.6
614.75	14.58
614.941	14.22
615.133	14.57
615.325	14.35
615.516	14.35
615.708	14.54
615.9	14.61
616.091	14.6
616.283	14.38
616.475	14.7
616.666	14.63
616.858	14.85
617.049	14.92
617.241	14.55
617.432	14.54
617.624	14.42
617.815	14.19
618.007	13.99
618.198	13.99
618.39	13.65
618.581	13.58
618.773	13.7
618.964	13.48
619.155	13.77
619.347	13.99
619.538	14.05
619.729	14.32
619.921	14.39
620.112	14.5
620.303	14.59
620.494	15.04
620.686	15.22
620.877	15.01
621.068	14.88
621.259	14.81
621.451	14.64
621.642	14.54
621.833	14.3
622.024	14.25
622.215	13.89
622.406	13.9
622.597	13.83
622.788	13.48
622.98	13.36
623.171	13.45
623.362	13.47
623.553	13.44
623.744	13.5
623.935	13.63
624.126	13.72
624.317	14.04
624.508	14.14
624.698	14.02
624.889	14.33
625.08	14.24
625.271	14.49
625.462	14.38
625.653	14.4
625.844	14.39
626.034	14.1
626.225	13.88
626.416	13.76
626.607	13.54
626.798	13.77
626.988	13.65
627.179	14.04
627.37	14.11
627.56	14.31
627.751	14.5
627.942	14.71
628.132	14.73
628.323	14.9
628.514	14.78
628.704	14.64
628.895	14.47
629.085	14.38
629.276	14.11
629.466	13.64
629.657	13.13
629.847	13.05
630.038	12.84
630.228	12.83
630.419	12.93
630.609	13.1
630.8	13.41
630.99	13.95
631.181	14.21
631.371	14.26
631.561	14.49
631.752	14.89
631.942	14.86
632.132	15.03
632.323	15.46
632.513	15.48
632.703	15.35
632.893	15.76
633.084	15.32
633.274	15.16
633.464	15.45
633.654	15.43
633.844	15.49
634.034	15.62
634.225	15.5
634.415	15.32
634.605	15.18
634.795	15.69
634.985	15.5
635.175	15.29
635.365	15.32
635.555	14.92
635.745	14.78
635.935	14.72
636.125	14.49
636.315	14.35
636.505	14.1
636.695	13.98
636.885	13.43
637.075	13.51
637.265	13.59
637.455	13.55
637.644	13.69
637.834	13.95
638.024	13.73
638.214	13.76
638.404	13.86
638.593	13.74
638.783	14.2
638.973	14.48
639.163	14.12
639.352	13.97
639.542	14.04
639.732	13.99
639.921	13.87
640.111	13.69
640.301	13.83
640.49	13.73
640.68	14.21
640.87	13.99
641.059	13.87
641.249	14.03
641.438	14.06
641.628	13.76
641.817	13.89
642.007	13.88
642.196	14.17
642.386	13.98
642.575	14.3
642.764	13.73
642.954	13.77
643.143	13.75
643.333	13.36
643.522	13.57
643.711	13.54
643.901	13.39
644.09	13.43
644.279	13.45
644.469	13.66
644.658	13.4
644.847	13.66
645.036	13.34
645.226	13.22
645.415	13.98
645.604	13.96
645.793	14.22
645.982	14.2
646.171	14.17
646.361	14.1
646.55	13.94
646.739	14.27
646.928	14.23
647.117	14.29
647.306	14.08
647.495	13.9
647.684	14.18
647.873	14.12
648.062	13.95
648.251	14.14
648.44	14.12
648.629	13.99
648.818	13.66
649.007	14.1
649.196	13.83
649.384	14.3
649.573	14.31
649.762	14.05
649.951	14.03
650.14	14.33
650.328	14.12
650.517	14.13
650.706	14
650.895	14.06
651.083	13.82
651.272	14.19
651.461	13.61
651.65	13.39
651.838	13.44
652.027	13.27
652.216	13.06
652.404	13.51
652.593	13.74
652.781	14.06
652.97	14.19
653.158	13.76
653.347	13.85
653.535	14
653.724	14.59
653.912	14.84
654.101	14.89
654.289	15.31
654.478	14.95
654.666	15.11
654.855	15.22
655.043	15.01
655.231	15.45
655.42	15.23
655.608	15.07
655.796	14.88
655.985	14.21
656.173	14.25
656.361	13.92
656.55	14.22
656.738	14.36
656.926	14.42
657.114	14.14
657.302	14.63
657.491	14.48
657.679	14.89
657.867	14.66
658.055	14.97
658.243	14.86
658.431	15.04
658.619	14.59
658.807	14.45
658.996	14.41
659.184	14.56
659.372	14.43
659.56	14.74
659.748	14.68
659.936	14.4
660.124	14.17
660.311	14.43
660.499	14.54
660.687	14.51
660.875	14.25
661.063	14.1
661.251	14.16
661.439	13.92
661.627	13.87
661.814	13.65
662.002	13.84
662.19	14.28
662.378	14.16
662.565	13.62
662.753	13.58
662.941	13.52
663.129	13.67
663.316	13.84
663.504	13.75
663.692	13.67
663.879	13.75
664.067	13.71
664.254	13.73
664.442	13.69
664.63	13.95
664.817	14.25
665.005	14.45
665.192	14.23
665.38	14.58
665.567	14.59
665.755	14.46
665.942	14.88
666.13	14.93
666.317	14.52
666.504	14.58
666.692	14.67
666.879	14.59
667.067	14.51
667.254	14.88
667.441	14.63
667.629	14.71
667.816	14.62
668.003	14.31
668.19	14.55
668.378	15.14
668.565	15.41
668.752	15.38
668.939	15.34
669.127	15.94
669.314	15.51
669.501	15.18
669.688	14.87
669.875	15.55
670.062	16.26
670.249	15.96
670.436	15.6
670.623	15.59
670.81	15.75
670.997	16.08
671.184	15.43
671.371	15.78
671.558	15.71
671.745	15.83
671.932	15.35
672.119	15.06
672.306	14.84
672.493	15.05
672.68	14.26
672.867	13.6
673.054	13.56
673.24	13.74
673.427	14.05
673.614	14.16
673.801	14.72
673.988	14.07
674.174	13.59
674.361	14.1
674.548	14
674.734	14.94
674.921	15.28
675.108	15.33
675.294	15.44
675.481	15.12
675.668	15.68
675.854	15.31
676.041	16.03
676.227	16.36
676.414	15.93
676.601	16.26
676.787	15.6
676.974	15.71
677.16	15.52
677.347	15.01
677.533	15.11
677.719	14.59
677.906	14.73
678.092	14.94
678.279	14.56
678.465	14.66
678.651	14.45
678.838	14.78
679.024	14.91
679.21	14.61
679.397	14.53
679.583	14.35
679.769	14.43
679.955	14.58
680.142	14.95
680.328	15.48
680.514	15.45
680.7	14.96
680.886	14.89
681.073	14.9
681.259	15.1
681.445	15.25
681.631	15.29
681.817	15.15
682.003	14.83
682.189	14.24
682.375	13.94
682.561	14.43
682.747	14.3
682.933	14.14
683.119	13.95
683.305	14.21
683.491	14.39
683.677	14.5
683.863	14.75
684.049	14.95
684.235	15.07
684.42	14.97
684.606	14.26
684.792	15.07
684.978	15.15
685.164	15.76
685.349	15.2
685.535	15.26
685.721	14.91
685.907	15.02
686.092	14.73
686.278	14.34
686.464	14.33
686.649	15.16
686.835	14.77
687.021	15.17
687.206	14.38
687.392	14.45
687.577	14.45
687.763	14.57
687.948	15.07
688.134	14.82
688.319	15.22
688.505	15.04
688.69	14.15
688.876	14.62
689.061	14.49
689.247	14.87
689.432	15.32
689.618	15.21
689.803	15.61
689.988	15.64
690.174	15.99
690.359	15.36
690.544	15.36
690.73	16.41
690.915	15.84
691.1	15.78
691.285	15.57
691.471	15.56
691.656	15.63
691.841	15.49
692.026	14.81
692.211	15.03
692.396	15.13
692.582	15.67
692.767	15.27
692.952	16.14
693.137	16.15
693.322	15.79
693.507	15.33
693.692	15.27
693.877	14.91
694.062	14.7
694.247	15
694.432	15.61
694.617	15.84
694.802	15.86
694.987	15.22
695.172	15.25
695.357	15.39
695.541	15.49
695.726	14.83
695.911	15.03
696.096	15.1
696.281	14.5
696.466	14.22
696.65	13.7
696.835	13.43
697.02	13.6
697.204	13.77
697.389	13.48
697.574	13.73
697.759	13.85
697.943	13.95
698.128	13.92
698.312	14.06
698.497	14.02
698.682	13.99
698.866	13.79
699.051	13.59
699.235	13.37
699.42	13.7
699.604	13.36
699.789	13.56
699.973	13.65
700.158	13.68
700.342	13.49
700.527	13.69
700.711	13.77
700.895	14.22
701.08	14.33
701.264	14.58
701.448	14.5
701.633	15.33
701.817	15.13
702.001	15.28
702.186	15.92
702.37	16.3
702.554	16.81
702.738	17.31
702.923	17.06
703.107	16.76
703.291	16.82
703.475	16.94
703.659	16.01
703.843	16.12
704.027	15.85
704.212	15.6
704.396	16.18
704.58	15.63
704.764	14.95
704.948	16.2
705.132	16.27
705.316	15.77
705.5	15.81
705.684	16.64
705.868	16.96
706.052	16.88
706.235	16.21
706.419	14.93
706.603	14.51
706.787	14.55
706.971	13.6
707.155	13.27
707.339	13.55
707.522	13.69
707.706	13.8
707.89	14.22
708.074	14.07
708.257	14.23
708.441	15.24
708.625	16
708.808	15.9
708.992	16.06
709.176	16.97
709.359	16.79
709.543	16.91
709.727	16.69
709.91	16.34
710.094	16.24
710.277	16.64
710.461	16.49
710.644	16.18
710.828	16.16
711.011	15.88
711.195	15.56
711.378	16.07
711.562	15.96
711.745	15.78
711.928	15.91
712.112	15.64
712.295	15.75
712.478	15.35
712.662	15.18
712.845	14.94
713.028	15.44
713.212	15.47
713.395	15.16
713.578	15.42
713.761	15.08
713.945	14.74
714.128	15.18
714.311	14.79
714.494	15.03
714.677	14.05
714.86	14.77
715.043	13.64
715.227	13.9
715.41	14.22
715.593	13.87
715.776	13.88
715.959	14.04
716.142	13.38
716.325	13.6
716.508	13.58
716.691	14.03
716.874	13.48
717.057	14.62
717.239	14.39
717.422	13.74
717.605	13.5
717.788	14.23
717.971	15.09
718.154	15.81
718.337	15.24
718.519	14.46
718.702	14.65
718.885	14.06
719.068	13.38
719.25	14.21
719.433	14.65
719.616	15.59
719.798	14.79
719.981	13.95
720.164	13.96
720.346	15.08
720.529	15.67
720.712	15.78
720.894	16.68
721.077	16.02
721.259	15
721.442	15.21
721.624	14.48
721.807	14.01
721.989	14.31
722.172	14.1
722.354	13.55
722.537	14.15
722.719	14.8
722.901	15.61
723.084	16.39
723.266	15.9
723.448	15.57
723.631	15.79
723.813	17.3
723.995	16.8
724.178	16.87
724.36	16.92
724.542	16.46
724.724	16.38
724.907	15.62
725.089	15.1
725.271	15.68
725.453	15.75
725.635	16.46
725.817	15.38
725.999	16.03
726.181	16.34
726.364	16.37
726.546	16.51
726.728	16.61
726.91	16.65
727.092	17.21
727.274	17.32
727.456	16.88
727.638	16.8
727.819	16.7
728.001	16.11
728.183	16.5
728.365	16.23
728.547	15.99
728.729	15.64
728.911	15.55
729.093	15.64
729.274	15.47
729.456	16.16
729.638	15.24
729.82	15.82
730.001	15.89
730.183	14.93
730.365	14.63
730.546	14.71
730.728	14.47
730.91	14.15
731.091	13.8
731.273	13.97
731.455	13.28
731.636	13.63
731.818	13.39
731.999	13.85
732.181	13.89
732.362	14.3
732.544	15.52
732.725	15.74
732.907	16.24
733.088	16.49
733.27	16.34
733.451	16.71
733.633	16.36
733.814	16.2
733.995	16.34
734.177	17
734.358	16.62
734.539	15.36
734.721	16.47
734.902	16.54
735.083	15.82
735.264	15.37
735.446	14.93
735.627	15.13
735.808	15.59
735.989	15.26
736.17	14.95
736.351	16.68
736.533	16.99
736.714	17.15
736.895	16.53
737.076	17.37
737.257	18.39
737.438	19.11
737.619	18.93
737.8	18.57
737.981	19.12
738.162	19.35
738.343	17.25
738.524	16.74
738.705	14.54
738.886	14.72
739.067	15.09
739.247	14.83
739.428	14.13
739.609	15.01
739.79	14.21
739.971	13.36
740.151	12.14
740.332	11.71
740.513	12.58
740.694	12.5
740.874	12.44
741.055	11.45
741.236	10.79
741.417	10.4
741.597	9.28
741.778	10.78
741.958	10.66
742.139	12.03
742.32	12.98
742.5	12.46
742.681	12.99
742.861	13.22
743.042	13.45
743.222	14.07
743.403	14.49
743.583	15.56
743.764	14.8
743.944	14.95
744.124	14.21
744.305	15.16
744.485	14.62
744.666	15.44
744.846	16.68
745.026	15.93
745.207	15.82
745.387	15.67
745.567	15.36
745.747	15.84
745.928	16.07
746.108	16.25
746.288	15.08
746.468	16.2
746.648	16.9
746.829	15.65
747.009	17.27
747.189	17.89
747.369	18.47
747.549	17.69
747.729	17.58
747.909	17.85
748.089	18.11
748.269	18.51
748.449	17.78
748.629	17.15
748.809	17.67
748.989	17.1
749.169	16.29
749.349	17.17
749.529	17.02
749.709	17.43
749.889	16.55
750.068	16.08
750.248	15.8
750.428	15.42
750.608	14.7
750.788	13.68
750.967	14.03
751.147	14.72
751.327	13.54
751.507	13.33
751.686	12.67
751.866	12.25
752.046	12.1
752.225	11.26
752.405	11.28
752.585	12.58
752.764	13.36
752.944	13.63
753.123	12.5
753.303	11.77
753.482	12.12
753.662	11.43
753.841	13.29
754.021	12.57
754.2	13.86
754.38	14.83
754.559	14.3
754.739	14.7
754.918	14.22
755.097	14.88
755.277	14.78
755.456	15.35
755.635	16.25
755.815	15.05
755.994	16.39
756.173	17.1
756.352	15.99
756.532	15.25
756.711	14.84
756.89	14.17
757.069	14.41
757.248	15.44
757.427	16.46
757.607	15.85
757.786	15.98
757.965	15.17
758.144	14.19
758.323	14.89
758.502	15.75
758.681	15.98
758.86	15.86
759.039	15.87
759.218	15.84
759.397	14.45
759.576	15.3
759.755	15.5
759.934	17.02
760.113	18
760.291	17.81
760.47	18.61
760.649	18.75
760.828	18.88
761.007	18.25
761.186	18.88
761.364	19
761.543	17.14
761.722	17.09
761.901	16.73
762.079	15.61
762.258	15.45
762.437	15.2
762.615	15.27
762.794	15.45
762.972	15.66
763.151	14.72
763.33	15.16
763.508	16.43
763.687	16.36
763.865	17.32
764.044	18.14
764.222	17.99
764.401	17.01
764.579	16.28
764.758	16.39
764.936	17.33
765.114	17.69
765.293	17.04
765.471	17.66
765.65	17.44
765.828	15.17
766.006	14.96
766.184	15.54
766.363	15.5
766.541	15.5
766.719	17.01
766.898	14.78
767.076	15.78
767.254	16.08
767.432	15.6
767.61	16.86
767.788	18.13
767.967	17.92
768.145	18.06
768.323	18.28
768.501	18.78
768.679	15.1
768.857	16.81
769.035	16.87
769.213	17.58
769.391	17.41
769.569	16.2
769.747	16.17
769.925	14.69
770.103	13.34
770.281	13.26
770.459	12.99
770.636	14.83
770.814	13.38
770.992	11.98
771.17	11.33
771.348	9.2
771.525	9.41
771.703	8.37
771.881	9.42
772.059	9.64
772.236	11.27
772.414	12.87
772.592	13.49
772.769	17.36
772.947	17.02
773.125	17.72
773.302	20.11
773.48	20.21
773.657	20.88
773.835	20.49
774.013	21.16
774.19	20.06
774.368	17.86
774.545	18.56
774.723	15.8
774.9	17.86
775.077	15.08
775.255	14.4
775.432	13.39
775.61	10.96
775.787	12.35
775.964	10.93
776.142	9.45
776.319	11.24
776.496	9.79
776.674	8.79
776.851	7.41
777.028	9.13
777.205	8.32
777.382	7.97
777.56	9.33
777.737	9.53
777.914	9.73
778.091	7.96
778.268	8.33
778.445	8.24
778.622	9.61
778.8	8.47
778.977	8.37
779.154	9.15
779.331	10.13
779.508	12.3
779.685	11.25
779.862	11.79
780.038	13.87
780.215	12.87
780.392	12.42
780.569	11.4
780.746	11.96
780.923	13.94
781.1	13.37
781.277	15.26
781.453	13.18
781.63	13.98
781.807	15.56
781.984	15.45
782.16	16.61
782.337	16.29
782.514	16.62
782.691	18.72
782.867	17.42
783.044	18.3
783.221	17.24
783.397	17.66
783.574	15.79
783.75	15.59
783.927	16.49
784.103	15.26
784.28	15.96
784.456	15.31
784.633	10.52
784.809	8.65
784.986	6.15
785.162	6.02
785.339	3.5
785.515	6.8
785.692	7.03
785.868	8.29
786.044	8.82
786.221	10.55
786.397	7.8
786.573	7.6
786.749	10.43
786.926	12.76
787.102	12.22
787.278	14.5
787.454	14.02
787.631	12.86
787.807	12.8
787.983	12.73
788.159	12.82
788.335	15.65
788.511	17.17
788.687	16.4
788.863	18.46
789.039	20.23
789.216	20.11
789.392	18.48
789.568	18.85
789.744	20.63
789.919	20.93
790.095	22.05
790.271	21.45
790.447	22.21
790.623	24.4
790.799	20.63
790.975	19.87
791.151	20.94
791.327	20.3
791.502	20.61
791.678	19.38
791.854	16.57
792.03	13.55
792.205	16.61
792.381	20.11
792.557	17.61
792.733	20.17
792.908	18.7
793.084	17.76
793.259	19.26
793.435	18.85
793.611	17.62
793.786	20.37
793.962	20.77
794.137	19.68
794.313	16.96
794.488	18.77
794.664	16.58
794.839	19.47
795.015	18.84
795.19	17.5
795.366	18.11
795.541	17.99
795.716	17.67
795.892	15.46
796.067	16.48
796.242	13.35
796.418	11.57
796.593	12.48
796.768	10.59
796.944	9.94
797.119	12.81
797.294	11.83
797.469	10.39
797.644	10.14
797.82	12.93
797.995	10.07
798.17	10.95
798.345	9.89
798.52	11.2
798.695	9.87
798.87	13
799.045	10.87
799.22	13.87
799.395	18.98
799.57	22.2
799.745	19.07
799.92	20.23
800.095	21.59
800.27	23.47
800.445	19.72
800.62	21.95
800.795	18.48
800.97	20.7
801.145	19.05
801.319	17.12
801.494	14.61
801.669	18.92
801.844	20.62
802.018	19.37
802.193	20.02
802.368	22.06
802.543	21.07
802.717	21.58
802.892	18.03
803.067	16.1
803.241	14.88
803.416	13.82
803.59	12.63
803.765	10.11
803.94	7.77
804.114	4.8
804.289	7.99
804.463	5
804.638	7.02
804.812	9.73
804.986	8.45
805.161	7.15
805.335	7.42
805.51	3.69
805.684	3.57
805.858	5.07
806.033	6.8
806.207	6.15
806.381	7.35
806.556	8.85
806.73	9.52
806.904	10.04
807.078	11.45
807.253	10.97
807.427	13.1
807.601	14.87
807.775	16.25
807.949	14.7
808.123	12.88
808.298	13.39
808.472	12.57
808.646	11.21
808.82	13.89
808.994	14.51
809.168	17.37
809.342	19.49
809.516	17.73
809.69	18.64
809.864	14.99
810.038	17.29
810.212	13.25
810.385	10.87
810.559	11.12
810.733	14.1
810.907	12.49
811.081	9.88
811.255	9.21
811.428	11.49
811.602	13.37
811.776	16.78
811.95	14.73
812.123	18.04
812.297	21.49
812.471	24.42
812.644	22.54
812.818	23.54
812.992	22.27
813.165	23.85
813.339	24.67
813.512	25.91
813.686	28.08
813.86	25.41
814.033	27.22
814.207	23.25
814.38	18.82
814.554	13.36
814.727	7.59
814.9	8.49
815.074	6.76
815.247	1.55
815.421	-5.08
815.594	-3.94
815.767	-0.74
815.941	-8.56
816.114	-10.89
816.287	-9.72
816.46	-9.88
816.634	-4.12
816.807	-2.12
816.98	3.97
817.153	7.87
817.327	10.15
817.5	9.67
817.673	15.99
817.846	19.29
818.019	21.42
818.192	22.35
818.365	25.83
818.538	27.5
818.711	25.1
818.884	26.62
819.057	23.12
819.23	27.12
819.403	25.93
819.576	18.08
819.749	19.03
819.922	22.63
820.095	18.74
820.268	16.92
820.441	16.31
820.614	16.33
820.786	11.89
820.959	13.99
821.132	13.19
821.305	14.41
821.477	16.61
821.65	18.2
821.823	17.84
821.996	19.1
822.168	20.34
822.341	19.82
822.514	20.29
822.686	20.63
822.859	21.23
823.031	21.1
823.204	20.61
823.376	20.7
823.549	20.05
823.722	19.38
823.894	18.7
824.067	18.11
824.239	18.22
824.411	19.25
824.584	19.08
824.756	18.3
824.929	17.44
825.101	16.68
825.273	16.66
825.446	15.74
825.618	16.78
825.79	16.71
825.963	16.82
826.135	16.57
826.307	15.36
826.479	14.86
826.652	14.64
826.824	16.12
826.996	16.81
827.168	16.33
827.34	17.96
827.512	16.5
827.684	16.25
827.856	16.69
828.029	16.3
828.201	13.92
828.373	14.18
828.545	14.95
828.717	15.44
828.889	16.13
829.061	14.72
829.232	11.55
829.404	12.64
829.576	12.43
829.748	10.21
829.92	8.91
830.092	10.27
830.264	10.13
830.436	8.84
830.607	7.19
830.779	7.02
830.951	12.42
831.123	14.16
831.294	15.77
831.466	16.61
831.638	16.2
831.809	18.79
831.981	18.77
832.153	20.08
832.324	20.25
832.496	19.87
832.667	19.29
832.839	18.38
833.011	19.82
833.182	15.89
833.354	15.27
833.525	17.43
833.697	17.41
833.868	19.75
834.039	18.64
834.211	19.44
834.382	19.23
834.554	19.88
834.725	17.73
834.896	16.11
835.068	16.75
835.239	17.42
835.41	14.78
835.581	14.28
835.753	13.69
835.924	12.25
836.095	9.65
836.266	10.52
836.438	11.34
836.609	12.98
836.78	14.87
836.951	14.14
837.122	14.71
837.293	19.66
837.464	19.87
837.635	18.85
837.806	21.8
837.977	19.84
838.148	19.89
838.319	20.41
838.49	19.56
838.661	19.64
838.832	25.6
839.003	24.85
839.174	19.76
839.345	9.23
839.516	6.77
839.687	1.5
839.857	9.94
840.028	3.01
840.199	5.75
840.37	3.99
840.54	4.97
840.711	-0.4
840.882	1.7
841.053	8.98
841.223	14.77
841.394	15.37
841.564	15.58
841.735	11.43
841.906	18.34
842.076	12.85
842.247	11.79
842.417	7.47
842.588	13.96
842.758	11.89
842.929	8.28
843.099	-1.1
843.27	-0.46
843.44	-3.32
843.611	-3.64
843.781	-17.74
843.951	-34.24
844.122	-35.23
844.292	-28.31
844.462	-28.2
844.633	-35.49
844.803	-45.23
844.973	-18.55
845.144	-30.47
845.314	-27.83
845.484	-18.05
845.654	-16.8
845.824	-9.98
845.995	-1.08
846.165	-16.46
846.335	-19.68
846.505	-6.33
846.675	2.34
846.845	9.96
847.015	29.27
847.185	22.49
847.355	18.5
847.525	18.86
847.695	19.68
847.865	15.86
848.035	23.48
848.205	22.67
848.375	18.06
848.545	14.99
848.715	3.4
848.884	-10.24
849.054	-7.41
849.224	-1.3
849.394	9.01
849.564	9.48
849.733	-0.11
849.903	2.22
850.073	-4.69
850.243	-12.7
850.412	-13.09
850.582	-22.38
850.752	-23.59
850.921	-13.3
851.091	-15.67
851.26	-25.3
851.43	-17.08
851.599	0.77
851.769	-6.84
851.939	-19.04
852.108	-13.41
852.278	-25.28
852.447	-24.38
852.616	-40.88
852.786	-47.58
852.955	-36.64
853.125	-43.99
853.294	-26.8
853.463	-56.96
853.633	-39.33
853.802	-14.55
853.971	-5.2
854.141	9.69
854.31	24.28
854.479	32.81
854.648	33.55
854.818	10.63
854.987	15.59
855.156	7.43
855.325	17.86
855.494	15.62
855.663	9.41
855.832	7.4
856.001	7.9
856.171	-10.01
856.34	-8.17
856.509	8.56
856.678	28.37
856.847	14.65
857.016	19.15
857.185	28.28
857.353	24.88
857.522	31.13
857.691	37.96
857.86	26.84
858.029	39.68
858.198	31.73
858.367	25.18
858.535	35.2
858.704	37.62
858.873	37.85
859.042	28.81
859.21	31.58
859.379	31.05
859.548	31.22
859.717	32.27
859.885	20.78
860.054	30.08
860.222	27.67
860.391	14.44
860.56	14.15
860.728	15.1
860.897	13.25
861.065	-0.77
861.234	0.48
861.402	-0.14
861.571	1.72
861.739	-2.73
861.908	-15.87
862.076	-25.92
862.244	-38.86
862.413	-31.68
862.581	-18.69
862.749	-18.6
862.918	-8.63
863.086	-28.03
863.254	-56.64
863.423	-38.13
863.591	-25.36
863.759	-30.52
863.927	-24.49
864.096	3.19
864.264	6.23
864.432	-24.31
864.6	-16.11
864.768	-29.99
864.936	-11.47
865.104	-16.59
865.272	-34.6
865.44	-61
865.608	-35.86
865.776	-56.07
865.944	-123.07
866.112	-100.56
866.28	-110.78
866.448	-169.71
866.616	-103.27
866.784	-255.94
866.952	-77.27
867.12	-63.69
867.288	-35.46
867.455	-29.99
867.623	-8.15
867.791	3.17
867.959	10.44
868.127	8.21
868.294	10.8
868.462	12.57
868.63	14.55
868.797	4.06
868.965	3.67
869.133	-8.28
869.3	-7.37
869.468	-13.62
869.636	-13.83
869.803	-33.26
869.971	-27.47
870.138	-29.34
870.306	-20.48
870.473	-0.1
870.641	3.78
870.808	0.29
870.975	9.08
871.143	15.24
871.31	18
871.478	17.98
871.645	33.07
871.812	30.88
871.98	28.36
872.147	24.86
872.314	-5.1
872.482	-4.4
872.649	-2.96
872.816	-14.51
872.983	-22.08
873.15	-6.56
873.318	-21.34
873.485	-13.39
873.652	-9.98
873.819	-16.15
873.986	-30.78
874.153	-12.75
874.32	0.41
874.487	-15.45
874.654	-12.96
874.821	-15.83
874.988	-12.19
875.155	-9.31
875.322	-3.21
875.489	1.87
875.656	9.47
875.823	9.67
875.99	11.12
876.157	2.51
876.324	8.52
876.49	23.9
876.657	25.3
876.824	18.38
876.991	29.4
877.157	22.62
877.324	27.7
877.491	20.07
877.658	20.68
877.824	23.43
877.991	17.18
878.157	19.4
878.324	9.35
878.491	14.19
878.657	21.82
878.824	11.27
878.99	16.84
879.157	6.1
879.323	10.24
879.49	11.91
879.656	8.74
879.823	16.18
879.989	12.41
880.156	3.67
880.322	-14.3
880.488	-19.78
880.655	-18.8
880.821	-18.87
880.987	-11.94
881.154	-4.16
881.32	4.87
881.486	4.6
881.652	16.32
881.819	16.54
881.985	20.33
882.151	21.77
882.317	21.3
882.483	19.62
882.649	17.79
882.816	16.47
882.982	16.24
883.148	14.57
883.314	11.95
883.48	6.54
883.646	3.64
883.812	2.92
883.978	7.42
884.144	10.79
884.31	11.33
884.476	13.91
884.642	17.61
884.807	12.91
884.973	10.53
885.139	12.01
885.305	17.26
885.471	20.09
885.637	23.85
885.802	19.03
885.968	15.87
886.134	14.09
886.3	11.54
886.465	-2.25
886.631	5.27
886.797	8.61
886.962	6.72
887.128	3.32
887.293	5.11
887.459	1.24
887.625	0.7
887.79	-5.35
887.956	-4.9
888.121	-5.82
888.287	4.96
888.452	-0.62
888.618	-11.38
888.783	-3.67
