Data from 2938044_Reflection_1.txt Node
Date: Sun Jul 12 14:30:26 EDT 2015
User: robert
Spectrometer: USB4E03001
Autoset integration time: false
Trigger mode: 4
Integration Time (sec): 1.000000E-1
Scans to average: 10
Electric dark correction enabled: true
Nonlinearity correction enabled: false
Boxcar width: 5
Stray light correction enabled: false
XAxis mode: Wavelengths
Stop averaging: false
Number of Pixels in Spectrum: 3648
>>>>>Begin Spectral Data<<<<<
177.566	-48.74
177.785	114.63
178.005	244.48
178.225	117.6
178.445	257.11
178.665	-42.1
178.885	29.7
179.105	1196.77
179.324	-70.6
179.544	-40.74
179.764	-108.83
179.984	-175.67
180.204	273.76
180.423	292.56
180.643	158.29
180.863	234.62
181.083	1350.88
181.302	-108150
181.522	392.19
181.742	391.26
181.961	329.06
182.181	457.3
182.401	706.35
182.621	-69.95
182.84	-182.02
183.06	373.41
183.279	702.69
183.499	340.21
183.719	99.07
183.938	57.47
184.158	49.33
184.377	52.03
184.597	85.43
184.816	36.91
185.036	37.45
185.256	18.53
185.475	-107.71
185.695	-56.18
185.914	-29.36
186.134	-9.11
186.353	-71.66
186.572	-7.65
186.792	15.57
187.011	9.13
187.231	1.66
187.45	-196.34
187.67	-189.29
187.889	-94.64
188.108	-83.68
188.328	-178.24
188.547	-265.04
188.766	-119.09
188.986	-253.29
189.205	-66.9
189.424	-60.13
189.644	-4.06
189.863	45.04
190.082	63.32
190.302	64.61
190.521	79.06
190.74	63.02
190.959	76.71
191.178	58.01
191.398	51.53
191.617	41.46
191.836	35.82
192.055	-125.47
192.274	243.26
192.494	208.42
192.713	2341.41
192.932	457.55
193.151	-409.89
193.37	-291.71
193.589	8.46
193.808	91.53
194.027	252.19
194.246	135.89
194.465	118.1
194.685	110.15
194.904	131.92
195.123	174.91
195.342	109.26
195.561	119.06
195.78	103.9
195.999	31.79
196.218	66.73
196.436	-109.34
196.655	271.66
196.874	215.19
197.093	141.43
197.312	235.45
197.531	-380
197.75	-278.73
197.969	-3851.35
198.188	-3376.64
198.407	-1112.42
198.625	-246.19
198.844	-120.88
199.063	-65.06
199.282	-89.45
199.501	-51.52
199.719	-23.55
199.938	13.37
200.157	74.69
200.376	111.67
200.594	118.27
200.813	94.47
201.032	184.96
201.251	149.73
201.469	127.48
201.688	95.82
201.907	95.95
202.125	122.41
202.344	86.63
202.563	69.9
202.781	53.49
203	102.61
203.218	96.72
203.437	58.76
203.656	43.96
203.874	47.99
204.093	33.3
204.311	-85.63
204.53	-95.77
204.748	-1184.64
204.967	-128.33
205.185	-55.96
205.404	19575
205.622	-653.88
205.841	-311.18
206.059	-335.6
206.278	-220.08
206.496	-121.04
206.715	32.75
206.933	169.73
207.151	195.26
207.37	745.37
207.588	-1031.65
207.806	931.82
208.025	303.67
208.243	318.22
208.461	298.37
208.68	192.37
208.898	153.17
209.116	141.02
209.335	171.92
209.553	113.86
209.771	97.51
209.989	74.67
210.208	68.76
210.426	59.53
210.644	50.85
210.862	51.35
211.081	31.01
211.299	24.39
211.517	56.42
211.735	57.12
211.953	58.38
212.171	69.28
212.39	159.71
212.608	370.45
212.826	1696.23
213.044	-520.78
213.262	14187.88
213.48	-2898.51
213.698	311.77
213.916	190.99
214.134	117
214.352	68.8
214.57	49.97
214.788	33.25
215.006	16.68
215.224	35.71
215.442	43.58
215.66	40.92
215.878	48.45
216.096	53.79
216.314	86.98
216.532	115.06
216.75	130.47
216.968	125.55
217.185	141.31
217.403	167.69
217.621	111.95
217.839	91.48
218.057	88.79
218.275	99.93
218.492	89.52
218.71	72.25
218.928	46.26
219.146	17.46
219.363	15.51
219.581	17.54
219.799	14.9
220.017	29.98
220.234	36.01
220.452	68.87
220.67	31.41
220.887	15.51
221.105	-25.8
221.323	2.53
221.54	36.55
221.758	17.21
221.976	-11.57
222.193	-8.92
222.411	-1.05
222.629	20.54
222.846	-18.6
223.064	-21.3
223.281	-6.25
223.499	10.6
223.716	-17.24
223.934	-40.08
224.151	-24.76
224.369	-14.12
224.586	8.54
224.804	8.45
225.021	-10.85
225.239	-3.28
225.456	9.86
225.674	14.64
225.891	14.81
226.108	19.41
226.326	18.43
226.543	18.6
226.76	12.77
226.978	-0.72
227.195	3.98
227.413	9.4
227.63	13.36
227.847	16.58
228.064	14.29
228.282	12.8
228.499	16.89
228.716	19.19
228.934	18.79
229.151	16.95
229.368	17.59
229.585	15.22
229.802	14.98
230.02	13.03
230.237	11.34
230.454	12.66
230.671	13.81
230.888	10.58
231.105	6.6
231.323	2.84
231.54	7.25
231.757	5.73
231.974	5.22
232.191	3.83
232.408	6.22
232.625	3.13
232.842	3.39
233.059	2.08
233.276	2.14
233.493	2.96
233.71	8.43
233.927	2.98
234.144	8.83
234.361	11.26
234.578	10.75
234.795	9.57
235.012	12.26
235.229	11.49
235.446	13.01
235.663	7.01
235.879	8.46
236.096	7.81
236.313	6.67
236.53	6.73
236.747	7.97
236.964	6.28
237.181	4.17
237.397	2.21
237.614	1.83
237.831	-0.18
238.048	4.76
238.264	4.2
238.481	8.18
238.698	10.44
238.915	8.82
239.131	12.33
239.348	18.87
239.565	21.91
239.781	24.73
239.998	24.45
240.215	25.11
240.431	27
240.648	24.12
240.865	19.93
241.081	19.34
241.298	18.82
241.514	17.47
241.731	15.12
241.947	15.66
242.164	14.57
242.38	13.74
242.597	12.65
242.814	12.11
243.03	13.27
243.246	13.32
243.463	13.06
243.679	12.78
243.896	10.29
244.112	10.2
244.329	6
244.545	5.99
244.762	6.67
244.978	8.22
245.194	8.64
245.411	7.5
245.627	9.1
245.843	9.79
246.06	9.08
246.276	11.37
246.492	10.68
246.709	12.8
246.925	12.72
247.141	12.1
247.357	11.66
247.574	10.63
247.79	10.59
248.006	10.3
248.222	10.51
248.439	10.75
248.655	10.11
248.871	10.33
249.087	10.55
249.303	9.33
249.519	9.65
249.736	9.77
249.952	9.82
250.168	11.2
250.384	10.06
250.6	9.38
250.816	9.65
251.032	11.51
251.248	12.51
251.464	9.89
251.68	12.42
251.896	12.4
252.112	13.32
252.328	13.58
252.544	14.44
252.76	17.35
252.976	17.09
253.192	17.38
253.408	14.43
253.624	15.54
253.84	16.6
254.056	15.52
254.272	15.45
254.487	14.68
254.703	16.29
254.919	12.88
255.135	9.07
255.351	8.05
255.567	8.29
255.782	10.16
255.998	6.88
256.214	7.84
256.43	7.06
256.646	6.36
256.861	6.51
257.077	4.07
257.293	5.01
257.508	7
257.724	8.21
257.94	8.82
258.155	8.3
258.371	8.4
258.587	8.44
258.802	9.79
259.018	8.82
259.234	8.47
259.449	8.84
259.665	9.25
259.88	8.74
260.096	8.72
260.312	8.6
260.527	9.34
260.743	9.39
260.958	9.22
261.174	8.38
261.389	9.15
261.605	8.46
261.82	8.07
262.036	7.88
262.251	8.44
262.466	8.5
262.682	7.68
262.897	7.54
263.113	8.55
263.328	7.43
263.543	8.56
263.759	11.48
263.974	12.06
264.189	11.92
264.405	9.18
264.62	9.72
264.835	9.37
265.051	9
265.266	8.34
265.481	7.05
265.696	8.9
265.912	8.22
266.127	5.92
266.342	5.81
266.557	6.86
266.773	8.3
266.988	6.8
267.203	6.18
267.418	7.55
267.633	7.66
267.848	6.92
268.064	6.43
268.279	6.29
268.494	6.85
268.709	7.81
268.924	7.44
269.139	8.79
269.354	10.1
269.569	10.59
269.784	9.97
269.999	9.03
270.214	10.45
270.429	10.21
270.644	11.36
270.859	11.19
271.074	11.31
271.289	11.27
271.504	10.16
271.719	9.09
271.934	8.08
272.149	8.48
272.363	9.17
272.578	7.77
272.793	7.58
273.008	6.42
273.223	5.96
273.438	5.79
273.653	4.87
273.867	4.96
274.082	6.12
274.297	6.56
274.512	5.61
274.726	5.87
274.941	6.61
275.156	6.89
275.371	7.81
275.585	8.1
275.8	6.88
276.015	7.6
276.229	7.1
276.444	5.63
276.659	5.69
276.873	5.02
277.088	4.3
277.302	5.78
277.517	5.86
277.732	5.52
277.946	5.9
278.161	7.3
278.375	8.02
278.59	8.73
278.804	7.53
279.019	7.84
279.233	9.34
279.448	10.31
279.662	9.55
279.877	9.47
280.091	8.87
280.306	7.49
280.52	5.65
280.735	5.33
280.949	5.88
281.163	6.99
281.378	8.7
281.592	8.18
281.806	7.55
282.021	6.73
282.235	6.42
282.449	6.77
282.664	7.06
282.878	9.16
283.092	10.13
283.307	9.06
283.521	9.57
283.735	8.56
283.949	7.95
284.164	7.84
284.378	8.68
284.592	9.1
284.806	8.48
285.02	9.02
285.234	9.18
285.449	8.31
285.663	9.32
285.877	9.19
286.091	9.47
286.305	10.07
286.519	10.53
286.733	10.31
286.947	10.76
287.161	11.56
287.375	11.07
287.589	10.42
287.803	11.48
288.017	11.1
288.231	11.77
288.445	11.7
288.659	11.75
288.873	11.03
289.087	10.24
289.301	8.52
289.515	9.52
289.729	10.34
289.943	10.47
290.157	9.78
290.371	9.03
290.584	8.8
290.798	8.84
291.012	9.36
291.226	10.03
291.44	11.34
291.654	11.99
291.867	10.82
292.081	10.23
292.295	9.89
292.509	10.08
292.722	11.86
292.936	11.51
293.15	11.4
293.364	10.82
293.577	10.07
293.791	10.49
294.005	11.5
294.218	12.88
294.432	13.71
294.645	13.71
294.859	13.45
295.073	12.63
295.286	11.82
295.5	11.65
295.713	11.78
295.927	11.54
296.14	10.25
296.354	10.25
296.568	9.98
296.781	10.65
296.994	11.8
297.208	11.43
297.421	11.78
297.635	12.37
297.848	12.53
298.062	13.17
298.275	13.59
298.489	14.16
298.702	13.47
298.915	13.02
299.129	11.51
299.342	9.94
299.555	11.14
299.769	11.57
299.982	12.93
300.195	12.83
300.409	12.17
300.622	13.45
300.835	12.43
301.048	12.49
301.262	12.48
301.475	13.89
301.688	14.47
301.901	13.6
302.115	14.09
302.328	12.92
302.541	13.28
302.754	13.48
302.967	12.66
303.18	13.28
303.393	13.92
303.607	14.1
303.82	13.71
304.033	14.84
304.246	15.59
304.459	14.51
304.672	14.44
304.885	15.17
305.098	15.79
305.311	15.98
305.524	16.31
305.737	14.38
305.95	14.41
306.163	13.72
306.376	13.08
306.589	13.25
306.802	13.66
307.015	13.38
307.228	11.48
307.44	12.14
307.653	14.05
307.866	15.04
308.079	16.8
308.292	16.88
308.505	16.53
308.718	17.06
308.93	16.38
309.143	15.49
309.356	16.38
309.569	16.89
309.781	15.64
309.994	14.11
310.207	12.8
310.42	13.33
310.632	13.3
310.845	13.02
311.058	12.46
311.27	12.92
311.483	13.11
311.696	12.28
311.908	11.86
312.121	11.93
312.333	12.38
312.546	13.36
312.759	12.88
312.971	13.16
313.184	13.86
313.396	13.15
313.609	12.39
313.821	12.57
314.034	12.69
314.246	13.1
314.459	14.04
314.671	12.43
314.884	11.99
315.096	11.65
315.309	9.77
315.521	9.12
315.733	10.42
315.946	12
316.158	12.79
316.371	12.52
316.583	12.69
316.795	11.69
317.008	11.76
317.22	11.64
317.432	12.78
317.644	14.27
317.857	15.33
318.069	15.4
318.281	15.27
318.494	14.8
318.706	15.2
318.918	15.37
319.13	14.85
319.342	16.19
319.555	15.83
319.767	14.85
319.979	14.5
320.191	15.63
320.403	13.78
320.615	13.05
320.827	12.65
321.039	14.3
321.252	14.47
321.464	15.28
321.676	15.65
321.888	16.11
322.1	16.63
322.312	16.14
322.524	15.45
322.736	15.42
322.948	14.28
323.16	13.29
323.372	11.86
323.584	10.57
323.796	10.34
324.007	9.93
324.219	9.17
324.431	9.03
324.643	9.44
324.855	9.54
325.067	10.73
325.279	11.32
325.491	11.84
325.702	11.51
325.914	12.29
326.126	12.6
326.338	12.48
326.55	13.08
326.761	13.08
326.973	13.38
327.185	13.38
327.396	14.28
327.608	14.94
327.82	16.17
328.032	16.13
328.243	16.6
328.455	17.02
328.666	15.83
328.878	16.32
329.09	16.99
329.301	16.86
329.513	16.14
329.725	15.47
329.936	13.45
330.148	13.81
330.359	15.15
330.571	15.61
330.782	13.8
330.994	14.23
331.205	15.06
331.417	14.05
331.628	15.05
331.84	15.46
332.051	14.54
332.262	15.05
332.474	14.15
332.685	13.64
332.897	12.27
333.108	13.6
333.319	14.07
333.531	13.23
333.742	14.05
333.953	12.71
334.165	12.12
334.376	12.67
334.587	13.16
334.799	13.57
335.01	14.13
335.221	14.16
335.432	13.4
335.644	13.26
335.855	12.91
336.066	11.74
336.277	12.48
336.488	11.91
336.7	11.39
336.911	11.6
337.122	11.42
337.333	9.82
337.544	9.94
337.755	10.03
337.966	10.39
338.177	11.43
338.388	13.09
338.599	13.12
338.811	14.02
339.022	13.85
339.233	13.89
339.444	12.63
339.655	13.3
339.866	13.26
340.076	12.31
340.287	12.3
340.498	11.16
340.709	10.02
340.92	9.66
341.131	10.17
341.342	10.5
341.553	10.8
341.764	10.69
341.975	11.82
342.185	12.8
342.396	13.94
342.607	13.97
342.818	13.29
343.029	14.46
343.239	15.13
343.45	13.87
343.661	13.13
343.872	12.53
344.082	13.15
344.293	12
344.504	11.54
344.714	10.35
344.925	9.75
345.136	10.27
345.346	9.14
345.557	8.42
345.768	9.37
345.978	10.07
346.189	9.76
346.399	10
346.61	10.02
346.821	9.59
347.031	10.04
347.242	9.99
347.452	10.52
347.663	10.13
347.873	10.81
348.084	10.14
348.294	11.01
348.504	11.63
348.715	12.08
348.925	12.67
349.136	12.96
349.346	13
349.557	13.65
349.767	13.27
349.977	14.15
350.188	13.29
350.398	13.81
350.608	12.41
350.819	12.23
351.029	11.94
351.239	11.69
351.449	12.02
351.66	12.4
351.87	11.41
352.08	10.79
352.29	10.48
352.501	10.58
352.711	10.01
352.921	10.4
353.131	10.09
353.341	9.79
353.552	9.78
353.762	9.14
353.972	9.41
354.182	9.38
354.392	10.08
354.602	9.61
354.812	9.17
355.022	9.1
355.232	9.5
355.442	8.76
355.652	8.79
355.862	8.8
356.072	9.06
356.282	8.15
356.492	8.62
356.702	8.41
356.912	8.66
357.122	9.63
357.332	9.13
357.542	9.24
357.752	9.57
357.962	9.48
358.171	9.54
358.381	9.11
358.591	9.87
358.801	9.55
359.011	9.87
359.221	10.11
359.43	9.71
359.64	10
359.85	9.5
360.06	10.01
360.269	9.64
360.479	9.33
360.689	9.48
360.899	9.17
361.108	9.49
361.318	8.95
361.528	8.84
361.737	7.82
361.947	7.94
362.156	7.53
362.366	7.32
362.576	7.92
362.785	7.79
362.995	7.93
363.204	8
363.414	8.25
363.623	8.59
363.833	8.97
364.042	9.83
364.252	10.69
364.461	10.69
364.671	10.44
364.88	9.81
365.09	10.46
365.299	10.35
365.509	9.98
365.718	9.74
365.927	9.38
366.137	9.17
366.346	9.34
366.555	9.5
366.765	9.56
366.974	9.77
367.183	9.95
367.393	9.71
367.602	9.99
367.811	10.11
368.021	9.8
368.23	10.08
368.439	8.92
368.648	8.54
368.857	7.39
369.067	7.47
369.276	7.63
369.485	8.07
369.694	7.69
369.903	7.78
370.112	8.19
370.321	8.13
370.531	8.21
370.74	8.72
370.949	9.49
371.158	9.59
371.367	9.43
371.576	9.69
371.785	8.89
371.994	8.83
372.203	8.14
372.412	8.68
372.621	8.87
372.83	9.16
373.039	9.93
373.248	9.02
373.457	9.14
373.666	9.38
373.874	8.58
374.083	8.41
374.292	8.02
374.501	8
374.71	6.76
374.919	6.9
375.128	7
375.336	6.66
375.545	7.29
375.754	7.43
375.963	7.38
376.171	7.78
376.38	8.01
376.589	8.15
376.798	8.76
377.006	9.41
377.215	9.27
377.424	8.91
377.632	8.23
377.841	8.27
378.05	7.9
378.258	7.61
378.467	8.2
378.675	8.11
378.884	8.05
379.093	7.73
379.301	7.36
379.51	7.63
379.718	7.4
379.927	7.67
380.135	7.4
380.344	7.25
380.552	7.57
380.761	6.95
380.969	6.93
381.177	6.82
381.386	6.06
381.594	6.04
381.803	5.21
382.011	5.56
382.219	5.56
382.428	5.31
382.636	4.88
382.845	4.68
383.053	4.95
383.261	5.12
383.469	5.18
383.678	5.91
383.886	6.21
384.094	6.52
384.302	5.88
384.511	6.19
384.719	6.47
384.927	6.96
385.135	7.53
385.343	7.11
385.552	6.97
385.76	6.88
385.968	6.95
386.176	6.79
386.384	6.77
386.592	6.89
386.8	6.73
387.008	6.57
387.216	6.24
387.424	5.96
387.633	6.27
387.841	6.43
388.049	6.5
388.257	6.15
388.465	5.97
388.672	6.17
388.88	6.42
389.088	6.15
389.296	5.81
389.504	6.28
389.712	6.43
389.92	6.29
390.128	6.22
390.336	6.47
390.544	6.45
390.751	6.21
390.959	5.72
391.167	5.62
391.375	5.67
391.583	6.15
391.79	5.96
391.998	5.85
392.206	5.89
392.414	5.54
392.621	5.55
392.829	5.47
393.037	5.48
393.244	5.93
393.452	5.87
393.66	5.64
393.867	5.48
394.075	5.38
394.283	4.96
394.49	4.91
394.698	4.81
394.905	4.42
395.113	4.72
395.32	5.05
395.528	5.01
395.735	5.19
395.943	5.43
396.15	5.31
396.358	5.35
396.565	5.3
396.773	5.14
396.98	5.61
397.188	5.62
397.395	5.39
397.602	5.05
397.81	4.88
398.017	4.57
398.225	4.74
398.432	4.83
398.639	4.85
398.847	5.03
399.054	5.1
399.261	4.75
399.468	4.82
399.676	4.61
399.883	4.59
400.09	4.47
400.297	4.26
400.505	4.29
400.712	4.16
400.919	4.1
401.126	4.11
401.333	4.15
401.54	4.36
401.748	4.31
401.955	4.25
402.162	4.3
402.369	4.65
402.576	5.12
402.783	4.77
402.99	4.46
403.197	4.42
403.404	4.15
403.611	4.19
403.818	4.14
404.025	4.07
404.232	4.47
404.439	4.43
404.646	4.12
404.853	3.66
405.06	3.98
405.267	4.22
405.474	4.24
405.681	4.39
405.887	4.22
406.094	4.37
406.301	4.5
406.508	4.24
406.715	4.66
406.922	4.54
407.128	4.84
407.335	4.54
407.542	4.81
407.749	4.77
407.955	5.04
408.162	5.26
408.369	5.35
408.575	5.39
408.782	5.16
408.989	4.66
409.195	4.7
409.402	4.59
409.609	4.69
409.815	4.69
410.022	4.86
410.228	4.75
410.435	4.41
410.642	4.16
410.848	4.47
411.055	4.83
411.261	4.8
411.468	4.96
411.674	5.08
411.881	4.78
412.087	4.09
412.294	3.9
412.5	3.68
412.706	3.74
412.913	3.96
413.119	3.34
413.326	3.3
413.532	3.49
413.738	3.42
413.945	3.13
414.151	3.63
414.357	3.84
414.564	3.97
414.77	3.81
414.976	3.6
415.182	3.58
415.389	3.74
415.595	3.8
415.801	3.8
416.007	3.9
416.214	3.95
416.42	3.82
416.626	3.69
416.832	3.74
417.038	3.87
417.244	4
417.45	3.94
417.657	4.03
417.863	4.01
418.069	3.99
418.275	3.9
418.481	3.98
418.687	3.9
418.893	4.09
419.099	4.09
419.305	4.46
419.511	4.43
419.717	4.35
419.923	4.29
420.129	4.26
420.335	4.28
420.541	4.3
420.746	4.35
420.952	4.39
421.158	4.47
421.364	4.49
421.57	4.3
421.776	4.4
421.982	4.39
422.187	4.39
422.393	4.32
422.599	4.29
422.805	4.13
423.01	4.05
423.216	3.93
423.422	3.8
423.628	3.73
423.833	3.52
424.039	3.49
424.245	3.5
424.45	3.45
424.656	3.42
424.862	3.41
425.067	3.43
425.273	3.45
425.478	3.44
425.684	3.41
425.889	3.32
426.095	3.47
426.301	3.31
426.506	3.38
426.712	3.44
426.917	3.38
427.123	3.26
427.328	3.39
427.533	3.41
427.739	3.48
427.944	3.57
428.15	3.77
428.355	3.52
428.561	3.51
428.766	3.32
428.971	3.31
429.177	3.38
429.382	3.31
429.587	3.41
429.793	3.4
429.998	3.37
430.203	3.28
430.408	3.09
430.614	3.36
430.819	3.49
431.024	3.67
431.229	3.52
431.434	3.55
431.64	3.68
431.845	3.51
432.05	3.53
432.255	3.53
432.46	3.58
432.665	3.56
432.87	3.59
433.076	3.71
433.281	3.59
433.486	3.6
433.691	3.52
433.896	3.58
434.101	3.53
434.306	3.63
434.511	3.56
434.716	3.56
434.921	3.62
435.126	3.51
435.331	3.47
435.535	3.38
435.74	3.31
435.945	3.41
436.15	3.47
436.355	3.49
436.56	3.33
436.765	3.35
436.97	3.39
437.174	3.17
437.379	3.27
437.584	3.11
437.789	3.27
437.993	3.52
438.198	3.5
438.403	3.39
438.608	3.43
438.812	3.38
439.017	3.39
439.222	3.43
439.426	3.57
439.631	3.48
439.836	3.47
440.04	3.43
440.245	3.43
440.45	3.37
440.654	3.42
440.859	3.52
441.063	3.63
441.268	3.72
441.472	3.69
441.677	3.73
441.881	3.77
442.086	3.84
442.29	3.6
442.495	3.44
442.699	3.5
442.904	3.21
443.108	3.04
443.312	3.08
443.517	2.96
443.721	2.89
443.925	2.79
444.13	2.72
444.334	2.62
444.538	2.78
444.743	2.91
444.947	2.95
445.151	3.19
445.356	3.32
445.56	3.2
445.764	3.28
445.968	3.42
446.173	3.45
446.377	3.66
446.581	3.71
446.785	3.71
446.989	3.61
447.193	3.6
447.398	3.65
447.602	3.46
447.806	3.45
448.01	3.51
448.214	3.41
448.418	3.35
448.622	3.32
448.826	3.29
449.03	3.42
449.234	3.63
449.438	3.58
449.642	3.63
449.846	3.89
450.05	3.85
450.254	3.78
450.458	3.79
450.662	3.82
450.866	3.6
451.069	3.76
451.273	3.59
451.477	3.45
451.681	3.62
451.885	3.52
452.089	3.48
452.292	3.66
452.496	3.65
452.7	3.64
452.904	3.8
453.107	3.94
453.311	3.87
453.515	3.77
453.719	3.68
453.922	3.86
454.126	3.78
454.33	3.61
454.533	3.4
454.737	3.38
454.94	3.54
455.144	3.33
455.348	3.19
455.551	3.41
455.755	3.74
455.958	3.85
456.162	3.61
456.365	3.74
456.569	3.91
456.772	4.14
456.976	4.03
457.179	3.8
457.383	3.92
457.586	4
457.79	3.79
457.993	3.8
458.196	3.79
458.4	3.77
458.603	3.82
458.807	3.67
459.01	3.59
459.213	3.61
459.417	3.75
459.62	3.67
459.823	3.64
460.026	3.61
460.23	3.4
460.433	3.45
460.636	3.36
460.839	3.27
461.042	3.32
461.246	3.26
461.449	3.17
461.652	2.92
461.855	3.08
462.058	3.04
462.261	3.17
462.464	3.25
462.668	3.14
462.871	3.08
463.074	2.97
463.277	3.1
463.48	3.32
463.683	3.64
463.886	3.73
464.089	3.42
464.292	3.59
464.495	3.57
464.698	3.72
464.901	3.67
465.104	3.73
465.306	3.86
465.509	3.83
465.712	3.6
465.915	3.39
466.118	3.48
466.321	3.57
466.524	3.43
466.726	3.32
466.929	3.19
467.132	3.15
467.335	3.07
467.538	3.02
467.74	2.85
467.943	2.93
468.146	2.89
468.348	2.96
468.551	2.91
468.754	2.71
468.956	2.64
469.159	2.85
469.362	3.09
469.564	3.34
469.767	3.46
469.969	3.59
470.172	3.56
470.375	3.72
470.577	3.69
470.78	3.79
470.982	3.85
471.185	3.92
471.387	3.85
471.59	3.78
471.792	3.63
471.995	3.45
472.197	3.2
472.399	3.25
472.602	3.31
472.804	3.34
473.007	3.3
473.209	3.29
473.411	3.11
473.614	2.98
473.816	3.04
474.018	2.96
474.22	3.13
474.423	3.21
474.625	3.04
474.827	3.09
475.03	3.05
475.232	3.35
475.434	3.51
475.636	3.69
475.838	3.66
476.04	3.55
476.243	3.54
476.445	3.48
476.647	3.59
476.849	3.88
477.051	3.6
477.253	3.64
477.455	3.35
477.657	3.28
477.859	3.28
478.061	3.42
478.263	3.36
478.465	3.24
478.667	3.31
478.869	3.41
479.071	3.09
479.273	3.2
479.475	3.14
479.677	3.11
479.879	3.1
480.081	3.05
480.283	2.93
480.485	2.8
480.686	2.94
480.888	2.93
481.09	2.92
481.292	3.05
481.494	3.05
481.695	2.93
481.897	3.02
482.099	2.99
482.301	3.06
482.502	3.04
482.704	3.14
482.906	3.16
483.107	3.11
483.309	3.03
483.511	3.05
483.712	3.07
483.914	3.12
484.115	3.11
484.317	3.09
484.519	3.08
484.72	3.07
484.922	3.05
485.123	3.02
485.325	3.01
485.526	3.06
485.728	3.02
485.929	2.98
486.131	2.97
486.332	2.96
486.534	3
486.735	3.01
486.936	3.07
487.138	3.11
487.339	3.1
487.541	3.14
487.742	3.13
487.943	3.18
488.144	3.2
488.346	3.23
488.547	3.19
488.748	3.21
488.95	3.24
489.151	3.14
489.352	3.13
489.553	3.15
489.755	3.15
489.956	3.13
490.157	3.04
490.358	3.1
490.559	3.11
490.76	3.17
490.961	3.11
491.163	3
491.364	3.1
491.565	3.06
491.766	3.06
491.967	3.06
492.168	3.12
492.369	3.19
492.57	3.1
492.771	3.02
492.972	3.05
493.173	3.1
493.374	3.12
493.575	3.05
493.776	3.15
493.976	3.22
494.177	3.08
494.378	3.11
494.579	2.98
494.78	2.89
494.981	2.93
495.182	2.86
495.382	2.89
495.583	3.01
495.784	3.04
495.985	3
496.185	2.9
496.386	3.07
496.587	3
496.788	3.09
496.988	3.18
497.189	3.14
497.39	3.17
497.59	3.11
497.791	3.09
497.992	3.32
498.192	3.24
498.393	3.37
498.593	3.3
498.794	3.29
498.994	3.3
499.195	3.42
499.395	3.38
499.596	3.16
499.796	3.25
499.997	3.29
500.197	3.16
500.398	3.36
500.598	3.31
500.799	3.41
500.999	3.38
501.199	3.36
501.4	3.33
501.6	3.5
501.801	3.77
502.001	3.75
502.201	3.67
502.402	3.65
502.602	3.41
502.802	3.38
503.002	3.34
503.203	3.23
503.403	3.14
503.603	3.02
503.803	2.98
504.003	2.9
504.204	2.85
504.404	2.89
504.604	2.94
504.804	3.01
505.004	2.96
505.204	2.73
505.404	3.03
505.604	3.08
505.804	3.13
506.005	3.04
506.205	3.11
506.405	3.24
506.605	3.23
506.805	3.19
507.005	3.12
507.204	3.15
507.404	3.29
507.604	3.26
507.804	3.35
508.004	3.41
508.204	3.49
508.404	3.44
508.604	3.44
508.804	3.48
509.003	3.47
509.203	3.49
509.403	3.63
509.603	3.69
509.803	3.51
510.002	3.46
510.202	3.42
510.402	3.32
510.602	3.29
510.801	3.22
511.001	3.2
511.201	3.1
511.4	3.17
511.6	3.18
511.8	3.24
511.999	3.41
512.199	3.41
512.398	3.24
512.598	3.32
512.797	3.43
512.997	3.4
513.197	3.42
513.396	3.48
513.596	3.5
513.795	3.38
513.994	3.3
514.194	3.18
514.393	3.22
514.593	3.41
514.792	3.4
514.992	3.35
515.191	3.16
515.39	3.04
515.59	3.13
515.789	3.13
515.988	3.09
516.188	3.19
516.387	3.26
516.586	3.22
516.786	3.32
516.985	3.51
517.184	3.39
517.383	3.53
517.582	3.54
517.782	3.48
517.981	3.45
518.18	3.47
518.379	3.44
518.578	3.41
518.777	3.46
518.976	3.43
519.176	3.33
519.375	3.42
519.574	3.46
519.773	3.5
519.972	3.56
520.171	3.67
520.37	3.71
520.569	3.71
520.768	3.86
520.967	3.81
521.166	3.82
521.365	3.79
521.564	3.93
521.762	3.95
521.961	3.96
522.16	3.9
522.359	3.82
522.558	3.9
522.757	3.82
522.956	3.62
523.154	3.61
523.353	3.64
523.552	3.48
523.751	3.36
523.949	3.4
524.148	3.41
524.347	3.36
524.546	3.43
524.744	3.4
524.943	3.48
525.142	3.49
525.34	3.57
525.539	3.65
525.737	3.67
525.936	3.66
526.135	3.64
526.333	3.7
526.532	3.86
526.73	3.91
526.929	3.99
527.127	4.02
527.326	4.08
527.524	4.06
527.723	4.03
527.921	4.17
528.12	4.2
528.318	4.22
528.516	4.18
528.715	4.1
528.913	4.04
529.112	4.07
529.31	4.09
529.508	4.06
529.707	4.05
529.905	4.05
530.103	4.01
530.301	4
530.5	3.95
530.698	3.88
530.896	3.97
531.094	3.99
531.293	3.89
531.491	3.85
531.689	3.91
531.887	3.93
532.085	3.91
532.283	3.92
532.481	3.96
532.68	4.07
532.878	4.16
533.076	4.1
533.274	4.13
533.472	4.21
533.67	4.18
533.868	4.16
534.066	4.08
534.264	4.13
534.462	4.15
534.66	4.18
534.858	4.14
535.056	4.19
535.253	4.24
535.451	4.27
535.649	4.26
535.847	4.27
536.045	4.34
536.243	4.43
536.441	4.47
536.638	4.43
536.836	4.49
537.034	4.6
537.232	4.7
537.43	4.68
537.627	4.79
537.825	4.84
538.023	4.88
538.22	4.87
538.418	4.92
538.616	4.92
538.813	4.97
539.011	5.02
539.209	4.83
539.406	4.82
539.604	5.04
539.801	4.93
539.999	4.95
540.196	4.96
540.394	5.06
540.591	5.22
540.789	5.23
540.986	5.22
541.184	5.2
541.381	5.31
541.579	5.31
541.776	5.21
541.974	5.26
542.171	5.24
542.368	5.37
542.566	5.35
542.763	5.24
542.96	5.24
543.158	5.34
543.355	5.38
543.552	5.33
543.75	5.31
543.947	5.46
544.144	5.52
544.341	5.46
544.539	5.48
544.736	5.4
544.933	5.61
545.13	5.74
545.327	5.61
545.524	5.55
545.722	5.7
545.919	5.83
546.116	5.72
546.313	5.77
546.51	5.92
546.707	5.89
546.904	6.07
547.101	5.94
547.298	5.79
547.495	5.88
547.692	5.96
547.889	6.01
548.086	6
548.283	6.09
548.48	5.88
548.677	5.83
548.874	5.73
549.07	5.95
549.267	5.98
549.464	6.23
549.661	6.29
549.858	6.24
550.055	6.23
550.251	6.17
550.448	6.17
550.645	6.36
550.842	6.57
551.038	6.63
551.235	6.39
551.432	6.42
551.628	6.33
551.825	6.43
552.022	6.51
552.218	6.47
552.415	6.6
552.612	6.63
552.808	6.78
553.005	6.79
553.201	6.71
553.398	6.78
553.594	6.79
553.791	6.9
553.987	7.01
554.184	7.03
554.38	7.12
554.577	7.11
554.773	7.13
554.97	7.11
555.166	7.13
555.362	7.32
555.559	7.43
555.755	7.62
555.952	7.61
556.148	7.28
556.344	7.46
556.541	7.57
556.737	7.6
556.933	7.56
557.129	7.71
557.326	7.51
557.522	7.65
557.718	7.62
557.914	7.59
558.11	7.44
558.307	7.68
558.503	7.64
558.699	7.68
558.895	7.82
559.091	8.1
559.287	7.98
559.483	8.26
559.679	8.4
559.876	8.64
560.072	8.71
560.268	9.03
560.464	9.25
560.66	9.36
560.856	9.27
561.052	9.35
561.247	9.3
561.443	9.36
561.639	9.33
561.835	9.04
562.031	8.83
562.227	8.97
562.423	8.69
562.619	8.66
562.815	8.74
563.01	8.73
563.206	8.65
563.402	8.61
563.598	8.74
563.793	8.77
563.989	9.04
564.185	9.15
564.381	9.17
564.576	9.49
564.772	9.61
564.968	9.6
565.163	9.7
565.359	9.83
565.555	9.97
565.75	9.93
565.946	9.95
566.141	9.88
566.337	9.85
566.532	9.82
566.728	9.8
566.923	9.64
567.119	9.66
567.314	9.66
567.51	9.71
567.705	9.78
567.901	9.84
568.096	9.84
568.292	10.05
568.487	10.27
568.682	10.25
568.878	10.48
569.073	10.59
569.268	10.73
569.464	10.85
569.659	10.72
569.854	10.54
570.05	10.76
570.245	10.89
570.44	10.78
570.635	10.75
570.831	10.88
571.026	10.8
571.221	10.85
571.416	10.7
571.611	10.65
571.806	10.65
572.002	10.7
572.197	10.64
572.392	10.76
572.587	10.77
572.782	10.85
572.977	10.82
573.172	10.83
573.367	10.97
573.562	11.06
573.757	11.22
573.952	11.3
574.147	11.4
574.342	11.4
574.537	11.37
574.732	11.49
574.927	11.42
575.121	11.36
575.316	11.37
575.511	11.24
575.706	11.37
575.901	11.21
576.096	11.1
576.29	11.35
576.485	11.37
576.68	11.54
576.875	11.47
577.069	11.59
577.264	11.64
577.459	11.69
577.654	11.55
577.848	11.29
578.043	11.41
578.238	11.58
578.432	11.31
578.627	11.17
578.821	11.05
579.016	10.97
579.21	10.73
579.405	10.9
579.6	10.86
579.794	11.11
579.989	11.55
580.183	11.33
580.378	11.54
580.572	11.64
580.766	11.82
580.961	11.8
581.155	12.12
581.35	12.28
581.544	12.3
581.738	12.05
581.933	12.02
582.127	11.81
582.321	12.09
582.516	11.96
582.71	12.09
582.904	11.99
583.099	11.89
583.293	11.62
583.487	11.9
583.681	11.88
583.875	11.99
584.07	12.07
584.264	12.1
584.458	12.12
584.652	12.39
584.846	12.06
585.04	12.21
585.234	12.43
585.428	12.84
585.623	12.69
585.817	12.7
586.011	12.87
586.205	12.91
586.399	12.75
586.593	12.77
586.787	12.73
586.981	12.87
587.174	12.81
587.368	12.96
587.562	12.67
587.756	12.6
587.95	12.42
588.144	12.4
588.338	12.48
588.532	12.66
588.725	12.72
588.919	12.5
589.113	12.45
589.307	12.51
589.501	12.44
589.694	12.42
589.888	12.47
590.082	12.62
590.275	12.85
590.469	13.01
590.663	13.13
590.856	13.22
591.05	13.31
591.244	13.31
591.437	13.24
591.631	13.01
591.824	13.25
592.018	13.38
592.212	13.46
592.405	13.51
592.599	13.26
592.792	13.12
592.986	13.22
593.179	13.23
593.372	13.19
593.566	13.23
593.759	13.36
593.953	13.14
594.146	13.13
594.339	13.05
594.533	12.79
594.726	12.67
594.92	13.12
595.113	13.04
595.306	13.22
595.499	13.51
595.693	13.68
595.886	13.6
596.079	13.72
596.272	13.74
596.466	13.84
596.659	13.92
596.852	14.1
597.045	13.82
597.238	13.81
597.431	13.55
597.624	13.49
597.818	13.29
598.011	13.36
598.204	13.11
598.397	13.23
598.59	13.13
598.783	13.17
598.976	13.36
599.169	13.27
599.362	13.16
599.555	13.18
599.748	13.22
599.941	13.49
600.134	13.53
600.326	13.82
600.519	13.65
600.712	13.72
600.905	13.91
601.098	13.65
601.291	13.7
601.483	13.83
601.676	13.93
601.869	13.68
602.062	13.53
602.255	13.41
602.447	13.38
602.64	13.49
602.833	13.43
603.025	13.25
603.218	13.34
603.411	13.6
603.603	13.55
603.796	13.55
603.989	13.67
604.181	13.86
604.374	13.9
604.566	13.95
604.759	13.68
604.951	13.77
605.144	13.92
605.336	14.05
605.529	13.76
605.721	13.85
605.914	13.94
606.106	14.04
606.299	14.02
606.491	14.08
606.683	13.95
606.876	14.16
607.068	14.06
607.26	13.84
607.453	13.57
607.645	13.6
607.837	13.69
608.03	13.73
608.222	13.76
608.414	13.64
608.606	13.74
608.799	14.23
608.991	14.34
609.183	14.24
609.375	14.31
609.567	14.39
609.759	14.6
609.952	14.61
610.144	14.8
610.336	14.72
610.528	14.66
610.72	14.64
610.912	14.4
611.104	14.45
611.296	14.63
611.488	14.59
611.68	14.77
611.872	14.73
612.064	14.85
612.256	14.62
612.448	14.97
612.64	14.88
612.832	14.93
613.023	14.92
613.215	14.55
613.407	14.72
613.599	14.68
613.791	14.74
613.983	14.67
614.174	14.48
614.366	14.3
614.558	14.07
614.75	14.47
614.941	14.32
615.133	14.14
615.325	14.51
615.516	14.5
615.708	14.45
615.9	14.3
616.091	14.76
616.283	14.58
616.475	14.71
616.666	14.86
616.858	14.77
617.049	14.56
617.241	14.88
617.432	14.66
617.624	14.73
617.815	15.14
618.007	15.02
618.198	14.71
618.39	15.08
618.581	15.07
618.773	14.79
618.964	14.71
619.155	15.27
619.347	15.01
619.538	15.28
619.729	15.27
619.921	15.09
620.112	15.01
620.303	14.88
620.494	14.67
620.686	14.66
620.877	14.83
621.068	15.09
621.259	14.8
621.451	14.9
621.642	14.75
621.833	14.58
622.024	14.63
622.215	14.74
622.406	14.66
622.597	14.58
622.788	14.56
622.98	14.69
623.171	14.41
623.362	14.56
623.553	14.53
623.744	14.81
623.935	15.04
624.126	14.85
624.317	15.29
624.508	15.3
624.698	15.32
624.889	15.16
625.08	15.05
625.271	14.93
625.462	14.72
625.653	14.6
625.844	14.34
626.034	14.3
626.225	14.5
626.416	14.03
626.607	13.94
626.798	14.06
626.988	14.46
627.179	14.24
627.37	14.28
627.56	14.39
627.751	14.44
627.942	14.48
628.132	14.44
628.323	14.34
628.514	14.57
628.704	14.7
628.895	14.87
629.085	14.56
629.276	14.73
629.466	14.85
629.657	15.17
629.847	15.34
630.038	15.48
630.228	15.65
630.419	15.61
630.609	15.76
630.8	15.96
630.99	15.52
631.181	15.45
631.371	15.59
631.561	15.86
631.752	15.7
631.942	15.48
632.132	15.59
632.323	15.39
632.513	15.71
632.703	15.72
632.893	15.63
633.084	15.63
633.274	15.72
633.464	15.44
633.654	15.13
633.844	14.93
634.034	15.14
634.225	15.18
634.415	15.31
634.605	15.1
634.795	15.01
634.985	14.96
635.175	15.39
635.365	15.31
635.555	15.77
635.745	15.77
635.935	15.82
636.125	15.74
636.315	15.69
636.505	15.48
636.695	15.67
636.885	15.61
637.075	15.65
637.265	15.32
637.455	15.53
637.644	14.82
637.834	14.83
638.024	15.06
638.214	15.04
638.404	14.82
638.593	15.01
638.783	14.72
638.973	14.34
639.163	14.4
639.352	14.21
639.542	14.19
639.732	14.54
639.921	14.73
640.111	14.3
640.301	14.15
640.49	14.55
640.68	14.36
640.87	14.62
641.059	15.13
641.249	15.12
641.438	15.29
641.628	15.25
641.817	15.35
642.007	15.17
642.196	15.2
642.386	15.73
642.575	15.37
642.764	15.35
642.954	14.89
643.143	14.56
643.333	14.59
643.522	14.87
643.711	14.95
643.901	15.02
644.09	14.99
644.279	15.4
644.469	15.08
644.658	15.19
644.847	15.24
645.036	15.39
645.226	15.66
645.415	15.72
645.604	15.49
645.793	15.7
645.982	15.46
646.171	15.38
646.361	15.16
646.55	14.84
646.739	15.04
646.928	15.02
647.117	15.14
647.306	15.09
647.495	15.22
647.684	15.06
647.873	14.89
648.062	15.26
648.251	15.18
648.44	15.25
648.629	15.55
648.818	15.08
649.007	15.17
649.196	14.85
649.384	14.67
649.573	14.49
649.762	14.42
649.951	14.56
650.14	14.82
650.328	15.01
650.517	14.92
650.706	15
650.895	15.3
651.083	15.63
651.272	15.87
651.461	16.06
651.65	15.72
651.838	16.3
652.027	16
652.216	15.72
652.404	16.23
652.593	16.13
652.781	15.7
652.97	15.76
653.158	15.4
653.347	15.37
653.535	15.61
653.724	15.93
653.912	15.32
654.101	15.37
654.289	15.13
654.478	14.91
654.666	14.81
654.855	15.31
655.043	15.58
655.231	15.76
655.42	15.74
655.608	15.32
655.796	15.56
655.985	15.8
656.173	16.07
656.361	15.8
656.55	15.98
656.738	16.25
656.926	15.75
657.114	15.27
657.302	15.16
657.491	15.33
657.679	15.34
657.867	15.2
658.055	15.25
658.243	15.58
658.431	15.76
658.619	15.62
658.807	15.66
658.996	15.83
659.184	15.72
659.372	15.29
659.56	15.07
659.748	15.23
659.936	15.33
660.124	15.59
660.311	15.57
660.499	15.78
660.687	15.67
660.875	15.74
661.063	15.8
661.251	16.17
661.439	16.9
661.627	16.96
661.814	16.88
662.002	17.11
662.19	16.53
662.378	15.85
662.565	16.05
662.753	16.3
662.941	15.97
663.129	16.15
663.316	15.57
663.504	15.35
663.692	15.68
663.879	15.55
664.067	14.75
664.254	15.11
664.442	15.17
664.63	14.86
664.817	14.87
665.005	14.97
665.192	14.69
665.38	15.16
665.567	14.6
665.755	14.04
665.942	14.61
666.13	15.14
666.317	15.44
666.504	15.2
666.692	15.16
666.879	14.93
667.067	15.6
667.254	15.86
667.441	15.84
667.629	16.34
667.816	16.56
668.003	16.35
668.19	16.16
668.378	16.06
668.565	16.48
668.752	16.15
668.939	16.12
669.127	15.52
669.314	15.51
669.501	15.17
669.688	15.17
669.875	15.68
670.062	15.59
670.249	15.45
670.436	15.55
670.623	15.49
670.81	16.13
670.997	15.58
671.184	15.43
671.371	15.33
671.558	15.3
671.745	15.32
671.932	15.18
672.119	14.98
672.306	15.21
672.493	14.71
672.68	14.58
672.867	14.13
673.054	14.8
673.24	15.27
673.427	15.3
673.614	15.55
673.801	15.59
673.988	16.04
674.174	16.05
674.361	16.13
674.548	16.26
674.734	16.37
674.921	16.17
675.108	15.96
675.294	15.91
675.481	16.21
675.668	16.49
675.854	17.02
676.041	16.33
676.227	16.28
676.414	15.93
676.601	16.26
676.787	16.8
676.974	17.77
677.16	17.84
677.347	17.88
677.533	17.68
677.719	17.59
677.906	16.88
678.092	16.84
678.279	17.13
678.465	17.53
678.651	17.27
678.838	16.81
679.024	16.55
679.21	16.37
679.397	16.42
679.583	16.29
679.769	16.33
679.955	16.52
680.142	16.65
680.328	16.1
680.514	15.82
680.7	16.07
680.886	16.07
681.073	15.78
681.259	16.11
681.445	15.81
681.631	15.56
681.817	15.29
682.003	15.35
682.189	14.99
682.375	15.55
682.561	15.67
682.747	16.05
682.933	16.45
683.119	16.28
683.305	16.04
683.491	16.05
683.677	16.24
683.863	16.34
684.049	15.74
684.235	16.19
684.42	16.12
684.606	16.14
684.792	15.38
684.978	14.92
685.164	14.84
685.349	15.04
685.535	15.34
685.721	15.06
685.907	15.32
686.092	15.55
686.278	15.28
686.464	14.95
686.649	15.01
686.835	14.85
687.021	14.82
687.206	14.63
687.392	14.49
687.577	14.12
687.763	14.46
687.948	14.44
688.134	14.99
688.319	15.22
688.505	15.27
688.69	15.18
688.876	15.79
689.061	16.16
689.247	16.72
689.432	16.75
689.618	16.77
689.803	17.14
689.988	17.13
690.174	16.67
690.359	16.27
690.544	16.26
690.73	16.07
690.915	15.3
691.1	14.98
691.285	15.28
691.471	15.2
691.656	15.53
691.841	15.21
692.026	15.45
692.211	15.73
692.396	15.95
692.582	16.58
692.767	17.2
692.952	17.07
693.137	17.09
693.322	17
693.507	16.91
693.692	16.3
693.877	16.65
694.062	16.17
694.247	16.36
694.432	17.37
694.617	17.23
694.802	17.59
694.987	17.99
695.172	17.97
695.357	17.56
695.541	17.68
695.726	18.55
695.911	18.05
696.096	17.83
696.281	17.16
696.466	16.05
696.65	16.95
696.835	16.18
697.02	16.44
697.204	16.86
697.389	17.4
697.574	17.46
697.759	17.14
697.943	17.21
698.128	17.34
698.312	17.74
698.497	18.16
698.682	17.23
698.866	17.2
699.051	16.68
699.235	16.53
699.42	15.89
699.604	15.93
699.789	15.89
699.973	15.78
700.158	15.85
700.342	15.54
700.527	15.46
700.711	15.96
700.895	16.27
701.08	16.7
701.264	16.76
701.448	17.19
701.633	16.86
701.817	16.71
702.001	17.14
702.186	16.98
702.37	16.71
702.554	16.45
702.738	15.58
702.923	15.51
703.107	15.38
703.291	15.54
703.475	15.37
703.659	15.2
703.843	15.34
704.027	15.5
704.212	14.99
704.396	14.96
704.58	14.81
704.764	15.35
704.948	15.58
705.132	15.89
705.316	15.52
705.5	15.3
705.684	15.41
705.868	15.41
706.052	15.08
706.235	15.19
706.419	15.86
706.603	15.98
706.787	15.78
706.971	15.41
707.155	15.69
707.339	15.97
707.522	16.71
707.706	16.93
707.89	17.53
708.074	17.56
708.257	18.18
708.441	17.96
708.625	18.19
708.808	18.09
708.992	18.15
709.176	17.6
709.359	17.25
709.543	16.5
709.727	17.07
709.91	16.52
710.094	16.75
710.277	17.03
710.461	18.08
710.644	18.69
710.828	18.86
711.011	18.17
711.195	18.44
711.378	18.25
711.562	18.88
711.745	18.42
711.928	18.61
712.112	18.38
712.295	17.79
712.478	16.93
712.662	16.14
712.845	16.04
713.028	17.07
713.212	16.62
713.395	16.56
713.578	16.12
713.761	16.13
713.945	16.31
714.128	16.57
714.311	17.39
714.494	17.3
714.677	18.11
714.86	18.86
715.043	18.77
715.227	18.86
715.41	19.17
715.593	19.67
715.776	20.27
715.959	19.69
716.142	19.73
716.325	19.12
716.508	18.86
716.691	17.91
716.874	17.54
717.057	17.59
717.239	18.17
717.422	18.32
717.605	17.79
717.788	17.21
717.971	17.49
718.154	17.31
718.337	17.17
718.519	17.96
718.702	18.19
718.885	17.82
719.068	17.54
719.25	16.78
719.433	17.65
719.616	18.45
719.798	18.11
719.981	18.83
720.164	19.38
720.346	20.18
720.529	20.45
720.712	20.53
720.894	20.87
721.077	20.98
721.259	21.46
721.442	20.37
721.624	19.39
721.807	19.37
721.989	18.03
722.172	17.05
722.354	16.67
722.537	16.04
722.719	16.11
722.901	16.87
723.084	17.14
723.266	16.68
723.448	17.26
723.631	17.74
723.813	17.89
723.995	18.87
724.178	18.37
724.36	18.42
724.542	19.04
724.724	18.56
724.907	17.47
725.089	18.12
725.271	19.01
725.453	18.46
725.635	19.06
725.817	19.17
725.999	19.62
726.181	21.31
726.364	20.78
726.546	20.37
726.728	20.64
726.91	20.31
727.092	19.42
727.274	19.2
727.456	18.86
727.638	17.33
727.819	17.4
728.001	16.7
728.183	15.47
728.365	15.87
728.547	15.2
728.729	15.29
728.911	15.78
729.093	15.36
729.274	16.19
729.456	16.26
729.638	17.41
729.82	17.56
730.001	17.73
730.183	18.37
730.365	18.32
730.546	20.05
730.728	19.75
730.91	19.51
731.091	20.24
731.273	19.34
731.455	20.52
731.636	20.45
731.818	20.74
731.999	20.41
732.181	19.77
732.362	19.82
732.544	18.88
732.725	19.31
732.907	18.57
733.088	17.52
733.27	18.27
733.451	17.61
733.633	16.76
733.814	17.06
733.995	17.31
734.177	18.4
734.358	18.6
734.539	18.22
734.721	16.85
734.902	16.85
735.083	18.02
735.264	16.78
735.446	16.12
735.627	17.25
735.808	15.42
735.989	15.99
736.17	14.92
736.351	14.09
736.533	13.74
736.714	15.07
736.895	16
737.076	15.79
737.257	15.79
737.438	16.6
737.619	15.85
737.8	16.98
737.981	17.07
738.162	16.93
738.343	18.45
738.524	19.44
738.705	19.52
738.886	18.8
739.067	19.46
739.247	19.92
739.428	19.26
739.609	20.25
739.79	19.78
739.971	19.56
740.151	19.65
740.332	18.05
740.513	16.95
740.694	16.99
740.874	18.47
741.055	17.45
741.236	16.34
741.417	15.93
741.597	15.4
741.778	15.88
741.958	15.04
742.139	15.98
742.32	16.72
742.5	17.08
742.681	16.59
742.861	16.34
743.042	16.62
743.222	17.92
743.403	18.39
743.583	17.52
743.764	18.44
743.944	18.95
744.124	18.61
744.305	18.76
744.485	19.45
744.666	19.32
744.846	18.93
745.026	17.4
745.207	17.08
745.387	18.41
745.567	19.03
745.747	17.98
745.928	17.09
746.108	18.37
746.288	18.51
746.468	17.88
746.648	17.85
746.829	17.98
747.009	19.55
747.189	18.7
747.369	18.82
747.549	18.21
747.729	18.26
747.909	18.65
748.089	16.6
748.269	16.01
748.449	17.84
748.629	18.03
748.809	16.34
748.989	15.65
749.169	15.33
749.349	14.65
749.529	14.73
749.709	15.11
749.889	15.31
750.068	15.37
750.248	14.89
750.428	11.55
750.608	11.53
750.788	13.47
750.967	13.41
751.147	14.3
751.327	13.42
751.507	13.22
751.686	13.66
751.866	13.14
752.046	13.24
752.225	12.92
752.405	14.88
752.585	15.64
752.764	14.82
752.944	15.38
753.123	16.57
753.303	17.76
753.482	18.67
753.662	17.54
753.841	18.39
754.021	20.01
754.2	20.39
754.38	18.7
754.559	18.25
754.739	18.41
754.918	18.2
755.097	17.54
755.277	16.36
755.456	16.87
755.635	16.93
755.815	16.46
755.994	15.43
756.173	15.23
756.352	17.98
756.532	18.14
756.711	19.36
756.89	19.51
757.069	19.12
757.248	18.91
757.427	18.09
757.607	18.99
757.786	18.81
757.965	18.2
758.144	19.28
758.323	18.29
758.502	18.24
758.681	17.61
758.86	16.97
759.039	16.87
759.218	18.22
759.397	19.81
759.576	20.13
759.755	20.22
759.934	20.52
760.113	19.67
760.291	19.26
760.47	18.74
760.649	18.14
760.828	18.59
761.007	18.13
761.186	17.55
761.364	15.56
761.543	13.79
761.722	14.14
761.901	14.46
762.079	15.97
762.258	16.62
762.437	16.92
762.615	16.82
762.794	16.51
762.972	17.36
763.151	17.66
763.33	17.67
763.508	18.11
763.687	18.57
763.865	18.97
764.044	17.97
764.222	17.81
764.401	17.82
764.579	17.79
764.758	18.07
764.936	17.81
765.114	18.16
765.293	18.98
765.471	19.57
765.65	18.47
765.828	17.84
766.006	18.98
766.184	19.3
766.363	19.67
766.541	21.01
766.719	22.15
766.898	20.77
767.076	19.99
767.254	19.27
767.432	17.9
767.61	19.31
767.788	18.37
767.967	16.67
768.145	15.98
768.323	14.73
768.501	14.2
768.679	13.42
768.857	13.82
769.035	12.58
769.213	11.21
769.391	13.53
769.569	11.9
769.747	13.31
769.925	15.8
770.103	15.53
770.281	18.02
770.459	17.64
770.636	17.31
770.814	19.15
770.992	21.54
771.17	24.02
771.348	22.45
771.525	21.29
771.703	18.42
771.881	16.66
772.059	17.05
772.236	17.36
772.414	17.19
772.592	17.41
772.769	16.58
772.947	13.97
773.125	12.59
773.302	13.34
773.48	16.4
773.657	17.5
773.835	17.06
774.013	18.88
774.19	18.81
774.368	16.47
774.545	17.13
774.723	17.58
774.9	19.6
775.077	18.12
775.255	18.19
775.432	17.02
775.61	18
775.787	16.66
775.964	17.54
776.142	16.53
776.319	18.41
776.496	17.22
776.674	17.13
776.851	15.77
777.028	18.17
777.205	16.51
777.382	15.77
777.56	16.28
777.737	16.87
777.914	12.67
778.091	11.14
778.268	13.85
778.445	14.51
778.622	15.4
778.8	16.67
778.977	13.96
779.154	16.5
779.331	16.3
779.508	15.45
779.685	19.82
779.862	23.29
780.038	24.61
780.215	24.33
780.392	23.53
780.569	22.47
780.746	22.68
780.923	25.89
781.1	23.77
781.277	24.28
781.453	25.16
781.63	21.98
781.807	19.59
781.984	17.79
782.16	14.62
782.337	17.41
782.514	15.92
782.691	14.06
782.867	12.95
783.044	13.37
783.221	13.17
783.397	13.44
783.574	14.47
783.75	14.58
783.927	15.6
784.103	17.96
784.28	17.7
784.456	17.67
784.633	19.89
784.809	20.18
784.986	20.46
785.162	19.74
785.339	18.66
785.515	18.87
785.692	19.49
785.868	18.55
786.044	19.86
786.221	17.45
786.397	20.98
786.573	20.45
786.749	21.38
786.926	22.4
787.102	24.49
787.278	23.43
787.454	22.98
787.631	22.14
787.807	23.22
787.983	20.98
788.159	20.4
788.335	20.05
788.511	20.16
788.687	18.37
788.863	18.22
789.039	18.41
789.216	20.28
789.392	18.16
789.568	18.31
789.744	19.45
789.919	18.62
790.095	19.98
790.271	19.95
790.447	17.32
790.623	16.99
790.799	16.76
790.975	15.61
791.151	14.91
791.327	17.94
791.502	19.58
791.678	18.52
791.854	20.41
792.03	20.21
792.205	20.37
792.381	22.39
792.557	25.52
792.733	26.43
792.908	26.61
793.084	27.25
793.259	25.68
793.435	25.06
793.611	24.7
793.786	24.59
793.962	23.29
794.137	22.24
794.313	20.31
794.488	18.22
794.664	16.72
794.839	15.79
795.015	16.68
795.19	19.78
795.366	20.09
795.541	21.96
795.716	20.57
795.892	20.62
796.067	19.38
796.242	21.59
796.418	18.85
796.593	18
796.768	17.17
796.944	12.79
797.119	11.65
797.294	9.23
797.469	7.26
797.644	9.77
797.82	8.62
797.995	10.8
798.17	10.73
798.345	15.06
798.52	18.61
798.695	22.96
798.87	27.33
799.045	24.66
799.22	24.26
799.395	24.45
799.57	20.87
799.745	21.89
799.92	20.17
800.095	19.13
800.27	17.63
800.445	11.9
800.62	7.36
800.795	5.78
800.97	6.31
801.145	6.63
801.319	5.05
801.494	6.81
801.669	5.38
801.844	3.38
802.018	6
802.193	1.99
802.368	5.1
802.543	6.81
802.717	8.49
802.892	5.74
803.067	7.53
803.241	10.69
803.416	9.28
803.59	11.43
803.765	17.1
803.94	14.62
804.114	17.27
804.289	16.99
804.463	15.68
804.638	15.04
804.812	15.87
804.986	14.91
805.161	13.61
805.335	14.52
805.51	15.26
805.684	13.74
805.858	14.48
806.033	15.84
806.207	15.8
806.381	18.63
806.556	17.87
806.73	21.5
806.904	22.77
807.078	22.55
807.253	22.79
807.427	19.81
807.601	20.15
807.775	17.05
807.949	17.46
808.123	18.87
808.298	19.73
808.472	21.31
808.646	17.77
808.82	19.21
808.994	20.55
809.168	19.52
809.342	23.08
809.516	22.33
809.69	23.22
809.864	21.65
810.038	23.29
810.212	21.56
810.385	22.59
810.559	19.51
810.733	15.51
810.907	15.36
811.081	17.41
811.255	18.34
811.428	17.22
811.602	19.78
811.776	21.88
811.95	20.15
812.123	21.92
812.297	23.07
812.471	25.29
812.644	26.08
812.818	27.24
812.992	28.48
813.165	29.65
813.339	31.15
813.512	29.67
813.686	26.58
813.86	26.68
814.033	25.01
814.207	22.5
814.38	25.67
814.554	22.28
814.727	17.86
814.9	13.82
815.074	8.95
815.247	8.46
815.421	9
815.594	9.7
815.767	7.22
815.941	5.07
816.114	5
816.287	2.8
816.46	7.12
816.634	10.91
816.807	10.86
816.98	13.19
817.153	14.36
817.327	15.3
817.5	15.32
817.673	15.97
817.846	15.88
818.019	17.3
818.192	15.08
818.365	16.26
818.538	14.57
818.711	21.4
818.884	22.86
819.057	20.78
819.23	19.53
819.403	25.03
819.576	28.73
819.749	28.8
819.922	27.79
820.095	29.64
820.268	29.31
820.441	29.47
820.614	24.87
820.786	23.08
820.959	21.85
821.132	22.35
821.305	18.95
821.477	18.68
821.65	19.48
821.823	19.99
821.996	20.14
822.168	20.42
822.341	20.04
822.514	21.36
822.686	21.73
822.859	22.06
823.031	22.54
823.204	23.49
823.376	22.68
823.549	22.58
823.722	22.29
823.894	22.33
824.067	21.65
824.239	21.26
824.411	21.2
824.584	21.17
824.756	20.97
824.929	19.04
825.101	17.2
825.273	16.82
825.446	16.05
825.618	16.75
825.79	15.62
825.963	17.03
826.135	17.14
826.307	16.89
826.479	17.53
826.652	18.77
826.824	20.44
826.996	22.11
827.168	23.33
827.34	23.57
827.512	21.92
827.684	21.63
827.856	22.14
828.029	23.84
828.201	21.82
828.373	20.65
828.545	20.08
828.717	18.66
828.889	18.13
829.061	17.23
829.232	17.33
829.404	17.99
829.576	21.59
829.748	18.57
829.92	14.6
830.092	19.22
830.264	18.24
830.436	18.51
830.607	18.65
830.779	17.7
830.951	16.82
831.123	17.34
831.294	17.55
831.466	16.56
831.638	19.08
831.809	21.06
831.981	16.84
832.153	17.66
832.324	15.46
832.496	16.59
832.667	14.78
832.839	16.45
833.011	15.04
833.182	18.2
833.354	17.14
833.525	16.15
833.697	17.43
833.868	18.86
834.039	18.83
834.211	20.15
834.382	21.3
834.554	24.53
834.725	24.33
834.896	26.04
835.068	22.24
835.239	22.11
835.41	21.98
835.581	21.65
835.753	19.85
835.924	19.88
836.095	21.04
836.266	20.59
836.438	16.35
836.609	19.63
836.78	16.75
836.951	18.25
837.122	15.47
837.293	16.79
837.464	19.29
837.635	20.69
837.806	22.15
837.977	22.12
838.148	24.62
838.319	27.44
838.49	21.15
838.661	20.61
838.832	23.22
839.003	26.42
839.174	26.41
839.345	24.8
839.516	28
839.687	31.48
839.857	29.13
840.028	20.9
840.199	22.32
840.37	21.34
840.54	24.19
840.711	23.46
840.882	23.51
841.053	21
841.223	19.47
841.394	18.42
841.564	11.11
841.735	11.92
841.906	21.88
842.076	25.51
842.247	28.61
842.417	24.75
842.588	21.95
842.758	15.7
842.929	15.4
843.099	13.65
843.27	19.13
843.44	24.57
843.611	25.6
843.781	19.81
843.951	13.64
844.122	15.32
844.292	14.15
844.462	19.34
844.633	22.42
844.803	28.14
844.973	33.81
845.144	34.19
845.314	30.96
845.484	37.09
845.654	42.26
845.824	46.34
845.995	42.8
846.165	46.52
846.335	43.88
846.505	53.14
846.675	44.87
846.845	42.57
847.015	39.41
847.185	50.67
847.355	51.06
847.525	60.09
847.695	61.11
847.865	66.2
848.035	65.07
848.205	67.08
848.375	68.33
848.545	68.69
848.715	70.8
848.884	69.99
849.054	64.36
849.224	64.72
849.394	61.82
849.564	61.27
849.733	56.56
849.903	59.06
850.073	52.95
850.243	41.88
850.412	43.97
850.582	39.73
850.752	39.32
850.921	31.14
851.091	17.88
851.26	13.4
851.43	14.36
851.599	14.96
851.769	17.23
851.939	26.31
852.108	30.4
852.278	13.28
852.447	18.24
852.616	14.08
852.786	19.84
852.955	23.58
853.125	33.65
853.294	38.62
853.463	34.47
853.633	46.02
853.802	33.07
853.971	35.68
854.141	57.72
854.31	54.43
854.479	53.37
854.648	51.88
854.818	44.65
854.987	28.49
855.156	16.28
855.325	15.25
855.494	4.84
855.663	9.1
855.832	18.04
856.001	3.83
856.171	-19.85
856.34	1.75
856.509	11.82
856.678	21
856.847	15.78
857.016	24.17
857.185	28.05
857.353	22.17
857.522	32.5
857.691	25.45
857.86	30.28
858.029	37.15
858.198	24.67
858.367	27.93
858.535	9.48
858.704	11.52
858.873	-4.2
859.042	-1.11
859.21	-0.2
859.379	-5.06
859.548	-17.1
859.717	1.46
859.885	-3.48
860.054	2.98
860.222	4.58
860.391	8.24
860.56	23.06
860.728	25.82
860.897	25.42
861.065	29.82
861.234	38.24
861.402	36.28
861.571	39.31
861.739	37.55
861.908	42.56
862.076	41.61
862.244	50.47
862.413	38.51
862.581	36.74
862.749	42.51
862.918	37.74
863.086	29.02
863.254	38.17
863.423	29.18
863.591	24.86
863.759	11.96
863.927	6.29
864.096	18.5
864.264	27.52
864.432	37.13
864.6	25.72
864.768	26.59
864.936	24.94
865.104	11.37
865.272	11.37
865.44	24.03
865.608	27.59
865.776	31.58
865.944	12.39
866.112	15.41
866.28	16.14
866.448	20.51
866.616	20.86
866.784	21.89
866.952	39.11
867.12	39.8
867.288	33.25
867.455	44.24
867.623	43.69
867.791	56.23
867.959	47.13
868.127	36.87
868.294	50.16
868.462	50.25
868.63	34.56
868.797	40.32
868.965	57.41
869.133	56.18
869.3	24.47
869.468	18
869.636	-8.31
869.803	10.88
869.971	1.86
870.138	11.14
870.306	17.43
870.473	56.36
870.641	66.63
870.808	57.97
870.975	53.54
871.143	91.41
871.31	85.87
871.478	93.09
871.645	136.74
871.812	118.96
871.98	84.18
872.147	73.31
872.314	45.14
872.482	35.62
872.649	29.47
872.816	32.41
872.983	21.08
873.15	31.04
873.318	38.12
873.485	25.24
873.652	36.43
873.819	43.82
873.986	43.77
874.153	51.71
874.32	39.33
874.487	42.01
874.654	35.87
874.821	33.27
874.988	28.96
875.155	17.11
875.322	-1.92
875.489	-21.05
875.656	-31.44
875.823	-43.13
875.99	-8.34
876.157	-16.04
876.324	-5.96
876.49	-7.15
876.657	-0.89
876.824	-12.11
876.991	0.25
877.157	5.41
877.324	24.07
877.491	32.44
877.658	14.7
877.824	16.72
877.991	33.64
878.157	24.5
878.324	38.71
878.491	34.46
878.657	38.26
878.824	34.25
878.99	33.96
879.157	24.49
879.323	13.93
879.49	32.94
879.656	19.24
879.823	17.69
879.989	30.69
880.156	18
880.322	19.39
880.488	36.95
880.655	17.62
880.821	36.93
880.987	29.55
881.154	33.64
881.32	36.5
881.486	36.57
881.652	30.07
881.819	27.7
881.985	25.01
882.151	25.97
882.317	24.72
882.483	30.57
882.649	21.37
882.816	20.54
882.982	20.73
883.148	19.57
883.314	17.23
883.48	12.92
883.646	12.14
883.812	13.42
883.978	15.11
884.144	15.36
884.31	14.41
884.476	17.47
884.642	20.67
884.807	20.17
884.973	18.22
885.139	23.97
885.305	29.28
885.471	24.64
885.637	27.83
885.802	22.46
885.968	18.6
886.134	17.92
886.3	20.61
886.465	20.37
886.631	21.89
886.797	27.05
886.962	19.52
887.128	21.89
887.293	33.7
887.459	33.95
887.625	34.03
887.79	37.61
887.956	26.89
888.121	21.02
888.287	17.46
888.452	4.07
888.618	-20.94
888.783	1.64
