Data from 2938041_Reflection_1.txt Node
Date: Sun Jul 12 14:37:38 EDT 2015
User: robert
Spectrometer: USB4E03001
Autoset integration time: false
Trigger mode: 4
Integration Time (sec): 1.000000E-1
Scans to average: 10
Electric dark correction enabled: true
Nonlinearity correction enabled: false
Boxcar width: 5
Stray light correction enabled: false
XAxis mode: Wavelengths
Stop averaging: false
Number of Pixels in Spectrum: 3648
>>>>>Begin Spectral Data<<<<<
177.566	209.75
177.785	273.21
178.005	-11518.75
178.225	149.01
178.445	91.3
178.665	55.28
178.885	-25.85
179.105	218.18
179.324	152.74
179.544	-443.04
179.764	861.37
179.984	-217.72
180.204	-57.98
180.423	-27.09
180.643	-94.49
180.863	-48.18
181.083	-85.41
181.302	-75.43
181.522	-40.11
181.742	-33.88
181.961	-81.92
182.181	-67.11
182.401	-91.09
182.621	-94.78
182.84	-120.9
183.06	-88.52
183.279	-101.81
183.499	-61.79
183.719	-59.56
183.938	-50.97
184.158	-34.24
184.377	-3.78
184.597	-8.14
184.816	-1.87
185.036	-23.3
185.256	-20.27
185.475	-29.31
185.695	-34.72
185.914	-49.47
186.134	-20.85
186.353	-31.23
186.572	-61.3
186.792	-80.61
187.011	-78.54
187.231	-65.66
187.45	-46.22
187.67	-45.47
187.889	-11.22
188.108	-18.95
188.328	-44.39
188.547	-43.23
188.766	-52.77
188.986	-106.76
189.205	-84.64
189.424	-287.3
189.644	-278.43
189.863	-222.18
190.082	-127.26
190.302	-201.72
190.521	-310.93
190.74	-169.43
190.959	-125.02
191.178	-292.19
191.398	-191.85
191.617	-738.71
191.836	-70.59
192.055	-123.61
192.274	-252.71
192.494	-207.95
192.713	-637.45
192.932	1264.68
193.151	-152.09
193.37	43866.67
193.589	-44.57
193.808	-70.28
194.027	-80.41
194.246	-145.58
194.465	-153.57
194.685	-132.03
194.904	-330.87
195.123	-444.98
195.342	-598.49
195.561	2700
195.78	625.62
195.999	307.66
196.218	315.91
196.436	-495.42
196.655	-270.74
196.874	-58.78
197.093	-53.87
197.312	18.1
197.531	43.02
197.75	22.96
197.969	27.43
198.188	32.32
198.407	29.61
198.625	30.44
198.844	31.93
199.063	34.6
199.282	8.44
199.501	-9.53
199.719	-13.78
199.938	7.83
200.157	23.59
200.376	23.32
200.594	12.29
200.813	3.42
201.032	-10.25
201.251	4.86
201.469	24.52
201.688	32.45
201.907	36.15
202.125	2.35
202.344	-50.39
202.563	-60.75
202.781	-67.79
203	-3.23
203.218	5.87
203.437	-4.26
203.656	-35.51
203.874	-66.17
204.093	-55.59
204.311	-75.78
204.53	-73.99
204.748	-30.8
204.967	-106.62
205.185	-108.67
205.404	-705.03
205.622	524.68
205.841	607.19
206.059	2626.81
206.278	1644.82
206.496	1097.52
206.715	-4378.99
206.933	-617.77
207.151	-4821.43
207.37	-283.33
207.588	-368.17
207.806	-181.51
208.025	-155.05
208.243	-133.47
208.461	-192.91
208.68	-132.12
208.898	-94.34
209.116	-96.88
209.335	-114.32
209.553	-79.05
209.771	-78.53
209.989	-25.56
210.208	-36.1
210.426	-70.21
210.644	-129.65
210.862	-204.85
211.081	-448.8
211.299	-420.58
211.517	-1552.86
211.735	-1180.24
211.953	-1681.67
212.171	-2448
212.39	345.78
212.608	311.2
212.826	1393.52
213.044	-310.5
213.262	-156.2
213.48	-142.39
213.698	-196.7
213.916	-105.92
214.134	-150.8
214.352	-120.36
214.57	-134.06
214.788	-88.39
215.006	-85.66
215.224	-23.52
215.442	-54.49
215.66	-8.55
215.878	-23.04
216.096	-37.51
216.314	-77.89
216.532	-47.55
216.75	-17.8
216.968	-20.75
217.185	-29.66
217.403	-15.78
217.621	-43.91
217.839	-40.21
218.057	-101.64
218.275	-18.02
218.492	-1.24
218.71	19.39
218.928	11.13
219.146	13.23
219.363	-2.74
219.581	19.11
219.799	18.43
220.017	35.65
220.234	26.37
220.452	28.64
220.67	20.41
220.887	-0.53
221.105	-13.27
221.323	-14.85
221.54	-47.13
221.758	-34.16
221.976	-69.85
222.193	-115.44
222.411	-163.64
222.629	-241.02
222.846	-215.15
223.064	-238.23
223.281	-99.22
223.499	-78.55
223.716	-86.6
223.934	-52.42
224.151	-59.64
224.369	-51.35
224.586	-16.1
224.804	-22.58
225.021	-9.25
225.239	-2.56
225.456	3.36
225.674	-9.11
225.891	-32.27
226.108	-18.86
226.326	-34.05
226.543	-32.21
226.76	-18.52
226.978	-24.09
227.195	-7.37
227.413	-1.34
227.63	4.08
227.847	1.76
228.064	-1.43
228.282	6.83
228.499	6.45
228.716	7.33
228.934	11.43
229.151	9.06
229.368	6.34
229.585	4.87
229.802	5.02
230.02	-1.76
230.237	0.53
230.454	3.61
230.671	2.81
230.888	1.8
231.105	3.03
231.323	1.06
231.54	0.72
231.757	0.59
231.974	-0.17
232.191	0.01
232.408	6.33
232.625	0.47
232.842	-1.52
233.059	-2.97
233.276	-10.04
233.493	-11.1
233.71	-14.58
233.927	-8.35
234.144	-3.92
234.361	-4.79
234.578	-9.6
234.795	-11.5
235.012	-10.96
235.229	-12.15
235.446	-13.73
235.663	-7.25
235.879	-10.06
236.096	-12.12
236.313	-15.33
236.53	-17.68
236.747	-9.93
236.964	-11.49
237.181	-8.14
237.397	-11.25
237.614	-6.65
237.831	-1.63
238.048	-2.46
238.264	-5.7
238.481	-3.3
238.698	-4.77
238.915	3.02
239.131	-1.83
239.348	-2.4
239.565	-2.47
239.781	2.76
239.998	5.18
240.215	7.7
240.431	7.13
240.648	10.63
240.865	9.31
241.081	11.81
241.298	5.36
241.514	7.75
241.731	10.63
241.947	12.23
242.164	14.07
242.38	13.45
242.597	10.55
242.814	12.02
243.03	11.6
243.246	11.7
243.463	9.07
243.679	11.64
243.896	10.47
244.112	9.82
244.329	6.35
244.545	3.24
244.762	1.84
244.978	3.88
245.194	2.21
245.411	4.53
245.627	6.01
245.843	7.79
246.06	5.63
246.276	6.91
246.492	7.85
246.709	9.01
246.925	10.04
247.141	10.1
247.357	9.46
247.574	9.49
247.79	8.86
248.006	8.29
248.222	7.78
248.439	7.94
248.655	8.41
248.871	7.98
249.087	7.48
249.303	6.71
249.519	5.44
249.736	5.91
249.952	5.35
250.168	6.1
250.384	7
250.6	3.46
250.816	4.65
251.032	5.46
251.248	3.37
251.464	4.94
251.68	4.79
251.896	6.23
252.112	5.06
252.328	5.74
252.544	4.33
252.76	2.57
252.976	4.92
253.192	2.52
253.408	-0.2
253.624	-0.64
253.84	-2.18
254.056	-1.54
254.272	-8.3
254.487	-9.92
254.703	-9.82
254.919	-11.07
255.135	-9.25
255.351	-10.82
255.567	-7.29
255.782	-6.92
255.998	-3.18
256.214	-0.01
256.43	-5.72
256.646	1.69
256.861	5.36
257.077	2.76
257.293	5.37
257.508	3.74
257.724	4.93
257.94	6.26
258.155	7.35
258.371	6.67
258.587	5.97
258.802	9.72
259.018	9.78
259.234	9.4
259.449	9.23
259.665	9.74
259.88	10.99
260.096	11.7
260.312	11.63
260.527	10.44
260.743	10.9
260.958	11.37
261.174	10.63
261.389	10.52
261.605	10.12
261.82	10.62
262.036	10.13
262.251	8.54
262.466	9.23
262.682	8.87
262.897	9.37
263.113	8.03
263.328	5.82
263.543	4.59
263.759	3.18
263.974	3.9
264.189	4.45
264.405	5.23
264.62	6.14
264.835	4.22
265.051	5.5
265.266	7.91
265.481	8.66
265.696	9.92
265.912	8.82
266.127	11.09
266.342	9.38
266.557	7.62
266.773	5.5
266.988	5.25
267.203	2.57
267.418	2.38
267.633	0.28
267.848	0.56
268.064	-0.83
268.279	1.93
268.494	0.63
268.709	1.46
268.924	3.66
269.139	3.39
269.354	4.61
269.569	5.65
269.784	4.96
269.999	5.44
270.214	5.31
270.429	6.6
270.644	4.97
270.859	4.8
271.074	5.15
271.289	4.48
271.504	5.28
271.719	5.28
271.934	5.74
272.149	4.9
272.363	5.58
272.578	6.25
272.793	6.55
273.008	6.88
273.223	7.31
273.438	5.82
273.653	6.08
273.867	6.05
274.082	6.37
274.297	6.75
274.512	6.85
274.726	5.52
274.941	4.55
275.156	4.07
275.371	4.73
275.585	4.93
275.8	6.01
276.015	4.94
276.229	6.23
276.444	5.46
276.659	5.24
276.873	5.65
277.088	6.67
277.302	6.32
277.517	5.55
277.732	4.48
277.946	2.16
278.161	2.32
278.375	2.52
278.59	0.38
278.804	1.01
279.019	3.07
279.233	1.96
279.448	1.84
279.662	2.37
279.877	2.92
280.091	3.17
280.306	2.93
280.52	2.66
280.735	1.94
280.949	2.08
281.163	1.49
281.378	0.48
281.592	1.21
281.806	1.66
282.021	1.79
282.235	2.3
282.449	3.05
282.664	3.44
282.878	3.43
283.092	4.58
283.307	4.82
283.521	5.1
283.735	5.67
283.949	6.99
284.164	6.63
284.378	6.96
284.592	6.8
284.806	7.31
285.02	7.33
285.234	8.4
285.449	7.64
285.663	7.76
285.877	7.01
286.091	7.62
286.305	6.78
286.519	6.77
286.733	5.76
286.947	5.18
287.161	3.36
287.375	3.63
287.589	2.15
287.803	2.06
288.017	0.98
288.231	0.99
288.445	0.06
288.659	0.94
288.873	1.27
289.087	1.86
289.301	2.33
289.515	2.85
289.729	3.72
289.943	4.8
290.157	4.67
290.371	6.38
290.584	6.81
290.798	6.71
291.012	6.89
291.226	6.54
291.44	6.68
291.654	6.14
291.867	6.83
292.081	6.29
292.295	6.81
292.509	7.56
292.722	7.01
292.936	6.15
293.15	6.08
293.364	5.65
293.577	5.06
293.791	5.18
294.005	7.25
294.218	7.51
294.432	6.5
294.645	6.88
294.859	6.91
295.073	6.3
295.286	8.66
295.5	9.12
295.713	9.39
295.927	10.85
296.14	10.89
296.354	9.48
296.568	9.88
296.781	11.44
296.994	10.99
297.208	11.21
297.421	11.7
297.635	10.12
297.848	9.41
298.062	8.42
298.275	7.65
298.489	7.59
298.702	8.68
298.915	7.17
299.129	5.98
299.342	5.78
299.555	7.15
299.769	7.07
299.982	7.51
300.195	7.79
300.409	9.31
300.622	8.7
300.835	9.82
301.048	9.06
301.262	9.34
301.475	10.36
301.688	9.76
301.901	7.96
302.115	8.55
302.328	7.69
302.541	8.27
302.754	5.88
302.967	6.3
303.18	5.53
303.393	5.79
303.607	5.22
303.82	3.47
304.033	5.34
304.246	4.46
304.459	3.85
304.672	4.82
304.885	4.36
305.098	6.59
305.311	7.85
305.524	7.05
305.737	5.27
305.95	6.99
306.163	7.94
306.376	6.62
306.589	6.74
306.802	8.22
307.015	7.28
307.228	7.43
307.44	7.53
307.653	7.49
307.866	8.65
308.079	10.33
308.292	9.07
308.505	9.71
308.718	9.08
308.93	10.06
309.143	8.56
309.356	9.22
309.569	8.84
309.781	7.41
309.994	6.04
310.207	5.59
310.42	5.49
310.632	6.11
310.845	6.99
311.058	6.64
311.27	6.89
311.483	6.91
311.696	7.48
311.908	8.77
312.121	9.5
312.333	10.45
312.546	9.71
312.759	10.01
312.971	9.66
313.184	9.33
313.396	10.59
313.609	11.02
313.821	11.08
314.034	11.34
314.246	9.67
314.459	11.55
314.671	11.97
314.884	12.63
315.096	11.99
315.309	12.9
315.521	11.36
315.733	11.69
315.946	10.38
316.158	11.43
316.371	10.54
316.583	11.14
316.795	8.76
317.008	9.09
317.22	9.18
317.432	10.05
317.644	9.74
317.857	11.58
318.069	10.39
318.281	10.38
318.494	10.09
318.706	9.63
318.918	9.88
319.13	9.58
319.342	8.45
319.555	9.02
319.767	8.97
319.979	7.83
320.191	7.03
320.403	8.18
320.615	7.84
320.827	6.96
321.039	8.07
321.252	6.6
321.464	7.42
321.676	7.45
321.888	5.87
322.1	4.31
322.312	5.56
322.524	5.26
322.736	5.8
322.948	7.63
323.16	9.61
323.372	10.11
323.584	10.14
323.796	10.63
324.007	9.63
324.219	10.7
324.431	10.84
324.643	11.11
324.855	10.86
325.067	10.05
325.279	9.1
325.491	8.12
325.702	7.99
325.914	8.63
326.126	8.31
326.338	8.96
326.55	8.99
326.761	9.94
326.973	10.48
327.185	10.57
327.396	10.36
327.608	9.9
327.82	9.86
328.032	9.27
328.243	8.69
328.455	8.71
328.666	10.23
328.878	11.59
329.09	11.24
329.301	10.32
329.513	10.93
329.725	13.08
329.936	14.45
330.148	13.7
330.359	13.46
330.571	14.37
330.782	13.58
330.994	14.38
331.205	13.29
331.417	14.02
331.628	12.93
331.84	11.73
332.051	11.43
332.262	9.94
332.474	10.73
332.685	10.66
332.897	10.87
333.108	12.87
333.319	10.86
333.531	10.62
333.742	9.73
333.953	10.2
334.165	11.32
334.376	9.45
334.587	9.07
334.799	10.19
335.01	10.36
335.221	10.65
335.432	10.84
335.644	11.79
335.855	12.09
336.066	12.38
336.277	12.73
336.488	13.13
336.7	13.08
336.911	14.46
337.122	12.55
337.333	13.36
337.544	11.6
337.755	10.04
337.966	10.11
338.177	9.11
338.388	8.42
338.599	9.94
338.811	9.35
339.022	9.42
339.233	8.44
339.444	8.75
339.655	6.94
339.866	7.53
340.076	8.33
340.287	7.16
340.498	7.85
340.709	9.6
340.92	9.24
341.131	8.59
341.342	9.2
341.553	9.17
341.764	10
341.975	10.44
342.185	11.47
342.396	11.82
342.607	13.92
342.818	14.58
343.029	13.62
343.239	12.65
343.45	14.27
343.661	13.89
343.872	14.35
344.082	14.39
344.293	13.78
344.504	13.62
344.714	12.96
344.925	12.2
345.136	11.73
345.346	12.03
345.557	12.21
345.768	10.99
345.978	10.38
346.189	10.43
346.399	10.13
346.61	12.27
346.821	11.98
347.031	12.59
347.242	12.26
347.452	12.62
347.663	13.17
347.873	13.58
348.084	13.86
348.294	14.71
348.504	14.37
348.715	14.44
348.925	13.23
349.136	13.33
349.346	11.29
349.557	10.41
349.767	9.95
349.977	8.47
350.188	9.12
350.398	9.48
350.608	9.51
350.819	9.08
351.029	9.1
351.239	10.6
351.449	11.62
351.66	11.84
351.87	12.64
352.08	11.69
352.29	12.41
352.501	11.79
352.711	12.62
352.921	12.01
353.131	11.71
353.341	12.62
353.552	10.95
353.762	10.43
353.972	11.38
354.182	10.96
354.392	10.44
354.602	10.9
354.812	10.41
355.022	9.26
355.232	9.56
355.442	11.75
355.652	10.16
355.862	10.75
356.072	9.17
356.282	9.62
356.492	9.29
356.702	9.97
356.912	9.41
357.122	10.19
357.332	9.95
357.542	10.97
357.752	9.59
357.962	9.29
358.171	9.54
358.381	10.72
358.591	11.6
358.801	12.3
359.011	12.4
359.221	12.13
359.43	11.19
359.64	11.06
359.85	11.28
360.06	11.52
360.269	12
360.479	11.31
360.689	11.13
360.899	10.02
361.108	9.52
361.318	10.32
361.528	10.35
361.737	10.93
361.947	10.6
362.156	9.8
362.366	10.21
362.576	10.24
362.785	9.69
362.995	9.32
363.204	9.23
363.414	10.09
363.623	9.31
363.833	9.15
364.042	8.28
364.252	8.99
364.461	9.09
364.671	8.32
364.88	8.63
365.09	9.92
365.299	9.99
365.509	10.82
365.718	10.36
365.927	11.11
366.137	11.76
366.346	12.41
366.555	12.19
366.765	12.35
366.974	12.65
367.183	12.45
367.393	11.9
367.602	12.22
367.811	11.63
368.021	11.56
368.23	10.8
368.439	10.38
368.648	10.04
368.857	10
369.067	9.23
369.276	8.87
369.485	8.13
369.694	8.06
369.903	8.11
370.112	8.39
370.321	8.2
370.531	7.84
370.74	8.16
370.949	8.05
371.158	8.66
371.367	9.37
371.576	9.19
371.785	9.49
371.994	10.22
372.203	10
372.412	9.29
372.621	9.62
372.83	9.18
373.039	9.36
373.248	9.54
373.457	9.07
373.666	8.93
373.874	8.76
374.083	8.99
374.292	8.2
374.501	8.36
374.71	8.8
374.919	8.06
375.128	8.82
375.336	7.86
375.545	8.27
375.754	8.15
375.963	7.93
376.171	8.76
376.38	8.71
376.589	8.18
376.798	8.93
377.006	8.94
377.215	9.35
377.424	8.79
377.632	9.34
377.841	9.2
378.05	9.27
378.258	9.44
378.467	8.89
378.675	8.77
378.884	9.2
379.093	8.16
379.301	8.15
379.51	8.11
379.718	8.19
379.927	7.95
380.135	7.5
380.344	7.77
380.552	7.73
380.761	8.27
380.969	8.27
381.177	8.07
381.386	7.99
381.594	7.28
381.803	7.13
382.011	7.61
382.219	7.57
382.428	7.38
382.636	6.86
382.845	6.64
383.053	6.07
383.261	6.46
383.469	6.01
383.678	6.47
383.886	6.69
384.094	6.75
384.302	6.87
384.511	6.72
384.719	7
384.927	7.14
385.135	6.83
385.343	7.27
385.552	7.21
385.76	7.79
385.968	7.75
386.176	8
386.384	8.1
386.592	7.82
386.8	8.04
387.008	8.04
387.216	7.89
387.424	8.23
387.633	7.85
387.841	7.45
388.049	6.97
388.257	6.82
388.465	6.87
388.672	6.69
388.88	6.74
389.088	6.73
389.296	6.23
389.504	6.2
389.712	6.18
389.92	5.64
390.128	5.82
390.336	5.99
390.544	5.66
390.751	5.15
390.959	4.93
391.167	4.99
391.375	5.05
391.583	5.11
391.79	4.88
391.998	4.82
392.206	5.19
392.414	5.07
392.621	5.49
392.829	5.91
393.037	6.4
393.244	6.59
393.452	6.45
393.66	6.14
393.867	6.47
394.075	6.24
394.283	6.19
394.49	6.31
394.698	6.44
394.905	5.83
395.113	5.58
395.32	5.14
395.528	5.08
395.735	4.84
395.943	5.05
396.15	4.46
396.358	4.58
396.565	4.69
396.773	4.68
396.98	4.63
397.188	4.35
397.395	4.6
397.602	5.01
397.81	5.11
398.017	5.24
398.225	5.63
398.432	5.95
398.639	6.34
398.847	6.3
399.054	6.07
399.261	5.87
399.468	6.34
399.676	6.06
399.883	6.01
400.09	5.72
400.297	5.76
400.505	5.11
400.712	4.9
400.919	4.49
401.126	4.49
401.333	4.28
401.54	4.33
401.748	4.24
401.955	4.16
402.162	4.05
402.369	4.08
402.576	4.13
402.783	4.04
402.99	4.32
403.197	4.62
403.404	4.6
403.611	4.92
403.818	4.9
404.025	5.07
404.232	5.26
404.439	5.19
404.646	5.39
404.853	5.4
405.06	5.69
405.267	5.64
405.474	5.53
405.681	5.71
405.887	5.62
406.094	5.55
406.301	5.33
406.508	4.97
406.715	4.83
406.922	4.71
407.128	4.79
407.335	4.56
407.542	4.55
407.749	4.38
407.955	4.04
408.162	4.3
408.369	4.29
408.575	4.48
408.782	4.79
408.989	4.97
409.195	5.19
409.402	5
409.609	5.42
409.815	5.34
410.022	5.63
410.228	5.81
410.435	5.44
410.642	4.92
410.848	4.92
411.055	4.94
411.261	4.75
411.468	4.71
411.674	4.64
411.881	4.16
412.087	4.43
412.294	4.46
412.5	4.24
412.706	4.25
412.913	4.74
413.119	4.82
413.326	4.71
413.532	4.86
413.738	4.58
413.945	4.41
414.151	4.75
414.357	4.59
414.564	4.33
414.77	4.66
414.976	4.82
415.182	5.24
415.389	5.15
415.595	5.26
415.801	5.04
416.007	5.02
416.214	5.12
416.42	4.79
416.626	4.68
416.832	4.84
417.038	4.6
417.244	4.53
417.45	4.52
417.657	4.67
417.863	4.73
418.069	5.15
418.275	5.1
418.481	5.05
418.687	5.31
418.893	5.3
419.099	5.25
419.305	5.34
419.511	5.29
419.717	5.15
419.923	4.93
420.129	4.83
420.335	4.68
420.541	4.77
420.746	4.95
420.952	4.93
421.158	5.03
421.364	5
421.57	4.94
421.776	5.04
421.982	5.04
422.187	5.14
422.393	5.17
422.599	5.14
422.805	5.14
423.01	4.9
423.216	4.83
423.422	4.77
423.628	4.88
423.833	4.76
424.039	4.84
424.245	4.7
424.45	4.69
424.656	4.69
424.862	4.77
425.067	4.79
425.273	4.93
425.478	4.84
425.684	4.85
425.889	4.83
426.095	4.94
426.301	4.86
426.506	4.87
426.712	4.76
426.917	4.74
427.123	4.6
427.328	4.35
427.533	4.45
427.739	4.41
427.944	4.37
428.15	4.25
428.355	4.25
428.561	3.96
428.766	4
428.971	4.14
429.177	4.03
429.382	3.91
429.587	4.04
429.793	4.1
429.998	4.41
430.203	4.5
430.408	4.5
430.614	4.51
430.819	4.45
431.024	4.62
431.229	4.54
431.434	4.5
431.64	4.52
431.845	4.51
432.05	4.35
432.255	4.12
432.46	3.99
432.665	3.9
432.87	3.95
433.076	4.2
433.281	3.99
433.486	4.16
433.691	4.26
433.896	4.47
434.101	4.47
434.306	4.58
434.511	4.61
434.716	4.75
434.921	4.78
435.126	4.88
435.331	4.96
435.535	5.24
435.74	5.11
435.945	5.07
436.15	4.89
436.355	5.04
436.56	4.93
436.765	5.07
436.97	4.85
437.174	4.85
437.379	4.89
437.584	4.67
437.789	4.53
437.993	4.45
438.198	4.29
438.403	4.27
438.608	4.08
438.812	3.94
439.017	3.92
439.222	4.04
439.426	4.04
439.631	3.95
439.836	3.88
440.04	3.9
440.245	4.01
440.45	4.03
440.654	4.17
440.859	4.11
441.063	4.12
441.268	3.95
441.472	3.92
441.677	3.94
441.881	3.91
442.086	3.99
442.29	4.03
442.495	3.91
442.699	4.05
442.904	4.04
443.108	4.08
443.312	4.37
443.517	4.34
443.721	4.28
443.925	4.16
444.13	3.99
444.334	4.02
444.538	3.99
444.743	4.04
444.947	4.1
445.151	3.94
445.356	4
445.56	3.93
445.764	3.9
445.968	3.91
446.173	4.02
446.377	4.05
446.581	3.93
446.785	3.98
446.989	3.96
447.193	3.89
447.398	4.04
447.602	4.05
447.806	4.06
448.01	4.14
448.214	4.26
448.418	4.14
448.622	4.19
448.826	4.33
449.03	4.25
449.234	4.44
449.438	4.39
449.642	4.19
449.846	4.09
450.05	3.78
450.254	3.95
450.458	3.89
450.662	3.91
450.866	3.83
451.069	3.66
451.273	3.81
451.477	3.61
451.681	3.67
451.885	3.82
452.089	3.78
452.292	4.04
452.496	4.01
452.7	4.16
452.904	4.21
453.107	4.31
453.311	4.47
453.515	4.25
453.719	4.17
453.922	4.25
454.126	3.88
454.33	4.05
454.533	3.93
454.737	3.73
454.94	3.49
455.144	3.69
455.348	3.76
455.551	3.68
455.755	3.79
455.958	3.84
456.162	3.77
456.365	4.02
456.569	4.18
456.772	4.19
456.976	4.1
457.179	4.1
457.383	3.86
457.586	3.62
457.79	3.8
457.993	3.73
458.196	3.69
458.4	3.62
458.603	3.74
458.807	3.73
459.01	3.79
459.213	3.95
459.417	3.96
459.62	3.97
459.823	4.03
460.026	3.96
460.23	3.98
460.433	4.13
460.636	4.17
460.839	4.05
461.042	3.92
461.246	3.75
461.449	3.67
461.652	3.7
461.855	3.76
462.058	3.77
462.261	3.9
462.464	3.83
462.668	3.75
462.871	3.73
463.074	3.8
463.277	3.71
463.48	3.95
463.683	4.17
463.886	3.96
464.089	3.84
464.292	3.81
464.495	3.67
464.698	3.63
464.901	3.63
465.104	3.82
465.306	3.73
465.509	3.6
465.712	3.43
465.915	3.23
466.118	3.36
466.321	3.54
466.524	3.5
466.726	3.35
466.929	3.29
467.132	3.15
467.335	3.18
467.538	3.32
467.74	3.54
467.943	3.65
468.146	3.69
468.348	3.66
468.551	3.62
468.754	3.63
468.956	3.68
469.159	3.85
469.362	4.02
469.564	3.63
469.767	3.69
469.969	3.79
470.172	3.6
470.375	3.51
470.577	3.57
470.78	3.61
470.982	3.73
471.185	3.93
471.387	4.02
471.59	3.79
471.792	4.19
471.995	4.2
472.197	4.08
472.399	4.24
472.602	4.12
472.804	4.08
473.007	3.87
473.209	3.83
473.411	3.63
473.614	3.52
473.816	3.46
474.018	3.25
474.22	3.12
474.423	3.19
474.625	3.17
474.827	3.33
475.03	3.35
475.232	3.3
475.434	3.18
475.636	3.24
475.838	3.11
476.04	3.12
476.243	3.24
476.445	3.15
476.647	3.16
476.849	3.29
477.051	3.3
477.253	3.31
477.455	3.54
477.657	3.67
477.859	3.65
478.061	3.85
478.263	3.94
478.465	3.87
478.667	3.82
478.869	3.68
479.071	3.63
479.273	3.53
479.475	3.48
479.677	3.42
479.879	3.44
480.081	3.46
480.283	3.58
480.485	3.65
480.686	3.66
480.888	3.91
481.09	3.92
481.292	3.85
481.494	3.96
481.695	4
481.897	3.96
482.099	4.02
482.301	4.01
482.502	3.98
482.704	4.04
482.906	4.05
483.107	4
483.309	4.08
483.511	4.07
483.712	4.1
483.914	4.11
484.115	4.14
484.317	4.12
484.519	4.09
484.72	4.1
484.922	4.07
485.123	4.09
485.325	4.13
485.526	4.09
485.728	4.13
485.929	4.08
486.131	4.1
486.332	4.09
486.534	4.05
486.735	4.12
486.936	4.13
487.138	4.11
487.339	4.05
487.541	4.04
487.742	4.05
487.943	4.05
488.144	4.05
488.346	4.03
488.547	4.02
488.748	4.01
488.95	3.99
489.151	3.93
489.352	3.86
489.553	3.83
489.755	3.77
489.956	3.77
490.157	3.83
490.358	3.86
490.559	3.86
490.76	3.85
490.961	3.93
491.163	3.96
491.364	3.99
491.565	4.06
491.766	4.14
491.967	4.2
492.168	4.2
492.369	4.16
492.57	4.14
492.771	4.18
492.972	4.18
493.173	4.12
493.374	4.14
493.575	4.18
493.776	4.25
493.976	4.15
494.177	4.13
494.378	4.19
494.579	4.18
494.78	4.26
494.981	4.24
495.182	4.38
495.382	4.61
495.583	4.55
495.784	4.47
495.985	4.37
496.185	4.43
496.386	4.49
496.587	4.41
496.788	4.39
496.988	4.33
497.189	4.22
497.39	4.25
497.59	4.01
497.791	4.11
497.992	4.11
498.192	4.19
498.393	3.96
498.593	4.02
498.794	3.98
498.994	4.2
499.195	4.19
499.395	4.23
499.596	4.2
499.796	4.33
499.997	4.24
500.197	4.19
500.398	4.27
500.598	4.37
500.799	4.25
500.999	4.36
501.199	4.2
501.4	4.34
501.6	4.41
501.801	4.3
502.001	4.13
502.201	4
502.402	4.04
502.602	3.92
502.802	3.97
503.002	3.95
503.203	3.85
503.403	3.86
503.603	3.87
503.803	3.91
504.003	4.09
504.204	4.23
504.404	4.47
504.604	4.54
504.804	4.49
505.004	4.64
505.204	4.46
505.404	4.48
505.604	4.47
505.804	4.33
506.005	4.37
506.205	4.21
506.405	4.42
506.605	4.22
506.805	4.25
507.005	4.26
507.204	4.36
507.404	4.54
507.604	4.71
507.804	4.69
508.004	4.65
508.204	4.47
508.404	4.62
508.604	4.42
508.804	4.43
509.003	4.41
509.203	4.43
509.403	4.4
509.603	4.32
509.803	4.11
510.002	4.03
510.202	3.95
510.402	4.02
510.602	4.05
510.801	4.13
511.001	4.12
511.201	4.15
511.4	4.21
511.6	4.18
511.8	4.23
511.999	4.33
512.199	4.39
512.398	4.56
512.598	4.54
512.797	4.48
512.997	4.53
513.197	4.58
513.396	4.56
513.596	4.71
513.795	4.71
513.994	4.71
514.194	4.62
514.393	4.78
514.593	4.82
514.792	4.79
514.992	4.71
515.191	4.62
515.39	4.77
515.59	4.89
515.789	4.56
515.988	4.46
516.188	4.43
516.387	4.54
516.586	4.28
516.786	4.36
516.985	4.56
517.184	4.66
517.383	4.69
517.582	4.57
517.782	4.62
517.981	4.77
518.18	4.92
518.379	5.01
518.578	5.08
518.777	5.24
518.976	5.29
519.176	5.29
519.375	5.2
519.574	5.2
519.773	5.25
519.972	5.15
520.171	5.26
520.37	5.21
520.569	5.15
520.768	5.21
520.967	5.19
521.166	5.1
521.365	5.1
521.564	5.2
521.762	5.18
521.961	5.23
522.16	5.23
522.359	5.17
522.558	5.15
522.757	5.12
522.956	4.98
523.154	5.04
523.353	5.04
523.552	5.08
523.751	5.09
523.949	5.2
524.148	5.1
524.347	5.03
524.546	5.14
524.744	5.23
524.943	5.42
525.142	5.47
525.34	5.47
525.539	5.49
525.737	5.38
525.936	5.42
526.135	5.43
526.333	5.52
526.532	5.7
526.73	5.63
526.929	5.62
527.127	5.6
527.326	5.63
527.524	5.7
527.723	5.77
527.921	5.77
528.12	5.75
528.318	5.7
528.516	5.74
528.715	5.68
528.913	5.69
529.112	5.74
529.31	5.75
529.508	5.79
529.707	5.72
529.905	5.7
530.103	5.8
530.301	5.81
530.5	5.92
530.698	5.85
530.896	5.89
531.094	5.96
531.293	5.95
531.491	5.87
531.689	5.91
531.887	5.99
532.085	5.98
532.283	5.93
532.481	5.95
532.68	5.97
532.878	6.02
533.076	5.99
533.274	5.93
533.472	5.99
533.67	6.04
533.868	6.02
534.066	6
534.264	6.06
534.462	6.09
534.66	6.02
534.858	6.03
535.056	6.06
535.253	6.1
535.451	6.09
535.649	6.04
535.847	6.18
536.045	6.17
536.243	6.15
536.441	6.09
536.638	6.06
536.836	6.31
537.034	6.25
537.232	6.25
537.43	6.3
537.627	6.44
537.825	6.41
538.023	6.35
538.22	6.32
538.418	6.45
538.616	6.53
538.813	6.64
539.011	6.48
539.209	6.52
539.406	6.58
539.604	6.84
539.801	6.81
539.999	7
540.196	7
540.394	7.09
540.591	7.25
540.789	7.24
540.986	7.31
541.184	7.33
541.381	7.37
541.579	7.41
541.776	7.29
541.974	7.41
542.171	7.34
542.368	7.34
542.566	7.42
542.763	7.29
542.96	7.27
543.158	7.3
543.355	7.3
543.552	7.35
543.75	7.34
543.947	7.39
544.144	7.3
544.341	7.41
544.539	7.53
544.736	7.5
544.933	7.52
545.13	7.74
545.327	7.78
545.524	7.85
545.722	7.91
545.919	8.06
546.116	8.17
546.313	8.39
546.51	8.37
546.707	8.46
546.904	8.48
547.101	8.55
547.298	8.48
547.495	8.47
547.692	8.47
547.889	8.49
548.086	8.43
548.283	8.61
548.48	8.56
548.677	8.66
548.874	8.58
549.07	8.51
549.267	8.52
549.464	8.46
549.661	8.56
549.858	8.61
550.055	8.59
550.251	8.69
550.448	8.47
550.645	8.56
550.842	8.64
551.038	8.75
551.235	9.07
551.432	9.23
551.628	9.56
551.825	9.6
552.022	9.59
552.218	9.64
552.415	9.69
552.612	9.72
552.808	9.79
553.005	9.87
553.201	9.98
553.398	9.98
553.594	10
553.791	9.91
553.987	9.91
554.184	10.28
554.38	10.41
554.577	10.38
554.773	10.22
554.97	10.13
555.166	10.08
555.362	10.07
555.559	9.95
555.755	9.95
555.952	10.07
556.148	10.14
556.344	10.3
556.541	10.29
556.737	10.48
556.933	10.9
557.129	10.86
557.326	10.92
557.522	10.77
557.718	11.06
557.914	11.23
558.11	11.23
558.307	11.12
558.503	11.03
558.699	11.23
558.895	11.34
559.091	11.32
559.287	11.41
559.483	11.34
559.679	11.53
559.876	11.49
560.072	11.81
560.268	11.9
560.464	12.2
560.66	12.17
560.856	12.08
561.052	12.11
561.247	12.19
561.443	12.4
561.639	12.57
561.835	12.81
562.031	12.95
562.227	12.88
562.423	12.79
562.619	12.92
562.815	13.17
563.01	13.32
563.206	13.47
563.402	13.61
563.598	13.73
563.793	13.88
563.989	13.89
564.185	13.91
564.381	13.82
564.576	14.14
564.772	14.12
564.968	13.97
565.163	13.94
565.359	13.99
565.555	13.96
565.75	13.86
565.946	13.82
566.141	13.92
566.337	13.99
566.532	14.18
566.728	14.19
566.923	14.1
567.119	14.26
567.314	14.43
567.51	14.45
567.705	14.53
567.901	14.49
568.096	14.41
568.292	14.37
568.487	14.48
568.682	14.25
568.878	14.23
569.073	14.32
569.268	14.29
569.464	14.2
569.659	14.1
569.854	13.94
570.05	14.18
570.245	14.42
570.44	14.47
570.635	14.53
570.831	14.59
571.026	14.77
571.221	14.97
571.416	14.99
571.611	15.04
571.806	15
572.002	15.18
572.197	15.31
572.392	15.36
572.587	15.45
572.782	15.41
572.977	15.63
573.172	15.35
573.367	15.28
573.562	15.4
573.757	15.53
573.952	15.66
574.147	15.65
574.342	15.69
574.537	15.72
574.732	15.7
574.927	15.68
575.121	15.7
575.316	15.95
575.511	15.88
575.706	15.85
575.901	15.73
576.096	15.79
576.29	15.87
576.485	15.77
576.68	15.83
576.875	15.97
577.069	15.95
577.264	15.85
577.459	15.81
577.654	15.91
577.848	15.93
578.043	15.88
578.238	15.86
578.432	15.71
578.627	15.86
578.821	16.07
579.016	15.99
579.21	16.12
579.405	16.11
579.6	16.08
579.794	16.15
579.989	16.13
580.183	16.69
580.378	16.74
580.572	17.21
580.766	17.11
580.961	16.88
581.155	16.82
581.35	16.79
581.544	17.02
581.738	16.88
581.933	16.87
582.127	16.89
582.321	16.78
582.516	16.91
582.71	16.56
582.904	16.51
583.099	16.39
583.293	16.5
583.487	16.6
583.681	16.54
583.875	17.08
584.07	17.04
584.264	17.21
584.458	17.08
584.652	17.08
584.846	17.03
585.04	17.02
585.234	17.15
585.428	17.3
585.623	17.12
585.817	17.56
586.011	17.61
586.205	17.7
586.399	17.44
586.593	17.52
586.787	17.19
586.981	17.05
587.174	17.06
587.368	16.94
587.562	16.76
587.756	16.92
587.95	16.31
588.144	15.84
588.338	15.94
588.532	16.23
588.725	16.17
588.919	16.5
589.113	16.89
589.307	16.96
589.501	17.32
589.694	17.33
589.888	17.17
590.082	17.49
590.275	17.86
590.469	17.86
590.663	17.73
590.856	17.56
591.05	17.38
591.244	17.4
591.437	17.61
591.631	17.47
591.824	17.68
592.018	17.75
592.212	17.39
592.405	17.32
592.599	17.26
592.792	17.25
592.986	17.63
593.179	17.84
593.372	17.61
593.566	17.39
593.759	17.15
593.953	17.22
594.146	17.43
594.339	17.84
594.533	17.87
594.726	17.79
594.92	17.62
595.113	17.43
595.306	17.39
595.499	17.32
595.693	17.31
595.886	17.68
596.079	17.7
596.272	17.47
596.466	17.49
596.659	17.37
596.852	17.36
597.045	17.65
597.238	17.7
597.431	17.79
597.624	18.04
597.818	18.04
598.011	17.83
598.204	17.59
598.397	17.75
598.59	17.73
598.783	17.8
598.976	17.97
599.169	17.89
599.362	17.88
599.555	17.69
599.748	17.62
599.941	17.57
600.134	17.84
600.326	18.04
600.519	18.23
600.712	17.88
600.905	17.84
601.098	17.78
601.291	18.08
601.483	18.07
601.676	18.35
601.869	18.22
602.062	18.4
602.255	18.16
602.447	17.95
602.64	18.03
602.833	18.13
603.025	18.27
603.218	18.43
603.411	18.1
603.603	17.97
603.796	17.83
603.989	17.9
604.181	17.95
604.374	18.13
604.566	18.31
604.759	18.14
604.951	18.41
605.144	18.33
605.336	18.21
605.529	18.29
605.721	18.4
605.914	18.48
606.106	18.67
606.299	18.6
606.491	18.56
606.683	18.34
606.876	18.35
607.068	18.21
607.26	17.88
607.453	17.76
607.645	17.67
607.837	17.6
608.03	17.44
608.222	17.25
608.414	17.35
608.606	17.56
608.799	17.89
608.991	17.82
609.183	17.89
609.375	18.33
609.567	18.4
609.759	18.69
609.952	18.68
610.144	18.8
610.336	18.99
610.528	19.08
610.72	18.92
610.912	19.01
611.104	19.35
611.296	19.2
611.488	19.23
611.68	19.39
611.872	19.2
612.064	19.29
612.256	19.25
612.448	19.1
612.64	19
612.832	18.81
613.023	18.57
613.215	18.37
613.407	18.38
613.599	18.49
613.791	18.22
613.983	18.16
614.174	18.31
614.366	18.01
614.558	18.15
614.75	18.28
614.941	18.5
615.133	18.53
615.325	18.38
615.516	18.3
615.708	18.06
615.9	18.65
616.091	18.7
616.283	19.04
616.475	19.23
616.666	19.13
616.858	18.72
617.049	18.48
617.241	18.51
617.432	18.61
617.624	18.79
617.815	18.71
618.007	18.18
618.198	18.14
618.39	17.71
618.581	17.53
618.773	17.5
618.964	17.52
619.155	17.64
619.347	17.73
619.538	17.45
619.729	17.43
619.921	17.67
620.112	17.76
620.303	17.68
620.494	17.79
620.686	18.3
620.877	17.99
621.068	18.53
621.259	18.24
621.451	18.28
621.642	18.63
621.833	18.75
622.024	18.47
622.215	18.54
622.406	18.58
622.597	18.34
622.788	18.07
622.98	18.47
623.171	17.96
623.362	18.32
623.553	18.07
623.744	17.58
623.935	17.74
624.126	17.9
624.317	17.96
624.508	18.14
624.698	18.33
624.889	18.46
625.08	18.78
625.271	18.88
625.462	18.77
625.653	18.84
625.844	19.41
626.034	19.2
626.225	19.11
626.416	19.31
626.607	19.35
626.798	19.43
626.988	19.5
627.179	19.38
627.37	19.28
627.56	19.44
627.751	19.35
627.942	19.06
628.132	19.01
628.323	19.03
628.514	18.79
628.704	18.56
628.895	18.4
629.085	18.32
629.276	18.23
629.466	18.68
629.657	18.68
629.847	18.78
630.038	18.6
630.228	18.51
630.419	18.6
630.609	18.48
630.8	18.73
630.99	18.84
631.181	19.07
631.371	18.9
631.561	18.69
631.752	18.41
631.942	18.25
632.132	18.78
632.323	19.01
632.513	19.08
632.703	19.25
632.893	19.05
633.084	18.88
633.274	18.6
633.464	18.49
633.654	18.66
633.844	18.82
634.034	19.22
634.225	19.22
634.415	18.97
634.605	18.96
634.795	19.03
634.985	18.89
635.175	19.03
635.365	19.24
635.555	19.3
635.745	18.92
635.935	18.86
636.125	18.53
636.315	18.26
636.505	18.38
636.695	18.67
636.885	18.86
637.075	19.08
637.265	19.16
637.455	19.12
637.644	19.21
637.834	19.42
638.024	19.37
638.214	19.64
638.404	19.55
638.593	19.69
638.783	19.35
638.973	19.06
639.163	18.99
639.352	18.63
639.542	18.95
639.732	18.95
639.921	18.89
640.111	18.98
640.301	18.79
640.49	18.82
640.68	18.63
640.87	18.13
641.059	18.05
641.249	18.62
641.438	18.72
641.628	18.48
641.817	18.76
642.007	18.8
642.196	18.7
642.386	18.66
642.575	18.52
642.764	18.33
642.954	18.63
643.143	18.72
643.333	18.09
643.522	18.48
643.711	18.25
643.901	18.04
644.09	17.94
644.279	18.29
644.469	18.33
644.658	18.31
644.847	18.85
645.036	18.95
645.226	18.64
645.415	18.8
645.604	18.57
645.793	18.83
645.982	18.71
646.171	18.49
646.361	17.94
646.55	17.68
646.739	17.61
646.928	17.82
647.117	18.1
647.306	17.98
647.495	17.78
647.684	17.73
647.873	17.2
648.062	17.24
648.251	17.29
648.44	17.51
648.629	17.8
648.818	17.98
649.007	17.32
649.196	16.87
649.384	17.04
649.573	17.22
649.762	17.46
649.951	17.93
650.14	18.1
650.328	18.15
650.517	17.96
650.706	17.77
650.895	17.59
651.083	17.68
651.272	17.83
651.461	17.84
651.65	17.61
651.838	17.36
652.027	16.94
652.216	16.7
652.404	16.88
652.593	17.3
652.781	17.46
652.97	17.78
653.158	17.66
653.347	18.06
653.535	18.44
653.724	18.72
653.912	19.02
654.101	19.23
654.289	18.89
654.478	19.16
654.666	19.22
654.855	19.12
655.043	19.19
655.231	19.83
655.42	19.25
655.608	19.08
655.796	18.92
655.985	18.52
656.173	18.37
656.361	18.75
656.55	18.32
656.738	17.8
656.926	17.62
657.114	17.74
657.302	17.45
657.491	17.51
657.679	17.52
657.867	17.57
658.055	17.85
658.243	17.81
658.431	17.71
658.619	17.93
658.807	18.37
658.996	18.7
659.184	18.85
659.372	18.77
659.56	18.86
659.748	19.07
659.936	19.28
660.124	19.3
660.311	19.34
660.499	19.47
660.687	19.55
660.875	19.43
661.063	19.2
661.251	18.97
661.439	18.89
661.627	18.81
661.814	18.66
662.002	18.77
662.19	18.9
662.378	19.14
662.565	19.31
662.753	19.24
662.941	19.52
663.129	19.69
663.316	19.81
663.504	20.14
663.692	20.32
663.879	20.85
664.067	20.51
664.254	20.45
664.442	20.38
664.63	20.24
664.817	20.2
665.005	20.07
665.192	19.8
665.38	19.56
665.567	19.37
665.755	19.43
665.942	18.74
666.13	18.96
666.317	18.54
666.504	18.73
666.692	18.87
666.879	18.85
667.067	18.88
667.254	18.84
667.441	18.95
667.629	18.81
667.816	18.84
668.003	18.96
668.19	19.07
668.378	19.42
668.565	19.43
668.752	19.01
668.939	19.28
669.127	19.66
669.314	20.25
669.501	20.52
669.688	20.67
669.875	20.48
670.062	20.44
670.249	20.42
670.436	19.98
670.623	19.89
670.81	20
670.997	20.02
671.184	19.72
671.371	19.88
671.558	19.53
671.745	19.64
671.932	19.74
672.119	19.68
672.306	19.51
672.493	19.44
672.68	19.4
672.867	19.78
673.054	19.27
673.24	18.85
673.427	18.76
673.614	18.62
673.801	18.66
673.988	18.61
674.174	18.92
674.361	18.58
674.548	19.22
674.734	19.38
674.921	19.32
675.108	19.56
675.294	19.93
675.481	19.34
675.668	19.58
675.854	19.13
676.041	19.52
676.227	19.21
676.414	19.36
676.601	19.39
676.787	19.8
676.974	19.42
677.16	19.53
677.347	19.55
677.533	20.37
677.719	20.21
677.906	20.35
678.092	19.83
678.279	19.34
678.465	19.6
678.651	19.38
678.838	19.25
679.024	19.55
679.21	19.27
679.397	19.24
679.583	18.86
679.769	19.08
679.955	19.13
680.142	19.38
680.328	19.98
680.514	19.64
680.7	19.7
680.886	19.19
681.073	19.21
681.259	19.21
681.445	19.38
681.631	19.07
681.817	18.86
682.003	18.98
682.189	18.99
682.375	18.64
682.561	19
682.747	19.26
682.933	19.22
683.119	19.05
683.305	19.36
683.491	18.73
683.677	19.55
683.863	19.79
684.049	19.38
684.235	19.67
684.42	20.13
684.606	19.78
684.792	19.3
684.978	19.61
685.164	19.9
685.349	19.48
685.535	20.21
685.721	19.91
685.907	19.68
686.092	20.83
686.278	20.75
686.464	20.57
686.649	20.83
686.835	20.83
687.021	21.09
687.206	20.6
687.392	21.21
687.577	20.78
687.763	21.07
687.948	21.42
688.134	21.12
688.319	20.78
688.505	20.76
688.69	20.97
688.876	20.41
689.061	20.06
689.247	20.27
689.432	19.97
689.618	19.69
689.803	19.43
689.988	19.3
690.174	18.51
690.359	18.55
690.544	19.09
690.73	18.97
690.915	20.14
691.1	20.15
691.285	20.47
691.471	20.43
691.656	20.73
691.841	20.47
692.026	20.19
692.211	20.65
692.396	20.4
692.582	19.86
692.767	19.46
692.952	18.68
693.137	18.84
693.322	18.79
693.507	18.45
693.692	18.67
693.877	18.61
694.062	19.24
694.247	18.96
694.432	19.45
694.617	19.19
694.802	19.46
694.987	19.43
695.172	19.08
695.357	19.21
695.541	19.4
695.726	18.75
695.911	18.8
696.096	18.39
696.281	18.69
696.466	18.13
696.65	18.68
696.835	19.15
697.02	19.07
697.204	19.82
697.389	19.84
697.574	20.04
697.759	20.59
697.943	20.24
698.128	20.14
698.312	20.13
698.497	20.63
698.682	20.45
698.866	19.98
699.051	20.46
699.235	20.16
699.42	19.84
699.604	19.75
699.789	19.61
699.973	19.59
700.158	19.93
700.342	20.05
700.527	20.49
700.711	20.12
700.895	20.14
701.08	19.87
701.264	19.69
701.448	19.65
701.633	19.59
701.817	19.31
702.001	19.07
702.186	18.41
702.37	18.14
702.554	16.74
702.738	17.26
702.923	17.2
703.107	17.06
703.291	17.57
703.475	17.61
703.659	17.45
703.843	17.47
704.027	17.95
704.212	18.52
704.396	17.97
704.58	17.82
704.764	17.7
704.948	18.03
705.132	17.74
705.316	18.17
705.5	18.31
705.684	18.91
705.868	19.09
706.052	19.51
706.235	19.31
706.419	19.7
706.603	20.31
706.787	20.17
706.971	20.55
707.155	20.6
707.339	19.45
707.522	19.29
707.706	18.62
707.89	18.21
708.074	18.42
708.257	18.66
708.441	19.31
708.625	18.93
708.808	18.68
708.992	18.46
709.176	18.31
709.359	18.13
709.543	18.44
709.727	17.85
709.91	18.56
710.094	18.18
710.277	17.95
710.461	18.09
710.644	18.2
710.828	19.23
711.011	18.87
711.195	19
711.378	19.97
711.562	19.63
711.745	20.16
711.928	20.24
712.112	20.2
712.295	20.14
712.478	19.09
712.662	19.83
712.845	18.57
713.028	18.44
713.212	18.16
713.395	17.45
713.578	17.57
713.761	17.99
713.945	16.81
714.128	16.43
714.311	16.76
714.494	17.69
714.677	17.06
714.86	17.56
715.043	18.09
715.227	18.8
715.41	18.51
715.593	18.52
715.776	18.55
715.959	19.67
716.142	20.11
716.325	19.96
716.508	19.49
716.691	19.83
716.874	19.42
717.057	19.21
717.239	19
717.422	18.92
717.605	18.68
717.788	18.53
717.971	19.06
718.154	18.93
718.337	19.27
718.519	19.66
718.702	18.24
718.885	18.17
719.068	17.39
719.25	18.49
719.433	18.99
719.616	19.47
719.798	19.93
719.981	19.27
720.164	19.77
720.346	18.1
720.529	18.12
720.712	18.84
720.894	20.26
721.077	20.45
721.259	20.08
721.442	20.21
721.624	19.58
721.807	18.89
721.989	19.05
722.172	18.78
722.354	19.28
722.537	18.8
722.719	19.05
722.901	19.01
723.084	19.14
723.266	17.8
723.448	18.39
723.631	18.71
723.813	19.13
723.995	19.15
724.178	18.07
724.36	19.01
724.542	19.47
724.724	19.36
724.907	18.58
725.089	18.52
725.271	18.51
725.453	18.28
725.635	18.93
725.817	18.74
725.999	17.98
726.181	18.55
726.364	18.64
726.546	17.19
726.728	17.4
726.91	17.28
727.092	16.69
727.274	18.09
727.456	16.65
727.638	16.25
727.819	16.61
728.001	16.95
728.183	17.59
728.365	16.57
728.547	17.16
728.729	18.19
728.911	18.44
729.093	19.3
729.274	18.32
729.456	19.69
729.638	19.58
729.82	19.28
730.001	19.2
730.183	19.32
730.365	20.36
730.546	20.75
730.728	20.44
730.91	20.36
731.091	19.92
731.273	19.37
731.455	18.27
731.636	18.41
731.818	17.8
731.999	17.74
732.181	16.94
732.362	16.94
732.544	16.79
732.725	16.49
732.907	16.79
733.088	16.57
733.27	17.73
733.451	17.8
733.633	16.93
733.814	16.85
733.995	17.51
734.177	18.92
734.358	17.91
734.539	17.91
734.721	17.3
734.902	16.4
735.083	17.77
735.264	17.46
735.446	18.39
735.627	18.46
735.808	18.47
735.989	17.88
736.17	15.85
736.351	16.71
736.533	16.62
736.714	17.17
736.895	16.24
737.076	15.46
737.257	15.33
737.438	14.64
737.619	15.14
737.8	15.75
737.981	17.01
738.162	17.35
738.343	16.71
738.524	17.05
738.705	16.71
738.886	18.78
739.067	19.28
739.247	19.97
739.428	20.02
739.609	20.89
739.79	22.04
739.971	20.1
740.151	20.32
740.332	20.06
740.513	19.94
740.694	19.36
740.874	18.8
741.055	19.42
741.236	18.83
741.417	18.91
741.597	18.02
741.778	17.73
741.958	17.71
742.139	17.51
742.32	18.4
742.5	18.11
742.681	18.48
742.861	17.99
743.042	16.74
743.222	17.16
743.403	16.22
743.583	17.61
743.764	17.72
743.944	18.2
744.124	19.32
744.305	20.35
744.485	19.35
744.666	20.15
744.846	21.33
745.026	19.92
745.207	20.01
745.387	21.41
745.567	19.62
745.747	18.2
745.928	18.12
746.108	17.3
746.288	15.94
746.468	17.06
746.648	17.31
746.829	16.6
747.009	16.55
747.189	14.34
747.369	15.05
747.549	15.36
747.729	15.37
747.909	15.47
748.089	15.51
748.269	14.97
748.449	15.45
748.629	14.66
748.809	14.6
748.989	15.29
749.169	17.62
749.349	16.87
749.529	17.44
749.709	16.13
749.889	15.94
750.068	16.26
750.248	16.39
750.428	16.02
750.608	16.02
750.788	16.55
750.967	17.27
751.147	15.8
751.327	15.08
751.507	14.67
751.686	16.08
751.866	15.89
752.046	15.7
752.225	15.7
752.405	16.31
752.585	15.15
752.764	14.18
752.944	13.69
753.123	13.92
753.303	14.12
753.482	14.08
753.662	14.22
753.841	15.07
754.021	14.69
754.2	15.37
754.38	14.15
754.559	15.43
754.739	15.66
754.918	15.46
755.097	15.25
755.277	16.49
755.456	15.54
755.635	15.12
755.815	15.59
755.994	15.73
756.173	15.35
756.352	15.37
756.532	15.02
756.711	15.17
756.89	16.84
757.069	16.8
757.248	15.92
757.427	16.63
757.607	17.03
757.786	15.56
757.965	15.13
758.144	16.55
758.323	17.55
758.502	17.09
758.681	17.44
758.86	17.79
759.039	17.67
759.218	18.75
759.397	18.96
759.576	18.27
759.755	19.59
759.934	20.81
760.113	19.71
760.291	18.81
760.47	19.95
760.649	19.94
760.828	20.05
761.007	20.83
761.186	19.91
761.364	19.98
761.543	19.45
761.722	19.29
761.901	19.11
762.079	19.26
762.258	19.12
762.437	18.96
762.615	18.22
762.794	17.41
762.972	17.07
763.151	16.5
763.33	16.38
763.508	17.57
763.687	16.77
763.865	16.14
764.044	16.35
764.222	17.34
764.401	17.4
764.579	18.23
764.758	18.77
764.936	19
765.114	18.83
765.293	19.45
765.471	19.46
765.65	19.57
765.828	20.74
766.006	20.63
766.184	20.15
766.363	19.59
766.541	19.51
766.719	19.31
766.898	19.53
767.076	20.35
767.254	19.63
767.432	19.84
767.61	21.64
767.788	20.71
767.967	20.23
768.145	20.46
768.323	19.95
768.501	18.91
768.679	17.92
768.857	17.97
769.035	18.4
769.213	18.81
769.391	16.27
769.569	13.25
769.747	13.76
769.925	12.45
770.103	11.58
770.281	12.37
770.459	13.46
770.636	11.57
770.814	11.12
770.992	11.14
771.17	9.4
771.348	10.16
771.525	9.54
771.703	10.49
771.881	12.17
772.059	13.05
772.236	13.34
772.414	11.81
772.592	14.2
772.769	15.57
772.947	14.53
773.125	17.4
773.302	18.08
773.48	18.39
773.657	18.11
773.835	17.44
774.013	16.19
774.19	17.23
774.368	19.38
774.545	18.85
774.723	16.53
774.9	16.44
775.077	16.13
775.255	18.08
775.432	20.33
775.61	19.36
775.787	19.21
775.964	18.65
776.142	15.24
776.319	13.79
776.496	12.99
776.674	12.54
776.851	13.35
777.028	13.88
777.205	11.72
777.382	10.47
777.56	9.67
777.737	10.25
777.914	8.66
778.091	9.25
778.268	10.32
778.445	10.5
778.622	10.74
778.8	10.68
778.977	8.1
779.154	7.12
779.331	7.14
779.508	7.06
779.685	8.7
779.862	12.46
780.038	14.82
780.215	14.47
780.392	15.5
780.569	17.09
780.746	19.05
780.923	20.51
781.1	23.02
781.277	23.47
781.453	23.63
781.63	23.39
781.807	22.78
781.984	21.75
782.16	21.58
782.337	22.08
782.514	21.1
782.691	18.24
782.867	17.51
783.044	13.55
783.221	10.75
783.397	10.4
783.574	9.45
783.75	10.14
783.927	9.06
784.103	8.42
784.28	8.96
784.456	7.3
784.633	9.22
784.809	8.04
784.986	9.22
785.162	12.7
785.339	12.61
785.515	9.06
785.692	8.44
785.868	10.51
786.044	9.89
786.221	6.34
786.397	10.66
786.573	10.41
786.749	8.93
786.926	13.25
787.102	12.53
787.278	13.43
787.454	17.28
787.631	17.54
787.807	18.25
787.983	16.94
788.159	19.2
788.335	15.76
788.511	16.23
788.687	18.26
788.863	14.72
789.039	15.85
789.216	15.83
789.392	15.75
789.568	16.02
789.744	13.54
789.919	15.04
790.095	14.07
790.271	14.71
790.447	13.4
790.623	11.39
790.799	11.49
790.975	11.87
791.151	12.43
791.327	8.77
791.502	7.05
791.678	7
791.854	6.6
792.03	5.52
792.205	6.6
792.381	2.99
792.557	5
792.733	5.25
792.908	3.2
793.084	4.52
793.259	5.83
793.435	10.42
793.611	11.8
793.786	14.69
793.962	12.78
794.137	12.76
794.313	16.85
794.488	18.68
794.664	19.7
794.839	19.29
795.015	20.14
795.19	19.63
795.366	17.39
795.541	16.99
795.716	13.52
795.892	14.8
796.067	15.31
796.242	11.39
796.418	10.29
796.593	12.25
796.768	14.73
796.944	12.34
797.119	15.04
797.294	14.94
797.469	17.32
797.644	18.67
797.82	17.5
797.995	16.61
798.17	21.49
798.345	21.89
798.52	21.7
798.695	19.64
798.87	19.6
799.045	16.55
799.22	16.3
799.395	16.3
799.57	16.82
799.745	20.66
799.92	20.06
800.095	19.11
800.27	14.72
800.445	12.57
800.62	15.62
800.795	12.92
800.97	17.06
801.145	16.48
801.319	12.18
801.494	10.54
801.669	7.18
801.844	10.14
802.018	2.55
802.193	5.2
802.368	5.75
802.543	4.76
802.717	6.51
802.892	3.78
803.067	4.18
803.241	7.59
803.416	11.57
803.59	12.72
803.765	9.93
803.94	17.84
804.114	20.9
804.289	19.43
804.463	16.24
804.638	17.27
804.812	16.95
804.986	16.96
805.161	16.83
805.335	15.06
805.51	16.73
805.684	18.24
805.858	18.79
806.033	16.65
806.207	21.51
806.381	19.65
806.556	22.21
806.73	22.71
806.904	26.94
807.078	26.55
807.253	26.13
807.427	24.87
807.601	22.96
807.775	19.29
807.949	21.37
808.123	13.69
808.298	11.37
808.472	5.27
808.646	1.72
808.82	-2.29
808.994	-2.48
809.168	-0.17
809.342	-2.49
809.516	-1.19
809.69	-1.54
809.864	-4.35
810.038	1.1
810.212	6.92
810.385	6.08
810.559	9.08
810.733	7.26
810.907	13.56
811.081	14.5
811.255	16.69
811.428	16.45
811.602	15.99
811.776	17.55
811.95	18.14
812.123	18.49
812.297	21.3
812.471	21.08
812.644	22.68
812.818	16.18
812.992	13.78
813.165	14.57
813.339	14.61
813.512	14.5
813.686	16.43
813.86	16.3
814.033	11.39
814.207	11.86
814.38	8.91
814.554	7.7
814.727	7.76
814.9	10.33
815.074	13.82
815.247	16.79
815.421	17.31
815.594	11.21
815.767	6.15
815.941	7.81
816.114	7.57
816.287	9.37
816.46	3.55
816.634	-1.5
816.807	-8.55
816.98	-14.48
817.153	-15.63
817.327	-12.8
817.5	-7.25
817.673	-3.58
817.846	1.65
818.019	-2.15
818.192	-1.54
818.365	-0.54
818.538	5.86
818.711	10.58
818.884	14.18
819.057	7.75
819.23	7.85
819.403	7.62
819.576	9.92
819.749	12.07
819.922	16.4
820.095	18.03
820.268	18.14
820.441	19.47
820.614	20.54
820.786	17.99
820.959	21.45
821.132	22.35
821.305	21.33
821.477	20.86
821.65	19.9
821.823	19.84
821.996	19.74
822.168	21.18
822.341	21.21
822.514	21.82
822.686	21.74
822.859	21.88
823.031	22.04
823.204	22.37
823.376	22.57
823.549	23.21
823.722	22.96
823.894	22.37
824.067	22.5
824.239	21.82
824.411	21.16
824.584	20.59
824.756	20.8
824.929	19.49
825.101	18.54
825.273	17.52
825.446	16.19
825.618	17.45
825.79	18.09
825.963	17.45
826.135	18.05
826.307	18.14
826.479	19.14
826.652	18.37
826.824	19.96
826.996	21.08
827.168	22.83
827.34	23.49
827.512	21.16
827.684	19.44
827.856	20.59
828.029	19.38
828.201	18.74
828.373	18.7
828.545	18.63
828.717	17.63
828.889	15.92
829.061	12.99
829.232	10.76
829.404	12.72
829.576	13.62
829.748	12.94
829.92	12.85
830.092	11.87
830.264	10.03
830.436	6.13
830.607	7.26
830.779	9.96
830.951	14.03
831.123	18.1
831.294	12.87
831.466	12.79
831.638	9.74
831.809	10.13
831.981	9.43
832.153	10.23
832.324	11.43
832.496	6.88
832.667	6.33
832.839	5.41
833.011	2.72
833.182	6.35
833.354	3.89
833.525	4.37
833.697	2.57
833.868	4.31
834.039	5.8
834.211	7.91
834.382	8.63
834.554	7.87
834.725	4.9
834.896	4.65
835.068	5.51
835.239	9.33
835.41	9.3
835.581	10.96
835.753	10.44
835.924	11.17
836.095	10.47
836.266	9.97
836.438	10.63
836.609	12.55
836.78	10.24
836.951	8.22
837.122	4.93
837.293	5.69
837.464	5.28
837.635	5.73
837.806	4.51
837.977	6.87
838.148	5.97
838.319	4.99
838.49	4.34
838.661	6.6
838.832	10.18
839.003	14.52
839.174	14.84
839.345	17.74
839.516	18.2
839.687	19.43
839.857	17.92
840.028	19.76
840.199	22.35
840.37	19.72
840.54	18.53
840.711	12.46
840.882	10.11
841.053	10.83
841.223	6.18
841.394	7.44
841.564	4.86
841.735	-0.52
841.906	8.33
842.076	7.47
842.247	11.63
842.417	18.09
842.588	18.2
842.758	17.53
842.929	5.96
843.099	9.75
843.27	1.5
843.44	6.59
843.611	6.99
843.781	0.82
843.951	4.91
844.122	0.21
844.292	-4.52
844.462	0.15
844.633	-2.76
844.803	5.71
844.973	7.44
845.144	12.82
845.314	12.64
845.484	16.19
845.654	2.33
845.824	-11.2
845.995	-14.07
846.165	-6.82
846.335	-4.69
846.505	3.43
846.675	14.96
846.845	-3.95
847.015	-11.71
847.185	-29.3
847.355	-61.64
847.525	-11.16
847.695	1.01
847.865	14.21
848.035	-3.66
848.205	-5.49
848.375	-13.27
848.545	-35.4
848.715	-17.14
848.884	-7.22
849.054	-4.22
849.224	-1.69
849.394	-11.8
849.564	-8.97
849.733	-13.05
849.903	2.25
850.073	6.58
850.243	18.64
850.412	22.54
850.582	33.82
850.752	27.49
850.921	27.6
851.091	24.48
851.26	26.07
851.43	28.84
851.599	32.77
851.769	19.84
851.939	9.21
852.108	-2.47
852.278	7.84
852.447	-16.2
852.616	-5.26
852.786	0.4
852.955	5.53
853.125	7.44
853.294	2.21
853.463	-1.49
853.633	-10.41
853.802	-15.94
853.971	-8.7
854.141	-15.59
854.31	-7.33
854.479	-7.37
854.648	-23.63
854.818	-2.68
854.987	-10.7
855.156	-3.23
855.325	7.58
855.494	3.7
855.663	14.3
855.832	3.43
856.001	10.07
856.171	9.78
856.34	9.63
856.509	9.79
856.678	4.33
856.847	8.35
857.016	8.19
857.185	-7.04
857.353	2.13
857.522	3.41
857.691	5.44
857.86	-23.17
858.029	-31.54
858.198	-49.15
858.367	-33.1
858.535	-29.01
858.704	-15.82
858.873	-18.13
859.042	1.08
859.21	-4.59
859.379	-21.4
859.548	-16.1
859.717	-3.98
859.885	-3.6
860.054	1.29
860.222	-15.14
860.391	-17.04
860.56	-30.27
860.728	-10.84
860.897	-22.86
861.065	-19.59
861.234	-6.68
861.402	-17.45
861.571	-37.49
861.739	-25.82
861.908	-21.97
862.076	-12.55
862.244	-25.56
862.413	-32.56
862.581	-85.12
862.749	-74.25
862.918	-63.41
863.086	-69.51
863.254	-37.32
863.423	-21.07
863.591	-34.74
863.759	-32.66
863.927	-29.14
864.096	-14.4
864.264	-17.27
864.432	-9.44
864.6	-9.36
864.768	-5.95
864.936	4.8
865.104	-17.57
865.272	-4.55
865.44	5.45
865.608	14.34
865.776	4.79
865.944	9.66
866.112	2.17
866.28	4.3
866.448	2.95
866.616	3.34
866.784	2.66
866.952	8.41
867.12	2.37
867.288	0.38
867.455	-2.99
867.623	7.23
867.791	5.55
867.959	10.34
868.127	8.08
868.294	11.16
868.462	5.28
868.63	-32.22
868.797	-41.23
868.965	-30.77
869.133	-25.15
869.3	-36.03
869.468	-45.82
869.636	-43.28
869.803	-13.69
869.971	-7.98
870.138	-1.23
870.306	2.53
870.473	17.17
870.641	14.47
870.808	14.17
870.975	15.78
871.143	19.51
871.31	18.46
871.478	4.15
871.645	-2.81
871.812	-2.8
871.98	-0.64
872.147	-9.05
872.314	-16.17
872.482	-8.08
872.649	-21.99
872.816	-10.5
872.983	-0.62
873.15	0.23
873.318	1.95
873.485	-3.16
873.652	5.81
873.819	-7.89
873.986	-6.66
874.153	-12.2
874.32	4.12
874.487	19.81
874.654	11.48
874.821	0.66
874.988	1.14
875.155	16.03
875.322	21
875.489	12.49
875.656	28.37
875.823	24.38
875.99	31.5
876.157	19.17
876.324	3.42
876.49	13.31
876.657	9.63
876.824	-2.17
876.991	-26.75
877.157	-19.11
877.324	-20.94
877.491	-29.56
877.658	-37.78
877.824	-38.49
877.991	-58.69
878.157	-47.39
878.324	-59.22
878.491	-58.08
878.657	-57.12
878.824	-32.81
878.99	-40.45
879.157	-35.71
879.323	-33.39
879.49	-16.42
879.656	-11.31
879.823	-1.48
879.989	-22.94
880.156	-15.47
880.322	-2.51
880.488	-13.97
880.655	-30.2
880.821	-31.35
880.987	-40.67
881.154	-53.62
881.32	-47.44
881.486	-36.93
881.652	-29.72
881.819	-12.29
881.985	-14.38
882.151	-13.95
882.317	-4.48
882.483	1.49
882.649	5.73
882.816	9.43
882.982	12.79
883.148	10.88
883.314	9.16
883.48	8.77
883.646	8.98
883.812	12.46
883.978	13.31
884.144	13.13
884.31	14.65
884.476	13.1
884.642	14.64
884.807	13.11
884.973	14.11
885.139	17.42
885.305	21.16
885.471	21.85
885.637	18.13
885.802	14.47
885.968	11.87
886.134	14.94
886.3	15.58
886.465	9.83
886.631	7.39
886.797	11.49
886.962	-2
887.128	-13.89
887.293	-20.69
887.459	-17.14
887.625	-12.38
887.79	-5.49
887.956	-19.35
888.121	-20.17
888.287	-18.91
888.452	-12.6
888.618	-35.62
888.783	-9.13
