Data from 2938021_Reflection_2.txt Node
Date: Sun Jul 12 15:27:22 EDT 2015
User: robert
Spectrometer: USB4E03001
Autoset integration time: false
Trigger mode: 4
Integration Time (sec): 1.000000E-1
Scans to average: 10
Electric dark correction enabled: true
Nonlinearity correction enabled: false
Boxcar width: 5
Stray light correction enabled: false
XAxis mode: Wavelengths
Stop averaging: false
Number of Pixels in Spectrum: 3648
>>>>>Begin Spectral Data<<<<<
177.566	-171.25
177.785	-126.55
178.005	-251.08
178.225	640.38
178.445	-244.61
178.665	-218.02
178.885	120.14
179.105	27.09
179.324	20.71
179.544	76.69
179.764	-36.53
179.984	109.58
180.204	-2066.23
180.423	258.05
180.643	3.27
180.863	201.46
181.083	3144.07
181.302	-143.42
181.522	-390.15
181.742	2203.14
181.961	314.5
182.181	840.28
182.401	-380.11
182.621	-2401.55
182.84	2098.47
183.06	187.6
183.279	348.08
183.499	229.51
183.719	133.77
183.938	168.01
184.158	181.92
184.377	4115.24
184.597	206.68
184.816	262.67
185.036	406.46
185.256	-5487.32
185.475	-364.02
185.695	1572.7
185.914	1103.27
186.134	591.68
186.353	192.31
186.572	11777.5
186.792	277.13
187.011	2118.77
187.231	-1352.66
187.45	127.01
187.67	110.91
187.889	164.46
188.108	256.28
188.328	206.56
188.547	383.84
188.766	-639
188.986	-311.71
189.205	-171.4
189.424	-303.55
189.644	-644.43
189.863	-295.01
190.082	972.12
190.302	5675.47
190.521	-1404.65
190.74	2379.35
190.959	152.44
191.178	50.13
191.398	67.79
191.617	45.11
191.836	165.64
192.055	-3.23
192.274	-376.57
192.494	-341.18
192.713	-94.59
192.932	-123.88
193.151	-41.38
193.37	-28.24
193.589	7.16
193.808	35.84
194.027	-3.97
194.246	-13.84
194.465	-100.65
194.685	-3.73
194.904	-4.46
195.123	12.52
195.342	-13.85
195.561	-46.39
195.78	-37.67
195.999	-78.3
196.218	-153.62
196.436	-70.51
196.655	-54.54
196.874	-13.61
197.093	-67.36
197.312	-102.57
197.531	-172.77
197.75	-58.83
197.969	-129.13
198.188	118.01
198.407	23.22
198.625	-4.09
198.844	24.21
199.063	3.29
199.282	9.48
199.501	6.47
199.719	-11.53
199.938	22.36
200.157	55.15
200.376	58.18
200.594	131.62
200.813	50.91
201.032	-116.65
201.251	-328.37
201.469	-418.44
201.688	4752.08
201.907	-346.41
202.125	-481.75
202.344	-2672.62
202.563	-556.7
202.781	-125.39
203	1237.73
203.218	-1428.86
203.437	-115.95
203.656	2.51
203.874	-42.15
204.093	25.53
204.311	74.85
204.53	92.03
204.748	43.38
204.967	25.54
205.185	8.46
205.404	-9.82
205.622	-25.25
205.841	72.66
206.059	115.43
206.278	95.22
206.496	172.63
206.715	69.87
206.933	244.99
207.151	54.85
207.37	9.72
207.588	84.16
207.806	128.77
208.025	1174.91
208.243	-127.39
208.461	532.77
208.68	348
208.898	-706.02
209.116	-779.97
209.335	-68.49
209.553	-270.14
209.771	-110.61
209.989	-3.38
210.208	25.77
210.426	26.15
210.644	-140.35
210.862	-46.78
211.081	-0.58
211.299	-96.46
211.517	-10.75
211.735	91.28
211.953	-32.1
212.171	448
212.39	305.61
212.608	-113.93
212.826	-43.07
213.044	-49.97
213.262	-13.53
213.48	5.81
213.698	28.59
213.916	21.38
214.134	25.49
214.352	41.42
214.57	48.94
214.788	80.17
215.006	70.74
215.224	85.8
215.442	107.38
215.66	132.94
215.878	107.9
216.096	96.23
216.314	127.52
216.532	111.73
216.75	185.93
216.968	157.42
217.185	95.48
217.403	99.93
217.621	99.39
217.839	57.51
218.057	-2.37
218.275	-29.01
218.492	-189.85
218.71	423.27
218.928	-1110.87
219.146	-161.52
219.363	-170.34
219.581	-294.89
219.799	-202.51
220.017	-263.23
220.234	-535.79
220.452	-549.81
220.67	-248.48
220.887	-163.19
221.105	-119.75
221.323	-145.93
221.54	-167.22
221.758	-115.86
221.976	-128.59
222.193	-109.13
222.411	-46.11
222.629	-22.74
222.846	-17.98
223.064	-40.14
223.281	-91.46
223.499	-60.35
223.716	-46.67
223.934	-38.58
224.151	-49.1
224.369	-75.2
224.586	-59.77
224.804	-114.47
225.021	-111.73
225.239	-96.3
225.456	-64.24
225.674	-33.64
225.891	-23.66
226.108	-15.02
226.326	-10.55
226.543	-2.96
226.76	5.85
226.978	9.97
227.195	18.57
227.413	25.65
227.63	22.47
227.847	18.06
228.064	19.09
228.282	13.91
228.499	15.83
228.716	13.76
228.934	11.56
229.151	8.9
229.368	7.32
229.585	8.48
229.802	5.75
230.02	6.66
230.237	5.36
230.454	2.12
230.671	2.79
230.888	-0.73
231.105	-1
231.323	-4.06
231.54	-4.28
231.757	-4.95
231.974	-2.11
232.191	-2.05
232.408	-4.12
232.625	0.31
232.842	-2.39
233.059	-5.26
233.276	-10.36
233.493	-7.97
233.71	-9.06
233.927	-10.06
234.144	-3.32
234.361	-6.98
234.578	-7.54
234.795	-1.23
235.012	2.67
235.229	5.76
235.446	11.31
235.663	14
235.879	13.48
236.096	20.13
236.313	21.28
236.53	15.21
236.747	15.57
236.964	15.56
237.181	11.33
237.397	9.08
237.614	17.06
237.831	16.7
238.048	12.94
238.264	16.31
238.481	12.3
238.698	13.34
238.915	15.07
239.131	16.33
239.348	19.7
239.565	21.13
239.781	16.21
239.998	10.98
240.215	10
240.431	10.61
240.648	5.38
240.865	3.39
241.081	1.53
241.298	-0.22
241.514	1.1
241.731	1.79
241.947	1.55
242.164	2.88
242.38	1.19
242.597	1.86
242.814	0.62
243.03	0.89
243.246	2.58
243.463	2.66
243.679	3.12
243.896	2.62
244.112	0.82
244.329	-0.07
244.545	-0.4
244.762	1.92
244.978	2.56
245.194	7.57
245.411	8.64
245.627	8.25
245.843	8.58
246.06	10.19
246.276	10.7
246.492	10.95
246.709	11.12
246.925	10.94
247.141	10.15
247.357	10.15
247.574	9.81
247.79	9.24
248.006	8.48
248.222	9.52
248.439	8.63
248.655	8.36
248.871	7.92
249.087	7.7
249.303	6.65
249.519	7.09
249.736	4.19
249.952	1.6
250.168	3.1
250.384	3.01
250.6	2
250.816	3.83
251.032	4.38
251.248	4.37
251.464	4.89
251.68	7.3
251.896	6.11
252.112	6.65
252.328	7.73
252.544	5.8
252.76	5.46
252.976	5.36
253.192	2.5
253.408	1.72
253.624	-0
253.84	-1.52
254.056	-6.36
254.272	-5.79
254.487	-3.66
254.703	-5.87
254.919	-7.64
255.135	-8.83
255.351	-10.74
255.567	-6.93
255.782	-9.27
255.998	-5.56
256.214	-3.9
256.43	-0.65
256.646	3.44
256.861	1.35
257.077	1.96
257.293	5.47
257.508	7.99
257.724	8.07
257.94	6.91
258.155	8.21
258.371	6.55
258.587	7.65
258.802	7.34
259.018	5.41
259.234	6.78
259.449	6.87
259.665	6.02
259.88	6.13
260.096	5.87
260.312	6.42
260.527	6.61
260.743	6.57
260.958	5.88
261.174	5.74
261.389	5.49
261.605	4.23
261.82	4.93
262.036	5.06
262.251	4.61
262.466	5.35
262.682	4.44
262.897	4.12
263.113	5.01
263.328	4.13
263.543	5.34
263.759	6.87
263.974	7.34
264.189	6.46
264.405	6.18
264.62	5.57
264.835	3.72
265.051	4.03
265.266	2.52
265.481	4.05
265.696	4.29
265.912	4.39
266.127	4
266.342	3.65
266.557	4.25
266.773	5.13
266.988	4.54
267.203	5.17
267.418	5.09
267.633	5.02
267.848	4.93
268.064	5.79
268.279	5.36
268.494	5.65
268.709	5.88
268.924	4.5
269.139	4.34
269.354	5.46
269.569	5.91
269.784	5.14
269.999	4.33
270.214	2.31
270.429	3.53
270.644	4.58
270.859	4.32
271.074	4.13
271.289	4.5
271.504	5.67
271.719	5.99
271.934	5.95
272.149	5.26
272.363	6.73
272.578	7.71
272.793	6.38
273.008	6.1
273.223	6.18
273.438	7.45
273.653	7.8
273.867	6.89
274.082	6.92
274.297	5.91
274.512	7.1
274.726	4.73
274.941	4.83
275.156	4.46
275.371	3.81
275.585	3.7
275.8	1.65
276.015	0.66
276.229	1.76
276.444	1.69
276.659	3.08
276.873	2.97
277.088	2.99
277.302	2.88
277.517	4.1
277.732	4.26
277.946	5.68
278.161	6.32
278.375	7.68
278.59	5.61
278.804	3.87
279.019	4.89
279.233	4.63
279.448	5.27
279.662	4.45
279.877	3.01
280.091	1.84
280.306	1.18
280.52	1.56
280.735	1.66
280.949	2.52
281.163	3.17
281.378	2.77
281.592	2.5
281.806	3.16
282.021	2.83
282.235	3.13
282.449	4.2
282.664	2.85
282.878	3.33
283.092	3.05
283.307	2.93
283.521	3.05
283.735	3.09
283.949	5.39
284.164	5.62
284.378	6.68
284.592	7.77
284.806	7.73
285.02	8.45
285.234	8.38
285.449	7.7
285.663	7.07
285.877	6.97
286.091	6.84
286.305	5.7
286.519	5.98
286.733	6.97
286.947	5.97
287.161	5.34
287.375	5.43
287.589	4.57
287.803	5.5
288.017	6.09
288.231	6.86
288.445	6.78
288.659	8.59
288.873	8.9
289.087	6.63
289.301	7.2
289.515	7.61
289.729	7.32
289.943	7.33
290.157	6.94
290.371	6.51
290.584	5.02
290.798	5.51
291.012	3.29
291.226	2.77
291.44	4.31
291.654	4.47
291.867	5.32
292.081	5.2
292.295	4.58
292.509	5.54
292.722	6.55
292.936	8.51
293.15	7.26
293.364	7.78
293.577	6.97
293.791	6.27
294.005	6.84
294.218	6.67
294.432	7.36
294.645	9.4
294.859	8.76
295.073	9.38
295.286	8.55
295.5	8.48
295.713	8.69
295.927	8.92
296.14	8.58
296.354	7.35
296.568	6.11
296.781	5.93
296.994	5.05
297.208	5.19
297.421	4.28
297.635	4.06
297.848	4.96
298.062	4.3
298.275	4.98
298.489	4.43
298.702	5.47
298.915	6.45
299.129	6.83
299.342	7.22
299.555	6.2
299.769	6.14
299.982	6.48
300.195	4.97
300.409	4.86
300.622	2.82
300.835	2.94
301.048	1.81
301.262	1.31
301.475	1.37
301.688	0.75
301.901	2.86
302.115	3.52
302.328	3.79
302.541	4.73
302.754	6.15
302.967	8.15
303.18	8.77
303.393	9.53
303.607	9.53
303.82	9.65
304.033	9.26
304.246	9.04
304.459	8.48
304.672	9.42
304.885	10.44
305.098	9.43
305.311	8.56
305.524	9.77
305.737	9.73
305.95	9.02
306.163	8.51
306.376	10.51
306.589	8.92
306.802	9.64
307.015	9.23
307.228	7.99
307.44	7.99
307.653	8.87
307.866	6.49
308.079	6.22
308.292	7.93
308.505	8.22
308.718	7.21
308.93	8.08
309.143	7.3
309.356	6.74
309.569	7.28
309.781	8.04
309.994	7.29
310.207	7.1
310.42	6.48
310.632	6.04
310.845	6.41
311.058	6.06
311.27	6.03
311.483	6.71
311.696	6.02
311.908	5.61
312.121	5.05
312.333	5
312.546	6.87
312.759	6.68
312.971	6.16
313.184	5.56
313.396	5.74
313.609	5.37
313.821	4.73
314.034	6.27
314.246	6.03
314.459	6.19
314.671	5.49
314.884	3.57
315.096	4.41
315.309	5.35
315.521	5.3
315.733	5.39
315.946	5.94
316.158	6.9
316.371	6.86
316.583	8.27
316.795	6.59
317.008	7.99
317.22	9.38
317.432	9
317.644	9.38
317.857	9.5
318.069	10.41
318.281	9.4
318.494	7.77
318.706	6.38
318.918	5.97
319.13	9.43
319.342	10.4
319.555	8.98
319.767	8.12
319.979	6.92
320.191	6.83
320.403	6.06
320.615	6.22
320.827	6.63
321.039	8.14
321.252	7.02
321.464	6.75
321.676	5.18
321.888	7.18
322.1	9.96
322.312	10.88
322.524	10.73
322.736	11.49
322.948	12.55
323.16	13.04
323.372	12.72
323.584	14.08
323.796	13.08
324.007	13.19
324.219	11.5
324.431	9.25
324.643	7.89
324.855	7.5
325.067	6.38
325.279	5.39
325.491	6.73
325.702	6.66
325.914	4.9
326.126	4.4
326.338	4.82
326.55	6.31
326.761	6.61
326.973	7.06
327.185	7.19
327.396	7.75
327.608	8.68
327.82	6.5
328.032	3.94
328.243	4.44
328.455	4.74
328.666	5.41
328.878	5.31
329.09	5.76
329.301	5.81
329.513	5.32
329.725	6.31
329.936	5.5
330.148	6.66
330.359	9.78
330.571	9.45
330.782	9.6
330.994	9.09
331.205	9.41
331.417	9.05
331.628	9.66
331.84	10.88
332.051	10.07
332.262	11.05
332.474	11.42
332.685	12.01
332.897	11.98
333.108	11.39
333.319	9.73
333.531	7.63
333.742	8.01
333.953	8.33
334.165	9.41
334.376	8.87
334.587	8.94
334.799	10
335.01	8.94
335.221	9.98
335.432	11.27
335.644	11.64
335.855	12.79
336.066	13.31
336.277	12.64
336.488	10.86
336.7	10.86
336.911	10.01
337.122	9.01
337.333	9.19
337.544	8.78
337.755	8.01
337.966	9.02
338.177	8.38
338.388	9.55
338.599	10.31
338.811	11.77
339.022	12.22
339.233	11.85
339.444	11.24
339.655	10.47
339.866	10.65
340.076	10.77
340.287	11.45
340.498	13.6
340.709	12.46
340.92	12.89
341.131	12.92
341.342	12.53
341.553	13.34
341.764	14.69
341.975	15.46
342.185	15.58
342.396	15.38
342.607	15.23
342.818	14.77
343.029	14.6
343.239	13.57
343.45	13.16
343.661	13.91
343.872	14.56
344.082	14.07
344.293	14.69
344.504	15.14
344.714	15.88
344.925	16.57
345.136	14.92
345.346	14.58
345.557	15.17
345.768	15.07
345.978	14.64
346.189	13.76
346.399	14.02
346.61	13.94
346.821	13.34
347.031	13.11
347.242	11.94
347.452	12.75
347.663	12.45
347.873	12.97
348.084	13.81
348.294	13.73
348.504	15.04
348.715	14.83
348.925	13.59
349.136	13.19
349.346	12.85
349.557	12.95
349.767	13.33
349.977	14.23
350.188	13.39
350.398	12.54
350.608	12.69
350.819	12.47
351.029	12.5
351.239	12.46
351.449	12.86
351.66	12.97
351.87	13.22
352.08	13.21
352.29	14
352.501	13.2
352.711	14.06
352.921	14.32
353.131	13.93
353.341	13.16
353.552	13.97
353.762	14.23
353.972	14.06
354.182	13.55
354.392	14.77
354.602	14.41
354.812	14.89
355.022	13.73
355.232	13.58
355.442	13.52
355.652	13.63
355.862	13.01
356.072	12.78
356.282	12.59
356.492	12.34
356.702	11.81
356.912	11.35
357.122	11.47
357.332	11.89
357.542	12.17
357.752	12.15
357.962	11.98
358.171	12.37
358.381	13.16
358.591	13.43
358.801	14.38
359.011	14.14
359.221	13.56
359.43	13.88
359.64	14.43
359.85	13.91
360.06	13.83
360.269	13.31
360.479	13.07
360.689	12.95
360.899	13.94
361.108	13.28
361.318	13.37
361.528	13.53
361.737	13.36
361.947	13.01
362.156	13.25
362.366	13.44
362.576	14.07
362.785	14.38
362.995	14.01
363.204	12.85
363.414	13.52
363.623	13.4
363.833	13.89
364.042	13.71
364.252	14
364.461	13.41
364.671	13.68
364.88	12.86
365.09	11.87
365.299	12.57
365.509	12
365.718	12.19
365.927	11.74
366.137	11.83
366.346	11.77
366.555	10.92
366.765	12.04
366.974	11.99
367.183	12.54
367.393	12.89
367.602	12.1
367.811	13.17
368.021	11.69
368.23	11.21
368.439	10.78
368.648	10.54
368.857	11.27
369.067	10.04
369.276	9.28
369.485	9.56
369.694	9.92
369.903	10.05
370.112	9.91
370.321	10.46
370.531	11.26
370.74	11.54
370.949	12.02
371.158	11.43
371.367	12.01
371.576	12.02
371.785	11.73
371.994	11.68
372.203	11.72
372.412	11.86
372.621	12.23
372.83	11.61
373.039	11.39
373.248	10.78
373.457	11.2
373.666	11.3
373.874	11.23
374.083	11.07
374.292	10.54
374.501	11
374.71	10.79
374.919	10.37
375.128	11.4
375.336	10.93
375.545	11.76
375.754	11.59
375.963	11
376.171	10.82
376.38	10.85
376.589	11.56
376.798	10.6
377.006	10.54
377.215	11.15
377.424	10.59
377.632	10.84
377.841	10.2
378.05	10.47
378.258	11.21
378.467	11.43
378.675	11.43
378.884	11.18
379.093	11.63
379.301	11.78
379.51	10.9
379.718	10.61
379.927	10.67
380.135	11.08
380.344	10.5
380.552	9.49
380.761	9.37
380.969	9.42
381.177	9.21
381.386	9.26
381.594	8.77
381.803	8.91
382.011	9.21
382.219	8.94
382.428	8.55
382.636	8.58
382.845	9.03
383.053	9.12
383.261	9.27
383.469	9.31
383.678	8.38
383.886	8.6
384.094	8.59
384.302	8.28
384.511	8.44
384.719	8.59
384.927	8.58
385.135	8.48
385.343	8.63
385.552	8.17
385.76	8.05
385.968	8.16
386.176	8.09
386.384	8.25
386.592	8.21
386.8	8.14
387.008	8
387.216	7.79
387.424	7.91
387.633	7.94
387.841	7.85
388.049	8.03
388.257	8.22
388.465	8.34
388.672	8.32
388.88	8.39
389.088	8.13
389.296	8.35
389.504	8.1
389.712	8.15
389.92	7.61
390.128	7.78
390.336	7.42
390.544	7.69
390.751	7.55
390.959	7.39
391.167	7.15
391.375	7.52
391.583	7.36
391.79	7.45
391.998	7.36
392.206	7.53
392.414	7.45
392.621	7.73
392.829	8.07
393.037	8.18
393.244	8.31
393.452	8.52
393.66	8.51
393.867	8.3
394.075	8.61
394.283	8.58
394.49	8.56
394.698	8.57
394.905	8.4
395.113	7.95
395.32	7.72
395.528	7.51
395.735	7.67
395.943	7.73
396.15	7.5
396.358	7.1
396.565	7.1
396.773	6.88
396.98	6.83
397.188	6.9
397.395	7.11
397.602	7.16
397.81	7
398.017	6.49
398.225	6.17
398.432	6.86
398.639	6.79
398.847	6.53
399.054	6.76
399.261	6.94
399.468	6.76
399.676	6.39
399.883	6.2
400.09	6.02
400.297	6.53
400.505	6.21
400.712	6.49
400.919	6.99
401.126	7.28
401.333	7.23
401.54	6.93
401.748	6.87
401.955	7
402.162	7.59
402.369	7.72
402.576	7.8
402.783	8.37
402.99	7.63
403.197	7.26
403.404	7.06
403.611	7.07
403.818	7.44
404.025	7.75
404.232	7.79
404.439	7.44
404.646	7.76
404.853	7.34
405.06	7.09
405.267	7.27
405.474	7.08
405.681	7.25
405.887	7.24
406.094	6.94
406.301	6.74
406.508	6.91
406.715	6.95
406.922	6.79
407.128	6.91
407.335	6.77
407.542	6.68
407.749	6.79
407.955	6.95
408.162	6.65
408.369	7.02
408.575	6.89
408.782	6.47
408.989	6.44
409.195	6.48
409.402	6.29
409.609	6.16
409.815	6.41
410.022	6.64
410.228	6.42
410.435	6.65
410.642	6.58
410.848	6.69
411.055	6.94
411.261	6.74
411.468	6.63
411.674	6.67
411.881	6.91
412.087	6.67
412.294	6.66
412.5	6.47
412.706	6.45
412.913	6.15
413.119	6.28
413.326	6.37
413.532	6.23
413.738	6.35
413.945	6.55
414.151	6.76
414.357	7.04
414.564	7
414.77	7.23
414.976	7.17
415.182	7.41
415.389	7.48
415.595	7.48
415.801	7.89
416.007	8.01
416.214	7.88
416.42	7.98
416.626	7.66
416.832	7.64
417.038	7.39
417.244	7.5
417.45	7.3
417.657	7.22
417.863	7.27
418.069	7.22
418.275	7.05
418.481	7.18
418.687	6.92
418.893	6.87
419.099	7.05
419.305	7.12
419.511	7.1
419.717	7.19
419.923	7.17
420.129	7.06
420.335	7.19
420.541	7.24
420.746	7.23
420.952	7.16
421.158	7.31
421.364	7.18
421.57	7.08
421.776	6.93
421.982	6.77
422.187	6.87
422.393	6.89
422.599	6.74
422.805	6.66
423.01	6.59
423.216	6.6
423.422	6.42
423.628	6.45
423.833	6.63
424.039	6.71
424.245	6.82
424.45	6.71
424.656	6.52
424.862	6.52
425.067	6.53
425.273	6.5
425.478	6.56
425.684	6.69
425.889	6.52
426.095	6.45
426.301	6.45
426.506	6.38
426.712	6.35
426.917	6.44
427.123	6.3
427.328	6.21
427.533	6.27
427.739	6.3
427.944	6.11
428.15	6.37
428.355	6.13
428.561	6.12
428.766	6.08
428.971	6.03
429.177	6.14
429.382	6.19
429.587	6.17
429.793	5.86
429.998	5.89
430.203	6.02
430.408	5.88
430.614	6.32
430.819	6.4
431.024	6.54
431.229	6.29
431.434	6.28
431.64	6.3
431.845	6.31
432.05	6.62
432.255	6.48
432.46	6.57
432.665	6.75
432.87	6.4
433.076	6.24
433.281	6.36
433.486	6.48
433.691	6.42
433.896	6.57
434.101	6.71
434.306	6.61
434.511	6.68
434.716	6.77
434.921	6.73
435.126	6.74
435.331	6.84
435.535	6.64
435.74	6.69
435.945	6.83
436.15	6.67
436.355	6.74
436.56	6.85
436.765	6.81
436.97	6.7
437.174	6.7
437.379	6.91
437.584	6.8
437.789	6.87
437.993	6.92
438.198	6.86
438.403	6.85
438.608	6.7
438.812	6.51
439.017	6.5
439.222	6.57
439.426	6.4
439.631	6.3
439.836	6.55
440.04	6.54
440.245	6.75
440.45	6.67
440.654	6.65
440.859	6.57
441.063	6.73
441.268	6.52
441.472	6.44
441.677	6.4
441.881	6.39
442.086	6.17
442.29	6.14
442.495	5.87
442.699	5.88
442.904	6.01
443.108	6.07
443.312	6
443.517	6.3
443.721	6.29
443.925	6.28
444.13	6.39
444.334	6.37
444.538	6.44
444.743	6.52
444.947	6.53
445.151	6.57
445.356	6.66
445.56	6.63
445.764	6.58
445.968	6.47
446.173	6.55
446.377	6.54
446.581	6.52
446.785	6.43
446.989	6.49
447.193	6.58
447.398	6.41
447.602	6.35
447.806	6.36
448.01	6.39
448.214	6.54
448.418	6.61
448.622	6.52
448.826	6.62
449.03	6.85
449.234	6.7
449.438	6.55
449.642	6.47
449.846	6.6
450.05	6.41
450.254	6.33
450.458	6.21
450.662	6.13
450.866	6.05
451.069	6.06
451.273	6.02
451.477	6.05
451.681	6.11
451.885	6.26
452.089	6.18
452.292	6.44
452.496	6.67
452.7	6.75
452.904	6.73
453.107	6.85
453.311	6.86
453.515	6.53
453.719	6.43
453.922	6.37
454.126	6.44
454.33	6.11
454.533	6.16
454.737	5.86
454.94	5.65
455.144	5.64
455.348	5.36
455.551	5.41
455.755	5.5
455.958	5.79
456.162	5.76
456.365	5.71
456.569	5.99
456.772	5.89
456.976	6.02
457.179	6.19
457.383	6.15
457.586	6.23
457.79	6.09
457.993	6.17
458.196	6.04
458.4	6.17
458.603	6.21
458.807	6.11
459.01	6.18
459.213	6.07
459.417	6.04
459.62	5.98
459.823	6.12
460.026	6.04
460.23	6.09
460.433	6.07
460.636	6.08
460.839	6
461.042	6.02
461.246	6.02
461.449	6.05
461.652	6.13
461.855	6.14
462.058	6.12
462.261	6.4
462.464	6.41
462.668	6.52
462.871	6.24
463.074	6.2
463.277	6.19
463.48	6.15
463.683	6.14
463.886	6.11
464.089	6.17
464.292	6.36
464.495	6.19
464.698	6.06
464.901	5.88
465.104	6.15
465.306	6.07
465.509	6.12
465.712	6.02
465.915	6.05
466.118	5.92
466.321	6.08
466.524	5.98
466.726	5.92
466.929	5.96
467.132	6.07
467.335	6.06
467.538	6.25
467.74	6.3
467.943	6.33
468.146	6.23
468.348	6.25
468.551	6.06
468.754	5.88
468.956	5.9
469.159	5.85
469.362	5.73
469.564	5.61
469.767	5.51
469.969	5.57
470.172	5.5
470.375	5.64
470.577	5.95
470.78	6.02
470.982	6.16
471.185	6.26
471.387	6.5
471.59	6.43
471.792	6.41
471.995	6.45
472.197	6.41
472.399	6.43
472.602	6.42
472.804	6.16
473.007	6.25
473.209	6.21
473.411	6.05
473.614	6.03
473.816	6.1
474.018	6.12
474.22	5.99
474.423	5.99
474.625	5.97
474.827	6.03
475.03	5.89
475.232	5.76
475.434	5.63
475.636	5.71
475.838	5.64
476.04	5.86
476.243	5.96
476.445	6.13
476.647	6
476.849	5.97
477.051	6.04
477.253	6.18
477.455	6.2
477.657	6.38
477.859	6.39
478.061	6.35
478.263	6.34
478.465	6.37
478.667	6.45
478.869	6.4
479.071	6.37
479.273	6.24
479.475	6.18
479.677	6.2
479.879	6.02
480.081	6.04
480.283	6.08
480.485	5.99
480.686	6
480.888	5.97
481.09	6.16
481.292	6.28
481.494	6.37
481.695	6.3
481.897	6.27
482.099	6.41
482.301	6.41
482.502	6.41
482.704	6.28
482.906	6.22
483.107	6.26
483.309	6.21
483.511	6.18
483.712	6.17
483.914	6.28
484.115	6.27
484.317	6.25
484.519	6.2
484.72	6.15
484.922	6.18
485.123	6.18
485.325	6.1
485.526	6.16
485.728	6.22
485.929	6.25
486.131	6.25
486.332	6.31
486.534	6.32
486.735	6.43
486.936	6.45
487.138	6.5
487.339	6.56
487.541	6.52
487.742	6.39
487.943	6.34
488.144	6.32
488.346	6.19
488.547	6.1
488.748	6.06
488.95	5.95
489.151	5.98
489.352	5.96
489.553	5.96
489.755	6.02
489.956	6.09
490.157	6.05
490.358	6.13
490.559	6.16
490.76	6.14
490.961	6.15
491.163	6.19
491.364	6.18
491.565	6.13
491.766	6.13
491.967	6.1
492.168	6.13
492.369	6.17
492.57	6.06
492.771	6.11
492.972	6.15
493.173	6.09
493.374	6.09
493.575	5.99
493.776	5.95
493.976	5.9
494.177	5.88
494.378	5.73
494.579	5.69
494.78	5.69
494.981	5.45
495.182	5.51
495.382	5.55
495.583	5.55
495.784	5.64
495.985	5.73
496.185	5.66
496.386	5.65
496.587	5.75
496.788	5.77
496.988	5.71
497.189	5.78
497.39	5.81
497.59	5.9
497.791	6.02
497.992	6
498.192	5.84
498.393	5.86
498.593	5.97
498.794	5.87
498.994	5.97
499.195	6.03
499.395	6.27
499.596	6.18
499.796	6.01
499.997	5.95
500.197	5.96
500.398	6.26
500.598	6.09
500.799	6.17
500.999	6.26
501.199	6.22
501.4	6.11
501.6	6.14
501.801	6.13
502.001	6.25
502.201	6.09
502.402	6.18
502.602	6.11
502.802	6.39
503.002	6.23
503.203	6.33
503.403	6.13
503.603	6.34
503.803	6.13
504.003	6.14
504.204	6.27
504.404	6.35
504.604	6.28
504.804	6.31
505.004	6.21
505.204	6.21
505.404	6.32
505.604	6.42
505.804	6.38
506.005	6.41
506.205	6.46
506.405	6.2
506.605	6.29
506.805	6.29
507.005	6.23
507.204	6.2
507.404	6.25
507.604	6.12
507.804	5.92
508.004	5.89
508.204	6
508.404	6.07
508.604	6.23
508.804	6.13
509.003	6.08
509.203	6.19
509.403	6.27
509.603	6.21
509.803	6.34
510.002	6.53
510.202	6.59
510.402	6.54
510.602	6.46
510.801	6.39
511.001	6.39
511.201	6.4
511.4	6.27
511.6	6.25
511.8	6.29
511.999	6.15
512.199	6.26
512.398	6.2
512.598	6.26
512.797	6.24
512.997	6.33
513.197	6.44
513.396	6.56
513.596	6.46
513.795	6.4
513.994	6.49
514.194	6.39
514.393	6.31
514.593	6.41
514.792	6.41
514.992	6.51
515.191	6.5
515.39	6.5
515.59	6.46
515.789	6.73
515.988	6.78
516.188	6.61
516.387	6.65
516.586	6.46
516.786	6.42
516.985	6.51
517.184	6.5
517.383	6.32
517.582	6.24
517.782	6.22
517.981	6.07
518.18	6.16
518.379	6.28
518.578	6.33
518.777	6.43
518.976	6.32
519.176	6.33
519.375	6.35
519.574	6.55
519.773	6.54
519.972	6.39
520.171	6.54
520.37	6.51
520.569	6.51
520.768	6.53
520.967	6.67
521.166	6.71
521.365	6.7
521.564	6.69
521.762	6.61
521.961	6.83
522.16	7.03
522.359	6.95
522.558	6.88
522.757	6.79
522.956	6.54
523.154	6.42
523.353	6.51
523.552	6.4
523.751	6.48
523.949	6.44
524.148	6.33
524.347	6.26
524.546	6.19
524.744	6.29
524.943	6.32
525.142	6.49
525.34	6.53
525.539	6.56
525.737	6.55
525.936	6.58
526.135	6.56
526.333	6.59
526.532	6.65
526.73	6.72
526.929	6.82
527.127	6.91
527.326	6.89
527.524	6.95
527.723	6.96
527.921	7.01
528.12	6.99
528.318	6.98
528.516	6.97
528.715	6.95
528.913	7.03
529.112	7
529.31	7.04
529.508	7.03
529.707	7
529.905	7
530.103	6.97
530.301	6.97
530.5	7.04
530.698	7.12
530.896	7.13
531.094	7.09
531.293	7.07
531.491	7.03
531.689	7.15
531.887	7.15
532.085	7.23
532.283	7.34
532.481	7.32
532.68	7.32
532.878	7.26
533.076	7.42
533.274	7.33
533.472	7.3
533.67	7.36
533.868	7.3
534.066	7.29
534.264	7.25
534.462	7.18
534.66	7.13
534.858	7.15
535.056	7.16
535.253	7.05
535.451	7.16
535.649	7.21
535.847	7.18
536.045	7.29
536.243	7.3
536.441	7.32
536.638	7.29
536.836	7.34
537.034	7.4
537.232	7.48
537.43	7.63
537.627	7.58
537.825	7.59
538.023	7.47
538.22	7.53
538.418	7.52
538.616	7.67
538.813	7.83
539.011	7.81
539.209	7.87
539.406	7.83
539.604	7.76
539.801	7.89
539.999	8.01
540.196	8.08
540.394	8.06
540.591	8.13
540.789	8.08
540.986	8.05
541.184	8.11
541.381	8.12
541.579	8.13
541.776	8.19
541.974	8.11
542.171	8.03
542.368	8.03
542.566	8.03
542.763	8.02
542.96	7.95
543.158	7.97
543.355	8.08
543.552	8.12
543.75	8.18
543.947	8.08
544.144	8.15
544.341	8.27
544.539	8.33
544.736	8.35
544.933	8.59
545.13	8.77
545.327	8.84
545.524	8.79
545.722	8.88
545.919	8.83
546.116	8.83
546.313	8.92
546.51	8.89
546.707	8.84
546.904	8.77
547.101	8.63
547.298	8.5
547.495	8.44
547.692	8.43
547.889	8.27
548.086	8.43
548.283	8.51
548.48	8.45
548.677	8.48
548.874	8.71
549.07	8.78
549.267	8.8
549.464	8.76
549.661	8.81
549.858	9
550.055	9.06
550.251	9.07
550.448	9.27
550.645	9.32
550.842	9.57
551.038	9.52
551.235	9.58
551.432	9.39
551.628	9.72
551.825	9.87
552.022	9.78
552.218	9.87
552.415	9.9
552.612	9.72
552.808	9.87
553.005	9.83
553.201	9.84
553.398	9.86
553.594	10.03
553.791	10.1
553.987	10.35
554.184	10.21
554.38	10.31
554.577	10.26
554.773	10.57
554.97	10.49
555.166	10.61
555.362	10.78
555.559	10.94
555.755	11.2
555.952	11.16
556.148	10.87
556.344	11.14
556.541	11.15
556.737	11.36
556.933	11.26
557.129	11.34
557.326	11.3
557.522	11.32
557.718	11.18
557.914	11.15
558.11	11.19
558.307	11.3
558.503	11.38
558.699	11.4
558.895	11.26
559.091	11.33
559.287	11.47
559.483	11.58
559.679	11.74
559.876	12.05
560.072	11.9
560.268	12.08
560.464	11.98
560.66	12.03
560.856	11.97
561.052	12.16
561.247	12.33
561.443	12.32
561.639	12.1
561.835	11.92
562.031	11.91
562.227	11.87
562.423	11.78
562.619	12
562.815	11.91
563.01	12.15
563.206	12.11
563.402	12.04
563.598	11.82
563.793	11.83
563.989	11.7
564.185	11.76
564.381	11.95
564.576	12.01
564.772	12.19
564.968	12.35
565.163	12.32
565.359	12.45
565.555	12.49
565.75	12.83
565.946	13.04
566.141	13.42
566.337	13.39
566.532	13.48
566.728	13.63
566.923	13.51
567.119	13.57
567.314	13.54
567.51	13.63
567.705	13.8
567.901	13.91
568.096	13.99
568.292	13.92
568.487	14.03
568.682	14.26
568.878	14.31
569.073	14.35
569.268	14.44
569.464	14.59
569.659	14.53
569.854	14.44
570.05	14.37
570.245	14.4
570.44	14.68
570.635	14.86
570.831	14.88
571.026	14.86
571.221	15.18
571.416	15.19
571.611	15.25
571.806	15.41
572.002	15.41
572.197	15.34
572.392	15.46
572.587	15.13
572.782	15.23
572.977	15.23
573.172	15.27
573.367	15.27
573.562	15.31
573.757	15.27
573.952	15.19
574.147	15.15
574.342	15.34
574.537	15.36
574.732	15.64
574.927	15.62
575.121	15.67
575.316	15.7
575.511	15.44
575.706	15.37
575.901	15.41
576.096	15.59
576.29	15.7
576.485	15.77
576.68	15.83
576.875	15.83
577.069	15.7
577.264	15.7
577.459	15.66
577.654	15.87
577.848	15.99
578.043	15.91
578.238	15.77
578.432	15.77
578.627	15.72
578.821	15.65
579.016	15.63
579.21	15.91
579.405	15.69
579.6	15.72
579.794	15.75
579.989	15.95
580.183	16.36
580.378	16.52
580.572	16.79
580.766	16.58
580.961	16.64
581.155	16.62
581.35	16.54
581.544	16.66
581.738	16.93
581.933	16.97
582.127	16.81
582.321	16.75
582.516	16.8
582.71	16.8
582.904	16.81
583.099	16.61
583.293	16.88
583.487	16.79
583.681	16.82
583.875	16.71
584.07	16.93
584.264	16.87
584.458	17
584.652	16.9
584.846	16.93
585.04	17.08
585.234	17.25
585.428	16.91
585.623	17
585.817	17.19
586.011	17.26
586.205	16.89
586.399	17.14
586.593	17.2
586.787	17.25
586.981	17.1
587.174	17.12
587.368	17.26
587.562	17.4
587.756	17.27
587.95	17.18
588.144	17.21
588.338	17.34
588.532	17.09
588.725	16.88
588.919	17.11
589.113	17.3
589.307	17.18
589.501	17.26
589.694	17.36
589.888	17.63
590.082	17.82
590.275	17.94
590.469	17.85
590.663	18.15
590.856	18.15
591.05	17.91
591.244	17.67
591.437	18.2
591.631	18.22
591.824	17.93
592.018	17.66
592.212	17.57
592.405	17.56
592.599	17.63
592.792	17.48
592.986	17.8
593.179	17.95
593.372	18.49
593.566	18.22
593.759	18.19
593.953	18.51
594.146	18.86
594.339	19.01
594.533	18.87
594.726	18.96
594.92	19.17
595.113	18.93
595.306	19.06
595.499	18.85
595.693	18.91
595.886	18.88
596.079	19.04
596.272	18.96
596.466	18.87
596.659	18.78
596.852	18.76
597.045	18.82
597.238	18.95
597.431	18.9
597.624	18.74
597.818	18.8
598.011	18.87
598.204	18.62
598.397	18.5
598.59	18.3
598.783	18.45
598.976	18.39
599.169	18.15
599.362	17.97
599.555	18.1
599.748	18.26
599.941	18.33
600.134	18.3
600.326	18.53
600.519	18.71
600.712	19.09
600.905	19.03
601.098	19.2
601.291	19.34
601.483	19.36
601.676	19.14
601.869	19.24
602.062	18.96
602.255	18.85
602.447	18.97
602.64	18.95
602.833	18.83
603.025	18.92
603.218	18.75
603.411	18.81
603.603	18.83
603.796	18.83
603.989	18.6
604.181	18.76
604.374	18.86
604.566	18.68
604.759	18.73
604.951	18.8
605.144	18.6
605.336	18.77
605.529	18.66
605.721	18.68
605.914	18.76
606.106	18.86
606.299	18.82
606.491	18.95
606.683	18.91
606.876	19.01
607.068	19.08
607.26	19.22
607.453	19.22
607.645	19.31
607.837	19.7
608.03	19.63
608.222	19.75
608.414	19.71
608.606	19.44
608.799	19.56
608.991	19.58
609.183	19.54
609.375	19.62
609.567	19.61
609.759	19.62
609.952	19.31
610.144	19.44
610.336	19.27
610.528	19.22
610.72	19.17
610.912	19.25
611.104	19.05
611.296	19
611.488	19.04
611.68	18.99
611.872	19.02
612.064	18.95
612.256	18.62
612.448	18.93
612.64	19.18
612.832	19.39
613.023	19.38
613.215	19.44
613.407	19.14
613.599	19.25
613.791	19.31
613.983	19.14
614.174	19.17
614.366	19.3
614.558	19.1
614.75	19.17
614.941	18.95
615.133	18.73
615.325	18.81
615.516	18.7
615.708	18.46
615.9	18.18
616.091	18.19
616.283	18.24
616.475	18.51
616.666	18.76
616.858	18.64
617.049	18.85
617.241	18.91
617.432	18.9
617.624	19.07
617.815	19.32
618.007	19.48
618.198	19.66
618.39	19.8
618.581	19.58
618.773	19.07
618.964	19.14
619.155	18.9
619.347	18.91
619.538	18.78
619.729	18.87
619.921	18.76
620.112	19.02
620.303	18.78
620.494	18.63
620.686	18.91
620.877	19.46
621.068	19.54
621.259	19.66
621.451	19.56
621.642	19.84
621.833	19.98
622.024	20.04
622.215	19.76
622.406	19.99
622.597	19.84
622.788	19.63
622.98	19.63
623.171	19.43
623.362	19.22
623.553	19.17
623.744	18.82
623.935	18.81
624.126	18.57
624.317	18.69
624.508	18.48
624.698	18.62
624.889	18.73
625.08	18.49
625.271	18.44
625.462	18.87
625.653	19.13
625.844	19.31
626.034	19.4
626.225	19.59
626.416	19.67
626.607	19.77
626.798	19.68
626.988	19.77
627.179	19.85
627.37	19.82
627.56	19.9
627.751	19.7
627.942	19.85
628.132	19.73
628.323	19.72
628.514	19.65
628.704	19.64
628.895	19.75
629.085	19.41
629.276	19.37
629.466	19.59
629.657	19.51
629.847	19.58
630.038	19.46
630.228	19.6
630.419	19.53
630.609	19.73
630.8	19.61
630.99	19.57
631.181	19.73
631.371	19.82
631.561	19.56
631.752	19.74
631.942	19.91
632.132	19.87
632.323	19.69
632.513	19.58
632.703	19.59
632.893	19.47
633.084	19.7
633.274	19.82
633.464	19.72
633.654	19.91
633.844	19.75
634.034	19.74
634.225	19.91
634.415	20.05
634.605	20.21
634.795	19.95
634.985	20.2
635.175	19.92
635.365	20.05
635.555	19.82
635.745	19.73
635.935	19.46
636.125	19.15
636.315	18.79
636.505	18.94
636.695	18.93
636.885	19.21
637.075	18.94
637.265	18.91
637.455	18.56
637.644	18.88
637.834	18.63
638.024	18.76
638.214	18.99
638.404	19.11
638.593	18.81
638.783	18.76
638.973	18.76
639.163	18.92
639.352	19.16
639.542	19.21
639.732	19.01
639.921	19.14
640.111	19.12
640.301	19.31
640.49	19.4
640.68	19.51
640.87	19.85
641.059	19.78
641.249	19.97
641.438	19.9
641.628	19.87
641.817	19.78
642.007	19.83
642.196	19.9
642.386	19.82
642.575	19.58
642.764	19.39
642.954	19.23
643.143	19.01
643.333	18.94
643.522	19.09
643.711	18.95
643.901	18.82
644.09	18.68
644.279	18.82
644.469	18.66
644.658	18.83
644.847	19.03
645.036	19.27
645.226	19.16
645.415	19.29
645.604	18.97
645.793	18.99
645.982	19.08
646.171	19.21
646.361	19.32
646.55	19.1
646.739	19.09
646.928	19.01
647.117	18.53
647.306	18.23
647.495	18.19
647.684	18.47
647.873	18.48
648.062	18.74
648.251	18.69
648.44	18.44
648.629	18.8
648.818	18.75
649.007	19.01
649.196	19.25
649.384	19.81
649.573	19.89
649.762	19.45
649.951	19.99
650.14	20.06
650.328	20.39
650.517	20.39
650.706	20.41
650.895	20.98
651.083	20.84
651.272	20.52
651.461	20.11
651.65	19.94
651.838	20.2
652.027	20.23
652.216	20.43
652.404	20.08
652.593	20.05
652.781	20.06
652.97	19.31
653.158	19.46
653.347	19.64
653.535	19.42
653.724	19.41
653.912	19.7
654.101	19.52
654.289	19.57
654.478	19.74
654.666	19.76
654.855	19.61
655.043	19.74
655.231	19.37
655.42	19.47
655.608	20.12
655.796	20.19
655.985	19.97
656.173	19.33
656.361	18.62
656.55	18.8
656.738	18.73
656.926	18.87
657.114	19.11
657.302	19.15
657.491	19.45
657.679	19.41
657.867	19.37
658.055	19.35
658.243	19.7
658.431	20.22
658.619	20.26
658.807	20.66
658.996	20.74
659.184	20.71
659.372	20.75
659.56	20.24
659.748	20.22
659.936	20.26
660.124	20.6
660.311	20.65
660.499	20.52
660.687	20.36
660.875	20.3
661.063	20.31
661.251	20.46
661.439	20.74
661.627	21.15
661.814	21.09
662.002	21.07
662.19	20.82
662.378	20.93
662.565	21.09
662.753	21.59
662.941	20.98
663.129	21.27
663.316	21.33
663.504	20.95
663.692	20.84
663.879	21.29
664.067	21.41
664.254	21.3
664.442	21.66
664.63	21.63
664.817	21.05
665.005	21.56
665.192	21.29
665.38	21.24
665.567	21.51
665.755	21.36
665.942	21.04
666.13	21
666.317	21.09
666.504	20.58
666.692	20.55
666.879	20.9
667.067	20.71
667.254	20.38
667.441	20.66
667.629	20.71
667.816	20.89
668.003	20.89
668.19	20.67
668.378	20.28
668.565	20.4
668.752	20.21
668.939	19.83
669.127	20.13
669.314	20.11
669.501	19.46
669.688	19.73
669.875	19.6
670.062	19.49
670.249	19.77
670.436	19.99
670.623	20.06
670.81	19.88
670.997	19.91
671.184	19.52
671.371	20.12
671.558	20.66
671.745	19.72
671.932	20.07
672.119	19.69
672.306	19.63
672.493	19.59
672.68	19.28
672.867	19.93
673.054	20.39
673.24	20.47
673.427	19.48
673.614	19.23
673.801	20.36
673.988	20.18
674.174	21.22
674.361	21.21
674.548	21.32
674.734	21.25
674.921	20.49
675.108	20.2
675.294	20.41
675.481	20.72
675.668	20.83
675.854	20
676.041	19.9
676.227	19.69
676.414	19.55
676.601	19.99
676.787	20.21
676.974	20.65
677.16	20.79
677.347	20.58
677.533	20.61
677.719	20.14
677.906	20.44
678.092	20.65
678.279	20.35
678.465	20.86
678.651	20.74
678.838	20.88
679.024	21.03
679.21	20.38
679.397	20.66
679.583	20.64
679.769	20.47
679.955	20.46
680.142	20.17
680.328	20.53
680.514	20.39
680.7	20.34
680.886	20.43
681.073	20.2
681.259	20.38
681.445	20.48
681.631	20.76
681.817	21.14
682.003	21.34
682.189	21.34
682.375	21.09
682.561	21.29
682.747	21.74
682.933	21.69
683.119	21.81
683.305	22.16
683.491	21.78
683.677	21.58
683.863	21.57
684.049	20.85
684.235	20.75
684.42	20.94
684.606	19.96
684.792	19.24
684.978	18.65
685.164	18.64
685.349	18.81
685.535	19.07
685.721	19.62
685.907	19.57
686.092	20.1
686.278	20.9
686.464	20.9
686.649	21.49
686.835	21.6
687.021	22.19
687.206	22.1
687.392	21.64
687.577	21.97
687.763	21.58
687.948	21.64
688.134	21.6
688.319	21.49
688.505	21.39
688.69	21.7
688.876	21.63
689.061	20.82
689.247	21.13
689.432	21.77
689.618	21.27
689.803	21.02
689.988	21.33
690.174	21.08
690.359	20.97
690.544	20.91
690.73	21.07
690.915	21.01
691.1	21.7
691.285	21.13
691.471	20.41
691.656	20.05
691.841	20.55
692.026	20.44
692.211	21.18
692.396	20.91
692.582	20.88
692.767	20.66
692.952	20.06
693.137	20.21
693.322	20.51
693.507	21.14
693.692	21.48
693.877	20.92
694.062	20.73
694.247	20.62
694.432	20.93
694.617	20.45
694.802	19.65
694.987	20.8
695.172	20.55
695.357	20.38
695.541	19.99
695.726	19.8
695.911	20.34
696.096	20.41
696.281	20.07
696.466	19.94
696.65	20.13
696.835	20.4
697.02	19.7
697.204	19.54
697.389	19.95
697.574	20.45
697.759	21.28
697.943	21.46
698.128	21.45
698.312	21.57
698.497	21.43
698.682	21.23
698.866	21.33
699.051	21.58
699.235	21.79
699.42	21.53
699.604	21.16
699.789	20.68
699.973	20
700.158	20.25
700.342	19.94
700.527	20.07
700.711	20.08
700.895	20
701.08	20.16
701.264	20.12
701.448	20.03
701.633	20.8
701.817	20.84
702.001	21.52
702.186	21.01
702.37	21.38
702.554	20.81
702.738	21.86
702.923	22.55
703.107	22.26
703.291	22.2
703.475	22.28
703.659	20.73
703.843	20.56
704.027	19.33
704.212	19.35
704.396	19.03
704.58	20.03
704.764	19.24
704.948	18.35
705.132	18.22
705.316	18.12
705.5	18.08
705.684	19.08
705.868	18.62
706.052	19.79
706.235	19.79
706.419	19.36
706.603	18.43
706.787	19.09
706.971	19.47
707.155	19.91
707.339	20.17
707.522	20.99
707.706	20.31
707.89	20.73
708.074	20.33
708.257	20.75
708.441	21.66
708.625	21.9
708.808	20.92
708.992	21.44
709.176	20.91
709.359	21
709.543	20.31
709.727	20.43
709.91	20.16
710.094	20.66
710.277	20.82
710.461	20.09
710.644	19.8
710.828	20.1
711.011	19.33
711.195	19.54
711.378	19.34
711.562	19.35
711.745	19.29
711.928	19.63
712.112	19.11
712.295	18.56
712.478	18.73
712.662	19.9
712.845	20.46
713.028	20.45
713.212	21.32
713.395	21.4
713.578	21.03
713.761	22.04
713.945	22.7
714.128	22.63
714.311	22.15
714.494	22.51
714.677	21.62
714.86	21.65
715.043	22
715.227	21.77
715.41	22.76
715.593	23.2
715.776	21.98
715.959	20.82
716.142	21.21
716.325	21.55
716.508	21.27
716.691	21
716.874	20.38
717.057	20.37
717.239	20.3
717.422	18.65
717.605	18.78
717.788	19.43
717.971	20.21
718.154	19.86
718.337	20.51
718.519	20.48
718.702	19.83
718.885	19.44
719.068	19.98
719.25	19.37
719.433	19.74
719.616	20.24
719.798	20.1
719.981	19.84
720.164	19.96
720.346	19.98
720.529	19.65
720.712	19.8
720.894	20.93
721.077	19.6
721.259	19.24
721.442	19.23
721.624	18.08
721.807	17.23
721.989	16.75
722.172	17.48
722.354	16.94
722.537	18.17
722.719	18.64
722.901	19.06
723.084	19.99
723.266	20.32
723.448	21
723.631	21.99
723.813	22.68
723.995	22.51
724.178	22.47
724.36	22.93
724.542	21.85
724.724	23.15
724.907	21.43
725.089	21.02
725.271	20.72
725.453	19.94
725.635	20.18
725.817	20.62
725.999	21.56
726.181	21.41
726.364	20.8
726.546	21.19
726.728	21.09
726.91	21.53
727.092	21.55
727.274	22
727.456	22.71
727.638	21.47
727.819	20.97
728.001	21.35
728.183	21.19
728.365	21.35
728.547	21.36
728.729	20.96
728.911	21.67
729.093	21.58
729.274	20.71
729.456	19.74
729.638	21.12
729.82	21.59
730.001	20.05
730.183	20.14
730.365	20.14
730.546	19.12
730.728	19.15
730.91	17.78
731.091	17.62
731.273	18.13
731.455	18.77
731.636	18.15
731.818	18.32
731.999	19.23
732.181	19.48
732.362	18.54
732.544	19.23
732.725	19.26
732.907	20.99
733.088	20.48
733.27	21.05
733.451	21.43
733.633	20.99
733.814	20.79
733.995	20.32
734.177	19.13
734.358	20.46
734.539	21.16
734.721	19.83
734.902	18.93
735.083	20.16
735.264	20.22
735.446	20.25
735.627	20.22
735.808	19.78
735.989	20.89
736.17	21.73
736.351	21.64
736.533	21.53
736.714	21.93
736.895	20.77
737.076	19.15
737.257	19.49
737.438	19
737.619	19.35
737.8	19.96
737.981	19.49
738.162	18.84
738.343	18.33
738.524	19.13
738.705	20.41
738.886	21.22
739.067	22.75
739.247	22.47
739.428	23.2
739.609	22.46
739.79	21.57
739.971	21.47
740.151	22.72
740.332	21.93
740.513	20.15
740.694	20.74
740.874	20.94
741.055	21.13
741.236	22.07
741.417	21.28
741.597	21.88
741.778	23.77
741.958	23.64
742.139	23.12
742.32	23.74
742.5	24.09
742.681	22.65
742.861	22.93
743.042	22.8
743.222	21.19
743.403	21.11
743.583	20.46
743.764	18.59
743.944	18.53
744.124	17.37
744.305	17.1
744.485	17.87
744.666	18.4
744.846	18.8
745.026	17.37
745.207	16.69
745.387	17.01
745.567	16.88
745.747	18.53
745.928	19.01
746.108	19.95
746.288	20.5
746.468	18.37
746.648	19.2
746.829	18.07
747.009	19.49
747.189	20.26
747.369	20.39
747.549	21.53
747.729	20.88
747.909	20.85
748.089	20.7
748.269	21.64
748.449	24.93
748.629	24.27
748.809	24.63
748.989	23.28
749.169	23.43
749.349	24.94
749.529	24.98
749.709	24.55
749.889	24.64
750.068	25.43
750.248	24.59
750.428	22.33
750.608	21.88
750.788	20.89
750.967	22.01
751.147	21.79
751.327	19.6
751.507	18.71
751.686	18.37
751.866	16.39
752.046	16.21
752.225	16.08
752.405	16.53
752.585	16.81
752.764	17.26
752.944	16.69
753.123	17.63
753.303	19.49
753.482	20.37
753.662	20.06
753.841	21.13
754.021	20.34
754.2	20.52
754.38	20.29
754.559	20.55
754.739	21.1
754.918	20.26
755.097	18.7
755.277	16.5
755.456	16.84
755.635	16.83
755.815	17.41
755.994	18.88
756.173	18.33
756.352	18.57
756.532	18.47
756.711	18.38
756.89	20.37
757.069	19.86
757.248	19.99
757.427	19.54
757.607	20.22
757.786	19.44
757.965	17.98
758.144	18.14
758.323	17.22
758.502	17.91
758.681	17.79
758.86	16.93
759.039	17.31
759.218	17.46
759.397	18.49
759.576	19.08
759.755	19.68
759.934	20.13
760.113	21.14
760.291	22.05
760.47	20.61
760.649	21.53
760.828	22.31
761.007	22.46
761.186	21.91
761.364	21.64
761.543	20.2
761.722	19.85
761.901	19.48
762.079	19.06
762.258	18.53
762.437	20.19
762.615	19.08
762.794	17.66
762.972	18.8
763.151	20.4
763.33	19.8
763.508	20.11
763.687	20.71
763.865	21.2
764.044	20.89
764.222	21.27
764.401	20.39
764.579	19.79
764.758	20.46
764.936	19.86
765.114	19.57
765.293	20.62
765.471	20.94
765.65	20.64
765.828	20.36
766.006	20.5
766.184	19.87
766.363	20.34
766.541	21.76
766.719	21.73
766.898	21.38
767.076	20.27
767.254	18.53
767.432	19.08
767.61	18.89
767.788	18.97
767.967	17.77
768.145	17.18
768.323	16.73
768.501	16.22
768.679	18.11
768.857	18.29
769.035	18.08
769.213	17.33
769.391	14.38
769.569	16.55
769.747	17.32
769.925	18.98
770.103	21.32
770.281	19.92
770.459	20.22
770.636	17.82
770.814	17.06
770.992	18.29
771.17	19.62
771.348	20.36
771.525	19.62
771.703	19.66
771.881	18.39
772.059	17.55
772.236	19.21
772.414	19.92
772.592	19.18
772.769	20.96
772.947	18.89
773.125	16.2
773.302	15.43
773.48	13.19
773.657	12.9
773.835	13.74
774.013	11.07
774.19	10.75
774.368	11.51
774.545	13.95
774.723	14.54
774.9	15.67
775.077	18.98
775.255	21.53
775.432	22.07
775.61	21.38
775.787	21.26
775.964	26.09
776.142	25.39
776.319	24.08
776.496	22.58
776.674	22.54
776.851	24.45
777.028	24.83
777.205	25.16
777.382	25.44
777.56	26.17
777.737	25.11
777.914	24.24
778.091	25.93
778.268	24.56
778.445	25.58
778.622	25.25
778.8	23.46
778.977	22.3
779.154	19.01
779.331	19.86
779.508	20.23
779.685	19.35
779.862	18.1
780.038	16.59
780.215	17.88
780.392	18.02
780.569	17.37
780.746	15.88
780.923	18.29
781.1	20.85
781.277	19.64
781.453	18.3
781.63	22.67
781.807	24.13
781.984	25.09
782.16	24.66
782.337	20.76
782.514	20.49
782.691	22.9
782.867	20.2
783.044	18.24
783.221	19.2
783.397	19.69
783.574	18.76
783.75	17.01
783.927	16.35
784.103	15.39
784.28	19.87
784.456	18.1
784.633	18.67
784.809	17.44
784.986	18.42
785.162	17.03
785.339	15.11
785.515	13.5
785.692	14.57
785.868	13.64
786.044	13.8
786.221	15.26
786.397	15.78
786.573	17.69
786.749	16.59
786.926	18.64
787.102	16.11
787.278	16.02
787.454	16.95
787.631	16.08
787.807	16.78
787.983	17.9
788.159	16.14
788.335	16.85
788.511	14.8
788.687	18.68
788.863	16.45
789.039	19.06
789.216	18.63
789.392	18.43
789.568	17.47
789.744	16.1
789.919	15.8
790.095	14.68
790.271	15.89
790.447	15.12
790.623	14.09
790.799	17.22
790.975	19.09
791.151	21.21
791.327	19.05
791.502	20.21
791.678	22.36
791.854	22.64
792.03	21.18
792.205	20.27
792.381	17.74
792.557	16.3
792.733	16.29
792.908	12.53
793.084	16.52
793.259	17.63
793.435	17.83
793.611	16.28
793.786	15.17
793.962	17.82
794.137	16.01
794.313	18.26
794.488	15.85
794.664	13.92
794.839	12.59
795.015	8.57
795.19	11.04
795.366	11.51
795.541	10.61
795.716	9.6
795.892	4.81
796.067	7.63
796.242	9.57
796.418	14.66
796.593	14.79
796.768	18.45
796.944	17.29
797.119	13.79
797.294	12.39
797.469	13.01
797.644	15.77
797.82	19.63
797.995	20.85
798.17	22.01
798.345	20.64
798.52	21.26
798.695	17.94
798.87	21.14
799.045	20.15
799.22	22.7
799.395	26.59
799.57	24.62
799.745	22.07
799.92	16.49
800.095	14.72
800.27	16.89
800.445	14.63
800.62	16.54
800.795	14.68
800.97	17
801.145	11.39
801.319	11.96
801.494	9.57
801.669	10.57
801.844	11.16
802.018	11.85
802.193	10.33
802.368	11.53
802.543	10.14
802.717	6.94
802.892	4.97
803.067	9.88
803.241	5.11
803.416	10.74
803.59	12.77
803.765	15.48
803.94	10.3
804.114	4.91
804.289	9.4
804.463	9.77
804.638	9.35
804.812	14.17
804.986	10.84
805.161	11.03
805.335	8.81
805.51	7.36
805.684	8.05
805.858	10.29
806.033	10.17
806.207	6.85
806.381	8.32
806.556	11.54
806.73	8.87
806.904	11.3
807.078	14.47
807.253	16.01
807.427	15.34
807.601	14.88
807.775	19.56
807.949	20.26
808.123	21.77
808.298	20.07
808.472	15.31
808.646	13.92
808.82	12.45
808.994	7.23
809.168	5.4
809.342	6.03
809.516	8.12
809.69	2.47
809.864	3.12
810.038	1.31
810.212	4.96
810.385	7.31
810.559	4.54
810.733	1.32
810.907	-0.39
811.081	-1.19
811.255	-4.13
811.428	-2.93
811.602	-2.82
811.776	-3.48
811.95	-8.64
812.123	-11.93
812.297	-7.07
812.471	-1.74
812.644	-0.96
812.818	6.53
812.992	0.23
813.165	2.96
813.339	0.58
813.512	2.67
813.686	3.3
813.86	7.02
814.033	7.33
814.207	4.2
814.38	1.25
814.554	3.33
814.727	-1.31
814.9	6.82
815.074	3.07
815.247	5.78
815.421	-1.17
815.594	2.05
815.767	0.99
815.941	1.76
816.114	-3.07
816.287	-2.41
816.46	-1.52
816.634	1.04
816.807	4.95
816.98	10.77
817.153	9.29
817.327	16.33
817.5	15.1
817.673	19.45
817.846	16.39
818.019	20.88
818.192	17.02
818.365	16.84
818.538	16.54
818.711	15.31
818.884	9.82
819.057	9.17
819.23	6.55
819.403	10.69
819.576	12.31
819.749	15.64
819.922	16.38
820.095	18.04
820.268	18.43
820.441	19.36
820.614	18.69
820.786	20.4
820.959	20.47
821.132	22.93
821.305	20.78
821.477	20.68
821.65	21.41
821.823	21.74
821.996	24.08
822.168	24.93
822.341	24.99
822.514	24.85
822.686	25.84
822.859	25.6
823.031	24.78
823.204	25.62
823.376	25.2
823.549	24.08
823.722	23.73
823.894	22.67
824.067	22.75
824.239	22.5
824.411	22.2
824.584	22.31
824.756	21.44
824.929	22.2
825.101	21.92
825.273	21.93
825.446	22.16
825.618	21.21
825.79	22.47
825.963	20.9
826.135	20.94
826.307	22.1
826.479	19.64
826.652	21.05
826.824	18.83
826.996	18.17
827.168	18.82
827.34	19.21
827.512	19.35
827.684	17.73
827.856	17.91
828.029	18.65
828.201	18.13
828.373	19.95
828.545	18.86
828.717	19.45
828.889	20
829.061	17.87
829.232	17.92
829.404	19.02
829.576	21.17
829.748	21.18
829.92	17.74
830.092	15.51
830.264	12.68
830.436	12.55
830.607	16.67
830.779	19.21
830.951	20.83
831.123	20.98
831.294	21.35
831.466	21.46
831.638	24.12
831.809	26.48
831.981	27.5
832.153	25.9
832.324	29.29
832.496	24.42
832.667	21.52
832.839	20.88
833.011	20.75
833.182	20.19
833.354	15.56
833.525	14.7
833.697	15.41
833.868	16.18
834.039	19.1
834.211	17.78
834.382	18.83
834.554	18.74
834.725	18.69
834.896	19.24
835.068	19.77
835.239	20.18
835.41	19.36
835.581	18
835.753	17.94
835.924	18.45
836.095	20.27
836.266	18.5
836.438	14.12
836.609	12.5
836.78	11.22
836.951	13.39
837.122	17.59
837.293	17.01
837.464	22.15
837.635	19.68
837.806	22.45
837.977	17.57
838.148	18.55
838.319	26.05
838.49	28.13
838.661	26.68
838.832	24.75
839.003	16.06
839.174	13.34
839.345	6.71
839.516	13.71
839.687	9.89
839.857	19.13
840.028	22.41
840.199	20.15
840.37	19.38
840.54	17.32
840.711	16.14
840.882	17.98
841.053	20.02
841.223	22.72
841.394	18.74
841.564	10.52
841.735	7.1
841.906	4.42
842.076	3.32
842.247	7.71
842.417	15.46
842.588	20.3
842.758	22.56
842.929	24.68
843.099	28.01
843.27	29.82
843.44	32.84
843.611	26.92
843.781	32.59
843.951	27.74
844.122	22.33
844.292	11.96
844.462	-0.03
844.633	-1.26
844.803	-3.03
844.973	-18.6
845.144	-12.17
845.314	-19.8
845.484	-10.34
845.654	-18.37
845.824	-7.03
845.995	1.57
846.165	-4.88
846.335	-9.48
846.505	-6.9
846.675	-4.32
846.845	-5.24
847.015	-1.17
847.185	3.64
847.355	0.53
847.525	9.97
847.695	17.21
847.865	5.72
848.035	8.04
848.205	9.08
848.375	15.38
848.545	-16.89
848.715	-8.22
848.884	-14.39
849.054	-19.26
849.224	-7.45
849.394	-6.59
849.564	-9.36
849.733	-7.44
849.903	-6.99
850.073	5.08
850.243	-5.62
850.412	39.68
850.582	27.35
850.752	15.73
850.921	26.21
851.091	16.58
851.26	13.83
851.43	-23.64
851.599	-32.42
851.769	-45.74
851.939	-47.16
852.108	-51.54
852.278	-41.41
852.447	-29.23
852.616	-8.52
852.786	-2.36
852.955	2.76
853.125	-5.82
853.294	2.75
853.463	3.46
853.633	15.27
853.802	11.96
853.971	12.01
854.141	3.73
854.31	7.91
854.479	-1.71
854.648	-24.5
854.818	-10.59
854.987	-21.54
855.156	-8.54
855.325	13.45
855.494	7.82
855.663	16.8
855.832	27.02
856.001	42.79
856.171	24.98
856.34	18.68
856.509	21.29
856.678	0.98
856.847	3.01
857.016	3.54
857.185	3.74
857.353	-5.12
857.522	-24.45
857.691	-22.75
857.86	-119.39
858.029	-165.03
858.198	-388.49
858.367	-105.57
858.535	-150
858.704	-73.35
858.873	-58.08
859.042	-80.15
859.21	-30.57
859.379	-8.22
859.548	-39.94
859.717	-33.05
859.885	-4.37
860.054	25.02
860.222	5.8
860.391	28.11
860.56	13.71
860.728	17.58
860.897	-0.06
861.065	1.61
861.234	-8.2
861.402	20.22
861.571	54.51
861.739	51.88
861.908	47.29
862.076	55.69
862.244	24.97
862.413	34.99
862.581	29.9
862.749	60.21
862.918	51.21
863.086	68.09
863.254	53.61
863.423	5.77
863.591	21.4
863.759	25.99
863.927	27.55
864.096	13.95
864.264	14.15
864.432	22.79
864.6	19.84
864.768	9
864.936	-20.06
865.104	-32.3
865.272	-12.8
865.44	-42.44
865.608	-75.49
865.776	-176.12
865.944	-76.41
866.112	-128.41
866.28	-226.51
866.448	-182.13
866.616	-154.63
866.784	-158.26
866.952	-151.43
867.12	-190.58
867.288	-148.99
867.455	-131.81
867.623	-106.49
867.791	-120.3
867.959	-155.8
868.127	-118.2
868.294	-98.9
868.462	-135.73
868.63	-38.53
868.797	-21.01
868.965	-10.24
869.133	-9.44
869.3	-31.19
869.468	-7.71
869.636	-8.53
869.803	1.39
869.971	17.6
870.138	-17
870.306	-39.22
870.473	-111.49
870.641	-138.16
870.808	-158.98
870.975	-89.29
871.143	-87.75
871.31	-142.69
871.478	-70.98
871.645	-64.95
871.812	-32.11
871.98	2.77
872.147	15.83
872.314	19.42
872.482	31.41
872.649	44.6
872.816	53.96
872.983	80.22
873.15	73.71
873.318	69.76
873.485	66
873.652	61.4
873.819	57.08
873.986	60.84
874.153	70.85
874.32	66.13
874.487	44.38
874.654	22.22
874.821	3.78
874.988	4.16
875.155	5.44
875.322	22.74
875.489	18.13
875.656	-3.12
875.823	-45.55
875.99	-43.09
876.157	-77.33
876.324	-50.71
876.49	-47.38
876.657	-67.58
876.824	-58.14
876.991	-218.99
877.157	-130.33
877.324	-496.01
877.491	-249.22
877.658	-209.61
877.824	-59.63
877.991	-39.93
878.157	-35.65
878.324	-34.04
878.491	-26.06
878.657	-34.92
878.824	-30.28
878.99	-39.82
879.157	-9.66
879.323	2.85
879.49	12.27
879.656	-1.87
879.823	-6.37
879.989	-3.04
880.156	2.62
880.322	-3.22
880.488	-3.67
880.655	4.33
880.821	9.21
880.987	16.34
881.154	15.02
881.32	18.86
881.486	11.79
881.652	15.58
881.819	10.11
881.985	12.34
882.151	17.02
882.317	16.75
882.483	21.23
882.649	16.71
882.816	12.28
882.982	11.54
883.148	8.71
883.314	12.32
883.48	13.97
883.646	17.65
883.812	18.7
883.978	18.98
884.144	20.52
884.31	19.78
884.476	21.1
884.642	21.55
884.807	24.89
884.973	27.45
885.139	29.52
885.305	28.96
885.471	27.01
885.637	27.93
885.802	25.99
885.968	25.59
886.134	20.55
886.3	20.7
886.465	19.34
886.631	10.81
886.797	4.62
886.962	-1.14
887.128	-9.84
887.293	-10.51
887.459	-20.71
887.625	-35.69
887.79	-42.37
887.956	-49.82
888.121	-65.31
888.287	-55.85
888.452	-66.72
888.618	-106.76
888.783	-191.98
