Data from 2938030_Reflection_2.txt Node
Date: Sun Jul 12 15:03:35 EDT 2015
User: robert
Spectrometer: USB4E03001
Autoset integration time: false
Trigger mode: 4
Integration Time (sec): 1.000000E-1
Scans to average: 10
Electric dark correction enabled: true
Nonlinearity correction enabled: false
Boxcar width: 5
Stray light correction enabled: false
XAxis mode: Wavelengths
Stop averaging: false
Number of Pixels in Spectrum: 3648
>>>>>Begin Spectral Data<<<<<
177.566	-226.97
177.785	92.11
178.005	92.14
178.225	52.3
178.445	128.58
178.665	133.29
178.885	46.08
179.105	4.22
179.324	23.65
179.544	403.52
179.764	115.26
179.984	-315.45
180.204	60.43
180.423	46.77
180.643	-12.7
180.863	-1588.57
181.083	-77.97
181.302	37.55
181.522	40.27
181.742	-25.62
181.961	-721.35
182.181	-48.69
182.401	-14.83
182.621	-12.09
182.84	-27.51
183.06	7.36
183.279	-31.31
183.499	-49.02
183.719	-48.75
183.938	-38.15
184.158	36.57
184.377	62.48
184.597	42.34
184.816	26.97
185.036	80.03
185.256	118.54
185.475	94.36
185.695	81.88
185.914	126.95
186.134	104.88
186.353	86.31
186.572	65.16
186.792	57.36
187.011	70.92
187.231	71.07
187.45	57.85
187.67	7.86
187.889	-76.67
188.108	11.85
188.328	-16.42
188.547	61.2
188.766	73.88
188.986	89.93
189.205	163.96
189.424	770.62
189.644	233.28
189.863	1450.78
190.082	585.04
190.302	293.92
190.521	369.98
190.74	1078.39
190.959	664.54
191.178	461.57
191.398	-377.35
191.617	1697.12
191.836	504.12
192.055	-547.4
192.274	154.03
192.494	110.67
192.713	64.77
192.932	86.57
193.151	104.91
193.37	94.99
193.589	102.89
193.808	114.8
194.027	98.39
194.246	130.98
194.465	94.57
194.685	116.69
194.904	90.45
195.123	109.8
195.342	123.79
195.561	181.73
195.78	106.85
195.999	73.35
196.218	49.16
196.436	25.74
196.655	25.96
196.874	43.3
197.093	8.74
197.312	-47.38
197.531	-52.97
197.75	-48.05
197.969	-57.53
198.188	-28.82
198.407	-43.21
198.625	-19.31
198.844	48.49
199.063	60.27
199.282	56.72
199.501	52.81
199.719	58.51
199.938	55.43
200.157	60.38
200.376	74.73
200.594	62.07
200.813	80.22
201.032	68.87
201.251	21.83
201.469	5.41
201.688	-15.42
201.907	-29.19
202.125	-16.55
202.344	-19.51
202.563	-115.47
202.781	-236.58
203	-125.95
203.218	-110.97
203.437	3106.98
203.656	56.8
203.874	85.79
204.093	165.47
204.311	152.2
204.53	142
204.748	156.38
204.967	188.02
205.185	239.19
205.404	215.32
205.622	250.22
205.841	158.3
206.059	208.7
206.278	108.5
206.496	18.16
206.715	51.82
206.933	50.66
207.151	73.95
207.37	57.71
207.588	34.92
207.806	46.29
208.025	52.75
208.243	68.9
208.461	69.72
208.68	67.11
208.898	89.52
209.116	85.39
209.335	89.42
209.553	64.93
209.771	71.54
209.989	69.22
210.208	69.23
210.426	120.6
210.644	66.58
210.862	90.14
211.081	126.36
211.299	107.28
211.517	119.62
211.735	116.12
211.953	138.97
212.171	105.18
212.39	193.81
212.608	185.83
212.826	104.06
213.044	76.28
213.262	65.2
213.48	33.33
213.698	43.33
213.916	26.42
214.134	43.3
214.352	43.04
214.57	49.25
214.788	30.9
215.006	1
215.224	1.01
215.442	33.23
215.66	28.34
215.878	21.8
216.096	19.32
216.314	33.12
216.532	45.09
216.75	40.44
216.968	34.61
217.185	40.29
217.403	57.97
217.621	47.54
217.839	55.75
218.057	79.02
218.275	98.69
218.492	120.6
218.71	163.17
218.928	161.53
219.146	127.42
219.363	154
219.581	183.97
219.799	102.93
220.017	148.82
220.234	99.64
220.452	100.33
220.67	66.57
220.887	52.38
221.105	30.59
221.323	23.92
221.54	33.02
221.758	24.1
221.976	11.95
222.193	12
222.411	-19.17
222.629	2.41
222.846	-6.51
223.064	4.53
223.281	-3.12
223.499	-11.28
223.716	-12.19
223.934	-39.45
224.151	6.39
224.369	8.12
224.586	27.4
224.804	31.55
225.021	38.93
225.239	26.78
225.456	16.28
225.674	10.11
225.891	24.64
226.108	30.24
226.326	29.75
226.543	19.7
226.76	16.33
226.978	0.84
227.195	7
227.413	0.23
227.63	3.64
227.847	8.22
228.064	11.84
228.282	11.26
228.499	8.72
228.716	9.79
228.934	9.82
229.151	10.69
229.368	13.31
229.585	13.32
229.802	15.49
230.02	16.08
230.237	17.69
230.454	17.56
230.671	16.23
230.888	18.18
231.105	18.62
231.323	16.74
231.54	16.71
231.757	13.37
231.974	11.59
232.191	6.69
232.408	8.91
232.625	7.21
232.842	4.77
233.059	8.51
233.276	6.7
233.493	6.65
233.71	6.32
233.927	5.04
234.144	10.31
234.361	13.03
234.578	15.51
234.795	8.63
235.012	8.75
235.229	10.71
235.446	11.72
235.663	14.03
235.879	17.3
236.096	22.73
236.313	25.17
236.53	22.54
236.747	20.65
236.964	17.67
237.181	24.04
237.397	24.68
237.614	22.09
237.831	20.52
238.048	20.42
238.264	18.51
238.481	14.69
238.698	14.97
238.915	16.17
239.131	15.65
239.348	13.73
239.565	9.18
239.781	5.14
239.998	6.72
240.215	7.29
240.431	3.73
240.648	4.56
240.865	3.26
241.081	5.45
241.298	7.43
241.514	7.59
241.731	10.36
241.947	11.88
242.164	13.43
242.38	13.53
242.597	13.59
242.814	15.06
243.03	15.11
243.246	15.52
243.463	14.95
243.679	15.8
243.896	16.3
244.112	15.4
244.329	15.07
244.545	15.4
244.762	15.9
244.978	14.75
245.194	14.11
245.411	12.3
245.627	13.54
245.843	14.08
246.06	12.08
246.276	12.67
246.492	12.78
246.709	12.02
246.925	9.64
247.141	9.58
247.357	9.5
247.574	9.92
247.79	10.1
248.006	10.74
248.222	10.21
248.439	9.78
248.655	9.47
248.871	8.85
249.087	8.21
249.303	10.26
249.519	9.05
249.736	9.55
249.952	7.61
250.168	7.06
250.384	5.3
250.6	5.82
250.816	7.87
251.032	6.89
251.248	8.93
251.464	10.79
251.68	8.21
251.896	8.92
252.112	7.38
252.328	7.03
252.544	7.14
252.76	6.24
252.976	5.06
253.192	3.86
253.408	3.45
253.624	1.4
253.84	-1.19
254.056	0.66
254.272	2.48
254.487	4.75
254.703	7.36
254.919	7.16
255.135	10.03
255.351	10.27
255.567	8.71
255.782	9.46
255.998	9.67
256.214	13.63
256.43	13.53
256.646	12.01
256.861	11.16
257.077	8.11
257.293	7.8
257.508	7.97
257.724	5.23
257.94	6.22
258.155	8.72
258.371	9.16
258.587	7.31
258.802	7.3
259.018	8.97
259.234	8.45
259.449	9.52
259.665	9.85
259.88	9.33
260.096	10.29
260.312	10.92
260.527	10.86
260.743	10.89
260.958	11.2
261.174	11.3
261.389	10.36
261.605	11.33
261.82	10.88
262.036	11.23
262.251	10.75
262.466	12.21
262.682	12.01
262.897	11.24
263.113	11.09
263.328	11.64
263.543	12.33
263.759	12.87
263.974	13.67
264.189	15.91
264.405	15.22
264.62	17.09
264.835	15.84
265.051	14.44
265.266	14.27
265.481	14.93
265.696	15.67
265.912	15.39
266.127	15.09
266.342	14.28
266.557	12.71
266.773	12.42
266.988	12.2
267.203	11.53
267.418	12.28
267.633	11.49
267.848	10.16
268.064	9.03
268.279	7.75
268.494	6.85
268.709	6.24
268.924	7.02
269.139	6.6
269.354	5.22
269.569	4.87
269.784	3.57
269.999	4.18
270.214	5.43
270.429	5.41
270.644	5.89
270.859	6.29
271.074	6.5
271.289	5
271.504	5.98
271.719	6.55
271.934	7.89
272.149	8.54
272.363	7.72
272.578	8.44
272.793	8.89
273.008	9.14
273.223	8.95
273.438	9.85
273.653	11.27
273.867	10.51
274.082	10.66
274.297	9.7
274.512	10.01
274.726	10.94
274.941	10.01
275.156	9.95
275.371	9.54
275.585	9.24
275.8	7.15
276.015	5.48
276.229	6.54
276.444	7.24
276.659	7.61
276.873	7.37
277.088	6.88
277.302	6.75
277.517	6.82
277.732	7.23
277.946	7.71
278.161	9.14
278.375	9.48
278.59	8.45
278.804	8.38
279.019	8.55
279.233	8.09
279.448	9.64
279.662	8.84
279.877	8.6
280.091	8.2
280.306	9.61
280.52	8.28
280.735	9.81
280.949	10.72
281.163	10.57
281.378	11.78
281.592	11.72
281.806	10.79
282.021	11.04
282.235	10.96
282.449	11.78
282.664	10.34
282.878	11.58
283.092	10.44
283.307	10.56
283.521	10.32
283.735	8.75
283.949	8.95
284.164	8.26
284.378	8.27
284.592	8.47
284.806	7.77
285.02	8.84
285.234	8.93
285.449	9.15
285.663	9.45
285.877	9.19
286.091	9.99
286.305	8.61
286.519	9.08
286.733	9.17
286.947	8.04
287.161	7.93
287.375	7.45
287.589	5.43
287.803	5.51
288.017	4.51
288.231	4.15
288.445	3.51
288.659	5
288.873	5.34
289.087	5.79
289.301	6.11
289.515	6.29
289.729	6.46
289.943	9.38
290.157	8.84
290.371	9.19
290.584	9.03
290.798	9.96
291.012	10.52
291.226	10.54
291.44	10.14
291.654	10.42
291.867	9.35
292.081	8.49
292.295	7.46
292.509	8.86
292.722	8.35
292.936	9.54
293.15	8.99
293.364	8.35
293.577	8.32
293.791	9.29
294.005	11.1
294.218	12.55
294.432	13.14
294.645	12.63
294.859	12.76
295.073	14.15
295.286	13.77
295.5	13.26
295.713	12.79
295.927	12.51
296.14	12.02
296.354	10.82
296.568	9.89
296.781	9.95
296.994	10.2
297.208	9.66
297.421	8.35
297.635	8.05
297.848	7.59
298.062	7.99
298.275	8.17
298.489	9.01
298.702	10.4
298.915	11.12
299.129	10.95
299.342	10.4
299.555	10.39
299.769	11.48
299.982	11.16
300.195	11.29
300.409	12.36
300.622	12.66
300.835	11.36
301.048	10
301.262	10.58
301.475	10.67
301.688	12.33
301.901	12.12
302.115	10.84
302.328	10.82
302.541	11.34
302.754	10.45
302.967	10.94
303.18	9.79
303.393	8.49
303.607	7.42
303.82	8.15
304.033	5.84
304.246	6.16
304.459	7.4
304.672	8.18
304.885	7.48
305.098	6.64
305.311	5.64
305.524	6.86
305.737	8.24
305.95	9.02
306.163	8.37
306.376	9.48
306.589	10.39
306.802	9.02
307.015	8.03
307.228	9.39
307.44	10.28
307.653	9.81
307.866	9.36
308.079	9.45
308.292	8.82
308.505	9.42
308.718	9.85
308.93	8.6
309.143	9.84
309.356	11.75
309.569	11.13
309.781	10.28
309.994	10.65
310.207	11.44
310.42	11.06
310.632	11.48
310.845	11.03
311.058	10.6
311.27	11.2
311.483	11.03
311.696	10.13
311.908	9.7
312.121	10.23
312.333	10.09
312.546	8.89
312.759	9.02
312.971	8.66
313.184	8.31
313.396	8.83
313.609	8.45
313.821	7.8
314.034	7.05
314.246	7.29
314.459	8.17
314.671	7.7
314.884	8.29
315.096	9.56
315.309	10.17
315.521	10.97
315.733	11.31
315.946	11.13
316.158	10.08
316.371	10.46
316.583	10.52
316.795	11.16
317.008	11.77
317.22	12.09
317.432	10.1
317.644	11.1
317.857	10.63
318.069	9.71
318.281	10.59
318.494	11.92
318.706	13
318.918	12.9
319.13	11.36
319.342	10.22
319.555	9.37
319.767	8.62
319.979	7.88
320.191	8.13
320.403	10.1
320.615	8.58
320.827	8.74
321.039	7.32
321.252	8.08
321.464	7.22
321.676	9.1
321.888	8.89
322.1	11.33
322.312	9.66
322.524	9.17
322.736	6.39
322.948	6.09
323.16	6.16
323.372	7.25
323.584	6.95
323.796	8.12
324.007	6.28
324.219	5.91
324.431	5.05
324.643	5.99
324.855	6.21
325.067	7.56
325.279	9.34
325.491	9.14
325.702	8.91
325.914	8.57
326.126	7.64
326.338	9.18
326.55	10.05
326.761	10.3
326.973	9.83
327.185	10.75
327.396	10.68
327.608	9.43
327.82	9.78
328.032	9.08
328.243	9.09
328.455	9.69
328.666	8.66
328.878	9.31
329.09	9.15
329.301	10
329.513	10.17
329.725	10.36
329.936	10.35
330.148	11.07
330.359	11.4
330.571	12.3
330.782	12.19
330.994	13.42
331.205	13.5
331.417	12.76
331.628	11.76
331.84	10.51
332.051	9.8
332.262	10.3
332.474	10.17
332.685	9.78
332.897	9.84
333.108	10.66
333.319	11.14
333.531	10.32
333.742	11.41
333.953	12.31
334.165	12.61
334.376	12.35
334.587	12.84
334.799	11.63
335.01	11.27
335.221	11.12
335.432	11.02
335.644	9.95
335.855	10.02
336.066	9.48
336.277	8.59
336.488	9.36
336.7	10.58
336.911	10.27
337.122	10.66
337.333	11.59
337.544	11.37
337.755	11.07
337.966	11.04
338.177	11.44
338.388	11.25
338.599	11.74
338.811	11.62
339.022	10.07
339.233	10.12
339.444	10.06
339.655	10.07
339.866	10.11
340.076	10.62
340.287	10.73
340.498	11.3
340.709	11.6
340.92	11.54
341.131	11.55
341.342	12.52
341.553	12.05
341.764	12.41
341.975	12.04
342.185	12.37
342.396	11.72
342.607	13.11
342.818	12.61
343.029	13.43
343.239	12.91
343.45	11.51
343.661	11.27
343.872	11.25
344.082	11.07
344.293	11.32
344.504	10.83
344.714	9.58
344.925	8.1
345.136	6.82
345.346	5.56
345.557	5.85
345.768	6.29
345.978	6.23
346.189	6.48
346.399	5.79
346.61	5.99
346.821	6.68
347.031	7.34
347.242	6.12
347.452	8.06
347.663	8.46
347.873	8.44
348.084	8.46
348.294	8.32
348.504	7.56
348.715	8.17
348.925	8.05
349.136	7.35
349.346	7.14
349.557	9.44
349.767	8.68
349.977	9.18
350.188	9.64
350.398	9.92
350.608	10.29
350.819	10.63
351.029	10.87
351.239	10.74
351.449	11.11
351.66	12.72
351.87	11.63
352.08	11.56
352.29	11.02
352.501	11.96
352.711	11.73
352.921	11.49
353.131	11.24
353.341	11.11
353.552	10.51
353.762	9.98
353.972	8.88
354.182	10.09
354.392	11.23
354.602	11.67
354.812	10.94
355.022	11.16
355.232	10.32
355.442	10.88
355.652	10.77
355.862	11.01
356.072	11.28
356.282	11.33
356.492	10.78
356.702	9.42
356.912	9.67
357.122	9.13
357.332	9.28
357.542	10.11
357.752	9.92
357.962	9.42
358.171	10.23
358.381	10.33
358.591	10.83
358.801	9.97
359.011	10.39
359.221	9.54
359.43	9.96
359.64	8.95
359.85	9.59
360.06	9.99
360.269	10.88
360.479	10.01
360.689	10.15
360.899	9.63
361.108	9.78
361.318	10.24
361.528	10.88
361.737	10.6
361.947	11.34
362.156	10.7
362.366	10.19
362.576	9.74
362.785	9.76
362.995	9.59
363.204	9.59
363.414	10.24
363.623	9.78
363.833	9.09
364.042	8.15
364.252	7.74
364.461	7.4
364.671	7.41
364.88	7.38
365.09	7.85
365.299	7.6
365.509	7.47
365.718	6.55
365.927	5.88
366.137	5.68
366.346	6.67
366.555	7.27
366.765	6.6
366.974	6.21
367.183	6.39
367.393	6.12
367.602	5.66
367.811	5.96
368.021	6.56
368.23	7.42
368.439	7.58
368.648	8.32
368.857	7.18
369.067	7.33
369.276	7.65
369.485	7.23
369.694	7.17
369.903	8.03
370.112	7.68
370.321	7.35
370.531	6.79
370.74	6.94
370.949	6.4
371.158	7.18
371.367	8.13
371.576	7.94
371.785	8.49
371.994	8.46
372.203	8.41
372.412	8.94
372.621	9.39
372.83	9.03
373.039	9.06
373.248	8.52
373.457	8.51
373.666	8.06
373.874	8.27
374.083	7.49
374.292	7.21
374.501	6.55
374.71	6.18
374.919	6.35
375.128	7.01
375.336	6.86
375.545	6.63
375.754	5.55
375.963	5.93
376.171	6.01
376.38	6.22
376.589	6.51
376.798	6.88
377.006	6.64
377.215	6.13
377.424	6.3
377.632	6.59
377.841	7.09
378.05	7.65
378.258	7.47
378.467	7.28
378.675	7.44
378.884	7.61
379.093	7.45
379.301	7.19
379.51	7.19
379.718	6.54
379.927	6.04
380.135	5.66
380.344	5.64
380.552	5.94
380.761	5.8
380.969	5.71
381.177	5.05
381.386	5.12
381.594	5.85
381.803	6.32
382.011	6.19
382.219	6.6
382.428	6.88
382.636	6.54
382.845	6.43
383.053	6.14
383.261	6.31
383.469	6.72
383.678	6.47
383.886	6.03
384.094	5.47
384.302	5.76
384.511	5.84
384.719	5.92
384.927	6.18
385.135	6.23
385.343	6.63
385.552	6.66
385.76	6.3
385.968	6.63
386.176	6.97
386.384	7.07
386.592	7.13
386.8	6.7
387.008	6.93
387.216	7.14
387.424	6.56
387.633	6.27
387.841	6.3
388.049	6.67
388.257	6.14
388.465	6.07
388.672	6.12
388.88	6.47
389.088	6.53
389.296	6.54
389.504	6.44
389.712	6.78
389.92	6.68
390.128	6.54
390.336	6.16
390.544	6.34
390.751	6.17
390.959	6.18
391.167	5.65
391.375	5.7
391.583	5.4
391.79	5.46
391.998	5.59
392.206	5.84
392.414	6.03
392.621	5.79
392.829	5.76
393.037	5.61
393.244	5.67
393.452	6.01
393.66	6.17
393.867	5.84
394.075	5.94
394.283	5.67
394.49	5.45
394.698	5.14
394.905	5.39
395.113	5.54
395.32	5.45
395.528	5.17
395.735	5.07
395.943	4.99
396.15	5.02
396.358	4.59
396.565	4.57
396.773	4.93
396.98	5.15
397.188	5.27
397.395	5.27
397.602	5.52
397.81	5.54
398.017	5.7
398.225	5.46
398.432	5.92
398.639	6.08
398.847	6.02
399.054	6
399.261	6.13
399.468	6.09
399.676	5.96
399.883	6.08
400.09	6.07
400.297	5.81
400.505	6.16
400.712	5.7
400.919	5.69
401.126	5.56
401.333	5.49
401.54	5.08
401.748	5.1
401.955	5.08
402.162	4.86
402.369	5.01
402.576	5.14
402.783	5
402.99	5.3
403.197	5.17
403.404	5.34
403.611	5.02
403.818	4.89
404.025	4.98
404.232	4.71
404.439	4.86
404.646	4.69
404.853	4.47
405.06	4.38
405.267	4.33
405.474	4.54
405.681	4.72
405.887	4.87
406.094	5.11
406.301	5.08
406.508	5.24
406.715	5
406.922	5.26
407.128	5.32
407.335	5.15
407.542	5.04
407.749	4.82
407.955	4.88
408.162	4.6
408.369	4.63
408.575	4.31
408.782	4.39
408.989	4.38
409.195	4.05
409.402	3.86
409.609	4.04
409.815	4.19
410.022	4.11
410.228	3.84
410.435	4.28
410.642	4.36
410.848	4.71
411.055	4.69
411.261	4.91
411.468	5
411.674	5.11
411.881	5.05
412.087	5.14
412.294	5.32
412.5	5.53
412.706	5.7
412.913	5.37
413.119	5.34
413.326	5.42
413.532	5.25
413.738	5.42
413.945	5.18
414.151	5.46
414.357	5.17
414.564	4.84
414.77	4.65
414.976	4.37
415.182	4.23
415.389	4.18
415.595	4.04
415.801	4.05
416.007	4.08
416.214	4.35
416.42	4.05
416.626	4.24
416.832	4.15
417.038	4.2
417.244	4.17
417.45	4.51
417.657	4.5
417.863	4.65
418.069	4.66
418.275	4.63
418.481	4.63
418.687	4.7
418.893	4.65
419.099	4.99
419.305	4.97
419.511	5.01
419.717	4.99
419.923	4.91
420.129	4.82
420.335	4.67
420.541	4.6
420.746	4.59
420.952	4.56
421.158	4.48
421.364	4.4
421.57	4.38
421.776	4.28
421.982	4.31
422.187	4.25
422.393	4.28
422.599	4.44
422.805	4.48
423.01	4.45
423.216	4.38
423.422	4.32
423.628	4.25
423.833	4.17
424.039	4.15
424.245	3.96
424.45	3.95
424.656	4.01
424.862	3.93
425.067	3.92
425.273	3.91
425.478	3.97
425.684	4
425.889	3.96
426.095	3.94
426.301	3.97
426.506	4.03
426.712	4.04
426.917	3.98
427.123	3.9
427.328	3.7
427.533	3.61
427.739	3.59
427.944	3.63
428.15	3.63
428.355	3.79
428.561	3.77
428.766	3.94
428.971	4.16
429.177	3.94
429.382	3.94
429.587	4.03
429.793	4.29
429.998	4.46
430.203	4.44
430.408	4.36
430.614	4.24
430.819	4.25
431.024	3.85
431.229	3.57
431.434	3.63
431.64	3.82
431.845	3.86
432.05	3.56
432.255	3.31
432.46	3.26
432.665	3.41
432.87	3.49
433.076	3.64
433.281	3.74
433.486	3.74
433.691	3.85
433.896	3.82
434.101	3.83
434.306	4.05
434.511	4.22
434.716	4.4
434.921	4.35
435.126	4.27
435.331	4.07
435.535	4.15
435.74	4.27
435.945	4.3
436.15	4.25
436.355	4.29
436.56	3.99
436.765	3.84
436.97	3.66
437.174	3.62
437.379	3.64
437.584	3.69
437.789	3.7
437.993	3.85
438.198	3.7
438.403	3.88
438.608	3.73
438.812	3.81
439.017	3.86
439.222	4.04
439.426	4.03
439.631	3.99
439.836	4.03
440.04	3.92
440.245	3.87
440.45	3.95
440.654	3.82
440.859	3.9
441.063	3.96
441.268	3.98
441.472	3.94
441.677	4.01
441.881	4.01
442.086	3.9
442.29	3.96
442.495	3.88
442.699	3.95
442.904	3.95
443.108	3.99
443.312	3.98
443.517	3.96
443.721	3.78
443.925	3.71
444.13	3.77
444.334	3.84
444.538	3.91
444.743	3.91
444.947	3.8
445.151	3.84
445.356	3.74
445.56	3.75
445.764	3.7
445.968	3.84
446.173	3.86
446.377	3.91
446.581	4.02
446.785	4
446.989	4
447.193	3.94
447.398	3.9
447.602	3.99
447.806	4.1
448.01	4.14
448.214	3.95
448.418	4.02
448.622	3.99
448.826	3.8
449.03	3.83
449.234	3.95
449.438	4.05
449.642	4.02
449.846	4.05
450.05	3.83
450.254	3.9
450.458	4.15
450.662	4.02
450.866	4.07
451.069	4.17
451.273	4.08
451.477	3.95
451.681	3.92
451.885	4.14
452.089	3.99
452.292	4.06
452.496	3.97
452.7	3.93
452.904	3.99
453.107	3.93
453.311	3.98
453.515	4.11
453.719	4.1
453.922	4.17
454.126	3.96
454.33	4.14
454.533	3.92
454.737	3.91
454.94	3.83
455.144	4.04
455.348	4.11
455.551	4.07
455.755	4.08
455.958	4.09
456.162	3.69
456.365	3.75
456.569	3.89
456.772	4.16
456.976	4.22
457.179	4.32
457.383	3.85
457.586	3.78
457.79	3.73
457.993	3.72
458.196	3.77
458.4	4.05
458.603	4.09
458.807	3.82
459.01	3.73
459.213	3.67
459.417	3.82
459.62	4.02
459.823	4.03
460.026	4.08
460.23	3.99
460.433	3.87
460.636	3.84
460.839	3.93
461.042	4.03
461.246	4.01
461.449	4
461.652	3.77
461.855	3.74
462.058	3.58
462.261	3.69
462.464	3.8
462.668	3.85
462.871	3.9
463.074	3.78
463.277	3.89
463.48	3.88
463.683	3.92
463.886	4.08
464.089	4.09
464.292	4.2
464.495	3.9
464.698	3.65
464.901	3.59
465.104	3.49
465.306	3.54
465.509	3.34
465.712	3.43
465.915	3.42
466.118	3.49
466.321	3.3
466.524	3.48
466.726	3.56
466.929	3.61
467.132	3.66
467.335	3.63
467.538	3.58
467.74	3.75
467.943	3.96
468.146	3.84
468.348	3.65
468.551	3.81
468.754	3.75
468.956	3.55
469.159	3.73
469.362	3.84
469.564	3.98
469.767	3.88
469.969	3.88
470.172	3.68
470.375	3.81
470.577	3.91
470.78	3.82
470.982	3.72
471.185	4.06
471.387	3.87
471.59	3.64
471.792	3.59
471.995	3.5
472.197	3.44
472.399	3.41
472.602	3.53
472.804	3.49
473.007	3.42
473.209	3.3
473.411	3.16
473.614	3.34
473.816	3.49
474.018	3.57
474.22	3.61
474.423	3.54
474.625	3.69
474.827	3.53
475.03	3.56
475.232	3.71
475.434	3.94
475.636	3.81
475.838	3.79
476.04	3.77
476.243	3.74
476.445	3.81
476.647	3.9
476.849	3.79
477.051	3.74
477.253	3.69
477.455	3.67
477.657	3.75
477.859	3.88
478.061	3.81
478.263	3.73
478.465	3.74
478.667	3.86
478.869	3.92
479.071	4
479.273	4.15
479.475	4.15
479.677	4.15
479.879	4.07
480.081	4.16
480.283	4.18
480.485	4.33
480.686	4.26
480.888	4.16
481.09	4.06
481.292	3.93
481.494	4.02
481.695	4.08
481.897	4.14
482.099	4.09
482.301	3.96
482.502	3.96
482.704	3.92
482.906	3.81
483.107	3.73
483.309	3.65
483.511	3.66
483.712	3.61
483.914	3.58
484.115	3.51
484.317	3.5
484.519	3.48
484.72	3.48
484.922	3.47
485.123	3.57
485.325	3.57
485.526	3.58
485.728	3.59
485.929	3.59
486.131	3.58
486.332	3.62
486.534	3.6
486.735	3.64
486.936	3.53
487.138	3.52
487.339	3.47
487.541	3.44
487.742	3.48
487.943	3.48
488.144	3.54
488.346	3.56
488.547	3.56
488.748	3.55
488.95	3.52
489.151	3.63
489.352	3.62
489.553	3.59
489.755	3.69
489.956	3.76
490.157	3.69
490.358	3.56
490.559	3.46
490.76	3.45
490.961	3.58
491.163	3.6
491.364	3.55
491.565	3.55
491.766	3.57
491.967	3.65
492.168	3.63
492.369	3.62
492.57	3.6
492.771	3.61
492.972	3.61
493.173	3.48
493.374	3.53
493.575	3.59
493.776	3.58
493.976	3.6
494.177	3.52
494.378	3.58
494.579	3.78
494.78	3.9
494.981	4.13
495.182	4.1
495.382	4.15
495.583	4.11
495.784	4.13
495.985	4.14
496.185	4.16
496.386	4.14
496.587	4
496.788	3.88
496.988	3.86
497.189	3.75
497.39	3.82
497.59	3.73
497.791	3.64
497.992	3.61
498.192	3.69
498.393	3.72
498.593	3.57
498.794	3.53
498.994	3.6
499.195	3.59
499.395	3.55
499.596	3.58
499.796	3.67
499.997	3.74
500.197	3.63
500.398	3.69
500.598	3.49
500.799	3.54
500.999	3.58
501.199	3.39
501.4	3.47
501.6	3.47
501.801	3.48
502.001	3.43
502.201	3.47
502.402	3.51
502.602	3.46
502.802	3.46
503.002	3.62
503.203	3.68
503.403	3.8
503.603	3.84
503.803	3.84
504.003	3.82
504.204	3.82
504.404	3.7
504.604	3.71
504.804	3.5
505.004	3.7
505.204	3.63
505.404	3.55
505.604	3.58
505.804	3.66
506.005	3.77
506.205	3.65
506.405	3.75
506.605	3.78
506.805	3.74
507.005	3.98
507.204	3.68
507.404	3.67
507.604	3.67
507.804	3.46
508.004	3.46
508.204	3.47
508.404	3.54
508.604	3.53
508.804	3.6
509.003	3.64
509.203	3.59
509.403	3.67
509.603	3.66
509.803	3.77
510.002	4
510.202	3.88
510.402	3.88
510.602	3.93
510.801	3.82
511.001	3.86
511.201	3.84
511.4	3.72
511.6	3.86
511.8	3.96
511.999	3.85
512.199	3.91
512.398	3.9
512.598	3.87
512.797	3.86
512.997	3.83
513.197	3.88
513.396	3.95
513.596	4.06
513.795	3.98
513.994	3.98
514.194	3.92
514.393	3.79
514.593	3.74
514.792	3.77
514.992	3.83
515.191	3.72
515.39	3.7
515.59	3.62
515.789	3.71
515.988	3.67
516.188	3.55
516.387	3.67
516.586	3.74
516.786	3.8
516.985	3.77
517.184	3.64
517.383	3.76
517.582	3.77
517.782	3.85
517.981	3.67
518.18	3.71
518.379	3.79
518.578	3.81
518.777	3.75
518.976	3.7
519.176	3.74
519.375	3.83
519.574	3.93
519.773	3.84
519.972	3.93
520.171	4.04
520.37	3.91
520.569	4
520.768	3.96
520.967	3.96
521.166	3.97
521.365	3.93
521.564	3.81
521.762	3.83
521.961	3.94
522.16	3.78
522.359	3.78
522.558	3.97
522.757	3.83
522.956	3.87
523.154	4.02
523.353	4.01
523.552	3.94
523.751	4.08
523.949	4.13
524.148	4.07
524.347	4.25
524.546	4.34
524.744	4.42
524.943	4.42
525.142	4.43
525.34	4.39
525.539	4.4
525.737	4.5
525.936	4.36
526.135	4.27
526.333	4.23
526.532	4
526.73	3.98
526.929	3.89
527.127	3.89
527.326	3.9
527.524	3.81
527.723	3.77
527.921	3.8
528.12	3.85
528.318	3.84
528.516	3.93
528.715	3.98
528.913	3.98
529.112	4.03
529.31	4.05
529.508	4.11
529.707	4.14
529.905	4.19
530.103	4.17
530.301	4.18
530.5	4.15
530.698	4.1
530.896	4.17
531.094	4.2
531.293	4.09
531.491	4.05
531.689	4.1
531.887	4.14
532.085	4.15
532.283	4.09
532.481	4.12
532.68	4.25
532.878	4.19
533.076	4.23
533.274	4.18
533.472	4.28
533.67	4.36
533.868	4.27
534.066	4.25
534.264	4.16
534.462	4.23
534.66	4.18
534.858	4.15
535.056	4.26
535.253	4.36
535.451	4.47
535.649	4.41
535.847	4.34
536.045	4.34
536.243	4.47
536.441	4.65
536.638	4.63
536.836	4.71
537.034	4.69
537.232	4.67
537.43	4.57
537.627	4.59
537.825	4.59
538.023	4.73
538.22	4.79
538.418	4.66
538.616	4.63
538.813	4.68
539.011	4.68
539.209	4.81
539.406	4.75
539.604	4.73
539.801	4.56
539.999	4.67
540.196	4.66
540.394	4.67
540.591	4.71
540.789	4.77
540.986	4.83
541.184	4.92
541.381	4.91
541.579	4.87
541.776	4.94
541.974	5.02
542.171	5.01
542.368	5.02
542.566	5.1
542.763	5.13
542.96	5.14
543.158	5.12
543.355	5.08
543.552	5.16
543.75	5.32
543.947	5.3
544.144	5.26
544.341	5.38
544.539	5.39
544.736	5.18
544.933	5.28
545.13	5.43
545.327	5.51
545.524	5.64
545.722	5.58
545.919	5.62
546.116	5.64
546.313	5.75
546.51	5.7
546.707	5.67
546.904	5.89
547.101	5.83
547.298	5.62
547.495	5.68
547.692	5.65
547.889	5.77
548.086	5.81
548.283	5.88
548.48	5.95
548.677	5.99
548.874	6.2
549.07	6.02
549.267	6.28
549.464	6.59
549.661	6.54
549.858	6.61
550.055	6.51
550.251	6.54
550.448	6.58
550.645	6.57
550.842	6.56
551.038	6.47
551.235	6.53
551.432	6.33
551.628	6.32
551.825	6.23
552.022	6.13
552.218	6.15
552.415	6.01
552.612	5.99
552.808	6.15
553.005	6.28
553.201	6.5
553.398	6.74
553.594	6.84
553.791	6.8
553.987	6.98
554.184	6.98
554.38	7.09
554.577	7.19
554.773	7.44
554.97	7.32
555.166	7.35
555.362	7.21
555.559	7.13
555.755	7.08
555.952	7.06
556.148	7.02
556.344	7.14
556.541	7.11
556.737	6.99
556.933	7.01
557.129	7.2
557.326	7.35
557.522	7.44
557.718	7.5
557.914	7.44
558.11	7.43
558.307	7.57
558.503	7.65
558.699	7.71
558.895	7.95
559.091	7.87
559.287	7.95
559.483	8.03
559.679	7.99
559.876	8.01
560.072	8.09
560.268	8.18
560.464	8.19
560.66	8.19
560.856	8.48
561.052	8.71
561.247	8.66
561.443	8.51
561.639	8.33
561.835	8.34
562.031	8.43
562.227	8.54
562.423	8.6
562.619	8.62
562.815	8.75
563.01	8.49
563.206	8.49
563.402	8.55
563.598	8.55
563.793	8.83
563.989	8.84
564.185	8.79
564.381	8.81
564.576	8.97
564.772	9.04
564.968	9.11
565.163	9.2
565.359	9.28
565.555	9.4
565.75	9.52
565.946	9.36
566.141	9.5
566.337	9.73
566.532	9.78
566.728	9.92
566.923	9.98
567.119	9.85
567.314	9.94
567.51	9.89
567.705	9.75
567.901	9.61
568.096	9.76
568.292	9.62
568.487	9.54
568.682	9.49
568.878	9.28
569.073	9.16
569.268	9.21
569.464	9.36
569.659	9.33
569.854	9.32
570.05	9.53
570.245	9.69
570.44	9.74
570.635	9.71
570.831	9.86
571.026	9.89
571.221	9.95
571.416	9.95
571.611	9.9
571.806	10.09
572.002	10.38
572.197	10.31
572.392	10.17
572.587	10.2
572.782	10.3
572.977	10.38
573.172	10.56
573.367	10.61
573.562	10.79
573.757	10.71
573.952	10.49
574.147	10.59
574.342	10.71
574.537	10.78
574.732	10.68
574.927	10.73
575.121	10.48
575.316	10.25
575.511	10.21
575.706	10.25
575.901	10.23
576.096	10.41
576.29	10.07
576.485	10.12
576.68	10.15
576.875	10.49
577.069	10.37
577.264	10.5
577.459	10.81
577.654	10.91
577.848	10.74
578.043	10.88
578.238	10.76
578.432	10.96
578.627	10.83
578.821	10.7
579.016	10.71
579.21	10.76
579.405	11.02
579.6	10.88
579.794	10.99
579.989	11.09
580.183	11.27
580.378	11.39
580.572	11.42
580.766	11.74
580.961	11.89
581.155	11.52
581.35	11.6
581.544	11.53
581.738	11.52
581.933	11.81
582.127	11.88
582.321	11.74
582.516	11.83
582.71	11.93
582.904	11.64
583.099	11.74
583.293	12.15
583.487	11.99
583.681	12.25
583.875	12.22
584.07	12.08
584.264	12.23
584.458	12.42
584.652	12.09
584.846	12.02
585.04	12.03
585.234	11.77
585.428	11.75
585.623	11.91
585.817	11.44
586.011	11.43
586.205	11.28
586.399	11.16
586.593	10.81
586.787	11.19
586.981	11.13
587.174	11.05
587.368	10.91
587.562	10.82
587.756	10.81
587.95	11.23
588.144	11.45
588.338	11.76
588.532	11.87
588.725	12.2
588.919	12.26
589.113	12.32
589.307	12.37
589.501	12.48
589.694	12.44
589.888	12.52
590.082	12.42
590.275	12.48
590.469	12.26
590.663	12.08
590.856	11.94
591.05	11.88
591.244	11.9
591.437	11.94
591.631	11.95
591.824	12.2
592.018	12.26
592.212	12.35
592.405	12.04
592.599	11.85
592.792	11.76
592.986	11.75
593.179	11.84
593.372	11.79
593.566	11.9
593.759	12.08
593.953	11.74
594.146	11.64
594.339	11.34
594.533	11.23
594.726	11.34
594.92	11.44
595.113	11.4
595.306	11.35
595.499	11.47
595.693	11.57
595.886	11.68
596.079	11.76
596.272	11.62
596.466	11.78
596.659	11.93
596.852	12.01
597.045	12.09
597.238	12.31
597.431	12.32
597.624	12.23
597.818	12.23
598.011	12.16
598.204	12.5
598.397	12.67
598.59	12.79
598.783	12.95
598.976	13.16
599.169	13.37
599.362	13.24
599.555	13.11
599.748	13.17
599.941	13.33
600.134	13.4
600.326	13.16
600.519	13.16
600.712	12.72
600.905	12.89
601.098	12.85
601.291	12.61
601.483	12.69
601.676	12.8
601.869	12.88
602.062	12.44
602.255	12.42
602.447	12.35
602.64	12.57
602.833	12.92
603.025	12.86
603.218	12.89
603.411	12.78
603.603	12.7
603.796	12.67
603.989	12.53
604.181	12.69
604.374	12.81
604.566	13.04
604.759	12.97
604.951	13.01
605.144	12.93
605.336	12.76
605.529	12.94
605.721	13.13
605.914	13.06
606.106	13.2
606.299	13.3
606.491	13.05
606.683	12.67
606.876	12.68
607.068	12.66
607.26	12.56
607.453	12.48
607.645	12.35
607.837	12.06
608.03	12.39
608.222	12.24
608.414	12.09
608.606	12.07
608.799	12.35
608.991	12.29
609.183	12.19
609.375	12.21
609.567	12.12
609.759	12.22
609.952	12.26
610.144	11.99
610.336	12.31
610.528	12.19
610.72	12.39
610.912	12.16
611.104	12.21
611.296	12.2
611.488	12.39
611.68	12.65
611.872	12.61
612.064	12.66
612.256	12.82
612.448	12.47
612.64	12.72
612.832	12.74
613.023	12.96
613.215	12.71
613.407	12.85
613.599	12.73
613.791	12.79
613.983	13.03
614.174	13.03
614.366	12.92
614.558	12.91
614.75	12.88
614.941	12.57
615.133	12.69
615.325	12.91
615.516	12.98
615.708	12.86
615.9	13.01
616.091	12.56
616.283	12.39
616.475	12.39
616.666	12.62
616.858	12.78
617.049	13.02
617.241	12.81
617.432	12.92
617.624	12.7
617.815	12.87
618.007	12.78
618.198	13.03
618.39	13.15
618.581	13.09
618.773	12.94
618.964	12.68
619.155	12.76
619.347	12.77
619.538	12.7
619.729	12.69
619.921	12.62
620.112	12.67
620.303	12.66
620.494	12.92
620.686	13.2
620.877	13.26
621.068	13.47
621.259	13.45
621.451	13.77
621.642	13.56
621.833	13.62
622.024	13.52
622.215	13.25
622.406	13.27
622.597	12.8
622.788	12.63
622.98	12.66
623.171	12.37
623.362	12.12
623.553	11.81
623.744	12.02
623.935	11.89
624.126	12.04
624.317	12.31
624.508	12.18
624.698	12.41
624.889	12.39
625.08	12.36
625.271	12.73
625.462	12.88
625.653	13.09
625.844	13.08
626.034	12.92
626.225	12.92
626.416	12.91
626.607	12.82
626.798	13.01
626.988	12.86
627.179	12.8
627.37	12.84
627.56	12.82
627.751	12.54
627.942	12.54
628.132	12.64
628.323	12.47
628.514	12.21
628.704	12.28
628.895	12.16
629.085	12.48
629.276	12.47
629.466	12.4
629.657	12.45
629.847	12.61
630.038	12.48
630.228	12.52
630.419	12.85
630.609	13.1
630.8	13.31
630.99	13.29
631.181	12.9
631.371	13.05
631.561	12.84
631.752	12.89
631.942	12.97
632.132	13.08
632.323	13.34
632.513	13.3
632.703	13.25
632.893	13.29
633.084	13.43
633.274	13.72
633.464	13.69
633.654	13.79
633.844	13.64
634.034	13.16
634.225	13.4
634.415	13.57
634.605	13.58
634.795	13.48
634.985	13.31
635.175	13
635.365	12.88
635.555	13.14
635.745	13.07
635.935	13.23
636.125	13.86
636.315	13.76
636.505	13.45
636.695	13.19
636.885	12.94
637.075	13.29
637.265	13.53
637.455	13.53
637.644	13.08
637.834	13.46
638.024	13.46
638.214	13.49
638.404	13.45
638.593	13.9
638.783	14
638.973	14.4
639.163	14.05
639.352	14.21
639.542	14.36
639.732	14.59
639.921	14.53
640.111	14.59
640.301	14.37
640.49	14.49
640.68	14.01
640.87	14.26
641.059	14.12
641.249	14.65
641.438	14.37
641.628	14.56
641.817	14.49
642.007	14.47
642.196	14.28
642.386	14.28
642.575	13.93
642.764	13.97
642.954	14.09
643.143	14.26
643.333	13.77
643.522	13.9
643.711	13.95
643.901	14.39
644.09	14.02
644.279	14.07
644.469	14.03
644.658	14.11
644.847	14.56
645.036	14.56
645.226	14.55
645.415	14.54
645.604	14.16
645.793	13.61
645.982	13.21
646.171	13.13
646.361	13.01
646.55	13.13
646.739	13.35
646.928	12.84
647.117	12.94
647.306	13.15
647.495	13.26
647.684	13.35
647.873	13.74
648.062	13.7
648.251	13.7
648.44	13.72
648.629	13.54
648.818	13.23
649.007	13.54
649.196	13.02
649.384	12.59
649.573	12.72
649.762	12.83
649.951	12.62
650.14	12.68
650.328	12.91
650.517	12.86
650.706	12.72
650.895	12.59
651.083	12.6
651.272	12.76
651.461	12.67
651.65	12.7
651.838	13.21
652.027	13.18
652.216	13.19
652.404	13.41
652.593	13.52
652.781	13.72
652.97	14.13
653.158	13.74
653.347	13.68
653.535	13.68
653.724	13.1
653.912	12.43
654.101	12.48
654.289	12.85
654.478	12.52
654.666	12.54
654.855	12.98
655.043	13.25
655.231	13.1
655.42	13.23
655.608	12.83
655.796	13.41
655.985	13.93
656.173	14.3
656.361	13.81
656.55	14.07
656.738	13.98
656.926	13.72
657.114	13.17
657.302	13.73
657.491	13.81
657.679	14.64
657.867	15.02
658.055	14.46
658.243	14.09
658.431	14.36
658.619	14.12
658.807	14.17
658.996	14.17
659.184	14.53
659.372	14.58
659.56	14.69
659.748	14.42
659.936	14.05
660.124	14.17
660.311	14.42
660.499	14.11
660.687	14.04
660.875	13.94
661.063	13.95
661.251	13.39
661.439	13.03
661.627	12.88
661.814	12.83
662.002	12.97
662.19	12.72
662.378	11.94
662.565	11.81
662.753	12.19
662.941	12.17
663.129	12.29
663.316	12.75
663.504	13.14
663.692	12.97
663.879	13.41
664.067	12.84
664.254	13.14
664.442	13.69
664.63	14.22
664.817	13.75
665.005	14.14
665.192	13.91
665.38	13.8
665.567	13.65
665.755	13.59
665.942	13.42
666.13	13.77
666.317	14.06
666.504	14.03
666.692	13.59
666.879	13.73
667.067	13.26
667.254	13.58
667.441	13.73
667.629	14.16
667.816	14.39
668.003	14.35
668.19	14.06
668.378	13.83
668.565	14.19
668.752	14.1
668.939	14.24
669.127	15
669.314	14.55
669.501	14.28
669.688	13.82
669.875	14.07
670.062	13.99
670.249	13.79
670.436	14.22
670.623	13.99
670.81	14.53
670.997	14.61
671.184	13.67
671.371	13.77
671.558	14.06
671.745	14.13
671.932	14.13
672.119	14.38
672.306	14.99
672.493	14.98
672.68	15
672.867	15.04
673.054	15.12
673.24	15.7
673.427	15.81
673.614	15.73
673.801	15.41
673.988	14.75
674.174	14.52
674.361	14.31
674.548	14.68
674.734	14.86
674.921	14.52
675.108	14.76
675.294	14.77
675.481	14.87
675.668	14.66
675.854	14.87
676.041	15.06
676.227	15.47
676.414	15.7
676.601	14.49
676.787	14.35
676.974	14.29
677.16	13.97
677.347	14.25
677.533	14.28
677.719	14.21
677.906	14.26
678.092	14.28
678.279	13.76
678.465	13.47
678.651	14.12
678.838	13.81
679.024	13.84
679.21	13.49
679.397	12.98
679.583	12.98
679.769	13.42
679.955	13.19
680.142	13.11
680.328	13.03
680.514	13.14
680.7	13.13
680.886	13.42
681.073	13.36
681.259	13.49
681.445	13.77
681.631	13.47
681.817	13.47
682.003	13.7
682.189	13.87
682.375	14.04
682.561	14
682.747	14.15
682.933	13.95
683.119	14.15
683.305	14.55
683.491	14.1
683.677	14.32
683.863	14.07
684.049	14.13
684.235	14.23
684.42	14.31
684.606	14.19
684.792	13.9
684.978	13.95
685.164	13.87
685.349	13.71
685.535	14.32
685.721	14.58
685.907	14.51
686.092	14.23
686.278	14.35
686.464	14.4
686.649	14.7
686.835	14.61
687.021	14.81
687.206	14.67
687.392	14.63
687.577	14.87
687.763	14.68
687.948	14.64
688.134	15.25
688.319	14.81
688.505	14.86
688.69	15.03
688.876	14.9
689.061	14.47
689.247	14.88
689.432	15.07
689.618	14.3
689.803	14.63
689.988	15.44
690.174	15.38
690.359	15.95
690.544	15.83
690.73	15.96
690.915	16.34
691.1	16.88
691.285	16.63
691.471	16.68
691.656	17.15
691.841	16.68
692.026	15.94
692.211	15.26
692.396	15.24
692.582	15.28
692.767	14.47
692.952	13.92
693.137	13.88
693.322	14.39
693.507	14.13
693.692	13.75
693.877	13.96
694.062	13.86
694.247	13.83
694.432	12.95
694.617	12.4
694.802	13.16
694.987	13.02
695.172	12.96
695.357	12.68
695.541	12.54
695.726	12.5
695.911	12.56
696.096	12.4
696.281	12.94
696.466	13.28
696.65	13.74
696.835	13.92
697.02	14.05
697.204	13.16
697.389	13.07
697.574	13.11
697.759	13.44
697.943	13.03
698.128	13.22
698.312	13.14
698.497	13.39
698.682	13.57
698.866	13.46
699.051	13.81
699.235	14.62
699.42	14.62
699.604	14.6
699.789	14.67
699.973	14.74
700.158	15.05
700.342	14.99
700.527	14.7
700.711	14.87
700.895	14.51
701.08	14.21
701.264	13.99
701.448	14.04
701.633	13.89
701.817	13.4
702.001	13.57
702.186	13.25
702.37	13.36
702.554	13.58
702.738	13.76
702.923	13.94
703.107	13.94
703.291	14.09
703.475	14.53
703.659	15
703.843	15.91
704.027	16.11
704.212	16.4
704.396	16.91
704.58	17.29
704.764	16.52
704.948	16.45
705.132	17.1
705.316	16.64
705.5	16.66
705.684	16.73
705.868	16.63
706.052	16.33
706.235	16.17
706.419	15.86
706.603	15.83
706.787	16.21
706.971	15.94
707.155	15.71
707.339	15.87
707.522	15.09
707.706	15.32
707.89	14.94
708.074	15.53
708.257	15.4
708.441	15.47
708.625	14.95
708.808	15.48
708.992	16.07
709.176	15.71
709.359	15.37
709.543	15.66
709.727	15.4
709.91	15.2
710.094	15.09
710.277	15.27
710.461	14.86
710.644	15.63
710.828	14.64
711.011	14.41
711.195	14.42
711.378	15.82
711.562	15.58
711.745	15.39
711.928	15.84
712.112	15.89
712.295	15.43
712.478	16.11
712.662	15.55
712.845	15.59
713.028	15.7
713.212	15.75
713.395	14.52
713.578	14.89
713.761	15.1
713.945	14.91
714.128	14.66
714.311	15.1
714.494	14.28
714.677	14.11
714.86	13.94
715.043	14.25
715.227	14.71
715.41	15.8
715.593	15.39
715.776	15.08
715.959	14.88
716.142	14.37
716.325	14.05
716.508	13.51
716.691	13.09
716.874	12.95
717.057	12.89
717.239	12.68
717.422	12.07
717.605	12.58
717.788	12.76
717.971	12.77
718.154	13.58
718.337	14.06
718.519	14.11
718.702	14.95
718.885	15.94
719.068	15.75
719.25	15.99
719.433	15.7
719.616	15.69
719.798	15.73
719.981	15.31
720.164	14.78
720.346	14.78
720.529	16.09
720.712	16.07
720.894	15.37
721.077	15.52
721.259	15.57
721.442	15.75
721.624	15.5
721.807	15.72
721.989	16.28
722.172	17.16
722.354	16.96
722.537	16.62
722.719	16.29
722.901	17.34
723.084	16.83
723.266	16.12
723.448	16.01
723.631	15.71
723.813	15.41
723.995	14.42
724.178	14.79
724.36	15.44
724.542	15.33
724.724	15.34
724.907	14.96
725.089	14.91
725.271	15.52
725.453	16.32
725.635	17.29
725.817	17.43
725.999	18.47
726.181	18.35
726.364	18.35
726.546	18.83
726.728	19.57
726.91	20.17
727.092	20.23
727.274	20.42
727.456	19.52
727.638	19.7
727.819	18.85
728.001	18.56
728.183	17.86
728.365	16.53
728.547	16.71
728.729	17.03
728.911	16.1
729.093	15.67
729.274	14.89
729.456	15.01
729.638	14.13
729.82	14.53
730.001	14.79
730.183	15.2
730.365	15.78
730.546	15.62
730.728	14.91
730.91	14.94
731.091	15.07
731.273	15.12
731.455	15.03
731.636	15.71
731.818	15.62
731.999	16.18
732.181	16.11
732.362	15.81
732.544	15.73
732.725	15.58
732.907	15.52
733.088	16.88
733.27	17.19
733.451	17.43
733.633	16.57
733.814	16.35
733.995	14.93
734.177	15.11
734.358	14.63
734.539	14.49
734.721	14.34
734.902	14.17
735.083	13.2
735.264	13.66
735.446	13.22
735.627	12.31
735.808	12.88
735.989	13.28
736.17	12.78
736.351	14
736.533	13.88
736.714	15.02
736.895	15.18
737.076	14.18
737.257	13.95
737.438	15.6
737.619	17.22
737.8	17.48
737.981	16.51
738.162	16.62
738.343	16.08
738.524	15.76
738.705	14.81
738.886	14.94
739.067	16.28
739.247	15.71
739.428	14.52
739.609	14.07
739.79	14.15
739.971	16.13
740.151	15.98
740.332	17.14
740.513	17.46
740.694	17.95
740.874	18.13
741.055	17.95
741.236	18.02
741.417	18.05
741.597	18.69
741.778	17.95
741.958	17.62
742.139	16.66
742.32	16.27
742.5	16.95
742.681	16.1
742.861	15.88
743.042	16.29
743.222	16.51
743.403	16.84
743.583	16.36
743.764	17.16
743.944	17.17
744.124	17.94
744.305	17.4
744.485	17.46
744.666	18.06
744.846	18.28
745.026	17.11
745.207	16.17
745.387	16.04
745.567	16.99
745.747	16.79
745.928	15.77
746.108	15.3
746.288	15.97
746.468	15.13
746.648	15.9
746.829	16.33
747.009	17.87
747.189	19.39
747.369	20.33
747.549	19.29
747.729	19.63
747.909	21.79
748.089	21.83
748.269	22.04
748.449	21.21
748.629	20.67
748.809	20.65
748.989	20.18
749.169	19.05
749.349	18.96
749.529	18.78
749.709	18.82
749.889	17.13
750.068	18.09
750.248	17.47
750.428	19.07
750.608	18.7
750.788	17.78
750.967	17.75
751.147	17.45
751.327	16.97
751.507	18.04
751.686	17.83
751.866	18.24
752.046	18.18
752.225	18
752.405	17.9
752.585	20.1
752.764	20.83
752.944	19.69
753.123	20.36
753.303	20.32
753.482	19.79
753.662	19.42
753.841	19.72
754.021	19.64
754.2	19.88
754.38	19.99
754.559	18.5
754.739	17.24
754.918	17.38
755.097	17.06
755.277	15.21
755.456	14.5
755.635	14.12
755.815	13.69
755.994	14.32
756.173	14.42
756.352	13.92
756.532	12.18
756.711	13.92
756.89	14.41
757.069	15.44
757.248	17.53
757.427	17.74
757.607	18.84
757.786	19.59
757.965	18.99
758.144	19.06
758.323	18.02
758.502	18.71
758.681	18.67
758.86	18.84
759.039	18.09
759.218	17.33
759.397	16.96
759.576	16.37
759.755	17.03
759.934	16.43
760.113	16.43
760.291	17.35
760.47	17.64
760.649	16.59
760.828	16.79
761.007	17.69
761.186	17.13
761.364	18.25
761.543	17.35
761.722	15.95
761.901	16.87
762.079	17.5
762.258	16.64
762.437	15.96
762.615	15.8
762.794	14.79
762.972	14.69
763.151	15.22
763.33	15.55
763.508	15.98
763.687	16.46
763.865	15.96
764.044	14.79
764.222	15.29
764.401	15.15
764.579	15.87
764.758	15.83
764.936	15.46
765.114	16.47
765.293	14.61
765.471	15.23
765.65	15.58
765.828	16.09
766.006	17.19
766.184	17.72
766.363	19.25
766.541	18.37
766.719	19.43
766.898	19.05
767.076	17.7
767.254	18.69
767.432	18.66
767.61	18.12
767.788	18.28
767.967	18.07
768.145	17.82
768.323	17.5
768.501	18.06
768.679	15.71
768.857	16.52
769.035	16.99
769.213	18.64
769.391	18.24
769.569	19.58
769.747	19.25
769.925	19.59
770.103	19.02
770.281	19.68
770.459	20.28
770.636	23.5
770.814	24.71
770.992	26.63
771.17	26.53
771.348	25.99
771.525	23.91
771.703	25.85
771.881	24.09
772.059	26.03
772.236	25.21
772.414	27.28
772.592	27.41
772.769	26.84
772.947	25.02
773.125	25.02
773.302	26.38
773.48	27.34
773.657	24.68
773.835	26.93
774.013	24.97
774.19	24.04
774.368	22.9
774.545	22.06
774.723	21.42
774.9	19.97
775.077	19.11
775.255	19.34
775.432	18.72
775.61	18.62
775.787	18.45
775.964	18.34
776.142	16.29
776.319	14.74
776.496	15.79
776.674	16.57
776.851	17.68
777.028	18.17
777.205	15.58
777.382	16.81
777.56	18.43
777.737	16.53
777.914	18.38
778.091	20.92
778.268	21.93
778.445	20.56
778.622	19.73
778.8	20.87
778.977	19.82
779.154	21.81
779.331	20.79
779.508	20.92
779.685	23.03
779.862	21.43
780.038	21.81
780.215	18.85
780.392	16.45
780.569	17.45
780.746	15.25
780.923	14.7
781.1	16.18
781.277	17.52
781.453	16.76
781.63	15.47
781.807	15.12
781.984	13.31
782.16	13.87
782.337	18.33
782.514	15.17
782.691	16.35
782.867	17.14
783.044	16.61
783.221	15.52
783.397	17.28
783.574	19.93
783.75	20.56
783.927	24.02
784.103	22.3
784.28	23.3
784.456	26.33
784.633	27.57
784.809	26.62
784.986	24.59
785.162	25.01
785.339	22.98
785.515	20.45
785.692	22.02
785.868	20.11
786.044	25.27
786.221	22.12
786.397	21.08
786.573	18.64
786.749	17.73
786.926	19.08
787.102	18.83
787.278	18.11
787.454	17.33
787.631	17.09
787.807	17.59
787.983	15.71
788.159	17.99
788.335	17.53
788.511	17.35
788.687	20.63
788.863	18.8
789.039	17.93
789.216	21.4
789.392	23.2
789.568	23.19
789.744	23.4
789.919	24.6
790.095	23.97
790.271	25.22
790.447	25.83
790.623	21.84
790.799	23.83
790.975	24.15
791.151	21.46
791.327	19.17
791.502	18.5
791.678	18.44
791.854	18.22
792.03	17.13
792.205	16.22
792.381	15.53
792.557	17.15
792.733	18.47
792.908	16.58
793.084	13.82
793.259	15.74
793.435	13.31
793.611	14.36
793.786	12.97
793.962	13.03
794.137	12.17
794.313	14.32
794.488	14.71
794.664	13.94
794.839	15.35
795.015	17.36
795.19	15.88
795.366	19.77
795.541	18.16
795.716	19.33
795.892	18.17
796.067	16.68
796.242	13.83
796.418	14.98
796.593	15.57
796.768	16.27
796.944	15.59
797.119	18.83
797.294	16.66
797.469	17.33
797.644	16.16
797.82	19.2
797.995	21.91
798.17	26.9
798.345	28.83
798.52	26.28
798.695	26.23
798.87	26.27
799.045	22.64
799.22	22.89
799.395	21.69
799.57	21.33
799.745	20.74
799.92	21.67
800.095	18.18
800.27	14.32
800.445	16.17
800.62	20.71
800.795	22.27
800.97	21.8
801.145	20.11
801.319	21.32
801.494	22.1
801.669	24.69
801.844	23.24
802.018	23.44
802.193	24.05
802.368	22.16
802.543	18.98
802.717	19.99
802.892	20.98
803.067	21.6
803.241	20.86
803.416	19.69
803.59	13.73
803.765	11.32
803.94	10.53
804.114	10.77
804.289	13.72
804.463	10.96
804.638	9.15
804.812	10.21
804.986	12.94
805.161	15.61
805.335	18.21
805.51	20.52
805.684	23.64
805.858	25.05
806.033	26.39
806.207	26.71
806.381	26.38
806.556	24.99
806.73	24.56
806.904	24.49
807.078	25.85
807.253	28.91
807.427	31.42
807.601	32.73
807.775	31.23
807.949	33.75
808.123	29.95
808.298	34.29
808.472	36.52
808.646	37.06
808.82	35.71
808.994	32.04
809.168	31.21
809.342	31.53
809.516	26.49
809.69	26.28
809.864	28.74
810.038	28.08
810.212	23.83
810.385	27.08
810.559	27
810.733	26.5
810.907	28.53
811.081	22.93
811.255	21.84
811.428	25.44
811.602	26.93
811.776	21.09
811.95	25.5
812.123	25.63
812.297	21.88
812.471	20.96
812.644	17.71
812.818	16.58
812.992	19.39
813.165	20.29
813.339	18.33
813.512	16.45
813.686	17.03
813.86	12.9
814.033	13.01
814.207	14.59
814.38	17.3
814.554	18.23
814.727	20.72
814.9	19.73
815.074	10.96
815.247	11.99
815.421	9.63
815.594	9.04
815.767	14.58
815.941	18.93
816.114	19.85
816.287	21.95
816.46	25.61
816.634	20.94
816.807	15.21
816.98	19.36
817.153	21.89
817.327	20.25
817.5	22.35
817.673	16.68
817.846	16.88
818.019	18.15
818.192	13.31
818.365	6.77
818.538	9.07
818.711	16.52
818.884	18.02
819.057	17.23
819.23	16.39
819.403	14.91
819.576	15.51
819.749	12.36
819.922	7.82
820.095	10.06
820.268	13.93
820.441	14.91
820.614	12.81
820.786	13.49
820.959	12.64
821.132	14.92
821.305	15.31
821.477	16.76
821.65	16.71
821.823	16.92
821.996	16.72
822.168	16.44
822.341	16.74
822.514	17.04
822.686	16.56
822.859	17.11
823.031	17.5
823.204	17.53
823.376	17.34
823.549	17.41
823.722	17.96
823.894	18.72
824.067	19.18
824.239	18.55
824.411	18.4
824.584	18.54
824.756	17.99
824.929	17.59
825.101	17.11
825.273	17.58
825.446	16.97
825.618	16.11
825.79	14.69
825.963	15.05
826.135	15.52
826.307	16.17
826.479	17.26
826.652	17.6
826.824	18.15
826.996	18.42
827.168	18.45
827.34	19.26
827.512	20.58
827.684	19.74
827.856	19.97
828.029	19.91
828.201	20.8
828.373	19.95
828.545	19.66
828.717	19.41
828.889	21.81
829.061	21.9
829.232	22.58
829.404	23.04
829.576	24.99
829.748	25.59
829.92	26.16
830.092	24.08
830.264	25.61
830.436	25.8
830.607	25.32
830.779	23.8
830.951	22.52
831.123	20.56
831.294	19.81
831.466	20.25
831.638	21.43
831.809	22.08
831.981	25.29
832.153	24.79
832.324	23.85
832.496	24.98
832.667	21.39
832.839	22.68
833.011	24.7
833.182	22.96
833.354	20.53
833.525	19.24
833.697	19.56
833.868	16.93
834.039	14.68
834.211	15.41
834.382	16.72
834.554	17.04
834.725	16.03
834.896	13.98
835.068	12.97
835.239	12.07
835.41	11.59
835.581	13.18
835.753	15.05
835.924	12.52
836.095	12.01
836.266	11.25
836.438	11.52
836.609	12.5
836.78	13.77
836.951	14.39
837.122	19.24
837.293	17.4
837.464	15.3
837.635	14.93
837.806	19.94
837.977	25.54
838.148	26.85
838.319	28.71
838.49	31.18
838.661	34.85
838.832	38.11
839.003	38.5
839.174	42.1
839.345	41.61
839.516	38.84
839.687	37.25
839.857	40.03
840.028	29.26
840.199	29.94
840.37	30.31
840.54	28.4
840.711	21.95
840.882	22.29
841.053	16.22
841.223	14.38
841.394	15
841.564	19.79
841.735	19.7
841.906	32.67
842.076	32.52
842.247	35.13
842.417	30.68
842.588	30.99
842.758	30.14
842.929	32.51
843.099	37.35
843.27	45.22
843.44	47.12
843.611	37.29
843.781	30.45
843.951	31.22
844.122	25.85
844.292	34.46
844.462	42.34
844.633	34.09
844.803	43.31
844.973	47.35
845.144	43.5
845.314	48.59
845.484	50.02
845.654	46.79
845.824	37.03
845.995	36.43
846.165	23.66
846.335	17.11
846.505	33.94
846.675	20.49
846.845	10.33
847.015	11.78
847.185	8.95
847.355	14.76
847.525	20.66
847.695	31.83
847.865	30.65
848.035	29.43
848.205	31.84
848.375	26.3
848.545	24.87
848.715	25.47
848.884	24.98
849.054	23.22
849.224	32.14
849.394	25.24
849.564	32.64
849.733	29.36
849.903	44.57
850.073	40.78
850.243	50.26
850.412	51.82
850.582	47.49
850.752	50.82
850.921	55.78
851.091	52.17
851.26	54.32
851.43	42.01
851.599	32.33
851.769	21.16
851.939	26.02
852.108	16.72
852.278	10.65
852.447	12.41
852.616	-0.67
852.786	-21.77
852.955	-22.73
853.125	-22.98
853.294	-8.04
853.463	1.19
853.633	1.03
853.802	2.19
853.971	13.54
854.141	14.8
854.31	20.35
854.479	25.21
854.648	26.54
854.818	32.53
854.987	43.93
855.156	49.09
855.325	49.32
855.494	70.66
855.663	67.05
855.832	58.63
856.001	56.09
856.171	53.44
856.34	60.17
856.509	69.49
856.678	46.7
856.847	52.5
857.016	53.28
857.185	58.12
857.353	42.17
857.522	38
857.691	35.13
857.86	50.19
858.029	52.83
858.198	51.27
858.367	48.31
858.535	71.79
858.704	62.84
858.873	56.6
859.042	58.46
859.21	65.33
859.379	66.81
859.548	69.56
859.717	46.98
859.885	52.65
860.054	48.97
860.222	41.6
860.391	43.8
860.56	33.86
860.728	31.73
860.897	21.37
861.065	24.25
861.234	34.73
861.402	39.03
861.571	51.83
861.739	50.67
861.908	46.19
862.076	48.83
862.244	53.43
862.413	63.79
862.581	59.96
862.749	68.11
862.918	66.05
863.086	59.82
863.254	63.87
863.423	54.39
863.591	49.09
863.759	53.06
863.927	57.43
864.096	42.26
864.264	36.26
864.432	53.29
864.6	42.08
864.768	30.86
864.936	33.84
865.104	36.23
865.272	31.18
865.44	27.83
865.608	26.16
865.776	5.42
865.944	21.99
866.112	31.29
866.28	34.06
866.448	35.62
866.616	43.64
866.784	46.67
866.952	30.25
867.12	37.94
867.288	37.89
867.455	48.75
867.623	49.01
867.791	46.92
867.959	45.04
868.127	38.81
868.294	51.46
868.462	42.5
868.63	48.1
868.797	54.73
868.965	62.21
869.133	56.11
869.3	45.69
869.468	49.99
869.636	51.08
869.803	41.24
869.971	41.24
870.138	35.12
870.306	44.71
870.473	42.32
870.641	62.28
870.808	62.36
870.975	67.39
871.143	72.41
871.31	64.8
871.478	68.85
871.645	86.88
871.812	92.58
871.98	66.67
872.147	66.6
872.314	58.44
872.482	42.22
872.649	32.87
872.816	35.41
872.983	44.9
873.15	48.19
873.318	42.85
873.485	39.16
873.652	35.06
873.819	51.85
873.986	51.24
874.153	50.76
874.32	49.72
874.487	65.84
874.654	71.55
874.821	48.93
874.988	57.58
875.155	44.79
875.322	45.87
875.489	46.61
875.656	37.66
875.823	33.77
875.99	44.33
876.157	56.05
876.324	55.4
876.49	53.02
876.657	58.92
876.824	49.51
876.991	62.49
877.157	63.71
877.324	62.77
877.491	63.34
877.658	66.26
877.824	50.65
877.991	39.47
878.157	29.19
878.324	31.65
878.491	30.93
878.657	49.29
878.824	52.47
878.99	44.94
879.157	33.04
879.323	25.01
879.49	31.67
879.656	46.94
879.823	55.42
879.989	63.27
880.156	72.81
880.322	79.11
880.488	69.76
880.655	49.67
880.821	51.22
880.987	57.61
881.154	66.84
881.32	63.53
881.486	52.99
881.652	42.31
881.819	44.57
881.985	38.85
882.151	33.2
882.317	26.28
882.483	27.38
882.649	27.35
882.816	26.04
882.982	22.68
883.148	20.53
883.314	19.53
883.48	18.43
883.646	16.38
883.812	16.89
883.978	17.81
884.144	18.52
884.31	19.04
884.476	16.41
884.642	15.92
884.807	13.13
884.973	12.1
885.139	13.56
885.305	15.88
885.471	12.91
885.637	13.13
885.802	14.21
885.968	12.8
886.134	12.83
886.3	14.32
886.465	18.8
886.631	21.95
886.797	17.29
886.962	19.04
887.128	20.72
887.293	27.9
887.459	25.15
887.625	19.31
887.79	26.27
887.956	28.51
888.121	31
888.287	22.16
888.452	23.59
888.618	36.61
888.783	33.92
