Data from 2938115_Reflection_1.txt Node
Date: Sat Jul 11 18:13:23 EDT 2015
User: robert
Spectrometer: USB4E03001
Autoset integration time: false
Trigger mode: 4
Integration Time (sec): 1.000000E-1
Scans to average: 10
Electric dark correction enabled: true
Nonlinearity correction enabled: false
Boxcar width: 5
Stray light correction enabled: false
XAxis mode: Wavelengths
Stop averaging: false
Number of Pixels in Spectrum: 3648
>>>>>Begin Spectral Data<<<<<
177.566	74.78
177.785	183.51
178.005	-380.98
178.225	-192.22
178.445	-204.13
178.665	61.29
178.885	21.09
179.105	-113.28
179.324	-29.72
179.544	-26.79
179.764	-377.66
179.984	566.94
180.204	-169.11
180.423	11.26
180.643	-7.87
180.863	-25.73
181.083	14.35
181.302	0.34
181.522	-5.26
181.742	-46.54
181.961	-168.8
182.181	326.87
182.401	298.96
182.621	141.03
182.84	125.59
183.06	110.42
183.279	95.38
183.499	145.72
183.719	111.53
183.938	188.77
184.158	276.69
184.377	171.76
184.597	233.8
184.816	107.64
185.036	170.63
185.256	536.87
185.475	248.48
185.695	219.25
185.914	201.81
186.134	500.53
186.353	413.48
186.572	570.89
186.792	-338.65
187.011	-151.36
187.231	-154.75
187.45	-85.48
187.67	-44.41
187.889	-21.9
188.108	2.91
188.328	46.36
188.547	181.02
188.766	145.72
188.986	147.2
189.205	114.77
189.424	67.6
189.644	5.83
189.863	-12.35
190.082	-47.75
190.302	-32.35
190.521	-86.59
190.74	10.29
190.959	692
191.178	18233.33
191.398	1978.6
191.617	-163.55
191.836	-215.3
192.055	-210.19
192.274	-504.23
192.494	356.05
192.713	440.37
192.932	467.78
193.151	10414.89
193.37	-83080
193.589	146.98
193.808	71.39
194.027	47.18
194.246	76.74
194.465	58.97
194.685	29.64
194.904	-55.91
195.123	-53.11
195.342	24.62
195.561	59.26
195.78	43.62
195.999	44.66
196.218	24.97
196.436	-3.72
196.655	-39.75
196.874	-16.21
197.093	21.64
197.312	33.23
197.531	21.85
197.75	-13.4
197.969	-64.78
198.188	-59.72
198.407	37.04
198.625	56.7
198.844	120.5
199.063	162.64
199.282	-781.65
199.501	220.65
199.719	4158.9
199.938	-781.33
200.157	-297.73
200.376	223.95
200.594	422.89
200.813	732.58
201.032	166.98
201.251	209.23
201.469	190.98
201.688	140.29
201.907	135.98
202.125	94.46
202.344	112.29
202.563	151.39
202.781	189.74
203	203.71
203.218	174.91
203.437	137.23
203.656	216.53
203.874	230.33
204.093	180.34
204.311	107.76
204.53	135.71
204.748	156.37
204.967	113.1
205.185	130.04
205.404	70.74
205.622	111.76
205.841	297.95
206.059	163.41
206.278	137.61
206.496	206.1
206.715	230.3
206.933	400.05
207.151	-373.37
207.37	-307.76
207.588	2.23
207.806	18.2
208.025	121.83
208.243	-58.92
208.461	-42.76
208.68	190.57
208.898	-22.58
209.116	89.68
209.335	136.84
209.553	-13.15
209.771	50.41
209.989	144.28
210.208	466.67
210.426	-1310
210.644	-50.39
210.862	-67.82
211.081	51.03
211.299	6.43
211.517	-44.53
211.735	-130.43
211.953	-1
212.171	5.27
212.39	0.12
212.608	-2.61
212.826	7.29
213.044	-15.08
213.262	20.52
213.48	-2.86
213.698	9.12
213.916	58.75
214.134	19.38
214.352	-104.99
214.57	-239.35
214.788	-441.68
215.006	-2785.32
215.224	-25172.22
215.442	-1133.99
215.66	-4704.92
215.878	-228.43
216.096	-138.24
216.314	1782.63
216.532	1039.29
216.75	181.09
216.968	712.45
217.185	510.57
217.403	197.16
217.621	113.09
217.839	73.69
218.057	108.39
218.275	-228.95
218.492	128.41
218.71	4.91
218.928	58
219.146	100.2
219.363	126.66
219.581	122.86
219.799	117.9
220.017	101.29
220.234	86.96
220.452	101.86
220.67	98.2
220.887	77.48
221.105	93.71
221.323	80.8
221.54	89.65
221.758	74.47
221.976	69.43
222.193	67.82
222.411	55.64
222.629	59.05
222.846	32.77
223.064	26.99
223.281	46.47
223.499	38.37
223.716	50.57
223.934	28.55
224.151	35.85
224.369	51
224.586	47.25
224.804	55.06
225.021	25.85
225.239	44.48
225.456	27.57
225.674	18.74
225.891	34.59
226.108	45.7
226.326	49.11
226.543	35.9
226.76	15.63
226.978	21.96
227.195	21.38
227.413	41.83
227.63	30.53
227.847	31.38
228.064	32.44
228.282	25.59
228.499	17.33
228.716	20.45
228.934	25.22
229.151	26.51
229.368	28.66
229.585	27.51
229.802	25.05
230.02	27.68
230.237	28.43
230.454	27.4
230.671	29.55
230.888	29.29
231.105	26.72
231.323	24.69
231.54	21.2
231.757	16
231.974	17.18
232.191	16.27
232.408	9.97
232.625	9.01
232.842	12.45
233.059	12.14
233.276	22.65
233.493	25.01
233.71	28.16
233.927	32.47
234.144	32.12
234.361	29.22
234.578	24.09
234.795	30.37
235.012	31.32
235.229	28.6
235.446	28.04
235.663	20.48
235.879	28.25
236.096	27.57
236.313	26.87
236.53	22.32
236.747	18.31
236.964	23.44
237.181	16.77
237.397	15.65
237.614	4.23
237.831	6.11
238.048	11.65
238.264	-4.15
238.481	-6.38
238.698	-7.74
238.915	-1.38
239.131	5.85
239.348	4.5
239.565	6.86
239.781	8.89
239.998	9.41
240.215	8.92
240.431	5.71
240.648	6.18
240.865	5.71
241.081	6.63
241.298	6.12
241.514	9.06
241.731	10.55
241.947	12.38
242.164	11.58
242.38	15.05
242.597	14.35
242.814	14.42
243.03	16.07
243.246	16.28
243.463	15.1
243.679	14.51
243.896	13.18
244.112	13.64
244.329	12.6
244.545	12.86
244.762	11.29
244.978	12.5
245.194	11.96
245.411	11.42
245.627	12.32
245.843	13.73
246.06	14.36
246.276	13.94
246.492	14.52
246.709	13.43
246.925	14.19
247.141	14.01
247.357	13.84
247.574	14.44
247.79	13.35
248.006	12.9
248.222	13.44
248.439	14.12
248.655	13.5
248.871	11.83
249.087	12.59
249.303	10.62
249.519	9.82
249.736	8.43
249.952	7.61
250.168	7.38
250.384	8.28
250.6	6.18
250.816	6.05
251.032	8.55
251.248	8.77
251.464	11.7
251.68	14.09
251.896	15.79
252.112	17.73
252.328	19.59
252.544	20.51
252.76	18.91
252.976	20.27
253.192	21.87
253.408	20.06
253.624	22.15
253.84	20.06
254.056	19.69
254.272	24.54
254.487	24.69
254.703	22.79
254.919	23.1
255.135	23.89
255.351	20.92
255.567	23.03
255.782	24.05
255.998	23.74
256.214	24.51
256.43	22.79
256.646	18.81
256.861	15.15
257.077	16.01
257.293	14.13
257.508	14.18
257.724	13.43
257.94	11.88
258.155	12.29
258.371	10.63
258.587	10.99
258.802	10.83
259.018	11.38
259.234	12.67
259.449	12.61
259.665	13.63
259.88	12.65
260.096	13.27
260.312	12.21
260.527	12.39
260.743	12.95
260.958	12.61
261.174	13.01
261.389	11.59
261.605	10.69
261.82	9.1
262.036	8.92
262.251	9.01
262.466	7.72
262.682	6.73
262.897	5.43
263.113	4.49
263.328	5.47
263.543	6.95
263.759	7.92
263.974	11.45
264.189	12.35
264.405	8.9
264.62	12.96
264.835	13.26
265.051	16.1
265.266	16.14
265.481	16.16
265.696	13.95
265.912	12.35
266.127	11.31
266.342	7.88
266.557	10.18
266.773	12.37
266.988	9.63
267.203	9.7
267.418	7.95
267.633	8.09
267.848	8.14
268.064	7.63
268.279	6.64
268.494	7.26
268.709	8.04
268.924	7.55
269.139	8.17
269.354	8.38
269.569	7.96
269.784	10.02
269.999	10.47
270.214	11.31
270.429	10.65
270.644	13.08
270.859	11.51
271.074	10.96
271.289	10.41
271.504	9.79
271.719	11.52
271.934	12.26
272.149	9.95
272.363	10.02
272.578	10.1
272.793	11.61
273.008	10.34
273.223	13.08
273.438	13.87
273.653	13.17
273.867	14.07
274.082	12.72
274.297	12.48
274.512	13.89
274.726	13.62
274.941	12.96
275.156	10.75
275.371	11.83
275.585	7.32
275.8	6.34
276.015	7.96
276.229	4.83
276.444	5.46
276.659	3.9
276.873	4.16
277.088	4.64
277.302	7.69
277.517	10.98
277.732	8.73
277.946	13.32
278.161	13.83
278.375	13.06
278.59	17.02
278.804	16.66
279.019	17.18
279.233	16.3
279.448	15.97
279.662	13.99
279.877	12.07
280.091	14.85
280.306	13.09
280.52	13.21
280.735	12.73
280.949	12.12
281.163	12.23
281.378	13.97
281.592	14.81
281.806	14.89
282.021	14.49
282.235	16.05
282.449	16.77
282.664	16.53
282.878	17.02
283.092	18.47
283.307	17.8
283.521	19.21
283.735	18.47
283.949	19.75
284.164	18.07
284.378	18.06
284.592	15.99
284.806	12.64
285.02	12.8
285.234	12.84
285.449	11.06
285.663	11.49
285.877	10.8
286.091	11.36
286.305	9.7
286.519	11.99
286.733	10.52
286.947	11.43
287.161	13.1
287.375	12.96
287.589	11.67
287.803	12.83
288.017	11.88
288.231	9.77
288.445	8.65
288.659	8.48
288.873	7.77
289.087	8.78
289.301	9.49
289.515	9.47
289.729	10.61
289.943	10.98
290.157	9.92
290.371	10.6
290.584	11.21
290.798	12.08
291.012	12.72
291.226	13.91
291.44	13.61
291.654	13.76
291.867	12.81
292.081	13.57
292.295	13.23
292.509	13.7
292.722	13.63
292.936	14.17
293.15	12.89
293.364	14.31
293.577	13.39
293.791	15.15
294.005	14.58
294.218	16.32
294.432	14.5
294.645	16.36
294.859	17.94
295.073	18.27
295.286	18.01
295.5	17.54
295.713	15.57
295.927	15.66
296.14	15.72
296.354	15.62
296.568	15.22
296.781	14.96
296.994	14.99
297.208	13.26
297.421	13.38
297.635	11.99
297.848	12.41
298.062	12.84
298.275	12.15
298.489	11.12
298.702	10.5
298.915	10.77
299.129	10.94
299.342	9.92
299.555	10.84
299.769	9.99
299.982	11.54
300.195	11.38
300.409	11.29
300.622	13.11
300.835	13.44
301.048	15
301.262	14.18
301.475	14.84
301.688	15.1
301.901	15.22
302.115	14.01
302.328	13.86
302.541	15.15
302.754	13.86
302.967	13.78
303.18	15.52
303.393	14.29
303.607	14.87
303.82	16.36
304.033	17.84
304.246	19.24
304.459	20.4
304.672	21.33
304.885	18.89
305.098	19.54
305.311	18.17
305.524	15.98
305.737	16.35
305.95	16.45
306.163	13.86
306.376	12.42
306.589	11.02
306.802	12.98
307.015	13.38
307.228	16.74
307.44	17.11
307.653	18.08
307.866	18.03
308.079	17.59
308.292	17.72
308.505	18.1
308.718	17.48
308.93	18.17
309.143	16.92
309.356	18.08
309.569	16.71
309.781	16.47
309.994	14.92
310.207	14.89
310.42	15.31
310.632	15.96
310.845	16.07
311.058	17.06
311.27	14.77
311.483	15.63
311.696	15.08
311.908	16.64
312.121	18
312.333	20.67
312.546	22.51
312.759	23.71
312.971	23.11
313.184	23.43
313.396	22.92
313.609	23.83
313.821	20.57
314.034	19.89
314.246	16.44
314.459	14.43
314.671	13.21
314.884	11.72
315.096	12.15
315.309	12.7
315.521	14.53
315.733	14.34
315.946	15.7
316.158	17.98
316.371	19.08
316.583	21.25
316.795	21.82
317.008	18.9
317.22	19.3
317.432	18.11
317.644	17.57
317.857	14.8
318.069	16.68
318.281	17.05
318.494	15.86
318.706	13.97
318.918	13.23
319.13	13.81
319.342	16.31
319.555	15.43
319.767	15.43
319.979	15.05
320.191	16.48
320.403	14.47
320.615	15.4
320.827	17.79
321.039	17.65
321.252	17.1
321.464	16.5
321.676	13.67
321.888	12.67
322.1	10.21
322.312	9.72
322.524	8.88
322.736	11.63
322.948	9.76
323.16	10.5
323.372	12.91
323.584	14.38
323.796	13.02
324.007	14.62
324.219	16.86
324.431	19.01
324.643	20.07
324.855	20.17
325.067	18.21
325.279	18.97
325.491	19.64
325.702	18.82
325.914	19.5
326.126	21.39
326.338	20.58
326.55	19.79
326.761	20.29
326.973	20.8
327.185	21.92
327.396	22.92
327.608	23.26
327.82	22.82
328.032	21.98
328.243	20.52
328.455	20.82
328.666	21.95
328.878	21.79
329.09	21.74
329.301	22.54
329.513	24.01
329.725	25.47
329.936	26.67
330.148	25.43
330.359	27.11
330.571	28.88
330.782	28.08
330.994	27.08
331.205	29.03
331.417	28.31
331.628	27.03
331.84	24.38
332.051	21.27
332.262	22.85
332.474	22.08
332.685	21.46
332.897	20.08
333.108	20.06
333.319	21.68
333.531	18.1
333.742	17.05
333.953	18.63
334.165	19.8
334.376	21.42
334.587	19.2
334.799	20.79
335.01	20.73
335.221	22.11
335.432	23.58
335.644	22.51
335.855	22.92
336.066	24.86
336.277	25.31
336.488	26.18
336.7	26.62
336.911	25.98
337.122	26.45
337.333	27.27
337.544	26.34
337.755	25.71
337.966	27.66
338.177	29.52
338.388	28.81
338.599	28.03
338.811	26.72
339.022	26.83
339.233	26.69
339.444	25.9
339.655	25.43
339.866	24.98
340.076	24.97
340.287	23.34
340.498	22.91
340.709	23.52
340.92	23.26
341.131	24.03
341.342	24.17
341.553	23.91
341.764	23.42
341.975	22.16
342.185	23.01
342.396	22.78
342.607	23.04
342.818	24.54
343.029	24.07
343.239	23.93
343.45	24.05
343.661	23.11
343.872	24.16
344.082	24.95
344.293	26.54
344.504	27.04
344.714	26.23
344.925	26.97
345.136	25.41
345.346	23.68
345.557	24.21
345.768	23.62
345.978	24.27
346.189	24.34
346.399	24.48
346.61	25.01
346.821	24.81
347.031	26.07
347.242	25.93
347.452	26.89
347.663	28.5
347.873	29.81
348.084	29.89
348.294	29.13
348.504	28.74
348.715	28.13
348.925	27.25
349.136	26.67
349.346	26.79
349.557	26.71
349.767	26.54
349.977	26.67
350.188	23.72
350.398	23.86
350.608	24.57
350.819	23.1
351.029	22.25
351.239	21.65
351.449	23.1
351.66	21.91
351.87	20.85
352.08	20.92
352.29	20.77
352.501	21.46
352.711	21.07
352.921	20.2
353.131	21.47
353.341	21.61
353.552	22.95
353.762	21.74
353.972	22.04
354.182	22.39
354.392	21.43
354.602	21.35
354.812	22.47
355.022	23.53
355.232	24.98
355.442	24.88
355.652	25.23
355.862	23.91
356.072	24.33
356.282	24.22
356.492	24.8
356.702	24.47
356.912	24.29
357.122	22.4
357.332	22.18
357.542	20.87
357.752	21.9
357.962	21.75
358.171	21.8
358.381	21.72
358.591	22
358.801	21.46
359.011	22.14
359.221	22.87
359.43	24.42
359.64	23.96
359.85	23.41
360.06	22.66
360.269	23.54
360.479	23.48
360.689	23.25
360.899	21.78
361.108	21.75
361.318	21.74
361.528	20.7
361.737	20.4
361.947	20.42
362.156	20.89
362.366	21.15
362.576	20.41
362.785	20.58
362.995	20.36
363.204	21.35
363.414	21.85
363.623	21.43
363.833	22.91
364.042	22.45
364.252	22.46
364.461	22.52
364.671	21.88
364.88	21.8
365.09	22.09
365.299	22
365.509	22.69
365.718	21.58
365.927	21.94
366.137	20.97
366.346	22.21
366.555	21.53
366.765	21.41
366.974	21.85
367.183	21.63
367.393	21.02
367.602	21.02
367.811	20.57
368.021	21.12
368.23	20.55
368.439	20.88
368.648	19.41
368.857	19.33
369.067	19.15
369.276	18.88
369.485	19.53
369.694	18.49
369.903	18.33
370.112	17.75
370.321	17.26
370.531	16.55
370.74	17.41
370.949	17.61
371.158	16.97
371.367	17.34
371.576	17.28
371.785	16.35
371.994	17.05
372.203	17.12
372.412	17.54
372.621	17.81
372.83	18.63
373.039	17.75
373.248	18.24
373.457	18.43
373.666	18.47
373.874	18.37
374.083	19.12
374.292	19.12
374.501	18.65
374.71	17.44
374.919	17.75
375.128	17.46
375.336	17.75
375.545	16.65
375.754	17.68
375.963	17.52
376.171	16.61
376.38	15.94
376.589	16.59
376.798	16.87
377.006	18.17
377.215	18.46
377.424	18.58
377.632	18.63
377.841	18.92
378.05	18.86
378.258	19.1
378.467	19.31
378.675	19.77
378.884	19.54
379.093	19.06
379.301	17.71
379.51	17.02
379.718	16.31
379.927	15.42
380.135	15.18
380.344	14.88
380.552	13.87
380.761	13.78
380.969	13.8
381.177	13.4
381.386	13.1
381.594	13.93
381.803	13.97
382.011	14.49
382.219	14.27
382.428	14.61
382.636	14.38
382.845	13.89
383.053	13.84
383.261	13.4
383.469	13.14
383.678	13.39
383.886	13.39
384.094	13.41
384.302	13.03
384.511	12.99
384.719	11.82
384.927	11.22
385.135	11.67
385.343	11.8
385.552	11.31
385.76	11.54
385.968	11.66
386.176	11.7
386.384	11.65
386.592	11.89
386.8	12.04
387.008	12.68
387.216	12.85
387.424	12.61
387.633	12.25
387.841	12.62
388.049	12.05
388.257	11.99
388.465	11.31
388.672	10.86
388.88	10.73
389.088	10.69
389.296	10.69
389.504	10.67
389.712	10.91
389.92	11.02
390.128	10.48
390.336	10.47
390.544	9.99
390.751	10.41
390.959	10.19
391.167	9.84
391.375	9.84
391.583	9.78
391.79	9.61
391.998	9.44
392.206	9.59
392.414	9.68
392.621	10.14
392.829	10.47
393.037	10.01
393.244	10.42
393.452	10.51
393.66	10.19
393.867	10.05
394.075	9.89
394.283	9.75
394.49	9.6
394.698	9.63
394.905	9.23
395.113	9.08
395.32	9.25
395.528	9.11
395.735	9.16
395.943	9.39
396.15	9.4
396.358	9.99
396.565	10.06
396.773	10.03
396.98	10.12
397.188	10.13
397.395	10.08
397.602	10.08
397.81	9.9
398.017	10.22
398.225	9.96
398.432	9.79
398.639	9.58
398.847	9.62
399.054	9.27
399.261	8.96
399.468	8.87
399.676	8.99
399.883	8.85
400.09	8.85
400.297	8.49
400.505	8.26
400.712	8.36
400.919	7.98
401.126	7.89
401.333	8.33
401.54	8.73
401.748	8.65
401.955	8.27
402.162	8.45
402.369	8.06
402.576	7.91
402.783	7.88
402.99	7.93
403.197	8.09
403.404	8.39
403.611	8.13
403.818	7.77
404.025	7.97
404.232	8.13
404.439	8.06
404.646	8.28
404.853	8.45
405.06	8.51
405.267	8.36
405.474	8.56
405.681	8.13
405.887	8.13
406.094	8.1
406.301	7.79
406.508	7.66
406.715	7.54
406.922	7.92
407.128	7.84
407.335	8.19
407.542	8.18
407.749	7.68
407.955	7.88
408.162	7.63
408.369	7.86
408.575	7.93
408.782	7.95
408.989	8.06
409.195	7.88
409.402	8
409.609	7.63
409.815	7.73
410.022	8.05
410.228	7.84
410.435	8.31
410.642	8.19
410.848	8.35
411.055	8.29
411.261	8.45
411.468	8.21
411.674	7.82
411.881	7.84
412.087	7.78
412.294	7.67
412.5	7.86
412.706	7.54
412.913	7.74
413.119	7.49
413.326	7.55
413.532	7.33
413.738	7.58
413.945	7.8
414.151	7.89
414.357	7.69
414.564	7.71
414.77	7.44
414.976	7.45
415.182	7.21
415.389	6.97
415.595	6.81
415.801	6.87
416.007	6.59
416.214	6.56
416.42	6.55
416.626	6.43
416.832	6.66
417.038	6.69
417.244	6.85
417.45	6.9
417.657	7.04
417.863	7.1
418.069	6.91
418.275	6.95
418.481	6.82
418.687	6.84
418.893	7.05
419.099	6.87
419.305	6.82
419.511	6.82
419.717	6.73
419.923	6.68
420.129	6.63
420.335	6.65
420.541	6.66
420.746	6.82
420.952	6.79
421.158	6.72
421.364	6.63
421.57	6.65
421.776	6.6
421.982	6.66
422.187	6.8
422.393	6.87
422.599	6.89
422.805	6.84
423.01	6.7
423.216	6.63
423.422	6.72
423.628	6.74
423.833	6.69
424.039	6.56
424.245	6.51
424.45	6.56
424.656	6.46
424.862	6.43
425.067	6.61
425.273	6.57
425.478	6.72
425.684	6.63
425.889	6.68
426.095	6.84
426.301	6.94
426.506	6.84
426.712	6.73
426.917	6.86
427.123	6.71
427.328	6.53
427.533	6.65
427.739	6.44
427.944	6.71
428.15	6.64
428.355	6.48
428.561	6.56
428.766	6.87
428.971	6.72
429.177	6.53
429.382	6.69
429.587	6.78
429.793	6.51
429.998	6.63
430.203	6.31
430.408	6.21
430.614	6.14
430.819	6.08
431.024	5.83
431.229	6.23
431.434	6.24
431.64	6.39
431.845	6.27
432.05	6.49
432.255	6.47
432.46	6.57
432.665	6.47
432.87	6.36
433.076	6.19
433.281	6.24
433.486	6
433.691	6.08
433.896	5.92
434.101	6.01
434.306	6.03
434.511	6
434.716	6.13
434.921	6.27
435.126	6.47
435.331	6.46
435.535	6.34
435.74	6.26
435.945	6.03
436.15	6.25
436.355	6.14
436.56	6.05
436.765	6.01
436.97	5.95
437.174	5.84
437.379	5.86
437.584	5.92
437.789	5.99
437.993	6.25
438.198	6.49
438.403	6.22
438.608	6.24
438.812	6.15
439.017	6.04
439.222	5.75
439.426	5.92
439.631	5.81
439.836	5.77
440.04	5.75
440.245	5.53
440.45	5.41
440.654	5.55
440.859	5.45
441.063	5.56
441.268	5.48
441.472	5.63
441.677	5.66
441.881	5.63
442.086	5.78
442.29	5.79
442.495	5.83
442.699	5.84
442.904	5.71
443.108	5.75
443.312	5.77
443.517	5.83
443.721	5.95
443.925	5.68
444.13	5.82
444.334	5.8
444.538	5.82
444.743	5.97
444.947	5.99
445.151	5.95
445.356	5.85
445.56	5.82
445.764	5.93
445.968	5.72
446.173	5.89
446.377	6.02
446.581	5.91
446.785	5.8
446.989	5.67
447.193	5.8
447.398	5.84
447.602	5.9
447.806	5.95
448.01	5.94
448.214	6.11
448.418	6.04
448.622	5.93
448.826	6.07
449.03	6.21
449.234	6.34
449.438	6.34
449.642	6.4
449.846	6.48
450.05	6.39
450.254	6.39
450.458	6.37
450.662	6.42
450.866	6.08
451.069	5.96
451.273	6.01
451.477	5.85
451.681	5.79
451.885	5.66
452.089	5.75
452.292	5.9
452.496	5.85
452.7	5.8
452.904	5.75
453.107	6.04
453.311	6.12
453.515	6.15
453.719	6.2
453.922	6.12
454.126	6.1
454.33	6.01
454.533	5.79
454.737	5.84
454.94	5.93
455.144	6.03
455.348	6.03
455.551	6.11
455.755	6.2
455.958	6.28
456.162	6.32
456.365	6.5
456.569	6.55
456.772	6.55
456.976	6.71
457.179	6.56
457.383	6.56
457.586	6.43
457.79	6.15
457.993	5.99
458.196	6.04
458.4	6.14
458.603	6.08
458.807	6.07
459.01	6.07
459.213	5.83
459.417	5.78
459.62	5.74
459.823	5.67
460.026	5.64
460.23	5.69
460.433	5.54
460.636	5.37
460.839	5.32
461.042	5.16
461.246	5.2
461.449	5.2
461.652	5.19
461.855	5.15
462.058	5.23
462.261	5.4
462.464	5.5
462.668	5.58
462.871	5.81
463.074	5.93
463.277	6.02
463.48	6.04
463.683	6.05
463.886	6.22
464.089	6.2
464.292	6.13
464.495	5.99
464.698	5.94
464.901	5.89
465.104	5.77
465.306	5.74
465.509	5.69
465.712	5.6
465.915	5.62
466.118	5.6
466.321	5.68
466.524	5.77
466.726	5.88
466.929	5.7
467.132	5.57
467.335	5.53
467.538	5.47
467.74	5.54
467.943	5.59
468.146	5.71
468.348	5.55
468.551	5.51
468.754	5.44
468.956	5.4
469.159	5.31
469.362	5.42
469.564	5.37
469.767	5.28
469.969	5.28
470.172	5.38
470.375	5.27
470.577	5.28
470.78	5.28
470.982	5.4
471.185	5.38
471.387	5.69
471.59	5.72
471.792	5.81
471.995	5.92
472.197	6.01
472.399	5.97
472.602	6
472.804	6.07
473.007	5.96
473.209	5.71
473.411	5.82
473.614	5.71
473.816	5.66
474.018	5.6
474.22	5.65
474.423	5.64
474.625	5.7
474.827	5.67
475.03	5.62
475.232	5.67
475.434	5.89
475.636	5.83
475.838	5.7
476.04	5.72
476.243	5.66
476.445	5.81
476.647	5.84
476.849	5.72
477.051	5.94
477.253	5.9
477.455	5.85
477.657	5.82
477.859	5.79
478.061	5.93
478.263	5.94
478.465	6.06
478.667	5.78
478.869	5.64
479.071	5.52
479.273	5.27
479.475	5.29
479.677	5.41
479.879	5.42
480.081	5.52
480.283	5.43
480.485	5.41
480.686	5.34
480.888	5.44
481.09	5.34
481.292	5.35
481.494	5.41
481.695	5.42
481.897	5.36
482.099	5.37
482.301	5.39
482.502	5.44
482.704	5.51
482.906	5.51
483.107	5.52
483.309	5.54
483.511	5.55
483.712	5.56
483.914	5.54
484.115	5.52
484.317	5.54
484.519	5.5
484.72	5.46
484.922	5.42
485.123	5.37
485.325	5.39
485.526	5.5
485.728	5.51
485.929	5.52
486.131	5.59
486.332	5.64
486.534	5.59
486.735	5.54
486.936	5.54
487.138	5.58
487.339	5.56
487.541	5.46
487.742	5.39
487.943	5.34
488.144	5.37
488.346	5.36
488.547	5.34
488.748	5.33
488.95	5.34
489.151	5.35
489.352	5.33
489.553	5.49
489.755	5.51
489.956	5.49
490.157	5.56
490.358	5.51
490.559	5.55
490.76	5.41
490.961	5.5
491.163	5.48
491.364	5.45
491.565	5.41
491.766	5.33
491.967	5.37
492.168	5.36
492.369	5.37
492.57	5.41
492.771	5.39
492.972	5.44
493.173	5.34
493.374	5.44
493.575	5.54
493.776	5.59
493.976	5.54
494.177	5.55
494.378	5.6
494.579	5.64
494.78	5.48
494.981	5.61
495.182	5.74
495.382	5.78
495.583	5.71
495.784	5.73
495.985	5.64
496.185	5.73
496.386	5.86
496.587	5.8
496.788	5.79
496.988	5.86
497.189	5.68
497.39	5.58
497.59	5.56
497.791	5.63
497.992	5.61
498.192	5.75
498.393	5.8
498.593	5.7
498.794	5.63
498.994	5.68
499.195	5.65
499.395	5.75
499.596	5.8
499.796	5.91
499.997	5.84
500.197	5.84
500.398	5.82
500.598	5.88
500.799	6.02
500.999	6.36
501.199	6.3
501.4	6.29
501.6	6.27
501.801	6.45
502.001	6.37
502.201	6.55
502.402	6.49
502.602	6.45
502.802	6.5
503.002	6.46
503.203	6.25
503.403	6.44
503.603	6.44
503.803	6.47
504.003	6.33
504.204	6.32
504.404	6.29
504.604	6.38
504.804	6.42
505.004	6.37
505.204	6.38
505.404	6.35
505.604	6.23
505.804	6.25
506.005	6.1
506.205	6.05
506.405	6.27
506.605	6.22
506.805	6.37
507.005	6.5
507.204	6.39
507.404	6.19
507.604	6.26
507.804	6.22
508.004	6.17
508.204	6.2
508.404	6.39
508.604	6.27
508.804	6.37
509.003	6.18
509.203	6.06
509.403	6.07
509.603	6.3
509.803	6.32
510.002	6.38
510.202	6.49
510.402	6.58
510.602	6.51
510.801	6.56
511.001	6.46
511.201	6.39
511.4	6.51
511.6	6.53
511.8	6.5
511.999	6.51
512.199	6.47
512.398	6.46
512.598	6.38
512.797	6.33
512.997	6.26
513.197	6.35
513.396	6.59
513.596	6.5
513.795	6.5
513.994	6.62
514.194	6.65
514.393	6.82
514.593	7.05
514.792	7.3
514.992	7.55
515.191	7.65
515.39	7.81
515.59	7.77
515.789	7.69
515.988	7.73
516.188	7.77
516.387	7.7
516.586	7.43
516.786	7.32
516.985	7.32
517.184	7.07
517.383	6.98
517.582	6.91
517.782	6.98
517.981	7.13
518.18	7.17
518.379	7.07
518.578	7.15
518.777	7.34
518.976	7.36
519.176	7.18
519.375	7.27
519.574	7.37
519.773	7.17
519.972	7.12
520.171	7.1
520.37	7.13
520.569	7.05
520.768	7.03
520.967	6.96
521.166	6.86
521.365	7.06
521.564	7.25
521.762	7.21
521.961	7.31
522.16	7.4
522.359	7.52
522.558	7.7
522.757	7.78
522.956	7.71
523.154	7.76
523.353	7.9
523.552	7.83
523.751	7.69
523.949	7.65
524.148	7.76
524.347	7.65
524.546	7.58
524.744	7.43
524.943	7.47
525.142	7.54
525.34	7.53
525.539	7.45
525.737	7.49
525.936	7.54
526.135	7.6
526.333	7.68
526.532	7.7
526.73	7.71
526.929	7.77
527.127	7.68
527.326	7.8
527.524	7.75
527.723	7.8
527.921	7.75
528.12	7.73
528.318	7.72
528.516	7.69
528.715	7.71
528.913	7.7
529.112	7.67
529.31	7.74
529.508	7.67
529.707	7.69
529.905	7.69
530.103	7.69
530.301	7.76
530.5	7.85
530.698	7.83
530.896	7.84
531.094	7.83
531.293	7.87
531.491	7.93
531.689	7.97
531.887	8.09
532.085	8.08
532.283	8.14
532.481	8.12
532.68	8.09
532.878	8.21
533.076	8.24
533.274	8.3
533.472	8.31
533.67	8.29
533.868	8.32
534.066	8.31
534.264	8.35
534.462	8.42
534.66	8.53
534.858	8.55
535.056	8.49
535.253	8.58
535.451	8.63
535.649	8.75
535.847	8.77
536.045	8.71
536.243	8.81
536.441	8.95
536.638	8.93
536.836	8.88
537.034	8.81
537.232	8.9
537.43	8.89
537.627	8.89
537.825	8.87
538.023	8.96
538.22	9.07
538.418	9.08
538.616	9.07
538.813	9.08
539.011	9.13
539.209	9.4
539.406	9.38
539.604	9.3
539.801	9.31
539.999	9.25
540.196	9.34
540.394	9.46
540.591	9.43
540.789	9.39
540.986	9.54
541.184	9.53
541.381	9.46
541.579	9.46
541.776	9.53
541.974	9.62
542.171	9.67
542.368	9.53
542.566	9.55
542.763	9.52
542.96	9.5
543.158	9.49
543.355	9.48
543.552	9.52
543.75	9.59
543.947	9.68
544.144	9.61
544.341	9.58
544.539	9.78
544.736	9.76
544.933	9.93
545.13	9.97
545.327	9.95
545.524	10.01
545.722	10.02
545.919	10.14
546.116	10.2
546.313	10.29
546.51	10.35
546.707	10.32
546.904	10.34
547.101	10.26
547.298	10.47
547.495	10.51
547.692	10.62
547.889	10.75
548.086	10.73
548.283	10.69
548.48	10.75
548.677	10.92
548.874	11
549.07	10.97
549.267	11.12
549.464	11.14
549.661	11.15
549.858	11.18
550.055	11.02
550.251	11.09
550.448	11.11
550.645	11.13
550.842	11.34
551.038	11.39
551.235	11.6
551.432	11.64
551.628	11.65
551.825	11.91
552.022	11.88
552.218	12.02
552.415	12.07
552.612	12.28
552.808	12.4
553.005	12.36
553.201	12.33
553.398	12.35
553.594	12.35
553.791	12.43
553.987	12.17
554.184	12.26
554.38	12.25
554.577	12.13
554.773	12.14
554.97	12.06
555.166	12.02
555.362	12.11
555.559	12.27
555.755	12.36
555.952	12.34
556.148	12.52
556.344	12.75
556.541	12.82
556.737	13.22
556.933	13.31
557.129	13.43
557.326	13.5
557.522	13.56
557.718	13.43
557.914	13.54
558.11	13.69
558.307	13.79
558.503	13.62
558.699	13.51
558.895	13.08
559.091	12.93
559.287	13.09
559.483	13
559.679	13.02
559.876	13.31
560.072	13.17
560.268	13.3
560.464	13.57
560.66	13.65
560.856	13.94
561.052	14.4
561.247	14.47
561.443	14.41
561.639	14.55
561.835	14.87
562.031	14.65
562.227	14.93
562.423	14.9
562.619	14.82
562.815	14.96
563.01	14.91
563.206	14.8
563.402	15.01
563.598	14.95
563.793	15.13
563.989	15.14
564.185	15.42
564.381	15.22
564.576	15.17
564.772	15.06
564.968	15.2
565.163	15.37
565.359	15.29
565.555	15.23
565.75	15.31
565.946	15.48
566.141	15.61
566.337	15.49
566.532	15.87
566.728	16.03
566.923	16.25
567.119	16.29
567.314	16.26
567.51	16.38
567.705	16.33
567.901	16.47
568.096	16.23
568.292	15.99
568.487	16.2
568.682	15.67
568.878	15.65
569.073	15.51
569.268	15.55
569.464	15.61
569.659	15.8
569.854	15.83
570.05	15.82
570.245	15.89
570.44	16.11
570.635	16.15
570.831	16.4
571.026	16.48
571.221	16.68
571.416	16.57
571.611	16.6
571.806	16.44
572.002	16.6
572.197	16.77
572.392	16.89
572.587	16.89
572.782	16.94
572.977	17.07
573.172	17.06
573.367	17.04
573.562	17.16
573.757	17.2
573.952	17.35
574.147	17.4
574.342	17.38
574.537	17.38
574.732	17.48
574.927	17.28
575.121	17.43
575.316	17.52
575.511	17.46
575.706	17.45
575.901	17.62
576.096	17.6
576.29	17.64
576.485	17.66
576.68	17.71
576.875	17.61
577.069	17.81
577.264	17.75
577.459	17.68
577.654	17.81
577.848	17.82
578.043	17.87
578.238	18.04
578.432	18.14
578.627	18.1
578.821	18.14
579.016	18.22
579.21	18.11
579.405	18.02
579.6	18.08
579.794	17.94
579.989	17.87
580.183	17.71
580.378	17.76
580.572	17.91
580.766	17.93
580.961	17.89
581.155	17.89
581.35	18.01
581.544	17.98
581.738	18.09
581.933	17.96
582.127	18.09
582.321	18.02
582.516	18.09
582.71	18.03
582.904	17.91
583.099	17.98
583.293	18.17
583.487	18.05
583.681	17.92
583.875	17.86
584.07	18.01
584.264	17.96
584.458	17.78
584.652	17.7
584.846	17.69
585.04	17.62
585.234	17.5
585.428	17.47
585.623	17.57
585.817	17.82
586.011	17.83
586.205	17.68
586.399	17.79
586.593	18.03
586.787	17.99
586.981	18
587.174	18.12
587.368	18.12
587.562	18.08
587.756	18.28
587.95	18.16
588.144	17.97
588.338	18.36
588.532	18.33
588.725	18.42
588.919	18.41
589.113	18.47
589.307	18.61
589.501	18.72
589.694	18.6
589.888	18.35
590.082	18.72
590.275	18.94
590.469	19.02
590.663	18.92
590.856	18.9
591.05	18.72
591.244	18.54
591.437	18.54
591.631	18.65
591.824	18.68
592.018	18.72
592.212	18.49
592.405	18.55
592.599	18.38
592.792	18.58
592.986	18.53
593.179	18.82
593.372	18.77
593.566	18.6
593.759	18.54
593.953	18.7
594.146	19.08
594.339	19.05
594.533	19.07
594.726	18.94
594.92	18.93
595.113	19.31
595.306	19.24
595.499	19.35
595.693	19.7
595.886	19.58
596.079	19.52
596.272	19.28
596.466	19.51
596.659	19.42
596.852	19.49
597.045	19.35
597.238	19.21
597.431	19.21
597.624	19.17
597.818	18.95
598.011	18.78
598.204	18.86
598.397	18.92
598.59	18.66
598.783	18.7
598.976	18.65
599.169	18.95
599.362	19.07
599.555	19
599.748	19.1
599.941	19.45
600.134	19.66
600.326	19.58
600.519	19.75
600.712	19.82
600.905	19.9
601.098	19.94
601.291	19.77
601.483	19.61
601.676	19.51
601.869	19.47
602.062	19.33
602.255	19.64
602.447	19.59
602.64	19.43
602.833	19.53
603.025	19.54
603.218	19.58
603.411	19.59
603.603	19.64
603.796	19.85
603.989	19.83
604.181	19.74
604.374	19.61
604.566	19.79
604.759	19.78
604.951	19.73
605.144	19.46
605.336	19.46
605.529	19.49
605.721	19.26
605.914	19.3
606.106	19.31
606.299	19.53
606.491	19.56
606.683	19.38
606.876	19.19
607.068	19.14
607.26	19.55
607.453	19.69
607.645	19.61
607.837	19.69
608.03	19.41
608.222	19.28
608.414	18.97
608.606	19.03
608.799	18.97
608.991	19.19
609.183	19.26
609.375	18.91
609.567	18.55
609.759	18.6
609.952	18.77
610.144	18.86
610.336	18.71
610.528	18.56
610.72	18.43
610.912	18.3
611.104	18.12
611.296	18.01
611.488	18.22
611.68	18.33
611.872	18.2
612.064	17.91
612.256	17.95
612.448	18.22
612.64	18.42
612.832	18.25
613.023	18.44
613.215	18.53
613.407	18.67
613.599	18.75
613.791	19.11
613.983	19.18
614.174	19.26
614.366	19.14
614.558	19.08
614.75	19.25
614.941	19.59
615.133	19.59
615.325	19.93
615.516	19.76
615.708	19.79
615.9	19.48
616.091	19.54
616.283	19.5
616.475	19.8
616.666	20.12
616.858	20.16
617.049	20.21
617.241	20.45
617.432	20.15
617.624	20.5
617.815	20.62
618.007	20.7
618.198	20.77
618.39	20.92
618.581	20.74
618.773	20.45
618.964	20.07
619.155	19.91
619.347	19.61
619.538	19.93
619.729	19.66
619.921	19.64
620.112	20.07
620.303	20.05
620.494	20.17
620.686	20.25
620.877	20.38
621.068	20.85
621.259	20.89
621.451	20.91
621.642	20.83
621.833	20.81
622.024	20.64
622.215	20.27
622.406	20.1
622.597	20.04
622.788	20.1
622.98	19.8
623.171	19.6
623.362	19.67
623.553	20
623.744	19.89
623.935	20.26
624.126	20.02
624.317	20.02
624.508	20.28
624.698	20.48
624.889	20.48
625.08	20.53
625.271	20.54
625.462	20.65
625.653	20.51
625.844	20.54
626.034	20.42
626.225	20.73
626.416	20.67
626.607	20.64
626.798	20.62
626.988	20.48
627.179	20.49
627.37	20.73
627.56	20.63
627.751	20.58
627.942	20.63
628.132	20.84
628.323	20.78
628.514	20.68
628.704	20.79
628.895	20.49
629.085	20.85
629.276	20.98
629.466	20.69
629.657	20.6
629.847	20.57
630.038	20.4
630.228	19.86
630.419	19.68
630.609	19.81
630.8	19.59
630.99	19.82
631.181	19.86
631.371	19.81
631.561	19.98
631.752	19.99
631.942	20.18
632.132	20.08
632.323	20.04
632.513	20.21
632.703	20.17
632.893	20.22
633.084	20.17
633.274	20.02
633.464	20.26
633.654	20.14
633.844	20.03
634.034	20.24
634.225	20.22
634.415	20.74
634.605	20.74
634.795	21
634.985	21.05
635.175	21.09
635.365	20.94
635.555	20.84
635.745	20.74
635.935	20.88
636.125	20.72
636.315	20.82
636.505	20.59
636.695	20.45
636.885	20.43
637.075	20.43
637.265	20.78
637.455	20.95
637.644	21.33
637.834	21.7
638.024	22.06
638.214	21.82
638.404	22.18
638.593	22.48
638.783	22.74
638.973	22.41
639.163	22.47
639.352	21.98
639.542	21.85
639.732	21.64
639.921	21.38
640.111	21.28
640.301	20.98
640.49	21.01
640.68	20.99
640.87	20.93
641.059	20.92
641.249	20.88
641.438	20.96
641.628	21.08
641.817	21.01
642.007	21.12
642.196	21.01
642.386	21.67
642.575	21.13
642.764	20.8
642.954	20.52
643.143	20.95
643.333	20.75
643.522	20.9
643.711	21.1
643.901	21.31
644.09	21.32
644.279	20.84
644.469	20.85
644.658	20.9
644.847	20.68
645.036	20.92
645.226	21
645.415	21.29
645.604	21.32
645.793	20.92
645.982	20.57
646.171	20.68
646.361	21.31
646.55	21.42
646.739	21.78
646.928	21.99
647.117	22.18
647.306	22.1
647.495	22.43
647.684	22.46
647.873	22.66
648.062	22.81
648.251	22.91
648.44	22.77
648.629	22.64
648.818	22.57
649.007	23.08
649.196	23.25
649.384	22.85
649.573	22.53
649.762	22.47
649.951	22.42
650.14	22.46
650.328	22.19
650.517	21.67
650.706	21.29
650.895	21.44
651.083	21.17
651.272	20.54
651.461	20.67
651.65	20.76
651.838	20.59
652.027	20.63
652.216	20.33
652.404	20.47
652.593	20.74
652.781	21.3
652.97	21.11
653.158	20.82
653.347	21.17
653.535	20.92
653.724	20.76
653.912	20.9
654.101	20.79
654.289	20.93
654.478	21.15
654.666	21.33
654.855	20.88
655.043	20.64
655.231	21.01
655.42	20.98
655.608	21.84
655.796	21.97
655.985	22.03
656.173	22.23
656.361	22.31
656.55	21.66
656.738	21.62
656.926	21.42
657.114	21.53
657.302	21.77
657.491	21.56
657.679	21.31
657.867	21.32
658.055	21.45
658.243	21.35
658.431	21.34
658.619	21.6
658.807	21.52
658.996	21.58
659.184	21.5
659.372	21.27
659.56	21.38
659.748	21.15
659.936	21.2
660.124	21.01
660.311	20.89
660.499	20.65
660.687	20.82
660.875	21.06
661.063	20.84
661.251	21.21
661.439	21.36
661.627	21.45
661.814	21.72
662.002	21.73
662.19	22.05
662.378	22.24
662.565	22.4
662.753	21.88
662.941	21.47
663.129	22.17
663.316	22.29
663.504	21.74
663.692	21.69
663.879	21.75
664.067	21.96
664.254	22.37
664.442	22.33
664.63	22.71
664.817	22.95
665.005	23.75
665.192	23.36
665.38	23.3
665.567	23.36
665.755	23.52
665.942	23.26
666.13	22.98
666.317	22.76
666.504	22.93
666.692	22.57
666.879	22.94
667.067	22.53
667.254	22.84
667.441	22.54
667.629	22.45
667.816	22.06
668.003	22.27
668.19	22.4
668.378	21.95
668.565	21.69
668.752	21.82
668.939	21.46
669.127	21.24
669.314	21.09
669.501	21.03
669.688	21.1
669.875	21.18
670.062	20.74
670.249	20.63
670.436	20.91
670.623	21.11
670.81	20.92
670.997	20.99
671.184	20.88
671.371	21.14
671.558	20.98
671.745	20.75
671.932	20.99
672.119	21.11
672.306	21.09
672.493	20.78
672.68	20.99
672.867	21.49
673.054	21.15
673.24	21.84
673.427	21.61
673.614	22.13
673.801	22.42
673.988	21.94
674.174	22.05
674.361	22.13
674.548	21.9
674.734	21.51
674.921	20.73
675.108	21.52
675.294	21.22
675.481	21.39
675.668	21.02
675.854	21.27
676.041	21.86
676.227	22.54
676.414	22.41
676.601	22.78
676.787	22.91
676.974	23.64
677.16	23.28
677.347	23.24
677.533	22.95
677.719	23.32
677.906	23.35
678.092	23.43
678.279	22.62
678.465	22.66
678.651	22.33
678.838	22.27
679.024	22.08
679.21	22.26
679.397	22.06
679.583	22.51
679.769	22.41
679.955	22.69
680.142	22.35
680.328	22.59
680.514	22.66
680.7	22.89
680.886	22.9
681.073	22.93
681.259	22.85
681.445	23.07
681.631	22.75
681.817	22.93
682.003	22.64
682.189	22.82
682.375	22.53
682.561	22.24
682.747	22.27
682.933	22.36
683.119	22.88
683.305	22.78
683.491	22.87
683.677	23.15
683.863	22.67
684.049	22.62
684.235	22.63
684.42	22.96
684.606	23.29
684.792	23.1
684.978	22.88
685.164	22.78
685.349	22.78
685.535	22.63
685.721	22.03
685.907	22.68
686.092	22.46
686.278	22.75
686.464	22.13
686.649	22.14
686.835	22.52
687.021	22.93
687.206	22.73
687.392	22.51
687.577	22.4
687.763	22.23
687.948	22.05
688.134	22.29
688.319	21.57
688.505	22.03
688.69	21.8
688.876	21.57
689.061	21.25
689.247	20.96
689.432	20.89
689.618	20.72
689.803	21.27
689.988	21.24
690.174	20.96
690.359	21.32
690.544	21.88
690.73	22.05
690.915	22.17
691.1	22.34
691.285	22.4
691.471	22.59
691.656	22.34
691.841	22.14
692.026	22.29
692.211	22.28
692.396	21.81
692.582	21.72
692.767	21.88
692.952	21.77
693.137	22.14
693.322	22.36
693.507	22.4
693.692	23.45
693.877	24.49
694.062	24.19
694.247	24.39
694.432	25
694.617	25.01
694.802	24.6
694.987	24.83
695.172	24.75
695.357	24.27
695.541	24.76
695.726	24.42
695.911	23.44
696.096	22.83
696.281	23.22
696.466	23.4
696.65	23.35
696.835	23.22
697.02	23.47
697.204	23.15
697.389	23.7
697.574	22.87
697.759	22.89
697.943	23.29
698.128	23.91
698.312	23.52
698.497	23.05
698.682	22.89
698.866	23.38
699.051	22.78
699.235	22.58
699.42	22.38
699.604	22.85
699.789	22.94
699.973	22.52
700.158	22.45
700.342	22.58
700.527	22.99
700.711	22.98
700.895	22.77
701.08	23.31
701.264	23.94
701.448	24.01
701.633	23.68
701.817	23.43
702.001	23.83
702.186	23.41
702.37	23.51
702.554	23.33
702.738	23.32
702.923	23.46
703.107	23.42
703.291	22.59
703.475	22.12
703.659	22.49
703.843	21.87
704.027	21.52
704.212	21.95
704.396	22.46
704.58	22.62
704.764	22.57
704.948	21.98
705.132	21.51
705.316	22.51
705.5	22.8
705.684	22.69
705.868	23.65
706.052	23.76
706.235	23.77
706.419	22.71
706.603	22.67
706.787	22.43
706.971	22.69
707.155	22.51
707.339	22.1
707.522	21.99
707.706	21.97
707.89	21.88
708.074	21.66
708.257	21.7
708.441	22.47
708.625	21.92
708.808	22.23
708.992	22.21
709.176	23.35
709.359	23.15
709.543	23.57
709.727	23.88
709.91	23.4
710.094	23.34
710.277	23.33
710.461	23.07
710.644	23.58
710.828	22.81
711.011	22.97
711.195	22.12
711.378	22.74
711.562	22.68
711.745	22.82
711.928	23.11
712.112	23.76
712.295	23.82
712.478	23.84
712.662	24.36
712.845	24.77
713.028	24.84
713.212	25
713.395	24.66
713.578	24.39
713.761	23.82
713.945	24.13
714.128	23.88
714.311	23.56
714.494	24.21
714.677	24.66
714.86	25.44
715.043	25.45
715.227	25.93
715.41	25.9
715.593	25.74
715.776	26.59
715.959	26.57
716.142	26.74
716.325	27.39
716.508	27.67
716.691	26.25
716.874	26.05
717.057	26.43
717.239	25.78
717.422	26.03
717.605	26.7
717.788	26.68
717.971	26.9
718.154	26.72
718.337	26.61
718.519	25.05
718.702	26.54
718.885	26.8
719.068	26.37
719.25	27.42
719.433	26.51
719.616	25.34
719.798	24.8
719.981	24.44
720.164	25.15
720.346	24.2
720.529	23.93
720.712	23.17
720.894	23.16
721.077	23.05
721.259	22.14
721.442	23.26
721.624	24.36
721.807	24.02
721.989	23.89
722.172	23.45
722.354	24.1
722.537	25.35
722.719	25.73
722.901	26.79
723.084	27.42
723.266	29.07
723.448	28.3
723.631	28.31
723.813	29.04
723.995	29.53
724.178	29.14
724.36	29.2
724.542	28.62
724.724	28.13
724.907	26.68
725.089	26.27
725.271	24.51
725.453	24.89
725.635	24.71
725.817	23.8
725.999	23.04
726.181	22.39
726.364	23.04
726.546	23.77
726.728	23.97
726.91	24.38
727.092	24.71
727.274	26.09
727.456	26.23
727.638	26.02
727.819	26.07
728.001	25.75
728.183	26.61
728.365	26.1
728.547	25.46
728.729	25.62
728.911	25.61
729.093	24.47
729.274	23.19
729.456	21.94
729.638	22.31
729.82	22.31
730.001	22.79
730.183	22.34
730.365	21.59
730.546	21.72
730.728	21.43
730.91	21.44
731.091	22.25
731.273	21.95
731.455	23.59
731.636	23.5
731.818	23.71
731.999	23.73
732.181	23.87
732.362	25.02
732.544	25.64
732.725	25.5
732.907	25.53
733.088	25.42
733.27	26.2
733.451	25.76
733.633	26
733.814	25.68
733.995	25.96
734.177	26.46
734.358	27
734.539	27.17
734.721	27.57
734.902	26.27
735.083	26.75
735.264	25.84
735.446	24.68
735.627	23.63
735.808	24.26
735.989	24.18
736.17	24.03
736.351	22.86
736.533	23.08
736.714	22.23
736.895	23.13
737.076	23.04
737.257	23.87
737.438	25.58
737.619	27.3
737.8	27.09
737.981	26.92
738.162	26.83
738.343	27.18
738.524	26.65
738.705	27.75
738.886	27.72
739.067	27.98
739.247	27.58
739.428	27.04
739.609	26.25
739.79	26.56
739.971	26.8
740.151	27.06
740.332	26.19
740.513	26.73
740.694	27.48
740.874	27.54
741.055	27.07
741.236	27.38
741.417	27.53
741.597	26.78
741.778	27.76
741.958	27.73
742.139	27.4
742.32	27.91
742.5	27
742.681	26.27
742.861	26.65
743.042	25.77
743.222	25.71
743.403	25.82
743.583	26.01
743.764	24.55
743.944	24.23
744.124	24.49
744.305	25.4
744.485	25.93
744.666	24.19
744.846	23.78
745.026	24.55
745.207	24.24
745.387	24.52
745.567	26.5
745.747	27.52
745.928	27.07
746.108	27.21
746.288	25.55
746.468	25.06
746.648	26.58
746.829	27.86
747.009	28.39
747.189	28.75
747.369	27.6
747.549	26.15
747.729	26.66
747.909	27.75
748.089	28.27
748.269	29.47
748.449	29.37
748.629	30.08
748.809	28.47
748.989	27.37
749.169	26.67
749.349	27.45
749.529	26.99
749.709	25.32
749.889	25.38
750.068	24.54
750.248	23.46
750.428	23.4
750.608	21.27
750.788	22.14
750.967	22.39
751.147	23.32
751.327	23.8
751.507	23.58
751.686	23.64
751.866	22.68
752.046	22.48
752.225	22.03
752.405	22.79
752.585	23.48
752.764	22.07
752.944	22.63
753.123	21.33
753.303	20.75
753.482	21.78
753.662	23.95
753.841	23.98
754.021	23.72
754.2	23.45
754.38	22.39
754.559	23.64
754.739	25.86
754.918	24.77
755.097	26.53
755.277	26.57
755.456	26.32
755.635	24.14
755.815	24.61
755.994	26.34
756.173	26.44
756.352	27.6
756.532	27.23
756.711	25.96
756.89	27.7
757.069	26.31
757.248	26.01
757.427	26.11
757.607	26.3
757.786	26.53
757.965	24.98
758.144	26.28
758.323	24.75
758.502	23.93
758.681	23.76
758.86	23.44
759.039	24.18
759.218	24.32
759.397	24.27
759.576	24.25
759.755	23.72
759.934	23.71
760.113	24.23
760.291	25.59
760.47	27.61
760.649	27.9
760.828	28.02
761.007	27.61
761.186	26.86
761.364	26.73
761.543	27.05
761.722	27.4
761.901	27.29
762.079	25.42
762.258	25.04
762.437	23.82
762.615	23.64
762.794	22.72
762.972	24.05
763.151	24.83
763.33	24.97
763.508	25.9
763.687	26.54
763.865	26.75
764.044	27.47
764.222	27.66
764.401	27.92
764.579	27.66
764.758	28.69
764.936	27.45
765.114	27.2
765.293	27.62
765.471	26.43
765.65	25.15
765.828	25.22
766.006	25.05
766.184	25.51
766.363	24.63
766.541	24.91
766.719	23.26
766.898	23.8
767.076	24.2
767.254	23.7
767.432	24.91
767.61	25.41
767.788	26.48
767.967	27.29
768.145	27.35
768.323	28.39
768.501	29.05
768.679	30.04
768.857	29.3
769.035	28.34
769.213	27.76
769.391	27.83
769.569	28.6
769.747	27.87
769.925	28.08
770.103	27.27
770.281	28.71
770.459	29.19
770.636	30.11
770.814	30.99
770.992	32.09
771.17	32.29
771.348	32.26
771.525	31.61
771.703	30.77
771.881	29.47
772.059	30.67
772.236	27.73
772.414	28.35
772.592	29.32
772.769	29.12
772.947	29.62
773.125	30.55
773.302	29.65
773.48	30.06
773.657	31.81
773.835	34.24
774.013	32.29
774.19	35.81
774.368	35.61
774.545	33.95
774.723	32.94
774.9	33.42
775.077	33.61
775.255	32.66
775.432	32.43
775.61	32.39
775.787	31.55
775.964	34.3
776.142	32.48
776.319	32.04
776.496	30.55
776.674	28.85
776.851	27.1
777.028	26.53
777.205	28.27
777.382	28.46
777.56	27.38
777.737	27.73
777.914	23.74
778.091	22.28
778.268	22.33
778.445	23.6
778.622	27.91
778.8	28.75
778.977	29.52
779.154	27.18
779.331	26.17
779.508	26.81
779.685	25.07
779.862	28.5
780.038	29.34
780.215	28.94
780.392	29.5
780.569	27.23
780.746	26.99
780.923	26.27
781.1	27.27
781.277	28.55
781.453	27.11
781.63	28.84
781.807	26.54
781.984	28.74
782.16	30.99
782.337	30.37
782.514	32.1
782.691	29.04
782.867	30.7
783.044	29.9
783.221	30.21
783.397	30.44
783.574	30.58
783.75	30.12
783.927	29.1
784.103	25.39
784.28	25.82
784.456	25.72
784.633	29.41
784.809	27.22
784.986	27.45
785.162	27.25
785.339	28.22
785.515	26.61
785.692	27.93
785.868	27.37
786.044	29.8
786.221	30.06
786.397	31.08
786.573	31.23
786.749	34.91
786.926	36.18
787.102	34.08
787.278	33.95
787.454	32.92
787.631	31.99
787.807	30.46
787.983	27.58
788.159	26.5
788.335	24.49
788.511	24.69
788.687	21.59
788.863	21.77
789.039	23.95
789.216	24.53
789.392	26.84
789.568	28.45
789.744	31.59
789.919	33.75
790.095	35.68
790.271	37.18
790.447	37.75
790.623	39.1
790.799	37.85
790.975	38.73
791.151	37.14
791.327	36.03
791.502	33.99
791.678	32.03
791.854	30.08
792.03	30.71
792.205	32.42
792.381	32
792.557	30.56
792.733	32.19
792.908	30.46
793.084	30.3
793.259	32.07
793.435	36.39
793.611	34.96
793.786	37.61
793.962	36.98
794.137	32.48
794.313	30.84
794.488	31.85
794.664	32.35
794.839	31.9
795.015	30.67
795.19	30.17
795.366	27.26
795.541	29
795.716	30.28
795.892	29.87
796.067	32
796.242	32.25
796.418	32.62
796.593	33.54
796.768	36.41
796.944	40.46
797.119	37.76
797.294	39.28
797.469	38.86
797.644	34.9
797.82	33.69
797.995	34.12
798.17	34.06
798.345	31.06
798.52	31.57
798.695	28.41
798.87	28.14
799.045	28.85
799.22	29.48
799.395	28.78
799.57	32.3
799.745	33.57
799.92	31.63
800.095	34.56
800.27	35.78
800.445	34.14
800.62	35.08
800.795	32.13
800.97	31.94
801.145	32.87
801.319	33.44
801.494	31.04
801.669	30.91
801.844	30.23
802.018	25.47
802.193	25.27
802.368	23.29
802.543	21.24
802.717	23.69
802.892	25.87
803.067	24.44
803.241	26.06
803.416	24.38
803.59	23.53
803.765	26.58
803.94	30.98
804.114	33.81
804.289	35.81
804.463	38.73
804.638	36.51
804.812	36.16
804.986	32.94
805.161	32.72
805.335	34.79
805.51	37.91
805.684	37.42
805.858	36.07
806.033	36.21
806.207	34.99
806.381	35.35
806.556	34.05
806.73	35
806.904	36.41
807.078	33.38
807.253	34.68
807.427	27.05
807.601	25.37
807.775	28.34
807.949	25.55
808.123	26.64
808.298	25.05
808.472	26.95
808.646	23.64
808.82	24.63
808.994	26.18
809.168	23.17
809.342	30.23
809.516	32.4
809.69	29.73
809.864	32.53
810.038	30.86
810.212	27.83
810.385	26.61
810.559	28.03
810.733	25.97
810.907	28.11
811.081	30.86
811.255	28.02
811.428	30.07
811.602	30.36
811.776	32.8
811.95	32.23
812.123	36.09
812.297	37.68
812.471	37.92
812.644	42.25
812.818	38.12
812.992	37.36
813.165	37.03
813.339	31.1
813.512	26.15
813.686	23.32
813.86	25.47
814.033	25.07
814.207	24.55
814.38	26.98
814.554	23.63
814.727	32.13
814.9	30.1
815.074	36.53
815.247	40.41
815.421	43.05
815.594	45.06
815.767	43.95
815.941	41.48
816.114	40.67
816.287	39.24
816.46	42.6
816.634	38.84
816.807	41.66
816.98	38.03
817.153	36.34
817.327	39.6
817.5	38.88
817.673	39.01
817.846	42.67
818.019	45.83
818.192	49.66
818.365	45.77
818.538	47.08
818.711	44.01
818.884	42.21
819.057	43.88
819.23	40.67
819.403	37.56
819.576	37.1
819.749	32.88
819.922	33.06
820.095	28.91
820.268	28.18
820.441	26.1
820.614	28.14
820.786	25.39
820.959	25.74
821.132	26.24
821.305	26.59
821.477	26.72
821.65	27.76
821.823	25.83
821.996	27.34
822.168	27.07
822.341	26.67
822.514	25.85
822.686	27.81
822.859	27.7
823.031	27.52
823.204	27.44
823.376	28.08
823.549	27.9
823.722	28.41
823.894	28.13
824.067	29.15
824.239	30.37
824.411	30.48
824.584	29.87
824.756	29.18
824.929	29.17
825.101	30.11
825.273	30.06
825.446	29.99
825.618	31.09
825.79	31.77
825.963	32.18
826.135	31.19
826.307	32.95
826.479	32.42
826.652	33.81
826.824	33.62
826.996	32.33
827.168	30.49
827.34	31.66
827.512	30.73
827.684	29.28
827.856	27.81
828.029	29.18
828.201	28.04
828.373	28.27
828.545	28.25
828.717	27.82
828.889	27.22
829.061	29
829.232	28.95
829.404	28.29
829.576	28.6
829.748	31.91
829.92	29.3
830.092	29.16
830.264	29.62
830.436	30.32
830.607	32.41
830.779	36.23
830.951	34.81
831.123	33.76
831.294	36.4
831.466	38.56
831.638	34.89
831.809	38.2
831.981	40.3
832.153	40.75
832.324	38.46
832.496	38.5
832.667	36.71
832.839	37.87
833.011	38.63
833.182	38.18
833.354	36.34
833.525	35.95
833.697	35.23
833.868	33.51
834.039	33.76
834.211	34.5
834.382	32.88
834.554	34.69
834.725	33.15
834.896	34.24
835.068	33.4
835.239	31.26
835.41	32.33
835.581	29.39
835.753	29.83
835.924	30.65
836.095	29.07
836.266	31.74
836.438	28.72
836.609	29.1
836.78	26.07
836.951	26.34
837.122	29.78
837.293	28.82
837.464	34.3
837.635	36.32
837.806	34.2
837.977	35.6
838.148	32.52
838.319	35.24
838.49	36.09
838.661	36.79
838.832	36.83
839.003	34.08
839.174	31.68
839.345	26.74
839.516	23.34
839.687	27.05
839.857	28.68
840.028	29.94
840.199	27.36
840.37	26.18
840.54	30.53
840.711	31.49
840.882	33.92
841.053	36.52
841.223	36.38
841.394	38.14
841.564	33.86
841.735	34.73
841.906	33.3
842.076	36.47
842.247	37.75
842.417	32.01
842.588	33.55
842.758	36.5
842.929	35.8
843.099	37.39
843.27	40.02
843.44	43.55
843.611	42.95
843.781	46.68
843.951	37.5
844.122	39.16
844.292	46.62
844.462	49.87
844.633	46.06
844.803	39.98
844.973	37.17
845.144	27.37
845.314	22.36
845.484	18.75
845.654	19.27
845.824	29.66
845.995	31.41
846.165	19.89
846.335	4.53
846.505	6.71
846.675	5.13
846.845	10.95
847.015	20.69
847.185	23.11
847.355	39.81
847.525	42.35
847.695	33.72
847.865	39.38
848.035	70.47
848.205	70.95
848.375	69.1
848.545	74.92
848.715	60.3
848.884	55.73
849.054	61.02
849.224	45.77
849.394	45.74
849.564	58.07
849.733	57.16
849.903	54.35
850.073	55.95
850.243	63.18
850.412	59.75
850.582	58.37
850.752	55.51
850.921	55.37
851.091	62.63
851.26	62.65
851.43	55.09
851.599	41.58
851.769	27.84
851.939	17.87
852.108	12.72
852.278	19.25
852.447	39.5
852.616	42.41
852.786	43.81
852.955	39.7
853.125	24.04
853.294	18.13
853.463	40.28
853.633	38.46
853.802	35.88
853.971	38.73
854.141	44.08
854.31	45.27
854.479	42.77
854.648	37.6
854.818	41.27
854.987	54.72
855.156	76.13
855.325	75.12
855.494	83.24
855.663	96.14
855.832	107.94
856.001	104.42
856.171	95.99
856.34	109
856.509	118.48
856.678	97.64
856.847	85.47
857.016	63.89
857.185	48.54
857.353	51.12
857.522	47.74
857.691	18.34
857.86	15.41
858.029	16.5
858.198	-0.75
858.367	-17.47
858.535	-1.88
858.704	6.96
858.873	0.28
859.042	13.87
859.21	5.25
859.379	8.82
859.548	22.33
859.717	15.62
859.885	19.47
860.054	30.23
860.222	31.54
860.391	39.91
860.56	42.28
860.728	50.3
860.897	51.04
861.065	43.08
861.234	44.77
861.402	41.98
861.571	44.86
861.739	47.71
861.908	44.47
862.076	47.31
862.244	46.75
862.413	51.43
862.581	59.69
862.749	72.29
862.918	80.33
863.086	87.11
863.254	82.87
863.423	84.39
863.591	86.31
863.759	82.24
863.927	73.33
864.096	66.79
864.264	65.76
864.432	64.11
864.6	51.85
864.768	65.88
864.936	50.33
865.104	58.87
865.272	70.07
865.44	54.56
865.608	59.71
865.776	82.12
865.944	76.73
866.112	61.41
866.28	71.63
866.448	79.65
866.616	57.78
866.784	62.65
866.952	57.8
867.12	34.89
867.288	59.65
867.455	49.85
867.623	33.33
867.791	41.98
867.959	48.65
868.127	32.31
868.294	34.89
868.462	27.83
868.63	26.49
868.797	32.82
868.965	44.98
869.133	39.38
869.3	43.14
869.468	48.58
869.636	54.24
869.803	58.22
869.971	67.21
870.138	60.14
870.306	75.79
870.473	83.55
870.641	86.98
870.808	74.3
870.975	80.4
871.143	88.68
871.31	90.69
871.478	85.75
871.645	77.88
871.812	79.16
871.98	90.82
872.147	101.82
872.314	101.84
872.482	102
872.649	146.3
872.816	117.96
872.983	69.6
873.15	80.6
873.318	84.92
873.485	114.93
873.652	77.75
873.819	86.82
873.986	83.15
874.153	78.6
874.32	80.64
874.487	81.16
874.654	73.25
874.821	87.97
874.988	75.63
875.155	81.72
875.322	59.04
875.489	76.87
875.656	51.47
875.823	55.57
875.99	64.87
876.157	82.75
876.324	85.04
876.49	115.96
876.657	96.86
876.824	105.6
876.991	86.43
877.157	91.35
877.324	90.52
877.491	105.79
877.658	101.01
877.824	78.61
877.991	74.72
878.157	69.52
878.324	47.82
878.491	46.76
878.657	62.61
878.824	59.69
878.99	44.28
879.157	45.06
879.323	39.6
879.49	33.47
879.656	31.59
879.823	33.06
879.989	23.98
880.156	33.63
880.322	36.9
880.488	13.14
880.655	17.49
880.821	16.86
880.987	22.54
881.154	14.58
881.32	32.45
881.486	31.61
881.652	28.44
881.819	30.78
881.985	25.79
882.151	28.68
882.317	27.57
882.483	29.15
882.649	31.42
882.816	31.58
882.982	32.49
883.148	29.58
883.314	31.04
883.48	30.18
883.646	28.95
883.812	28.98
883.978	29.63
884.144	33.5
884.31	33.68
884.476	32.77
884.642	32.18
884.807	32.47
884.973	34.71
885.139	39.3
885.305	41.47
885.471	41.83
885.637	45.62
885.802	48.96
885.968	47.05
886.134	46.45
886.3	46.28
886.465	40.87
886.631	45.39
886.797	42.67
886.962	37.96
887.128	41.93
887.293	42.93
887.459	47.15
887.625	49.88
887.79	53.07
887.956	57.1
888.121	62
888.287	74.9
888.452	70.42
888.618	74.97
888.783	88
