Data from 2938047_Reflection_2.txt Node
Date: Sun Jul 12 14:23:35 EDT 2015
User: robert
Spectrometer: USB4E03001
Autoset integration time: false
Trigger mode: 4
Integration Time (sec): 1.000000E-1
Scans to average: 10
Electric dark correction enabled: true
Nonlinearity correction enabled: false
Boxcar width: 5
Stray light correction enabled: false
XAxis mode: Wavelengths
Stop averaging: false
Number of Pixels in Spectrum: 3648
>>>>>Begin Spectral Data<<<<<
177.566	8.62
177.785	21.67
178.005	-10.25
178.225	56.3
178.445	57.16
178.665	59.61
178.885	41.95
179.105	264.67
179.324	-30.74
179.544	36.38
179.764	-94.43
179.984	27.24
180.204	-35.5
180.423	-20.38
180.643	-77.12
180.863	-27.33
181.083	-43.42
181.302	-9.24
181.522	3.86
181.742	19.4
181.961	14.63
182.181	40.61
182.401	43.42
182.621	55.78
182.84	62.5
183.06	75.87
183.279	72.65
183.499	66.03
183.719	79.69
183.938	88.51
184.158	83.43
184.377	85.42
184.597	104.5
184.816	96.35
185.036	148.19
185.256	132.42
185.475	92.9
185.695	82.78
185.914	114.32
186.134	105.09
186.353	92.88
186.572	82.34
186.792	62.39
187.011	60.64
187.231	61.06
187.45	51.29
187.67	60.82
187.889	48.45
188.108	47.46
188.328	37.76
188.547	18.99
188.766	6.53
188.986	26.37
189.205	35.93
189.424	19.03
189.644	17.21
189.863	-24.1
190.082	-16.62
190.302	-1.73
190.521	15.28
190.74	35.91
190.959	43.88
191.178	37.12
191.398	-0.3
191.617	-33.26
191.836	-11.21
192.055	-2.26
192.274	40.07
192.494	387.44
192.713	96.89
192.932	45.25
193.151	26.39
193.37	31.72
193.589	15.96
193.808	40.94
194.027	75.96
194.246	75.14
194.465	79.03
194.685	83.16
194.904	59.06
195.123	73.75
195.342	102.7
195.561	149.77
195.78	251.97
195.999	177.26
196.218	144.96
196.436	124.2
196.655	137.2
196.874	104.43
197.093	91.89
197.312	95.8
197.531	91.77
197.75	58.04
197.969	41.76
198.188	42.11
198.407	43.14
198.625	38.89
198.844	34.05
199.063	36.8
199.282	37.16
199.501	24.42
199.719	25.39
199.938	20.9
200.157	39.96
200.376	36.13
200.594	26.41
200.813	40.45
201.032	48.72
201.251	55.77
201.469	45.51
201.688	43.22
201.907	35.02
202.125	40.36
202.344	31.52
202.563	14.08
202.781	24.89
203	21.17
203.218	24.77
203.437	8.34
203.656	20.98
203.874	28.7
204.093	8.14
204.311	41.35
204.53	26.29
204.748	17.31
204.967	55.4
205.185	25.54
205.404	22.02
205.622	-36.34
205.841	11.1
206.059	-8.1
206.278	-4.19
206.496	11.98
206.715	-16.45
206.933	7.94
207.151	22.58
207.37	9.03
207.588	15.06
207.806	30.22
208.025	27.49
208.243	21.11
208.461	6.93
208.68	1.09
208.898	-67.92
209.116	-4.26
209.335	-4.92
209.553	-14.31
209.771	-18.93
209.989	-3.63
210.208	-4.53
210.426	-1.08
210.644	4.42
210.862	43.33
211.081	28.92
211.299	48.12
211.517	36.62
211.735	22.81
211.953	30.34
212.171	30.83
212.39	30.27
212.608	17.63
212.826	10.54
213.044	13.88
213.262	11.89
213.48	17.79
213.698	16.07
213.916	27.11
214.134	40.01
214.352	35
214.57	32.52
214.788	29.59
215.006	35.3
215.224	55.91
215.442	53.77
215.66	37.57
215.878	30.11
216.096	45.37
216.314	33.33
216.532	28.6
216.75	31.3
216.968	33.59
217.185	35.15
217.403	33.13
217.621	37.67
217.839	42.15
218.057	34.88
218.275	37.56
218.492	23.23
218.71	12.84
218.928	1.14
219.146	2.02
219.363	6.97
219.581	14.88
219.799	16.08
220.017	22.94
220.234	11.24
220.452	17.7
220.67	21.23
220.887	23.64
221.105	36.25
221.323	48.84
221.54	49.06
221.758	44.86
221.976	43.86
222.193	46.16
222.411	42.99
222.629	50.33
222.846	36.79
223.064	41.61
223.281	20.45
223.499	17.59
223.716	33.14
223.934	30.7
224.151	26.58
224.369	21.01
224.586	14.48
224.804	6.57
225.021	18.81
225.239	48.37
225.456	46.37
225.674	54.85
225.891	45.81
226.108	41.95
226.326	35.8
226.543	39.59
226.76	37.35
226.978	44.14
227.195	36.65
227.413	29.75
227.63	28.83
227.847	22.23
228.064	16.58
228.282	14.41
228.499	10.54
228.716	14.05
228.934	13.47
229.151	14.05
229.368	11.41
229.585	13.28
229.802	15.45
230.02	12.54
230.237	13.1
230.454	13.78
230.671	14.01
230.888	16.96
231.105	16.43
231.323	14.68
231.54	15.5
231.757	16.23
231.974	15.02
232.191	12.56
232.408	14.65
232.625	15.58
232.842	14.95
233.059	19.12
233.276	17.55
233.493	19.03
233.71	23.25
233.927	25.91
234.144	25.88
234.361	30.23
234.578	33.67
234.795	32.86
235.012	35.51
235.229	31.68
235.446	34.17
235.663	34.92
235.879	33.55
236.096	32.42
236.313	28.18
236.53	22.63
236.747	17.22
236.964	12.76
237.181	12.31
237.397	11.43
237.614	17.74
237.831	11.63
238.048	7.59
238.264	9.46
238.481	5.71
238.698	6.91
238.915	10.58
239.131	6.92
239.348	11.18
239.565	5.2
239.781	7.61
239.998	6.57
240.215	15.43
240.431	18.87
240.648	14.72
240.865	15.38
241.081	15.99
241.298	15.53
241.514	18.1
241.731	16.01
241.947	17.1
242.164	15.34
242.38	16.37
242.597	13.85
242.814	13.58
243.03	16.09
243.246	14.3
243.463	12.74
243.679	12.73
243.896	13.69
244.112	14.18
244.329	14.51
244.545	16.13
244.762	16.69
244.978	14.4
245.194	14.25
245.411	11.01
245.627	13.38
245.843	14.83
246.06	14.93
246.276	13.52
246.492	12.45
246.709	12.52
246.925	11.55
247.141	10.99
247.357	10.75
247.574	11.17
247.79	12.5
248.006	13.53
248.222	12.06
248.439	13.68
248.655	14.05
248.871	15.38
249.087	15.52
249.303	16.5
249.519	18.31
249.736	20.75
249.952	20.65
250.168	20.85
250.384	20.57
250.6	21.65
250.816	18.25
251.032	15.09
251.248	13.96
251.464	15.1
251.68	14.7
251.896	12.33
252.112	9.93
252.328	9.51
252.544	8.35
252.76	6.2
252.976	6.86
253.192	8.01
253.408	9.59
253.624	11.53
253.84	8.74
254.056	11.07
254.272	13.35
254.487	16.25
254.703	14.86
254.919	14.93
255.135	14.65
255.351	15.99
255.567	20.38
255.782	21.3
255.998	18.47
256.214	17.05
256.43	14.41
256.646	13.34
256.861	12.58
257.077	14.45
257.293	14.24
257.508	14.27
257.724	15.74
257.94	11.76
258.155	10.82
258.371	11.19
258.587	12.31
258.802	12.19
259.018	10.98
259.234	10.96
259.449	10.53
259.665	11.04
259.88	11.71
260.096	11.3
260.312	11.18
260.527	11.67
260.743	11.73
260.958	11.9
261.174	11.44
261.389	12.47
261.605	13.32
261.82	14.21
262.036	14.14
262.251	15.19
262.466	15.84
262.682	16.76
262.897	15.28
263.113	16.02
263.328	15.62
263.543	15.74
263.759	14.57
263.974	12.29
264.189	8.46
264.405	7.4
264.62	4.02
264.835	2.65
265.051	1.11
265.266	3.85
265.481	2.39
265.696	2.03
265.912	3.36
266.127	5.17
266.342	5.9
266.557	9.52
266.773	10.67
266.988	10.99
267.203	11.18
267.418	12.3
267.633	10.98
267.848	11.46
268.064	13.27
268.279	12.56
268.494	9.69
268.709	9.76
268.924	9.41
269.139	8.37
269.354	9.31
269.569	8.29
269.784	9.63
269.999	10.44
270.214	10.5
270.429	10.2
270.644	10.69
270.859	13.08
271.074	12.33
271.289	12.52
271.504	13.22
271.719	13.67
271.934	13.4
272.149	11.99
272.363	11.77
272.578	10.62
272.793	11.1
273.008	9.89
273.223	9.28
273.438	10.13
273.653	8.59
273.867	8.58
274.082	7.91
274.297	9.42
274.512	10.1
274.726	8.9
274.941	10.05
275.156	8.09
275.371	8.89
275.585	9.67
275.8	9.73
276.015	11.89
276.229	10.08
276.444	9.28
276.659	8.8
276.873	7.2
277.088	7.67
277.302	8.29
277.517	8.22
277.732	8.24
277.946	8.59
278.161	7.22
278.375	6.38
278.59	10.37
278.804	11.58
279.019	11.61
279.233	12.33
279.448	12.37
279.662	12.11
279.877	12.45
280.091	13.26
280.306	11.76
280.52	11.83
280.735	11.55
280.949	8.5
281.163	8.06
281.378	7.62
281.592	7.29
281.806	8.54
282.021	8.09
282.235	8.32
282.449	10.09
282.664	9.84
282.878	11.18
283.092	10.92
283.307	12.44
283.521	12.61
283.735	12.55
283.949	12.38
284.164	11.6
284.378	12.27
284.592	11.68
284.806	9.07
285.02	8.63
285.234	6.15
285.449	7.57
285.663	7.75
285.877	7.82
286.091	8.64
286.305	8.6
286.519	9.14
286.733	8.53
286.947	9.49
287.161	11.69
287.375	12.63
287.589	13.8
287.803	12.31
288.017	12.31
288.231	12.49
288.445	11.12
288.659	11.65
288.873	10.91
289.087	11.64
289.301	12.68
289.515	9.69
289.729	8.66
289.943	10.24
290.157	10.08
290.371	10.27
290.584	10.6
290.798	12.52
291.012	13.43
291.226	14.01
291.44	12.86
291.654	11.9
291.867	12.86
292.081	14.65
292.295	14.37
292.509	17.03
292.722	15.55
292.936	16.58
293.15	16.12
293.364	15.2
293.577	16.15
293.791	17.41
294.005	16.21
294.218	16.82
294.432	14.53
294.645	14.27
294.859	11.69
295.073	13.8
295.286	11.26
295.5	11.72
295.713	12.23
295.927	11.27
296.14	10.24
296.354	12.45
296.568	11.99
296.781	13.08
296.994	13.3
297.208	13.72
297.421	12.87
297.635	13.06
297.848	11.78
298.062	10.84
298.275	10.72
298.489	10.74
298.702	8.85
298.915	8.43
299.129	9.09
299.342	9.6
299.555	10.11
299.769	9.43
299.982	11.2
300.195	12.37
300.409	13.92
300.622	14.58
300.835	15.28
301.048	15.97
301.262	16.28
301.475	16.99
301.688	15.16
301.901	15.44
302.115	14.84
302.328	14.07
302.541	13.5
302.754	12.23
302.967	11
303.18	11.57
303.393	10.54
303.607	10.03
303.82	8.43
304.033	10.2
304.246	8.78
304.459	8.85
304.672	8.66
304.885	9.25
305.098	11.28
305.311	12.56
305.524	12.65
305.737	15.01
305.95	15.9
306.163	17.41
306.376	15.38
306.589	15.77
306.802	17.39
307.015	18.39
307.228	16.82
307.44	14.31
307.653	12.44
307.866	11.12
308.079	11.67
308.292	12.79
308.505	11.09
308.718	11.05
308.93	11.75
309.143	11.11
309.356	10.44
309.569	12.33
309.781	13.68
309.994	14.84
310.207	15.27
310.42	14.25
310.632	13.72
310.845	13.5
311.058	15.61
311.27	15.65
311.483	14.29
311.696	12.83
311.908	12.77
312.121	12.68
312.333	12.83
312.546	13.34
312.759	12.47
312.971	11.56
313.184	11.47
313.396	9.18
313.609	8.37
313.821	7.86
314.034	8.59
314.246	7.7
314.459	7.74
314.671	9.71
314.884	8.46
315.096	8.41
315.309	9.02
315.521	8.93
315.733	10.93
315.946	12.5
316.158	14.4
316.371	15.62
316.583	15.41
316.795	15.31
317.008	13.88
317.22	14
317.432	14.38
317.644	14.5
317.857	16.25
318.069	15.48
318.281	13.59
318.494	13.37
318.706	13.07
318.918	13.16
319.13	12.51
319.342	12.73
319.555	14.22
319.767	14.76
319.979	13.33
320.191	11.6
320.403	11.75
320.615	10.84
320.827	12.23
321.039	14.5
321.252	14.55
321.464	13.95
321.676	12.71
321.888	12.87
322.1	12.34
322.312	13.61
322.524	16.23
322.736	17.43
322.948	19.44
323.16	18.14
323.372	15.3
323.584	14.67
323.796	15.91
324.007	17.2
324.219	16.89
324.431	15.92
324.643	15.43
324.855	14.56
325.067	14.23
325.279	13.98
325.491	13.53
325.702	15.84
325.914	17.18
326.126	16.88
326.338	15.18
326.55	15.61
326.761	15.69
326.973	16.8
327.185	16.39
327.396	16.73
327.608	17.46
327.82	17.81
328.032	14.86
328.243	15.27
328.455	15.15
328.666	15.81
328.878	15.48
329.09	16.01
329.301	14.69
329.513	14.13
329.725	12.01
329.936	11.77
330.148	10.68
330.359	12.26
330.571	11.45
330.782	12.29
330.994	13.25
331.205	11.81
331.417	12.41
331.628	13.43
331.84	14.19
332.051	14.13
332.262	13.84
332.474	14.8
332.685	14.11
332.897	14.27
333.108	13.03
333.319	12.54
333.531	12.92
333.742	12.86
333.953	12.37
334.165	11.62
334.376	12.96
334.587	14
334.799	14.25
335.01	14.21
335.221	13.92
335.432	13.81
335.644	12.31
335.855	12.27
336.066	14.54
336.277	14.34
336.488	13.47
336.7	14.42
336.911	12.18
337.122	11.7
337.333	13.03
337.544	12.44
337.755	12.75
337.966	14.12
338.177	13.44
338.388	11.04
338.599	10.84
338.811	10.62
339.022	8.62
339.233	10.45
339.444	11.48
339.655	9.26
339.866	10.51
340.076	10.98
340.287	10.87
340.498	12.38
340.709	11.77
340.92	11.78
341.131	13.2
341.342	13.2
341.553	12.69
341.764	11.3
341.975	11.94
342.185	11.72
342.396	11.3
342.607	11.11
342.818	9.55
343.029	10.49
343.239	11.37
343.45	10.97
343.661	11.89
343.872	11.46
344.082	12.04
344.293	11.82
344.504	11.49
344.714	10.03
344.925	9.71
345.136	10.52
345.346	10.15
345.557	10.97
345.768	9.86
345.978	9.11
346.189	8.26
346.399	7.91
346.61	8.71
346.821	9.5
347.031	10.41
347.242	9.85
347.452	10.53
347.663	10.43
347.873	10.19
348.084	12
348.294	12.77
348.504	13.38
348.715	13.77
348.925	14.03
349.136	13.7
349.346	13.67
349.557	13.66
349.767	12.9
349.977	13.72
350.188	12.05
350.398	11.23
350.608	10.85
350.819	10.69
351.029	10.72
351.239	10.54
351.449	10.78
351.66	11.61
351.87	11.82
352.08	11.46
352.29	11.61
352.501	11.52
352.711	11.78
352.921	11.93
353.131	11.98
353.341	11.3
353.552	10.73
353.762	11.78
353.972	10.35
354.182	10.52
354.392	12.42
354.602	11.66
354.812	12.35
355.022	12.72
355.232	12.01
355.442	11.77
355.652	12.39
355.862	12.04
356.072	10.81
356.282	12.23
356.492	12.77
356.702	10.73
356.912	10.54
357.122	10.02
357.332	9.7
357.542	9.96
357.752	10.49
357.962	10.52
358.171	10.88
358.381	10.29
358.591	8.88
358.801	8.78
359.011	9.26
359.221	9.99
359.43	10.47
359.64	10.08
359.85	10.99
360.06	11.16
360.269	11.05
360.479	11.15
360.689	11.57
360.899	11.92
361.108	11.22
361.318	11.27
361.528	11
361.737	10.95
361.947	11.19
362.156	9.99
362.366	10.26
362.576	10.62
362.785	10.7
362.995	10.2
363.204	10.34
363.414	10.95
363.623	10.8
363.833	10.69
364.042	10.93
364.252	11.06
364.461	10.95
364.671	10.47
364.88	9.86
365.09	9.12
365.299	9.33
365.509	9.56
365.718	9.09
365.927	9.14
366.137	9.49
366.346	8.71
366.555	8.22
366.765	9.51
366.974	9.24
367.183	9.15
367.393	9.69
367.602	9.95
367.811	10.68
368.021	10.62
368.23	10.08
368.439	9.61
368.648	10.64
368.857	10.36
369.067	9.29
369.276	9.93
369.485	9.53
369.694	9.8
369.903	9.83
370.112	8.72
370.321	8.35
370.531	9.14
370.74	8.91
370.949	8.19
371.158	8.07
371.367	7.83
371.576	6.65
371.785	7.18
371.994	6.54
372.203	6.43
372.412	6.03
372.621	6.97
372.83	7.08
373.039	7.34
373.248	7.64
373.457	8.3
373.666	8.56
373.874	9.07
374.083	8.97
374.292	9.1
374.501	8.51
374.71	8.96
374.919	8.45
375.128	8.38
375.336	8.57
375.545	8.03
375.754	8
375.963	8.12
376.171	7.9
376.38	7.85
376.589	7.66
376.798	7.81
377.006	7.85
377.215	7.48
377.424	7.46
377.632	7.39
377.841	7.54
378.05	7.29
378.258	7.16
378.467	7.54
378.675	6.9
378.884	7.21
379.093	7.13
379.301	7
379.51	7.7
379.718	7.29
379.927	6.71
380.135	7.37
380.344	7.47
380.552	7.28
380.761	6.81
380.969	7.8
381.177	7.63
381.386	7.67
381.594	7.7
381.803	6.94
382.011	6.48
382.219	6.92
382.428	5.92
382.636	5.62
382.845	5.9
383.053	6.19
383.261	5.94
383.469	5.71
383.678	5.49
383.886	5.59
384.094	5.87
384.302	6.21
384.511	6.05
384.719	6.6
384.927	6.79
385.135	6.65
385.343	6.77
385.552	6.38
385.76	6.32
385.968	6.79
386.176	6.64
386.384	6.56
386.592	6.82
386.8	6.69
387.008	6.36
387.216	6.14
387.424	6.45
387.633	5.84
387.841	6.24
388.049	6.5
388.257	6.07
388.465	5.53
388.672	5.45
388.88	5.39
389.088	5.35
389.296	5.18
389.504	5.29
389.712	5.3
389.92	5.62
390.128	5.32
390.336	4.75
390.544	5
390.751	5.4
390.959	4.91
391.167	4.77
391.375	5.09
391.583	5.2
391.79	5
391.998	4.61
392.206	4.94
392.414	4.97
392.621	5.18
392.829	4.97
393.037	4.88
393.244	5.57
393.452	5.39
393.66	4.78
393.867	4.51
394.075	4.78
394.283	4.71
394.49	4.28
394.698	4.41
394.905	4.57
395.113	4.3
395.32	4.31
395.528	4.02
395.735	3.96
395.943	4.26
396.15	4.83
396.358	4.65
396.565	4.98
396.773	5.01
396.98	4.88
397.188	4.85
397.395	4.99
397.602	5.19
397.81	4.9
398.017	5.07
398.225	5.1
398.432	4.75
398.639	4.84
398.847	4.65
399.054	4.35
399.261	4.34
399.468	4.32
399.676	4.49
399.883	4.35
400.09	4.53
400.297	4.18
400.505	3.82
400.712	3.74
400.919	3.61
401.126	3.42
401.333	3.41
401.54	3.31
401.748	3.12
401.955	3.21
402.162	3.19
402.369	3.48
402.576	3.74
402.783	3.85
402.99	3.63
403.197	3.42
403.404	3.89
403.611	4.1
403.818	3.84
404.025	4.19
404.232	3.9
404.439	3.96
404.646	3.72
404.853	3.91
405.06	4.07
405.267	4.4
405.474	4.61
405.681	4.19
405.887	4.14
406.094	4.11
406.301	3.8
406.508	3.71
406.715	3.57
406.922	3.46
407.128	3.32
407.335	3.19
407.542	3.13
407.749	3.33
407.955	3.15
408.162	2.91
408.369	2.95
408.575	2.97
408.782	3.01
408.989	2.99
409.195	2.86
409.402	2.74
409.609	2.71
409.815	2.64
410.022	2.34
410.228	2.42
410.435	2.79
410.642	3.01
410.848	2.96
411.055	3.23
411.261	3.35
411.468	3.53
411.674	3.25
411.881	3.58
412.087	3.32
412.294	3.68
412.5	3.81
412.706	3.71
412.913	3.78
413.119	3.47
413.326	3.18
413.532	3.2
413.738	3.27
413.945	3.83
414.151	3.81
414.357	4
414.564	3.65
414.77	3.67
414.976	3.62
415.182	3.5
415.389	3.81
415.595	3.86
415.801	3.68
416.007	3.58
416.214	3.33
416.42	3.18
416.626	3.26
416.832	3.29
417.038	3.29
417.244	3.22
417.45	3.17
417.657	3
417.863	3.04
418.069	3.03
418.275	3.06
418.481	3.12
418.687	3.25
418.893	3.3
419.099	3.25
419.305	3.27
419.511	3.45
419.717	3.46
419.923	3.6
420.129	3.59
420.335	3.78
420.541	3.74
420.746	3.52
420.952	3.39
421.158	3.34
421.364	3.32
421.57	3.33
421.776	3.25
421.982	3.21
422.187	3.19
422.393	3.14
422.599	2.91
422.805	2.88
423.01	3.07
423.216	3.15
423.422	3.09
423.628	3.13
423.833	2.99
424.039	2.87
424.245	2.98
424.45	2.94
424.656	2.9
424.862	2.87
425.067	2.98
425.273	2.83
425.478	2.69
425.684	2.64
425.889	2.58
426.095	2.49
426.301	2.66
426.506	2.66
426.712	2.59
426.917	2.62
427.123	2.74
427.328	2.66
427.533	2.8
427.739	2.74
427.944	2.81
428.15	2.95
428.355	3
428.561	2.94
428.766	2.76
428.971	2.89
429.177	3.04
429.382	3.24
429.587	3.16
429.793	3.02
429.998	3.01
430.203	2.97
430.408	2.68
430.614	2.85
430.819	2.68
431.024	2.76
431.229	2.74
431.434	2.61
431.64	2.24
431.845	2.28
432.05	2.53
432.255	2.6
432.46	2.6
432.665	2.89
432.87	2.93
433.076	3.03
433.281	3.05
433.486	2.97
433.691	3.02
433.896	3.19
434.101	3.37
434.306	3.18
434.511	3.2
434.716	3.35
434.921	3.28
435.126	3.38
435.331	3.29
435.535	3.09
435.74	3.21
435.945	3.07
436.15	3.06
436.355	2.6
436.56	2.72
436.765	2.76
436.97	2.78
437.174	2.67
437.379	2.5
437.584	2.51
437.789	2.74
437.993	2.65
438.198	2.78
438.403	2.72
438.608	2.95
438.812	2.85
439.017	2.88
439.222	2.71
439.426	2.82
439.631	2.78
439.836	2.92
440.04	2.65
440.245	2.73
440.45	2.9
440.654	2.81
440.859	2.77
441.063	2.88
441.268	2.88
441.472	2.87
441.677	2.87
441.881	2.92
442.086	2.85
442.29	3.12
442.495	3.11
442.699	2.96
442.904	3.19
443.108	3.16
443.312	3.06
443.517	2.99
443.721	2.95
443.925	3.02
444.13	3.07
444.334	2.99
444.538	2.92
444.743	2.88
444.947	2.77
445.151	2.69
445.356	2.74
445.56	2.69
445.764	2.81
445.968	2.73
446.173	2.58
446.377	2.52
446.581	2.59
446.785	2.5
446.989	2.41
447.193	2.46
447.398	2.46
447.602	2.48
447.806	2.56
448.01	2.55
448.214	2.62
448.418	2.66
448.622	2.72
448.826	2.5
449.03	2.6
449.234	2.52
449.438	2.39
449.642	2.39
449.846	2.67
450.05	2.63
450.254	2.45
450.458	2.45
450.662	2.5
450.866	2.53
451.069	2.77
451.273	2.84
451.477	3.06
451.681	3.25
451.885	3.19
452.089	2.72
452.292	2.7
452.496	2.72
452.7	2.71
452.904	2.63
453.107	2.49
453.311	2.6
453.515	2.56
453.719	2.56
453.922	2.49
454.126	2.6
454.33	2.83
454.533	2.92
454.737	2.76
454.94	2.81
455.144	2.74
455.348	2.79
455.551	2.72
455.755	2.78
455.958	2.76
456.162	2.89
456.365	2.68
456.569	2.51
456.772	2.45
456.976	2.8
457.179	2.62
457.383	2.64
457.586	2.6
457.79	2.4
457.993	2.33
458.196	2.34
458.4	2.08
458.603	2.19
458.807	2.27
459.01	2.2
459.213	2
459.417	2.25
459.62	2.35
459.823	2.38
460.026	2.47
460.23	2.43
460.433	2.46
460.636	2.6
460.839	2.66
461.042	2.73
461.246	2.82
461.449	2.92
461.652	2.85
461.855	2.75
462.058	2.71
462.261	2.72
462.464	2.78
462.668	2.67
462.871	2.54
463.074	2.31
463.277	2.32
463.48	2.44
463.683	2.33
463.886	2.2
464.089	2.24
464.292	2.36
464.495	2.35
464.698	2.33
464.901	2.42
465.104	2.47
465.306	2.53
465.509	2.45
465.712	2.15
465.915	2.19
466.118	2.29
466.321	2.21
466.524	2.25
466.726	2.28
466.929	2.23
467.132	2.24
467.335	2.33
467.538	2.45
467.74	2.36
467.943	2.55
468.146	2.74
468.348	2.71
468.551	2.87
468.754	2.72
468.956	2.55
469.159	2.55
469.362	2.62
469.564	2.58
469.767	2.58
469.969	2.61
470.172	2.63
470.375	2.67
470.577	2.5
470.78	2.46
470.982	2.55
471.185	2.76
471.387	2.81
471.59	2.7
471.792	2.84
471.995	2.96
472.197	2.94
472.399	2.9
472.602	2.76
472.804	3
473.007	3.25
473.209	3.18
473.411	3.19
473.614	3.17
473.816	3.08
474.018	3.08
474.22	3.13
474.423	3.16
474.625	3.19
474.827	3.45
475.03	3.36
475.232	3.12
475.434	3.1
475.636	3.12
475.838	3.23
476.04	3.24
476.243	3.04
476.445	2.87
476.647	2.9
476.849	2.89
477.051	2.68
477.253	2.82
477.455	2.77
477.657	2.94
477.859	2.98
478.061	2.84
478.263	2.91
478.465	3.11
478.667	3.08
478.869	3.16
479.071	3.13
479.273	3.19
479.475	2.95
479.677	3.09
479.879	2.97
480.081	2.79
480.283	2.79
480.485	2.89
480.686	2.95
480.888	2.85
481.09	2.77
481.292	2.71
481.494	2.61
481.695	2.66
481.897	2.55
482.099	2.62
482.301	2.58
482.502	2.61
482.704	2.51
482.906	2.44
483.107	2.57
483.309	2.56
483.511	2.55
483.712	2.64
483.914	2.7
484.115	2.72
484.317	2.62
484.519	2.69
484.72	2.66
484.922	2.69
485.123	2.67
485.325	2.62
485.526	2.68
485.728	2.7
485.929	2.67
486.131	2.6
486.332	2.54
486.534	2.65
486.735	2.57
486.936	2.63
487.138	2.64
487.339	2.68
487.541	2.66
487.742	2.68
487.943	2.72
488.144	2.69
488.346	2.71
488.547	2.75
488.748	2.82
488.95	2.89
489.151	2.87
489.352	2.8
489.553	2.73
489.755	2.73
489.956	2.57
490.157	2.53
490.358	2.5
490.559	2.55
490.76	2.56
490.961	2.47
491.163	2.43
491.364	2.46
491.565	2.51
491.766	2.55
491.967	2.63
492.168	2.74
492.369	2.8
492.57	2.8
492.771	2.82
492.972	2.89
493.173	2.91
493.374	2.9
493.575	2.91
493.776	2.92
493.976	2.96
494.177	3
494.378	2.93
494.579	2.82
494.78	2.88
494.981	2.79
495.182	2.71
495.382	2.75
495.583	2.79
495.784	2.75
495.985	2.72
496.185	2.7
496.386	2.72
496.587	2.79
496.788	2.95
496.988	3.03
497.189	3.05
497.39	3.08
497.59	3.03
497.791	3.07
497.992	3.08
498.192	3.09
498.393	3.04
498.593	2.72
498.794	2.71
498.994	2.52
499.195	2.43
499.395	2.44
499.596	2.46
499.796	2.42
499.997	2.47
500.197	2.41
500.398	2.5
500.598	2.58
500.799	2.91
500.999	2.9
501.199	3.11
501.4	3.16
501.6	3.18
501.801	3.16
502.001	3.32
502.201	3.21
502.402	3.14
502.602	3.13
502.802	3.19
503.002	3.1
503.203	3.07
503.403	3
503.603	3.1
503.803	2.88
504.003	2.87
504.204	2.82
504.404	2.85
504.604	3.05
504.804	3.09
505.004	3.06
505.204	2.97
505.404	3.04
505.604	2.9
505.804	2.8
506.005	2.96
506.205	2.91
506.405	3.02
506.605	2.93
506.805	2.87
507.005	2.86
507.204	2.64
507.404	2.71
507.604	2.61
507.804	2.73
508.004	2.84
508.204	2.82
508.404	2.85
508.604	2.52
508.804	2.62
509.003	2.61
509.203	2.63
509.403	2.87
509.603	2.86
509.803	2.99
510.002	3.02
510.202	2.9
510.402	2.96
510.602	2.87
510.801	3.06
511.001	3.14
511.201	3.18
511.4	3.09
511.6	2.94
511.8	2.94
511.999	2.99
512.199	2.98
512.398	3.09
512.598	3.18
512.797	3.4
512.997	3.42
513.197	3.3
513.396	3.34
513.596	3.52
513.795	3.59
513.994	3.58
514.194	3.44
514.393	3.48
514.593	3.55
514.792	3.56
514.992	3.29
515.191	3.35
515.39	3.36
515.59	3.45
515.789	3.31
515.988	3.29
516.188	3.28
516.387	3.34
516.586	3.27
516.786	3.08
516.985	2.88
517.184	2.93
517.383	2.93
517.582	2.98
517.782	2.99
517.981	2.99
518.18	2.97
518.379	3.03
518.578	3.01
518.777	3.08
518.976	3.07
519.176	3.18
519.375	3.21
519.574	3.18
519.773	3.16
519.972	3.01
520.171	3.11
520.37	3.2
520.569	3.18
520.768	3.23
520.967	3.16
521.166	3.17
521.365	3.12
521.564	3.09
521.762	2.99
521.961	3.07
522.16	3.12
522.359	3.01
522.558	2.98
522.757	2.9
522.956	2.91
523.154	2.94
523.353	3
523.552	3.01
523.751	3.14
523.949	3.2
524.148	3.13
524.347	3.09
524.546	3.17
524.744	3.16
524.943	3.33
525.142	3.43
525.34	3.51
525.539	3.52
525.737	3.5
525.936	3.47
526.135	3.47
526.333	3.49
526.532	3.65
526.73	3.61
526.929	3.67
527.127	3.64
527.326	3.58
527.524	3.47
527.723	3.53
527.921	3.6
528.12	3.58
528.318	3.63
528.516	3.71
528.715	3.69
528.913	3.71
529.112	3.72
529.31	3.71
529.508	3.74
529.707	3.82
529.905	3.82
530.103	3.83
530.301	3.9
530.5	3.92
530.698	3.86
530.896	3.77
531.094	3.84
531.293	3.89
531.491	3.94
531.689	3.92
531.887	3.97
532.085	3.83
532.283	3.87
532.481	3.87
532.68	3.85
532.878	3.9
533.076	3.99
533.274	3.87
533.472	3.91
533.67	3.96
533.868	4.05
534.066	4
534.264	4.12
534.462	4.14
534.66	4.17
534.858	4.15
535.056	4.07
535.253	4.07
535.451	4.16
535.649	4.12
535.847	4.09
536.045	4.01
536.243	4.06
536.441	4.04
536.638	4.05
536.836	3.94
537.034	4.07
537.232	4.13
537.43	4.18
537.627	4.17
537.825	4.11
538.023	4.12
538.22	4.25
538.418	4.2
538.616	4.28
538.813	4.46
539.011	4.62
539.209	4.71
539.406	4.81
539.604	4.75
539.801	4.8
539.999	4.83
540.196	4.89
540.394	4.85
540.591	4.89
540.789	4.88
540.986	4.71
541.184	4.68
541.381	4.7
541.579	4.69
541.776	4.72
541.974	4.78
542.171	4.77
542.368	4.78
542.566	4.81
542.763	4.81
542.96	4.76
543.158	4.79
543.355	4.92
543.552	4.9
543.75	4.99
543.947	5.02
544.144	5
544.341	5.07
544.539	4.95
544.736	4.83
544.933	4.86
545.13	4.97
545.327	5.01
545.524	5.03
545.722	5.12
545.919	4.99
546.116	5.07
546.313	5.09
546.51	5.19
546.707	5.22
546.904	5.35
547.101	5.47
547.298	5.42
547.495	5.54
547.692	5.49
547.889	5.44
548.086	5.54
548.283	5.57
548.48	5.68
548.677	5.7
548.874	5.98
549.07	5.99
549.267	5.89
549.464	6.01
549.661	5.95
549.858	6.07
550.055	6.15
550.251	6.32
550.448	6.5
550.645	6.4
550.842	6.4
551.038	6.41
551.235	6.63
551.432	6.66
551.628	6.96
551.825	7.13
552.022	7.25
552.218	7.31
552.415	7.28
552.612	7.11
552.808	7.33
553.005	7.39
553.201	7.3
553.398	7.26
553.594	7.48
553.791	7.3
553.987	7.29
554.184	7.2
554.38	7.19
554.577	7.16
554.773	7.29
554.97	7.35
555.166	7.31
555.362	7.3
555.559	6.95
555.755	6.84
555.952	7.22
556.148	7.26
556.344	7.3
556.541	7.44
556.737	7.56
556.933	7.59
557.129	7.52
557.326	7.61
557.522	7.9
557.718	8.25
557.914	8.15
558.11	7.95
558.307	8.03
558.503	8.18
558.699	7.99
558.895	8.09
559.091	8.09
559.287	8.05
559.483	8.08
559.679	7.99
559.876	8.03
560.072	8.17
560.268	8.01
560.464	8
560.66	7.89
560.856	7.99
561.052	8.15
561.247	8.38
561.443	8.43
561.639	8.43
561.835	8.58
562.031	8.68
562.227	8.67
562.423	8.84
562.619	8.92
562.815	8.75
563.01	8.9
563.206	8.66
563.402	8.69
563.598	8.69
563.793	8.73
563.989	8.59
564.185	8.57
564.381	8.61
564.576	8.52
564.772	8.38
564.968	8.77
565.163	8.69
565.359	8.85
565.555	8.74
565.75	8.91
565.946	9.04
566.141	9.3
566.337	9.31
566.532	9.22
566.728	9.39
566.923	9.44
567.119	9.28
567.314	9.34
567.51	9.53
567.705	9.66
567.901	9.67
568.096	9.47
568.292	9.31
568.487	9.42
568.682	9.68
568.878	9.73
569.073	10.02
569.268	10.27
569.464	10.42
569.659	10.27
569.854	10.32
570.05	10.39
570.245	10.59
570.44	10.67
570.635	10.61
570.831	10.69
571.026	10.74
571.221	10.47
571.416	10.49
571.611	10.47
571.806	10.55
572.002	10.58
572.197	10.53
572.392	10.58
572.587	10.55
572.782	10.7
572.977	10.79
573.172	10.78
573.367	11.06
573.562	10.83
573.757	10.85
573.952	10.87
574.147	10.79
574.342	10.79
574.537	10.92
574.732	10.91
574.927	10.81
575.121	10.54
575.316	10.64
575.511	10.43
575.706	10.79
575.901	10.74
576.096	10.68
576.29	10.84
576.485	10.98
576.68	10.82
576.875	11.01
577.069	11.2
577.264	11.2
577.459	11.02
577.654	11.21
577.848	11.1
578.043	11.3
578.238	11.21
578.432	11.11
578.627	10.91
578.821	11.01
579.016	10.94
579.21	10.64
579.405	10.79
579.6	10.8
579.794	10.96
579.989	11.05
580.183	10.86
580.378	11.11
580.572	10.96
580.766	11
580.961	10.97
581.155	11.08
581.35	11.2
581.544	11.41
581.738	11.58
581.933	11.39
582.127	11.37
582.321	11.46
582.516	11.59
582.71	11.67
582.904	11.8
583.099	11.78
583.293	11.36
583.487	11.47
583.681	11.53
583.875	11.21
584.07	11.43
584.264	11.43
584.458	11.53
584.652	11.44
584.846	11.67
585.04	11.57
585.234	11.78
585.428	12.19
585.623	12.46
585.817	12.62
586.011	13.1
586.205	12.88
586.399	12.74
586.593	12.62
586.787	12.68
586.981	12.22
587.174	12.23
587.368	12.22
587.562	12.38
587.756	12.04
587.95	11.58
588.144	11.29
588.338	11.64
588.532	11.6
588.725	11.49
588.919	11.53
589.113	12
589.307	12.22
589.501	12.18
589.694	11.96
589.888	12.01
590.082	12.09
590.275	12.23
590.469	11.88
590.663	12.01
590.856	12.28
591.05	12.11
591.244	11.87
591.437	11.76
591.631	11.64
591.824	11.45
592.018	11.39
592.212	11.56
592.405	11.62
592.599	11.7
592.792	11.74
592.986	11.66
593.179	11.75
593.372	11.88
593.566	11.83
593.759	11.96
593.953	12.2
594.146	12.19
594.339	12.29
594.533	12.15
594.726	12.01
594.92	11.95
595.113	11.86
595.306	12.17
595.499	12.11
595.693	12.29
595.886	12.27
596.079	12.16
596.272	12.45
596.466	12.35
596.659	12.29
596.852	12.3
597.045	12.44
597.238	12.54
597.431	12.18
597.624	12.28
597.818	12.15
598.011	12.21
598.204	12.24
598.397	12.05
598.59	12.08
598.783	12.17
598.976	12.26
599.169	12.14
599.362	11.98
599.555	12.18
599.748	12.26
599.941	12.27
600.134	12.2
600.326	12.3
600.519	12.3
600.712	12.19
600.905	12.05
601.098	11.99
601.291	12.18
601.483	12.21
601.676	12.11
601.869	11.89
602.062	12.1
602.255	12.26
602.447	12.12
602.64	12.14
602.833	12.22
603.025	12.13
603.218	12.21
603.411	11.94
603.603	12.08
603.796	12.16
603.989	12.15
604.181	12.15
604.374	12.04
604.566	12.35
604.759	12.4
604.951	12.47
605.144	12.63
605.336	12.6
605.529	12.86
605.721	12.81
605.914	12.79
606.106	12.95
606.299	12.76
606.491	12.95
606.683	12.58
606.876	12.37
607.068	12.51
607.26	12.64
607.453	12.7
607.645	12.48
607.837	12.68
608.03	12.71
608.222	12.71
608.414	12.71
608.606	12.65
608.799	12.93
608.991	13.1
609.183	12.92
609.375	12.7
609.567	12.75
609.759	12.83
609.952	12.62
610.144	12.63
610.336	12.38
610.528	12.59
610.72	12.69
610.912	12.46
611.104	12.54
611.296	12.49
611.488	12.7
611.68	12.86
611.872	12.84
612.064	13.06
612.256	12.92
612.448	13.22
612.64	13.24
612.832	12.77
613.023	12.83
613.215	12.69
613.407	12.68
613.599	12.68
613.791	12.51
613.983	12.33
614.174	12.25
614.366	12.16
614.558	11.91
614.75	11.84
614.941	11.76
615.133	11.83
615.325	11.81
615.516	11.68
615.708	11.59
615.9	11.69
616.091	11.8
616.283	11.71
616.475	12.04
616.666	12.25
616.858	12.1
617.049	12.51
617.241	12.36
617.432	12.48
617.624	12.7
617.815	12.76
618.007	12.35
618.198	12.34
618.39	12.25
618.581	11.94
618.773	11.7
618.964	11.63
619.155	11.44
619.347	11.58
619.538	11.61
619.729	11.65
619.921	11.39
620.112	11.76
620.303	11.78
620.494	11.85
620.686	12.06
620.877	12.11
621.068	12.28
621.259	12.64
621.451	12.63
621.642	12.48
621.833	12.59
622.024	12.7
622.215	12.64
622.406	12.35
622.597	12.42
622.788	12.57
622.98	12.67
623.171	12.42
623.362	12.05
623.553	12.14
623.744	12.33
623.935	11.95
624.126	12.15
624.317	12.15
624.508	12.3
624.698	11.97
624.889	12.12
625.08	12.18
625.271	12.21
625.462	12.34
625.653	12.49
625.844	12.28
626.034	12.28
626.225	12.27
626.416	12.24
626.607	12.44
626.798	12.75
626.988	12.59
627.179	12.55
627.37	12.64
627.56	12.88
627.751	12.87
627.942	13.14
628.132	13.2
628.323	13.31
628.514	13.26
628.704	13.2
628.895	13.24
629.085	13.13
629.276	13.07
629.466	13.2
629.657	13.09
629.847	12.88
630.038	12.85
630.228	13.08
630.419	12.98
630.609	12.98
630.8	13.23
630.99	13.48
631.181	13.39
631.371	13.37
631.561	13.56
631.752	13.32
631.942	13.05
632.132	12.71
632.323	12.48
632.513	12.36
632.703	12.08
632.893	11.79
633.084	11.77
633.274	12.04
633.464	12.11
633.654	11.9
633.844	12.06
634.034	12.18
634.225	12.21
634.415	12.32
634.605	12.43
634.795	12.59
634.985	12.54
635.175	12.32
635.365	11.97
635.555	12.01
635.745	12.39
635.935	12.24
636.125	12.04
636.315	12.19
636.505	12.17
636.695	12.02
636.885	12.04
637.075	12.3
637.265	12.45
637.455	12.7
637.644	12.95
637.834	12.94
638.024	13.01
638.214	13.24
638.404	13.15
638.593	12.89
638.783	13.24
638.973	13.08
639.163	12.9
639.352	12.7
639.542	12.4
639.732	12.18
639.921	11.89
640.111	12.06
640.301	12.33
640.49	11.99
640.68	12.15
640.87	11.88
641.059	12.37
641.249	12.58
641.438	12.5
641.628	13.01
641.817	13.19
642.007	12.88
642.196	13.04
642.386	12.79
642.575	13.09
642.764	13.02
642.954	13.07
643.143	12.83
643.333	12.71
643.522	12.65
643.711	12.58
643.901	12.37
644.09	12.22
644.279	11.88
644.469	12.25
644.658	12.41
644.847	13.03
645.036	13.34
645.226	13.8
645.415	13.7
645.604	13.66
645.793	13.73
645.982	13.79
646.171	14.32
646.361	14.44
646.55	14.24
646.739	14.45
646.928	14.15
647.117	13.78
647.306	13.63
647.495	13.71
647.684	14.28
647.873	14.21
648.062	13.88
648.251	13.24
648.44	13.3
648.629	13.26
648.818	13.33
649.007	13.08
649.196	13
649.384	12.82
649.573	12.91
649.762	12.6
649.951	12.31
650.14	12.59
650.328	13.24
650.517	13.04
650.706	13.2
650.895	12.63
651.083	12.65
651.272	13.05
651.461	13.03
651.65	13.12
651.838	13.24
652.027	13.37
652.216	13.83
652.404	13.72
652.593	13.85
652.781	13.42
652.97	13.67
653.158	14.04
653.347	14.02
653.535	13.78
653.724	13.73
653.912	13.28
654.101	12.93
654.289	12.43
654.478	12.18
654.666	12.14
654.855	12.62
655.043	12.62
655.231	12.65
655.42	12.72
655.608	13.09
655.796	12.9
655.985	13.36
656.173	13.76
656.361	13.89
656.55	14.03
656.738	14.09
656.926	14.45
657.114	14.33
657.302	14.04
657.491	13.68
657.679	13.59
657.867	13.67
658.055	13.31
658.243	13.21
658.431	13.03
658.619	13.02
658.807	13.1
658.996	13.01
659.184	13.23
659.372	13.37
659.56	13.62
659.748	13.75
659.936	13.63
660.124	13.41
660.311	13.42
660.499	13.51
660.687	13.34
660.875	13.05
661.063	12.6
661.251	12.49
661.439	12.17
661.627	11.77
661.814	11.4
662.002	11.36
662.19	11.96
662.378	12.15
662.565	12.41
662.753	12.97
662.941	12.59
663.129	12.88
663.316	13.12
663.504	13.52
663.692	13.81
663.879	13.63
664.067	13.77
664.254	13.25
664.442	12.74
664.63	12.24
664.817	11.74
665.005	12.64
665.192	12.4
665.38	12.35
665.567	12.11
665.755	12.25
665.942	12.5
666.13	12.76
666.317	12.84
666.504	13.16
666.692	13.5
666.879	13.56
667.067	13.04
667.254	12.96
667.441	12.64
667.629	12.33
667.816	11.84
668.003	11.99
668.19	11.85
668.378	12.06
668.565	12.18
668.752	12.06
668.939	12.07
669.127	12.06
669.314	12.29
669.501	12.5
669.688	12.85
669.875	12.97
670.062	13.13
670.249	12.77
670.436	13
670.623	12.85
670.81	12.64
670.997	12.53
671.184	12.92
671.371	12.85
671.558	12.33
671.745	12.43
671.932	12.59
672.119	12.35
672.306	12.83
672.493	12.61
672.68	12.5
672.867	12.68
673.054	13.31
673.24	12.72
673.427	12.72
673.614	13.38
673.801	13.18
673.988	13.21
674.174	13.03
674.361	13.11
674.548	13.19
674.734	13.7
674.921	13.57
675.108	13.05
675.294	13.33
675.481	13.15
675.668	12.82
675.854	12.98
676.041	13.31
676.227	13.22
676.414	12.97
676.601	12.93
676.787	12.75
676.974	13.01
677.16	12.56
677.347	12.54
677.533	12.55
677.719	12.98
677.906	13.27
678.092	12.55
678.279	12.85
678.465	12.97
678.651	12.62
678.838	12.56
679.024	12.44
679.21	13.03
679.397	13.41
679.583	13.73
679.769	13.58
679.955	13.29
680.142	13.71
680.328	13.71
680.514	13.5
680.7	14.1
680.886	14.34
681.073	14.59
681.259	14.37
681.445	13.91
681.631	13.89
681.817	13.71
682.003	13.47
682.189	13.56
682.375	13.6
682.561	13.52
682.747	13.43
682.933	12.96
683.119	12.87
683.305	13.02
683.491	13.56
683.677	13.53
683.863	13.77
684.049	14.07
684.235	14.11
684.42	14.04
684.606	14.28
684.792	13.84
684.978	14.24
685.164	14.3
685.349	14.2
685.535	13.44
685.721	13.68
685.907	14.1
686.092	14.5
686.278	14.13
686.464	13.89
686.649	13.86
686.835	13.97
687.021	13.92
687.206	13.6
687.392	13.83
687.577	14.22
687.763	14.07
687.948	13.95
688.134	13.53
688.319	13.6
688.505	13.4
688.69	13.45
688.876	13.26
689.061	13.02
689.247	13.27
689.432	13.09
689.618	12.99
689.803	12.85
689.988	12.74
690.174	12.77
690.359	12.83
690.544	13.58
690.73	13.78
690.915	14.17
691.1	14.24
691.285	14.16
691.471	13.84
691.656	14.9
691.841	14.73
692.026	14.2
692.211	14.32
692.396	14.54
692.582	14.52
692.767	14.1
692.952	13.82
693.137	13.94
693.322	13.76
693.507	14.14
693.692	13.35
693.877	13.19
694.062	13.67
694.247	13.45
694.432	13.33
694.617	13.39
694.802	13.83
694.987	13.66
695.172	14.13
695.357	14.24
695.541	14.45
695.726	14.47
695.911	15
696.096	14.7
696.281	15.19
696.466	15.26
696.65	15.02
696.835	14.88
697.02	15.23
697.204	14.66
697.389	14.47
697.574	13.99
697.759	14.38
697.943	14.64
698.128	14.54
698.312	14.51
698.497	14.1
698.682	14.06
698.866	14.24
699.051	14.49
699.235	14.56
699.42	15.08
699.604	15.7
699.789	15.55
699.973	15.22
700.158	15.09
700.342	14.41
700.527	14.11
700.711	14.05
700.895	13.9
701.08	13.28
701.264	12.92
701.448	12.48
701.633	12.31
701.817	12.34
702.001	12.37
702.186	11.95
702.37	12.35
702.554	13.03
702.738	13.09
702.923	12.25
703.107	13.13
703.291	13.68
703.475	14.41
703.659	13.78
703.843	13.15
704.027	13.46
704.212	14.17
704.396	14.28
704.58	14.81
704.764	15.35
704.948	15.23
705.132	15.16
705.316	14.65
705.5	14.47
705.684	15.23
705.868	15.5
706.052	15.04
706.235	15.91
706.419	15.51
706.603	14.86
706.787	14.18
706.971	15.33
707.155	14.85
707.339	15.44
707.522	14.34
707.706	13.4
707.89	13.27
708.074	12.68
708.257	12.59
708.441	13.1
708.625	13.31
708.808	13.74
708.992	13.56
709.176	13.26
709.359	13.36
709.543	14.11
709.727	14.6
709.91	14.73
710.094	15.53
710.277	15.29
710.461	14.86
710.644	15.16
710.828	15.75
711.011	15.41
711.195	15.4
711.378	14.97
711.562	14.99
711.745	14.45
711.928	14.4
712.112	14.32
712.295	14.07
712.478	14.37
712.662	13.55
712.845	12.89
713.028	12.99
713.212	13.26
713.395	13.16
713.578	13.16
713.761	13.94
713.945	13.85
714.128	13.76
714.311	13.88
714.494	14.18
714.677	15.75
714.86	15.87
715.043	16.88
715.227	17.09
715.41	17.87
715.593	17.22
715.776	16.48
715.959	16.29
716.142	16.73
716.325	16.13
716.508	16.27
716.691	14.58
716.874	14.19
717.057	12.91
717.239	13.15
717.422	12.59
717.605	13.11
717.788	13.76
717.971	14.4
718.154	14.25
718.337	14.42
718.519	14.06
718.702	14.85
718.885	14.97
719.068	16.01
719.25	15.56
719.433	15.79
719.616	16.57
719.798	15.73
719.981	15.18
720.164	14.95
720.346	14.94
720.529	15.63
720.712	15.22
720.894	15.33
721.077	14.62
721.259	15.12
721.442	14.23
721.624	13.05
721.807	13.31
721.989	13.41
722.172	12.24
722.354	13.27
722.537	12.29
722.719	12.73
722.901	11.61
723.084	12.41
723.266	12.52
723.448	12.46
723.631	13.04
723.813	13.36
723.995	13.05
724.178	14.05
724.36	13.41
724.542	13.71
724.724	13.7
724.907	14.82
725.089	13.56
725.271	12.61
725.453	13.43
725.635	13.12
725.817	12.63
725.999	13.45
726.181	14.19
726.364	13.9
726.546	13.73
726.728	14.66
726.91	14.79
727.092	15.25
727.274	15.64
727.456	16.09
727.638	16.6
727.819	17.09
728.001	16.21
728.183	16.01
728.365	16.9
728.547	17.13
728.729	16.81
728.911	17.41
729.093	17.56
729.274	17.09
729.456	17.15
729.638	15.95
729.82	16.3
730.001	16.9
730.183	16.5
730.365	16
730.546	15.77
730.728	15.11
730.91	13.98
731.091	14.31
731.273	14.47
731.455	13.54
731.636	14.35
731.818	13.49
731.999	13.04
732.181	13.57
732.362	13.86
732.544	13.45
732.725	13.3
732.907	13.83
733.088	13.66
733.27	14.42
733.451	14.99
733.633	14.26
733.814	15.46
733.995	16.16
734.177	14.92
734.358	15
734.539	15.6
734.721	15.36
734.902	15.31
735.083	15.48
735.264	15.31
735.446	16.14
735.627	17.34
735.808	16.63
735.989	16.39
736.17	16.33
736.351	16.13
736.533	16.07
736.714	16.73
736.895	15.41
737.076	15.43
737.257	14.76
737.438	13.26
737.619	11.83
737.8	11.53
737.981	11.28
738.162	12.95
738.343	12.78
738.524	12.89
738.705	13.7
738.886	14.39
739.067	14.52
739.247	14.75
739.428	14.63
739.609	14.81
739.79	15.03
739.971	15.97
740.151	14.54
740.332	15.11
740.513	15.34
740.694	14.95
740.874	15.67
741.055	15.56
741.236	15.3
741.417	16.27
741.597	15.91
741.778	15.24
741.958	14.46
742.139	15.51
742.32	14.36
742.5	13.84
742.681	14.18
742.861	13.43
743.042	12.85
743.222	12.06
743.403	11.93
743.583	12.78
743.764	13.07
743.944	12.53
744.124	11.02
744.305	11.77
744.485	12.06
744.666	11.14
744.846	11.53
745.026	12.47
745.207	13.84
745.387	13.84
745.567	14.97
745.747	15.32
745.928	15.69
746.108	17.15
746.288	18.22
746.468	18.21
746.648	19.03
746.829	18.77
747.009	17.26
747.189	17.3
747.369	17.91
747.549	18.3
747.729	19.07
747.909	19.38
748.089	20.13
748.269	19.34
748.449	20.32
748.629	19.24
748.809	19.61
748.989	20.33
749.169	20.21
749.349	19.93
749.529	17.73
749.709	17.48
749.889	17.2
750.068	16.13
750.248	16.06
750.428	13.77
750.608	13.79
750.788	12.44
750.967	10.92
751.147	10.73
751.327	11.12
751.507	12.48
751.686	12.7
751.866	13.94
752.046	14.47
752.225	14.53
752.405	15.59
752.585	17.26
752.764	18.67
752.944	19.13
753.123	18.83
753.303	18.74
753.482	17.53
753.662	16.27
753.841	14.57
754.021	15.41
754.2	15.64
754.38	15.78
754.559	14.46
754.739	13.64
754.918	13.52
755.097	14.56
755.277	14.06
755.456	13.93
755.635	14.66
755.815	15.52
755.994	13.61
756.173	13.57
756.352	13.57
756.532	13.79
756.711	14.23
756.89	15.48
757.069	14.79
757.248	14.02
757.427	15.36
757.607	15.06
757.786	15.19
757.965	15.76
758.144	15.16
758.323	15.16
758.502	16.52
758.681	15.92
758.86	16.68
759.039	16.94
759.218	16.56
759.397	16.46
759.576	17.15
759.755	16.38
759.934	17.19
760.113	16.82
760.291	17.15
760.47	15.4
760.649	16.45
760.828	16.88
761.007	16.06
761.186	16.51
761.364	16.84
761.543	16.37
761.722	16.28
761.901	15.35
762.079	15.43
762.258	15.3
762.437	15.98
762.615	16.48
762.794	15.87
762.972	16.24
763.151	16.44
763.33	16.66
763.508	16.91
763.687	17.67
763.865	17.32
764.044	17.59
764.222	17.11
764.401	17.24
764.579	16.74
764.758	16.09
764.936	16.49
765.114	16.3
765.293	15.78
765.471	15.15
765.65	15.11
765.828	15.92
766.006	16.57
766.184	17.2
766.363	17.27
766.541	17.19
766.719	17.47
766.898	16.2
767.076	17.05
767.254	17
767.432	17.18
767.61	16.94
767.788	15.47
767.967	14.02
768.145	14.14
768.323	13.38
768.501	12.82
768.679	13.45
768.857	14.08
769.035	12.73
769.213	12.02
769.391	11.27
769.569	10.53
769.747	10.86
769.925	12.13
770.103	10.48
770.281	11.36
770.459	13.42
770.636	11.94
770.814	13.69
770.992	14.33
771.17	15.26
771.348	14.77
771.525	15.62
771.703	15.88
771.881	16.25
772.059	18.47
772.236	17.73
772.414	16.16
772.592	17.68
772.769	16.52
772.947	16.76
773.125	17.46
773.302	21.19
773.48	20.33
773.657	21.21
773.835	20.92
774.013	19.61
774.19	20.64
774.368	20.99
774.545	20.85
774.723	22.22
774.9	22.42
775.077	20.91
775.255	18.28
775.432	21.5
775.61	21.31
775.787	19.51
775.964	18.67
776.142	15.7
776.319	15.08
776.496	14.35
776.674	12.24
776.851	13.26
777.028	14.55
777.205	15.31
777.382	14.26
777.56	15.33
777.737	17.69
777.914	19.58
778.091	22.55
778.268	24.03
778.445	23.6
778.622	23.92
778.8	24.05
778.977	23.41
779.154	22.37
779.331	19.52
779.508	17.01
779.685	16.9
779.862	15.58
780.038	13.92
780.215	11.78
780.392	13.79
780.569	13.76
780.746	12.21
780.923	11.44
781.1	14.33
781.277	14.67
781.453	15.38
781.63	12.92
781.807	14.69
781.984	15.89
782.16	14.11
782.337	11.33
782.514	11.92
782.691	13.45
782.867	15.52
783.044	14.13
783.221	15.56
783.397	15.27
783.574	14.82
783.75	12.38
783.927	12.81
784.103	14.78
784.28	14.79
784.456	14.86
784.633	13.92
784.809	13.26
784.986	12.61
785.162	11.59
785.339	13.23
785.515	15.2
785.692	15.21
785.868	13.65
786.044	12
786.221	14.8
786.397	12.8
786.573	13.64
786.749	13.53
786.926	13.91
787.102	10.63
787.278	10.1
787.454	9.5
787.631	11.41
787.807	10.91
787.983	13.16
788.159	12
788.335	14.9
788.511	12.76
788.687	10.76
788.863	9.43
789.039	14.71
789.216	14.45
789.392	14.78
789.568	12.62
789.744	11.44
789.919	11.33
790.095	11.17
790.271	10.65
790.447	12.07
790.623	14.71
790.799	14.24
790.975	15.05
791.151	16.14
791.327	15.48
791.502	17.81
791.678	20.6
791.854	19.94
792.03	19.5
792.205	18.76
792.381	19.29
792.557	17.05
792.733	18.87
792.908	18.39
793.084	16.56
793.259	17.71
793.435	19.25
793.611	18.12
793.786	18.84
793.962	20.21
794.137	18.57
794.313	15.14
794.488	16.13
794.664	16.2
794.839	13.29
795.015	12.45
795.19	10.64
795.366	6.64
795.541	8.81
795.716	8.03
795.892	7.17
796.067	5.83
796.242	5.84
796.418	6.31
796.593	7.11
796.768	5.49
796.944	4.01
797.119	5.18
797.294	8.09
797.469	3.98
797.644	4.81
797.82	4.25
797.995	7.96
798.17	8.79
798.345	8.6
798.52	5.46
798.695	7.02
798.87	11.4
799.045	11.27
799.22	10.52
799.395	13.36
799.57	11.7
799.745	13.71
799.92	12.86
800.095	15.36
800.27	16.13
800.445	18.27
800.62	20.06
800.795	18.94
800.97	19.78
801.145	18.5
801.319	16.59
801.494	15.59
801.669	10.23
801.844	9.14
802.018	9.57
802.193	8.25
802.368	5.13
802.543	3.82
802.717	3.87
802.892	1.82
803.067	5.83
803.241	8.78
803.416	13.4
803.59	18.5
803.765	17.16
803.94	15.63
804.114	16.39
804.289	20.47
804.463	19.05
804.638	21.76
804.812	23.28
804.986	19.04
805.161	17.51
805.335	15.5
805.51	11.09
805.684	15.28
805.858	13.86
806.033	13.83
806.207	9.05
806.381	9.79
806.556	8.3
806.73	8.49
806.904	9.74
807.078	8.39
807.253	10.46
807.427	11.26
807.601	12.04
807.775	13.41
807.949	12.49
808.123	16.78
808.298	17.09
808.472	15.35
808.646	11.74
808.82	8.48
808.994	12.31
809.168	10.51
809.342	12.6
809.516	11.64
809.69	10.48
809.864	12.9
810.038	8.93
810.212	11.1
810.385	11.48
810.559	11.85
810.733	15.8
810.907	12.86
811.081	11.42
811.255	12.19
811.428	8.27
811.602	6.95
811.776	4.06
811.95	5.68
812.123	6.08
812.297	6.81
812.471	10.33
812.644	7.37
812.818	5.07
812.992	6.65
813.165	4.41
813.339	3.66
813.512	6.8
813.686	8.71
813.86	6.11
814.033	2.72
814.207	1.21
814.38	-1.62
814.554	2.88
814.727	7.14
814.9	7.62
815.074	7.35
815.247	10.23
815.421	13.82
815.594	13.71
815.767	18.25
815.941	17.36
816.114	17.03
816.287	23.27
816.46	21.68
816.634	21.86
816.807	22.88
816.98	23.02
817.153	19.23
817.327	16.7
817.5	16.89
817.673	14.74
817.846	17.99
818.019	19.05
818.192	12.97
818.365	12.51
818.538	11.09
818.711	7.24
818.884	9.17
819.057	14.3
819.23	15.64
819.403	15.77
819.576	17.69
819.749	14.64
819.922	13.38
820.095	17.59
820.268	17.3
820.441	14.93
820.614	16.8
820.786	19.71
820.959	17.06
821.132	16.33
821.305	16.26
821.477	17.11
821.65	18.36
821.823	17.5
821.996	16.48
822.168	17.63
822.341	18.59
822.514	17.71
822.686	16.96
822.859	18.06
823.031	17.24
823.204	16.9
823.376	16.95
823.549	16.81
823.722	17.77
823.894	18.23
824.067	17.34
824.239	16.84
824.411	17.56
824.584	17.05
824.756	16.57
824.929	18.14
825.101	18.83
825.273	18.45
825.446	18.2
825.618	17.7
825.79	17.15
825.963	17.43
826.135	18.55
826.307	20.13
826.479	21.46
826.652	19.93
826.824	18.63
826.996	19.07
827.168	18.23
827.34	18.34
827.512	18
827.684	18.13
827.856	17.2
828.029	16.18
828.201	14.29
828.373	13.29
828.545	16.01
828.717	16.55
828.889	16.55
829.061	16.4
829.232	16.78
829.404	18.93
829.576	17.98
829.748	21.06
829.92	21.19
830.092	19.66
830.264	20.4
830.436	19.49
830.607	17.3
830.779	15.17
830.951	15.61
831.123	15.38
831.294	9.35
831.466	6.91
831.638	4.93
831.809	3.94
831.981	5
832.153	2.95
832.324	0.94
832.496	1.78
832.667	3.72
832.839	2.99
833.011	3.28
833.182	6.85
833.354	7.75
833.525	7.59
833.697	8.23
833.868	10.6
834.039	9.09
834.211	10.4
834.382	13.34
834.554	14.76
834.725	14.05
834.896	15.72
835.068	15.53
835.239	17.42
835.41	18.6
835.581	19.56
835.753	17.74
835.924	19.52
836.095	18.12
836.266	16.81
836.438	15.97
836.609	17.81
836.78	16.07
836.951	16.36
837.122	15.87
837.293	13.11
837.464	13.92
837.635	18.77
837.806	16.61
837.977	17.97
838.148	20.08
838.319	16.08
838.49	13.3
838.661	15.15
838.832	14.22
839.003	16.51
839.174	19.64
839.345	15.8
839.516	12.82
839.687	18.68
839.857	16.65
840.028	11.65
840.199	17.05
840.37	26.3
840.54	22.3
840.711	23.51
840.882	23.85
841.053	19.51
841.223	20.35
841.394	20.53
841.564	20.88
841.735	21.76
841.906	22.39
842.076	18.85
842.247	15.21
842.417	13.66
842.588	14.94
842.758	12
842.929	14.13
843.099	20.86
843.27	19.31
843.44	18.39
843.611	18.09
843.781	20.75
843.951	19.9
844.122	18.31
844.292	24.8
844.462	22.73
844.633	17.99
844.803	18.05
844.973	12.25
845.144	12.98
845.314	7.31
845.484	1.53
845.654	-3.37
845.824	-3.84
845.995	-8.87
846.165	-21.43
846.335	-18.82
846.505	-0.32
846.675	0.07
846.845	-1.78
847.015	0.71
847.185	-0.88
847.355	4.92
847.525	16.18
847.695	13.29
847.865	10.64
848.035	22.44
848.205	21.99
848.375	29.26
848.545	32.47
848.715	27.42
848.884	21.57
849.054	30.46
849.224	34.5
849.394	20.65
849.564	14.95
849.733	29.81
849.903	17.25
850.073	19.7
850.243	9.22
850.412	6.59
850.582	14.48
850.752	23.38
850.921	24.25
851.091	16.26
851.26	27.59
851.43	29.81
851.599	18.71
851.769	22.14
851.939	21.19
852.108	20.54
852.278	20.88
852.447	19.56
852.616	21.28
852.786	19.65
852.955	25.09
853.125	21.09
853.294	25.03
853.463	21.7
853.633	25
853.802	11.37
853.971	19.31
854.141	23.17
854.31	23.5
854.479	11.76
854.648	0.99
854.818	-1.37
854.987	-0.57
855.156	1.42
855.325	4.74
855.494	-1.06
855.663	9.48
855.832	11.56
856.001	-1.34
856.171	8.87
856.34	21.31
856.509	31.15
856.678	34.29
856.847	34.1
857.016	48.61
857.185	49.33
857.353	43.26
857.522	45.33
857.691	33.01
857.86	35.59
858.029	17.98
858.198	2.99
858.367	-4.16
858.535	-12.62
858.704	-10.15
858.873	-20.78
859.042	-29.11
859.21	-15.56
859.379	-17.57
859.548	-20.04
859.717	-1.28
859.885	5.29
860.054	13.38
860.222	7.23
860.391	22.71
860.56	12.37
860.728	2.32
860.897	0.32
861.065	-10.77
861.234	-18.87
861.402	-22.91
861.571	-27.7
861.739	-21.23
861.908	-26.35
862.076	-18.54
862.244	-31.43
862.413	-13.14
862.581	-6.04
862.749	6.41
862.918	8.46
863.086	16.82
863.254	32.83
863.423	34.59
863.591	38.74
863.759	30.85
863.927	30.86
864.096	28.21
864.264	26.61
864.432	31.81
864.6	29.84
864.768	37.75
864.936	32.35
865.104	28.32
865.272	25.55
865.44	24.68
865.608	32.39
865.776	33.78
865.944	22.93
866.112	26.82
866.28	28.9
866.448	26.58
866.616	18.64
866.784	25.71
866.952	34.81
867.12	35.64
867.288	31.6
867.455	27.15
867.623	25.06
867.791	37.84
867.959	38.24
868.127	28.73
868.294	22.33
868.462	31.02
868.63	34.39
868.797	33.41
868.965	36.16
869.133	35.97
869.3	40.32
869.468	43.73
869.636	41.92
869.803	44.52
869.971	46.53
870.138	54.61
870.306	54.94
870.473	52.35
870.641	39.84
870.808	37.38
870.975	34.92
871.143	41.86
871.31	36.67
871.478	38.15
871.645	35.18
871.812	36.14
871.98	40.07
872.147	35.24
872.314	24.66
872.482	36.88
872.649	34.05
872.816	35.38
872.983	28.84
873.15	39.83
873.318	20.19
873.485	17.98
873.652	25.12
873.819	9.41
873.986	11.3
874.153	11.1
874.32	0.25
874.487	-3.12
874.654	-10.79
874.821	-10.78
874.988	-8.73
875.155	7.63
875.322	5.48
875.489	9.52
875.656	15.54
875.823	16.44
875.99	16.13
876.157	18.46
876.324	25.35
876.49	22.98
876.657	26.83
876.824	25.54
876.991	34.11
877.157	35.63
877.324	40.77
877.491	42.45
877.658	35.76
877.824	42.22
877.991	43.48
878.157	42.19
878.324	46.95
878.491	34.39
878.657	29.54
878.824	27.88
878.99	18.76
879.157	5.39
879.323	15.24
879.49	20.73
879.656	20.83
879.823	33.78
879.989	37.99
880.156	46.3
880.322	64.53
880.488	64.26
880.655	55.09
880.821	56.3
880.987	61.63
881.154	45.02
881.32	45.5
881.486	39.12
881.652	29.16
881.819	20.47
881.985	19.07
882.151	14.75
882.317	15.25
882.483	17.74
882.649	20.45
882.816	17.94
882.982	19.52
883.148	18
883.314	20.21
883.48	20.51
883.646	21.24
883.812	18.6
883.978	15.87
884.144	16.42
884.31	14.47
884.476	12.79
884.642	12.53
884.807	13.49
884.973	12.49
885.139	10.21
885.305	11.34
885.471	10.63
885.637	11.74
885.802	12.17
885.968	9.63
886.134	13.69
886.3	20.1
886.465	21.49
886.631	17.08
886.797	20.12
886.962	20.31
887.128	12.37
887.293	11.87
887.459	17.25
887.625	22.36
887.79	29.73
887.956	24.07
888.121	13.12
888.287	7.91
888.452	13.01
888.618	9.47
888.783	10.2
