Data from 2938027_Reflection_1.txt Node
Date: Sun Jul 12 15:10:56 EDT 2015
User: robert
Spectrometer: USB4E03001
Autoset integration time: false
Trigger mode: 4
Integration Time (sec): 1.000000E-1
Scans to average: 10
Electric dark correction enabled: true
Nonlinearity correction enabled: false
Boxcar width: 5
Stray light correction enabled: false
XAxis mode: Wavelengths
Stop averaging: false
Number of Pixels in Spectrum: 3648
>>>>>Begin Spectral Data<<<<<
177.566	183.75
177.785	208.83
178.005	199.39
178.225	88.47
178.445	89.96
178.665	96.83
178.885	213.15
179.105	73.33
179.324	99.51
179.544	95.45
179.764	91.72
179.984	79.28
180.204	81.14
180.423	65.3
180.643	58.73
180.863	51.92
181.083	58.81
181.302	53.16
181.522	27.3
181.742	15.32
181.961	-8.3
182.181	-1.85
182.401	1.61
182.621	3.23
182.84	-18.59
183.06	-29.67
183.279	8.4
183.499	9.88
183.719	23.47
183.938	44.6
184.158	28.47
184.377	26.24
184.597	7.89
184.816	16.69
185.036	17.93
185.256	11.77
185.475	-0.97
185.695	-8.03
185.914	-3.56
186.134	10.28
186.353	-18.57
186.572	-31.47
186.792	28.62
187.011	54.96
187.231	62.94
187.45	66.01
187.67	58.95
187.889	29.86
188.108	25.41
188.328	5.65
188.547	-21.34
188.766	14.19
188.986	17.97
189.205	33.73
189.424	29.26
189.644	38.75
189.863	37.7
190.082	51.49
190.302	47.52
190.521	51.77
190.74	56.72
190.959	51.08
191.178	42.28
191.398	36.06
191.617	23.38
191.836	29.31
192.055	9.75
192.274	13.11
192.494	11.28
192.713	7.05
192.932	20.52
193.151	2.63
193.37	-3.4
193.589	12.34
193.808	25.53
194.027	19.83
194.246	34.18
194.465	57.87
194.685	77.98
194.904	48.96
195.123	41.85
195.342	-28.02
195.561	28.45
195.78	205.05
195.999	-8420
196.218	282.2
196.436	257
196.655	-9.85
196.874	3136.73
197.093	-64.3
197.312	24.88
197.531	55.66
197.75	53.3
197.969	45.88
198.188	-13.46
198.407	24.79
198.625	-42.21
198.844	6.63
199.063	13.15
199.282	25.04
199.501	12.94
199.719	15.17
199.938	1.29
200.157	18.46
200.376	29.78
200.594	24.64
200.813	41.99
201.032	45.55
201.251	44.9
201.469	37.43
201.688	58.38
201.907	73.28
202.125	71.25
202.344	66.96
202.563	62.31
202.781	33.06
203	20.27
203.218	-39.59
203.437	-29.16
203.656	-71.86
203.874	-35.56
204.093	-67.64
204.311	-67.9
204.53	-45.11
204.748	-76.66
204.967	-421.18
205.185	-121.65
205.404	-280.49
205.622	-184.09
205.841	1262.72
206.059	378.24
206.278	-30.04
206.496	-59.98
206.715	13.12
206.933	21257.14
207.151	-90.3
207.37	104.1
207.588	115.54
207.806	116.15
208.025	90.29
208.243	66.78
208.461	68.74
208.68	32.51
208.898	77.66
209.116	112.92
209.335	120.41
209.553	125.85
209.771	108.18
209.989	101.2
210.208	100.01
210.426	99.02
210.644	97.79
210.862	119.67
211.081	212.93
211.299	186.49
211.517	112.85
211.735	58.06
211.953	49.94
212.171	71.37
212.39	151.16
212.608	186.08
212.826	145.54
213.044	149.85
213.262	82.14
213.48	68.13
213.698	65.64
213.916	46.97
214.134	39.6
214.352	53.84
214.57	53.93
214.788	31.4
215.006	-0.56
215.224	-16.2
215.442	407
215.66	138.79
215.878	446.85
216.096	413.95
216.314	150.96
216.532	209.31
216.75	136.31
216.968	-12.85
217.185	43.07
217.403	41.16
217.621	29.61
217.839	31.56
218.057	38.98
218.275	34.26
218.492	-14.9
218.71	-18.83
218.928	10.15
219.146	6.84
219.363	21.19
219.581	7.24
219.799	25.26
220.017	26.93
220.234	30.09
220.452	26.07
220.67	14.89
220.887	28.55
221.105	0.09
221.323	7.38
221.54	9.11
221.758	12.37
221.976	22.6
222.193	-2.29
222.411	-0.76
222.629	-1.15
222.846	-3.42
223.064	4.48
223.281	-7.9
223.499	0.47
223.716	-21.83
223.934	-6.99
224.151	-5.33
224.369	-15.85
224.586	-3.25
224.804	-3.02
225.021	-12.06
225.239	-21.09
225.456	-38.51
225.674	-37.42
225.891	-11.25
226.108	13.4
226.326	2.89
226.543	-4.16
226.76	-0.57
226.978	-2.52
227.195	-5.25
227.413	-5.2
227.63	0.42
227.847	11.99
228.064	20.3
228.282	18.42
228.499	19.06
228.716	17.75
228.934	20.69
229.151	18.05
229.368	17.97
229.585	18.46
229.802	20.03
230.02	18.53
230.237	17.5
230.454	15.34
230.671	10.18
230.888	6.02
231.105	6.45
231.323	4.8
231.54	10.4
231.757	9.13
231.974	9.82
232.191	9.44
232.408	12.5
232.625	10.64
232.842	14.37
233.059	16.41
233.276	18.72
233.493	14.14
233.71	6.5
233.927	-2.44
234.144	1.07
234.361	3.79
234.578	6.08
234.795	4.23
235.012	7.81
235.229	4.62
235.446	7.74
235.663	2.84
235.879	5.6
236.096	10.67
236.313	18.76
236.53	24.02
236.747	19.3
236.964	13.98
237.181	17.14
237.397	16.05
237.614	18.65
237.831	16.79
238.048	22.06
238.264	25.27
238.481	25.77
238.698	22.24
238.915	15.54
239.131	17.14
239.348	18.26
239.565	18.55
239.781	22.49
239.998	18.84
240.215	16.86
240.431	17.44
240.648	17.44
240.865	19.36
241.081	19.86
241.298	18.77
241.514	17.5
241.731	16.27
241.947	16.24
242.164	12.61
242.38	13.37
242.597	15.19
242.814	13.1
243.03	11.28
243.246	10
243.463	6.55
243.679	6.84
243.896	6.26
244.112	7.28
244.329	4.58
244.545	6.33
244.762	4.64
244.978	3.66
245.194	8.19
245.411	8.66
245.627	7.56
245.843	10.18
246.06	9.71
246.276	10.61
246.492	11.43
246.709	11.95
246.925	11.51
247.141	12.83
247.357	13.13
247.574	12.16
247.79	12.88
248.006	13.54
248.222	13.3
248.439	13.78
248.655	13.27
248.871	11.68
249.087	11.69
249.303	11.55
249.519	10.11
249.736	9.45
249.952	8.34
250.168	6.82
250.384	6.62
250.6	7.74
250.816	7.84
251.032	9.29
251.248	11.68
251.464	12.51
251.68	14.14
251.896	14.44
252.112	13.39
252.328	14.19
252.544	12.5
252.76	10.48
252.976	9.94
253.192	9.55
253.408	8.65
253.624	7.38
253.84	5.33
254.056	4.46
254.272	5.1
254.487	4.61
254.703	2.26
254.919	7.9
255.135	10.73
255.351	9.23
255.567	10.37
255.782	12.71
255.998	14.52
256.214	17.75
256.43	16
256.646	15.19
256.861	15.99
257.077	15.32
257.293	11.67
257.508	9.74
257.724	10.5
257.94	9.53
258.155	8.41
258.371	8.74
258.587	6.79
258.802	7.42
259.018	7.47
259.234	8.05
259.449	8.64
259.665	8.45
259.88	8.24
260.096	8.16
260.312	8.49
260.527	9.01
260.743	8.26
260.958	8.39
261.174	7.28
261.389	6.95
261.605	6.66
261.82	7.23
262.036	7.12
262.251	6.93
262.466	6.81
262.682	5.36
262.897	3.93
263.113	3.56
263.328	3.33
263.543	4.74
263.759	6.73
263.974	4.75
264.189	4.33
264.405	2.81
264.62	4.07
264.835	6.19
265.051	8.84
265.266	9.34
265.481	11.72
265.696	11.97
265.912	11.63
266.127	9.66
266.342	10.37
266.557	9.09
266.773	9.11
266.988	9.61
267.203	8.66
267.418	5.93
267.633	6.41
267.848	6.44
268.064	6
268.279	6.55
268.494	5.43
268.709	5.31
268.924	4.72
269.139	5.02
269.354	4.92
269.569	4.33
269.784	5.68
269.999	5.26
270.214	2.91
270.429	3.05
270.644	3.88
270.859	6.75
271.074	7.97
271.289	9.63
271.504	10.98
271.719	8.92
271.934	8.88
272.149	9.33
272.363	8.98
272.578	9.31
272.793	9.31
273.008	8.96
273.223	8.82
273.438	8.03
273.653	7.92
273.867	8.14
274.082	9.26
274.297	8.28
274.512	7.72
274.726	7.23
274.941	7.45
275.156	8.88
275.371	7.5
275.585	6.63
275.8	6.54
276.015	6.52
276.229	5.45
276.444	7.24
276.659	7.6
276.873	7.13
277.088	7.76
277.302	7.58
277.517	3.52
277.732	5.27
277.946	5.29
278.161	6.12
278.375	4.05
278.59	3.87
278.804	0.83
279.019	2.28
279.233	3.1
279.448	3.2
279.662	1.73
279.877	4.58
280.091	3.21
280.306	2.34
280.52	2.02
280.735	3.11
280.949	3.28
281.163	4.38
281.378	3.19
281.592	3.35
281.806	3.38
282.021	5.64
282.235	6.86
282.449	6.88
282.664	7.51
282.878	7.03
283.092	8.21
283.307	9.39
283.521	10.49
283.735	12.02
283.949	10.36
284.164	11.18
284.378	10.9
284.592	9.88
284.806	9.98
285.02	10.14
285.234	9.55
285.449	8.58
285.663	7.6
285.877	6.5
286.091	5.52
286.305	6.76
286.519	6.52
286.733	5.59
286.947	6.43
287.161	6.03
287.375	4.47
287.589	4.85
287.803	4.08
288.017	2.65
288.231	3.44
288.445	2.98
288.659	3.3
288.873	2.94
289.087	3.19
289.301	2.33
289.515	3.42
289.729	4.3
289.943	4.16
290.157	7.04
290.371	8.8
290.584	7.69
290.798	9.3
291.012	8.9
291.226	8.79
291.44	8.5
291.654	8.55
291.867	7.88
292.081	7.4
292.295	7.98
292.509	7.01
292.722	7.33
292.936	8.93
293.15	7.18
293.364	6.59
293.577	6.78
293.791	7.02
294.005	7.18
294.218	8.29
294.432	9.66
294.645	8.78
294.859	8.56
295.073	9.04
295.286	8.38
295.5	9.25
295.713	10.07
295.927	10.06
296.14	11.28
296.354	11.21
296.568	11.63
296.781	10.45
296.994	11.27
297.208	11.38
297.421	11.3
297.635	11.31
297.848	11.64
298.062	11.04
298.275	11.77
298.489	11.54
298.702	11.95
298.915	10.98
299.129	12.11
299.342	12.67
299.555	11.68
299.769	10.03
299.982	10.88
300.195	10.25
300.409	10.92
300.622	9.63
300.835	9.98
301.048	10.53
301.262	11.02
301.475	10.18
301.688	8
301.901	8.84
302.115	9.47
302.328	9.09
302.541	9.28
302.754	9.31
302.967	11.54
303.18	12.6
303.393	13.47
303.607	14.25
303.82	15.11
304.033	15.99
304.246	15.85
304.459	16.87
304.672	16.14
304.885	15.92
305.098	15.91
305.311	13.94
305.524	12.39
305.737	10.57
305.95	10.4
306.163	11.52
306.376	12.32
306.589	12.47
306.802	12.28
307.015	13.74
307.228	14.94
307.44	14.34
307.653	14.46
307.866	14.89
308.079	13.8
308.292	13.11
308.505	11.2
308.718	12.13
308.93	12.62
309.143	12.15
309.356	11.75
309.569	11.48
309.781	13
309.994	13.11
310.207	12.38
310.42	13.35
310.632	13.14
310.845	13.69
311.058	12.33
311.27	12.81
311.483	12.01
311.696	10.94
311.908	10.99
312.121	9.43
312.333	8.22
312.546	7.62
312.759	7.56
312.971	7.95
313.184	7.84
313.396	8.09
313.609	6.28
313.821	7.36
314.034	8.57
314.246	6.91
314.459	6.81
314.671	7.98
314.884	9.43
315.096	9.46
315.309	9.94
315.521	9.49
315.733	9.35
315.946	10.47
316.158	10.34
316.371	10.58
316.583	11.42
316.795	13.02
317.008	12.96
317.22	13.27
317.432	12.16
317.644	12.42
317.857	13.2
318.069	14.35
318.281	14.64
318.494	14.83
318.706	13.84
318.918	13.77
319.13	11.79
319.342	13.39
319.555	14.15
319.767	15.2
319.979	14.26
320.191	12.61
320.403	13.16
320.615	12.2
320.827	11.53
321.039	11.74
321.252	11.9
321.464	12.98
321.676	13.3
321.888	9.9
322.1	9.7
322.312	7.6
322.524	10.52
322.736	8.65
322.948	8.81
323.16	9.89
323.372	9.5
323.584	8.51
323.796	10.1
324.007	8.55
324.219	11
324.431	11.36
324.643	12.61
324.855	10.96
325.067	13.17
325.279	13.4
325.491	12.79
325.702	12.52
325.914	13.34
326.126	13.28
326.338	13.4
326.55	14.24
326.761	14.75
326.973	15.77
327.185	15.35
327.396	13.75
327.608	14.34
327.82	14.88
328.032	15.78
328.243	17.33
328.455	15.62
328.666	15.49
328.878	15.29
329.09	15.64
329.301	14.69
329.513	15.32
329.725	14.3
329.936	13.94
330.148	12.37
330.359	13.9
330.571	14.13
330.782	14.67
330.994	16.44
331.205	15.88
331.417	16.53
331.628	16.27
331.84	15.52
332.051	15.61
332.262	16.01
332.474	16.61
332.685	16.23
332.897	15.17
333.108	15.4
333.319	14.31
333.531	14.77
333.742	14.08
333.953	14.91
334.165	14.66
334.376	16.58
334.587	18.07
334.799	19.35
335.01	19.03
335.221	18.32
335.432	19.27
335.644	20.72
335.855	19.37
336.066	18.98
336.277	19.61
336.488	20.53
336.7	20.03
336.911	18.99
337.122	18.59
337.333	19.54
337.544	20.31
337.755	21.59
337.966	20.66
338.177	21.97
338.388	21.86
338.599	22.54
338.811	23.27
339.022	23.75
339.233	23.05
339.444	23.85
339.655	22.46
339.866	21.67
340.076	19.04
340.287	20.1
340.498	19.8
340.709	19.79
340.92	19.08
341.131	17.82
341.342	17.46
341.553	18.05
341.764	17.24
341.975	17.7
342.185	18.4
342.396	18.92
342.607	18.17
342.818	17.84
343.029	17.82
343.239	17.39
343.45	18.08
343.661	17.76
343.872	17.06
344.082	16.61
344.293	16.06
344.504	17.21
344.714	16.71
344.925	16.09
345.136	16.4
345.346	16.53
345.557	17.32
345.768	17.51
345.978	17.69
346.189	18.6
346.399	18.62
346.61	18.58
346.821	17.3
347.031	17.52
347.242	17.4
347.452	17.33
347.663	16.81
347.873	17.12
348.084	16.89
348.294	16.73
348.504	16.22
348.715	16.3
348.925	18.11
349.136	18.97
349.346	19.29
349.557	20.06
349.767	19.42
349.977	20.8
350.188	19.97
350.398	20.14
350.608	20.27
350.819	21.3
351.029	21.6
351.239	19.52
351.449	18.73
351.66	19.06
351.87	17.93
352.08	17.97
352.29	16.7
352.501	16.33
352.711	17.04
352.921	16.61
353.131	15.02
353.341	15.56
353.552	15.93
353.762	15.56
353.972	14.96
354.182	16.05
354.392	17.13
354.602	17.3
354.812	17.83
355.022	16.11
355.232	16.51
355.442	16.72
355.652	15.89
355.862	16.14
356.072	16.2
356.282	16.37
356.492	16.44
356.702	15.18
356.912	16.12
357.122	16.13
357.332	16.52
357.542	16.75
357.752	17.32
357.962	17.37
358.171	18.14
358.381	18.83
358.591	18.27
358.801	17.89
359.011	18.71
359.221	18.72
359.43	17.96
359.64	19.31
359.85	18.98
360.06	18.41
360.269	17.16
360.479	15.35
360.689	15.02
360.899	16.13
361.108	16.02
361.318	15.17
361.528	13.91
361.737	14.01
361.947	13.49
362.156	13.73
362.366	13.75
362.576	14.38
362.785	15.44
362.995	15.17
363.204	14.69
363.414	14.57
363.623	14.43
363.833	15.43
364.042	15.79
364.252	15.54
364.461	15.54
364.671	15.44
364.88	15.31
365.09	14.82
365.299	15.33
365.509	15.08
365.718	14.63
365.927	15.54
366.137	14.4
366.346	14.08
366.555	14.44
366.765	14.45
366.974	14.32
367.183	15.49
367.393	15.57
367.602	14.61
367.811	14.66
368.021	14.91
368.23	15.51
368.439	15.28
368.648	15.68
368.857	14.39
369.067	13.89
369.276	13.78
369.485	13.53
369.694	13.58
369.903	14.22
370.112	13.82
370.321	13.99
370.531	13.3
370.74	13.62
370.949	13.57
371.158	14.07
371.367	13.39
371.576	13.06
371.785	12.6
371.994	12.2
372.203	12.01
372.412	11.91
372.621	11.41
372.83	11.54
373.039	11.41
373.248	11.16
373.457	11.11
373.666	12.13
373.874	12.81
374.083	12.63
374.292	12.57
374.501	12.48
374.71	12.18
374.919	12
375.128	11.9
375.336	12.16
375.545	12.99
375.754	13.07
375.963	12.19
376.171	11.98
376.38	11.94
376.589	12.19
376.798	12.67
377.006	14.06
377.215	14.18
377.424	14.16
377.632	14.65
377.841	13.92
378.05	13.56
378.258	13.74
378.467	13.83
378.675	13.49
378.884	13.66
379.093	13.04
379.301	11.84
379.51	11.78
379.718	11.66
379.927	11.97
380.135	11.93
380.344	11.91
380.552	12.27
380.761	11.98
380.969	12.39
381.177	12.17
381.386	11.93
381.594	12.12
381.803	12.37
382.011	12.52
382.219	11.92
382.428	11.83
382.636	11.73
382.845	11.39
383.053	11.46
383.261	11.39
383.469	11.37
383.678	11.06
383.886	10.66
384.094	10.22
384.302	9.66
384.511	9.35
384.719	9.17
384.927	9.28
385.135	9.25
385.343	8.99
385.552	9.33
385.76	9.27
385.968	9.94
386.176	9.95
386.384	10.14
386.592	9.93
386.8	9.56
387.008	9.44
387.216	9.4
387.424	9.45
387.633	9.53
387.841	8.97
388.049	9.2
388.257	8.89
388.465	9.02
388.672	9.6
388.88	9.99
389.088	10.09
389.296	10.11
389.504	10.43
389.712	10.53
389.92	10.01
390.128	10.01
390.336	9.61
390.544	9.5
390.751	9.62
390.959	9.38
391.167	9.22
391.375	9.41
391.583	9.71
391.79	9.47
391.998	9.16
392.206	9.35
392.414	9.08
392.621	9.14
392.829	8.67
393.037	8.18
393.244	7.87
393.452	7.86
393.66	7.59
393.867	7.37
394.075	7.57
394.283	7.36
394.49	7.11
394.698	7.29
394.905	6.99
395.113	7.44
395.32	7.53
395.528	7.34
395.735	7.01
395.943	7.17
396.15	7.03
396.358	6.27
396.565	6.32
396.773	6.97
396.98	7.02
397.188	7.23
397.395	6.99
397.602	7.23
397.81	7.28
398.017	7.22
398.225	7.32
398.432	7.78
398.639	8.14
398.847	8.27
399.054	7.92
399.261	7.85
399.468	7.76
399.676	7.68
399.883	7.59
400.09	7.75
400.297	8
400.505	7.49
400.712	6.98
400.919	7
401.126	7.1
401.333	7.4
401.54	7.22
401.748	7.39
401.955	7.57
402.162	7.67
402.369	7.79
402.576	7.28
402.783	7.54
402.99	7.52
403.197	7.49
403.404	7.39
403.611	6.93
403.818	6.89
404.025	6.62
404.232	6.49
404.439	6.6
404.646	6.57
404.853	6.7
405.06	6.76
405.267	6.77
405.474	6.86
405.681	6.79
405.887	6.95
406.094	6.93
406.301	6.86
406.508	7.06
406.715	6.8
406.922	6.67
407.128	7.08
407.335	7.21
407.542	7.22
407.749	7.18
407.955	7.27
408.162	7.38
408.369	7.39
408.575	7.48
408.782	7.69
408.989	7.67
409.195	7.56
409.402	7.23
409.609	7.16
409.815	7.11
410.022	6.76
410.228	6.45
410.435	6.44
410.642	6.67
410.848	6.75
411.055	6.5
411.261	6.28
411.468	6.36
411.674	6.56
411.881	6.62
412.087	6.29
412.294	6.51
412.5	6.66
412.706	6.22
412.913	5.97
413.119	6.17
413.326	6.07
413.532	6.31
413.738	6.34
413.945	6.25
414.151	6.06
414.357	6.32
414.564	6.48
414.77	6.68
414.976	6.71
415.182	6.73
415.389	6.44
415.595	6.47
415.801	6.34
416.007	6.33
416.214	6.26
416.42	6.17
416.626	6.34
416.832	6
417.038	5.83
417.244	5.96
417.45	5.89
417.657	6.02
417.863	5.98
418.069	6.03
418.275	5.95
418.481	6.1
418.687	6.13
418.893	6.13
419.099	6.32
419.305	6.47
419.511	6.6
419.717	6.77
419.923	6.83
420.129	6.83
420.335	6.94
420.541	6.92
420.746	6.85
420.952	6.89
421.158	6.85
421.364	6.83
421.57	6.61
421.776	6.46
421.982	6.54
422.187	6.31
422.393	6.26
422.599	6.1
422.805	6
423.01	5.83
423.216	5.84
423.422	5.83
423.628	5.82
423.833	5.9
424.039	6.07
424.245	5.89
424.45	6.02
424.656	6.02
424.862	6.24
425.067	6.37
425.273	6.4
425.478	6.32
425.684	6.26
425.889	6.18
426.095	6.15
426.301	5.94
426.506	6.03
426.712	5.89
426.917	6.03
427.123	5.77
427.328	5.67
427.533	5.86
427.739	5.86
427.944	5.85
428.15	5.82
428.355	6.06
428.561	6.07
428.766	6
428.971	6.22
429.177	6.21
429.382	6.3
429.587	6.38
429.793	6.21
429.998	6.36
430.203	6.27
430.408	6.38
430.614	6.16
430.819	6.11
431.024	6.06
431.229	5.82
431.434	5.73
431.64	5.78
431.845	5.63
432.05	6.03
432.255	5.92
432.46	5.79
432.665	5.67
432.87	5.68
433.076	5.82
433.281	5.78
433.486	5.96
433.691	5.87
433.896	5.63
434.101	5.66
434.306	5.51
434.511	5.37
434.716	5.49
434.921	5.61
435.126	5.53
435.331	5.52
435.535	5.58
435.74	5.34
435.945	5.46
436.15	5.66
436.355	5.72
436.56	5.57
436.765	5.54
436.97	5.57
437.174	5.36
437.379	5.43
437.584	5.47
437.789	5.37
437.993	5.54
438.198	5.47
438.403	5.57
438.608	5.5
438.812	5.49
439.017	5.71
439.222	5.65
439.426	5.83
439.631	5.79
439.836	5.74
440.04	5.98
440.245	5.93
440.45	6.04
440.654	5.89
440.859	6.07
441.063	6.14
441.268	6.11
441.472	6.17
441.677	6.25
441.881	6.23
442.086	6.19
442.29	5.93
442.495	6.03
442.699	5.91
442.904	5.95
443.108	5.6
443.312	5.56
443.517	5.69
443.721	5.82
443.925	5.69
444.13	5.81
444.334	5.84
444.538	5.91
444.743	5.85
444.947	5.71
445.151	5.84
445.356	5.93
445.56	5.84
445.764	5.67
445.968	5.45
446.173	5.45
446.377	5.42
446.581	5.43
446.785	5.45
446.989	5.35
447.193	5.52
447.398	5.37
447.602	5.44
447.806	5.52
448.01	5.45
448.214	5.46
448.418	5.4
448.622	5.3
448.826	5.28
449.03	5.32
449.234	5.41
449.438	5.33
449.642	5.31
449.846	5.2
450.05	5.19
450.254	5.4
450.458	5.39
450.662	5.26
450.866	5.3
451.069	5.29
451.273	5.19
451.477	5.19
451.681	5.23
451.885	5.18
452.089	5.35
452.292	5.28
452.496	5.1
452.7	5.23
452.904	5.43
453.107	5.63
453.311	5.58
453.515	5.48
453.719	5.45
453.922	5.3
454.126	5.29
454.33	5.19
454.533	5.17
454.737	5.04
454.94	4.82
455.144	4.76
455.348	4.69
455.551	4.87
455.755	4.75
455.958	4.76
456.162	4.51
456.365	4.57
456.569	4.54
456.772	4.57
456.976	4.53
457.179	4.6
457.383	4.61
457.586	4.27
457.79	4.07
457.993	4.22
458.196	4.29
458.4	4.53
458.603	4.58
458.807	4.66
459.01	4.69
459.213	4.87
459.417	5.04
459.62	5.12
459.823	5.31
460.026	5.38
460.23	5.51
460.433	5.36
460.636	5.43
460.839	5.41
461.042	5.4
461.246	5.41
461.449	5.48
461.652	5.52
461.855	5.48
462.058	5.54
462.261	5.55
462.464	5.34
462.668	5.5
462.871	5.64
463.074	5.67
463.277	5.53
463.48	5.69
463.683	5.61
463.886	5.4
464.089	5.38
464.292	5.26
464.495	5.19
464.698	5.35
464.901	5.38
465.104	5.22
465.306	5.09
465.509	5.15
465.712	5.05
465.915	4.91
466.118	5.1
466.321	5.11
466.524	5.02
466.726	5.09
466.929	5.03
467.132	5.06
467.335	5.02
467.538	5.24
467.74	5.23
467.943	5.26
468.146	5.32
468.348	5.19
468.551	5.25
468.754	5.5
468.956	5.41
469.159	5.35
469.362	5.28
469.564	5.24
469.767	5.17
469.969	5.27
470.172	5.14
470.375	5.25
470.577	5.4
470.78	5.26
470.982	5.31
471.185	5.23
471.387	5.32
471.59	5.39
471.792	5.47
471.995	5.54
472.197	5.59
472.399	5.62
472.602	5.64
472.804	5.39
473.007	5.41
473.209	5.15
473.411	5.32
473.614	5.31
473.816	5.36
474.018	5.48
474.22	5.53
474.423	5.55
474.625	5.79
474.827	5.82
475.03	5.92
475.232	5.97
475.434	5.94
475.636	5.9
475.838	5.89
476.04	5.83
476.243	5.69
476.445	5.68
476.647	5.5
476.849	5.26
477.051	5.24
477.253	5.32
477.455	5.25
477.657	5.51
477.859	5.35
478.061	5.33
478.263	5.27
478.465	5.38
478.667	5.2
478.869	5.36
479.071	5.45
479.273	5.47
479.475	5.45
479.677	5.5
479.879	5.36
480.081	5.55
480.283	5.47
480.485	5.63
480.686	5.49
480.888	5.49
481.09	5.35
481.292	5.35
481.494	5.23
481.695	5.01
481.897	4.99
482.099	5.07
482.301	5.05
482.502	5.15
482.704	5.1
482.906	5.05
483.107	5.12
483.309	5.11
483.511	5.11
483.712	5.15
483.914	5.21
484.115	5.25
484.317	5.27
484.519	5.28
484.72	5.23
484.922	5.24
485.123	5.35
485.325	5.3
485.526	5.31
485.728	5.3
485.929	5.29
486.131	5.29
486.332	5.31
486.534	5.33
486.735	5.31
486.936	5.37
487.138	5.33
487.339	5.19
487.541	5.24
487.742	5.24
487.943	5.19
488.144	5.23
488.346	5.28
488.547	5.3
488.748	5.29
488.95	5.28
489.151	5.32
489.352	5.36
489.553	5.42
489.755	5.45
489.956	5.49
490.157	5.63
490.358	5.56
490.559	5.62
490.76	5.5
490.961	5.38
491.163	5.38
491.364	5.28
491.565	5.28
491.766	5.34
491.967	5.27
492.168	5.29
492.369	5.32
492.57	5.41
492.771	5.33
492.972	5.4
493.173	5.51
493.374	5.63
493.575	5.71
493.776	5.69
493.976	5.73
494.177	5.83
494.378	5.84
494.579	5.75
494.78	5.69
494.981	5.76
495.182	5.67
495.382	5.56
495.583	5.37
495.784	5.37
495.985	5.37
496.185	5.23
496.386	5.26
496.587	5.3
496.788	5.35
496.988	5.34
497.189	5.32
497.39	5.36
497.59	5.51
497.791	5.73
497.992	5.71
498.192	5.78
498.393	5.96
498.593	5.9
498.794	5.9
498.994	5.78
499.195	5.83
499.395	5.93
499.596	5.97
499.796	5.8
499.997	5.73
500.197	5.85
500.398	5.82
500.598	5.7
500.799	5.83
500.999	5.9
501.199	6.21
501.4	6.17
501.6	6.14
501.801	6.16
502.001	6.18
502.201	6.2
502.402	6.16
502.602	6.37
502.802	6.47
503.002	6.5
503.203	6.46
503.403	6.29
503.603	6.28
503.803	6.22
504.003	6.23
504.204	6.36
504.404	6.24
504.604	6.07
504.804	5.99
505.004	5.95
505.204	5.82
505.404	5.75
505.604	5.73
505.804	5.67
506.005	5.8
506.205	5.73
506.405	5.61
506.605	5.67
506.805	5.71
507.005	5.55
507.204	5.68
507.404	5.72
507.604	5.92
507.804	6.13
508.004	6.15
508.204	6.27
508.404	6.26
508.604	6.34
508.804	6.45
509.003	6.64
509.203	6.85
509.403	6.73
509.603	6.73
509.803	6.7
510.002	6.6
510.202	6.68
510.402	6.57
510.602	6.76
510.801	6.84
511.001	6.76
511.201	6.8
511.4	6.75
511.6	6.72
511.8	6.93
511.999	6.97
512.199	6.98
512.398	7.04
512.598	7.11
512.797	7.05
512.997	7.04
513.197	7.05
513.396	7.06
513.596	7.29
513.795	7.38
513.994	7.39
514.194	7.29
514.393	7.29
514.593	7.36
514.792	7.39
514.992	7.4
515.191	7.33
515.39	7.44
515.59	7.44
515.789	7.3
515.988	7.39
516.188	7.26
516.387	7.32
516.586	7.2
516.786	7.08
516.985	7.09
517.184	7.16
517.383	7.09
517.582	7.13
517.782	7.06
517.981	7.11
518.18	7.03
518.379	7.11
518.578	7.03
518.777	7.15
518.976	7.2
519.176	7.25
519.375	7.21
519.574	7.43
519.773	7.47
519.972	7.54
520.171	7.47
520.37	7.48
520.569	7.46
520.768	7.47
520.967	7.47
521.166	7.46
521.365	7.48
521.564	7.66
521.762	7.44
521.961	7.46
522.16	7.55
522.359	7.68
522.558	7.96
522.757	7.95
522.956	8.08
523.154	8.19
523.353	8.25
523.552	8.25
523.751	8.18
523.949	8.31
524.148	8.18
524.347	8.18
524.546	8.22
524.744	8.15
524.943	8.3
525.142	8.33
525.34	8.37
525.539	8.44
525.737	8.43
525.936	8.38
526.135	8.38
526.333	8.41
526.532	8.42
526.73	8.43
526.929	8.4
527.127	8.37
527.326	8.5
527.524	8.51
527.723	8.54
527.921	8.54
528.12	8.56
528.318	8.57
528.516	8.65
528.715	8.67
528.913	8.7
529.112	8.75
529.31	8.81
529.508	8.81
529.707	8.83
529.905	8.91
530.103	8.96
530.301	9.06
530.5	9.17
530.698	9.17
530.896	9.22
531.094	9.19
531.293	9.21
531.491	9.23
531.689	9.27
531.887	9.32
532.085	9.4
532.283	9.47
532.481	9.48
532.68	9.42
532.878	9.43
533.076	9.38
533.274	9.43
533.472	9.42
533.67	9.45
533.868	9.46
534.066	9.39
534.264	9.32
534.462	9.28
534.66	9.29
534.858	9.53
535.056	9.63
535.253	9.84
535.451	9.94
535.649	10.04
535.847	10.13
536.045	10.22
536.243	10.39
536.441	10.38
536.638	10.46
536.836	10.51
537.034	10.38
537.232	10.39
537.43	10.29
537.627	10.25
537.825	10.29
538.023	10.21
538.22	10.19
538.418	10.11
538.616	10.05
538.813	10.19
539.011	10.16
539.209	10.23
539.406	10.36
539.604	10.45
539.801	10.53
539.999	10.55
540.196	10.58
540.394	10.63
540.591	10.65
540.789	10.82
540.986	10.84
541.184	10.95
541.381	10.95
541.579	10.91
541.776	11.02
541.974	11.11
542.171	11.16
542.368	11.23
542.566	11.19
542.763	11.28
542.96	11.3
543.158	11.26
543.355	11.2
543.552	11.19
543.75	11.38
543.947	11.32
544.144	11.33
544.341	11.35
544.539	11.4
544.736	11.5
544.933	11.57
545.13	11.56
545.327	11.67
545.524	11.92
545.722	12.11
545.919	12.06
546.116	12.12
546.313	12.16
546.51	12.25
546.707	12.31
546.904	12.4
547.101	12.49
547.298	12.52
547.495	12.71
547.692	12.57
547.889	12.65
548.086	12.72
548.283	12.72
548.48	12.57
548.677	12.66
548.874	12.81
549.07	12.84
549.267	12.87
549.464	12.96
549.661	12.84
549.858	13.02
550.055	13
550.251	12.93
550.448	12.94
550.645	13.28
550.842	13.35
551.038	13.24
551.235	13.16
551.432	13.16
551.628	13.26
551.825	13.37
552.022	13.36
552.218	13.47
552.415	13.53
552.612	13.61
552.808	13.43
553.005	13.47
553.201	13.57
553.398	13.69
553.594	13.64
553.791	13.72
553.987	13.65
554.184	13.75
554.38	13.62
554.577	13.59
554.773	13.58
554.97	13.75
555.166	13.77
555.362	13.53
555.559	13.87
555.755	14.19
555.952	14.38
556.148	14.62
556.344	14.73
556.541	15.02
556.737	15.14
556.933	15.59
557.129	15.84
557.326	15.94
557.522	16.2
557.718	16.1
557.914	16.02
558.11	15.94
558.307	16.01
558.503	16.29
558.699	16.34
558.895	16.27
559.091	15.89
559.287	15.82
559.483	15.68
559.679	15.72
559.876	15.76
560.072	15.67
560.268	15.63
560.464	15.39
560.66	15.17
560.856	15.23
561.052	15.39
561.247	15.58
561.443	15.68
561.639	15.95
561.835	16.05
562.031	16.03
562.227	16.32
562.423	16.4
562.619	16.74
562.815	16.8
563.01	16.89
563.206	17.15
563.402	17.35
563.598	17.39
563.793	17.17
563.989	17.34
564.185	17.47
564.381	17.34
564.576	17.67
564.772	17.64
564.968	17.77
565.163	17.81
565.359	17.75
565.555	17.74
565.75	17.81
565.946	18.07
566.141	18.15
566.337	18.25
566.532	18.46
566.728	18.39
566.923	18.38
567.119	18.23
567.314	18.11
567.51	18.14
567.705	18.39
567.901	18.48
568.096	18.5
568.292	18.33
568.487	18.22
568.682	18.2
568.878	18.13
569.073	18.28
569.268	18.5
569.464	18.73
569.659	18.89
569.854	18.9
570.05	18.78
570.245	18.99
570.44	19.1
570.635	19.19
570.831	19.15
571.026	19.3
571.221	19.23
571.416	19.29
571.611	19.11
571.806	19.21
572.002	19.26
572.197	19.4
572.392	19.35
572.587	19.42
572.782	19.53
572.977	19.69
573.172	19.75
573.367	19.87
573.562	20.01
573.757	20.21
573.952	20.17
574.147	20.16
574.342	20.13
574.537	20.04
574.732	20.1
574.927	20.19
575.121	20.36
575.316	20.18
575.511	20.29
575.706	20.12
575.901	20.2
576.096	20.25
576.29	20.3
576.485	20.55
576.68	20.79
576.875	20.96
577.069	20.89
577.264	20.71
577.459	21.02
577.654	20.86
577.848	20.97
578.043	21.05
578.238	21.09
578.432	20.91
578.627	20.72
578.821	20.68
579.016	20.56
579.21	20.6
579.405	20.68
579.6	20.58
579.794	20.71
579.989	20.79
580.183	20.82
580.378	20.78
580.572	20.78
580.766	20.78
580.961	20.71
581.155	20.94
581.35	21.06
581.544	21.22
581.738	21.37
581.933	21.38
582.127	21.17
582.321	21.03
582.516	20.8
582.71	20.92
582.904	21
583.099	20.92
583.293	20.81
583.487	20.71
583.681	20.55
583.875	20.4
584.07	20.25
584.264	20.45
584.458	20.57
584.652	20.9
584.846	20.7
585.04	20.78
585.234	20.87
585.428	20.8
585.623	20.78
585.817	20.55
586.011	20.68
586.205	20.81
586.399	20.92
586.593	20.69
586.787	20.73
586.981	21.23
587.174	21.2
587.368	21.45
587.562	21.43
587.756	21.45
587.95	21.78
588.144	21.68
588.338	21.87
588.532	21.86
588.725	22.51
588.919	22.49
589.113	22.36
589.307	22.11
589.501	21.98
589.694	22.09
589.888	22.37
590.082	22.33
590.275	22.58
590.469	22.58
590.663	22.73
590.856	22.32
591.05	22.46
591.244	22.63
591.437	22.86
591.631	23.22
591.824	23.28
592.018	23.11
592.212	23.17
592.405	22.83
592.599	22.8
592.792	22.46
592.986	22.68
593.179	22.61
593.372	22.77
593.566	22.89
593.759	22.61
593.953	22.46
594.146	22.65
594.339	22.76
594.533	22.97
594.726	22.74
594.92	22.83
595.113	22.55
595.306	22.64
595.499	22.33
595.693	22.25
595.886	22.16
596.079	22.13
596.272	22.24
596.466	22.27
596.659	22.44
596.852	22.65
597.045	22.94
597.238	23.04
597.431	22.76
597.624	22.83
597.818	22.8
598.011	22.88
598.204	23.14
598.397	22.98
598.59	22.91
598.783	22.82
598.976	22.74
599.169	22.52
599.362	22.48
599.555	22.79
599.748	22.83
599.941	23.29
600.134	23.24
600.326	23.12
600.519	23.17
600.712	23.09
600.905	23.05
601.098	23.09
601.291	23.15
601.483	23.39
601.676	23.26
601.869	23.35
602.062	23.11
602.255	23.24
602.447	23.13
602.64	23.15
602.833	23.42
603.025	23.66
603.218	23.64
603.411	23.72
603.603	23.87
603.796	23.99
603.989	23.93
604.181	23.79
604.374	23.81
604.566	24.01
604.759	23.98
604.951	23.71
605.144	23.53
605.336	23.57
605.529	23.59
605.721	23.39
605.914	23.48
606.106	23.49
606.299	23.63
606.491	23.67
606.683	23.49
606.876	23.64
607.068	23.82
607.26	23.99
607.453	24.14
607.645	24.21
607.837	24.16
608.03	24.03
608.222	23.89
608.414	23.97
608.606	23.86
608.799	23.87
608.991	23.61
609.183	23.59
609.375	23.63
609.567	23.55
609.759	23.49
609.952	23.54
610.144	23.67
610.336	23.66
610.528	23.74
610.72	23.78
610.912	24.07
611.104	24.32
611.296	24.42
611.488	24.37
611.68	24.25
611.872	24.24
612.064	24.38
612.256	24.14
612.448	24.25
612.64	23.99
612.832	23.97
613.023	23.91
613.215	23.86
613.407	23.69
613.599	23.46
613.791	23.7
613.983	23.73
614.174	23.51
614.366	23.38
614.558	23.83
614.75	23.87
614.941	23.95
615.133	23.94
615.325	23.99
615.516	24.28
615.708	24.19
615.9	24.25
616.091	24.3
616.283	24.5
616.475	24.9
616.666	24.67
616.858	25.17
617.049	25.13
617.241	25.03
617.432	24.98
617.624	24.8
617.815	25.07
618.007	25
618.198	24.96
618.39	24.73
618.581	24.55
618.773	24.51
618.964	24.28
619.155	24.44
619.347	24.26
619.538	24.2
619.729	24.3
619.921	24.59
620.112	24.79
620.303	24.84
620.494	24.84
620.686	24.87
620.877	24.99
621.068	24.85
621.259	24.78
621.451	25.12
621.642	24.96
621.833	24.94
622.024	24.73
622.215	24.76
622.406	24.64
622.597	24.53
622.788	24.71
622.98	24.35
623.171	24.33
623.362	24.44
623.553	24.32
623.744	24.7
623.935	24.4
624.126	24.33
624.317	24.03
624.508	23.92
624.698	24.1
624.889	23.89
625.08	23.94
625.271	24.05
625.462	23.94
625.653	24.21
625.844	24.15
626.034	24.53
626.225	24.59
626.416	24.68
626.607	24.97
626.798	24.74
626.988	24.85
627.179	25.09
627.37	24.92
627.56	24.93
627.751	24.69
627.942	24.88
628.132	24.82
628.323	24.75
628.514	24.53
628.704	24.55
628.895	24.79
629.085	24.6
629.276	24.62
629.466	24.64
629.657	24.66
629.847	24.87
630.038	24.75
630.228	24.95
630.419	25.31
630.609	25.49
630.8	25.4
630.99	25.67
631.181	25.96
631.371	25.74
631.561	25.82
631.752	25.9
631.942	25.68
632.132	25.64
632.323	25.42
632.513	24.99
632.703	25.23
632.893	24.83
633.084	24.73
633.274	24.59
633.464	24.82
633.654	25.05
633.844	24.9
634.034	24.9
634.225	24.75
634.415	24.79
634.605	24.7
634.795	24.63
634.985	25.01
635.175	25.11
635.365	24.85
635.555	25
635.745	24.97
635.935	25.17
636.125	25.2
636.315	25.62
636.505	25.63
636.695	25.64
636.885	25.61
637.075	25.74
637.265	25.45
637.455	25.92
637.644	25.36
637.834	25.49
638.024	25.47
638.214	25.03
638.404	24.6
638.593	24.63
638.783	24.77
638.973	24.43
639.163	24.23
639.352	24.34
639.542	24.14
639.732	24.09
639.921	23.91
640.111	23.8
640.301	24.4
640.49	24.72
640.68	25.11
640.87	25.29
641.059	25.67
641.249	25.56
641.438	25.6
641.628	25.73
641.817	25.92
642.007	25.96
642.196	25.81
642.386	25.56
642.575	25.14
642.764	24.55
642.954	24.67
643.143	24.77
643.333	25.11
643.522	25.1
643.711	25.23
643.901	25.54
644.09	25.66
644.279	26.27
644.469	26.93
644.658	26.96
644.847	27.24
645.036	27.32
645.226	27.37
645.415	26.97
645.604	27.29
645.793	26.96
645.982	26.98
646.171	26.64
646.361	26.2
646.55	25.65
646.739	25.69
646.928	25.25
647.117	24.76
647.306	24.66
647.495	24.99
647.684	24.39
647.873	24.36
648.062	24.04
648.251	24.33
648.44	24.54
648.629	25.23
648.818	25.47
649.007	25.79
649.196	26.05
649.384	26.39
649.573	26.28
649.762	26.59
649.951	26.94
650.14	26.6
650.328	26.57
650.517	26.63
650.706	26.12
650.895	25.97
651.083	26.01
651.272	26.13
651.461	25.6
651.65	25.61
651.838	25.48
652.027	25.45
652.216	25.86
652.404	25.62
652.593	25.77
652.781	25.88
652.97	26.14
653.158	26.28
653.347	25.96
653.535	26.29
653.724	26.2
653.912	26.48
654.101	26.21
654.289	25.96
654.478	26.02
654.666	26.06
654.855	25.65
655.043	25.11
655.231	24.61
655.42	24.66
655.608	24.86
655.796	24.71
655.985	24.7
656.173	25.14
656.361	25.44
656.55	25.47
656.738	25.26
656.926	25.45
657.114	25.65
657.302	26.27
657.491	26.41
657.679	26.02
657.867	26.19
658.055	26
658.243	25.83
658.431	25.87
658.619	26.17
658.807	26.14
658.996	26.26
659.184	26.44
659.372	26.31
659.56	26.55
659.748	26.74
659.936	26.73
660.124	26.74
660.311	26.67
660.499	26.64
660.687	26.26
660.875	26.31
661.063	26.06
661.251	26.11
661.439	26.1
661.627	25.93
661.814	25.84
662.002	25.91
662.19	25.87
662.378	25.8
662.565	26.47
662.753	26.73
662.941	26.59
663.129	26.74
663.316	27.14
663.504	27.41
663.692	27.31
663.879	27.34
664.067	27.65
664.254	28.08
664.442	28.29
664.63	27.57
664.817	27.84
665.005	27.93
665.192	27.63
665.38	26.82
665.567	26.72
665.755	26.67
665.942	26.13
666.13	26.08
666.317	26.18
666.504	26.1
666.692	26.61
666.879	26.37
667.067	26.32
667.254	26.52
667.441	26.92
667.629	26.56
667.816	26.5
668.003	27
668.19	26.93
668.378	26.21
668.565	26.56
668.752	26.08
668.939	25.91
669.127	26.03
669.314	26.41
669.501	26.13
669.688	25.96
669.875	26.34
670.062	26.56
670.249	26.5
670.436	27.09
670.623	27.05
670.81	27.31
670.997	27.56
671.184	27.18
671.371	26.94
671.558	27.09
671.745	27.38
671.932	27.29
672.119	27.12
672.306	27.18
672.493	27.24
672.68	26.93
672.867	27.09
673.054	27.02
673.24	27.87
673.427	28.21
673.614	28.55
673.801	28.69
673.988	28.36
674.174	28.67
674.361	28.6
674.548	28.54
674.734	29.01
674.921	28.98
675.108	29.05
675.294	28.08
675.481	27.5
675.668	27.28
675.854	27.34
676.041	27.83
676.227	27.17
676.414	27.13
676.601	26.87
676.787	26.86
676.974	26.74
677.16	26.14
677.347	26.33
677.533	26.52
677.719	26.12
677.906	26.48
678.092	26.16
678.279	26.26
678.465	25.83
678.651	26.21
678.838	26.37
679.024	26.76
679.21	27.18
679.397	27.3
679.583	27.64
679.769	27.82
679.955	27.08
680.142	27.17
680.328	27.16
680.514	27.58
680.7	27.36
680.886	27.02
681.073	26.71
681.259	26.9
681.445	27.01
681.631	27.3
681.817	27.39
682.003	27.93
682.189	27.83
682.375	27.83
682.561	27.85
682.747	27.67
682.933	27.62
683.119	27.49
683.305	27.58
683.491	27.49
683.677	26.73
683.863	26.82
684.049	26.95
684.235	26.62
684.42	27.13
684.606	27.42
684.792	27.62
684.978	27.38
685.164	27.41
685.349	27.11
685.535	27.41
685.721	27.7
685.907	27.71
686.092	27.56
686.278	28.08
686.464	27.56
686.649	27.33
686.835	27.13
687.021	27.54
687.206	27.59
687.392	28.07
687.577	27.89
687.763	27.81
687.948	27.38
688.134	27.28
688.319	26.6
688.505	26.88
688.69	26.28
688.876	26
689.061	26.39
689.247	26.37
689.432	25.99
689.618	26.22
689.803	26.02
689.988	26.46
690.174	26.33
690.359	27.15
690.544	27.19
690.73	28
690.915	28.61
691.1	28.02
691.285	27.96
691.471	27.58
691.656	26.95
691.841	27.63
692.026	27.65
692.211	27.48
692.396	26.9
692.582	27.41
692.767	27.07
692.952	26.89
693.137	27.14
693.322	26.98
693.507	27.32
693.692	27.66
693.877	27.12
694.062	27.33
694.247	27.78
694.432	28.4
694.617	27.98
694.802	28.47
694.987	28.37
695.172	28.25
695.357	28.56
695.541	28.45
695.726	28.33
695.911	28.37
696.096	27.74
696.281	27.61
696.466	27.48
696.65	27.2
696.835	26.46
697.02	26.83
697.204	26.31
697.389	26.52
697.574	26.63
697.759	26.96
697.943	26.52
698.128	26.86
698.312	27.11
698.497	27.04
698.682	26.97
698.866	27.34
699.051	27.18
699.235	27.28
699.42	27.06
699.604	27.15
699.789	26.92
699.973	27.29
700.158	27.2
700.342	27.03
700.527	26.89
700.711	27.02
700.895	26.97
701.08	26.61
701.264	27.2
701.448	27.31
701.633	26.91
701.817	26.22
702.001	25.9
702.186	25.46
702.37	25.94
702.554	25.63
702.738	25.91
702.923	26.1
703.107	26.21
703.291	25.97
703.475	25.95
703.659	26.35
703.843	27.27
704.027	27.45
704.212	27.9
704.396	27.55
704.58	28.09
704.764	27.54
704.948	27.9
705.132	26.97
705.316	26.13
705.5	26.28
705.684	26.38
705.868	26.63
706.052	27.04
706.235	27.17
706.419	26.75
706.603	26.82
706.787	27.91
706.971	27.32
707.155	28.55
707.339	29.17
707.522	28.86
707.706	28.93
707.89	29.1
708.074	28.97
708.257	28.47
708.441	28.45
708.625	28.68
708.808	27.68
708.992	28.01
709.176	28.12
709.359	28
709.543	27.72
709.727	27.58
709.91	27.19
710.094	26.85
710.277	27.01
710.461	26.42
710.644	26.69
710.828	27.36
711.011	26.63
711.195	26.76
711.378	27.07
711.562	26.99
711.745	26.87
711.928	26.91
712.112	26.43
712.295	27.03
712.478	27.8
712.662	26.93
712.845	25.56
713.028	25.46
713.212	25.3
713.395	25.92
713.578	26.5
713.761	27.22
713.945	27.02
714.128	28.25
714.311	28.21
714.494	28.44
714.677	29.28
714.86	30.74
715.043	30.79
715.227	30.48
715.41	29.74
715.593	30.01
715.776	29.82
715.959	29.93
716.142	29.98
716.325	29.82
716.508	29.45
716.691	29.38
716.874	28.94
717.057	29.29
717.239	29.85
717.422	30.09
717.605	29.54
717.788	28.58
717.971	29.03
718.154	28.57
718.337	28.35
718.519	28.9
718.702	28.76
718.885	28.45
719.068	27.88
719.25	27.42
719.433	27.87
719.616	27.91
719.798	28.76
719.981	28.35
720.164	28.35
720.346	28.76
720.529	28.75
720.712	28.95
720.894	29.39
721.077	30.09
721.259	30.83
721.442	30.55
721.624	30.65
721.807	30.34
721.989	30.15
722.172	29.98
722.354	30.48
722.537	29.25
722.719	29.15
722.901	29.01
723.084	28.68
723.266	28.27
723.448	27.94
723.631	27.78
723.813	27.7
723.995	27.07
724.178	27.63
724.36	26.45
724.542	26.17
724.724	25.9
724.907	26.44
725.089	26.54
725.271	26.2
725.453	26.24
725.635	26.6
725.817	27.83
725.999	28.34
726.181	28.26
726.364	28.92
726.546	30.8
726.728	30.79
726.91	30.75
727.092	31.59
727.274	32.77
727.456	32.43
727.638	32.33
727.819	31.9
728.001	32.87
728.183	33.33
728.365	33.34
728.547	32.4
728.729	32.44
728.911	31.96
729.093	30.79
729.274	29.28
729.456	29.78
729.638	29.18
729.82	27.98
730.001	26.66
730.183	25.65
730.365	25.34
730.546	25.73
730.728	25.79
730.91	26.03
731.091	27.14
731.273	28.46
731.455	28.64
731.636	28.99
731.818	29.14
731.999	29.77
732.181	29.97
732.362	29.97
732.544	29.68
732.725	28.74
732.907	28.31
733.088	28.14
733.27	26.99
733.451	26.66
733.633	27.07
733.814	27.25
733.995	26.86
734.177	26.08
734.358	25.97
734.539	26.39
734.721	26.52
734.902	26.66
735.083	26.01
735.264	24.95
735.446	24.57
735.627	24.43
735.808	24.47
735.989	24.98
736.17	25.3
736.351	26.58
736.533	25.43
736.714	26.33
736.895	26.47
737.076	26.97
737.257	28.54
737.438	28.91
737.619	29.55
737.8	29.78
737.981	31.18
738.162	31.15
738.343	30.21
738.524	31.19
738.705	31.19
738.886	31.66
739.067	31.66
739.247	32.54
739.428	33.09
739.609	31.65
739.79	31.22
739.971	30.01
740.151	29.86
740.332	29.21
740.513	28.68
740.694	27.34
740.874	26.68
741.055	26.28
741.236	25.12
741.417	23.99
741.597	24.04
741.778	24.96
741.958	24.83
742.139	25.07
742.32	25.9
742.5	27.23
742.681	28.67
742.861	27.95
743.042	27.44
743.222	28.51
743.403	29.1
743.583	30.07
743.764	30.15
743.944	29.69
744.124	29.98
744.305	30.04
744.485	28.91
744.666	28.4
744.846	28.87
745.026	30.21
745.207	30.3
745.387	29.74
745.567	29.33
745.747	28.51
745.928	29.11
746.108	28.69
746.288	27.06
746.468	26.32
746.648	25.71
746.829	26.77
747.009	27.15
747.189	26.04
747.369	25.77
747.549	25.85
747.729	26.2
747.909	25.6
748.089	26.62
748.269	27.3
748.449	28.29
748.629	29.04
748.809	28.51
748.989	27.44
749.169	26.97
749.349	28.42
749.529	28.52
749.709	27.36
749.889	27.09
750.068	26.62
750.248	27.1
750.428	25.5
750.608	26.26
750.788	27.36
750.967	26.63
751.147	27.35
751.327	27.61
751.507	28.55
751.686	29.6
751.866	30.5
752.046	30.74
752.225	30.67
752.405	31.41
752.585	29.42
752.764	27.73
752.944	29.3
753.123	29.92
753.303	28.2
753.482	27.74
753.662	28.1
753.841	28.19
754.021	28.01
754.2	28.83
754.38	28.87
754.559	30.05
754.739	30.61
754.918	29.41
755.097	29.21
755.277	29.16
755.456	29.1
755.635	29.14
755.815	28.85
755.994	29.26
756.173	28.89
756.352	29.19
756.532	28.64
756.711	28.82
756.89	29.65
757.069	29.5
757.248	29.32
757.427	28.8
757.607	28.68
757.786	29.11
757.965	29.01
758.144	28.35
758.323	28.72
758.502	29.93
758.681	30.42
758.86	28.98
759.039	29.19
759.218	28.73
759.397	28.81
759.576	27
759.755	26.62
759.934	26.13
760.113	26.88
760.291	26.11
760.47	25.73
760.649	24.62
760.828	26.02
761.007	26.2
761.186	28.07
761.364	28.9
761.543	29.63
761.722	29.93
761.901	29.59
762.079	29.9
762.258	29.42
762.437	29.72
762.615	30.58
762.794	29.58
762.972	28.6
763.151	28.11
763.33	28.28
763.508	28.72
763.687	28.61
763.865	29.76
764.044	29.48
764.222	30.12
764.401	30.29
764.579	29.54
764.758	29.76
764.936	30.47
765.114	31.65
765.293	30.56
765.471	31.08
765.65	30.63
765.828	29.3
766.006	29.03
766.184	27.97
766.363	26.56
766.541	26.89
766.719	27.87
766.898	28.12
767.076	26.95
767.254	26.77
767.432	27.35
767.61	27.32
767.788	27.64
767.967	26.36
768.145	28.08
768.323	28.67
768.501	29.12
768.679	29.56
768.857	27.78
769.035	27.19
769.213	28.19
769.391	28.2
769.569	29.17
769.747	28.35
769.925	29.42
770.103	29.21
770.281	29.77
770.459	29.78
770.636	30.47
770.814	32.02
770.992	34
771.17	34.71
771.348	33.8
771.525	35.14
771.703	35.3
771.881	35.35
772.059	34.91
772.236	35.13
772.414	33.6
772.592	31.07
772.769	30.07
772.947	28.03
773.125	27.59
773.302	26.48
773.48	24.54
773.657	24.18
773.835	23.67
774.013	23.19
774.19	22.9
774.368	24.33
774.545	24.72
774.723	26.1
774.9	27.57
775.077	28.95
775.255	29.36
775.432	28.89
775.61	30.78
775.787	31.14
775.964	31.33
776.142	32.76
776.319	33.31
776.496	32.43
776.674	31.02
776.851	28.63
777.028	26.26
777.205	27.24
777.382	27.41
777.56	25.62
777.737	26.29
777.914	25.62
778.091	23.96
778.268	22.15
778.445	23.33
778.622	21.44
778.8	24.23
778.977	24.29
779.154	23.26
779.331	22.27
779.508	21.55
779.685	22
779.862	23.54
780.038	23.42
780.215	24.9
780.392	24.06
780.569	25.98
780.746	23.31
780.923	23.58
781.1	23.87
781.277	24.16
781.453	24.63
781.63	24.76
781.807	24.55
781.984	23.87
782.16	22.61
782.337	20.05
782.514	21.15
782.691	22.53
782.867	22.29
783.044	22.19
783.221	20.18
783.397	21.99
783.574	18.81
783.75	20.67
783.927	20.2
784.103	23.26
784.28	26.01
784.456	26.39
784.633	27.6
784.809	30.88
784.986	30.47
785.162	32
785.339	29.09
785.515	29.44
785.692	26.38
785.868	27.13
786.044	25.07
786.221	26.12
786.397	26.41
786.573	25.26
786.749	22.3
786.926	23.82
787.102	26.64
787.278	30.26
787.454	32.59
787.631	33.95
787.807	33.2
787.983	33.15
788.159	31.04
788.335	28.55
788.511	26.53
788.687	26.84
788.863	26.6
789.039	23.43
789.216	24.29
789.392	22.2
789.568	23.08
789.744	23.34
789.919	23.55
790.095	26.23
790.271	26.76
790.447	26.33
790.623	25.74
790.799	24.72
790.975	24.15
791.151	20.6
791.327	22.36
791.502	20.5
791.678	22.72
791.854	22.64
792.03	22.51
792.205	23.58
792.381	26.15
792.557	26.16
792.733	23.75
792.908	24.44
793.084	25.84
793.259	25.95
793.435	29.05
793.611	24.7
793.786	21.86
793.962	21.04
794.137	20.97
794.313	21.27
794.488	22.23
794.664	25.1
794.839	27.67
795.015	29.96
795.19	28.62
795.366	27.03
795.541	29.56
795.716	30.67
795.892	29.69
796.067	29.89
796.242	26.85
796.418	26.76
796.593	25.21
796.768	24.99
796.944	21.41
797.119	23.55
797.294	21.79
797.469	20.54
797.644	23.29
797.82	20.52
797.995	18.01
798.17	21.54
798.345	21.33
798.52	21.15
798.695	18.98
798.87	19.07
799.045	16.84
799.22	17.05
799.395	19.72
799.57	18.36
799.745	20.03
799.92	22.98
800.095	22.54
800.27	24.42
800.445	26.53
800.62	25.91
800.795	26.9
800.97	27.88
801.145	29.29
801.319	25.47
801.494	26.91
801.669	27.61
801.844	28.08
802.018	26.98
802.193	26.75
802.368	25.83
802.543	26.95
802.717	29.43
802.892	30.97
803.067	30.2
803.241	29.31
803.416	25.75
803.59	28.09
803.765	28.33
803.94	31.11
804.114	26.92
804.289	28.19
804.463	29.72
804.638	29.88
804.812	33.64
804.986	32.68
805.161	36.87
805.335	37.74
805.51	36.1
805.684	34.51
805.858	31.64
806.033	32.22
806.207	31.35
806.381	30.23
806.556	29.57
806.73	23.35
806.904	23.2
807.078	21.37
807.253	20.21
807.427	21.1
807.601	22.94
807.775	29.85
807.949	28.86
808.123	27.06
808.298	24.32
808.472	24.67
808.646	28.61
808.82	32.48
808.994	35.65
809.168	36.85
809.342	34.89
809.516	33.8
809.69	30.33
809.864	29.17
810.038	27.7
810.212	30.88
810.385	27.32
810.559	27.82
810.733	22.72
810.907	16.84
811.081	14.8
811.255	20.33
811.428	26.26
811.602	24.01
811.776	27.32
811.95	31.03
812.123	30.4
812.297	36.45
812.471	32.76
812.644	34.85
812.818	40.77
812.992	45.13
813.165	42.84
813.339	40.34
813.512	42.79
813.686	44.58
813.86	44.48
814.033	46.34
814.207	44.03
814.38	43.79
814.554	43.83
814.727	40.57
814.9	36.01
815.074	32.03
815.247	30.46
815.421	26.23
815.594	27.28
815.767	30.39
815.941	34.86
816.114	29.96
816.287	33.34
816.46	33.94
816.634	31.58
816.807	34.14
816.98	38.83
817.153	37.28
817.327	36.78
817.5	38.54
817.673	37.22
817.846	36.05
818.019	38.12
818.192	37.85
818.365	31.41
818.538	30.02
818.711	24.11
818.884	23.17
819.057	24.35
819.23	23.19
819.403	19.6
819.576	20.42
819.749	18.73
819.922	19.73
820.095	18.59
820.268	21.54
820.441	23.43
820.614	27.96
820.786	30.36
820.959	29.31
821.132	29.28
821.305	31.74
821.477	31.38
821.65	30.76
821.823	30.73
821.996	30.38
822.168	30.29
822.341	30.57
822.514	30.2
822.686	29.71
822.859	30.28
823.031	31.14
823.204	30.26
823.376	29.67
823.549	29.84
823.722	30.3
823.894	30.64
824.067	31.12
824.239	29.97
824.411	30.27
824.584	30.05
824.756	29.66
824.929	29.52
825.101	29.83
825.273	30.49
825.446	29.75
825.618	28.28
825.79	29.12
825.963	29.32
826.135	30.85
826.307	31.14
826.479	30.37
826.652	29.89
826.824	28.88
826.996	30.18
827.168	30.56
827.34	31.07
827.512	33.14
827.684	31.58
827.856	31.92
828.029	30.91
828.201	30.32
828.373	31.97
828.545	32.13
828.717	33.86
828.889	32.51
829.061	31.79
829.232	30.68
829.404	30.12
829.576	30.08
829.748	30.46
829.92	32.3
830.092	32.86
830.264	29.9
830.436	29.94
830.607	27.38
830.779	27.11
830.951	28.28
831.123	29.18
831.294	26.3
831.466	23.51
831.638	20.93
831.809	19.92
831.981	19.76
832.153	17.22
832.324	19.35
832.496	21.49
832.667	19.27
832.839	17.51
833.011	17.34
833.182	16.35
833.354	17.01
833.525	19.7
833.697	21.03
833.868	21.86
834.039	25.36
834.211	24.39
834.382	24.44
834.554	25.94
834.725	25.14
834.896	26.64
835.068	26.9
835.239	29.91
835.41	28.15
835.581	28.21
835.753	28.72
835.924	28.73
836.095	27.72
836.266	27.31
836.438	24.74
836.609	26.27
836.78	27.59
836.951	23.88
837.122	20.4
837.293	20.23
837.464	19.75
837.635	18.92
837.806	16.72
837.977	21.55
838.148	21.26
838.319	27.59
838.49	30.99
838.661	25.84
838.832	32.07
839.003	35.61
839.174	39.13
839.345	41.43
839.516	37.32
839.687	39.21
839.857	32.64
840.028	36.66
840.199	32.72
840.37	29.92
840.54	36.06
840.711	33.86
840.882	32.04
841.053	29.01
841.223	24.75
841.394	29.18
841.564	31.67
841.735	33.41
841.906	32.01
842.076	35.6
842.247	37.41
842.417	29.59
842.588	32.63
842.758	32.64
842.929	31.03
843.099	30.68
843.27	27.3
843.44	26.47
843.611	26.39
843.781	21.03
843.951	14.03
844.122	-5.19
844.292	16.54
844.462	2.84
844.633	1.88
844.803	13.35
844.973	21.37
845.144	28.3
845.314	24.65
845.484	27.88
845.654	28.6
845.824	29.26
845.995	41.6
846.165	24.28
846.335	36.68
846.505	44.77
846.675	53.63
846.845	60.94
847.015	54.5
847.185	57.04
847.355	61.28
847.525	62.71
847.695	67.43
847.865	58.82
848.035	65.62
848.205	58.92
848.375	43.59
848.545	37.13
848.715	29.2
848.884	44.61
849.054	30.52
849.224	9.34
849.394	6.19
849.564	7.82
849.733	8.17
849.903	21.12
850.073	28.41
850.243	20.49
850.412	24.04
850.582	18.76
850.752	20.44
850.921	22
851.091	34.85
851.26	33.42
851.43	35.57
851.599	28.51
851.769	21.91
851.939	17.12
852.108	17.32
852.278	2.12
852.447	-1.57
852.616	-15
852.786	-4.35
852.955	6.85
853.125	9.31
853.294	5.46
853.463	6.71
853.633	7.76
853.802	26.26
853.971	28.77
854.141	40.25
854.31	41.42
854.479	44.99
854.648	45.75
854.818	33.62
854.987	26.66
855.156	25.09
855.325	23.99
855.494	26.13
855.663	-1.78
855.832	10.64
856.001	7.72
856.171	13.61
856.34	14.9
856.509	9.23
856.678	13.72
856.847	18.78
857.016	18.25
857.185	13.62
857.353	6.69
857.522	11.02
857.691	8.19
857.86	1.32
858.029	-1.9
858.198	-15.13
858.367	-2.5
858.535	-9.19
858.704	11.77
858.873	10.42
859.042	20.82
859.21	35.7
859.379	42.7
859.548	49.21
859.717	50.86
859.885	47.49
860.054	55.75
860.222	53.9
860.391	48.6
860.56	42.83
860.728	44.46
860.897	41.48
861.065	34.93
861.234	24.76
861.402	25.26
861.571	39.21
861.739	31.93
861.908	43.37
862.076	52.8
862.244	68.83
862.413	55.12
862.581	49.86
862.749	54.19
862.918	66.09
863.086	70.71
863.254	64.72
863.423	52.75
863.591	56.96
863.759	49.94
863.927	43.14
864.096	27.23
864.264	31.4
864.432	53.88
864.6	44.12
864.768	37.94
864.936	33.51
865.104	35.82
865.272	40.9
865.44	43.6
865.608	50.41
865.776	44.41
865.944	46.05
866.112	42.12
866.28	38.08
866.448	41.34
866.616	40.51
866.784	33.38
866.952	38.19
867.12	40.08
867.288	34.35
867.455	20.9
867.623	34
867.791	37.75
867.959	49.82
868.127	36.08
868.294	24.9
868.462	29.26
868.63	34.59
868.797	27.52
868.965	32.57
869.133	25.8
869.3	40.79
869.468	41.63
869.636	42.03
869.803	27.99
869.971	29.58
870.138	45.92
870.306	43.89
870.473	38.08
870.641	40.49
870.808	32.33
870.975	33.83
871.143	14.87
871.31	0.82
871.478	17.3
871.645	19.25
871.812	40.31
871.98	11.62
872.147	19.76
872.314	3.89
872.482	5.86
872.649	4.77
872.816	2.16
872.983	17.75
873.15	15.03
873.318	16.71
873.485	22.33
873.652	1.65
873.819	19.23
873.986	17.57
874.153	20.67
874.32	23.05
874.487	24.47
874.654	40.73
874.821	48.86
874.988	53.5
875.155	33.8
875.322	29.39
875.489	30.12
875.656	24.62
875.823	21.16
875.99	24.75
876.157	30.73
876.324	30.18
876.49	1.19
876.657	-0.26
876.824	-12.57
876.991	-17.27
877.157	-9.12
877.324	-7.91
877.491	0.39
877.658	2.51
877.824	-3.12
877.991	-8.48
878.157	-4.43
878.324	1.47
878.491	-11.14
878.657	-1.97
878.824	2.06
878.99	2.34
879.157	5.59
879.323	0.49
879.49	2.32
879.656	4.49
879.823	0.26
879.989	-4.64
880.156	6.11
880.322	10.22
880.488	10.61
880.655	10.17
880.821	14.83
880.987	24.55
881.154	21.14
881.32	26.77
881.486	30.34
881.652	30.02
881.819	34.78
881.985	33.54
882.151	30.7
882.317	34.75
882.483	37.21
882.649	36.54
882.816	32.81
882.982	33.87
883.148	29.32
883.314	27.84
883.48	27.84
883.646	23.47
883.812	24.7
883.978	26.94
884.144	25.36
884.31	23.74
884.476	19.95
884.642	19.67
884.807	20.45
884.973	21.55
885.139	22.11
885.305	22.7
885.471	24.36
885.637	23.2
885.802	20.87
885.968	20.59
886.134	22.52
886.3	25.1
886.465	29.62
886.631	27.49
886.797	25.85
886.962	25.5
887.128	25.1
887.293	25.26
887.459	31.14
887.625	27.15
887.79	26.69
887.956	19.53
888.121	14.12
888.287	1.79
888.452	0.46
888.618	9.79
888.783	2.92
