Data from 2938126_Reflection_1.txt Node
Date: Sat Jul 11 17:23:06 EDT 2015
User: robert
Spectrometer: USB4E03001
Autoset integration time: false
Trigger mode: 4
Integration Time (sec): 1.000000E-1
Scans to average: 10
Electric dark correction enabled: true
Nonlinearity correction enabled: false
Boxcar width: 5
Stray light correction enabled: false
XAxis mode: Wavelengths
Stop averaging: false
Number of Pixels in Spectrum: 3648
>>>>>Begin Spectral Data<<<<<
177.566	291.7
177.785	-4385.29
178.005	259.06
178.225	2995.31
178.445	250.2
178.665	150.07
178.885	-3.98
179.105	-427.49
179.324	447.22
179.544	199.27
179.764	151.07
179.984	131.5
180.204	154.81
180.423	132.71
180.643	146.85
180.863	159.13
181.083	132.54
181.302	117.96
181.522	94.92
181.742	104.22
181.961	117.19
182.181	119.38
182.401	125.37
182.621	143.8
182.84	134.71
183.06	141.91
183.279	135.93
183.499	160.4
183.719	196.24
183.938	232.34
184.158	182.74
184.377	154.11
184.597	142.95
184.816	134.49
185.036	115.44
185.256	115.74
185.475	114.5
185.695	117.02
185.914	111.87
186.134	107.19
186.353	102.45
186.572	109.28
186.792	112.16
187.011	108.69
187.231	105.29
187.45	104.86
187.67	110.48
187.889	104.83
188.108	103.71
188.328	93.94
188.547	105.04
188.766	108.69
188.986	116.46
189.205	113.2
189.424	113.88
189.644	113.29
189.863	138.21
190.082	113.14
190.302	119.2
190.521	113.96
190.74	130.29
190.959	113.71
191.178	109.89
191.398	106.51
191.617	110.85
191.836	117.14
192.055	111.55
192.274	95.68
192.494	97.1
192.713	83.32
192.932	75.38
193.151	63.59
193.37	59.54
193.589	47.9
193.808	43.67
194.027	47.28
194.246	41.95
194.465	48.52
194.685	51.02
194.904	50.6
195.123	56.24
195.342	80.06
195.561	77.29
195.78	160.39
195.999	143.62
196.218	141.93
196.436	127.6
196.655	112.6
196.874	99.01
197.093	74.62
197.312	76.93
197.531	73.48
197.75	58.92
197.969	66.67
198.188	61.72
198.407	62.8
198.625	54.97
198.844	59.32
199.063	66.17
199.282	62.7
199.501	64.79
199.719	56.8
199.938	56.38
200.157	61.15
200.376	48.69
200.594	34.4
200.813	39.64
201.032	29.46
201.251	36.12
201.469	25.28
201.688	37.08
201.907	49.22
202.125	66.28
202.344	55.27
202.563	57.58
202.781	59.52
203	78.25
203.218	66.82
203.437	78.26
203.656	71.04
203.874	80.98
204.093	85.03
204.311	79.93
204.53	79.04
204.748	105.77
204.967	115.34
205.185	116.68
205.404	99.32
205.622	108.44
205.841	115.61
206.059	125.74
206.278	131.36
206.496	103.31
206.715	100.02
206.933	83.83
207.151	81.11
207.37	87.84
207.588	82.28
207.806	79.02
208.025	82.57
208.243	76.03
208.461	68.34
208.68	56.38
208.898	60.18
209.116	62.41
209.335	82.06
209.553	76.85
209.771	55.44
209.989	76.61
210.208	81.33
210.426	83.52
210.644	78.02
210.862	97.83
211.081	114.78
211.299	103.98
211.517	107.14
211.735	82.27
211.953	71.9
212.171	64.4
212.39	61.89
212.608	67.57
212.826	68.77
213.044	74.65
213.262	83.71
213.48	88.5
213.698	106.7
213.916	120.17
214.134	123.33
214.352	166.76
214.57	173.91
214.788	187.85
215.006	172.31
215.224	153.1
215.442	123.46
215.66	115.07
215.878	90.23
216.096	72.91
216.314	61.24
216.532	63.19
216.75	59.82
216.968	63.49
217.185	57.47
217.403	62.04
217.621	51.65
217.839	53.91
218.057	51.27
218.275	54.49
218.492	46.34
218.71	57.57
218.928	80.28
219.146	88.94
219.363	76.11
219.581	91.6
219.799	79.22
220.017	100.13
220.234	100.72
220.452	111.83
220.67	96.82
220.887	98.16
221.105	99.26
221.323	95.73
221.54	84.11
221.758	86.57
221.976	84.58
222.193	108.11
222.411	114.43
222.629	111.7
222.846	112.16
223.064	123.13
223.281	137.74
223.499	124.28
223.716	117.16
223.934	107.99
224.151	120.91
224.369	109.05
224.586	76.59
224.804	61.94
225.021	59.61
225.239	54.32
225.456	49.8
225.674	43.12
225.891	50.03
226.108	48.83
226.326	51.78
226.543	35.82
226.76	35.3
226.978	41.49
227.195	41.57
227.413	43.51
227.63	41.53
227.847	37.39
228.064	32.22
228.282	28.71
228.499	27.79
228.716	29
228.934	29.4
229.151	31.25
229.368	32.21
229.585	31.49
229.802	29.21
230.02	28.41
230.237	30.54
230.454	29.6
230.671	31.91
230.888	28.49
231.105	28.28
231.323	31.27
231.54	29.46
231.757	26.8
231.974	31.09
232.191	34.32
232.408	39.88
232.625	37
232.842	41.7
233.059	42.65
233.276	45.96
233.493	45.63
233.71	41.55
233.927	40.94
234.144	41.11
234.361	40.2
234.578	36.99
234.795	35.11
235.012	40.05
235.229	36.33
235.446	35.43
235.663	38.16
235.879	38.16
236.096	38.43
236.313	43.01
236.53	45.93
236.747	41.55
236.964	44.9
237.181	43.2
237.397	37.77
237.614	42.32
237.831	36.47
238.048	32.73
238.264	30.12
238.481	33.9
238.698	31.19
238.915	31.27
239.131	34.66
239.348	32.26
239.565	32.76
239.781	34.17
239.998	35.02
240.215	38.2
240.431	40.25
240.648	40.58
240.865	39.02
241.081	35.64
241.298	34.32
241.514	31.51
241.731	30.61
241.947	28.01
242.164	26.82
242.38	24.87
242.597	22.26
242.814	21.51
243.03	21.45
243.246	20.52
243.463	20.53
243.679	21.26
243.896	21.7
244.112	22.19
244.329	22.16
244.545	23.73
244.762	25.09
244.978	27.97
245.194	26.21
245.411	24.66
245.627	23.61
245.843	24.5
246.06	21.17
246.276	20.85
246.492	18.84
246.709	20.2
246.925	18.9
247.141	19.28
247.357	19.3
247.574	19.66
247.79	19.26
248.006	18.8
248.222	17.81
248.439	17.62
248.655	18.52
248.871	20.11
249.087	19.99
249.303	19.65
249.519	19.13
249.736	19.09
249.952	19.46
250.168	21.97
250.384	24.76
250.6	25.52
250.816	29.5
251.032	27.8
251.248	26.41
251.464	24.56
251.68	25.62
251.896	24.9
252.112	22.81
252.328	22.62
252.544	22.16
252.76	20.67
252.976	20.79
253.192	19.99
253.408	20.61
253.624	20.44
253.84	21.64
254.056	20.63
254.272	19.47
254.487	18.63
254.703	16.26
254.919	14.3
255.135	12.58
255.351	11.79
255.567	10.78
255.782	10.38
255.998	9.58
256.214	7.74
256.43	7.32
256.646	8.73
256.861	9.34
257.077	14.57
257.293	15.89
257.508	17.81
257.724	15.91
257.94	15.59
258.155	15.33
258.371	15.6
258.587	16.92
258.802	16.6
259.018	16.63
259.234	17.1
259.449	15.11
259.665	15.18
259.88	14.76
260.096	16.14
260.312	15.41
260.527	15.28
260.743	15.27
260.958	14.13
261.174	14.57
261.389	14.6
261.605	14.94
261.82	15.32
262.036	14.99
262.251	15.38
262.466	14.6
262.682	14.87
262.897	14.93
263.113	16.22
263.328	18.38
263.543	18.9
263.759	17.95
263.974	18.69
264.189	18.81
264.405	18.98
264.62	18.35
264.835	19.37
265.051	21.51
265.266	21.33
265.481	20
265.696	18.85
265.912	20.64
266.127	21.83
266.342	20.14
266.557	20.11
266.773	19.41
266.988	18.72
267.203	18.2
267.418	17.32
267.633	17.01
267.848	17.51
268.064	17.03
268.279	16.53
268.494	16.43
268.709	16.93
268.924	16.6
269.139	17.61
269.354	18.29
269.569	16.82
269.784	17.1
269.999	18.15
270.214	16.94
270.429	17.09
270.644	13.86
270.859	12.44
271.074	11.1
271.289	11.61
271.504	11.61
271.719	11.91
271.934	13.7
272.149	13.6
272.363	12.91
272.578	12.81
272.793	13.69
273.008	16.03
273.223	16.58
273.438	17.72
273.653	17.65
273.867	16.84
274.082	17
274.297	16.03
274.512	16.26
274.726	16.92
274.941	17.54
275.156	18.09
275.371	18.55
275.585	19.17
275.8	19.52
276.015	21.23
276.229	22.31
276.444	22.77
276.659	21.57
276.873	21.16
277.088	22.17
277.302	21.59
277.517	21.22
277.732	20.98
277.946	19.35
278.161	21.33
278.375	19.88
278.59	18.3
278.804	16.2
279.019	18.78
279.233	18.76
279.448	17.18
279.662	17.24
279.877	16.69
280.091	16.35
280.306	17.88
280.52	16.18
280.735	16.18
280.949	16.78
281.163	19.31
281.378	18.89
281.592	18.66
281.806	19.42
282.021	19.63
282.235	21.22
282.449	21.49
282.664	20.51
282.878	20.33
283.092	20.01
283.307	19.59
283.521	18.03
283.735	18.65
283.949	18.6
284.164	17.84
284.378	18.12
284.592	17.44
284.806	16.97
285.02	18.04
285.234	16.85
285.449	17.05
285.663	17.44
285.877	17.88
286.091	17.33
286.305	17.83
286.519	18.19
286.733	17.91
286.947	16.95
287.161	15.99
287.375	15.76
287.589	17.35
287.803	17.18
288.017	17.57
288.231	17.13
288.445	16.96
288.659	15.87
288.873	15.8
289.087	15.94
289.301	16.63
289.515	17.42
289.729	15.87
289.943	14.89
290.157	15.05
290.371	14.55
290.584	15.2
290.798	14.1
291.012	14.06
291.226	13.74
291.44	13.55
291.654	13.36
291.867	12.68
292.081	13.98
292.295	14.78
292.509	14.94
292.722	16.26
292.936	16.07
293.15	18.15
293.364	18.08
293.577	18.12
293.791	19.53
294.005	19.68
294.218	19.96
294.432	20.47
294.645	20.72
294.859	20.16
295.073	20.75
295.286	20.41
295.5	19.98
295.713	21.75
295.927	22.11
296.14	21.36
296.354	20.59
296.568	19.86
296.781	20.16
296.994	19.07
297.208	19.38
297.421	19.46
297.635	19.08
297.848	18.36
298.062	17.52
298.275	16.82
298.489	16.79
298.702	17.59
298.915	17.88
299.129	17.67
299.342	19.59
299.555	19.93
299.769	20.04
299.982	20.09
300.195	20.55
300.409	22.91
300.622	23.61
300.835	23.9
301.048	24.35
301.262	26.28
301.475	27.12
301.688	25.81
301.901	24.74
302.115	23.3
302.328	24.17
302.541	25.05
302.754	22.46
302.967	22.68
303.18	22.23
303.393	21.74
303.607	20.38
303.82	18.9
304.033	17.51
304.246	18.83
304.459	17.01
304.672	17.73
304.885	17.54
305.098	17.98
305.311	18.25
305.524	19.76
305.737	19.87
305.95	21.24
306.163	21.83
306.376	22.55
306.589	22.12
306.802	23.69
307.015	23.21
307.228	22.52
307.44	23.63
307.653	23.43
307.866	21.42
308.079	20.32
308.292	19.85
308.505	19.01
308.718	18.68
308.93	19.11
309.143	19.62
309.356	18.58
309.569	18.66
309.781	18.44
309.994	18.17
310.207	19.51
310.42	19.83
310.632	19.11
310.845	19.31
311.058	19.9
311.27	19.87
311.483	20.95
311.696	21.38
311.908	22.42
312.121	21.8
312.333	21.93
312.546	21.4
312.759	22.07
312.971	23.04
313.184	22.28
313.396	23.22
313.609	23.11
313.821	22.39
314.034	22.22
314.246	22.84
314.459	23.14
314.671	22.83
314.884	23.51
315.096	24.08
315.309	25.84
315.521	26.85
315.733	26.53
315.946	26.69
316.158	26.81
316.371	26.17
316.583	23.89
316.795	24.14
317.008	24.47
317.22	24.05
317.432	22.72
317.644	19.27
317.857	19.99
318.069	18.65
318.281	18.24
318.494	16.23
318.706	17.51
318.918	19.23
319.13	19.05
319.342	18.84
319.555	19.44
319.767	19.02
319.979	20.62
320.191	19.95
320.403	21.66
320.615	21.51
320.827	22.47
321.039	22.47
321.252	22.02
321.464	22.5
321.676	23.13
321.888	23.53
322.1	25.01
322.312	23.14
322.524	23.54
322.736	23.13
322.948	22.84
323.16	22.14
323.372	21.71
323.584	22.67
323.796	20.87
324.007	20.17
324.219	19.99
324.431	19.32
324.643	19.3
324.855	19.04
325.067	19.4
325.279	19.2
325.491	20.13
325.702	20.21
325.914	19.15
326.126	21.56
326.338	21.42
326.55	20.99
326.761	21.48
326.973	22.93
327.185	22.88
327.396	23.25
327.608	22.81
327.82	23.73
328.032	25.54
328.243	25.99
328.455	26.17
328.666	27.4
328.878	27.35
329.09	26.08
329.301	27.16
329.513	27.5
329.725	26.31
329.936	27.33
330.148	26.91
330.359	25.77
330.571	25.45
330.782	22.98
330.994	20.82
331.205	21.14
331.417	21.55
331.628	20.92
331.84	21.81
332.051	21.12
332.262	23.75
332.474	24.04
332.685	23.51
332.897	22.86
333.108	24.48
333.319	26.6
333.531	26.67
333.742	27.36
333.953	26.39
334.165	25.64
334.376	26.67
334.587	23.98
334.799	23.49
335.01	24.91
335.221	26.03
335.432	25.02
335.644	25.68
335.855	25.15
336.066	25.57
336.277	25.75
336.488	26.68
336.7	26.38
336.911	28.76
337.122	28.67
337.333	28.33
337.544	27.14
337.755	27.63
337.966	26.3
338.177	27.17
338.388	27.17
338.599	27.55
338.811	27.65
339.022	28.14
339.233	25.64
339.444	25.37
339.655	24.06
339.866	25.32
340.076	26.13
340.287	27.75
340.498	27.27
340.709	27.33
340.92	27.07
341.131	27.68
341.342	28.2
341.553	29
341.764	29.87
341.975	31.19
342.185	30.4
342.396	29.33
342.607	28.69
342.818	28.7
343.029	28.88
343.239	28.08
343.45	26.25
343.661	24.88
343.872	24.84
344.082	23.83
344.293	23.34
344.504	25
344.714	25.73
344.925	25.39
345.136	24.56
345.346	24.31
345.557	25.25
345.768	25.49
345.978	26.65
346.189	26.61
346.399	26.28
346.61	25.92
346.821	25.18
347.031	25.57
347.242	24.98
347.452	26.28
347.663	25.08
347.873	25.2
348.084	25.67
348.294	25.01
348.504	25.03
348.715	26.17
348.925	25.97
349.136	24.91
349.346	24.86
349.557	24.84
349.767	24.73
349.977	26.45
350.188	25.31
350.398	24.96
350.608	24.85
350.819	24.6
351.029	24.73
351.239	24.77
351.449	25.98
351.66	25.32
351.87	26.24
352.08	26.08
352.29	25.56
352.501	26.17
352.711	26.7
352.921	27.18
353.131	27.31
353.341	27.32
353.552	27.4
353.762	26.39
353.972	25.31
354.182	24.38
354.392	24.9
354.602	23.83
354.812	23.46
355.022	22.01
355.232	21.59
355.442	21.77
355.652	20.85
355.862	21.23
356.072	21.71
356.282	22.9
356.492	22.31
356.702	21.69
356.912	21.84
357.122	22.09
357.332	23.76
357.542	23.82
357.752	24.25
357.962	25.04
358.171	24.99
358.381	24.51
358.591	24.03
358.801	24.73
359.011	25.27
359.221	25.27
359.43	25.95
359.64	24.43
359.85	24
360.06	23.46
360.269	23.22
360.479	22.92
360.689	23.45
360.899	23.84
361.108	23.96
361.318	24.17
361.528	24.04
361.737	24.03
361.947	24.99
362.156	25.16
362.366	24.6
362.576	23.47
362.785	23.48
362.995	23.54
363.204	23.34
363.414	23.36
363.623	22.22
363.833	22.68
364.042	21.57
364.252	21.99
364.461	22.3
364.671	22.29
364.88	23.45
365.09	22.36
365.299	21.82
365.509	21.11
365.718	20.91
365.927	21.01
366.137	20.65
366.346	20.89
366.555	19.62
366.765	20.73
366.974	21.41
367.183	20.77
367.393	22.04
367.602	21.95
367.811	22.58
368.021	22.11
368.23	21.8
368.439	22.08
368.648	22.62
368.857	22.66
369.067	21.39
369.276	21.45
369.485	22.24
369.694	21.33
369.903	21.55
370.112	21.41
370.321	21.78
370.531	22.14
370.74	21.45
370.949	20.96
371.158	20.75
371.367	20.39
371.576	19.71
371.785	20.2
371.994	20.45
372.203	20.3
372.412	20.56
372.621	20.86
372.83	20.41
373.039	20.79
373.248	20.91
373.457	21.32
373.666	21.3
373.874	21.78
374.083	21.05
374.292	21.53
374.501	20.68
374.71	20.44
374.919	19.88
375.128	19.71
375.336	18.81
375.545	18.73
375.754	18.53
375.963	18.29
376.171	17.51
376.38	17.69
376.589	17.59
376.798	18.15
377.006	17.99
377.215	18.16
377.424	18.01
377.632	18.8
377.841	18.72
378.05	18.42
378.258	18.59
378.467	19.17
378.675	18.8
378.884	18.83
379.093	18.32
379.301	18.27
379.51	17.76
379.718	17.56
379.927	17.12
380.135	16.65
380.344	16.9
380.552	16.77
380.761	16.64
380.969	16.38
381.177	15.35
381.386	15.33
381.594	14.72
381.803	14.6
382.011	14.62
382.219	15.19
382.428	14.88
382.636	14.39
382.845	14.39
383.053	14.41
383.261	13.85
383.469	15.01
383.678	15.16
383.886	15.4
384.094	15.29
384.302	15.5
384.511	14.77
384.719	15.06
384.927	15.05
385.135	14.87
385.343	14.9
385.552	15.38
385.76	14.45
385.968	14.49
386.176	14.5
386.384	14.57
386.592	14.21
386.8	14.29
387.008	14.2
387.216	14.3
387.424	14.07
387.633	13.9
387.841	13.88
388.049	14.22
388.257	14.39
388.465	14.25
388.672	14.42
388.88	14.43
389.088	14.72
389.296	14.96
389.504	14.89
389.712	15.08
389.92	14.87
390.128	14.66
390.336	14.13
390.544	13.82
390.751	13.7
390.959	13.55
391.167	13.58
391.375	13.03
391.583	12.7
391.79	12.5
391.998	12.3
392.206	12.19
392.414	11.86
392.621	11.95
392.829	11.72
393.037	11.69
393.244	11.36
393.452	11.67
393.66	11.8
393.867	11.58
394.075	11.77
394.283	11.43
394.49	11.74
394.698	12.09
394.905	11.9
395.113	11.99
395.32	11.91
395.528	11.85
395.735	11.52
395.943	11.1
396.15	11.29
396.358	10.92
396.565	11.03
396.773	10.53
396.98	10.24
397.188	10.33
397.395	10.34
397.602	10.35
397.81	10.32
398.017	10.51
398.225	10.83
398.432	10.59
398.639	10.83
398.847	10.95
399.054	10.99
399.261	11.05
399.468	11.3
399.676	11.13
399.883	11.2
400.09	11.52
400.297	11.25
400.505	11.25
400.712	11.46
400.919	11.24
401.126	11.33
401.333	11.25
401.54	10.77
401.748	10.27
401.955	10.13
402.162	10.03
402.369	9.64
402.576	9.38
402.783	9.22
402.99	9.09
403.197	8.9
403.404	8.89
403.611	8.96
403.818	9.41
404.025	9.86
404.232	10.15
404.439	9.92
404.646	9.96
404.853	9.99
405.06	9.93
405.267	9.82
405.474	9.85
405.681	9.6
405.887	9.53
406.094	9.51
406.301	9.46
406.508	9.18
406.715	9.32
406.922	9.58
407.128	9.55
407.335	9.29
407.542	9.42
407.749	9.34
407.955	9.65
408.162	9.6
408.369	9.76
408.575	9.69
408.782	9.94
408.989	9.86
409.195	9.49
409.402	9.62
409.609	9.79
409.815	9.91
410.022	10.16
410.228	9.83
410.435	9.71
410.642	9.19
410.848	8.9
411.055	8.67
411.261	8.72
411.468	8.64
411.674	8.75
411.881	8.65
412.087	8.66
412.294	8.68
412.5	8.92
412.706	9.09
412.913	9.27
413.119	9.36
413.326	9.56
413.532	9.81
413.738	10.18
413.945	10.13
414.151	10.21
414.357	10.09
414.564	10.11
414.77	9.92
414.976	9.87
415.182	9.72
415.389	9.65
415.595	9.29
415.801	9.01
416.007	8.69
416.214	8.44
416.42	8.48
416.626	8.45
416.832	8.26
417.038	8.27
417.244	8.24
417.45	8.32
417.657	8.41
417.863	8.53
418.069	8.68
418.275	8.79
418.481	8.92
418.687	8.9
418.893	8.76
419.099	8.71
419.305	8.66
419.511	8.72
419.717	8.58
419.923	8.51
420.129	8.53
420.335	8.4
420.541	8.32
420.746	8.14
420.952	8.27
421.158	8.22
421.364	8.25
421.57	8.25
421.776	8.13
421.982	8.27
422.187	8.22
422.393	8.19
422.599	8.16
422.805	8.21
423.01	8.35
423.216	8.3
423.422	8.33
423.628	8.34
423.833	8.28
424.039	8.35
424.245	8.24
424.45	8.34
424.656	8.34
424.862	8.29
425.067	8.15
425.273	8.18
425.478	8
425.684	7.79
425.889	7.74
426.095	7.89
426.301	7.98
426.506	8.04
426.712	7.87
426.917	7.78
427.123	7.82
427.328	8.06
427.533	7.9
427.739	8.03
427.944	8.36
428.15	8.37
428.355	8.15
428.561	8
428.766	8.01
428.971	8.13
429.177	8.15
429.382	8.15
429.587	8.12
429.793	8.27
429.998	8.29
430.203	8.46
430.408	8.46
430.614	8.55
430.819	8.61
431.024	8.48
431.229	8.42
431.434	8.3
431.64	8.35
431.845	8.39
432.05	8.25
432.255	8.25
432.46	8
432.665	8.03
432.87	8.12
433.076	8.18
433.281	8.54
433.486	8.61
433.691	8.82
433.896	8.76
434.101	8.59
434.306	8.64
434.511	8.62
434.716	8.9
434.921	8.98
435.126	8.81
435.331	8.82
435.535	8.6
435.74	8.52
435.945	8.3
436.15	8.28
436.355	8.44
436.56	8.43
436.765	8.42
436.97	8.11
437.174	7.97
437.379	8.05
437.584	7.94
437.789	7.8
437.993	7.79
438.198	7.95
438.403	8.07
438.608	7.81
438.812	8.01
439.017	8.1
439.222	8.12
439.426	8.16
439.631	8.12
439.836	8.03
440.04	8.17
440.245	8.38
440.45	8.31
440.654	8.25
440.859	8.53
441.063	8.44
441.268	8.48
441.472	8.62
441.677	8.7
441.881	8.85
442.086	8.92
442.29	8.7
442.495	8.56
442.699	8.54
442.904	8.48
443.108	8.31
443.312	8.18
443.517	8.09
443.721	7.85
443.925	7.69
444.13	7.56
444.334	7.53
444.538	7.53
444.743	7.46
444.947	7.36
445.151	7.52
445.356	7.7
445.56	7.76
445.764	7.68
445.968	7.83
446.173	7.83
446.377	7.74
446.581	7.77
446.785	7.86
446.989	7.83
447.193	7.99
447.398	7.84
447.602	7.66
447.806	7.58
448.01	7.63
448.214	7.51
448.418	7.52
448.622	7.77
448.826	7.85
449.03	7.76
449.234	7.8
449.438	7.88
449.642	7.94
449.846	7.86
450.05	7.86
450.254	7.89
450.458	7.73
450.662	7.62
450.866	7.38
451.069	7.3
451.273	7.48
451.477	7.42
451.681	7.19
451.885	7.26
452.089	7.63
452.292	7.76
452.496	7.94
452.7	8.26
452.904	8.31
453.107	8.53
453.311	8.33
453.515	8.26
453.719	8.37
453.922	8.48
454.126	8.51
454.33	8.23
454.533	8.19
454.737	8.02
454.94	7.89
455.144	8.11
455.348	7.9
455.551	8.03
455.755	8.08
455.958	7.99
456.162	8.05
456.365	8.15
456.569	8.25
456.772	8.17
456.976	8.26
457.179	8.19
457.383	7.95
457.586	8.01
457.79	8.12
457.993	8.03
458.196	8.01
458.4	8.07
458.603	8.02
458.807	7.95
459.01	7.97
459.213	7.87
459.417	8.03
459.62	8.11
459.823	8.08
460.026	8.15
460.23	8.14
460.433	8.24
460.636	8.21
460.839	8.12
461.042	8.16
461.246	8.21
461.449	8.12
461.652	8.03
461.855	7.96
462.058	8.01
462.261	8.01
462.464	7.98
462.668	7.84
462.871	7.84
463.074	7.83
463.277	7.89
463.48	7.86
463.683	7.92
463.886	7.96
464.089	7.87
464.292	7.91
464.495	7.87
464.698	7.96
464.901	8.01
465.104	7.92
465.306	7.96
465.509	7.95
465.712	7.85
465.915	7.88
466.118	7.72
466.321	7.9
466.524	7.9
466.726	7.84
466.929	7.77
467.132	7.73
467.335	7.8
467.538	7.81
467.74	7.64
467.943	7.43
468.146	7.43
468.348	7.6
468.551	7.72
468.754	7.59
468.956	7.43
469.159	7.47
469.362	7.6
469.564	7.52
469.767	7.47
469.969	7.54
470.172	7.89
470.375	7.94
470.577	8.01
470.78	7.86
470.982	7.98
471.185	8.16
471.387	8.18
471.59	8
471.792	8.04
471.995	8.18
472.197	8.18
472.399	8.19
472.602	8.23
472.804	8.2
473.007	8.11
473.209	8.05
473.411	8.09
473.614	8.03
473.816	8.1
474.018	8.08
474.22	7.83
474.423	7.95
474.625	7.83
474.827	7.77
475.03	7.66
475.232	7.73
475.434	7.8
475.636	7.68
475.838	7.61
476.04	7.65
476.243	7.65
476.445	7.83
476.647	7.78
476.849	7.79
477.051	7.74
477.253	7.77
477.455	7.8
477.657	7.69
477.859	7.66
478.061	7.59
478.263	7.65
478.465	7.71
478.667	7.62
478.869	7.49
479.071	7.57
479.273	7.58
479.475	7.55
479.677	7.51
479.879	7.64
480.081	7.65
480.283	7.78
480.485	7.91
480.686	7.9
480.888	7.87
481.09	8.14
481.292	7.99
481.494	7.94
481.695	7.94
481.897	7.95
482.099	7.8
482.301	7.78
482.502	7.79
482.704	7.64
482.906	7.48
483.107	7.55
483.309	7.4
483.511	7.42
483.712	7.41
483.914	7.42
484.115	7.36
484.317	7.38
484.519	7.41
484.72	7.4
484.922	7.4
485.123	7.48
485.325	7.44
485.526	7.53
485.728	7.55
485.929	7.65
486.131	7.57
486.332	7.65
486.534	7.65
486.735	7.55
486.936	7.57
487.138	7.54
487.339	7.48
487.541	7.43
487.742	7.43
487.943	7.42
488.144	7.38
488.346	7.42
488.547	7.41
488.748	7.41
488.95	7.49
489.151	7.4
489.352	7.38
489.553	7.45
489.755	7.49
489.956	7.36
490.157	7.38
490.358	7.43
490.559	7.5
490.76	7.48
490.961	7.45
491.163	7.37
491.364	7.4
491.565	7.5
491.766	7.49
491.967	7.5
492.168	7.55
492.369	7.54
492.57	7.46
492.771	7.44
492.972	7.49
493.173	7.45
493.374	7.42
493.575	7.49
493.776	7.41
493.976	7.49
494.177	7.52
494.378	7.65
494.579	7.68
494.78	7.65
494.981	7.62
495.182	7.56
495.382	7.71
495.583	7.9
495.784	7.97
495.985	8.09
496.185	8.19
496.386	8.22
496.587	8.19
496.788	8.26
496.988	8.42
497.189	8.52
497.39	8.47
497.59	8.47
497.791	8.47
497.992	8.43
498.192	8.34
498.393	8.05
498.593	8.06
498.794	8.08
498.994	8.07
499.195	8.01
499.395	8.05
499.596	8.08
499.796	8.08
499.997	8.1
500.197	8.02
500.398	8.11
500.598	8.29
500.799	8.33
500.999	8.16
501.199	7.98
501.4	8.03
501.6	8.02
501.801	7.84
502.001	7.92
502.201	7.88
502.402	7.91
502.602	7.79
502.802	7.72
503.002	7.66
503.203	7.81
503.403	7.93
503.603	7.87
503.803	7.82
504.003	7.98
504.204	7.88
504.404	7.89
504.604	8.11
504.804	8.15
505.004	8.33
505.204	8.32
505.404	8.38
505.604	8.31
505.804	8.34
506.005	8.24
506.205	8.28
506.405	8.31
506.605	8.32
506.805	8.22
507.005	8.33
507.204	8.2
507.404	8.24
507.604	8.21
507.804	8.15
508.004	8.18
508.204	8.23
508.404	8.27
508.604	8.46
508.804	8.56
509.003	8.53
509.203	8.47
509.403	8.43
509.603	8.46
509.803	8.44
510.002	8.53
510.202	8.5
510.402	8.54
510.602	8.41
510.801	8.25
511.001	8.11
511.201	8.19
511.4	8.32
511.6	8.48
511.8	8.47
511.999	8.58
512.199	8.69
512.398	8.7
512.598	8.63
512.797	8.84
512.997	8.96
513.197	8.99
513.396	8.88
513.596	8.89
513.795	8.85
513.994	8.81
514.194	8.69
514.393	8.63
514.593	8.68
514.792	8.84
514.992	8.74
515.191	8.66
515.39	8.8
515.59	8.77
515.789	8.73
515.988	8.73
516.188	8.83
516.387	8.79
516.586	8.77
516.786	8.84
516.985	8.84
517.184	8.84
517.383	8.93
517.582	8.87
517.782	8.91
517.981	8.93
518.18	8.85
518.379	8.88
518.578	8.97
518.777	8.99
518.976	8.91
519.176	8.95
519.375	8.98
519.574	8.97
519.773	9.05
519.972	9.21
520.171	9.16
520.37	9.16
520.569	9.08
520.768	9.1
520.967	9.03
521.166	9.02
521.365	9
521.564	8.99
521.762	8.9
521.961	8.91
522.16	8.78
522.359	8.79
522.558	8.85
522.757	9.03
522.956	8.9
523.154	8.98
523.353	8.98
523.552	9.01
523.751	9.13
523.949	9.22
524.148	9.16
524.347	9.14
524.546	9.24
524.744	9.26
524.943	9.18
525.142	9.37
525.34	9.42
525.539	9.48
525.737	9.5
525.936	9.4
526.135	9.33
526.333	9.38
526.532	9.45
526.73	9.36
526.929	9.32
527.127	9.38
527.326	9.22
527.524	9.22
527.723	9.16
527.921	9.16
528.12	9.14
528.318	9.2
528.516	9.2
528.715	9.18
528.913	9.25
529.112	9.27
529.31	9.19
529.508	9.28
529.707	9.21
529.905	9.26
530.103	9.25
530.301	9.31
530.5	9.34
530.698	9.33
530.896	9.36
531.094	9.34
531.293	9.25
531.491	9.31
531.689	9.3
531.887	9.46
532.085	9.5
532.283	9.61
532.481	9.67
532.68	9.71
532.878	9.81
533.076	9.74
533.274	9.65
533.472	9.85
533.67	9.9
533.868	9.91
534.066	9.92
534.264	9.89
534.462	9.83
534.66	9.73
534.858	9.67
535.056	9.69
535.253	9.71
535.451	9.86
535.649	9.8
535.847	9.78
536.045	9.84
536.243	9.81
536.441	9.9
536.638	9.86
536.836	9.84
537.034	9.93
537.232	9.9
537.43	10.08
537.627	10.05
537.825	10.13
538.023	10.19
538.22	10.25
538.418	10.41
538.616	10.53
538.813	10.57
539.011	10.76
539.209	10.71
539.406	10.64
539.604	10.7
539.801	10.82
539.999	10.75
540.196	10.78
540.394	10.84
540.591	10.84
540.789	10.74
540.986	10.82
541.184	10.81
541.381	10.79
541.579	10.78
541.776	10.64
541.974	10.51
542.171	10.59
542.368	10.65
542.566	10.6
542.763	10.55
542.96	10.6
543.158	10.61
543.355	10.7
543.552	10.68
543.75	10.78
543.947	10.85
544.144	10.96
544.341	10.96
544.539	10.82
544.736	10.85
544.933	10.85
545.13	10.81
545.327	10.72
545.524	10.67
545.722	10.82
545.919	10.89
546.116	10.93
546.313	10.86
546.51	10.88
546.707	10.93
546.904	10.99
547.101	11.09
547.298	11.18
547.495	11.39
547.692	11.35
547.889	11.24
548.086	11.15
548.283	11.38
548.48	11.74
548.677	11.8
548.874	11.96
549.07	12.03
549.267	12.12
549.464	12.12
549.661	12.19
549.858	12.3
550.055	12.59
550.251	12.59
550.448	12.51
550.645	12.27
550.842	12.15
551.038	12.08
551.235	11.99
551.432	12.12
551.628	12.07
551.825	12
552.022	12.04
552.218	11.84
552.415	11.88
552.612	11.99
552.808	12.12
553.005	12.31
553.201	12.33
553.398	12.46
553.594	12.2
553.791	12.43
553.987	12.34
554.184	12.33
554.38	12.55
554.577	12.82
554.773	12.84
554.97	12.82
555.166	12.9
555.362	12.91
555.559	12.81
555.755	13.01
555.952	12.93
556.148	13.27
556.344	13.39
556.541	13.44
556.737	13.12
556.933	13.08
557.129	13.32
557.326	13.24
557.522	13.31
557.718	13.61
557.914	13.59
558.11	13.71
558.307	13.38
558.503	13.38
558.699	13.28
558.895	13.62
559.091	13.65
559.287	13.46
559.483	13.38
559.679	13.66
559.876	13.56
560.072	13.34
560.268	13.33
560.464	13.5
560.66	13.58
560.856	13.65
561.052	13.67
561.247	13.65
561.443	13.64
561.639	13.84
561.835	13.74
562.031	13.66
562.227	13.88
562.423	13.81
562.619	14.02
562.815	13.94
563.01	13.84
563.206	13.88
563.402	13.93
563.598	13.94
563.793	13.92
563.989	13.86
564.185	14.03
564.381	13.94
564.576	13.94
564.772	13.81
564.968	14.08
565.163	14.24
565.359	14.13
565.555	13.96
565.75	13.99
565.946	13.89
566.141	13.94
566.337	13.91
566.532	14.04
566.728	13.91
566.923	13.94
567.119	13.93
567.314	14.01
567.51	14
567.705	14.08
567.901	14.28
568.096	14.21
568.292	14.35
568.487	14.42
568.682	14.36
568.878	14.57
569.073	14.49
569.268	14.45
569.464	14.35
569.659	14.65
569.854	14.74
570.05	14.66
570.245	14.73
570.44	14.72
570.635	14.64
570.831	14.59
571.026	14.76
571.221	14.85
571.416	14.81
571.611	14.97
571.806	14.7
572.002	14.73
572.197	14.71
572.392	14.81
572.587	14.7
572.782	14.77
572.977	14.92
573.172	14.93
573.367	15.11
573.562	15.12
573.757	14.86
573.952	15.04
574.147	14.94
574.342	14.85
574.537	14.9
574.732	14.94
574.927	14.81
575.121	14.8
575.316	14.69
575.511	14.47
575.706	14.4
575.901	14.65
576.096	14.59
576.29	14.59
576.485	14.75
576.68	14.73
576.875	14.71
577.069	14.74
577.264	14.76
577.459	14.93
577.654	14.96
577.848	15.15
578.043	15.1
578.238	15.01
578.432	15.32
578.627	15.37
578.821	15.33
579.016	15.59
579.21	15.65
579.405	15.77
579.6	15.61
579.794	15.58
579.989	15.62
580.183	15.74
580.378	16.09
580.572	15.91
580.766	15.86
580.961	15.96
581.155	15.73
581.35	15.89
581.544	15.47
581.738	15.68
581.933	15.76
582.127	15.68
582.321	15.34
582.516	15.19
582.71	15.2
582.904	15.24
583.099	15.21
583.293	15.26
583.487	15.02
583.681	15.42
583.875	15.17
584.07	15.42
584.264	15.5
584.458	15.75
584.652	15.85
584.846	16.01
585.04	16.23
585.234	16.48
585.428	16.56
585.623	16.76
585.817	16.58
586.011	16.88
586.205	16.9
586.399	17.05
586.593	17.12
586.787	16.84
586.981	16.66
587.174	16.34
587.368	16.02
587.562	16.08
587.756	16.16
587.95	16.31
588.144	15.9
588.338	15.89
588.532	15.62
588.725	15.49
588.919	15.63
589.113	15.7
589.307	15.54
589.501	15.72
589.694	15.58
589.888	15.43
590.082	15.45
590.275	15.69
590.469	15.44
590.663	15.49
590.856	15.53
591.05	15.39
591.244	15.43
591.437	15.73
591.631	15.66
591.824	15.73
592.018	15.92
592.212	15.73
592.405	16.06
592.599	16.13
592.792	16.21
592.986	16.14
593.179	16.47
593.372	16.36
593.566	16.44
593.759	16.66
593.953	16.67
594.146	16.5
594.339	16.77
594.533	16.41
594.726	16.35
594.92	16.54
595.113	16.73
595.306	16.44
595.499	16.55
595.693	16.43
595.886	16.31
596.079	16.23
596.272	16.15
596.466	16.22
596.659	16.25
596.852	16.21
597.045	15.96
597.238	15.84
597.431	15.87
597.624	15.79
597.818	15.85
598.011	15.82
598.204	16.03
598.397	16.01
598.59	15.88
598.783	15.91
598.976	16.08
599.169	16.08
599.362	15.93
599.555	16.22
599.748	16.28
599.941	16.35
600.134	16.38
600.326	16.08
600.519	16.34
600.712	16.41
600.905	16.56
601.098	16.47
601.291	16.7
601.483	16.95
601.676	16.86
601.869	16.8
602.062	16.74
602.255	16.58
602.447	16.62
602.64	16.74
602.833	16.77
603.025	16.74
603.218	16.85
603.411	16.78
603.603	16.59
603.796	16.48
603.989	16.36
604.181	16.36
604.374	16.47
604.566	16.55
604.759	16.47
604.951	16.43
605.144	16.36
605.336	16.28
605.529	16.2
605.721	16.34
605.914	16.13
606.106	16.37
606.299	16.4
606.491	16.34
606.683	16.25
606.876	16.18
607.068	16.12
607.26	16.15
607.453	16.13
607.645	16.34
607.837	16.25
608.03	16.63
608.222	16.37
608.414	16.08
608.606	16.12
608.799	16.33
608.991	16.53
609.183	16.51
609.375	16.43
609.567	16.44
609.759	16.26
609.952	16.22
610.144	16.24
610.336	16.49
610.528	16.64
610.72	16.58
610.912	16.55
611.104	16.37
611.296	16.39
611.488	16.36
611.68	16.38
611.872	16.53
612.064	16.59
612.256	16.66
612.448	16.64
612.64	16.82
612.832	17.1
613.023	16.86
613.215	17
613.407	17.2
613.599	17.4
613.791	17.63
613.983	17.49
614.174	17.83
614.366	17.97
614.558	17.82
614.75	17.69
614.941	17.35
615.133	17.69
615.325	17.63
615.516	17.35
615.708	17.48
615.9	17.39
616.091	17.65
616.283	17.33
616.475	17.04
616.666	17.13
616.858	17.23
617.049	17.29
617.241	17.26
617.432	17.2
617.624	17.38
617.815	17.07
618.007	16.7
618.198	16.42
618.39	16.8
618.581	16.65
618.773	16.63
618.964	16.62
619.155	16.46
619.347	16.09
619.538	16.29
619.729	16.28
619.921	16.46
620.112	16.78
620.303	17.03
620.494	16.71
620.686	16.93
620.877	17.05
621.068	16.8
621.259	17.15
621.451	17.45
621.642	16.95
621.833	16.95
622.024	16.86
622.215	16.91
622.406	16.64
622.597	16.8
622.788	16.59
622.98	16.73
623.171	17.07
623.362	17.02
623.553	17.09
623.744	17.45
623.935	17.63
624.126	17.4
624.317	16.96
624.508	17.15
624.698	17.31
624.889	17.47
625.08	17.29
625.271	17.26
625.462	17.02
625.653	16.7
625.844	16.63
626.034	16.32
626.225	16.48
626.416	16.72
626.607	16.74
626.798	16.37
626.988	16.36
627.179	16.46
627.37	16.23
627.56	16.63
627.751	17.01
627.942	17.04
628.132	16.96
628.323	16.89
628.514	17.05
628.704	16.93
628.895	16.97
629.085	17.05
629.276	17.05
629.466	17.18
629.657	17.11
629.847	16.81
630.038	16.99
630.228	17.3
630.419	17.5
630.609	17.23
630.8	17.26
630.99	17.32
631.181	17.3
631.371	16.95
631.561	17.05
631.752	17
631.942	17.47
632.132	17.46
632.323	17.44
632.513	17.3
632.703	17.46
632.893	17.44
633.084	17.58
633.274	17.46
633.464	17.6
633.654	17.7
633.844	17.54
634.034	17.19
634.225	16.99
634.415	16.63
634.605	16.58
634.795	16.63
634.985	16.42
635.175	16.34
635.365	16.51
635.555	16.42
635.745	16.3
635.935	16.63
636.125	16.51
636.315	16.38
636.505	16.64
636.695	16.45
636.885	16.58
637.075	16.87
637.265	16.81
637.455	16.48
637.644	16.68
637.834	16.73
638.024	16.63
638.214	16.78
638.404	17.03
638.593	17.31
638.783	17.78
638.973	17.64
639.163	17.67
639.352	17.6
639.542	17.93
639.732	17.73
639.921	17.57
640.111	17.48
640.301	17.26
640.49	17.28
640.68	17.1
640.87	17.02
641.059	16.92
641.249	16.87
641.438	16.91
641.628	16.95
641.817	17.64
642.007	17.76
642.196	17.57
642.386	17.51
642.575	17.47
642.764	17.56
642.954	17.08
643.143	17.08
643.333	16.98
643.522	17.11
643.711	17.19
643.901	16.75
644.09	16.65
644.279	16.8
644.469	16.62
644.658	16.5
644.847	16.44
645.036	16.58
645.226	16.91
645.415	17.18
645.604	16.98
645.793	16.66
645.982	16.68
646.171	17.06
646.361	16.85
646.55	17.63
646.739	17.62
646.928	17.7
647.117	17.85
647.306	17.38
647.495	17
647.684	17.31
647.873	17.12
648.062	17.19
648.251	16.91
648.44	17.36
648.629	16.84
648.818	16.59
649.007	16.27
649.196	16.61
649.384	16.89
649.573	17.22
649.762	16.9
649.951	17.22
650.14	17.06
650.328	16.94
650.517	16.62
650.706	17.05
650.895	17.46
651.083	17.63
651.272	17.73
651.461	17.53
651.65	17.27
651.838	17.57
652.027	17.62
652.216	17.85
652.404	17.7
652.593	17.85
652.781	17.93
652.97	17.55
653.158	17.75
653.347	17.56
653.535	17.57
653.724	17.86
653.912	17.7
654.101	17.37
654.289	17.02
654.478	17.33
654.666	17.56
654.855	17.11
655.043	17.39
655.231	16.96
655.42	17.22
655.608	17.2
655.796	17.09
655.985	17.06
656.173	17.73
656.361	17.71
656.55	17.57
656.738	17.13
656.926	17.42
657.114	17.3
657.302	18.04
657.491	17.83
657.679	17.78
657.867	17.54
658.055	17.65
658.243	17.21
658.431	17.49
658.619	17.51
658.807	17.8
658.996	17.64
659.184	17.72
659.372	17.24
659.56	16.9
659.748	17.06
659.936	17.37
660.124	17.46
660.311	17.5
660.499	17.38
660.687	17.5
660.875	17.29
661.063	17.06
661.251	17.18
661.439	17.05
661.627	17.35
661.814	17.06
662.002	16.84
662.19	16.64
662.378	16.72
662.565	16.8
662.753	16.86
662.941	16.88
663.129	16.88
663.316	17.01
663.504	17.38
663.692	17.44
663.879	17.71
664.067	17.6
664.254	17.74
664.442	18.04
664.63	18.27
664.817	18.41
665.005	18.36
665.192	18.56
665.38	18.72
665.567	18.74
665.755	18.7
665.942	18.89
666.13	18.98
666.317	18.93
666.504	18.44
666.692	18.1
666.879	17.79
667.067	18.01
667.254	18.39
667.441	17.73
667.629	17.56
667.816	17.37
668.003	17.26
668.19	17.53
668.378	17.77
668.565	17.46
668.752	17.56
668.939	17.15
669.127	16.91
669.314	16.86
669.501	16.95
669.688	17.13
669.875	17.01
670.062	17.48
670.249	17.36
670.436	16.89
670.623	17.19
670.81	17.41
670.997	17.73
671.184	17.52
671.371	17.36
671.558	17.7
671.745	17.94
671.932	18.34
672.119	17.88
672.306	17.48
672.493	17.64
672.68	17.8
672.867	17.43
673.054	17.78
673.24	18.69
673.427	18.37
673.614	18.45
673.801	18.1
673.988	18.24
674.174	18.53
674.361	18.69
674.548	18.38
674.734	18.53
674.921	18.57
675.108	18.32
675.294	18.1
675.481	18.67
675.668	18.74
675.854	19.13
676.041	19.19
676.227	19.34
676.414	19.56
676.601	19.77
676.787	19.53
676.974	19.54
677.16	19.88
677.347	19.52
677.533	19.42
677.719	19.73
677.906	19.23
678.092	19.18
678.279	18.6
678.465	18.71
678.651	18.65
678.838	19.35
679.024	19.39
679.21	19.2
679.397	19.04
679.583	18.65
679.769	18.09
679.955	17.94
680.142	17.68
680.328	17.9
680.514	17.79
680.7	18.09
680.886	17.54
681.073	17.78
681.259	17.83
681.445	17.95
681.631	18.29
681.817	18.61
682.003	18.83
682.189	18.8
682.375	18.89
682.561	18.75
682.747	18.78
682.933	18.85
683.119	18.95
683.305	19.02
683.491	19.18
683.677	19.19
683.863	18.72
684.049	18.77
684.235	18.6
684.42	18.1
684.606	18.28
684.792	18.13
684.978	18
685.164	17.68
685.349	17.56
685.535	17.45
685.721	17.25
685.907	17.58
686.092	17.58
686.278	17.97
686.464	18.14
686.649	18.15
686.835	18.13
687.021	18.62
687.206	18.69
687.392	18.7
687.577	19.04
687.763	19.05
687.948	18.36
688.134	18.53
688.319	18.72
688.505	18.67
688.69	19.03
688.876	19.21
689.061	19.04
689.247	19.04
689.432	18.85
689.618	18.28
689.803	18.81
689.988	19.57
690.174	19.35
690.359	19.16
690.544	19.51
690.73	18.95
690.915	19.13
691.1	19.09
691.285	19.46
691.471	19.45
691.656	19.64
691.841	19.12
692.026	18.68
692.211	19.09
692.396	18.75
692.582	18.9
692.767	19.51
692.952	19.68
693.137	19.43
693.322	19.48
693.507	19.18
693.692	19.44
693.877	19.71
694.062	20.19
694.247	19.62
694.432	20.36
694.617	19.84
694.802	19.76
694.987	18.9
695.172	18.55
695.357	18.22
695.541	18.75
695.726	18.62
695.911	18.49
696.096	18.19
696.281	18.61
696.466	18.14
696.65	18.33
696.835	17.59
697.02	18.15
697.204	18.78
697.389	18.8
697.574	18.2
697.759	17.86
697.943	17.97
698.128	17.76
698.312	17.6
698.497	17.53
698.682	17.39
698.866	18
699.051	17.56
699.235	17.42
699.42	17.15
699.604	17.71
699.789	17.97
699.973	17.96
700.158	18.3
700.342	18.31
700.527	18.18
700.711	18.58
700.895	18.26
701.08	18.42
701.264	18.38
701.448	18.91
701.633	18.85
701.817	18.92
702.001	18.83
702.186	18.99
702.37	18.78
702.554	19.22
702.738	19.24
702.923	19.39
703.107	19.77
703.291	19.53
703.475	19.02
703.659	19.11
703.843	19.15
704.027	18.76
704.212	18.7
704.396	18.79
704.58	19.06
704.764	19.16
704.948	19
705.132	18.86
705.316	19.37
705.5	19.55
705.684	19.38
705.868	19.33
706.052	19.72
706.235	20.08
706.419	20.2
706.603	19.53
706.787	19.44
706.971	19.83
707.155	19.85
707.339	19.68
707.522	19.56
707.706	19.46
707.89	19.56
708.074	19.38
708.257	18.56
708.441	18.69
708.625	19.68
708.808	20.19
708.992	19.71
709.176	19.64
709.359	19.6
709.543	19.39
709.727	19.89
709.91	19.92
710.094	20.03
710.277	20.66
710.461	21.05
710.644	21.03
710.828	20.25
711.011	20.35
711.195	20.94
711.378	21.17
711.562	21.5
711.745	21.09
711.928	20.95
712.112	20.67
712.295	20.42
712.478	20.14
712.662	19.99
712.845	20.4
713.028	20.86
713.212	20.18
713.395	20.02
713.578	19.48
713.761	18.64
713.945	18.71
714.128	18.92
714.311	18.93
714.494	18.53
714.677	17.88
714.86	17.28
715.043	16.89
715.227	17.57
715.41	17.45
715.593	17.85
715.776	18.53
715.959	18.99
716.142	18.71
716.325	19.12
716.508	19.59
716.691	20.51
716.874	21.23
717.057	21.27
717.239	20.69
717.422	20.2
717.605	20.93
717.788	20.66
717.971	20.16
718.154	20.35
718.337	20.56
718.519	20.03
718.702	19.78
718.885	19.01
719.068	19.9
719.25	20.68
719.433	20.98
719.616	20.06
719.798	20.36
719.981	21.18
720.164	21.26
720.346	20.46
720.529	21.26
720.712	21
720.894	22.55
721.077	22.44
721.259	22.32
721.442	23.12
721.624	22.76
721.807	22.63
721.989	22.29
722.172	22.93
722.354	23.74
722.537	22.82
722.719	22.15
722.901	21.22
723.084	20.45
723.266	20.1
723.448	20.76
723.631	21.35
723.813	21.78
723.995	21.54
724.178	21.92
724.36	21.7
724.542	21.87
724.724	23.42
724.907	23.6
725.089	23.82
725.271	23.28
725.453	22.9
725.635	22.4
725.817	22.68
725.999	22.79
726.181	22.39
726.364	21.82
726.546	21.63
726.728	20.93
726.91	20.76
727.092	21.08
727.274	22.18
727.456	22.01
727.638	23.14
727.819	22.67
728.001	22.09
728.183	21.5
728.365	21.63
728.547	21.71
728.729	21.49
728.911	20.95
729.093	20.7
729.274	20.18
729.456	19.39
729.638	18.2
729.82	18.75
730.001	19.22
730.183	19.4
730.365	19.62
730.546	20.38
730.728	20.15
730.91	21.19
731.091	21.92
731.273	21.8
731.455	22.5
731.636	23.34
731.818	22.3
731.999	21.85
732.181	22.03
732.362	22.41
732.544	21.38
732.725	21.82
732.907	21.53
733.088	20.43
733.27	21.44
733.451	21.12
733.633	21.36
733.814	22.35
733.995	23.18
734.177	23.38
734.358	21.99
734.539	22.2
734.721	22.63
734.902	22.27
735.083	21.67
735.264	20.44
735.446	20.08
735.627	19.45
735.808	18.57
735.989	19.11
736.17	19.09
736.351	19.95
736.533	20.18
736.714	19.77
736.895	20.72
737.076	21.52
737.257	21.72
737.438	21.94
737.619	21.91
737.8	22.8
737.981	21.45
738.162	21.91
738.343	22.08
738.524	22.26
738.705	21.86
738.886	20.57
739.067	21.1
739.247	20.9
739.428	20.47
739.609	20.72
739.79	19.98
739.971	19.61
740.151	20.84
740.332	21.26
740.513	22.2
740.694	21.13
740.874	21.72
741.055	21.62
741.236	21.83
741.417	22.05
741.597	21.81
741.778	22.51
741.958	22.89
742.139	20.67
742.32	19.7
742.5	19.39
742.681	20.46
742.861	20.22
743.042	20.54
743.222	19.03
743.403	18.62
743.583	17.94
743.764	18.17
743.944	18.68
744.124	19.97
744.305	20.35
744.485	19.99
744.666	20.52
744.846	21
745.026	21.26
745.207	22.48
745.387	24.52
745.567	26.09
745.747	25.92
745.928	26.45
746.108	26.03
746.288	25.14
746.468	24.58
746.648	24.97
746.829	24.82
747.009	24.66
747.189	24.95
747.369	23.86
747.549	23.35
747.729	22.69
747.909	22.22
748.089	21.31
748.269	22.25
748.449	23.16
748.629	23.58
748.809	23.37
748.989	22.64
749.169	22.06
749.349	21.71
749.529	21.79
749.709	21.62
749.889	21.28
750.068	22.3
750.248	22.35
750.428	22.12
750.608	20.39
750.788	20.33
750.967	20
751.147	19.29
751.327	20.63
751.507	19.96
751.686	21.01
751.866	22.13
752.046	21.52
752.225	21.64
752.405	21.67
752.585	22.46
752.764	22.51
752.944	22.02
753.123	23.01
753.303	21.32
753.482	22.84
753.662	22.08
753.841	21.14
754.021	21.37
754.2	20.1
754.38	19.87
754.559	19.01
754.739	19.49
754.918	20.03
755.097	20.15
755.277	21.13
755.456	20.64
755.635	20.77
755.815	19.87
755.994	20.93
756.173	22.42
756.352	22.85
756.532	23.23
756.711	22.56
756.89	22.92
757.069	23.37
757.248	22.87
757.427	21.52
757.607	21.85
757.786	23.64
757.965	21.33
758.144	21.24
758.323	20.75
758.502	20.82
758.681	21.13
758.86	20.84
759.039	21.57
759.218	21.83
759.397	23.33
759.576	22.56
759.755	22.61
759.934	23.34
760.113	24.14
760.291	23.79
760.47	23.97
760.649	24.54
760.828	25.13
761.007	23.7
761.186	24.84
761.364	24.04
761.543	24.53
761.722	24.42
761.901	25.33
762.079	24.22
762.258	24.28
762.437	24.31
762.615	23.74
762.794	23.76
762.972	24.17
763.151	23.63
763.33	23.06
763.508	23.52
763.687	22.4
763.865	22.18
764.044	22.42
764.222	22.42
764.401	22.88
764.579	21.72
764.758	21.39
764.936	21.38
765.114	21.11
765.293	22.41
765.471	21.85
765.65	22.26
765.828	21.84
766.006	21.64
766.184	21.67
766.363	20.77
766.541	22.18
766.719	22.88
766.898	23.88
767.076	22.92
767.254	21.61
767.432	21.59
767.61	21.82
767.788	22.57
767.967	22.03
768.145	22.03
768.323	22.4
768.501	22.8
768.679	22.22
768.857	20.63
769.035	22.29
769.213	22.81
769.391	24.22
769.569	24.22
769.747	23.16
769.925	23.83
770.103	23.69
770.281	25.13
770.459	24.57
770.636	25.49
770.814	26.59
770.992	24.98
771.17	25.6
771.348	24.99
771.525	24.69
771.703	25.29
771.881	26.64
772.059	27.99
772.236	27.32
772.414	26.71
772.592	26.22
772.769	25.79
772.947	27.49
773.125	28.16
773.302	27.39
773.48	29.72
773.657	29.84
773.835	30.95
774.013	29.66
774.19	28.9
774.368	30.72
774.545	30.27
774.723	31.24
774.9	31.4
775.077	31.46
775.255	31.84
775.432	32.63
775.61	32.9
775.787	31.51
775.964	31.96
776.142	31.94
776.319	31.82
776.496	33.28
776.674	33.15
776.851	32.78
777.028	31.33
777.205	29.08
777.382	26.03
777.56	25.08
777.737	24.55
777.914	22.94
778.091	23.8
778.268	23.4
778.445	23.45
778.622	21.4
778.8	20.16
778.977	20.75
779.154	23.92
779.331	24.49
779.508	26.52
779.685	27.5
779.862	29.94
780.038	31.49
780.215	31.77
780.392	29.78
780.569	31.07
780.746	34.54
780.923	33.25
781.1	32.18
781.277	32.32
781.453	32.15
781.63	31.45
781.807	31.73
781.984	30.7
782.16	31.73
782.337	31.65
782.514	32.02
782.691	29.99
782.867	30.51
783.044	30.96
783.221	32.76
783.397	31.19
783.574	29.01
783.75	28.03
783.927	27.5
784.103	27.55
784.28	29.28
784.456	28.88
784.633	28.73
784.809	28.28
784.986	27.23
785.162	26.37
785.339	26.65
785.515	27.89
785.692	27.19
785.868	27.3
786.044	26.24
786.221	24.51
786.397	23.91
786.573	22.96
786.749	23.61
786.926	25.96
787.102	23.83
787.278	24.71
787.454	25.75
787.631	26.07
787.807	24.8
787.983	23.42
788.159	24.23
788.335	25.21
788.511	25.27
788.687	25.58
788.863	24.22
789.039	27.99
789.216	28.69
789.392	29.09
789.568	28.22
789.744	29.85
789.919	30.27
790.095	30.77
790.271	28.72
790.447	29.55
790.623	28.47
790.799	27.15
790.975	23.75
791.151	23.34
791.327	24.06
791.502	24.79
791.678	25.9
791.854	26.47
792.03	24.69
792.205	24.59
792.381	26.48
792.557	30.39
792.733	30.05
792.908	29.92
793.084	27.05
793.259	25.74
793.435	27.29
793.611	24.59
793.786	24.65
793.962	24.52
794.137	28.23
794.313	25.31
794.488	23.87
794.664	24.35
794.839	25
795.015	27.63
795.19	28.26
795.366	28.56
795.541	29.99
795.716	27.31
795.892	29.27
796.067	28.69
796.242	28.35
796.418	26.9
796.593	27.68
796.768	28.77
796.944	29.45
797.119	27.54
797.294	27.67
797.469	26.6
797.644	27.44
797.82	25.05
797.995	23.95
798.17	26.46
798.345	26.81
798.52	28.57
798.695	32.32
798.87	30.37
799.045	30.51
799.22	28.75
799.395	26.67
799.57	29.77
799.745	30.71
799.92	31.73
800.095	33.17
800.27	33.77
800.445	32.2
800.62	27.05
800.795	28.7
800.97	29.96
801.145	31.49
801.319	34.14
801.494	34.36
801.669	37.6
801.844	39.23
802.018	35.3
802.193	34.92
802.368	36.35
802.543	38.43
802.717	38.66
802.892	37.24
803.067	38.67
803.241	38.84
803.416	39.82
803.59	37.6
803.765	37.73
803.94	41.19
804.114	37.86
804.289	36.64
804.463	32.96
804.638	32.01
804.812	35.92
804.986	34.93
805.161	34.01
805.335	33.49
805.51	32.51
805.684	31.52
805.858	26.41
806.033	29.97
806.207	31.21
806.381	31.16
806.556	30.9
806.73	28.54
806.904	27.56
807.078	28.26
807.253	24.27
807.427	25.66
807.601	23.47
807.775	26.21
807.949	24.52
808.123	23.51
808.298	24.35
808.472	27.82
808.646	26.32
808.82	27.57
808.994	27.27
809.168	32.99
809.342	33.2
809.516	33.62
809.69	34.64
809.864	36.28
810.038	35.81
810.212	35.91
810.385	30.6
810.559	35.95
810.733	37.82
810.907	37.14
811.081	36.66
811.255	38.83
811.428	39.26
811.602	38.79
811.776	40.25
811.95	40.06
812.123	42.05
812.297	43.72
812.471	39.64
812.644	35.1
812.818	38.2
812.992	36.59
813.165	31.92
813.339	33.25
813.512	31.93
813.686	30.13
813.86	31.54
814.033	33.92
814.207	35.64
814.38	33.67
814.554	34.99
814.727	35.96
814.9	31.64
815.074	34.73
815.247	35.46
815.421	36.92
815.594	34.25
815.767	37.48
815.941	36.99
816.114	38.87
816.287	42.5
816.46	41.08
816.634	38.57
816.807	42.08
816.98	39.16
817.153	34.91
817.327	31.33
817.5	32.31
817.673	32.34
817.846	32.51
818.019	29.64
818.192	25.99
818.365	24.83
818.538	25.52
818.711	25.67
818.884	25.78
819.057	27.92
819.23	31.13
819.403	32.74
819.576	29.29
819.749	25.21
819.922	26.67
820.095	29.04
820.268	31.08
820.441	30.24
820.614	28.96
820.786	31.55
820.959	30.89
821.132	28.7
821.305	26.91
821.477	25.72
821.65	26.48
821.823	26.43
821.996	24.64
822.168	24.58
822.341	23.36
822.514	22.73
822.686	21.64
822.859	22.01
823.031	21.92
823.204	21.56
823.376	21.87
823.549	20.88
823.722	20.25
823.894	21.09
824.067	20.57
824.239	21.33
824.411	21.28
824.584	21.66
824.756	20.29
824.929	20.55
825.101	21.15
825.273	20.89
825.446	21.58
825.618	20.85
825.79	19.89
825.963	19.48
826.135	19.43
826.307	20
826.479	18.95
826.652	19.05
826.824	18.83
826.996	19.12
827.168	19.47
827.34	20.24
827.512	20.93
827.684	21.9
827.856	23.13
828.029	22.47
828.201	22.25
828.373	24.63
828.545	26.07
828.717	26.4
828.889	27.12
829.061	26.86
829.232	26.05
829.404	26.36
829.576	25.75
829.748	24.8
829.92	25.8
830.092	27.12
830.264	25.36
830.436	27.01
830.607	27.16
830.779	27.52
830.951	27.36
831.123	29.34
831.294	29.51
831.466	29.35
831.638	29.24
831.809	29.71
831.981	30.98
832.153	31.96
832.324	30.07
832.496	33.22
832.667	31.98
832.839	34.68
833.011	34.36
833.182	33.56
833.354	32.19
833.525	33.35
833.697	32.31
833.868	29.81
834.039	29.33
834.211	27.7
834.382	26.72
834.554	26.27
834.725	25.76
834.896	25.59
835.068	25.35
835.239	28.09
835.41	27.85
835.581	29.56
835.753	29.81
835.924	29.79
836.095	30.39
836.266	29.62
836.438	32.02
836.609	31.47
836.78	28.72
836.951	27.35
837.122	26.92
837.293	28.54
837.464	26.5
837.635	28.15
837.806	28.47
837.977	30.19
838.148	30.35
838.319	26.99
838.49	28.8
838.661	33.28
838.832	37.09
839.003	40.12
839.174	39.51
839.345	38.93
839.516	37.54
839.687	37.03
839.857	37.45
840.028	31.23
840.199	34.25
840.37	34.4
840.54	38.63
840.711	38.26
840.882	34.77
841.053	35.17
841.223	38.03
841.394	36.88
841.564	41.71
841.735	38.97
841.906	47.3
842.076	46.14
842.247	44.16
842.417	44.63
842.588	42.59
842.758	42.48
842.929	38.09
843.099	39.11
843.27	46.71
843.44	41.3
843.611	41.66
843.781	41.59
843.951	40.7
844.122	40.92
844.292	37.47
844.462	38.46
844.633	41.03
844.803	43.04
844.973	40.32
845.144	36.37
845.314	47
845.484	51.79
845.654	51.56
845.824	58.02
845.995	60.56
846.165	56.88
846.335	57.39
846.505	57.01
846.675	59.51
846.845	62.87
847.015	58.57
847.185	50.94
847.355	47.49
847.525	41.93
847.695	36.47
847.865	37.02
848.035	47.2
848.205	53.52
848.375	57.07
848.545	59.48
848.715	54.33
848.884	58.56
849.054	59.18
849.224	56.7
849.394	66.34
849.564	71.3
849.733	67.44
849.903	53.95
850.073	53.86
850.243	45.97
850.412	47.64
850.582	51.91
850.752	53.32
850.921	52.19
851.091	51.91
851.26	46.03
851.43	36.75
851.599	35.87
851.769	46.66
851.939	40.28
852.108	37.7
852.278	38
852.447	38.67
852.616	45.35
852.786	39.28
852.955	46.05
853.125	51.51
853.294	55.79
853.463	57.03
853.633	51.51
853.802	59.39
853.971	63.61
854.141	64.65
854.31	61.77
854.479	55.53
854.648	58.84
854.818	54.7
854.987	49.81
855.156	52.64
855.325	57.81
855.494	61.83
855.663	61.14
855.832	53.81
856.001	56.32
856.171	55.74
856.34	54.19
856.509	58.12
856.678	58.18
856.847	59.57
857.016	58.83
857.185	49.54
857.353	52.27
857.522	52.48
857.691	57.13
857.86	63.14
858.029	62.97
858.198	63.31
858.367	52.13
858.535	43.12
858.704	40.25
858.873	41.09
859.042	36.31
859.21	24.46
859.379	28.38
859.548	27.99
859.717	21.43
859.885	23.86
860.054	26.2
860.222	35.17
860.391	51.17
860.56	56.72
860.728	59.38
860.897	65.99
861.065	71.74
861.234	67.94
861.402	77.48
861.571	73.87
861.739	69.48
861.908	71.2
862.076	66.63
862.244	48.44
862.413	44.14
862.581	44.09
862.749	43.34
862.918	38.88
863.086	43.71
863.254	34.99
863.423	40.31
863.591	42.38
863.759	42.46
863.927	32.54
864.096	45.83
864.264	48.02
864.432	39.35
864.6	41.17
864.768	45.2
864.936	45.8
865.104	48.42
865.272	57.84
865.44	60.63
865.608	60.01
865.776	66.19
865.944	70.23
866.112	69.06
866.28	80.85
866.448	78.07
866.616	88.13
866.784	86.95
866.952	87.64
867.12	82.48
867.288	77.61
867.455	74.54
867.623	66.3
867.791	58.17
867.959	56.22
868.127	55.25
868.294	55.67
868.462	48.21
868.63	40.35
868.797	37.9
868.965	38.07
869.133	40.22
869.3	32.07
869.468	30.69
869.636	38.06
869.803	38.48
869.971	31.55
870.138	34
870.306	29.72
870.473	37.3
870.641	54.65
870.808	54.61
870.975	49.31
871.143	50.78
871.31	61.06
871.478	64.1
871.645	68.93
871.812	68.44
871.98	69.88
872.147	75.94
872.314	78.94
872.482	64.82
872.649	64.13
872.816	73.34
872.983	79.97
873.15	76.92
873.318	69.87
873.485	60.88
873.652	63.54
873.819	69.11
873.986	73.61
874.153	74.94
874.32	79.52
874.487	69.83
874.654	42.76
874.821	47.37
874.988	46.21
875.155	47.54
875.322	38.7
875.489	29.84
875.656	8.21
875.823	13.63
875.99	6.57
876.157	6.74
876.324	13.74
876.49	28.22
876.657	24.28
876.824	24.14
876.991	26.07
877.157	35.28
877.324	33.09
877.491	40.98
877.658	38.75
877.824	39.63
877.991	40.36
878.157	44.53
878.324	42.68
878.491	41.9
878.657	42.72
878.824	45.78
878.99	42.13
879.157	54.46
879.323	58.59
879.49	64.81
879.656	68.12
879.823	73.3
879.989	60.41
880.156	68.32
880.322	70.44
880.488	65.31
880.655	66.21
880.821	64.4
880.987	57.57
881.154	47.29
881.32	44.21
881.486	45.05
881.652	42.62
881.819	36.98
881.985	31.97
882.151	30.52
882.317	31.51
882.483	29.69
882.649	30.61
882.816	29.21
882.982	29.21
883.148	29.94
883.314	27.15
883.48	26.31
883.646	29.34
883.812	26.58
883.978	27.73
884.144	27.96
884.31	27.54
884.476	27.63
884.642	26.68
884.807	27.65
884.973	24.1
885.139	24.59
885.305	25.43
885.471	25.75
885.637	29.93
885.802	27.9
885.968	28.46
886.134	28.45
886.3	30.43
886.465	35.29
886.631	34.61
886.797	39.71
886.962	42.24
887.128	41.28
887.293	41.12
887.459	37.25
887.625	38.32
887.79	34.24
887.956	35.87
888.121	36.16
888.287	31.52
888.452	31.73
888.618	27.72
888.783	25.43
