Data from 2938050_Reflection_2.txt Node
Date: Sun Jul 12 14:15:56 EDT 2015
User: robert
Spectrometer: USB4E03001
Autoset integration time: false
Trigger mode: 4
Integration Time (sec): 1.000000E-1
Scans to average: 10
Electric dark correction enabled: true
Nonlinearity correction enabled: false
Boxcar width: 5
Stray light correction enabled: false
XAxis mode: Wavelengths
Stop averaging: false
Number of Pixels in Spectrum: 3648
>>>>>Begin Spectral Data<<<<<
177.566	-3.22
177.785	57.84
178.005	104.4
178.225	302.1
178.445	-179.56
178.665	-95.55
178.885	50.14
179.105	67.97
179.324	82.63
179.544	54.9
179.764	68.14
179.984	91.27
180.204	128.82
180.423	189.64
180.643	259.61
180.863	391.74
181.083	311.6
181.302	147.06
181.522	154.17
181.742	228.06
181.961	365.71
182.181	256.74
182.401	236.78
182.621	133.53
182.84	152.57
183.06	138.7
183.279	120.16
183.499	147.34
183.719	160.67
183.938	138.22
184.158	112.98
184.377	103.76
184.597	101.29
184.816	93.81
185.036	148.85
185.256	106.93
185.475	116.42
185.695	120.44
185.914	109.24
186.134	120.13
186.353	157.49
186.572	148.76
186.792	149.01
187.011	143.13
187.231	139
187.45	105.52
187.67	95.39
187.889	78.9
188.108	87.49
188.328	88.91
188.547	76.12
188.766	69.28
188.986	69.63
189.205	77.69
189.424	80.72
189.644	84.12
189.863	86.5
190.082	125.62
190.302	180.08
190.521	178.78
190.74	229.9
190.959	239.72
191.178	323.25
191.398	-3944.66
191.617	-501.04
191.836	-575.33
192.055	-122
192.274	-297.99
192.494	-167.42
192.713	-165.25
192.932	-106.57
193.151	-23.99
193.37	39.1
193.589	46.78
193.808	22.86
194.027	48.97
194.246	94.31
194.465	153.44
194.685	225.16
194.904	137.29
195.123	109.58
195.342	141.59
195.561	130.49
195.78	163.75
195.999	142.11
196.218	174.47
196.436	191.77
196.655	210.53
196.874	151.36
197.093	140.78
197.312	167.49
197.531	190.1
197.75	187.8
197.969	156.27
198.188	139.33
198.407	132.13
198.625	115.29
198.844	106.37
199.063	105.05
199.282	182.59
199.501	193.08
199.719	175
199.938	212.69
200.157	189.77
200.376	319.25
200.594	464.08
200.813	395.77
201.032	970.83
201.251	517.09
201.469	375.87
201.688	368.08
201.907	260.88
202.125	246.58
202.344	272.72
202.563	459.53
202.781	215.48
203	188.53
203.218	228.28
203.437	212.12
203.656	206.18
203.874	238.05
204.093	217.09
204.311	598.71
204.53	646.62
204.748	391.78
204.967	244.95
205.185	343.88
205.404	348.74
205.622	300.75
205.841	211.48
206.059	424.17
206.278	228.06
206.496	269.64
206.715	118.36
206.933	111.56
207.151	105.19
207.37	124.15
207.588	95.54
207.806	87.19
208.025	85.28
208.243	106.38
208.461	106.39
208.68	143.91
208.898	114.27
209.116	154.97
209.335	144.17
209.553	145.13
209.771	158.33
209.989	127.26
210.208	178.57
210.426	142.4
210.644	113.23
210.862	93.28
211.081	67.39
211.299	83.74
211.517	83.84
211.735	87.71
211.953	78.35
212.171	84.24
212.39	86.7
212.608	70.9
212.826	94.33
213.044	84.37
213.262	61.91
213.48	45.77
213.698	36.8
213.916	39.15
214.134	52.33
214.352	32.87
214.57	48.69
214.788	62.43
215.006	96.56
215.224	48.5
215.442	51.4
215.66	98.7
215.878	127.43
216.096	132.38
216.314	86.17
216.532	81.98
216.75	82.82
216.968	80.44
217.185	79.04
217.403	74.38
217.621	90.76
217.839	96.3
218.057	84.2
218.275	85.73
218.492	88.4
218.71	91.27
218.928	89.86
219.146	80.04
219.363	82.75
219.581	72.03
219.799	92.76
220.017	85.36
220.234	83.49
220.452	79.02
220.67	73.15
220.887	74.45
221.105	97.3
221.323	96.35
221.54	111.96
221.758	99.62
221.976	102.7
222.193	85.4
222.411	79.37
222.629	78.87
222.846	85.67
223.064	86.39
223.281	80.43
223.499	71.87
223.716	69.16
223.934	63.31
224.151	59.6
224.369	56.94
224.586	56.77
224.804	54.71
225.021	60.87
225.239	67.66
225.456	71.08
225.674	65.32
225.891	70.72
226.108	65.99
226.326	59.38
226.543	61.96
226.76	56.61
226.978	52.04
227.195	49.45
227.413	45.14
227.63	39.16
227.847	37.53
228.064	37.31
228.282	31.96
228.499	30.34
228.716	27.32
228.934	23.06
229.151	22.11
229.368	19.84
229.585	18.33
229.802	17.43
230.02	16.61
230.237	14.62
230.454	12.2
230.671	13.7
230.888	13.56
231.105	12.54
231.323	14.06
231.54	15.31
231.757	17.92
231.974	18.12
232.191	17.54
232.408	15.34
232.625	14.4
232.842	13.69
233.059	10.61
233.276	14.95
233.493	20.52
233.71	17.66
233.927	20.52
234.144	19.92
234.361	22.65
234.578	23.38
234.795	22.36
235.012	25.64
235.229	26.81
235.446	23.5
235.663	18.52
235.879	16.87
236.096	20.64
236.313	18.58
236.53	24.18
236.747	21.89
236.964	21.08
237.181	27.26
237.397	24.68
237.614	26.23
237.831	32.38
238.048	36.34
238.264	39.03
238.481	37
238.698	32.62
238.915	30.66
239.131	32.18
239.348	33.95
239.565	28.08
239.781	32.69
239.998	32.22
240.215	28.07
240.431	25.36
240.648	22.5
240.865	20.71
241.081	21.62
241.298	18.59
241.514	18.64
241.731	16.55
241.947	16.75
242.164	12.06
242.38	11.63
242.597	12.31
242.814	13.44
243.03	14.54
243.246	14.73
243.463	13.73
243.679	14.57
243.896	13.45
244.112	14.4
244.329	15.63
244.545	17.91
244.762	18.68
244.978	18.5
245.194	19
245.411	18.02
245.627	17.6
245.843	17.86
246.06	15.99
246.276	16.06
246.492	15.51
246.709	14.14
246.925	13.74
247.141	12.26
247.357	12.33
247.574	11.61
247.79	11.13
248.006	11.03
248.222	11.28
248.439	11.8
248.655	11.91
248.871	11.45
249.087	12.26
249.303	11.41
249.519	11.35
249.736	11.22
249.952	12.51
250.168	13.78
250.384	14.62
250.6	14.71
250.816	15.89
251.032	16.09
251.248	15.13
251.464	15.28
251.68	17.64
251.896	19.24
252.112	17.66
252.328	13.62
252.544	12.79
252.76	12.47
252.976	12.82
253.192	13.07
253.408	13.84
253.624	15.92
253.84	15.51
254.056	14.71
254.272	13.36
254.487	15.5
254.703	17.64
254.919	18.59
255.135	19.26
255.351	16.62
255.567	16.6
255.782	16.2
255.998	15.03
256.214	16.38
256.43	17.37
256.646	18.92
256.861	16.72
257.077	17.51
257.293	17.47
257.508	16.43
257.724	17.57
257.94	15.44
258.155	14.59
258.371	13.46
258.587	12.78
258.802	12.21
259.018	10.41
259.234	10.62
259.449	10.09
259.665	9.59
259.88	9.57
260.096	9.67
260.312	9
260.527	8.68
260.743	8.83
260.958	8.3
261.174	7.72
261.389	8.74
261.605	8.88
261.82	8.46
262.036	8.81
262.251	9.69
262.466	8.03
262.682	9.84
262.897	10.07
263.113	10.11
263.328	10.3
263.543	10.35
263.759	10.06
263.974	9.9
264.189	11.2
264.405	11.07
264.62	8.62
264.835	9.93
265.051	9.33
265.266	9.56
265.481	9.84
265.696	9.72
265.912	9.69
266.127	9.41
266.342	10.05
266.557	10.04
266.773	9.83
266.988	10.6
267.203	9.81
267.418	9.49
267.633	9.84
267.848	9.12
268.064	8.57
268.279	9.61
268.494	8.94
268.709	7.88
268.924	9.15
269.139	10.07
269.354	9.5
269.569	9.66
269.784	10.66
269.999	8.86
270.214	10.11
270.429	11.41
270.644	9.93
270.859	10.38
271.074	10.89
271.289	9.7
271.504	8.66
271.719	9.12
271.934	9.22
272.149	8.72
272.363	9.72
272.578	9.28
272.793	8.67
273.008	9.56
273.223	10.39
273.438	10.22
273.653	10.11
273.867	10.9
274.082	11.25
274.297	12.66
274.512	13.06
274.726	13.02
274.941	12.52
275.156	12.57
275.371	12.76
275.585	12.62
275.8	11.88
276.015	13.08
276.229	13.05
276.444	13.25
276.659	12.06
276.873	11.28
277.088	11.69
277.302	13.44
277.517	13.38
277.732	13.1
277.946	12.16
278.161	12.08
278.375	10.41
278.59	9.34
278.804	9.62
279.019	10.48
279.233	10.13
279.448	9.22
279.662	7.6
279.877	9.15
280.091	9.18
280.306	10.32
280.52	10.76
280.735	11.76
280.949	12.33
281.163	11.55
281.378	10.42
281.592	11.13
281.806	10.92
282.021	12.13
282.235	11.47
282.449	11.54
282.664	10.68
282.878	11.36
283.092	11.86
283.307	12.88
283.521	13.29
283.735	14.12
283.949	13.58
284.164	13.95
284.378	14.07
284.592	14.3
284.806	13.49
285.02	15.15
285.234	14.9
285.449	13.4
285.663	12.97
285.877	13.12
286.091	12.67
286.305	13.93
286.519	13.98
286.733	13.83
286.947	13.43
287.161	14.31
287.375	12.64
287.589	12.77
287.803	12.4
288.017	10.69
288.231	10.46
288.445	11.22
288.659	10.5
288.873	10.76
289.087	10.05
289.301	9.8
289.515	9.85
289.729	9.95
289.943	10.33
290.157	11.22
290.371	12.37
290.584	11.96
290.798	12.34
291.012	11.76
291.226	11.98
291.44	11.93
291.654	11.98
291.867	11.39
292.081	12.02
292.295	10.82
292.509	11.15
292.722	11.15
292.936	11.77
293.15	11.94
293.364	11.91
293.577	11.26
293.791	12.59
294.005	13.87
294.218	13.97
294.432	14.32
294.645	15.54
294.859	14.88
295.073	14.57
295.286	13.99
295.5	12.51
295.713	12.73
295.927	12.5
296.14	11.6
296.354	10.58
296.568	10.66
296.781	9.27
296.994	8.32
297.208	8.51
297.421	8.94
297.635	9.06
297.848	9.15
298.062	9.1
298.275	9.82
298.489	9.36
298.702	10.05
298.915	9.74
299.129	10.54
299.342	11.03
299.555	11.95
299.769	10.95
299.982	11.07
300.195	11.71
300.409	12.05
300.622	11.2
300.835	12.1
301.048	11.46
301.262	12.83
301.475	12.25
301.688	12.16
301.901	11.83
302.115	12.98
302.328	12.93
302.541	12.83
302.754	12.72
302.967	13.37
303.18	13.04
303.393	13.48
303.607	12.47
303.82	14.05
304.033	15.05
304.246	13.96
304.459	14.28
304.672	15.21
304.885	16.27
305.098	16.2
305.311	16.28
305.524	16.78
305.737	16.45
305.95	16.49
306.163	15.97
306.376	15.23
306.589	17.07
306.802	15.55
307.015	14.82
307.228	13.23
307.44	13.44
307.653	13.28
307.866	11.59
308.079	11.12
308.292	11.57
308.505	10.73
308.718	10.82
308.93	10.33
309.143	10.75
309.356	10.34
309.569	11.09
309.781	11.3
309.994	11.65
310.207	13.04
310.42	13.98
310.632	13.44
310.845	13.99
311.058	14.32
311.27	14.14
311.483	14.38
311.696	14.62
311.908	14.67
312.121	14.37
312.333	14.35
312.546	14.15
312.759	14.51
312.971	15.83
313.184	15.57
313.396	15.05
313.609	15.57
313.821	15.69
314.034	16.39
314.246	16.59
314.459	17.67
314.671	18.12
314.884	17.63
315.096	17.78
315.309	16.15
315.521	15.72
315.733	15.57
315.946	14.49
316.158	15.15
316.371	14.65
316.583	14.26
316.795	12.91
317.008	12.78
317.22	12.64
317.432	11.98
317.644	13.98
317.857	14.87
318.069	16.21
318.281	17.69
318.494	17.45
318.706	17.4
318.918	16.97
319.13	16.5
319.342	14.64
319.555	15.02
319.767	13.67
319.979	11.78
320.191	11.19
320.403	10.28
320.615	9.62
320.827	9.2
321.039	8.3
321.252	9.33
321.464	10.14
321.676	11.7
321.888	11.9
322.1	12.93
322.312	12.87
322.524	13.43
322.736	14.55
322.948	14.02
323.16	14.59
323.372	15.15
323.584	14.22
323.796	15.34
324.007	14.85
324.219	15.6
324.431	15.54
324.643	16.79
324.855	17.39
325.067	15.84
325.279	16.18
325.491	15.39
325.702	15.18
325.914	15.08
326.126	14.44
326.338	14.36
326.55	13.17
326.761	13.08
326.973	14.04
327.185	12.29
327.396	13.24
327.608	13.36
327.82	13.48
328.032	13.48
328.243	14.71
328.455	14.32
328.666	15.01
328.878	16.41
329.09	16.17
329.301	15.01
329.513	15.04
329.725	15.62
329.936	14.28
330.148	15.36
330.359	15.94
330.571	15.81
330.782	15.33
330.994	15.07
331.205	15.4
331.417	15.04
331.628	14.99
331.84	15.27
332.051	13.44
332.262	14.34
332.474	13.28
332.685	13.59
332.897	12.99
333.108	12.64
333.319	12
333.531	10.44
333.742	11.74
333.953	11.19
334.165	12.75
334.376	13.63
334.587	13.31
334.799	14.31
335.01	14.01
335.221	13.72
335.432	13.87
335.644	14.93
335.855	14.35
336.066	14.37
336.277	14.4
336.488	13.82
336.7	13.75
336.911	14.49
337.122	13.56
337.333	13.48
337.544	14.32
337.755	14.84
337.966	14.14
338.177	15.32
338.388	14.54
338.599	14.78
338.811	14.68
339.022	14.9
339.233	14.1
339.444	14.25
339.655	13.84
339.866	12.53
340.076	12.96
340.287	12.59
340.498	11.85
340.709	11.81
340.92	11.61
341.131	11.68
341.342	11.44
341.553	12.11
341.764	12.31
341.975	12.57
342.185	13.36
342.396	12.51
342.607	13.69
342.818	14.68
343.029	14.92
343.239	15.51
343.45	14.47
343.661	14.49
343.872	14.09
344.082	14.08
344.293	13.77
344.504	13.59
344.714	13.06
344.925	11.65
345.136	11.12
345.346	11.5
345.557	11.39
345.768	12.44
345.978	12.72
346.189	12.89
346.399	12.47
346.61	12.73
346.821	12.73
347.031	13.66
347.242	14.42
347.452	13.95
347.663	12.67
347.873	12.33
348.084	11.79
348.294	12.22
348.504	12
348.715	12.35
348.925	13.21
349.136	12.84
349.346	11.98
349.557	12.18
349.767	12.04
349.977	12.92
350.188	12.83
350.398	13
350.608	12.98
350.819	14.03
351.029	13.85
351.239	12.62
351.449	12.64
351.66	12.16
351.87	12.07
352.08	12.36
352.29	11.92
352.501	12.31
352.711	12.65
352.921	11.33
353.131	10.41
353.341	10.68
353.552	12.1
353.762	12.38
353.972	13.11
354.182	13.85
354.392	14.35
354.602	14.92
354.812	13.88
355.022	13.48
355.232	13.7
355.442	12.99
355.652	12.93
355.862	12.34
356.072	12.49
356.282	12.32
356.492	11.34
356.702	10.8
356.912	10.36
357.122	10.84
357.332	11.19
357.542	11.1
357.752	11.57
357.962	10.77
358.171	10.44
358.381	9.73
358.591	10.04
358.801	10.33
359.011	10.49
359.221	10.57
359.43	10.05
359.64	9.83
359.85	10.3
360.06	10.15
360.269	10.69
360.479	10.48
360.689	10.93
360.899	10.81
361.108	10.56
361.318	10.94
361.528	10.48
361.737	10.54
361.947	10.43
362.156	10.51
362.366	10.83
362.576	10.88
362.785	10.65
362.995	10.73
363.204	10.37
363.414	10.02
363.623	9.46
363.833	9.41
364.042	10
364.252	10.11
364.461	9.68
364.671	9.32
364.88	9.31
365.09	10.3
365.299	10.26
365.509	10.2
365.718	11.03
365.927	11.57
366.137	12.34
366.346	12.53
366.555	12.05
366.765	12.11
366.974	11.87
367.183	11.3
367.393	10.41
367.602	10.7
367.811	11.46
368.021	11.26
368.23	10.8
368.439	9.86
368.648	9.52
368.857	10.24
369.067	9.63
369.276	10.72
369.485	11.21
369.694	11.22
369.903	10.47
370.112	10.32
370.321	10.03
370.531	9.77
370.74	10.31
370.949	10.21
371.158	9.37
371.367	9.62
371.576	9
371.785	9.3
371.994	8.98
372.203	9.67
372.412	9.71
372.621	9.77
372.83	10.15
373.039	10.31
373.248	10.2
373.457	10.39
373.666	10.81
373.874	10.47
374.083	9.96
374.292	10.32
374.501	9.54
374.71	9.38
374.919	9.49
375.128	9.73
375.336	9.61
375.545	9.52
375.754	9.45
375.963	9.14
376.171	8.9
376.38	8.88
376.589	9.22
376.798	9.47
377.006	9.55
377.215	8.98
377.424	8.35
377.632	8.42
377.841	8.44
378.05	8.26
378.258	8.44
378.467	8.81
378.675	8.81
378.884	8.48
379.093	8.32
379.301	7.75
379.51	8.18
379.718	8.16
379.927	8.33
380.135	8.07
380.344	8.08
380.552	8.39
380.761	8.63
380.969	8.3
381.177	8.21
381.386	8.12
381.594	8.53
381.803	8.34
382.011	8.44
382.219	7.93
382.428	8.5
382.636	8.73
382.845	8.23
383.053	7.77
383.261	8.38
383.469	8.75
383.678	9.1
383.886	9.26
384.094	9.37
384.302	9.62
384.511	9.85
384.719	9.44
384.927	9.09
385.135	9.47
385.343	9.41
385.552	9.03
385.76	8.72
385.968	8.07
386.176	8.1
386.384	7.3
386.592	6.8
386.8	6.52
387.008	6.57
387.216	6.97
387.424	6.15
387.633	6.26
387.841	6.24
388.049	6.32
388.257	6.67
388.465	6.59
388.672	7.01
388.88	7.19
389.088	7.2
389.296	7.39
389.504	7.19
389.712	7.84
389.92	7.59
390.128	7.64
390.336	7.19
390.544	7.11
390.751	7.01
390.959	7.28
391.167	7.21
391.375	7.31
391.583	7.07
391.79	6.98
391.998	6.46
392.206	6.42
392.414	6.44
392.621	6.45
392.829	6.55
393.037	6.07
393.244	6.04
393.452	5.99
393.66	5.9
393.867	5.93
394.075	5.85
394.283	5.89
394.49	5.76
394.698	5.56
394.905	5.79
395.113	5.76
395.32	6.25
395.528	6.15
395.735	6.09
395.943	6.16
396.15	6.32
396.358	6.54
396.565	6.61
396.773	6.95
396.98	6.93
397.188	7.07
397.395	6.86
397.602	6.53
397.81	6.47
398.017	6.44
398.225	6.5
398.432	6.21
398.639	6.11
398.847	6.1
399.054	6.32
399.261	6.2
399.468	5.96
399.676	5.9
399.883	6.15
400.09	5.94
400.297	6.05
400.505	5.83
400.712	5.97
400.919	6.14
401.126	6.38
401.333	6.02
401.54	6.41
401.748	6.38
401.955	6.51
402.162	6.56
402.369	6.94
402.576	7.03
402.783	6.87
402.99	6.95
403.197	6.33
403.404	6.08
403.611	5.93
403.818	5.97
404.025	6.22
404.232	6.12
404.439	5.95
404.646	5.7
404.853	5.66
405.06	5.81
405.267	5.54
405.474	5.74
405.681	5.89
405.887	5.96
406.094	5.63
406.301	5.21
406.508	5.25
406.715	5.42
406.922	5.36
407.128	5.29
407.335	5.03
407.542	4.78
407.749	4.77
407.955	4.7
408.162	4.83
408.369	4.69
408.575	4.79
408.782	4.69
408.989	4.09
409.195	3.94
409.402	4.07
409.609	4.35
409.815	4.73
410.022	4.86
410.228	4.45
410.435	4.49
410.642	4.97
410.848	4.97
411.055	5.13
411.261	5.52
411.468	5.62
411.674	5.67
411.881	5.63
412.087	5.63
412.294	5.57
412.5	5.82
412.706	5.54
412.913	5.22
413.119	5.36
413.326	5.34
413.532	5.49
413.738	5.6
413.945	5.46
414.151	5.24
414.357	5.12
414.564	5.16
414.77	5.4
414.976	5.47
415.182	5.33
415.389	5.07
415.595	5.13
415.801	5.04
416.007	5
416.214	4.88
416.42	4.9
416.626	4.81
416.832	5.04
417.038	4.86
417.244	4.97
417.45	4.96
417.657	5.02
417.863	4.87
418.069	4.81
418.275	4.92
418.481	4.91
418.687	5.04
418.893	5.17
419.099	5.05
419.305	5.12
419.511	4.99
419.717	5.09
419.923	5.14
420.129	5.03
420.335	4.92
420.541	4.93
420.746	4.86
420.952	4.69
421.158	4.54
421.364	4.5
421.57	4.36
421.776	4.44
421.982	4.38
422.187	4.3
422.393	4.34
422.599	4.49
422.805	4.36
423.01	4.42
423.216	4.49
423.422	4.47
423.628	4.44
423.833	4.4
424.039	4.42
424.245	4.39
424.45	4.37
424.656	4.44
424.862	4.3
425.067	4.34
425.273	4.36
425.478	4.37
425.684	4.43
425.889	4.45
426.095	4.55
426.301	4.49
426.506	4.39
426.712	4.47
426.917	4.33
427.123	4.31
427.328	4.31
427.533	4.41
427.739	4.44
427.944	4.57
428.15	4.69
428.355	4.52
428.561	4.32
428.766	4.45
428.971	4.64
429.177	4.67
429.382	4.82
429.587	4.76
429.793	4.66
429.998	4.86
430.203	4.78
430.408	4.67
430.614	5
430.819	5.19
431.024	5.13
431.229	4.97
431.434	5.17
431.64	5
431.845	4.96
432.05	4.93
432.255	4.54
432.46	4.48
432.665	4.39
432.87	4.24
433.076	4.37
433.281	4.44
433.486	4.55
433.691	4.52
433.896	4.54
434.101	4.67
434.306	4.74
434.511	4.9
434.716	4.93
434.921	4.95
435.126	5.06
435.331	5.05
435.535	5.03
435.74	4.85
435.945	4.89
436.15	5.17
436.355	5.04
436.56	5.17
436.765	5.19
436.97	5.14
437.174	5.22
437.379	5.17
437.584	5.01
437.789	5.04
437.993	5.2
438.198	5.12
438.403	4.88
438.608	4.72
438.812	4.5
439.017	4.52
439.222	4.52
439.426	4.62
439.631	4.5
439.836	4.47
440.04	4.38
440.245	4.3
440.45	4.31
440.654	4.27
440.859	4.46
441.063	4.52
441.268	4.38
441.472	4.49
441.677	4.37
441.881	4.45
442.086	4.56
442.29	4.66
442.495	4.62
442.699	4.48
442.904	4.73
443.108	4.71
443.312	4.64
443.517	4.76
443.721	4.61
443.925	4.71
444.13	4.64
444.334	4.67
444.538	4.63
444.743	4.64
444.947	4.61
445.151	4.45
445.356	4.46
445.56	4.6
445.764	4.62
445.968	4.66
446.173	4.56
446.377	4.57
446.581	4.48
446.785	4.48
446.989	4.52
447.193	4.55
447.398	4.55
447.602	4.52
447.806	4.49
448.01	4.58
448.214	4.49
448.418	4.62
448.622	4.67
448.826	4.7
449.03	4.67
449.234	4.51
449.438	4.65
449.642	4.58
449.846	4.63
450.05	4.45
450.254	4.35
450.458	4.35
450.662	4.09
450.866	4.02
451.069	3.97
451.273	3.85
451.477	3.99
451.681	3.83
451.885	3.86
452.089	3.83
452.292	3.91
452.496	3.76
452.7	3.83
452.904	4.04
453.107	4.11
453.311	4.07
453.515	4.34
453.719	4.26
453.922	4.32
454.126	4.36
454.33	4.35
454.533	4.56
454.737	4.66
454.94	4.68
455.144	4.57
455.348	4.61
455.551	4.81
455.755	4.68
455.958	4.79
456.162	4.82
456.365	4.85
456.569	4.87
456.772	4.5
456.976	4.49
457.179	4.62
457.383	4.62
457.586	4.41
457.79	4.38
457.993	4.26
458.196	4.24
458.4	4.21
458.603	4.33
458.807	4.3
459.01	4.35
459.213	4.28
459.417	4.13
459.62	4.14
459.823	4.15
460.026	4.12
460.23	4.23
460.433	4.23
460.636	4.3
460.839	4.2
461.042	4.17
461.246	4.23
461.449	4.24
461.652	4.31
461.855	4.31
462.058	4.31
462.261	4.38
462.464	4.45
462.668	4.45
462.871	4.61
463.074	4.57
463.277	4.73
463.48	4.76
463.683	5.01
463.886	5.09
464.089	5.05
464.292	5.15
464.495	4.89
464.698	4.96
464.901	5.06
465.104	4.89
465.306	4.83
465.509	4.62
465.712	4.61
465.915	4.34
466.118	4.31
466.321	4.34
466.524	4.44
466.726	4.63
466.929	4.53
467.132	4.38
467.335	4.32
467.538	4.41
467.74	4.37
467.943	4.29
468.146	4.41
468.348	4.35
468.551	4.4
468.754	4.36
468.956	4.4
469.159	4.41
469.362	4.45
469.564	4.41
469.767	4.46
469.969	4.58
470.172	4.71
470.375	4.68
470.577	4.73
470.78	4.75
470.982	4.76
471.185	4.79
471.387	5.02
471.59	5.03
471.792	5.09
471.995	5.09
472.197	4.91
472.399	4.87
472.602	4.91
472.804	4.92
473.007	4.92
473.209	4.79
473.411	4.81
473.614	4.46
473.816	4.38
474.018	4.35
474.22	4.3
474.423	4.6
474.625	4.52
474.827	4.3
475.03	4.43
475.232	4.55
475.434	4.59
475.636	4.63
475.838	4.64
476.04	4.71
476.243	4.78
476.445	4.8
476.647	4.71
476.849	4.68
477.051	4.91
477.253	4.83
477.455	4.76
477.657	4.75
477.859	4.6
478.061	4.55
478.263	4.53
478.465	4.4
478.667	4.29
478.869	4.3
479.071	4.35
479.273	4.14
479.475	3.98
479.677	4
479.879	4.01
480.081	4.12
480.283	4.19
480.485	4.23
480.686	4.34
480.888	4.41
481.09	4.35
481.292	4.48
481.494	4.57
481.695	4.65
481.897	4.48
482.099	4.51
482.301	4.36
482.502	4.32
482.704	4.26
482.906	4.18
483.107	4.13
483.309	4.05
483.511	3.95
483.712	3.88
483.914	3.82
484.115	3.85
484.317	3.84
484.519	3.81
484.72	3.8
484.922	3.77
485.123	3.77
485.325	3.78
485.526	3.86
485.728	3.86
485.929	3.92
486.131	3.97
486.332	3.95
486.534	3.99
486.735	3.98
486.936	3.98
487.138	3.99
487.339	3.98
487.541	3.93
487.742	3.85
487.943	3.86
488.144	3.79
488.346	3.75
488.547	3.75
488.748	3.67
488.95	3.67
489.151	3.73
489.352	3.77
489.553	3.83
489.755	3.92
489.956	3.99
490.157	4.12
490.358	4.23
490.559	4.22
490.76	4.19
490.961	4.07
491.163	4.14
491.364	4.07
491.565	3.99
491.766	3.89
491.967	3.84
492.168	3.82
492.369	3.7
492.57	3.68
492.771	3.69
492.972	3.75
493.173	3.81
493.374	3.9
493.575	3.94
493.776	4.02
493.976	4.11
494.177	4.13
494.378	4.27
494.579	4.35
494.78	4.35
494.981	4.46
495.182	4.41
495.382	4.58
495.583	4.46
495.784	4.38
495.985	4.51
496.185	4.55
496.386	4.56
496.587	4.36
496.788	4.44
496.988	4.39
497.189	4.42
497.39	4.42
497.59	4.31
497.791	4.3
497.992	4.31
498.192	4.3
498.393	4.24
498.593	4.19
498.794	4.19
498.994	4.07
499.195	4.21
499.395	3.99
499.596	3.93
499.796	3.91
499.997	3.8
500.197	3.9
500.398	3.74
500.598	3.83
500.799	3.95
500.999	4.14
501.199	4.25
501.4	4.36
501.6	4.55
501.801	4.77
502.001	4.8
502.201	4.85
502.402	4.87
502.602	4.84
502.802	5
503.002	4.91
503.203	4.77
503.403	4.65
503.603	4.58
503.803	4.51
504.003	4.37
504.204	4.35
504.404	4.47
504.604	4.32
504.804	4.41
505.004	4.28
505.204	4.27
505.404	4.37
505.604	4.45
505.804	4.3
506.005	4.43
506.205	4.37
506.405	4.38
506.605	4.41
506.805	4.45
507.005	4.45
507.204	4.35
507.404	4.33
507.604	4.33
507.804	4.47
508.004	4.61
508.204	4.39
508.404	4.5
508.604	4.56
508.804	4.52
509.003	4.66
509.203	4.61
509.403	4.77
509.603	4.85
509.803	4.82
510.002	4.71
510.202	4.6
510.402	4.68
510.602	4.68
510.801	4.71
511.001	4.79
511.201	4.68
511.4	4.77
511.6	4.71
511.8	4.68
511.999	4.8
512.199	4.69
512.398	4.69
512.598	4.69
512.797	4.63
512.997	4.77
513.197	4.77
513.396	4.72
513.596	4.68
513.795	4.51
513.994	4.42
514.194	4.4
514.393	4.42
514.593	4.48
514.792	4.65
514.992	4.66
515.191	4.46
515.39	4.33
515.59	4.33
515.789	4.26
515.988	4.28
516.188	4.45
516.387	4.32
516.586	4.41
516.786	4.43
516.985	4.28
517.184	4.39
517.383	4.43
517.582	4.45
517.782	4.49
517.981	4.43
518.18	4.57
518.379	4.54
518.578	4.62
518.777	4.56
518.976	4.52
519.176	4.51
519.375	4.38
519.574	4.36
519.773	4.38
519.972	4.42
520.171	4.44
520.37	4.42
520.569	4.42
520.768	4.39
520.967	4.45
521.166	4.55
521.365	4.66
521.564	4.87
521.762	4.99
521.961	4.93
522.16	5.01
522.359	5.12
522.558	5.01
522.757	5.05
522.956	5.11
523.154	5.2
523.353	5.26
523.552	5.3
523.751	5.14
523.949	5.04
524.148	5.13
524.347	5.03
524.546	5.06
524.744	5.06
524.943	5.05
525.142	4.93
525.34	4.81
525.539	4.74
525.737	4.69
525.936	4.68
526.135	4.73
526.333	4.8
526.532	4.83
526.73	4.74
526.929	4.72
527.127	4.66
527.326	4.68
527.524	4.71
527.723	4.72
527.921	4.73
528.12	4.83
528.318	4.79
528.516	4.73
528.715	4.7
528.913	4.78
529.112	4.82
529.31	4.83
529.508	4.82
529.707	4.81
529.905	4.78
530.103	4.86
530.301	4.77
530.5	4.82
530.698	4.82
530.896	4.97
531.094	5.02
531.293	5.06
531.491	5.07
531.689	5.17
531.887	5.21
532.085	5.27
532.283	5.14
532.481	5.16
532.68	5.18
532.878	5.22
533.076	5.1
533.274	5.03
533.472	5.1
533.67	5.11
533.868	5.01
534.066	5.12
534.264	5.18
534.462	5.23
534.66	5.35
534.858	5.38
535.056	5.37
535.253	5.43
535.451	5.51
535.649	5.58
535.847	5.69
536.045	5.79
536.243	5.66
536.441	5.59
536.638	5.68
536.836	5.64
537.034	5.62
537.232	5.7
537.43	5.69
537.627	5.66
537.825	5.54
538.023	5.57
538.22	5.62
538.418	5.72
538.616	5.75
538.813	5.75
539.011	5.73
539.209	5.72
539.406	5.81
539.604	5.78
539.801	5.87
539.999	5.92
540.196	5.92
540.394	5.9
540.591	5.96
540.789	5.99
540.986	5.97
541.184	5.99
541.381	6.08
541.579	6.07
541.776	6.13
541.974	6.07
542.171	6.11
542.368	6.12
542.566	6.22
542.763	6.18
542.96	6.26
543.158	6.35
543.355	6.35
543.552	6.38
543.75	6.45
543.947	6.46
544.144	6.52
544.341	6.58
544.539	6.65
544.736	6.64
544.933	6.69
545.13	6.74
545.327	6.62
545.524	6.72
545.722	6.61
545.919	6.6
546.116	6.72
546.313	6.72
546.51	6.71
546.707	6.81
546.904	6.88
547.101	6.91
547.298	6.78
547.495	6.98
547.692	7.07
547.889	7.09
548.086	7.23
548.283	7.29
548.48	7.44
548.677	7.77
548.874	7.6
549.07	7.57
549.267	7.85
549.464	7.99
549.661	8.04
549.858	8.2
550.055	8.47
550.251	8.45
550.448	8.35
550.645	8.41
550.842	8.07
551.038	8.24
551.235	8.26
551.432	7.85
551.628	7.83
551.825	7.95
552.022	7.9
552.218	7.73
552.415	7.71
552.612	7.79
552.808	7.79
553.005	7.93
553.201	8.05
553.398	8.27
553.594	8.72
553.791	8.96
553.987	8.9
554.184	8.76
554.38	8.81
554.577	8.78
554.773	8.86
554.97	8.75
555.166	8.74
555.362	8.67
555.559	8.59
555.755	8.22
555.952	8.01
556.148	8.01
556.344	8.12
556.541	8.45
556.737	8.59
556.933	8.49
557.129	8.93
557.326	9.12
557.522	9.13
557.718	9.13
557.914	9.4
558.11	9.91
558.307	10.21
558.503	10.39
558.699	10.19
558.895	10.16
559.091	10.38
559.287	10.2
559.483	10.24
559.679	10.26
559.876	10.21
560.072	10.22
560.268	9.73
560.464	9.46
560.66	9.42
560.856	9.53
561.052	9.65
561.247	9.62
561.443	9.82
561.639	9.79
561.835	9.71
562.031	9.77
562.227	9.83
562.423	10.09
562.619	10.22
562.815	10.17
563.01	10.21
563.206	10.19
563.402	10.16
563.598	9.87
563.793	9.71
563.989	10.08
564.185	10.06
564.381	9.95
564.576	10.04
564.772	10.11
564.968	10.2
565.163	10.33
565.359	10.42
565.555	10.46
565.75	10.57
565.946	10.78
566.141	10.72
566.337	10.83
566.532	10.8
566.728	10.52
566.923	10.47
567.119	10.45
567.314	10.35
567.51	10.35
567.705	10.57
567.901	10.62
568.096	10.58
568.292	10.61
568.487	10.63
568.682	10.79
568.878	11.2
569.073	11.31
569.268	11.5
569.464	11.59
569.659	11.63
569.854	11.6
570.05	11.63
570.245	11.76
570.44	11.72
570.635	11.8
570.831	11.78
571.026	11.57
571.221	11.59
571.416	11.43
571.611	11.47
571.806	11.41
572.002	11.21
572.197	11.34
572.392	11.25
572.587	11.22
572.782	11.14
572.977	11.12
573.172	11.16
573.367	11.14
573.562	11.27
573.757	11.19
573.952	11.34
574.147	11.53
574.342	11.42
574.537	11.27
574.732	11.23
574.927	11.29
575.121	11.44
575.316	11.42
575.511	11.47
575.706	11.35
575.901	11.34
576.096	11.37
576.29	11.38
576.485	11.33
576.68	11.62
576.875	11.97
577.069	11.95
577.264	11.85
577.459	11.91
577.654	11.95
577.848	12.1
578.043	12.19
578.238	11.97
578.432	11.76
578.627	11.79
578.821	11.81
579.016	11.72
579.21	11.81
579.405	12.13
579.6	12.07
579.794	11.92
579.989	11.72
580.183	11.73
580.378	11.98
580.572	12.01
580.766	12.09
580.961	11.71
581.155	11.46
581.35	11.46
581.544	11.31
581.738	11.54
581.933	11.52
582.127	11.66
582.321	11.61
582.516	11.22
582.71	11.47
582.904	11.72
583.099	12.09
583.293	12.19
583.487	12.27
583.681	12.24
583.875	12.11
584.07	12.1
584.264	12.08
584.458	12.18
584.652	12.6
584.846	12.65
585.04	12.6
585.234	12.47
585.428	12.49
585.623	12.14
585.817	12.12
586.011	12.26
586.205	12.33
586.399	12.4
586.593	12.32
586.787	12.15
586.981	12.1
587.174	12.09
587.368	12.17
587.562	12.31
587.756	12.57
587.95	12.71
588.144	12.59
588.338	12.76
588.532	12.83
588.725	12.92
588.919	12.87
589.113	12.97
589.307	12.95
589.501	12.9
589.694	13.02
589.888	13.1
590.082	12.86
590.275	12.92
590.469	12.82
590.663	13
590.856	12.82
591.05	12.89
591.244	12.55
591.437	12.29
591.631	12.22
591.824	12.4
592.018	12.22
592.212	12.13
592.405	12.29
592.599	12.38
592.792	12.12
592.986	12.49
593.179	12.67
593.372	13.07
593.566	13.43
593.759	13.36
593.953	13.04
594.146	13.28
594.339	13.32
594.533	13.37
594.726	13.21
594.92	13.36
595.113	13.09
595.306	12.78
595.499	12.67
595.693	12.66
595.886	13
596.079	13.02
596.272	12.94
596.466	13.25
596.659	13.07
596.852	13.17
597.045	12.96
597.238	13.17
597.431	13.2
597.624	13.2
597.818	13.05
598.011	13
598.204	13.18
598.397	12.8
598.59	12.49
598.783	12.46
598.976	12.47
599.169	12.46
599.362	12.32
599.555	12.58
599.748	12.41
599.941	12.57
600.134	12.59
600.326	12.41
600.519	12.63
600.712	12.79
600.905	12.94
601.098	12.82
601.291	12.81
601.483	12.86
601.676	12.77
601.869	12.9
602.062	12.86
602.255	12.7
602.447	12.77
602.64	13
602.833	13.34
603.025	13.42
603.218	13.33
603.411	13.63
603.603	13.51
603.796	13.39
603.989	13.39
604.181	13.49
604.374	13.46
604.566	13.21
604.759	12.92
604.951	12.69
605.144	12.46
605.336	12.76
605.529	12.74
605.721	12.78
605.914	12.96
606.106	12.86
606.299	12.83
606.491	12.89
606.683	13.07
606.876	13.35
607.068	13.57
607.26	13.82
607.453	13.8
607.645	13.67
607.837	13.67
608.03	13.39
608.222	13.56
608.414	13.38
608.606	13.36
608.799	13.3
608.991	13.28
609.183	13.04
609.375	13.04
609.567	12.93
609.759	13.02
609.952	13.05
610.144	13.21
610.336	13.13
610.528	13.13
610.72	13.16
610.912	13.5
611.104	13.56
611.296	13.4
611.488	13.41
611.68	13.32
611.872	13.16
612.064	13.41
612.256	13.52
612.448	13.84
612.64	13.88
612.832	13.78
613.023	13.32
613.215	13.56
613.407	13.58
613.599	13.61
613.791	14.05
613.983	14.31
614.174	13.85
614.366	13.91
614.558	13.73
614.75	13.97
614.941	14.29
615.133	14.42
615.325	14.24
615.516	14.41
615.708	14.04
615.9	13.61
616.091	13.37
616.283	13.65
616.475	13.54
616.666	13.42
616.858	13.33
617.049	12.98
617.241	12.72
617.432	12.92
617.624	13.05
617.815	13.34
618.007	13.32
618.198	13.25
618.39	13.29
618.581	13.38
618.773	13.26
618.964	13.28
619.155	12.94
619.347	13.2
619.538	13.13
619.729	13.01
619.921	12.95
620.112	13.36
620.303	13.53
620.494	13.34
620.686	13.18
620.877	13.65
621.068	13.55
621.259	14.05
621.451	14.22
621.642	14.14
621.833	14.04
622.024	14.16
622.215	13.4
622.406	13.44
622.597	13.53
622.788	13.51
622.98	13.11
623.171	13.24
623.362	13.54
623.553	13.4
623.744	13.31
623.935	13.79
624.126	13.64
624.317	14
624.508	13.99
624.698	14.09
624.889	14.18
625.08	14.37
625.271	14.17
625.462	13.94
625.653	13.9
625.844	13.93
626.034	13.36
626.225	13.71
626.416	13.79
626.607	13.98
626.798	13.86
626.988	13.78
627.179	13.7
627.37	13.74
627.56	13.59
627.751	13.64
627.942	13.92
628.132	14
628.323	13.73
628.514	13.41
628.704	13.49
628.895	13.34
629.085	13.52
629.276	13.71
629.466	13.74
629.657	14.01
629.847	13.79
630.038	13.54
630.228	13.94
630.419	13.84
630.609	13.99
630.8	13.58
630.99	13.78
631.181	13.58
631.371	13.5
631.561	13.42
631.752	13.22
631.942	13.58
632.132	13.77
632.323	13.86
632.513	14.13
632.703	14.07
632.893	14.27
633.084	14.11
633.274	14.28
633.464	13.96
633.654	14.16
633.844	14.29
634.034	14.09
634.225	13.81
634.415	13.65
634.605	13.45
634.795	13.53
634.985	13.22
635.175	13.46
635.365	13.41
635.555	13.45
635.745	13.47
635.935	13.47
636.125	13.66
636.315	13.71
636.505	13.92
636.695	14.17
636.885	14.56
637.075	14.83
637.265	14.73
637.455	14.89
637.644	15.04
637.834	14.76
638.024	14.85
638.214	14.79
638.404	14.68
638.593	14.54
638.783	14.4
638.973	14.31
639.163	14.36
639.352	14.44
639.542	14.4
639.732	14.63
639.921	14.93
640.111	14.74
640.301	14.75
640.49	15.15
640.68	14.93
640.87	14.82
641.059	15.02
641.249	14.93
641.438	15.2
641.628	15.14
641.817	14.82
642.007	14.99
642.196	15.12
642.386	15.15
642.575	15.1
642.764	15.55
642.954	15.51
643.143	15.33
643.333	15.47
643.522	15.07
643.711	15.22
643.901	15.44
644.09	15.15
644.279	15.32
644.469	15.37
644.658	15.28
644.847	15.17
645.036	15.36
645.226	15.1
645.415	14.91
645.604	14.95
645.793	14.32
645.982	14.29
646.171	14.35
646.361	14.14
646.55	14.06
646.739	13.87
646.928	14.03
647.117	14.15
647.306	14.31
647.495	14.42
647.684	14.24
647.873	14.59
648.062	14.19
648.251	14.26
648.44	14.46
648.629	14.16
648.818	14.24
649.007	13.63
649.196	13.74
649.384	13.93
649.573	13.83
649.762	14.24
649.951	14.1
650.14	14.64
650.328	14.57
650.517	14.55
650.706	14.97
650.895	14.47
651.083	14.95
651.272	14.97
651.461	14.88
651.65	15.47
651.838	15.36
652.027	15.57
652.216	15.65
652.404	15.43
652.593	15.4
652.781	15.2
652.97	15.77
653.158	15.68
653.347	15.35
653.535	15.49
653.724	14.88
653.912	14.8
654.101	14.8
654.289	14.52
654.478	14.76
654.666	14.64
654.855	14.63
655.043	14.43
655.231	14.04
655.42	14.27
655.608	14.09
655.796	14.38
655.985	14.42
656.173	14.49
656.361	14.39
656.55	14.24
656.738	14.18
656.926	14.16
657.114	14.07
657.302	14.73
657.491	14.72
657.679	14.4
657.867	14.52
658.055	14.53
658.243	14.34
658.431	14.6
658.619	14.45
658.807	14.7
658.996	14.96
659.184	15.21
659.372	14.78
659.56	14.67
659.748	14.85
659.936	14.68
660.124	14.54
660.311	14.37
660.499	14.49
660.687	14.78
660.875	14.7
661.063	14.85
661.251	15.05
661.439	15.17
661.627	15.34
661.814	15.32
662.002	15.22
662.19	15.26
662.378	15.65
662.565	15.28
662.753	15.45
662.941	15.16
663.129	14.62
663.316	14.17
663.504	14.5
663.692	14.18
663.879	14.7
664.067	15.05
664.254	15.35
664.442	15.49
664.63	15.75
664.817	15.56
665.005	15.73
665.192	15.56
665.38	15.36
665.567	15.56
665.755	16.04
665.942	15.79
666.13	15.42
666.317	15.02
666.504	14.83
666.692	14.33
666.879	13.94
667.067	14.22
667.254	14.57
667.441	15.03
667.629	14.59
667.816	14.32
668.003	13.96
668.19	14.51
668.378	14.9
668.565	14.95
668.752	15.59
668.939	16.06
669.127	15.92
669.314	16.22
669.501	16.26
669.688	16.45
669.875	16.42
670.062	16.29
670.249	15.98
670.436	16.5
670.623	15.9
670.81	15.43
670.997	15.58
671.184	15.51
671.371	15.48
671.558	15.23
671.745	14.35
671.932	14.24
672.119	14.63
672.306	14.19
672.493	13.88
672.68	15.1
672.867	15.45
673.054	15.35
673.24	15.19
673.427	14.89
673.614	14.85
673.801	15.61
673.988	15.63
674.174	15.37
674.361	15.8
674.548	15.4
674.734	15.01
674.921	14.67
675.108	14.43
675.294	14.54
675.481	14.68
675.668	14.67
675.854	14.35
676.041	14.02
676.227	14.53
676.414	14.7
676.601	14.47
676.787	14.21
676.974	14.14
677.16	14.47
677.347	14.17
677.533	13.54
677.719	13.67
677.906	13.86
678.092	14.2
678.279	13.81
678.465	13.63
678.651	13.81
678.838	14.06
679.024	14.24
679.21	14.11
679.397	14.45
679.583	14.76
679.769	14.85
679.955	15.04
680.142	14.89
680.328	14.94
680.514	15.21
680.7	15.13
680.886	15.29
681.073	14.91
681.259	15.39
681.445	15.54
681.631	15.48
681.817	15.3
682.003	15.43
682.189	15.77
682.375	15.83
682.561	15.73
682.747	16.15
682.933	15.92
683.119	16.38
683.305	15.88
683.491	16.06
683.677	16.52
683.863	16.34
684.049	16.14
684.235	16.14
684.42	16.35
684.606	16.29
684.792	16.06
684.978	16.21
685.164	16.11
685.349	15.96
685.535	15.73
685.721	15.87
685.907	16.43
686.092	15.98
686.278	16.12
686.464	15.86
686.649	16.23
686.835	16.1
687.021	15.88
687.206	15.83
687.392	15.95
687.577	15.66
687.763	14.69
687.948	14.67
688.134	15.08
688.319	15.32
688.505	15.44
688.69	14.72
688.876	14.87
689.061	14.84
689.247	15.09
689.432	15.24
689.618	15.62
689.803	16.53
689.988	16.58
690.174	16.53
690.359	16.49
690.544	16.53
690.73	16.88
690.915	17.07
691.1	17.21
691.285	17.2
691.471	17.46
691.656	17.35
691.841	16.79
692.026	16.87
692.211	16.8
692.396	16.18
692.582	16.54
692.767	16.37
692.952	16.69
693.137	16.34
693.322	16.46
693.507	16.45
693.692	16.33
693.877	16.3
694.062	16.27
694.247	16.59
694.432	16.89
694.617	16.35
694.802	16.35
694.987	15.96
695.172	16.09
695.357	16.31
695.541	15.42
695.726	15.65
695.911	16.23
696.096	15.92
696.281	15.65
696.466	15.92
696.65	16.04
696.835	16.46
697.02	16.37
697.204	16.41
697.389	16.51
697.574	16.78
697.759	16.56
697.943	16.35
698.128	16.22
698.312	16.42
698.497	16.9
698.682	16.72
698.866	16.49
699.051	16.58
699.235	16.59
699.42	16.26
699.604	16.64
699.789	16.74
699.973	16.76
700.158	16.65
700.342	16.67
700.527	16.22
700.711	16.29
700.895	16.23
701.08	16.38
701.264	16.77
701.448	16.84
701.633	15.92
701.817	15.9
702.001	16.02
702.186	16.62
702.37	16.95
702.554	16.91
702.738	16.79
702.923	16.66
703.107	16.54
703.291	16.5
703.475	16.37
703.659	17.01
703.843	17.62
704.027	17.33
704.212	17.12
704.396	16.56
704.58	16.68
704.764	16.81
704.948	16.38
705.132	15.6
705.316	15.11
705.5	15.97
705.684	15.96
705.868	15.46
706.052	15.43
706.235	16.09
706.419	16.04
706.603	15.36
706.787	15.76
706.971	16.43
707.155	17.18
707.339	18.18
707.522	17.13
707.706	17.13
707.89	16.23
708.074	16.41
708.257	15.66
708.441	15.88
708.625	15.88
708.808	15.39
708.992	15.11
709.176	14.51
709.359	13.26
709.543	13.81
709.727	14.2
709.91	15.68
710.094	15.31
710.277	15.64
710.461	15.09
710.644	15.4
710.828	15.3
711.011	15.48
711.195	16.41
711.378	16.98
711.562	16.83
711.745	16.31
711.928	15.57
712.112	16.46
712.295	16.24
712.478	16.65
712.662	15.97
712.845	16.46
713.028	16.38
713.212	16.4
713.395	16.3
713.578	16.43
713.761	16.25
713.945	16.51
714.128	16.01
714.311	16.18
714.494	16.56
714.677	17.95
714.86	17.99
715.043	18.35
715.227	18.01
715.41	17.99
715.593	17.48
715.776	17.73
715.959	17.93
716.142	17.73
716.325	17.31
716.508	17.37
716.691	16.93
716.874	17.18
717.057	17.02
717.239	17.88
717.422	18.19
717.605	18.99
717.788	18.76
717.971	17.95
718.154	18.42
718.337	19.33
718.519	18.49
718.702	18.42
718.885	18.74
719.068	19.09
719.25	19.03
719.433	18.89
719.616	18.74
719.798	19.22
719.981	20.47
720.164	20.74
720.346	20.33
720.529	20.95
720.712	21.74
720.894	21.9
721.077	22.55
721.259	21.54
721.442	20.9
721.624	20.89
721.807	20.3
721.989	20.08
722.172	19.87
722.354	19.89
722.537	19.22
722.719	18.53
722.901	17.35
723.084	16.75
723.266	16.25
723.448	16.36
723.631	15.72
723.813	16.59
723.995	16.36
724.178	15.99
724.36	15.29
724.542	15.57
724.724	14.77
724.907	14.47
725.089	14.57
725.271	15.42
725.453	15.74
725.635	16.2
725.817	15.62
725.999	15.8
726.181	16.49
726.364	17.87
726.546	17.31
726.728	18.08
726.91	19.28
727.092	19.48
727.274	19.65
727.456	19.65
727.638	19.86
727.819	20.3
728.001	19.59
728.183	19.29
728.365	17.72
728.547	18.51
728.729	17.86
728.911	17.29
729.093	16.14
729.274	15.93
729.456	16.8
729.638	17.19
729.82	17.56
730.001	17.94
730.183	18.48
730.365	20.21
730.546	20.42
730.728	20.32
730.91	21
731.091	22
731.273	22.02
731.455	21.93
731.636	21.17
731.818	20.5
731.999	19.96
732.181	18.95
732.362	17.98
732.544	18.11
732.725	18.52
732.907	17.85
733.088	17.57
733.27	17.08
733.451	15.62
733.633	15.45
733.814	15.57
733.995	16.05
734.177	16.08
734.358	16.28
734.539	15.88
734.721	16.12
734.902	16.98
735.083	16.65
735.264	17.44
735.446	18.44
735.627	18.82
735.808	18.9
735.989	18.81
736.17	19.83
736.351	20.81
736.533	21.29
736.714	20.83
736.895	20.55
737.076	20.98
737.257	20.6
737.438	20.81
737.619	21.3
737.8	21.74
737.981	22.21
738.162	21.91
738.343	19.62
738.524	19.92
738.705	19.25
738.886	18.49
739.067	18.21
739.247	17.21
739.428	17.44
739.609	17.16
739.79	17.21
739.971	16.98
740.151	16.61
740.332	17.31
740.513	15.98
740.694	16.62
740.874	16.23
741.055	16
741.236	17.29
741.417	17.06
741.597	16.02
741.778	16.16
741.958	15.45
742.139	16.08
742.32	16.86
742.5	16.98
742.681	18.33
742.861	18.93
743.042	18.46
743.222	18.02
743.403	18.45
743.583	20.1
743.764	20.05
743.944	21.66
744.124	21.34
744.305	22.05
744.485	23.04
744.666	21.88
744.846	21.74
745.026	22.75
745.207	22.83
745.387	21.06
745.567	20.67
745.747	21.37
745.928	20.45
746.108	20.81
746.288	20.68
746.468	21.02
746.648	21.15
746.829	21.23
747.009	20.99
747.189	20.66
747.369	22.73
747.549	22.86
747.729	20.75
747.909	20.67
748.089	20.06
748.269	18.8
748.449	18.39
748.629	17.88
748.809	17.56
748.989	15.87
749.169	15.12
749.349	13.42
749.529	13.53
749.709	15.07
749.889	15.18
750.068	15.21
750.248	15.51
750.428	14.63
750.608	15.59
750.788	15.99
750.967	17.49
751.147	17.6
751.327	17.5
751.507	16.54
751.686	14.66
751.866	14.04
752.046	14.82
752.225	16.2
752.405	17.41
752.585	16.68
752.764	16.03
752.944	15.38
753.123	16.82
753.303	17.24
753.482	17.83
753.662	18.44
753.841	19.34
754.021	18.58
754.2	18.4
754.38	18.15
754.559	18.62
754.739	19.21
754.918	19.29
755.097	18.88
755.277	19.67
755.456	17.81
755.635	17.78
755.815	17.83
755.994	18.01
756.173	16.34
756.352	15.72
756.532	14.16
756.711	15.62
756.89	17.91
757.069	17.89
757.248	18.37
757.427	21.72
757.607	22.64
757.786	22.62
757.965	23.07
758.144	23.2
758.323	22.79
758.502	23.65
758.681	22.73
758.86	20.52
759.039	20.65
759.218	20.71
759.397	19.16
759.576	17.73
759.755	17.25
759.934	16.4
760.113	17.64
760.291	17.53
760.47	17.79
760.649	18.44
760.828	19.58
761.007	19.38
761.186	18.95
761.364	18.43
761.543	20.6
761.722	20.62
761.901	20.06
762.079	18.78
762.258	20.25
762.437	20.54
762.615	20.09
762.794	19.92
762.972	19.99
763.151	19.32
763.33	19.91
763.508	18.39
763.687	18.41
763.865	19.06
764.044	19.76
764.222	19.12
764.401	18.47
764.579	18.4
764.758	18.89
764.936	18.62
765.114	18.76
765.293	18.36
765.471	20.34
765.65	20.13
765.828	20.77
766.006	20.41
766.184	18.41
766.363	19.08
766.541	19.11
766.719	18.47
766.898	19.28
767.076	20.46
767.254	21.72
767.432	20.27
767.61	20.79
767.788	20.28
767.967	20.45
768.145	24.1
768.323	23.78
768.501	23.89
768.679	23.99
768.857	24.25
769.035	23.4
769.213	22.3
769.391	22.24
769.569	23.04
769.747	23.16
769.925	22.04
770.103	21.82
770.281	23.06
770.459	21.92
770.636	20.97
770.814	20.32
770.992	20.45
771.17	20.17
771.348	19.5
771.525	17.49
771.703	17.18
771.881	18.22
772.059	16.21
772.236	15.67
772.414	17.31
772.592	17.47
772.769	18.97
772.947	19.51
773.125	19.95
773.302	20.47
773.48	21.97
773.657	24.61
773.835	25.66
774.013	25.8
774.19	23.86
774.368	22.42
774.545	24.96
774.723	25.03
774.9	24.3
775.077	24.62
775.255	25.99
775.432	25.5
775.61	23.2
775.787	20.55
775.964	22.47
776.142	24.16
776.319	25.68
776.496	24.41
776.674	24.69
776.851	24.7
777.028	24.56
777.205	23.35
777.382	22.84
777.56	23.14
777.737	25.48
777.914	25.81
778.091	26.54
778.268	27.42
778.445	28.05
778.622	25.73
778.8	24.94
778.977	24.94
779.154	24.7
779.331	24.15
779.508	21.03
779.685	22.21
779.862	21.23
780.038	21.32
780.215	20.65
780.392	19.83
780.569	20.68
780.746	22.03
780.923	22.73
781.1	21.82
781.277	22.99
781.453	24.51
781.63	22.08
781.807	24.08
781.984	22.5
782.16	18.95
782.337	21.25
782.514	22.29
782.691	22.09
782.867	19.99
783.044	23.43
783.221	23.59
783.397	24.34
783.574	26.1
783.75	23.24
783.927	26.29
784.103	28.14
784.28	27.27
784.456	26.24
784.633	25.75
784.809	27.34
784.986	24.23
785.162	23.96
785.339	24.63
785.515	26.42
785.692	27.22
785.868	25.12
786.044	26.99
786.221	26.44
786.397	25.86
786.573	26.36
786.749	24.87
786.926	26.05
787.102	25.57
787.278	24.53
787.454	23.54
787.631	24.21
787.807	24.79
787.983	25.02
788.159	25.18
788.335	26.42
788.511	25.82
788.687	29.11
788.863	29.65
789.039	30.39
789.216	28.8
789.392	29.34
789.568	30.59
789.744	30.82
789.919	31.16
790.095	30.11
790.271	29.93
790.447	30.35
790.623	28.77
790.799	29.11
790.975	28.31
791.151	30.72
791.327	28.64
791.502	26.87
791.678	25.45
791.854	25.02
792.03	27.33
792.205	26.85
792.381	28.54
792.557	27.16
792.733	30.39
792.908	30.52
793.084	30.49
793.259	27.74
793.435	27.09
793.611	27.9
793.786	23.68
793.962	23.03
794.137	23.82
794.313	25.43
794.488	25.75
794.664	20.34
794.839	22.43
795.015	21.99
795.19	26.03
795.366	28.09
795.541	28.72
795.716	33.43
795.892	29.36
796.067	30.12
796.242	28.5
796.418	29.94
796.593	30.35
796.768	29.14
796.944	29.81
797.119	28.11
797.294	26.26
797.469	22.62
797.644	20.97
797.82	21.99
797.995	20.97
798.17	18.68
798.345	18.95
798.52	17.75
798.695	16.71
798.87	14.22
799.045	15.38
799.22	17.85
799.395	22.29
799.57	22.04
799.745	24.77
799.92	23.15
800.095	24.57
800.27	23.5
800.445	25.64
800.62	28.56
800.795	31.06
800.97	32.32
801.145	31.96
801.319	27.32
801.494	29.45
801.669	28.07
801.844	30.12
802.018	28.59
802.193	28.39
802.368	27.85
802.543	26.4
802.717	26.14
802.892	25.01
803.067	23.61
803.241	29.58
803.416	30.12
803.59	30.75
803.765	29.83
803.94	29.71
804.114	31.05
804.289	32.18
804.463	32.64
804.638	34.09
804.812	35.61
804.986	35.36
805.161	33.25
805.335	36.47
805.51	34.35
805.684	34.99
805.858	35.93
806.033	34.03
806.207	34.85
806.381	34.34
806.556	32.19
806.73	28.68
806.904	32.48
807.078	30.29
807.253	25.65
807.427	27.84
807.601	28.77
807.775	29.61
807.949	29.65
808.123	30.09
808.298	30.27
808.472	33.24
808.646	33.86
808.82	27.1
808.994	32.29
809.168	30.51
809.342	32.5
809.516	33.01
809.69	32.45
809.864	36.33
810.038	35.76
810.212	35.79
810.385	35.08
810.559	38.04
810.733	41.23
810.907	34.8
811.081	35.65
811.255	33.03
811.428	29.91
811.602	29.21
811.776	30.54
811.95	27.8
812.123	29.48
812.297	29.87
812.471	29.78
812.644	30.61
812.818	36.46
812.992	38.1
813.165	39.58
813.339	40.07
813.512	43.31
813.686	40.4
813.86	42.71
814.033	42.94
814.207	40.32
814.38	39.56
814.554	39.16
814.727	40.67
814.9	40.66
815.074	37.68
815.247	37.36
815.421	34.6
815.594	32.99
815.767	29.39
815.941	25.56
816.114	27.36
816.287	27.68
816.46	24.54
816.634	21.85
816.807	25.65
816.98	27.74
817.153	26.9
817.327	24.82
817.5	20.35
817.673	24.04
817.846	22.4
818.019	24.74
818.192	22.85
818.365	27.91
818.538	30.19
818.711	25.88
818.884	24.52
819.057	28.72
819.23	34.34
819.403	40.37
819.576	37.47
819.749	41.48
819.922	36.69
820.095	36.64
820.268	35.38
820.441	33.79
820.614	35.15
820.786	34.77
820.959	31.94
821.132	27.19
821.305	25.08
821.477	25.38
821.65	22.47
821.823	22.49
821.996	22.3
822.168	21.17
822.341	21.11
822.514	20.23
822.686	19.37
822.859	19.81
823.031	19.83
823.204	19.55
823.376	19.58
823.549	20.5
823.722	20.51
823.894	20.6
824.067	20.97
824.239	20.32
824.411	20.71
824.584	21.14
824.756	19.85
824.929	19.02
825.101	18.47
825.273	17.78
825.446	17.17
825.618	17.1
825.79	16.99
825.963	18.05
826.135	17.97
826.307	16.88
826.479	19.66
826.652	20.26
826.824	22.14
826.996	23.72
827.168	24.43
827.34	23.63
827.512	23.06
827.684	21.73
827.856	20.45
828.029	21.12
828.201	22.87
828.373	19.87
828.545	19.99
828.717	19.68
828.889	20.27
829.061	19.66
829.232	20.79
829.404	21.84
829.576	23.51
829.748	24.9
829.92	25.46
830.092	25.62
830.264	26.4
830.436	27.04
830.607	28.88
830.779	29.13
830.951	29.52
831.123	31.37
831.294	32.9
831.466	35.28
831.638	34.49
831.809	35
831.981	34.62
832.153	36.68
832.324	37.06
832.496	35.9
832.667	34.33
832.839	34.12
833.011	34.11
833.182	34.35
833.354	31.67
833.525	31.77
833.697	31.61
833.868	27.95
834.039	26.27
834.211	27.64
834.382	26.53
834.554	26.73
834.725	24.94
834.896	21.51
835.068	19.88
835.239	19.76
835.41	17.33
835.581	18.37
835.753	20.11
835.924	19.33
836.095	15.83
836.266	15.71
836.438	13.11
836.609	16.28
836.78	19.66
836.951	18.05
837.122	20.17
837.293	24.87
837.464	23.07
837.635	27.01
837.806	28.05
837.977	28.51
838.148	33.39
838.319	34.92
838.49	36.31
838.661	38.41
838.832	41.02
839.003	44.48
839.174	46.61
839.345	49.68
839.516	47.02
839.687	46.82
839.857	45.72
840.028	39.2
840.199	39.31
840.37	42.93
840.54	35.38
840.711	34.01
840.882	31.87
841.053	26.46
841.223	19.74
841.394	18.56
841.564	21.08
841.735	26.73
841.906	27.92
842.076	27.31
842.247	26.87
842.417	32.18
842.588	31.77
842.758	30.36
842.929	31.83
843.099	31.62
843.27	35.26
843.44	37.16
843.611	35.47
843.781	45.1
843.951	46.48
844.122	41.49
844.292	38.2
844.462	40.41
844.633	41.83
844.803	43.62
844.973	41.2
845.144	40.78
845.314	44.02
845.484	44.2
845.654	35.87
845.824	39.16
845.995	37.64
846.165	36.73
846.335	42.72
846.505	39.8
846.675	35.57
846.845	50.24
847.015	59.22
847.185	54.84
847.355	61.46
847.525	58.71
847.695	51.34
847.865	54.1
848.035	64.88
848.205	63.8
848.375	59.11
848.545	62.58
848.715	64.05
848.884	52.62
849.054	51.97
849.224	44.55
849.394	56.66
849.564	63.09
849.733	64.24
849.903	63.56
850.073	60.67
850.243	64.17
850.412	62.23
850.582	56.4
850.752	61
850.921	56.52
851.091	62.05
851.26	56.27
851.43	56.15
851.599	55.26
851.769	48.6
851.939	45.06
852.108	53.48
852.278	55.27
852.447	58.07
852.616	61.83
852.786	81.73
852.955	77.3
853.125	74.37
853.294	67.62
853.463	66.44
853.633	68.69
853.802	85.58
853.971	76.31
854.141	81.76
854.31	81.43
854.479	74.78
854.648	71.01
854.818	74.05
854.987	76.66
855.156	82.41
855.325	85.12
855.494	84.36
855.663	75.13
855.832	69.49
856.001	55.43
856.171	53.2
856.34	51.53
856.509	36.7
856.678	33.01
856.847	27.48
857.016	19.74
857.185	13.9
857.353	26.27
857.522	23.62
857.691	34.2
857.86	41.24
858.029	51.81
858.198	63.68
858.367	69.42
858.535	63.35
858.704	61.16
858.873	65.01
859.042	65.45
859.21	72.6
859.379	81.32
859.548	87.33
859.717	87.17
859.885	79.96
860.054	79.43
860.222	81.83
860.391	95.66
860.56	94.66
860.728	88.01
860.897	90.63
861.065	72.3
861.234	68.27
861.402	67.49
861.571	68.9
861.739	62.29
861.908	55.17
862.076	63.17
862.244	50.86
862.413	57.37
862.581	65.48
862.749	68.85
862.918	73.14
863.086	60.19
863.254	64.34
863.423	65.54
863.591	88.79
863.759	80.06
863.927	62.16
864.096	60.77
864.264	51.1
864.432	43.72
864.6	41.8
864.768	50.32
864.936	58.02
865.104	40.08
865.272	40.33
865.44	28.46
865.608	38.99
865.776	42.37
865.944	54.86
866.112	69.48
866.28	78.25
866.448	70.03
866.616	70.73
866.784	70.2
866.952	74.87
867.12	77.65
867.288	78.78
867.455	71.36
867.623	75.18
867.791	76.94
867.959	71.15
868.127	67.94
868.294	77.75
868.462	81.59
868.63	80.85
868.797	79.49
868.965	78.74
869.133	79.8
869.3	77.16
869.468	80.9
869.636	77.35
869.803	69.17
869.971	62.73
870.138	59.83
870.306	55.28
870.473	53.41
870.641	56.14
870.808	49.75
870.975	49.64
871.143	49.36
871.31	37.22
871.478	28.72
871.645	38.61
871.812	36.5
871.98	30.61
872.147	32.71
872.314	44.34
872.482	44.61
872.649	59.34
872.816	61.16
872.983	59.09
873.15	83.14
873.318	76.55
873.485	63.18
873.652	78.36
873.819	79.8
873.986	89.64
874.153	76.29
874.32	78.5
874.487	75.33
874.654	69.49
874.821	79.31
874.988	72.75
875.155	90.54
875.322	83.72
875.489	81.32
875.656	72.38
875.823	75.27
875.99	73.58
876.157	68.21
876.324	53.48
876.49	52.27
876.657	52.99
876.824	44.42
876.991	42.85
877.157	44.12
877.324	48.34
877.491	58.4
877.658	47.08
877.824	54.86
877.991	63.52
878.157	69.81
878.324	79.92
878.491	65.85
878.657	72.88
878.824	60.96
878.99	62.4
879.157	59.09
879.323	53.85
879.49	59.35
879.656	57.89
879.823	62.45
879.989	57.2
880.156	46.66
880.322	53.91
880.488	50.14
880.655	53.94
880.821	51.76
880.987	52.24
881.154	50.32
881.32	44.75
881.486	40.36
881.652	37.26
881.819	34.86
881.985	33.78
882.151	35.8
882.317	34.46
882.483	31.81
882.649	34.58
882.816	32.13
882.982	34.25
883.148	34.19
883.314	35.68
883.48	33.84
883.646	34.06
883.812	34.37
883.978	33.26
884.144	34.67
884.31	36.28
884.476	35.39
884.642	37.16
884.807	35.2
884.973	35.64
885.139	33.4
885.305	32.42
885.471	31.94
885.637	35.8
885.802	39.04
885.968	36.18
886.134	38.92
886.3	38.94
886.465	39.09
886.631	42.18
886.797	46.61
886.962	49.51
887.128	56.47
887.293	65.68
887.459	64.04
887.625	57.81
887.79	66.9
887.956	68.3
888.121	67.2
888.287	72.99
888.452	72.74
888.618	69.18
888.783	72.49
