Data from 2938051_Reflection_1.txt Node
Date: Sun Jul 12 14:12:20 EDT 2015
User: robert
Spectrometer: USB4E03001
Autoset integration time: false
Trigger mode: 4
Integration Time (sec): 1.000000E-1
Scans to average: 10
Electric dark correction enabled: true
Nonlinearity correction enabled: false
Boxcar width: 5
Stray light correction enabled: false
XAxis mode: Wavelengths
Stop averaging: false
Number of Pixels in Spectrum: 3648
>>>>>Begin Spectral Data<<<<<
177.566	92.66
177.785	274.18
178.005	190.49
178.225	180.81
178.445	-0.18
178.665	-15.97
178.885	-52.62
179.105	88.12
179.324	90.49
179.544	98.3
179.764	124.95
179.984	125.01
180.204	250.48
180.423	248.36
180.643	269.7
180.863	364.78
181.083	265.89
181.302	170.28
181.522	166.34
181.742	270.85
181.961	356.11
182.181	202.68
182.401	165.79
182.621	77.77
182.84	114.58
183.06	125.8
183.279	88.99
183.499	109.93
183.719	101.46
183.938	63.38
184.158	66.4
184.377	63.18
184.597	61.84
184.816	67.76
185.036	95.55
185.256	50.75
185.475	48.51
185.695	74.6
185.914	80.61
186.134	69.57
186.353	98.62
186.572	80.53
186.792	97.2
187.011	109.9
187.231	88.85
187.45	69.26
187.67	73.66
187.889	50.22
188.108	51.07
188.328	53.87
188.547	62.33
188.766	65.69
188.986	68.97
189.205	68.9
189.424	77.25
189.644	76.62
189.863	79.65
190.082	108.96
190.302	149.97
190.521	153.14
190.74	180.92
190.959	187.91
191.178	321.72
191.398	-3079.39
191.617	-441.47
191.836	-377.1
192.055	-118.08
192.274	-262.33
192.494	-189.53
192.713	-212.13
192.932	-197.16
193.151	-105.15
193.37	-58.39
193.589	-8.37
193.808	295.33
194.027	247.85
194.246	242.47
194.465	192.94
194.685	292.96
194.904	136.96
195.123	116.97
195.342	138.46
195.561	119.51
195.78	120.55
195.999	103.98
196.218	118.71
196.436	116.64
196.655	145.15
196.874	112.91
197.093	103.58
197.312	129
197.531	148.17
197.75	135.18
197.969	103.96
198.188	98.89
198.407	115.12
198.625	102.72
198.844	113.99
199.063	102.71
199.282	173.03
199.501	214.18
199.719	186.74
199.938	221.32
200.157	206.34
200.376	284.78
200.594	434.68
200.813	379.25
201.032	886.09
201.251	478.15
201.469	315.91
201.688	285.64
201.907	164.96
202.125	184.9
202.344	213.45
202.563	374.76
202.781	217.35
203	183.57
203.218	186.23
203.437	196.65
203.656	177.02
203.874	230.16
204.093	194.62
204.311	549.35
204.53	534.76
204.748	369.03
204.967	234.8
205.185	345.41
205.404	343.48
205.622	308.9
205.841	234.71
206.059	474.79
206.278	232.18
206.496	276.23
206.715	136.79
206.933	123.2
207.151	112.46
207.37	97.53
207.588	108.58
207.806	96.83
208.025	87.71
208.243	80.14
208.461	67.98
208.68	94.59
208.898	100.27
209.116	129.02
209.335	146.97
209.553	121.42
209.771	179.97
209.989	131.6
210.208	233.77
210.426	211.23
210.644	182.59
210.862	181.12
211.081	158.74
211.299	151.82
211.517	144.86
211.735	123.03
211.953	97.6
212.171	90.01
212.39	69.5
212.608	51.16
212.826	46.57
213.044	35.73
213.262	8.59
213.48	-2.62
213.698	3.5
213.916	0.27
214.134	26.6
214.352	47.37
214.57	66.32
214.788	100.19
215.006	123.17
215.224	110.3
215.442	90.01
215.66	138.63
215.878	174.07
216.096	185.09
216.314	129.63
216.532	114.51
216.75	108.75
216.968	112.03
217.185	112.21
217.403	101.07
217.621	108.21
217.839	114.24
218.057	106.17
218.275	105.29
218.492	92.21
218.71	89.88
218.928	103.02
219.146	97.5
219.363	101.93
219.581	95.29
219.799	115.55
220.017	100.99
220.234	99.63
220.452	101.67
220.67	95.26
220.887	107.75
221.105	119.48
221.323	126.06
221.54	124.63
221.758	91.39
221.976	87.25
222.193	72.76
222.411	62.48
222.629	64.69
222.846	52.07
223.064	49.27
223.281	48.85
223.499	55.52
223.716	45.24
223.934	33.24
224.151	31.8
224.369	28.63
224.586	26.95
224.804	27.65
225.021	32.3
225.239	45.19
225.456	44.55
225.674	41.65
225.891	43.05
226.108	40.78
226.326	47.61
226.543	49.61
226.76	42.26
226.978	45.76
227.195	48.48
227.413	41.48
227.63	38.4
227.847	33.37
228.064	32.17
228.282	25.45
228.499	24.81
228.716	21.63
228.934	19.44
229.151	20.04
229.368	17.85
229.585	16.98
229.802	18.13
230.02	18.32
230.237	19.01
230.454	19.21
230.671	21.27
230.888	22
231.105	20.88
231.323	23.68
231.54	25.3
231.757	27.91
231.974	28.69
232.191	28.6
232.408	26.31
232.625	25.69
232.842	25.17
233.059	26.99
233.276	23.87
233.493	28.1
233.71	24.58
233.927	22.97
234.144	22.09
234.361	20.88
234.578	19.28
234.795	18.93
235.012	19.42
235.229	18.84
235.446	18.31
235.663	19.07
235.879	17.68
236.096	20.96
236.313	19.36
236.53	19.04
236.747	19.23
236.964	18.37
237.181	22.01
237.397	21.95
237.614	24.17
237.831	22.22
238.048	24.44
238.264	27.63
238.481	23.24
238.698	23.1
238.915	25.7
239.131	26.88
239.348	27.91
239.565	25.46
239.781	29.26
239.998	30.38
240.215	28.61
240.431	28.27
240.648	25.83
240.865	24.71
241.081	23.81
241.298	22.72
241.514	22.5
241.731	22.66
241.947	22.31
242.164	19.39
242.38	18.22
242.597	17.91
242.814	17.6
243.03	18.3
243.246	19.75
243.463	19.82
243.679	19.79
243.896	19.65
244.112	19.63
244.329	19.47
244.545	22.51
244.762	22.05
244.978	24.08
245.194	24.29
245.411	24.45
245.627	23.04
245.843	23.72
246.06	23.88
246.276	23.6
246.492	23.03
246.709	23.03
246.925	22.11
247.141	21.56
247.357	21.32
247.574	21.79
247.79	21.63
248.006	21.62
248.222	21.48
248.439	21.13
248.655	20.7
248.871	20.89
249.087	20.79
249.303	19.97
249.519	20.48
249.736	20.28
249.952	19.54
250.168	19.85
250.384	21.38
250.6	20.97
250.816	19.63
251.032	20.4
251.248	19.8
251.464	19.53
251.68	21.11
251.896	21.29
252.112	20
252.328	19.49
252.544	19.27
252.76	18.55
252.976	18.53
253.192	19.88
253.408	19.5
253.624	19.88
253.84	19.75
254.056	18.63
254.272	19.3
254.487	20.01
254.703	19.6
254.919	19.93
255.135	21.44
255.351	20.78
255.567	20.96
255.782	21.37
255.998	21.3
256.214	21.57
256.43	21.36
256.646	21.51
256.861	21.97
257.077	23.07
257.293	21.76
257.508	19.47
257.724	21.05
257.94	19.79
258.155	19.01
258.371	17.7
258.587	17.72
258.802	18.24
259.018	16.65
259.234	16.46
259.449	15.44
259.665	16.52
259.88	16.63
260.096	16.51
260.312	16.59
260.527	16.72
260.743	16.46
260.958	16.6
261.174	16.22
261.389	16.88
261.605	16.69
261.82	16.69
262.036	14.72
262.251	15.45
262.466	14.64
262.682	15.26
262.897	15.57
263.113	17.66
263.328	16.71
263.543	15.9
263.759	15.64
263.974	17.1
264.189	18.94
264.405	19.9
264.62	18.25
264.835	17.98
265.051	17.03
265.266	17.36
265.481	16.56
265.696	17.04
265.912	16.78
266.127	16.85
266.342	16.95
266.557	17.21
266.773	18.21
266.988	19.43
267.203	19.08
267.418	18.77
267.633	18.72
267.848	18.15
268.064	17.77
268.279	18.97
268.494	18.72
268.709	17.92
268.924	18.07
269.139	17.84
269.354	17.56
269.569	17.55
269.784	18.2
269.999	17.43
270.214	17.29
270.429	17.55
270.644	17.8
270.859	18.35
271.074	18.45
271.289	18.11
271.504	17.49
271.719	16.31
271.934	17.49
272.149	17.33
272.363	17.32
272.578	17.69
272.793	17.59
273.008	17.22
273.223	17.79
273.438	17.39
273.653	16.83
273.867	17.07
274.082	18.15
274.297	17.69
274.512	17.54
274.726	17.62
274.941	17.82
275.156	18.03
275.371	17.63
275.585	17.93
275.8	17.41
276.015	18.32
276.229	18.85
276.444	18.5
276.659	19.5
276.873	18.86
277.088	19.04
277.302	18.8
277.517	19.27
277.732	19.04
277.946	18.07
278.161	18.69
278.375	17.72
278.59	16.59
278.804	16.1
279.019	15.07
279.233	15.5
279.448	14.98
279.662	14.6
279.877	13.74
280.091	15.2
280.306	14.95
280.52	16.25
280.735	15.58
280.949	16.25
281.163	16.41
281.378	15.25
281.592	15.88
281.806	15.83
282.021	16.13
282.235	16.08
282.449	15.95
282.664	15.79
282.878	15.25
283.092	16.55
283.307	17.95
283.521	18.33
283.735	19.84
283.949	18.46
284.164	18.69
284.378	19.74
284.592	20.43
284.806	20.11
285.02	20.46
285.234	20.32
285.449	19.99
285.663	19.27
285.877	18.54
286.091	18.38
286.305	19.85
286.519	20
286.733	19.34
286.947	18.65
287.161	18.65
287.375	17.69
287.589	18.18
287.803	18.03
288.017	17.15
288.231	18.43
288.445	17.98
288.659	18.36
288.873	19.36
289.087	19.32
289.301	20.03
289.515	20.06
289.729	20.69
289.943	20.43
290.157	20.33
290.371	20.92
290.584	19.98
290.798	19.7
291.012	18.06
291.226	17.47
291.44	18.49
291.654	18.33
291.867	17.81
292.081	17.43
292.295	16.59
292.509	16.27
292.722	15.9
292.936	16.79
293.15	17.78
293.364	18.7
293.577	19.12
293.791	18.79
294.005	19.76
294.218	20.86
294.432	22.61
294.645	23.35
294.859	24.34
295.073	24.54
295.286	24.53
295.5	24.44
295.713	24.64
295.927	23.4
296.14	23.23
296.354	22.57
296.568	22.4
296.781	21.29
296.994	20.87
297.208	20.71
297.421	20.87
297.635	20.52
297.848	20.57
298.062	20.5
298.275	21.89
298.489	21.61
298.702	21.73
298.915	21.92
299.129	22.86
299.342	22.38
299.555	23.08
299.769	23.51
299.982	23.87
300.195	23.23
300.409	23.14
300.622	21.81
300.835	22.53
301.048	23.09
301.262	23.93
301.475	23.28
301.688	24.22
301.901	23.6
302.115	23.14
302.328	23.86
302.541	23.87
302.754	24.85
302.967	25.85
303.18	26.24
303.393	27.23
303.607	26.04
303.82	26.35
304.033	26.67
304.246	26.29
304.459	26.25
304.672	26.71
304.885	26.8
305.098	26.61
305.311	25.97
305.524	25.54
305.737	25.16
305.95	24.78
306.163	25.87
306.376	26.44
306.589	27.06
306.802	27.14
307.015	27.09
307.228	28.31
307.44	28.23
307.653	28.13
307.866	27.44
308.079	26.96
308.292	27.41
308.505	25.57
308.718	25.01
308.93	25.26
309.143	25.59
309.356	24.77
309.569	24.47
309.781	24.22
309.994	24.99
310.207	24.7
310.42	24.79
310.632	24.37
310.845	24.67
311.058	25.49
311.27	25.4
311.483	25.6
311.696	25.79
311.908	25.26
312.121	24.53
312.333	24.35
312.546	24.37
312.759	24.11
312.971	24.55
313.184	24.66
313.396	23.5
313.609	23.27
313.821	22.45
314.034	23.11
314.246	23.91
314.459	24.89
314.671	25.29
314.884	25.57
315.096	25.31
315.309	24.4
315.521	24.78
315.733	24.56
315.946	23.79
316.158	24.29
316.371	23.85
316.583	23.87
316.795	23.17
317.008	21.9
317.22	21.13
317.432	21.34
317.644	22.71
317.857	22.68
318.069	24.01
318.281	24.74
318.494	25.64
318.706	24.31
318.918	24.13
319.13	24.69
319.342	24.86
319.555	26.05
319.767	25.26
319.979	24.4
320.191	25.13
320.403	24.02
320.615	24.41
320.827	23.72
321.039	24.97
321.252	25.38
321.464	25.46
321.676	25.13
321.888	25.28
322.1	25.98
322.312	26.38
322.524	25.53
322.736	26.93
322.948	27.66
323.16	27.03
323.372	27
323.584	26.44
323.796	26.07
324.007	26.48
324.219	25.72
324.431	25.8
324.643	26.23
324.855	26.37
325.067	25.72
325.279	25.26
325.491	25.31
325.702	24.95
325.914	24.92
326.126	26.22
326.338	26.28
326.55	25.88
326.761	25.66
326.973	26.15
327.185	25.82
327.396	26.64
327.608	26.35
327.82	25.79
328.032	26
328.243	25.89
328.455	24.78
328.666	24.63
328.878	25.48
329.09	26.07
329.301	25.17
329.513	24.38
329.725	23.21
329.936	23.66
330.148	24.77
330.359	23.19
330.571	24.14
330.782	24.05
330.994	24.28
331.205	25.43
331.417	24.72
331.628	26.04
331.84	27.48
332.051	26.63
332.262	26.82
332.474	26.95
332.685	28.89
332.897	27.42
333.108	26.82
333.319	26.34
333.531	24.26
333.742	24.98
333.953	23.97
334.165	24.02
334.376	23.57
334.587	22.63
334.799	22.93
335.01	21.73
335.221	22.15
335.432	22.86
335.644	23.2
335.855	23.76
336.066	23.84
336.277	24
336.488	23.55
336.7	24.27
336.911	24.11
337.122	23.08
337.333	23.91
337.544	23.78
337.755	24.38
337.966	24.6
338.177	25.06
338.388	24.29
338.599	24.56
338.811	24.28
339.022	24.76
339.233	24.71
339.444	25.75
339.655	25.29
339.866	25.54
340.076	25.06
340.287	24.42
340.498	23.39
340.709	23.29
340.92	22.69
341.131	23.69
341.342	24.2
341.553	24.23
341.764	24.1
341.975	24.35
342.185	25.64
342.396	25.49
342.607	26.55
342.818	27.47
343.029	27.28
343.239	26.81
343.45	25.37
343.661	24.76
343.872	25
344.082	24.87
344.293	24.16
344.504	23.16
344.714	22.93
344.925	22.17
345.136	22.05
345.346	23.7
345.557	24.41
345.768	24.69
345.978	24.63
346.189	24.72
346.399	24.33
346.61	24.31
346.821	24.24
347.031	24.51
347.242	24.26
347.452	24.13
347.663	22.5
347.873	22.11
348.084	22.15
348.294	21.83
348.504	21.96
348.715	20.97
348.925	21.5
349.136	21.77
349.346	20.57
349.557	20.63
349.767	20.35
349.977	20.95
350.188	20.83
350.398	20.89
350.608	21.92
350.819	21.26
351.029	22.3
351.239	21.94
351.449	21.31
351.66	21.45
351.87	22.57
352.08	22.27
352.29	21.97
352.501	22.68
352.711	23.22
352.921	22.16
353.131	22.11
353.341	22.46
353.552	22.94
353.762	22.37
353.972	22.3
354.182	21.45
354.392	21.89
354.602	21.64
354.812	20.55
355.022	19.97
355.232	20.3
355.442	20.44
355.652	19.8
355.862	20.31
356.072	21.61
356.282	21.93
356.492	21.71
356.702	22.08
356.912	21.7
357.122	21.7
357.332	21.45
357.542	21.22
357.752	21.66
357.962	21.15
358.171	20.32
358.381	19.52
358.591	20.16
358.801	20.08
359.011	19.53
359.221	20
359.43	20.34
359.64	20.15
359.85	20.22
360.06	20.17
360.269	20.81
360.479	20.73
360.689	21.08
360.899	20.63
361.108	20.5
361.318	20.67
361.528	20.2
361.737	20.08
361.947	20.21
362.156	20.04
362.366	19.81
362.576	19.43
362.785	19.31
362.995	18.58
363.204	18.39
363.414	18.5
363.623	18.52
363.833	18.78
364.042	19.28
364.252	19.33
364.461	19.85
364.671	20.22
364.88	20.09
365.09	20.32
365.299	20.99
365.509	20.45
365.718	20.88
365.927	20.95
366.137	20.9
366.346	20.56
366.555	20.48
366.765	19.87
366.974	19.76
367.183	19.82
367.393	19.57
367.602	19.41
367.811	20.31
368.021	19.65
368.23	19.65
368.439	19.66
368.648	19.61
368.857	19.56
369.067	19.27
369.276	18.97
369.485	18.85
369.694	18.25
369.903	18.33
370.112	18.27
370.321	18.58
370.531	18.47
370.74	18.77
370.949	18.5
371.158	18.36
371.367	18.71
371.576	18.3
371.785	18.24
371.994	18.84
372.203	18.55
372.412	18.01
372.621	18.25
372.83	18.07
373.039	17.74
373.248	17.89
373.457	18.39
373.666	18.44
373.874	18.59
374.083	18.77
374.292	18.34
374.501	18.27
374.71	18.49
374.919	18.62
375.128	18.55
375.336	18.16
375.545	17.68
375.754	17.6
375.963	17.26
376.171	16.71
376.38	16.57
376.589	16.81
376.798	17.09
377.006	17.36
377.215	16.71
377.424	16.39
377.632	16.46
377.841	16.78
378.05	16.13
378.258	16.72
378.467	17.12
378.675	17
378.884	17.33
379.093	17.02
379.301	16.48
379.51	16.59
379.718	16.48
379.927	16.81
380.135	16.41
380.344	16.12
380.552	15.7
380.761	16.12
380.969	16.74
381.177	15.84
381.386	16.09
381.594	15.75
381.803	15.69
382.011	16.41
382.219	15.84
382.428	16.18
382.636	16.96
382.845	16.88
383.053	16.55
383.261	16.23
383.469	16.67
383.678	16.33
383.886	16.57
384.094	16.41
384.302	15.99
384.511	16.01
384.719	15.49
384.927	14.7
385.135	14.47
385.343	13.86
385.552	13.54
385.76	13.39
385.968	13.2
386.176	13.4
386.384	12.67
386.592	12.42
386.8	12.85
387.008	13.16
387.216	13.18
387.424	12.72
387.633	13.01
387.841	13.07
388.049	13.2
388.257	13.3
388.465	12.99
388.672	13.51
388.88	13.66
389.088	13.09
389.296	12.95
389.504	12.85
389.712	13.24
389.92	13.08
390.128	12.91
390.336	12.42
390.544	12.1
390.751	12.23
390.959	12.33
391.167	11.95
391.375	11.98
391.583	11.93
391.79	11.98
391.998	11.78
392.206	11.76
392.414	11.56
392.621	11.77
392.829	11.95
393.037	11.67
393.244	11.72
393.452	11.85
393.66	11.69
393.867	11.61
394.075	11.69
394.283	11.62
394.49	11.45
394.698	11.54
394.905	11.61
395.113	11.54
395.32	11.91
395.528	11.75
395.735	11.72
395.943	11.67
396.15	11.66
396.358	11.77
396.565	11.92
396.773	11.95
396.98	12.24
397.188	12.16
397.395	12.16
397.602	11.92
397.81	11.67
398.017	11.67
398.225	11.94
398.432	11.93
398.639	11.74
398.847	11.63
399.054	11.88
399.261	11.54
399.468	11.43
399.676	11.43
399.883	11.33
400.09	11.74
400.297	11.67
400.505	11.52
400.712	11.59
400.919	12.11
401.126	12.21
401.333	11.96
401.54	12.2
401.748	12.16
401.955	12.26
402.162	12.08
402.369	11.91
402.576	11.93
402.783	11.67
402.99	11.65
403.197	10.95
403.404	10.71
403.611	10.62
403.818	10.53
404.025	10.5
404.232	10.38
404.439	10.36
404.646	10.24
404.853	10.17
405.06	10.23
405.267	10.47
405.474	10.48
405.681	10.54
405.887	10.43
406.094	10.19
406.301	10.16
406.508	10.22
406.715	10.36
406.922	10.17
407.128	10.34
407.335	10.4
407.542	9.77
407.749	10.09
407.955	10.15
408.162	10.19
408.369	10.38
408.575	10.25
408.782	10.21
408.989	9.88
409.195	9.79
409.402	9.78
409.609	10.01
409.815	10.31
410.022	10.24
410.228	10.19
410.435	10.26
410.642	10.28
410.848	10.3
411.055	10.21
411.261	10.65
411.468	10.52
411.674	10.49
411.881	10.22
412.087	10.23
412.294	10.39
412.5	10.31
412.706	10.19
412.913	9.91
413.119	9.88
413.326	9.61
413.532	9.49
413.738	9.97
413.945	10.08
414.151	10.03
414.357	9.91
414.564	9.58
414.77	9.56
414.976	9.76
415.182	9.98
415.389	9.82
415.595	9.9
415.801	9.87
416.007	9.54
416.214	9.17
416.42	9.03
416.626	8.92
416.832	9.23
417.038	9.42
417.244	9.47
417.45	9.57
417.657	9.78
417.863	9.87
418.069	9.86
418.275	10.13
418.481	10.14
418.687	10.32
418.893	10.43
419.099	10.19
419.305	10.24
419.511	10.03
419.717	9.96
419.923	9.77
420.129	9.6
420.335	9.47
420.541	9.43
420.746	9.45
420.952	9.31
421.158	9.13
421.364	9.12
421.57	8.87
421.776	8.88
421.982	8.84
422.187	8.96
422.393	8.97
422.599	9.08
422.805	8.95
423.01	8.91
423.216	8.94
423.422	8.96
423.628	8.91
423.833	9.06
424.039	9.24
424.245	9.13
424.45	9.09
424.656	9.17
424.862	9.1
425.067	9.09
425.273	9.15
425.478	9.18
425.684	9.22
425.889	9.31
426.095	9.26
426.301	9.05
426.506	9.04
426.712	9.01
426.917	9.1
427.123	9.05
427.328	9.16
427.533	9.19
427.739	9.07
427.944	9.22
428.15	9.29
428.355	9.35
428.561	9.39
428.766	9.48
428.971	9.6
429.177	9.5
429.382	9.71
429.587	9.52
429.793	9.58
429.998	9.85
430.203	9.74
430.408	9.59
430.614	9.61
430.819	9.67
431.024	9.79
431.229	9.83
431.434	9.87
431.64	9.48
431.845	9.45
432.05	9.32
432.255	9.21
432.46	9.13
432.665	9.1
432.87	8.99
433.076	9.02
433.281	8.82
433.486	8.8
433.691	8.76
433.896	8.96
434.101	9.17
434.306	9.25
434.511	9.33
434.716	9.52
434.921	9.55
435.126	9.53
435.331	9.42
435.535	9.52
435.74	9.57
435.945	9.6
436.15	9.62
436.355	9.64
436.56	9.61
436.765	9.54
436.97	9.4
437.174	9.36
437.379	9.31
437.584	9.41
437.789	9.37
437.993	9.39
438.198	9.26
438.403	9.18
438.608	9.05
438.812	8.99
439.017	8.88
439.222	8.78
439.426	8.82
439.631	8.77
439.836	8.57
440.04	8.58
440.245	8.46
440.45	8.46
440.654	8.51
440.859	8.56
441.063	8.45
441.268	8.48
441.472	8.56
441.677	8.52
441.881	8.57
442.086	8.75
442.29	8.71
442.495	8.7
442.699	8.77
442.904	8.76
443.108	8.65
443.312	8.63
443.517	8.57
443.721	8.66
443.925	8.64
444.13	8.61
444.334	8.66
444.538	8.8
444.743	8.85
444.947	8.78
445.151	8.72
445.356	8.75
445.56	8.85
445.764	8.88
445.968	8.88
446.173	8.83
446.377	8.84
446.581	8.7
446.785	8.59
446.989	8.47
447.193	8.54
447.398	8.52
447.602	8.44
447.806	8.51
448.01	8.47
448.214	8.39
448.418	8.52
448.622	8.55
448.826	8.64
449.03	8.64
449.234	8.72
449.438	8.71
449.642	8.72
449.846	8.68
450.05	8.56
450.254	8.64
450.458	8.6
450.662	8.54
450.866	8.44
451.069	8.36
451.273	8.37
451.477	8.22
451.681	8.09
451.885	8.02
452.089	8.26
452.292	8.24
452.496	8.14
452.7	8.09
452.904	8.21
453.107	8.28
453.311	8.39
453.515	8.47
453.719	8.43
453.922	8.53
454.126	8.67
454.33	8.5
454.533	8.55
454.737	8.8
454.94	9.03
455.144	8.93
455.348	9
455.551	8.91
455.755	8.75
455.958	9.06
456.162	9.09
456.365	9.05
456.569	9.19
456.772	9.09
456.976	9.07
457.179	9.14
457.383	9.06
457.586	9.08
457.79	9.1
457.993	9.06
458.196	8.85
458.4	8.66
458.603	8.59
458.807	8.55
459.01	8.53
459.213	8.37
459.417	8.14
459.62	8.17
459.823	8.1
460.026	8.02
460.23	8.06
460.433	8.13
460.636	8.28
460.839	8.33
461.042	8.43
461.246	8.47
461.449	8.46
461.652	8.51
461.855	8.46
462.058	8.43
462.261	8.57
462.464	8.7
462.668	8.79
462.871	8.86
463.074	8.94
463.277	8.84
463.48	8.89
463.683	9.06
463.886	9.23
464.089	9.25
464.292	9.32
464.495	9.22
464.698	9.13
464.901	9.03
465.104	8.92
465.306	8.79
465.509	8.62
465.712	8.49
465.915	8.33
466.118	8.37
466.321	8.44
466.524	8.35
466.726	8.54
466.929	8.51
467.132	8.46
467.335	8.34
467.538	8.35
467.74	8.4
467.943	8.39
468.146	8.36
468.348	8.18
468.551	8.15
468.754	8.19
468.956	8.16
469.159	8.27
469.362	8.26
469.564	8.4
469.767	8.52
469.969	8.54
470.172	8.7
470.375	8.64
470.577	8.67
470.78	8.76
470.982	8.87
471.185	8.8
471.387	9.06
471.59	9.21
471.792	9.14
471.995	9.22
472.197	9.11
472.399	8.98
472.602	9.2
472.804	9.14
473.007	8.99
473.209	8.87
473.411	8.82
473.614	8.54
473.816	8.59
474.018	8.45
474.22	8.48
474.423	8.74
474.625	8.81
474.827	8.79
475.03	8.82
475.232	8.94
475.434	8.97
475.636	9.02
475.838	8.91
476.04	8.91
476.243	9.22
476.445	8.87
476.647	8.7
476.849	8.67
477.051	8.69
477.253	8.82
477.455	8.81
477.657	8.75
477.859	8.74
478.061	8.73
478.263	8.74
478.465	8.51
478.667	8.68
478.869	8.72
479.071	8.72
479.273	8.69
479.475	8.56
479.677	8.55
479.879	8.59
480.081	8.48
480.283	8.54
480.485	8.35
480.686	8.37
480.888	8.37
481.09	8.3
481.292	8.21
481.494	8.17
481.695	8.14
481.897	8.08
482.099	8.09
482.301	8.1
482.502	8.11
482.704	8.13
482.906	8.16
483.107	8.14
483.309	8.15
483.511	8.15
483.712	8.08
483.914	8.06
484.115	8.11
484.317	8.11
484.519	8.04
484.72	8.05
484.922	8.03
485.123	8.01
485.325	8.02
485.526	8.06
485.728	8.12
485.929	8.2
486.131	8.24
486.332	8.22
486.534	8.22
486.735	8.31
486.936	8.21
487.138	8.17
487.339	8.23
487.541	8.18
487.742	8.1
487.943	8.06
488.144	8.04
488.346	7.97
488.547	7.92
488.748	7.88
488.95	7.81
489.151	7.89
489.352	7.98
489.553	7.92
489.755	7.97
489.956	8.01
490.157	8.04
490.358	7.99
490.559	7.94
490.76	7.95
490.961	7.84
491.163	7.92
491.364	7.83
491.565	7.81
491.766	7.78
491.967	7.68
492.168	7.7
492.369	7.65
492.57	7.72
492.771	7.72
492.972	7.7
493.173	7.78
493.374	7.88
493.575	7.97
493.776	7.94
493.976	7.94
494.177	8.1
494.378	8.02
494.579	8.04
494.78	8.06
494.981	8.23
495.182	8.31
495.382	8.43
495.583	8.32
495.784	8.27
495.985	8.25
496.185	8.43
496.386	8.37
496.587	8.28
496.788	8.23
496.988	8.13
497.189	8.19
497.39	8.18
497.59	8.24
497.791	8.19
497.992	8.19
498.192	8.28
498.393	8.16
498.593	8.22
498.794	8.33
498.994	8.41
499.195	8.53
499.395	8.46
499.596	8.45
499.796	8.36
499.997	8.34
500.197	8.43
500.398	8.43
500.598	8.58
500.799	8.49
500.999	8.57
501.199	8.55
501.4	8.64
501.6	8.72
501.801	8.87
502.001	8.92
502.201	8.89
502.402	8.93
502.602	8.8
502.802	8.69
503.002	8.67
503.203	8.67
503.403	8.62
503.603	8.56
503.803	8.66
504.003	8.64
504.204	8.59
504.404	8.8
504.604	8.74
504.804	8.76
505.004	8.72
505.204	8.71
505.404	8.69
505.604	8.7
505.804	8.54
506.005	8.34
506.205	8.27
506.405	8.32
506.605	8.31
506.805	8.31
507.005	8.32
507.204	8.3
507.404	8.35
507.604	8.27
507.804	8.43
508.004	8.56
508.204	8.7
508.404	8.6
508.604	8.63
508.804	8.58
509.003	8.63
509.203	8.65
509.403	8.78
509.603	8.76
509.803	8.96
510.002	8.89
510.202	8.88
510.402	8.81
510.602	8.89
510.801	8.9
511.001	9.01
511.201	8.89
511.4	9.04
511.6	9.03
511.8	9.07
511.999	9.04
512.199	8.98
512.398	8.97
512.598	8.96
512.797	8.93
512.997	8.94
513.197	8.9
513.396	8.83
513.596	8.68
513.795	8.47
513.994	8.47
514.194	8.45
514.393	8.51
514.593	8.58
514.792	8.66
514.992	8.66
515.191	8.63
515.39	8.54
515.59	8.59
515.789	8.56
515.988	8.65
516.188	8.75
516.387	8.79
516.586	8.86
516.786	8.83
516.985	8.83
517.184	8.9
517.383	8.95
517.582	8.92
517.782	9.07
517.981	9.11
518.18	9.07
518.379	9.07
518.578	9.06
518.777	9.01
518.976	8.95
519.176	8.94
519.375	8.9
519.574	8.84
519.773	8.94
519.972	8.87
520.171	8.91
520.37	8.95
520.569	8.96
520.768	8.94
520.967	8.97
521.166	8.95
521.365	9
521.564	9.16
521.762	9.15
521.961	9.12
522.16	9.29
522.359	9.21
522.558	9.31
522.757	9.26
522.956	9.24
523.154	9.24
523.353	9.42
523.552	9.51
523.751	9.47
523.949	9.53
524.148	9.46
524.347	9.3
524.546	9.4
524.744	9.45
524.943	9.44
525.142	9.42
525.34	9.34
525.539	9.25
525.737	9.14
525.936	9
526.135	9
526.333	9.08
526.532	9.12
526.73	9.06
526.929	8.88
527.127	8.9
527.326	8.85
527.524	8.93
527.723	8.95
527.921	8.99
528.12	9.12
528.318	9.12
528.516	9.08
528.715	9.1
528.913	9.13
529.112	9.2
529.31	9.18
529.508	9.27
529.707	9.27
529.905	9.26
530.103	9.3
530.301	9.28
530.5	9.32
530.698	9.35
530.896	9.4
531.094	9.47
531.293	9.55
531.491	9.55
531.689	9.55
531.887	9.6
532.085	9.61
532.283	9.54
532.481	9.53
532.68	9.61
532.878	9.69
533.076	9.6
533.274	9.58
533.472	9.58
533.67	9.57
533.868	9.52
534.066	9.51
534.264	9.63
534.462	9.63
534.66	9.64
534.858	9.61
535.056	9.49
535.253	9.62
535.451	9.63
535.649	9.65
535.847	9.75
536.045	9.8
536.243	9.73
536.441	9.76
536.638	9.86
536.836	9.9
537.034	9.88
537.232	9.97
537.43	9.87
537.627	9.84
537.825	9.75
538.023	9.82
538.22	9.92
538.418	10.11
538.616	10
538.813	10.13
539.011	10.08
539.209	10.1
539.406	10.21
539.604	10.33
539.801	10.38
539.999	10.55
540.196	10.64
540.394	10.63
540.591	10.59
540.789	10.65
540.986	10.56
541.184	10.59
541.381	10.55
541.579	10.57
541.776	10.59
541.974	10.53
542.171	10.61
542.368	10.52
542.566	10.56
542.763	10.53
542.96	10.51
543.158	10.6
543.355	10.63
543.552	10.78
543.75	10.81
543.947	10.73
544.144	10.88
544.341	10.92
544.539	11
544.736	11.03
544.933	11.07
545.13	11.18
545.327	11.16
545.524	11.14
545.722	11.08
545.919	11.09
546.116	11.25
546.313	11.23
546.51	11.13
546.707	11.18
546.904	11.21
547.101	11.36
547.298	11.41
547.495	11.49
547.692	11.72
547.889	11.78
548.086	11.68
548.283	11.7
548.48	11.83
548.677	11.92
548.874	11.86
549.07	11.79
549.267	11.87
549.464	11.91
549.661	12.03
549.858	12.05
550.055	12.21
550.251	12.38
550.448	12.42
550.645	12.61
550.842	12.61
551.038	12.61
551.235	12.54
551.432	12.46
551.628	12.59
551.825	12.69
552.022	12.64
552.218	12.49
552.415	12.55
552.612	12.62
552.808	12.44
553.005	12.48
553.201	12.79
553.398	13.09
553.594	13.25
553.791	13.3
553.987	13.28
554.184	13.26
554.38	13.36
554.577	13.39
554.773	13.46
554.97	13.63
555.166	13.63
555.362	13.66
555.559	13.7
555.755	13.56
555.952	13.34
556.148	13.12
556.344	13.25
556.541	13.39
556.737	13.32
556.933	13.36
557.129	13.4
557.326	13.54
557.522	13.46
557.718	13.57
557.914	13.69
558.11	13.9
558.307	14.19
558.503	14.3
558.699	14.17
558.895	14.34
559.091	14.49
559.287	14.46
559.483	14.63
559.679	14.72
559.876	14.5
560.072	14.53
560.268	14.6
560.464	14.38
560.66	14.38
560.856	14.44
561.052	14.59
561.247	14.44
561.443	14.56
561.639	14.54
561.835	14.49
562.031	14.63
562.227	14.55
562.423	14.48
562.619	14.56
562.815	14.62
563.01	14.62
563.206	14.46
563.402	14.75
563.598	14.68
563.793	14.62
563.989	14.57
564.185	14.69
564.381	14.68
564.576	14.76
564.772	14.95
564.968	14.68
565.163	14.93
565.359	15.01
565.555	14.88
565.75	14.99
565.946	15.24
566.141	15.41
566.337	15.47
566.532	15.5
566.728	15.51
566.923	15.36
567.119	15.64
567.314	15.56
567.51	15.78
567.705	15.87
567.901	15.92
568.096	15.84
568.292	15.9
568.487	15.76
568.682	15.91
568.878	16.08
569.073	16.33
569.268	16.38
569.464	16.49
569.659	16.38
569.854	16.33
570.05	16.37
570.245	16.36
570.44	16.18
570.635	16.34
570.831	16.33
571.026	16.33
571.221	16.24
571.416	16.11
571.611	16.01
571.806	15.95
572.002	15.84
572.197	15.84
572.392	15.74
572.587	15.84
572.782	15.87
572.977	15.8
573.172	15.71
573.367	15.71
573.562	15.81
573.757	15.88
573.952	15.95
574.147	16.04
574.342	15.91
574.537	15.89
574.732	15.94
574.927	15.96
575.121	16.05
575.316	16.01
575.511	16.14
575.706	16.2
575.901	16.1
576.096	16.11
576.29	15.99
576.485	16.12
576.68	16.32
576.875	16.35
577.069	16.39
577.264	16.43
577.459	16.28
577.654	16.07
577.848	15.98
578.043	16.05
578.238	16.06
578.432	16.1
578.627	16.25
578.821	16.16
579.016	16.16
579.21	16.12
579.405	16.02
579.6	16.08
579.794	16.2
579.989	16.2
580.183	16.34
580.378	16.28
580.572	16.27
580.766	16.12
580.961	15.87
581.155	15.69
581.35	15.54
581.544	15.9
581.738	16.31
581.933	16.34
582.127	16.28
582.321	16.2
582.516	16.31
582.71	16.68
582.904	16.76
583.099	17.08
583.293	17.49
583.487	17.62
583.681	17.37
583.875	17.47
584.07	17.46
584.264	17.43
584.458	17.56
584.652	17.59
584.846	17.52
585.04	17.54
585.234	17.53
585.428	17.3
585.623	17.32
585.817	17.46
586.011	17.21
586.205	17.35
586.399	17.6
586.593	17.55
586.787	17.62
586.981	17.62
587.174	17.76
587.368	17.64
587.562	17.61
587.756	17.57
587.95	17.66
588.144	17.85
588.338	17.97
588.532	17.86
588.725	17.94
588.919	17.56
589.113	17.63
589.307	17.71
589.501	17.93
589.694	18.1
589.888	18.16
590.082	18.16
590.275	18
590.469	17.87
590.663	18.16
590.856	18.02
591.05	18.31
591.244	18.06
591.437	17.84
591.631	17.64
591.824	17.72
592.018	17.55
592.212	17.33
592.405	17.52
592.599	17.6
592.792	17.12
592.986	17.35
593.179	17.48
593.372	17.71
593.566	17.99
593.759	18.24
593.953	18.13
594.146	18.31
594.339	18.35
594.533	18.13
594.726	18.1
594.92	18.32
595.113	18.16
595.306	17.9
595.499	17.8
595.693	17.62
595.886	17.5
596.079	17.47
596.272	17.34
596.466	17.34
596.659	17.4
596.852	17.33
597.045	17.37
597.238	17.41
597.431	17.48
597.624	17.65
597.818	17.52
598.011	17.45
598.204	17.59
598.397	17.61
598.59	17.63
598.783	17.64
598.976	17.88
599.169	17.62
599.362	17.64
599.555	18
599.748	17.67
599.941	17.82
600.134	18.01
600.326	17.68
600.519	17.82
600.712	17.8
600.905	17.82
601.098	17.73
601.291	17.98
601.483	18.02
601.676	17.72
601.869	17.97
602.062	17.87
602.255	17.68
602.447	17.69
602.64	17.7
602.833	17.86
603.025	17.76
603.218	17.64
603.411	17.55
603.603	17.57
603.796	17.63
603.989	17.51
604.181	17.71
604.374	17.82
604.566	17.68
604.759	17.66
604.951	17.61
605.144	17.69
605.336	17.75
605.529	17.96
605.721	17.87
605.914	17.83
606.106	17.94
606.299	18.1
606.491	18.25
606.683	18.58
606.876	18.46
607.068	18.47
607.26	18.56
607.453	18.59
607.645	18.64
607.837	18.85
608.03	18.87
608.222	18.76
608.414	18.44
608.606	18.06
608.799	18.09
608.991	18.04
609.183	18.1
609.375	18.01
609.567	17.88
609.759	17.82
609.952	17.51
610.144	17.5
610.336	17.59
610.528	17.5
610.72	17.65
610.912	17.86
611.104	17.99
611.296	17.92
611.488	17.95
611.68	18.01
611.872	17.87
612.064	18.05
612.256	18.37
612.448	18.33
612.64	18.52
612.832	18.31
613.023	17.66
613.215	17.65
613.407	17.6
613.599	17.54
613.791	17.72
613.983	17.9
614.174	17.92
614.366	17.9
614.558	17.81
614.75	17.92
614.941	18.51
615.133	19.08
615.325	19.24
615.516	19.33
615.708	19.11
615.9	18.77
616.091	18.64
616.283	18.72
616.475	18.58
616.666	18.83
616.858	18.84
617.049	18.39
617.241	18.02
617.432	18.08
617.624	18.01
617.815	18.2
618.007	18.4
618.198	18.29
618.39	18.28
618.581	18.35
618.773	18.39
618.964	18.05
619.155	18.2
619.347	18.29
619.538	18.23
619.729	18.16
619.921	18.15
620.112	18.51
620.303	18.84
620.494	18.77
620.686	18.35
620.877	18.25
621.068	18.34
621.259	18.43
621.451	18.68
621.642	18.87
621.833	18.65
622.024	18.71
622.215	18.19
622.406	18.05
622.597	18.24
622.788	18.5
622.98	18.32
623.171	18.65
623.362	18.63
623.553	18.68
623.744	18.44
623.935	18.89
624.126	18.82
624.317	19.07
624.508	19
624.698	19.07
624.889	18.98
625.08	19.21
625.271	19.11
625.462	19.01
625.653	18.72
625.844	18.69
626.034	18.59
626.225	18.68
626.416	18.43
626.607	18.6
626.798	18.51
626.988	18.4
627.179	18.46
627.37	18.4
627.56	18.47
627.751	18.79
627.942	18.89
628.132	18.72
628.323	18.71
628.514	18.91
628.704	19.05
628.895	18.98
629.085	19.23
629.276	19.23
629.466	19.24
629.657	19.19
629.847	19.04
630.038	18.97
630.228	19.2
630.419	19.28
630.609	19.25
630.8	18.83
630.99	18.95
631.181	18.95
631.371	18.98
631.561	18.78
631.752	18.84
631.942	19.15
632.132	19.33
632.323	19.5
632.513	19.36
632.703	19.1
632.893	19.35
633.084	19.14
633.274	18.98
633.464	18.96
633.654	18.97
633.844	18.84
634.034	18.28
634.225	18.04
634.415	17.85
634.605	17.85
634.795	18.05
634.985	17.83
635.175	18.06
635.365	18.23
635.555	17.96
635.745	18.22
635.935	18.49
636.125	18.71
636.315	18.71
636.505	18.99
636.695	19.25
636.885	19.44
637.075	19.45
637.265	19.35
637.455	19.19
637.644	19.43
637.834	19.08
638.024	18.98
638.214	19.17
638.404	19.41
638.593	19.43
638.783	19.43
638.973	19.4
639.163	19.7
639.352	19.94
639.542	19.48
639.732	19.69
639.921	20.16
640.111	20.14
640.301	20.15
640.49	20
640.68	19.84
640.87	19.39
641.059	19.39
641.249	18.93
641.438	18.85
641.628	19.66
641.817	19.31
642.007	19.03
642.196	18.9
642.386	18.76
642.575	18.9
642.764	19.45
642.954	19.62
643.143	19.24
643.333	19.27
643.522	19.04
643.711	18.9
643.901	18.99
644.09	19.27
644.279	19.06
644.469	18.75
644.658	18.6
644.847	18.19
645.036	18.7
645.226	18.9
645.415	19.3
645.604	19.27
645.793	18.97
645.982	19.06
646.171	18.75
646.361	19.24
646.55	19.7
646.739	19.77
646.928	19.66
647.117	19.18
647.306	19.19
647.495	19.23
647.684	19.35
647.873	19.68
648.062	19.38
648.251	19.61
648.44	19.48
648.629	19.22
648.818	19.58
649.007	19.51
649.196	19.61
649.384	20.36
649.573	20.09
649.762	20.06
649.951	20.03
650.14	20.35
650.328	20.2
650.517	20.23
650.706	20.5
650.895	20.02
651.083	20.11
651.272	20.22
651.461	19.42
651.65	19.71
651.838	19.93
652.027	19.99
652.216	20.15
652.404	19.99
652.593	19.88
652.781	19.65
652.97	19.72
653.158	19.6
653.347	19.55
653.535	19.83
653.724	19.79
653.912	20
654.101	19.72
654.289	19.45
654.478	19.72
654.666	20
654.855	20.19
655.043	20.37
655.231	20.56
655.42	20.37
655.608	20.32
655.796	20.32
655.985	19.98
656.173	20.04
656.361	20.11
656.55	20.51
656.738	20.32
656.926	19.97
657.114	19.69
657.302	19.97
657.491	19.82
657.679	19.7
657.867	19.53
658.055	19.35
658.243	19.35
658.431	18.92
658.619	18.59
658.807	18.48
658.996	18.87
659.184	19
659.372	18.47
659.56	18.56
659.748	18.46
659.936	18.74
660.124	18.66
660.311	18.68
660.499	19.15
660.687	19.21
660.875	19.22
661.063	19.14
661.251	19.2
661.439	19.75
661.627	19.87
661.814	20.22
662.002	20.12
662.19	20.26
662.378	20.18
662.565	19.86
662.753	19.65
662.941	19.82
663.129	19.83
663.316	19.72
663.504	19.93
663.692	19.4
663.879	19.47
664.067	19.32
664.254	19.61
664.442	20
664.63	20.02
664.817	20.31
665.005	20.09
665.192	19.78
665.38	19.82
665.567	19.34
665.755	20.39
665.942	20.16
666.13	20.26
666.317	20.25
666.504	19.73
666.692	19.85
666.879	19.69
667.067	19.86
667.254	20.39
667.441	20.29
667.629	20.28
667.816	19.98
668.003	20.34
668.19	20.4
668.378	20.11
668.565	20.12
668.752	20.62
668.939	20.73
669.127	20.96
669.314	21.05
669.501	21.05
669.688	21.07
669.875	20.76
670.062	20.24
670.249	20.28
670.436	20.79
670.623	21.29
670.81	20.51
670.997	20.79
671.184	20.71
671.371	20.31
671.558	20.54
671.745	20.07
671.932	20.41
672.119	20.27
672.306	19.74
672.493	19.81
672.68	19.58
672.867	20.35
673.054	19.74
673.24	19.34
673.427	19.26
673.614	19.19
673.801	20.11
673.988	19.93
674.174	20.45
674.361	20.46
674.548	20.11
674.734	20.52
674.921	19.79
675.108	19.86
675.294	20.09
675.481	20.05
675.668	20.18
675.854	19.72
676.041	19.5
676.227	19.37
676.414	19.48
676.601	19.63
676.787	19.34
676.974	19.64
677.16	20.38
677.347	20.1
677.533	19.81
677.719	19.46
677.906	19.3
678.092	19.66
678.279	19.7
678.465	19.99
678.651	19.74
678.838	19.92
679.024	19.51
679.21	19.01
679.397	19.24
679.583	19.2
679.769	19.56
679.955	19.94
680.142	19.75
680.328	19.96
680.514	19.95
680.7	20.05
680.886	20.05
681.073	19.96
681.259	20
681.445	20.32
681.631	20.48
681.817	19.86
682.003	19.82
682.189	19.98
682.375	19.89
682.561	20.17
682.747	20.28
682.933	19.93
683.119	20.46
683.305	20.57
683.491	20.49
683.677	21.18
683.863	21.85
684.049	21.98
684.235	21.95
684.42	21.9
684.606	21.97
684.792	22.16
684.978	22.13
685.164	22.1
685.349	21.96
685.535	21.93
685.721	21.79
685.907	21.71
686.092	20.85
686.278	20.59
686.464	20.5
686.649	20
686.835	19.68
687.021	19.87
687.206	19.72
687.392	20.11
687.577	19.65
687.763	19.09
687.948	18.88
688.134	19.29
688.319	19.96
688.505	20.02
688.69	20.65
688.876	21.04
689.061	20.86
689.247	20.81
689.432	20.9
689.618	21.62
689.803	21.84
689.988	21.97
690.174	21.74
690.359	21.21
690.544	20.73
690.73	20.22
690.915	20.3
691.1	20.62
691.285	21.04
691.471	20.9
691.656	20.72
691.841	21.25
692.026	20.94
692.211	21.76
692.396	21.7
692.582	22.17
692.767	21.94
692.952	21.8
693.137	21.86
693.322	21.68
693.507	21.82
693.692	21.38
693.877	20.8
694.062	21.31
694.247	21.15
694.432	21.79
694.617	21.5
694.802	21.83
694.987	21.47
695.172	21.4
695.357	21.35
695.541	20.45
695.726	21.26
695.911	21.14
696.096	21.45
696.281	21.22
696.466	20.95
696.65	21.34
696.835	21.76
697.02	22.04
697.204	22.01
697.389	22.12
697.574	22.5
697.759	22.04
697.943	22.36
698.128	22.14
698.312	21.83
698.497	22.3
698.682	22.26
698.866	21.98
699.051	21.79
699.235	21.5
699.42	21.5
699.604	21.81
699.789	21.99
699.973	21.93
700.158	21.93
700.342	22.32
700.527	21.85
700.711	21.71
700.895	21.71
701.08	21.9
701.264	22.99
701.448	22.75
701.633	22.05
701.817	21.39
702.001	21.3
702.186	21.16
702.37	21.17
702.554	20.95
702.738	20.78
702.923	20.71
703.107	20.57
703.291	19.93
703.475	19.99
703.659	20.8
703.843	21.59
704.027	21.88
704.212	21.62
704.396	21.16
704.58	20.92
704.764	20.91
704.948	20.29
705.132	20.12
705.316	20.22
705.5	20.93
705.684	20.59
705.868	20.22
706.052	20.19
706.235	20.93
706.419	21.34
706.603	21.9
706.787	22.23
706.971	22.39
707.155	21.61
707.339	21.07
707.522	20.69
707.706	20.84
707.89	20.39
708.074	20.18
708.257	19.65
708.441	20.34
708.625	20.23
708.808	20.11
708.992	19.83
709.176	20.07
709.359	19.94
709.543	20.05
709.727	19.69
709.91	20.25
710.094	20.29
710.277	20.14
710.461	18.97
710.644	19.2
710.828	19.95
711.011	20.79
711.195	21.2
711.378	21.54
711.562	21.66
711.745	21.84
711.928	22.18
712.112	22.36
712.295	22.9
712.478	23.14
712.662	22.41
712.845	21.75
713.028	21.65
713.212	22.12
713.395	21.71
713.578	21.72
713.761	21.82
713.945	21.68
714.128	21.69
714.311	21.55
714.494	22.25
714.677	23.14
714.86	23.24
715.043	23.47
715.227	22.92
715.41	23.46
715.593	23.19
715.776	23.36
715.959	23.34
716.142	22.96
716.325	22.8
716.508	22.62
716.691	22.13
716.874	22.76
717.057	22.26
717.239	23.24
717.422	23.19
717.605	23.29
717.788	22.99
717.971	22.51
718.154	22.22
718.337	22.7
718.519	22.31
718.702	21.79
718.885	21.55
719.068	22.14
719.25	21.44
719.433	21.34
719.616	21.11
719.798	20.88
719.981	20.5
720.164	20.45
720.346	19.81
720.529	20.55
720.712	21.75
720.894	21.13
721.077	20.69
721.259	20.47
721.442	20.9
721.624	22.31
721.807	22.9
721.989	23.52
722.172	23.69
722.354	23.44
722.537	22.04
722.719	21.89
722.901	21.72
723.084	21.05
723.266	20.66
723.448	19.77
723.631	18.14
723.813	17.82
723.995	18.22
724.178	18.83
724.36	19.47
724.542	20.78
724.724	20.22
724.907	21.06
725.089	23.22
725.271	23.55
725.453	23.64
725.635	24.02
725.817	23.91
725.999	23.67
726.181	23.77
726.364	23.61
726.546	22.6
726.728	23
726.91	22.94
727.092	21.24
727.274	22.41
727.456	22.46
727.638	22.93
727.819	22.91
728.001	23.06
728.183	23.05
728.365	22.31
728.547	22.96
728.729	22.63
728.911	21.75
729.093	22.29
729.274	20.94
729.456	21.35
729.638	21.25
729.82	22.37
730.001	22.5
730.183	22.27
730.365	22.81
730.546	22.38
730.728	23.09
730.91	23.77
731.091	23.69
731.273	24
731.455	23.83
731.636	23.87
731.818	22.65
731.999	22.09
732.181	21.93
732.362	22.19
732.544	23.34
732.725	22.53
732.907	22.44
733.088	21.67
733.27	22.41
733.451	22.14
733.633	21.56
733.814	21.35
733.995	21.97
734.177	21.81
734.358	21.46
734.539	20
734.721	20.06
734.902	20.7
735.083	21.25
735.264	22.09
735.446	23.18
735.627	23.61
735.808	23.83
735.989	23.65
736.17	24.22
736.351	25.3
736.533	27.33
736.714	27.48
736.895	26.53
737.076	26.97
737.257	25.61
737.438	24.76
737.619	25.69
737.8	25.75
737.981	26.59
738.162	26.2
738.343	25.36
738.524	24.77
738.705	25.03
738.886	25.61
739.067	25.16
739.247	25.17
739.428	24.99
739.609	22.97
739.79	22.58
739.971	21.84
740.151	22.77
740.332	21.84
740.513	19.96
740.694	19.39
740.874	18.42
741.055	17.86
741.236	18.23
741.417	18.67
741.597	18.97
741.778	19.31
741.958	18.4
742.139	18.68
742.32	19.75
742.5	21.46
742.681	23.02
742.861	23.07
743.042	22.36
743.222	22.19
743.403	21.47
743.583	22.5
743.764	22.58
743.944	22.94
744.124	21.93
744.305	22.41
744.485	22.47
744.666	20.16
744.846	19.73
745.026	21.29
745.207	20.3
745.387	20.63
745.567	20.79
745.747	21.25
745.928	22.33
746.108	22.1
746.288	21.53
746.468	20.82
746.648	22.61
746.829	23.06
747.009	22.7
747.189	23.11
747.369	23.61
747.549	22.91
747.729	22.73
747.909	22.71
748.089	22.26
748.269	22.43
748.449	22.61
748.629	22.24
748.809	22.76
748.989	21.91
749.169	22.17
749.349	21.5
749.529	21.83
749.709	22.05
749.889	20.87
750.068	22.26
750.248	23.65
750.428	24.21
750.608	24.6
750.788	24.41
750.967	25.68
751.147	25.65
751.327	25.02
751.507	25.66
751.686	24.82
751.866	24.85
752.046	25.48
752.225	24.09
752.405	23.34
752.585	22.67
752.764	22.84
752.944	21.82
753.123	23.07
753.303	23.51
753.482	23.33
753.662	23.58
753.841	25.17
754.021	24.16
754.2	23.78
754.38	23.68
754.559	23.4
754.739	23.08
754.918	23.11
755.097	21.49
755.277	22.31
755.456	21.06
755.635	20.32
755.815	19.94
755.994	18.94
756.173	18.96
756.352	18.7
756.532	18.28
756.711	18.47
756.89	19.94
757.069	20.58
757.248	20.51
757.427	21.75
757.607	23.51
757.786	23.17
757.965	23.9
758.144	24.27
758.323	24.57
758.502	24.97
758.681	26.22
758.86	25.88
759.039	26.22
759.218	26.54
759.397	26
759.576	24.93
759.755	24.68
759.934	24.58
760.113	25.2
760.291	25.34
760.47	24.97
760.649	25.46
760.828	25.48
761.007	24.02
761.186	23.89
761.364	23.04
761.543	24.46
761.722	23.14
761.901	22.85
762.079	21.93
762.258	22.88
762.437	24.02
762.615	22.63
762.794	23.31
762.972	23.85
763.151	23.76
763.33	24.83
763.508	23.77
763.687	24.76
763.865	25
764.044	25.69
764.222	24.56
764.401	23.53
764.579	24.3
764.758	24.07
764.936	23.85
765.114	23.06
765.293	22.89
765.471	23.9
765.65	24
765.828	24.92
766.006	25.05
766.184	25.81
766.363	27.09
766.541	26.61
766.719	25.2
766.898	26.42
767.076	27.71
767.254	26.75
767.432	26.09
767.61	26.01
767.788	24.88
767.967	24.01
768.145	24.49
768.323	23.19
768.501	24.86
768.679	26.44
768.857	25.78
769.035	26.28
769.213	27.09
769.391	27.71
769.569	28.04
769.747	26.82
769.925	26.28
770.103	26.03
770.281	27.38
770.459	25.36
770.636	22.91
770.814	22.4
770.992	19.67
771.17	17.58
771.348	16.64
771.525	16.73
771.703	17.35
771.881	18.17
772.059	16.03
772.236	15.7
772.414	13.71
772.592	14.01
772.769	14.04
772.947	17.14
773.125	21.11
773.302	21.82
773.48	19.94
773.657	21.83
773.835	21.12
774.013	23.72
774.19	24.48
774.368	27.54
774.545	29.71
774.723	31.04
774.9	29.36
775.077	26.48
775.255	26.4
775.432	27.68
775.61	26.27
775.787	26.4
775.964	24.22
776.142	24.24
776.319	23.15
776.496	23.7
776.674	22.93
776.851	23.21
777.028	25.29
777.205	25.6
777.382	25.76
777.56	26.64
777.737	26.2
777.914	28.45
778.091	29.03
778.268	30.9
778.445	30.8
778.622	31.8
778.8	32.09
778.977	32.05
779.154	30.98
779.331	30.1
779.508	27.38
779.685	29.62
779.862	29.8
780.038	28.4
780.215	26.89
780.392	25.45
780.569	24.51
780.746	25.29
780.923	24.3
781.1	22.23
781.277	23.82
781.453	23.89
781.63	22.92
781.807	21.73
781.984	21.02
782.16	18.51
782.337	21.18
782.514	21.42
782.691	20.26
782.867	17.98
783.044	20.81
783.221	21.47
783.397	25
783.574	26.85
783.75	26.99
783.927	27.63
784.103	28.94
784.28	26.33
784.456	28.74
784.633	29.1
784.809	31.47
784.986	32.24
785.162	31.04
785.339	29.85
785.515	28.68
785.692	28.33
785.868	30.41
786.044	32.72
786.221	33.54
786.397	29.44
786.573	29.7
786.749	28.43
786.926	27.81
787.102	28.35
787.278	29.66
787.454	30.7
787.631	30.66
787.807	29.3
787.983	29.08
788.159	26.25
788.335	27.74
788.511	27.8
788.687	28.77
788.863	29.07
789.039	28.81
789.216	26.11
789.392	26.58
789.568	28.5
789.744	28.68
789.919	27.88
790.095	29.06
790.271	30.98
790.447	31.15
790.623	32.02
790.799	31.43
790.975	31.15
791.151	32.67
791.327	31.26
791.502	28.37
791.678	28.73
791.854	28.18
792.03	30.35
792.205	29.77
792.381	29.14
792.557	29.65
792.733	32.32
792.908	32.06
793.084	32.08
793.259	31.12
793.435	33.24
793.611	33.25
793.786	31.89
793.962	33.76
794.137	33.04
794.313	32.61
794.488	29.55
794.664	23.94
794.839	25.45
795.015	28.79
795.19	28.83
795.366	28.75
795.541	27.42
795.716	30.43
795.892	27.79
796.067	27.87
796.242	28.59
796.418	30.65
796.593	33.29
796.768	32.9
796.944	31.77
797.119	32.73
797.294	30.29
797.469	26.65
797.644	25.89
797.82	26.03
797.995	25.86
798.17	26.15
798.345	24.7
798.52	22.74
798.695	20.43
798.87	15.86
799.045	16.39
799.22	18.48
799.395	21.16
799.57	19.02
799.745	21.99
799.92	21.97
800.095	21.55
800.27	22.43
800.445	25.5
800.62	28.64
800.795	33.87
800.97	35.07
801.145	35.89
801.319	36.33
801.494	41.13
801.669	36.64
801.844	36.95
802.018	37.18
802.193	38.65
802.368	37.24
802.543	34.89
802.717	33.33
802.892	32.41
803.067	31.4
803.241	33.47
803.416	34.34
803.59	37.81
803.765	36
803.94	36.21
804.114	33.42
804.289	36.13
804.463	36.3
804.638	37.58
804.812	35.58
804.986	36.52
805.161	34.94
805.335	34.97
805.51	32.92
805.684	34.74
805.858	36.56
806.033	36.98
806.207	37.1
806.381	37.02
806.556	35.66
806.73	34.88
806.904	34.03
807.078	35.04
807.253	29.63
807.427	33.22
807.601	32.25
807.775	30.96
807.949	31.7
808.123	30.23
808.298	31.78
808.472	34.44
808.646	35.98
808.82	37.35
808.994	37.42
809.168	39.35
809.342	39.33
809.516	41.57
809.69	40.58
809.864	40.84
810.038	41.34
810.212	42.35
810.385	43.66
810.559	43.49
810.733	43.69
810.907	43.12
811.081	43.42
811.255	38.17
811.428	37.01
811.602	37.18
811.776	40.22
811.95	38.37
812.123	36.63
812.297	32.26
812.471	33.32
812.644	32.27
812.818	30.47
812.992	30.92
813.165	32.48
813.339	34.63
813.512	37.03
813.686	32.37
813.86	32.8
814.033	35.1
814.207	34.91
814.38	28.96
814.554	30.34
814.727	33.6
814.9	31.4
815.074	32.06
815.247	28.47
815.421	27.96
815.594	29.83
815.767	31.64
815.941	29.26
816.114	31.36
816.287	37.23
816.46	35.4
816.634	34.14
816.807	36.81
816.98	35.9
817.153	34.3
817.327	34.35
817.5	33.99
817.673	33.86
817.846	30.39
818.019	28.26
818.192	26.53
818.365	26.46
818.538	31.36
818.711	29.18
818.884	29.22
819.057	33.39
819.23	32.72
819.403	36.04
819.576	35.46
819.749	37.1
819.922	34.06
820.095	32.14
820.268	32.05
820.441	27.44
820.614	29.58
820.786	28.95
820.959	27.26
821.132	25.62
821.305	24.38
821.477	23.96
821.65	23.66
821.823	24.13
821.996	25.77
822.168	25.25
822.341	25.6
822.514	24.43
822.686	23.81
822.859	23.69
823.031	23.59
823.204	23.41
823.376	23.76
823.549	24.56
823.722	25.25
823.894	24.4
824.067	24.71
824.239	24.78
824.411	24.91
824.584	25.39
824.756	25.39
824.929	25.53
825.101	25.3
825.273	25.57
825.446	23.81
825.618	23.31
825.79	23.65
825.963	23.43
826.135	21.84
826.307	22.74
826.479	24.12
826.652	23.76
826.824	24.47
826.996	25.04
827.168	24.66
827.34	25.57
827.512	25.05
827.684	24.77
827.856	24.7
828.029	26.47
828.201	26.06
828.373	25.41
828.545	26.92
828.717	26.56
828.889	26.31
829.061	24.29
829.232	23.03
829.404	22.37
829.576	23.82
829.748	24.28
829.92	23.68
830.092	24.02
830.264	21.97
830.436	21.63
830.607	23.61
830.779	24.82
830.951	26.63
831.123	31.84
831.294	34.34
831.466	33.78
831.638	37.15
831.809	38.03
831.981	40.68
832.153	46.07
832.324	43.47
832.496	41.5
832.667	41.52
832.839	41.8
833.011	38.72
833.182	40.4
833.354	39.35
833.525	35.83
833.697	36.15
833.868	31.91
834.039	29.9
834.211	31.65
834.382	30.11
834.554	29.63
834.725	29.38
834.896	27.1
835.068	23.08
835.239	22.39
835.41	22.12
835.581	24.53
835.753	27.42
835.924	26.7
836.095	25.86
836.266	28.94
836.438	29.1
836.609	30.91
836.78	33.3
836.951	35.76
837.122	37.17
837.293	37.87
837.464	33.92
837.635	34.38
837.806	36.1
837.977	35.07
838.148	38.83
838.319	36.78
838.49	38.18
838.661	38.14
838.832	38.33
839.003	41.54
839.174	43.15
839.345	46.45
839.516	43.79
839.687	45.24
839.857	41.76
840.028	40.73
840.199	43.57
840.37	41.86
840.54	38.97
840.711	39.76
840.882	38.93
841.053	43.57
841.223	36.92
841.394	33.68
841.564	26.4
841.735	30.53
841.906	23.92
842.076	24.34
842.247	25.82
842.417	30.28
842.588	31.6
842.758	29.81
842.929	25
843.099	30.55
843.27	41.53
843.44	49.2
843.611	50.9
843.781	54.47
843.951	50.66
844.122	48.93
844.292	48.39
844.462	45.7
844.633	48.1
844.803	51.12
844.973	50.22
845.144	53.46
845.314	58.55
845.484	65.34
845.654	69.43
845.824	72.98
845.995	72.44
846.165	62.81
846.335	64.15
846.505	69.63
846.675	56.98
846.845	50.56
847.015	54.12
847.185	41.15
847.355	41.49
847.525	39.01
847.695	34.22
847.865	43.44
848.035	49.98
848.205	52.44
848.375	48.06
848.545	55.47
848.715	60.42
848.884	50.32
849.054	56.91
849.224	57.81
849.394	50.19
849.564	58.1
849.733	54.6
849.903	55.13
850.073	55.98
850.243	51.61
850.412	51.48
850.582	51.57
850.752	48.74
850.921	45.25
851.091	41.27
851.26	55.66
851.43	51.88
851.599	44.58
851.769	44.37
851.939	38.68
852.108	56.74
852.278	59.29
852.447	57.92
852.616	66.93
852.786	72.54
852.955	84.81
853.125	75.66
853.294	67.25
853.463	74.65
853.633	67.74
853.802	70.34
853.971	60.44
854.141	63.73
854.31	72.46
854.479	67.63
854.648	64.08
854.818	56.58
854.987	57.64
855.156	55.85
855.325	52.38
855.494	64.03
855.663	69.22
855.832	57.5
856.001	44.1
856.171	35.24
856.34	39.81
856.509	42.18
856.678	41.91
856.847	37.65
857.016	42.27
857.185	52.08
857.353	47.52
857.522	38.99
857.691	52.49
857.86	56.15
858.029	61.17
858.198	62.01
858.367	66.9
858.535	68.74
858.704	66.08
858.873	70.56
859.042	62.72
859.21	68.6
859.379	69.06
859.548	67.34
859.717	69.92
859.885	70.72
860.054	66.94
860.222	61.35
860.391	55.2
860.56	50.67
860.728	44.93
860.897	47.04
861.065	33.76
861.234	38.64
861.402	40.82
861.571	39.57
861.739	40.55
861.908	54.55
862.076	62.93
862.244	54.3
862.413	66.61
862.581	69.61
862.749	78.38
862.918	86.24
863.086	80.14
863.254	82.86
863.423	79.51
863.591	78.18
863.759	57.52
863.927	56.62
864.096	71.02
864.264	62.9
864.432	66.99
864.6	58.11
864.768	61.12
864.936	58.76
865.104	54.09
865.272	62.77
865.44	61.27
865.608	58.67
865.776	52.14
865.944	56.13
866.112	65.19
866.28	63.79
866.448	68.46
866.616	72.08
866.784	77.24
866.952	72.74
867.12	70.78
867.288	74.05
867.455	76.43
867.623	87.11
867.791	82.96
867.959	72.48
868.127	78.17
868.294	84.49
868.462	88.44
868.63	79.69
868.797	82.37
868.965	87.77
869.133	82.23
869.3	80.97
869.468	78.48
869.636	79.13
869.803	77.64
869.971	68.86
870.138	62.59
870.306	56.53
870.473	54.78
870.641	56.12
870.808	49
870.975	50.19
871.143	50.22
871.31	47.03
871.478	40.64
871.645	45.62
871.812	46.04
871.98	38.07
872.147	39.35
872.314	47.78
872.482	37.96
872.649	43.1
872.816	35.87
872.983	40.42
873.15	49.35
873.318	60.1
873.485	47.94
873.652	59.76
873.819	67.94
873.986	80.1
874.153	74.17
874.32	95.04
874.487	84.23
874.654	79.69
874.821	90.56
874.988	90.15
875.155	92.47
875.322	87.8
875.489	82.09
875.656	77.06
875.823	65.06
875.99	68.13
876.157	69.83
876.324	75.66
876.49	82.88
876.657	58.43
876.824	53.03
876.991	54.95
877.157	65.46
877.324	66.35
877.491	64.64
877.658	67.87
877.824	64.7
877.991	70.62
878.157	72.7
878.324	71.28
878.491	76.59
878.657	69.88
878.824	68.58
878.99	63.96
879.157	56.59
879.323	60.26
879.49	70.89
879.656	66.49
879.823	59.53
879.989	51.68
880.156	59.1
880.322	58
880.488	61.29
880.655	52.39
880.821	49.72
880.987	52.22
881.154	51.44
881.32	44.73
881.486	45.24
881.652	45.44
881.819	44.51
881.985	42.09
882.151	41.43
882.317	43.73
882.483	44.78
882.649	46.1
882.816	43.6
882.982	43.66
883.148	39.76
883.314	37.87
883.48	36.6
883.646	37.47
883.812	37.22
883.978	37.83
884.144	35.89
884.31	33.26
884.476	32.79
884.642	33.34
884.807	33.54
884.973	36.2
885.139	39.29
885.305	38.41
885.471	36.96
885.637	37.21
885.802	39.7
885.968	42.59
886.134	45.82
886.3	42.79
886.465	43.83
886.631	43
886.797	39.55
886.962	41.37
887.128	45.53
887.293	48.89
887.459	50.34
887.625	44.41
887.79	42.27
887.956	43.56
888.121	47.46
888.287	51.22
888.452	50.12
888.618	68.48
888.783	66.43
