Data from 2938033_Reflection_2.txt Node
Date: Sun Jul 12 14:56:36 EDT 2015
User: robert
Spectrometer: USB4E03001
Autoset integration time: false
Trigger mode: 4
Integration Time (sec): 1.000000E-1
Scans to average: 10
Electric dark correction enabled: true
Nonlinearity correction enabled: false
Boxcar width: 5
Stray light correction enabled: false
XAxis mode: Wavelengths
Stop averaging: false
Number of Pixels in Spectrum: 3648
>>>>>Begin Spectral Data<<<<<
177.566	-56.39
177.785	37.1
178.005	182.86
178.225	-39.4
178.445	128.99
178.665	145.76
178.885	16.31
179.105	10.65
179.324	-0.41
179.544	-985.93
179.764	180.31
179.984	-570.57
180.204	86.27
180.423	135.25
180.643	211.37
180.863	2782.86
181.083	160.52
181.302	161.77
181.522	153.66
181.742	203.34
181.961	408.43
182.181	89.42
182.401	17.9
182.621	20.67
182.84	6.87
183.06	17.19
183.279	-22.06
183.499	-66.97
183.719	-31.34
183.938	-14.28
184.158	2.54
184.377	23.2
184.597	17.02
184.816	-12.4
185.036	-9.1
185.256	-1.03
185.475	26.34
185.695	47.43
185.914	63.93
186.134	38.31
186.353	11.48
186.572	21.61
186.792	25.65
187.011	36.71
187.231	41.39
187.45	41.9
187.67	32.8
187.889	-74.06
188.108	-18.79
188.328	-10.07
188.547	16.16
188.766	44.91
188.986	91.29
189.205	132.55
189.424	272.99
189.644	184.33
189.863	1453.58
190.082	762.84
190.302	343.41
190.521	375.05
190.74	1288.47
190.959	841.37
191.178	635.12
191.398	-500.44
191.617	1941.56
191.836	1834.57
192.055	-552.19
192.274	223.73
192.494	79.18
192.713	64.14
192.932	74.81
193.151	43.48
193.37	52.31
193.589	24.9
193.808	26.3
194.027	25.96
194.246	69.77
194.465	62.83
194.685	64.44
194.904	79.05
195.123	65.24
195.342	94.42
195.561	178.56
195.78	126.57
195.999	117.75
196.218	69.85
196.436	97.74
196.655	60.14
196.874	19.23
197.093	-44.02
197.312	-163.2
197.531	-102.65
197.75	-133.26
197.969	-85.51
198.188	-96.96
198.407	-93.64
198.625	-33.58
198.844	-2.57
199.063	-19.03
199.282	6.21
199.501	7.87
199.719	4.69
199.938	12.34
200.157	50.2
200.376	24.53
200.594	24.92
200.813	43.12
201.032	30.49
201.251	12.52
201.469	-1.36
201.688	26.49
201.907	9.29
202.125	-12
202.344	-15.46
202.563	-73.46
202.781	-121.78
203	-102.52
203.218	-125.3
203.437	6260.47
203.656	-32.16
203.874	-31.8
204.093	-40.73
204.311	-12.54
204.53	6.56
204.748	-13.4
204.967	11.3
205.185	38.88
205.404	42.72
205.622	-34.61
205.841	-15.88
206.059	-127.34
206.278	-25.68
206.496	13.85
206.715	41.97
206.933	37.54
207.151	23.47
207.37	2.92
207.588	12.49
207.806	29
208.025	40.55
208.243	45.76
208.461	49.04
208.68	49.25
208.898	38.27
209.116	54.22
209.335	61.41
209.553	71.29
209.771	87.65
209.989	77.22
210.208	60.07
210.426	110.12
210.644	117.45
210.862	117.37
211.081	117.63
211.299	191.26
211.517	96.33
211.735	86.43
211.953	103.5
212.171	49.49
212.39	38.88
212.608	40.77
212.826	12.72
213.044	-14.75
213.262	-67.68
213.48	-173.65
213.698	-88.47
213.916	-109.61
214.134	-68.51
214.352	-71.15
214.57	-39.32
214.788	-35.86
215.006	-28.28
215.224	1.92
215.442	28.99
215.66	42.46
215.878	29.79
216.096	56.13
216.314	61.39
216.532	68.73
216.75	49.84
216.968	40.79
217.185	38.41
217.403	46.75
217.621	32.21
217.839	32.79
218.057	34.48
218.275	65.81
218.492	54.95
218.71	77.39
218.928	88.3
219.146	96.85
219.363	134.6
219.581	172.55
219.799	93.93
220.017	98.14
220.234	111.92
220.452	108.62
220.67	86.63
220.887	90.6
221.105	69.32
221.323	53.31
221.54	61.69
221.758	45.17
221.976	44.53
222.193	47.89
222.411	39.95
222.629	43.56
222.846	43.32
223.064	45.26
223.281	28.91
223.499	34.43
223.716	32.38
223.934	14.42
224.151	46.83
224.369	53.59
224.586	80.58
224.804	76.16
225.021	45.74
225.239	55.15
225.456	42.38
225.674	47.96
225.891	36.28
226.108	31.82
226.326	35.21
226.543	29.34
226.76	22.91
226.978	3.23
227.195	11.34
227.413	14.78
227.63	9.91
227.847	12.2
228.064	13.43
228.282	15.17
228.499	16
228.716	14.85
228.934	14.23
229.151	14.29
229.368	15.99
229.585	14.56
229.802	15.64
230.02	16.6
230.237	17.09
230.454	19.05
230.671	17.45
230.888	17.42
231.105	17.67
231.323	14.36
231.54	14.32
231.757	15.75
231.974	17.8
232.191	15.37
232.408	14.92
232.625	14.13
232.842	8.06
233.059	9.51
233.276	9.58
233.493	8.29
233.71	12.65
233.927	12.67
234.144	11.26
234.361	10.69
234.578	10.89
234.795	5.58
235.012	0.91
235.229	2.43
235.446	5.46
235.663	1.31
235.879	3.68
236.096	8.27
236.313	9.55
236.53	8
236.747	6.43
236.964	4.76
237.181	14.04
237.397	19.88
237.614	21.16
237.831	20.82
238.048	24.79
238.264	24.07
238.481	19.23
238.698	18.14
238.915	19.84
239.131	19.18
239.348	20.76
239.565	14.62
239.781	11.84
239.998	9.02
240.215	8.36
240.431	6.53
240.648	5.02
240.865	4.58
241.081	5.57
241.298	7.65
241.514	7.19
241.731	7.07
241.947	8.3
242.164	10.99
242.38	11.42
242.597	11.21
242.814	12.2
243.03	13.52
243.246	13.73
243.463	13.13
243.679	12.83
243.896	13.55
244.112	13.28
244.329	14.37
244.545	12.76
244.762	13.33
244.978	12.69
245.194	11.47
245.411	10.21
245.627	10.06
245.843	10.42
246.06	9.65
246.276	9.97
246.492	9.78
246.709	7.91
246.925	7.71
247.141	7.91
247.357	7.91
247.574	7.95
247.79	8.17
248.006	8.89
248.222	8.59
248.439	8.37
248.655	7.7
248.871	7.92
249.087	9.12
249.303	9.33
249.519	8.23
249.736	8.64
249.952	8.15
250.168	7.11
250.384	5.37
250.6	6.56
250.816	8.11
251.032	9.06
251.248	9.32
251.464	9.45
251.68	8.01
251.896	7.5
252.112	7.01
252.328	7.06
252.544	7.87
252.76	7.24
252.976	5.95
253.192	4.29
253.408	2.28
253.624	1.8
253.84	-1.3
254.056	-1.7
254.272	0.25
254.487	4.12
254.703	4.57
254.919	2.57
255.135	5.34
255.351	6.62
255.567	5.29
255.782	7.63
255.998	9.78
256.214	10.81
256.43	12.08
256.646	10.14
256.861	5.48
257.077	5.99
257.293	7.05
257.508	6.37
257.724	5.54
257.94	6.42
258.155	6.85
258.371	5.62
258.587	5.96
258.802	5.63
259.018	7.77
259.234	8.01
259.449	7.7
259.665	8.19
259.88	8.24
260.096	8.37
260.312	8.68
260.527	9.42
260.743	9.74
260.958	9.59
261.174	9.86
261.389	9.38
261.605	9.86
261.82	10.64
262.036	10.39
262.251	10.65
262.466	11.77
262.682	12.57
262.897	11.39
263.113	11.11
263.328	12.34
263.543	13.68
263.759	13.2
263.974	12.63
264.189	13.02
264.405	12.97
264.62	12.9
264.835	11.5
265.051	10.24
265.266	10.33
265.481	10.36
265.696	9.55
265.912	9.17
266.127	7.39
266.342	7.3
266.557	5.06
266.773	4.89
266.988	5.2
267.203	3.85
267.418	4.21
267.633	4.55
267.848	3.78
268.064	3.68
268.279	2.93
268.494	4.39
268.709	4.27
268.924	4.45
269.139	3.32
269.354	3.78
269.569	5.29
269.784	4.28
269.999	4.28
270.214	6.14
270.429	5.4
270.644	4.96
270.859	4.72
271.074	5.06
271.289	6.39
271.504	7.05
271.719	6.78
271.934	7.28
272.149	8.45
272.363	7.45
272.578	6.79
272.793	7.36
273.008	7.5
273.223	7.77
273.438	8.18
273.653	7.6
273.867	7.43
274.082	8.27
274.297	8.2
274.512	7.49
274.726	7.83
274.941	7.19
275.156	8.07
275.371	8.8
275.585	8.66
275.8	7.17
276.015	6.93
276.229	6.91
276.444	6.03
276.659	5.6
276.873	6.57
277.088	6.44
277.302	6.08
277.517	5.98
277.732	5.69
277.946	6.26
278.161	6.08
278.375	6.6
278.59	5.27
278.804	4.87
279.019	5.32
279.233	4.07
279.448	4.15
279.662	5.25
279.877	5.74
280.091	5.31
280.306	4.97
280.52	5.62
280.735	4.9
280.949	6.78
281.163	6.57
281.378	6.62
281.592	7.23
281.806	7.5
282.021	7.45
282.235	6.05
282.449	7.11
282.664	6.43
282.878	7.27
283.092	7.86
283.307	7.91
283.521	7.81
283.735	6.92
283.949	6.42
284.164	6.57
284.378	6.42
284.592	7.54
284.806	7.26
285.02	8.79
285.234	8.19
285.449	8.01
285.663	7.87
285.877	7.94
286.091	9.31
286.305	9.64
286.519	8.84
286.733	9.27
286.947	8.49
287.161	8.89
287.375	7.35
287.589	7.45
287.803	7.11
288.017	6.78
288.231	6.32
288.445	5.41
288.659	5.75
288.873	6.87
289.087	6.48
289.301	6.9
289.515	5.32
289.729	6.23
289.943	7.3
290.157	7.74
290.371	7.81
290.584	8.48
290.798	9.13
291.012	8.37
291.226	8.42
291.44	7.8
291.654	7.94
291.867	8.96
292.081	7.16
292.295	6.5
292.509	7.26
292.722	7.36
292.936	6.64
293.15	5.54
293.364	6.5
293.577	6.95
293.791	8.38
294.005	9.47
294.218	9.63
294.432	11.59
294.645	11.59
294.859	11.08
295.073	12.19
295.286	13.25
295.5	13.31
295.713	12.27
295.927	11.99
296.14	10.78
296.354	9.61
296.568	8.21
296.781	8.41
296.994	8.41
297.208	8.54
297.421	8.59
297.635	8.82
297.848	8.18
298.062	8.85
298.275	8.83
298.489	9.53
298.702	10.43
298.915	11.08
299.129	10.71
299.342	10.26
299.555	10.94
299.769	10.39
299.982	8.68
300.195	8.84
300.409	8.37
300.622	7.58
300.835	7.16
301.048	6.23
301.262	6.44
301.475	7.29
301.688	7.89
301.901	7.48
302.115	6.53
302.328	7.61
302.541	8.3
302.754	8.87
302.967	10.35
303.18	10.35
303.393	10.19
303.607	11.05
303.82	10.06
304.033	10.11
304.246	9.46
304.459	11.66
304.672	12.29
304.885	12.75
305.098	12.91
305.311	12.31
305.524	12.19
305.737	12.67
305.95	12.62
306.163	12.51
306.376	12.42
306.589	12.77
306.802	11.41
307.015	10.34
307.228	10.26
307.44	9.63
307.653	8.89
307.866	8.35
308.079	7.81
308.292	7.96
308.505	9.31
308.718	9.72
308.93	9.24
309.143	9.61
309.356	10.92
309.569	9.96
309.781	8.69
309.994	9.2
310.207	10.01
310.42	11
310.632	10.89
310.845	11.14
311.058	10.29
311.27	11.46
311.483	11.56
311.696	11.5
311.908	12.13
312.121	13.38
312.333	13.07
312.546	13.14
312.759	13.04
312.971	12.19
313.184	11.45
313.396	12.77
313.609	12.48
313.821	10.81
314.034	8.44
314.246	8.4
314.459	7.93
314.671	7.66
314.884	7.29
315.096	7.84
315.309	8.66
315.521	9.38
315.733	9.63
315.946	8.99
316.158	9.97
316.371	11.56
316.583	11.72
316.795	12.5
317.008	12.29
317.22	12.34
317.432	10.89
317.644	12.2
317.857	11.83
318.069	10.15
318.281	10.06
318.494	10.52
318.706	10.08
318.918	8.91
319.13	8.46
319.342	9.17
319.555	9.14
319.767	8.81
319.979	6.44
320.191	4.09
320.403	5.75
320.615	6.46
320.827	6.31
321.039	6.15
321.252	8.38
321.464	7.89
321.676	8.74
321.888	7.71
322.1	9.35
322.312	10.38
322.524	11.57
322.736	10.23
322.948	8.1
323.16	8.06
323.372	8.37
323.584	7.99
323.796	8.62
324.007	6.41
324.219	7.1
324.431	6.44
324.643	5.62
324.855	5.87
325.067	6.31
325.279	8.48
325.491	8.79
325.702	8.87
325.914	8.61
326.126	8.41
326.338	11.63
326.55	12.04
326.761	12.11
326.973	13.47
327.185	13.73
327.396	13.17
327.608	13.06
327.82	13.12
328.032	12.95
328.243	12.27
328.455	12.18
328.666	10.79
328.878	11.11
329.09	11.69
329.301	10.41
329.513	10.79
329.725	11.09
329.936	9.48
330.148	10.07
330.359	10.86
330.571	11.54
330.782	12.11
330.994	12.44
331.205	11.8
331.417	11.17
331.628	11.87
331.84	11.72
332.051	11.93
332.262	14.33
332.474	13.67
332.685	12.64
332.897	12.21
333.108	13.47
333.319	12.34
333.531	12.6
333.742	13.54
333.953	13.53
334.165	13.35
334.376	13.55
334.587	12.66
334.799	12.35
335.01	12.48
335.221	14.15
335.432	12.44
335.644	12.46
335.855	11.77
336.066	11
336.277	11.49
336.488	12.36
336.7	12.14
336.911	11.94
337.122	12.72
337.333	13.65
337.544	11.97
337.755	12.24
337.966	12.39
338.177	13.36
338.388	13.53
338.599	13.04
338.811	12.23
339.022	12.45
339.233	13.26
339.444	12.42
339.655	11.12
339.866	11.95
340.076	11.48
340.287	11.79
340.498	11.66
340.709	11.5
340.92	12
341.131	12.99
341.342	12.87
341.553	11.25
341.764	10.91
341.975	10.41
342.185	10.33
342.396	10.76
342.607	11.23
342.818	11.05
343.029	11.54
343.239	10.83
343.45	9.24
343.661	8.78
343.872	9.15
344.082	10.18
344.293	11.27
344.504	12.07
344.714	12.58
344.925	12.41
345.136	11.78
345.346	11.43
345.557	11.49
345.768	11.9
345.978	12.48
346.189	13.19
346.399	12.36
346.61	13.42
346.821	12.19
347.031	11.68
347.242	10.37
347.452	10.89
347.663	10.01
347.873	10.34
348.084	11.17
348.294	11.18
348.504	10.67
348.715	10.97
348.925	10.46
349.136	10.58
349.346	10.82
349.557	12.48
349.767	12.55
349.977	13.84
350.188	13.78
350.398	13.76
350.608	14.03
350.819	13.85
351.029	14.38
351.239	13.7
351.449	12.99
351.66	14
351.87	13.93
352.08	14.56
352.29	13.79
352.501	14.56
352.711	14.07
352.921	13.18
353.131	12.83
353.341	12.1
353.552	12.26
353.762	12.5
353.972	11.05
354.182	10.94
354.392	10.6
354.602	12.24
354.812	11.29
355.022	11.31
355.232	10.9
355.442	10.76
355.652	11.95
355.862	11.29
356.072	12.1
356.282	12.41
356.492	12.14
356.702	11.93
356.912	10.35
357.122	10.85
357.332	11.5
357.542	12.1
357.752	12.19
357.962	11.16
358.171	11.65
358.381	11.21
358.591	11.41
358.801	11.46
359.011	11.53
359.221	11.78
359.43	11.74
359.64	10.38
359.85	10.24
360.06	10.91
360.269	11.13
360.479	10.96
360.689	12.15
360.899	11.52
361.108	11.04
361.318	11.21
361.528	11.85
361.737	11.09
361.947	11.68
362.156	11.02
362.366	10.64
362.576	10.74
362.785	10.96
362.995	10.04
363.204	10.33
363.414	10.57
363.623	10.15
363.833	9.07
364.042	8.84
364.252	8.4
364.461	9.07
364.671	8.63
364.88	7.99
365.09	7.43
365.299	8
365.509	7.36
365.718	6.95
365.927	6.66
366.137	6.52
366.346	7.11
366.555	7.41
366.765	6.32
366.974	6.42
367.183	6.06
367.393	6.05
367.602	4.91
367.811	5.2
368.021	6.02
368.23	7.11
368.439	7.28
368.648	8.27
368.857	7.69
369.067	8.35
369.276	8.99
369.485	9.35
369.694	9.19
369.903	9.45
370.112	9.75
370.321	9.04
370.531	7.97
370.74	7.82
370.949	7.47
371.158	7.92
371.367	8.77
371.576	8.18
371.785	8.48
371.994	9.21
372.203	9.34
372.412	9.53
372.621	9.94
372.83	9.82
373.039	10.31
373.248	9.37
373.457	8.8
373.666	8.02
373.874	8.39
374.083	7.98
374.292	7.37
374.501	6.87
374.71	6.43
374.919	6.34
375.128	6.76
375.336	6.88
375.545	7.23
375.754	7.38
375.963	7.66
376.171	7.49
376.38	7.45
376.589	7.91
376.798	8.53
377.006	8.23
377.215	8.08
377.424	8.18
377.632	7.97
377.841	7.61
378.05	7.92
378.258	8.02
378.467	8.48
378.675	8.73
378.884	9.12
379.093	9.03
379.301	8.95
379.51	9
379.718	8.54
379.927	8.56
380.135	9.09
380.344	8.45
380.552	8.73
380.761	8.46
380.969	8.58
381.177	7.72
381.386	7.49
381.594	8.12
381.803	8.27
382.011	7.93
382.219	8.12
382.428	8.26
382.636	8.51
382.845	7.79
383.053	7.16
383.261	6.76
383.469	6.48
383.678	6.46
383.886	6.21
384.094	5.89
384.302	6.49
384.511	6.47
384.719	6
384.927	6.14
385.135	6.39
385.343	6.28
385.552	6.82
385.76	7.08
385.968	6.76
386.176	6.73
386.384	6.58
386.592	6.51
386.8	6.08
387.008	6.15
387.216	5.91
387.424	5.44
387.633	5.41
387.841	5.31
388.049	5.36
388.257	5.6
388.465	5.94
388.672	6
388.88	6.01
389.088	5.76
389.296	6.07
389.504	6.14
389.712	6.64
389.92	7.09
390.128	6.62
390.336	6.6
390.544	6.62
390.751	6.08
390.959	5.92
391.167	6.11
391.375	6.21
391.583	6.08
391.79	6.13
391.998	6.03
392.206	5.98
392.414	6.39
392.621	6.1
392.829	6.06
393.037	5.95
393.244	6.4
393.452	6.36
393.66	6.7
393.867	6.41
394.075	6.48
394.283	6.43
394.49	5.97
394.698	5.41
394.905	5.69
395.113	5.62
395.32	5.65
395.528	5.4
395.735	5.17
395.943	5.21
396.15	5.24
396.358	5.12
396.565	5.31
396.773	5.75
396.98	6.25
397.188	6.24
397.395	6.35
397.602	6.43
397.81	6.35
398.017	6.6
398.225	6.31
398.432	6.53
398.639	6.36
398.847	5.88
399.054	5.88
399.261	6.05
399.468	6.04
399.676	6.02
399.883	6.36
400.09	6.44
400.297	6.31
400.505	6.3
400.712	6.03
400.919	6.28
401.126	6.23
401.333	6
401.54	5.49
401.748	5.43
401.955	5.42
402.162	5.11
402.369	4.96
402.576	5.03
402.783	5.07
402.99	5.13
403.197	5.08
403.404	5.33
403.611	5.34
403.818	5.31
404.025	5.29
404.232	5.21
404.439	5.63
404.646	5.64
404.853	5.31
405.06	5.24
405.267	5.32
405.474	5.32
405.681	5.48
405.887	5.55
406.094	5.81
406.301	5.76
406.508	5.81
406.715	5.33
406.922	5.44
407.128	5.58
407.335	5.39
407.542	5.37
407.749	5.45
407.955	5.37
408.162	5.22
408.369	5.04
408.575	5.14
408.782	4.9
408.989	4.8
409.195	4.63
409.402	4.45
409.609	4.78
409.815	4.85
410.022	4.65
410.228	4.41
410.435	4.67
410.642	4.72
410.848	4.6
411.055	4.93
411.261	5.17
411.468	4.88
411.674	5.17
411.881	4.94
412.087	5.04
412.294	5.13
412.5	5.52
412.706	5.61
412.913	5.48
413.119	5.73
413.326	5.49
413.532	5.66
413.738	6.2
413.945	6.03
414.151	6.48
414.357	6.01
414.564	5.94
414.77	5.68
414.976	5.63
415.182	5.57
415.389	5.3
415.595	5.16
415.801	4.95
416.007	4.81
416.214	4.61
416.42	4.28
416.626	4.57
416.832	4.54
417.038	4.67
417.244	4.71
417.45	4.79
417.657	4.83
417.863	4.96
418.069	4.89
418.275	4.83
418.481	5
418.687	4.86
418.893	5.02
419.099	5.17
419.305	5.14
419.511	4.96
419.717	5.02
419.923	4.97
420.129	4.95
420.335	4.87
420.541	4.87
420.746	4.87
420.952	4.87
421.158	4.67
421.364	4.57
421.57	4.46
421.776	4.42
421.982	4.48
422.187	4.48
422.393	4.54
422.599	4.68
422.805	4.78
423.01	4.83
423.216	4.9
423.422	4.81
423.628	4.77
423.833	4.71
424.039	4.75
424.245	4.59
424.45	4.54
424.656	4.44
424.862	4.23
425.067	4.18
425.273	4.12
425.478	4.13
425.684	4.15
425.889	4
426.095	4.03
426.301	4.06
426.506	4.09
426.712	4.17
426.917	4.29
427.123	4.48
427.328	4.24
427.533	4
427.739	4.01
427.944	4.12
428.15	4.14
428.355	4.17
428.561	4.25
428.766	4.28
428.971	4.27
429.177	4.1
429.382	3.91
429.587	4.02
429.793	4.42
429.998	4.35
430.203	4.37
430.408	4.51
430.614	4.53
430.819	4.29
431.024	4.03
431.229	3.76
431.434	3.66
431.64	3.78
431.845	3.87
432.05	3.66
432.255	3.84
432.46	3.83
432.665	3.81
432.87	3.79
433.076	3.87
433.281	4.05
433.486	4.22
433.691	4.46
433.896	4.59
434.101	4.56
434.306	4.51
434.511	4.36
434.716	4.3
434.921	4.29
435.126	4.45
435.331	4.44
435.535	4.34
435.74	4.36
435.945	4.3
436.15	4.11
436.355	4.05
436.56	4.04
436.765	4.21
436.97	4.19
437.174	4.4
437.379	4.22
437.584	4.21
437.789	4.29
437.993	4.46
438.198	4.4
438.403	4.57
438.608	4.55
438.812	4.47
439.017	4.18
439.222	4.48
439.426	4.34
439.631	4.31
439.836	4.44
440.04	4.49
440.245	4.38
440.45	4.4
440.654	4.34
440.859	4.31
441.063	4.48
441.268	4.59
441.472	4.45
441.677	4.49
441.881	4.4
442.086	4.25
442.29	4.16
442.495	4.12
442.699	4.2
442.904	4.23
443.108	4.26
443.312	4.19
443.517	4.18
443.721	4.05
443.925	4.06
444.13	4.27
444.334	4.32
444.538	4.37
444.743	4.31
444.947	4.21
445.151	4.25
445.356	4.18
445.56	4.28
445.764	4.33
445.968	4.33
446.173	4.35
446.377	4.34
446.581	4.39
446.785	4.42
446.989	4.55
447.193	4.44
447.398	4.37
447.602	4.57
447.806	4.4
448.01	4.33
448.214	4.32
448.418	4.28
448.622	4.15
448.826	4.07
449.03	4.04
449.234	3.88
449.438	4.05
449.642	4.09
449.846	4.03
450.05	4.13
450.254	4.1
450.458	4.2
450.662	4.1
450.866	4.22
451.069	4.33
451.273	4.27
451.477	4.24
451.681	4.23
451.885	4.19
452.089	3.94
452.292	4.03
452.496	4.07
452.7	3.97
452.904	4.19
453.107	4.22
453.311	4.19
453.515	4.22
453.719	4.33
453.922	4.39
454.126	4.34
454.33	4.58
454.533	4.61
454.737	4.57
454.94	4.69
455.144	4.57
455.348	4.5
455.551	4.43
455.755	4.49
455.958	4.42
456.162	4.16
456.365	4.29
456.569	4.17
456.772	4.06
456.976	4.2
457.179	4.16
457.383	4.03
457.586	4
457.79	3.99
457.993	4.08
458.196	4.03
458.4	4.01
458.603	3.9
458.807	3.86
459.01	3.82
459.213	3.81
459.417	3.75
459.62	3.86
459.823	3.97
460.026	3.91
460.23	3.79
460.433	3.84
460.636	3.96
460.839	4.09
461.042	4.12
461.246	4.18
461.449	4.08
461.652	4.09
461.855	4.06
462.058	3.73
462.261	4.02
462.464	4.03
462.668	4.06
462.871	3.93
463.074	3.86
463.277	3.95
463.48	3.83
463.683	3.89
463.886	3.88
464.089	4.02
464.292	4.19
464.495	3.91
464.698	3.91
464.901	4.01
465.104	4.17
465.306	4.17
465.509	3.97
465.712	3.99
465.915	4.01
466.118	4.04
466.321	3.73
466.524	3.64
466.726	3.54
466.929	3.44
467.132	3.44
467.335	3.27
467.538	3.18
467.74	3.31
467.943	3.53
468.146	3.39
468.348	3.29
468.551	3.37
468.754	3.44
468.956	3.38
469.159	3.58
469.362	3.34
469.564	3.5
469.767	3.64
469.969	3.81
470.172	3.59
470.375	3.85
470.577	3.89
470.78	4.01
470.982	4.16
471.185	4.5
471.387	4.38
471.59	4.38
471.792	4.27
471.995	4.08
472.197	3.86
472.399	3.92
472.602	3.81
472.804	3.86
473.007	3.8
473.209	3.63
473.411	3.47
473.614	3.52
473.816	3.56
474.018	3.68
474.22	3.72
474.423	3.86
474.625	3.85
474.827	3.84
475.03	3.85
475.232	3.87
475.434	4.14
475.636	3.99
475.838	4.06
476.04	4.13
476.243	4.09
476.445	4.23
476.647	4.16
476.849	4.31
477.051	4.36
477.253	4.29
477.455	4.19
477.657	4.08
477.859	4.22
478.061	4.12
478.263	4.13
478.465	4.16
478.667	4.13
478.869	4.31
479.071	4.25
479.273	4.26
479.475	4.22
479.677	4.33
479.879	4.22
480.081	4.28
480.283	4.31
480.485	4.31
480.686	4.23
480.888	4.04
481.09	3.94
481.292	3.82
481.494	3.85
481.695	3.98
481.897	3.93
482.099	3.99
482.301	3.99
482.502	3.91
482.704	3.89
482.906	3.85
483.107	3.95
483.309	3.92
483.511	3.93
483.712	3.9
483.914	3.84
484.115	3.83
484.317	3.86
484.519	3.79
484.72	3.84
484.922	3.87
485.123	3.88
485.325	3.83
485.526	3.79
485.728	3.82
485.929	3.81
486.131	3.86
486.332	3.89
486.534	3.84
486.735	3.92
486.936	3.88
487.138	3.82
487.339	3.86
487.541	3.85
487.742	3.88
487.943	3.88
488.144	3.89
488.346	3.86
488.547	3.9
488.748	3.88
488.95	3.82
489.151	3.85
489.352	3.9
489.553	3.81
489.755	3.88
489.956	3.92
490.157	3.82
490.358	3.75
490.559	3.7
490.76	3.66
490.961	3.72
491.163	3.8
491.364	3.79
491.565	3.82
491.766	3.91
491.967	3.82
492.168	3.77
492.369	3.82
492.57	3.88
492.771	3.97
492.972	3.94
493.173	3.91
493.374	3.86
493.575	3.84
493.776	3.7
493.976	3.63
494.177	3.67
494.378	3.77
494.579	3.75
494.78	3.75
494.981	3.74
495.182	3.78
495.382	3.77
495.583	3.85
495.784	3.86
495.985	3.95
496.185	4.01
496.386	4.1
496.587	4.04
496.788	4.02
496.988	4.06
497.189	4.03
497.39	3.98
497.59	3.97
497.791	3.87
497.992	3.86
498.192	3.84
498.393	3.99
498.593	3.84
498.794	3.79
498.994	3.82
499.195	3.85
499.395	3.76
499.596	3.97
499.796	4.06
499.997	3.99
500.197	3.97
500.398	3.95
500.598	3.7
500.799	3.72
500.999	3.68
501.199	3.68
501.4	3.65
501.6	3.71
501.801	3.52
502.001	3.37
502.201	3.64
502.402	3.66
502.602	3.81
502.802	3.82
503.002	3.94
503.203	3.92
503.403	4.09
503.603	4.1
503.803	4.11
504.003	4.22
504.204	4.47
504.404	4.3
504.604	4.33
504.804	4.09
505.004	4.1
505.204	4.05
505.404	4.12
505.604	4.16
505.804	4.29
506.005	4.31
506.205	4.3
506.405	4.12
506.605	4.29
506.805	4.23
507.005	4.44
507.204	4.3
507.404	4.29
507.604	4.35
507.804	4.05
508.004	4.03
508.204	4.23
508.404	4.26
508.604	4.23
508.804	4.11
509.003	4.21
509.203	4.06
509.403	4.34
509.603	4.34
509.803	4.32
510.002	4.51
510.202	4.41
510.402	4.27
510.602	4.24
510.801	4.26
511.001	4.3
511.201	4.19
511.4	4.27
511.6	4.21
511.8	4.3
511.999	4.23
512.199	4.21
512.398	4.17
512.598	4.1
512.797	4.02
512.997	4.08
513.197	4.11
513.396	4.1
513.596	4.11
513.795	4.16
513.994	4.14
514.194	4.19
514.393	4.08
514.593	4.09
514.792	4.24
514.992	4.44
515.191	4.42
515.39	4.62
515.59	4.73
515.789	4.86
515.988	4.76
516.188	4.74
516.387	4.88
516.586	5.09
516.786	5.22
516.985	5.13
517.184	5.04
517.383	4.99
517.582	4.9
517.782	5.06
517.981	4.91
518.18	4.92
518.379	4.94
518.578	4.81
518.777	4.74
518.976	4.56
519.176	4.68
519.375	4.76
519.574	4.95
519.773	4.87
519.972	4.79
520.171	4.83
520.37	4.76
520.569	4.82
520.768	4.85
520.967	4.8
521.166	4.88
521.365	4.81
521.564	4.74
521.762	4.58
521.961	4.63
522.16	4.51
522.359	4.65
522.558	4.75
522.757	4.73
522.956	4.76
523.154	5
523.353	5.1
523.552	4.94
523.751	4.98
523.949	4.95
524.148	4.91
524.347	5.09
524.546	4.92
524.744	5.01
524.943	4.98
525.142	4.91
525.34	4.85
525.539	4.87
525.737	4.97
525.936	4.94
526.135	5.12
526.333	5.18
526.532	5.04
526.73	5.06
526.929	4.97
527.127	4.97
527.326	5.03
527.524	4.97
527.723	5
527.921	5.04
528.12	5.07
528.318	4.93
528.516	4.95
528.715	4.96
528.913	5.03
529.112	5.08
529.31	5.12
529.508	5.19
529.707	5.25
529.905	5.19
530.103	5.16
530.301	5.13
530.5	5.22
530.698	5.16
530.896	5.18
531.094	5.26
531.293	5.22
531.491	5.24
531.689	5.31
531.887	5.25
532.085	5.4
532.283	5.34
532.481	5.43
532.68	5.48
532.878	5.53
533.076	5.62
533.274	5.49
533.472	5.5
533.67	5.49
533.868	5.36
534.066	5.4
534.264	5.32
534.462	5.42
534.66	5.32
534.858	5.26
535.056	5.27
535.253	5.28
535.451	5.31
535.649	5.41
535.847	5.4
536.045	5.49
536.243	5.51
536.441	5.54
536.638	5.52
536.836	5.62
537.034	5.69
537.232	5.76
537.43	5.7
537.627	5.75
537.825	5.77
538.023	5.81
538.22	5.82
538.418	5.74
538.616	5.83
538.813	5.84
539.011	5.82
539.209	5.84
539.406	5.82
539.604	5.91
539.801	5.94
539.999	5.86
540.196	5.9
540.394	5.9
540.591	5.99
540.789	5.97
540.986	5.97
541.184	6.01
541.381	6.03
541.579	6
541.776	5.96
541.974	6.01
542.171	6.02
542.368	6.01
542.566	6.02
542.763	6.02
542.96	5.99
543.158	6.09
543.355	6.15
543.552	6.11
543.75	6.16
543.947	6.23
544.144	6.19
544.341	6.37
544.539	6.54
544.736	6.51
544.933	6.58
545.13	6.71
545.327	6.7
545.524	6.79
545.722	6.88
545.919	7
546.116	6.88
546.313	6.97
546.51	6.99
546.707	6.86
546.904	7.02
547.101	7.03
547.298	6.99
547.495	7.02
547.692	6.96
547.889	6.99
548.086	6.93
548.283	7.02
548.48	7.11
548.677	7.08
548.874	7.18
549.07	7.13
549.267	7.29
549.464	7.61
549.661	7.59
549.858	7.45
550.055	7.44
550.251	7.47
550.448	7.62
550.645	7.44
550.842	7.34
551.038	7.37
551.235	7.3
551.432	7.27
551.628	7.13
551.825	7.13
552.022	7.28
552.218	7.4
552.415	7.24
552.612	7.37
552.808	7.48
553.005	7.64
553.201	7.67
553.398	7.85
553.594	7.88
553.791	7.93
553.987	7.91
554.184	7.98
554.38	8.13
554.577	8.55
554.773	8.51
554.97	8.4
555.166	8.31
555.362	8.44
555.559	8.26
555.755	8.45
555.952	8.3
556.148	8.43
556.344	8.41
556.541	8.15
556.737	8.02
556.933	8.07
557.129	8.19
557.326	8.44
557.522	8.42
557.718	8.7
557.914	8.61
558.11	8.72
558.307	8.94
558.503	8.82
558.699	8.9
558.895	9.09
559.091	9.18
559.287	9.34
559.483	9.34
559.679	9.21
559.876	9.09
560.072	8.98
560.268	9.14
560.464	9.01
560.66	9.05
560.856	9.06
561.052	9.04
561.247	8.93
561.443	8.93
561.639	8.85
561.835	8.81
562.031	8.92
562.227	8.75
562.423	8.82
562.619	9.01
562.815	9.23
563.01	9.34
563.206	9.3
563.402	9.27
563.598	9.22
563.793	9.3
563.989	9.38
564.185	9.5
564.381	9.76
564.576	9.66
564.772	9.58
564.968	9.57
565.163	9.58
565.359	9.64
565.555	9.89
565.75	9.99
565.946	9.93
566.141	10.09
566.337	10.17
566.532	10.14
566.728	10.22
566.923	10.23
567.119	10.24
567.314	10.34
567.51	10.36
567.705	10.23
567.901	10.17
568.096	10.29
568.292	10.13
568.487	9.97
568.682	10.07
568.878	9.98
569.073	9.96
569.268	9.99
569.464	9.93
569.659	9.83
569.854	9.81
570.05	9.87
570.245	10.07
570.44	10.23
570.635	10.24
570.831	10.36
571.026	10.31
571.221	10.34
571.416	10.25
571.611	10.29
571.806	10.27
572.002	10.4
572.197	10.4
572.392	10.17
572.587	10.19
572.782	10.19
572.977	10.08
573.172	10.37
573.367	10.37
573.562	10.53
573.757	10.47
573.952	10.68
574.147	10.73
574.342	10.91
574.537	11.14
574.732	11.15
574.927	11.41
575.121	11.43
575.316	11.28
575.511	11.41
575.706	11.36
575.901	11.6
576.096	11.67
576.29	11.59
576.485	11.7
576.68	11.72
576.875	11.75
577.069	11.55
577.264	11.6
577.459	11.69
577.654	11.52
577.848	11.58
578.043	11.53
578.238	11.38
578.432	11.28
578.627	11.09
578.821	10.77
579.016	10.73
579.21	10.68
579.405	10.61
579.6	10.53
579.794	10.98
579.989	10.87
580.183	10.66
580.378	10.71
580.572	10.91
580.766	10.97
580.961	11.05
581.155	10.86
581.35	11.02
581.544	11.29
581.738	11.52
581.933	11.39
582.127	11.67
582.321	11.76
582.516	11.88
582.71	11.83
582.904	11.75
583.099	11.86
583.293	12.29
583.487	12.27
583.681	12.18
583.875	11.76
584.07	11.94
584.264	11.9
584.458	11.99
584.652	11.9
584.846	12.02
585.04	12.04
585.234	12.19
585.428	12.1
585.623	12.22
585.817	12.03
586.011	12.32
586.205	12.26
586.399	12.17
586.593	12.14
586.787	12.22
586.981	12
587.174	12.09
587.368	11.89
587.562	11.99
587.756	11.93
587.95	12.34
588.144	12.27
588.338	12.09
588.532	12.05
588.725	11.92
588.919	11.81
589.113	11.98
589.307	11.91
589.501	11.73
589.694	11.6
589.888	11.48
590.082	11.4
590.275	11.44
590.469	11.54
590.663	11.37
590.856	11.55
591.05	11.7
591.244	11.68
591.437	11.76
591.631	12.13
591.824	12.31
592.018	12.56
592.212	12.49
592.405	12.47
592.599	12.24
592.792	12.56
592.986	12.41
593.179	12.63
593.372	12.62
593.566	12.71
593.759	12.73
593.953	12.46
594.146	12.57
594.339	12.37
594.533	12.33
594.726	12.57
594.92	12.46
595.113	12.41
595.306	12.39
595.499	12.44
595.693	12.24
595.886	12.26
596.079	12.23
596.272	12.07
596.466	12.28
596.659	12.34
596.852	12.25
597.045	12.41
597.238	12.79
597.431	12.64
597.624	12.86
597.818	12.89
598.011	12.79
598.204	13.07
598.397	13.25
598.59	13.2
598.783	13.21
598.976	13.61
599.169	13.75
599.362	13.81
599.555	13.91
599.748	13.74
599.941	13.84
600.134	14.1
600.326	14.16
600.519	14.31
600.712	14.37
600.905	14.57
601.098	14.42
601.291	14.18
601.483	14.06
601.676	13.95
601.869	14.31
602.062	14.3
602.255	14.18
602.447	13.93
602.64	13.88
602.833	13.8
603.025	13.65
603.218	13.48
603.411	13.37
603.603	13.2
603.796	13.21
603.989	12.75
604.181	12.85
604.374	13.03
604.566	13.15
604.759	13.03
604.951	13.22
605.144	13.36
605.336	13.45
605.529	13.51
605.721	13.48
605.914	13.58
606.106	13.88
606.299	13.91
606.491	13.7
606.683	13.67
606.876	13.68
607.068	13.61
607.26	13.67
607.453	13.49
607.645	13.67
607.837	13.86
608.03	13.99
608.222	13.91
608.414	13.7
608.606	13.71
608.799	13.69
608.991	13.76
609.183	13.59
609.375	13.37
609.567	13.53
609.759	13.55
609.952	13.59
610.144	13.62
610.336	13.77
610.528	13.88
610.72	13.89
610.912	13.97
611.104	14
611.296	14.1
611.488	14.1
611.68	14.07
611.872	13.98
612.064	13.78
612.256	13.56
612.448	13.07
612.64	12.96
612.832	12.98
613.023	12.82
613.215	12.75
613.407	12.9
613.599	13.03
613.791	12.9
613.983	13.19
614.174	13.31
614.366	13.68
614.558	13.88
614.75	14.07
614.941	13.72
615.133	14.07
615.325	14.07
615.516	13.86
615.708	13.99
615.9	14.28
616.091	13.81
616.283	13.58
616.475	13.33
616.666	13.46
616.858	13.63
617.049	14.17
617.241	14.13
617.432	14.17
617.624	14.06
617.815	13.93
618.007	14
618.198	14.37
618.39	14.55
618.581	14.56
618.773	14.6
618.964	14.14
619.155	14.15
619.347	13.9
619.538	13.81
619.729	13.9
619.921	14.22
620.112	14.22
620.303	14.19
620.494	14.47
620.686	14.46
620.877	14.69
621.068	15.06
621.259	14.98
621.451	14.97
621.642	14.52
621.833	14.76
622.024	14.55
622.215	14.08
622.406	14.1
622.597	13.91
622.788	13.83
622.98	13.79
623.171	13.83
623.362	13.74
623.553	13.63
623.744	14.12
623.935	14.02
624.126	14.2
624.317	14.58
624.508	14.27
624.698	14.29
624.889	14.06
625.08	13.94
625.271	14.17
625.462	14.01
625.653	14.26
625.844	14.23
626.034	14.16
626.225	14.05
626.416	14.09
626.607	14.23
626.798	14.68
626.988	14.81
627.179	14.66
627.37	14.44
627.56	14.46
627.751	14.41
627.942	14.46
628.132	14.54
628.323	14.25
628.514	14.11
628.704	14.15
628.895	13.75
629.085	13.99
629.276	14.03
629.466	14.03
629.657	14.19
629.847	14.2
630.038	14.17
630.228	14.22
630.419	14.35
630.609	14.5
630.8	14.36
630.99	14.45
631.181	14.5
631.371	14.73
631.561	14.61
631.752	14.38
631.942	14.7
632.132	14.74
632.323	14.7
632.513	14.93
632.703	14.9
632.893	15.03
633.084	14.74
633.274	14.44
633.464	14.29
633.654	14.14
633.844	14.21
634.034	13.38
634.225	13.44
634.415	13.71
634.605	13.87
634.795	13.72
634.985	13.59
635.175	13.69
635.365	13.82
635.555	13.87
635.745	14.3
635.935	14.73
636.125	15.31
636.315	15.08
636.505	14.79
636.695	14.56
636.885	14.71
637.075	15.1
637.265	15.4
637.455	15.46
637.644	15.25
637.834	15.26
638.024	15.09
638.214	15.16
638.404	15.42
638.593	15.64
638.783	15.56
638.973	15.73
639.163	15.28
639.352	14.7
639.542	14.58
639.732	15.12
639.921	14.99
640.111	15.05
640.301	15.02
640.49	15.13
640.68	14.85
640.87	15.04
641.059	14.54
641.249	14.8
641.438	14.96
641.628	15.19
641.817	14.91
642.007	14.93
642.196	14.82
642.386	14.91
642.575	14.68
642.764	14.85
642.954	14.77
643.143	14.95
643.333	15.01
643.522	15.5
643.711	15.37
643.901	15.77
644.09	15.52
644.279	15.77
644.469	15.66
644.658	15.98
644.847	16.01
645.036	16.21
645.226	16.18
645.415	15.85
645.604	15.81
645.793	16.05
645.982	15.75
646.171	16.19
646.361	15.68
646.55	15.78
646.739	15.7
646.928	15.39
647.117	15.39
647.306	16.07
647.495	16.45
647.684	16.32
647.873	16.14
648.062	16.06
648.251	15.43
648.44	16.04
648.629	15.75
648.818	15.8
649.007	16.01
649.196	15.87
649.384	15.16
649.573	14.77
649.762	14.74
649.951	14.49
650.14	14.41
650.328	14.76
650.517	14.5
650.706	14.84
650.895	14.45
651.083	14.66
651.272	14.75
651.461	14.68
651.65	15.02
651.838	15.16
652.027	15.49
652.216	15.7
652.404	15.72
652.593	15.56
652.781	15.23
652.97	15.24
653.158	15.18
653.347	15.34
653.535	15.5
653.724	15.24
653.912	14.94
654.101	14.6
654.289	14.69
654.478	14.83
654.666	15.23
654.855	15.95
655.043	16.31
655.231	16.24
655.42	16.17
655.608	16.36
655.796	16.77
655.985	16.99
656.173	17.21
656.361	17.07
656.55	17.19
656.738	16.67
656.926	16.39
657.114	16.16
657.302	15.94
657.491	15.72
657.679	16.01
657.867	15.92
658.055	15.77
658.243	15.6
658.431	15.67
658.619	15.76
658.807	15.55
658.996	15.55
659.184	15.69
659.372	16.05
659.56	16.06
659.748	15.95
659.936	15.7
660.124	15.73
660.311	15.89
660.499	15.74
660.687	15.39
660.875	15.48
661.063	15.58
661.251	15.26
661.439	14.84
661.627	14.85
661.814	14.86
662.002	15.32
662.19	15.2
662.378	15.01
662.565	14.97
662.753	15.38
662.941	15.63
663.129	15.36
663.316	15.55
663.504	16.33
663.692	16.15
663.879	16.04
664.067	15.65
664.254	15.86
664.442	16.11
664.63	16.67
664.817	16.47
665.005	16.4
665.192	16.31
665.38	16.5
665.567	15.96
665.755	16.12
665.942	16.2
666.13	16.04
666.317	15.94
666.504	16.26
666.692	15.33
666.879	15.5
667.067	15.47
667.254	15.78
667.441	15.9
667.629	16.47
667.816	16.81
668.003	16.98
668.19	16.93
668.378	16.88
668.565	17.26
668.752	17.41
668.939	17.26
669.127	17.4
669.314	17.21
669.501	17.13
669.688	16.77
669.875	16.52
670.062	16.05
670.249	16.21
670.436	16.55
670.623	15.71
670.81	16.43
670.997	16.62
671.184	16.57
671.371	16.56
671.558	16.42
671.745	16.07
671.932	16.17
672.119	16.31
672.306	16.51
672.493	16.48
672.68	16.77
672.867	16.4
673.054	16.11
673.24	16.27
673.427	16.47
673.614	16.54
673.801	16.78
673.988	16.66
674.174	16.9
674.361	16.79
674.548	16.78
674.734	16.78
674.921	16.8
675.108	17.23
675.294	17.06
675.481	17.31
675.668	17.24
675.854	16.71
676.041	16.74
676.227	16.97
676.414	17.06
676.601	17.2
676.787	17.23
676.974	16.81
677.16	16.67
677.347	17.12
677.533	16.99
677.719	16.69
677.906	16.93
678.092	17.24
678.279	16.6
678.465	16.57
678.651	16.19
678.838	16.03
679.024	16.17
679.21	15.88
679.397	15.17
679.583	15.28
679.769	15.87
679.955	16.16
680.142	16.05
680.328	16.18
680.514	16.31
680.7	16.66
680.886	17.03
681.073	17.07
681.259	17.24
681.445	17.65
681.631	17.29
681.817	16.87
682.003	17.1
682.189	17.18
682.375	17.43
682.561	17.13
682.747	16.83
682.933	16.5
683.119	16.4
683.305	16.6
683.491	16.6
683.677	16.98
683.863	17.36
684.049	17.12
684.235	17.04
684.42	16.83
684.606	17.46
684.792	17.44
684.978	17.4
685.164	17.8
685.349	17.66
685.535	17.7
685.721	17.41
685.907	17.46
686.092	17.03
686.278	16.94
686.464	16.95
686.649	16.86
686.835	16.66
687.021	16.67
687.206	16.66
687.392	16.29
687.577	16.3
687.763	16.2
687.948	16
688.134	16.36
688.319	16.55
688.505	16.41
688.69	16.03
688.876	16.04
689.061	15.81
689.247	15.51
689.432	15.93
689.618	16.01
689.803	16.12
689.988	16.68
690.174	16.94
690.359	16.94
690.544	16.77
690.73	17.09
690.915	17.34
691.1	17.53
691.285	17.71
691.471	18.26
691.656	18.45
691.841	18.97
692.026	18.34
692.211	18.3
692.396	17.98
692.582	18.41
692.767	18.3
692.952	18.51
693.137	18.81
693.322	19.38
693.507	18.67
693.692	17.8
693.877	17.32
694.062	17.04
694.247	16.98
694.432	16.97
694.617	16.83
694.802	17.13
694.987	16.81
695.172	16.4
695.357	16.17
695.541	15.59
695.726	16.26
695.911	16.37
696.096	16.58
696.281	16.51
696.466	16.76
696.65	17
696.835	16.31
697.02	16.3
697.204	16.5
697.389	16.13
697.574	16.58
697.759	17.04
697.943	16.57
698.128	16.65
698.312	16.72
698.497	16.47
698.682	16.5
698.866	17.02
699.051	17.11
699.235	17.13
699.42	16.95
699.604	16.83
699.789	16.62
699.973	17.05
700.158	16.98
700.342	16.39
700.527	16.48
700.711	16.39
700.895	16
701.08	15.9
701.264	15.72
701.448	15.89
701.633	15.65
701.817	15.05
702.001	14.12
702.186	14.35
702.37	15.16
702.554	15.6
702.738	15.94
702.923	15.95
703.107	16.22
703.291	16.65
703.475	16.65
703.659	17.04
703.843	17.76
704.027	18.48
704.212	18.71
704.396	18.6
704.58	18.15
704.764	17.56
704.948	17.1
705.132	17.69
705.316	17.52
705.5	18.24
705.684	18.27
705.868	17.93
706.052	18.25
706.235	17.63
706.419	17.65
706.603	17.78
706.787	18.4
706.971	18.67
707.155	18.4
707.339	18.33
707.522	17.96
707.706	18.52
707.89	18.61
708.074	18.37
708.257	18.89
708.441	18.63
708.625	18.97
708.808	19.31
708.992	19.77
709.176	19.26
709.359	18.71
709.543	18.75
709.727	18.01
709.91	17.82
710.094	18.2
710.277	17.79
710.461	17.46
710.644	16.95
710.828	16.89
711.011	16.69
711.195	16.64
711.378	18.48
711.562	17.95
711.745	18.57
711.928	19.18
712.112	19.26
712.295	19.8
712.478	20.46
712.662	20.25
712.845	20.1
713.028	19.95
713.212	19.94
713.395	18.72
713.578	19.19
713.761	18.93
713.945	18.4
714.128	18.23
714.311	18.21
714.494	17.97
714.677	19.03
714.86	18.66
715.043	18.58
715.227	18.77
715.41	18.85
715.593	18.86
715.776	18.8
715.959	18.37
716.142	18.23
716.325	18.09
716.508	18.58
716.691	17.68
716.874	17.35
717.057	17.34
717.239	17.55
717.422	17.72
717.605	17.94
717.788	17.8
717.971	17.96
718.154	18.3
718.337	17.85
718.519	16.83
718.702	16.97
718.885	17.36
719.068	18.29
719.25	18.13
719.433	17.37
719.616	17.57
719.798	17.88
719.981	18.18
720.164	17.64
720.346	18.52
720.529	19.64
720.712	19.5
720.894	19.42
721.077	18.91
721.259	18.56
721.442	18.38
721.624	16.6
721.807	16.24
721.989	16.21
722.172	16.18
722.354	15.31
722.537	14.12
722.719	14.33
722.901	14.75
723.084	15.94
723.266	16.72
723.448	17.43
723.631	18.84
723.813	18.55
723.995	18.7
724.178	18.54
724.36	19.5
724.542	19.65
724.724	20.07
724.907	18.92
725.089	17.89
725.271	17.45
725.453	17.43
725.635	17.57
725.817	18.26
725.999	18.46
726.181	18.97
726.364	18.37
726.546	19.17
726.728	19.42
726.91	20.42
727.092	19.82
727.274	20.49
727.456	20.27
727.638	19.82
727.819	19.58
728.001	19.96
728.183	19.34
728.365	18.62
728.547	18.32
728.729	18.24
728.911	17.94
729.093	17.71
729.274	17.25
729.456	17.81
729.638	17.57
729.82	17.3
730.001	17.41
730.183	17.66
730.365	18.61
730.546	18.38
730.728	19.28
730.91	19.91
731.091	20.59
731.273	20.36
731.455	20.22
731.636	21.43
731.818	21.2
731.999	21.19
732.181	21.8
732.362	21.11
732.544	20.64
732.725	18.91
732.907	18.34
733.088	18.92
733.27	18.69
733.451	18.76
733.633	18.31
733.814	19.32
733.995	18.43
734.177	18.56
734.358	18.9
734.539	20.37
734.721	20.5
734.902	20.05
735.083	20.58
735.264	21.29
735.446	21.53
735.627	20.89
735.808	19.23
735.989	19.64
736.17	19.61
736.351	20.22
736.533	19.78
736.714	20
736.895	20.82
737.076	19.24
737.257	17.7
737.438	18.04
737.619	18.41
737.8	19.67
737.981	18.63
738.162	18.19
738.343	17.43
738.524	16.94
738.705	17.14
738.886	16.79
739.067	16.71
739.247	17.66
739.428	16.84
739.609	16.02
739.79	16.45
739.971	18.12
740.151	16.96
740.332	18.14
740.513	18.08
740.694	18.59
740.874	18.69
741.055	19.43
741.236	19.91
741.417	20.58
741.597	22.31
741.778	21.18
741.958	20.92
742.139	21.09
742.32	19.71
742.5	20.03
742.681	19.25
742.861	19.29
743.042	19.73
743.222	18.91
743.403	17.76
743.583	17.34
743.764	18.61
743.944	17.91
744.124	18.47
744.305	18.88
744.485	18.67
744.666	19.13
744.846	19.09
745.026	17.81
745.207	17.82
745.387	17.91
745.567	17.38
745.747	16.07
745.928	16.02
746.108	16.58
746.288	16.82
746.468	17.59
746.648	17.88
746.829	16.76
747.009	17.7
747.189	17.83
747.369	18.45
747.549	17.63
747.729	19.38
747.909	19.62
748.089	19.16
748.269	18.7
748.449	18.35
748.629	18.52
748.809	20.43
748.989	20.81
749.169	21.44
749.349	21.12
749.529	22.71
749.709	21.55
749.889	21.59
750.068	22.8
750.248	24.22
750.428	24.47
750.608	23.2
750.788	22.59
750.967	22.37
751.147	21.88
751.327	20.84
751.507	19.83
751.686	20.4
751.866	20.51
752.046	19.63
752.225	18.4
752.405	17.51
752.585	19.05
752.764	18.69
752.944	17.88
753.123	19.52
753.303	21.28
753.482	22.22
753.662	22.39
753.841	21.89
754.021	21.94
754.2	22.4
754.38	22.23
754.559	22
754.739	22.1
754.918	21.33
755.097	18.94
755.277	18.45
755.456	16.84
755.635	15.65
755.815	16.2
755.994	16.46
756.173	15.97
756.352	16.52
756.532	15.1
756.711	16.3
756.89	17.29
757.069	19.44
757.248	19.01
757.427	19.39
757.607	20.46
757.786	20.79
757.965	20.87
758.144	21.66
758.323	21.35
758.502	21.39
758.681	20.62
758.86	21.66
759.039	20.46
759.218	21.83
759.397	21.97
759.576	21.51
759.755	21.36
759.934	21.26
760.113	20.4
760.291	21.74
760.47	21.66
760.649	20.94
760.828	21.48
761.007	21.18
761.186	19.66
761.364	19.94
761.543	18.85
761.722	18.57
761.901	18.93
762.079	18.98
762.258	16.42
762.437	17.63
762.615	18.85
762.794	16.98
762.972	17.7
763.151	17.27
763.33	17.32
763.508	18.24
763.687	18.47
763.865	18.65
764.044	18.7
764.222	20.35
764.401	20.05
764.579	20.06
764.758	20.33
764.936	20.32
765.114	22.01
765.293	22.28
765.471	22.91
765.65	23.94
765.828	24.2
766.006	24.52
766.184	24.69
766.363	24.84
766.541	23.62
766.719	24.01
766.898	22.17
767.076	21.16
767.254	20.73
767.432	19.5
767.61	17.06
767.788	15.22
767.967	14.55
768.145	13.95
768.323	13.96
768.501	14.66
768.679	13.86
768.857	16.92
769.035	16.86
769.213	16.83
769.391	16.43
769.569	17.67
769.747	18.88
769.925	19.54
770.103	18.92
770.281	19.98
770.459	19.07
770.636	19.68
770.814	18.62
770.992	20.33
771.17	20.18
771.348	20.46
771.525	21.04
771.703	21.29
771.881	20.19
772.059	19.92
772.236	18.99
772.414	20.01
772.592	21.81
772.769	23.3
772.947	22.39
773.125	24.42
773.302	25.28
773.48	25.69
773.657	23.58
773.835	24.13
774.013	25.01
774.19	24.79
774.368	25.9
774.545	26.03
774.723	24.75
774.9	23.97
775.077	21.51
775.255	22.66
775.432	21.4
775.61	21.97
775.787	23.8
775.964	22.32
776.142	22.11
776.319	23.08
776.496	20.3
776.674	21.03
776.851	21.79
777.028	21.24
777.205	19.99
777.382	20.5
777.56	22.81
777.737	21.2
777.914	22.79
778.091	23.52
778.268	22.73
778.445	23.19
778.622	21.1
778.8	20.02
778.977	23.16
779.154	23.49
779.331	23.11
779.508	22.69
779.685	22.9
779.862	23.57
780.038	22.79
780.215	23.76
780.392	22.8
780.569	21.98
780.746	21.43
780.923	21.15
781.1	23.83
781.277	23.97
781.453	20.92
781.63	21.96
781.807	21.67
781.984	21.01
782.16	19.29
782.337	19.92
782.514	18.84
782.691	20.68
782.867	17.59
783.044	15.9
783.221	15.51
783.397	20.14
783.574	18.69
783.75	20.06
783.927	21.69
784.103	20.99
784.28	22.06
784.456	24.9
784.633	24.23
784.809	24.46
784.986	23.52
785.162	24.35
785.339	21.59
785.515	22.68
785.692	22.48
785.868	21.8
786.044	21.92
786.221	23.39
786.397	23.88
786.573	24.05
786.749	24.97
786.926	23.72
787.102	23.2
787.278	22.39
787.454	20.64
787.631	17.11
787.807	15.91
787.983	15.5
788.159	15.11
788.335	15.23
788.511	16.89
788.687	17.95
788.863	17.3
789.039	19.78
789.216	22.52
789.392	22.84
789.568	24.52
789.744	27.22
789.919	29.38
790.095	28.26
790.271	28.93
790.447	28.68
790.623	28.17
790.799	29.68
790.975	26.28
791.151	23.41
791.327	24.4
791.502	25.38
791.678	23.16
791.854	19.64
792.03	21.83
792.205	21.38
792.381	19.06
792.557	18.84
792.733	17.99
792.908	19.64
793.084	20.58
793.259	20.31
793.435	18.6
793.611	18.62
793.786	19.54
793.962	18.05
794.137	19.2
794.313	16.93
794.488	19.83
794.664	20.43
794.839	20.39
795.015	19.09
795.19	18
795.366	20.04
795.541	20.07
795.716	21.36
795.892	21.08
796.067	18.54
796.242	18.52
796.418	14.98
796.593	14.32
796.768	13.41
796.944	12.88
797.119	15.3
797.294	13.57
797.469	13.13
797.644	12.07
797.82	9.87
797.995	10.24
798.17	14.07
798.345	15.51
798.52	15.38
798.695	15.27
798.87	16.48
799.045	14.07
799.22	15.06
799.395	13.69
799.57	12.74
799.745	14.31
799.92	15.32
800.095	13.17
800.27	13.17
800.445	14.5
800.62	17.42
800.795	17.21
800.97	16.01
801.145	15.58
801.319	20
801.494	21.86
801.669	27.88
801.844	27.1
802.018	24.6
802.193	22.74
802.368	24.25
802.543	21.12
802.717	24.32
802.892	27.35
803.067	25.09
803.241	20.5
803.416	18.89
803.59	15.45
803.765	17.28
803.94	18.31
804.114	16.41
804.289	14.22
804.463	13.43
804.638	9.41
804.812	9.18
804.986	10.41
805.161	17.07
805.335	21.07
805.51	22.46
805.684	21.09
805.858	25.72
806.033	28.19
806.207	28.42
806.381	30.62
806.556	31.6
806.73	34.72
806.904	34.03
807.078	30.08
807.253	25.67
807.427	23.64
807.601	26.32
807.775	20.77
807.949	21.12
808.123	19.65
808.298	21.17
808.472	22.54
808.646	19.42
808.82	20.93
808.994	24.84
809.168	25.69
809.342	24.6
809.516	19.49
809.69	20.17
809.864	23.03
810.038	23.91
810.212	18.91
810.385	17.29
810.559	14.3
810.733	7.37
810.907	3.9
811.081	-3.94
811.255	-3.81
811.428	0.22
811.602	2.71
811.776	4.56
811.95	2.28
812.123	6.67
812.297	6.27
812.471	7.16
812.644	11.14
812.818	12.4
812.992	17.26
813.165	20.28
813.339	20.74
813.512	20.51
813.686	14.21
813.86	12.72
814.033	8.6
814.207	9.3
814.38	13.5
814.554	13.88
814.727	12.53
814.9	15.61
815.074	14.54
815.247	13.03
815.421	12.67
815.594	16.64
815.767	24.61
815.941	28.55
816.114	28.03
816.287	27.61
816.46	29.43
816.634	29.36
816.807	24.85
816.98	22.01
817.153	21.75
817.327	22.4
817.5	19.64
817.673	13.41
817.846	16.45
818.019	18.4
818.192	15.23
818.365	7.91
818.538	8.97
818.711	14.57
818.884	16.79
819.057	19.38
819.23	19.49
819.403	21.01
819.576	20.57
819.749	15.11
819.922	12.17
820.095	13.08
820.268	19.13
820.441	20.07
820.614	21.67
820.786	23.18
820.959	22.08
821.132	21.46
821.305	20.99
821.477	22.79
821.65	22.44
821.823	23.34
821.996	23.94
822.168	23.56
822.341	23.39
822.514	23.15
822.686	21.91
822.859	22.42
823.031	22.92
823.204	22.89
823.376	23.06
823.549	23.68
823.722	24.26
823.894	24.15
824.067	23.32
824.239	22.54
824.411	22.85
824.584	23.11
824.756	22.27
824.929	21.2
825.101	21.26
825.273	21.73
825.446	21.24
825.618	20.78
825.79	20.74
825.963	22.03
826.135	22.33
826.307	21.36
826.479	22.1
826.652	22.67
826.824	23.86
826.996	23.53
827.168	22
827.34	22.28
827.512	22.76
827.684	21.82
827.856	21.15
828.029	20.85
828.201	19.54
828.373	19.14
828.545	18.96
828.717	19.33
828.889	19.82
829.061	19.95
829.232	21.07
829.404	19.2
829.576	18.04
829.748	18.14
829.92	17.39
830.092	19.83
830.264	20.24
830.436	19.6
830.607	20.55
830.779	21.18
830.951	21.56
831.123	21.87
831.294	23.45
831.466	24.04
831.638	24.99
831.809	27.28
831.981	27.36
832.153	25.62
832.324	24.8
832.496	23.27
832.667	18.12
832.839	18.07
833.011	18.06
833.182	17.79
833.354	19.92
833.525	20.34
833.697	23.07
833.868	19.1
834.039	18.75
834.211	19.54
834.382	18.13
834.554	19.61
834.725	19.16
834.896	14.81
835.068	14.35
835.239	12.66
835.41	11.3
835.581	10.89
835.753	14.08
835.924	12.53
836.095	11.36
836.266	14.07
836.438	14.98
836.609	13.85
836.78	15.58
836.951	17.29
837.122	21
837.293	20.6
837.464	15.43
837.635	12.25
837.806	11.82
837.977	14.01
838.148	11.46
838.319	14.57
838.49	16.38
838.661	19.54
838.832	14.14
839.003	12.24
839.174	12.49
839.345	20.9
839.516	23.48
839.687	30.22
839.857	27.39
840.028	21.89
840.199	20.18
840.37	21.05
840.54	19.99
840.711	20.38
840.882	24.14
841.053	22.09
841.223	17.88
841.394	17.48
841.564	19.21
841.735	29.5
841.906	38.92
842.076	36.22
842.247	32.57
842.417	28.24
842.588	27.32
842.758	26.73
842.929	28.79
843.099	30.08
843.27	32.43
843.44	27.75
843.611	19.36
843.781	20.62
843.951	20.67
844.122	22.13
844.292	32.91
844.462	34.45
844.633	28.45
844.803	30.1
844.973	29.8
845.144	26.39
845.314	29.55
845.484	21.74
845.654	10.8
845.824	4.49
845.995	0.41
846.165	-11.22
846.335	-15.65
846.505	-8.94
846.675	-2.96
846.845	2.06
847.015	5.81
847.185	1.49
847.355	12.39
847.525	9.65
847.695	17.11
847.865	18.82
848.035	21.11
848.205	24.46
848.375	15.11
848.545	-2.16
848.715	-7.85
848.884	-20.01
849.054	-13.68
849.224	-14.06
849.394	-8.72
849.564	0.84
849.733	-7.34
849.903	-5.09
850.073	-7.46
850.243	0.53
850.412	29.85
850.582	18.49
850.752	28.3
850.921	21.86
851.091	22.37
851.26	32.58
851.43	25.6
851.599	22.97
851.769	6.65
851.939	15.59
852.108	18.21
852.278	3.47
852.447	12.56
852.616	14.23
852.786	14.37
852.955	12.6
853.125	11.17
853.294	19.02
853.463	23.4
853.633	27.04
853.802	23.65
853.971	25.16
854.141	27.8
854.31	32.84
854.479	27.95
854.648	29.13
854.818	24.59
854.987	9.58
855.156	-4.88
855.325	6.93
855.494	20.13
855.663	24.66
855.832	21.54
856.001	16.72
856.171	-1.37
856.34	13.76
856.509	11.45
856.678	9.31
856.847	21.14
857.016	26.81
857.185	24.21
857.353	26.02
857.522	32.72
857.691	32.84
857.86	31.96
858.029	31.15
858.198	23.48
858.367	17.48
858.535	25.35
858.704	28.44
858.873	21.11
859.042	21.12
859.21	21.85
859.379	9.24
859.548	7.59
859.717	2.33
859.885	27.9
860.054	33.84
860.222	26.42
860.391	26.63
860.56	16.13
860.728	22.63
860.897	22.9
861.065	16.98
861.234	22.67
861.402	29.03
861.571	34.91
861.739	39.5
861.908	31.1
862.076	36.71
862.244	42.13
862.413	53.2
862.581	53.21
862.749	50.54
862.918	53.75
863.086	54.43
863.254	56.18
863.423	59.4
863.591	48.88
863.759	58.22
863.927	56.87
864.096	50.24
864.264	42.91
864.432	49.92
864.6	56.03
864.768	45.44
864.936	37.19
865.104	30.47
865.272	28.25
865.44	25.93
865.608	10.24
865.776	0.57
865.944	14.06
866.112	33.02
866.28	27.91
866.448	23.84
866.616	39.51
866.784	54.56
866.952	57.93
867.12	55.57
867.288	51.41
867.455	50.69
867.623	49.89
867.791	47.18
867.959	27.4
868.127	24.59
868.294	38.43
868.462	20.74
868.63	19.21
868.797	21.6
868.965	23.67
869.133	28.4
869.3	42.5
869.468	57.02
869.636	53.51
869.803	55.27
869.971	55.89
870.138	57.68
870.306	68.46
870.473	54.03
870.641	52.94
870.808	49.68
870.975	51.22
871.143	39.52
871.31	27.93
871.478	42.85
871.645	58.6
871.812	52.97
871.98	42.59
872.147	45.17
872.314	59.93
872.482	48.77
872.649	45.14
872.816	43.62
872.983	46.1
873.15	50.62
873.318	42.78
873.485	40.46
873.652	37.56
873.819	46.06
873.986	47.73
874.153	36.47
874.32	48.74
874.487	45.29
874.654	45.52
874.821	48.34
874.988	42.48
875.155	53.55
875.322	41.21
875.489	64.02
875.656	65.9
875.823	51.94
875.99	66.08
876.157	63.68
876.324	72.5
876.49	69.76
876.657	64.05
876.824	67.97
876.991	64.64
877.157	75.32
877.324	61.02
877.491	56.23
877.658	63.31
877.824	55.58
877.991	44.21
878.157	38.99
878.324	57.39
878.491	52.81
878.657	50.57
878.824	54.91
878.99	49.95
879.157	35.5
879.323	41.42
879.49	47.46
879.656	51.12
879.823	63.77
879.989	68.71
880.156	66.95
880.322	73.01
880.488	91.43
880.655	72.01
880.821	75.23
880.987	83
881.154	74.38
881.32	67.87
881.486	58.13
881.652	47.23
881.819	44.52
881.985	38.16
882.151	40.69
882.317	34.16
882.483	34.81
882.649	35.21
882.816	34.78
882.982	33.93
883.148	30.53
883.314	26.19
883.48	29.1
883.646	24.07
883.812	25.11
883.978	24.77
884.144	23.06
884.31	23.24
884.476	20.34
884.642	18.78
884.807	17.59
884.973	17.31
885.139	18.52
885.305	17.75
885.471	21.41
885.637	19.52
885.802	19.66
885.968	21.49
886.134	21
886.3	19.48
886.465	18.58
886.631	19.35
886.797	16.64
886.962	20.95
887.128	20.6
887.293	22.78
887.459	20.75
887.625	17.27
887.79	19.86
887.956	14.17
888.121	19.08
888.287	17.03
888.452	15.82
888.618	22.91
888.783	19.57
