Data from 2938069_Reflection_1.txt Node
Date: Sat Jul 11 20:42:13 EDT 2015
User: robert
Spectrometer: USB4E03001
Autoset integration time: false
Trigger mode: 4
Integration Time (sec): 1.000000E-1
Scans to average: 10
Electric dark correction enabled: true
Nonlinearity correction enabled: false
Boxcar width: 5
Stray light correction enabled: false
XAxis mode: Wavelengths
Stop averaging: false
Number of Pixels in Spectrum: 3648
>>>>>Begin Spectral Data<<<<<
177.566	112.49
177.785	101.65
178.005	95.76
178.225	58.43
178.445	101.16
178.665	-7.43
178.885	381.71
179.105	113.84
179.324	59.26
179.544	187.76
179.764	319.26
179.984	173.06
180.204	170.48
180.423	379.13
180.643	-1471.54
180.863	-210.89
181.083	-59.86
181.302	-72.81
181.522	-62.91
181.742	-72.4
181.961	-18.28
182.181	-0.31
182.401	-14.12
182.621	-3.71
182.84	-25.43
183.06	-9.78
183.279	-89.91
183.499	-76.34
183.719	-98.71
183.938	-158.66
184.158	-45.39
184.377	-410.82
184.597	-298.59
184.816	-1095.43
185.036	425.5
185.256	598.19
185.475	280.57
185.695	791.77
185.914	345.23
186.134	-1254.19
186.353	-113.46
186.572	822.48
186.792	412.7
187.011	2057.31
187.231	-385.86
187.45	-329.71
187.67	-226.76
187.889	-96.09
188.108	-81.32
188.328	-79.17
188.547	-212.1
188.766	-700.75
188.986	-258.46
189.205	-72
189.424	-89.23
189.644	-85.33
189.863	-73.59
190.082	-92.11
190.302	-135.69
190.521	-241.37
190.74	-201.48
190.959	-246.48
191.178	-465.45
191.398	-445.5
191.617	-553.21
191.836	-1437.12
192.055	-410.35
192.274	-259.71
192.494	-352.27
192.713	-161.07
192.932	-82.3
193.151	-159.73
193.37	-142.79
193.589	-133.64
193.808	-186.8
194.027	-193.76
194.246	-233.05
194.465	-253.73
194.685	-245.63
194.904	-344.42
195.123	-870
195.342	-184.17
195.561	-244.49
195.78	-158.53
195.999	-65.75
196.218	-67.2
196.436	-156.38
196.655	-96.74
196.874	-84.94
197.093	-60.01
197.312	-17.86
197.531	-40.76
197.75	-78.68
197.969	-31.51
198.188	-30.13
198.407	-345.32
198.625	-555.64
198.844	-345.81
199.063	429.62
199.282	353.35
199.501	180.65
199.719	355.22
199.938	239.52
200.157	252.24
200.376	284.9
200.594	184.94
200.813	173.76
201.032	221.43
201.251	395.79
201.469	375.48
201.688	-77885.71
201.907	-191.97
202.125	5298.81
202.344	-188.91
202.563	-95.46
202.781	-254.96
203	-333.22
203.218	-223.01
203.437	436.67
203.656	-122.07
203.874	-24.6
204.093	-36.37
204.311	-912.27
204.53	4.17
204.748	-112.7
204.967	-116.09
205.185	-174.3
205.404	-80.48
205.622	-92.42
205.841	-182.1
206.059	-175.63
206.278	-308.31
206.496	963.7
206.715	-663.9
206.933	611.25
207.151	594.34
207.37	259.66
207.588	336.73
207.806	358.15
208.025	511.98
208.243	-224.42
208.461	-188.49
208.68	-499.71
208.898	-197.46
209.116	-111.43
209.335	-119.11
209.553	-22.59
209.771	-28.71
209.989	-51.23
210.208	-11.38
210.426	-7.31
210.644	-11.89
210.862	-23.2
211.081	-7.48
211.299	-34.15
211.517	-269.24
211.735	-120.93
211.953	-1408.01
212.171	1423.68
212.39	-434.14
212.608	-379.27
212.826	-730.94
213.044	212.45
213.262	1352.22
213.48	610.09
213.698	240.04
213.916	525.36
214.134	164.64
214.352	135.66
214.57	162.79
214.788	137.58
215.006	129.37
215.224	172.01
215.442	789.05
215.66	409.76
215.878	-631.96
216.096	-129.71
216.314	-205.35
216.532	-278.64
216.75	-40.75
216.968	-2.1
217.185	-43.91
217.403	-101.29
217.621	-222.27
217.839	-161.98
218.057	2033.33
218.275	176.84
218.492	112.54
218.71	300
218.928	318.03
219.146	852.5
219.363	243.23
219.581	-52.54
219.799	-25.43
220.017	30.82
220.234	27.18
220.452	25.65
220.67	6.3
220.887	24.68
221.105	29.77
221.323	27.93
221.54	14.82
221.758	7.75
221.976	10.18
222.193	22.58
222.411	8.48
222.629	-0.6
222.846	-6.77
223.064	3.29
223.281	-22.87
223.499	-31.72
223.716	-22.34
223.934	-46.02
224.151	-37.46
224.369	-57.93
224.586	-95.83
224.804	-67.54
225.021	-76.98
225.239	-88.17
225.456	-74.25
225.674	-70.22
225.891	-33.61
226.108	-47.37
226.326	-15.36
226.543	-9
226.76	-3.56
226.978	12.35
227.195	20.67
227.413	16.02
227.63	13.09
227.847	16.64
228.064	16.06
228.282	14.43
228.499	18.04
228.716	18.07
228.934	21.38
229.151	22.48
229.368	22.06
229.585	21.13
229.802	25.74
230.02	25.21
230.237	25.03
230.454	27.8
230.671	25.21
230.888	21.35
231.105	19.47
231.323	15.47
231.54	15.92
231.757	16.41
231.974	17.19
232.191	10.12
232.408	8.88
232.625	11.49
232.842	1.08
233.059	6.76
233.276	13.25
233.493	9.57
233.71	7.27
233.927	9.44
234.144	2.54
234.361	-4.25
234.578	-4.45
234.795	6.87
235.012	0.3
235.229	5.82
235.446	5.84
235.663	8.36
235.879	10.26
236.096	9.92
236.313	5.8
236.53	7.54
236.747	8.81
236.964	8.97
237.181	8.42
237.397	11.13
237.614	8.4
237.831	7.95
238.048	-0.99
238.264	0.2
238.481	3.64
238.698	7.27
238.915	5.76
239.131	4.91
239.348	6.57
239.565	2.02
239.781	0.59
239.998	6.64
240.215	5.54
240.431	11.35
240.648	13.58
240.865	10.8
241.081	8.04
241.298	12.3
241.514	10.77
241.731	10.09
241.947	11.48
242.164	11.09
242.38	12.49
242.597	10.44
242.814	10.98
243.03	8.82
243.246	9.6
243.463	8.77
243.679	5.34
243.896	6.85
244.112	5.79
244.329	4.16
244.545	5.61
244.762	3.53
244.978	3.58
245.194	3.15
245.411	4.4
245.627	5.69
245.843	7.08
246.06	9.75
246.276	10.62
246.492	11.81
246.709	13.13
246.925	12.45
247.141	11.72
247.357	11.54
247.574	12.33
247.79	11.74
248.006	12.1
248.222	11.55
248.439	11.36
248.655	10.46
248.871	10.3
249.087	9.22
249.303	9.45
249.519	10.46
249.736	11.59
249.952	10.75
250.168	10.99
250.384	9.17
250.6	11
250.816	10.8
251.032	12.05
251.248	9.32
251.464	8.99
251.68	7.22
251.896	6.22
252.112	5.54
252.328	3.32
252.544	3.49
252.76	4.58
252.976	3.81
253.192	2.72
253.408	4.2
253.624	2.88
253.84	1.03
254.056	2.41
254.272	4.13
254.487	6.12
254.703	5.66
254.919	7.77
255.135	8.04
255.351	8.4
255.567	9.4
255.782	3.75
255.998	8.65
256.214	9.94
256.43	7.47
256.646	5.74
256.861	4.76
257.077	5.93
257.293	5.96
257.508	6.13
257.724	4.85
257.94	4.54
258.155	5
258.371	2.48
258.587	2.62
258.802	3.76
259.018	2.82
259.234	3.18
259.449	3.74
259.665	5.02
259.88	5.16
260.096	5.69
260.312	5.67
260.527	6.77
260.743	7.71
260.958	8.57
261.174	8.95
261.389	10.35
261.605	10.91
261.82	11.32
262.036	9.58
262.251	8.62
262.466	8.38
262.682	8.54
262.897	7.18
263.113	7
263.328	6.62
263.543	6.12
263.759	4.19
263.974	5.08
264.189	5.09
264.405	8.02
264.62	8.78
264.835	9.8
265.051	12.43
265.266	11.27
265.481	9.97
265.696	10.23
265.912	12.54
266.127	13.46
266.342	11.27
266.557	9.55
266.773	7.71
266.988	9.12
267.203	9.41
267.418	7.72
267.633	8.9
267.848	9.61
268.064	8.08
268.279	5.87
268.494	5.57
268.709	5.25
268.924	6.08
269.139	6.89
269.354	5.83
269.569	5.77
269.784	7.75
269.999	9.06
270.214	8.85
270.429	11.17
270.644	10.66
270.859	10.75
271.074	11.4
271.289	11.19
271.504	10.87
271.719	10.67
271.934	10.37
272.149	8.79
272.363	6.97
272.578	7.09
272.793	5.91
273.008	6.3
273.223	5.98
273.438	6.52
273.653	6.78
273.867	6.58
274.082	6.78
274.297	6.41
274.512	6.66
274.726	8.34
274.941	8.66
275.156	8.64
275.371	8.14
275.585	8.4
275.8	6.94
276.015	8.09
276.229	8.25
276.444	8.31
276.659	7.11
276.873	7.09
277.088	4.77
277.302	5.36
277.517	3.71
277.732	2.03
277.946	1.3
278.161	1.83
278.375	2.39
278.59	0.42
278.804	0.15
279.019	0.89
279.233	-0.68
279.448	0.68
279.662	1.23
279.877	1.62
280.091	3.04
280.306	4.29
280.52	6.2
280.735	3.75
280.949	5.12
281.163	5.67
281.378	6.81
281.592	6.67
281.806	5.82
282.021	3.04
282.235	4.53
282.449	5.44
282.664	4.66
282.878	4.2
283.092	6.54
283.307	7.38
283.521	7.5
283.735	7.6
283.949	8.4
284.164	8.13
284.378	9.83
284.592	9.12
284.806	8.48
285.02	9.47
285.234	7.79
285.449	6.22
285.663	6.2
285.877	6.13
286.091	6.33
286.305	7.11
286.519	7.41
286.733	6.48
286.947	6.13
287.161	8.13
287.375	8.99
287.589	10.21
287.803	10.83
288.017	12.71
288.231	11.04
288.445	10.98
288.659	11.66
288.873	11.87
289.087	12.07
289.301	12.33
289.515	11.64
289.729	9.12
289.943	10.41
290.157	9.98
290.371	7.22
290.584	9.37
290.798	10.33
291.012	9.66
291.226	10.31
291.44	9.83
291.654	10.08
291.867	10.35
292.081	11.91
292.295	11.4
292.509	11.06
292.722	12.4
292.936	10.52
293.15	8.69
293.364	7.18
293.577	7.46
293.791	10.4
294.005	9.21
294.218	9.87
294.432	10.24
294.645	11.27
294.859	12.59
295.073	12.41
295.286	14.11
295.5	14.29
295.713	14.86
295.927	14.84
296.14	13.82
296.354	14.54
296.568	12.36
296.781	11.59
296.994	10.68
297.208	11.34
297.421	10.2
297.635	10.31
297.848	11.6
298.062	11.39
298.275	11.95
298.489	11.3
298.702	12.28
298.915	13.62
299.129	14.17
299.342	14.59
299.555	11.62
299.769	12.18
299.982	10.72
300.195	9.11
300.409	9.44
300.622	8.82
300.835	9.73
301.048	8.61
301.262	9.11
301.475	8.94
301.688	6.84
301.901	12.13
302.115	13.69
302.328	15.05
302.541	14.52
302.754	15.64
302.967	15.05
303.18	14.18
303.393	14.47
303.607	15.6
303.82	14.16
304.033	17.16
304.246	14.63
304.459	13.87
304.672	14.22
304.885	13.86
305.098	12.91
305.311	13.9
305.524	13.13
305.737	12.01
305.95	9.89
306.163	13.58
306.376	11.13
306.589	11.76
306.802	11.63
307.015	10.65
307.228	12.19
307.44	11.47
307.653	9.98
307.866	10.27
308.079	12.36
308.292	13.84
308.505	11.75
308.718	14.67
308.93	14.64
309.143	15.25
309.356	15.54
309.569	15.54
309.781	16.81
309.994	17.73
310.207	19.7
310.42	19.01
310.632	18.46
310.845	17.25
311.058	15.92
311.27	15.74
311.483	14.9
311.696	15.42
311.908	14.71
312.121	15.71
312.333	13.65
312.546	12.2
312.759	12.13
312.971	11.69
313.184	12.92
313.396	12.58
313.609	10.96
313.821	10.59
314.034	10.34
314.246	11.99
314.459	11.17
314.671	12.97
314.884	12.67
315.096	12.55
315.309	12.87
315.521	14.14
315.733	14.82
315.946	15.5
316.158	15.87
316.371	15.44
316.583	13.58
316.795	12.38
317.008	15.52
317.22	16.19
317.432	16.64
317.644	15.49
317.857	14.37
318.069	15.22
318.281	14.57
318.494	13.1
318.706	13.85
318.918	15.36
319.13	14.69
319.342	13.23
319.555	12.74
319.767	11.65
319.979	11.6
320.191	10.07
320.403	7.17
320.615	8.17
320.827	11.74
321.039	11.29
321.252	8.32
321.464	11.38
321.676	10.22
321.888	10.89
322.1	10.15
322.312	10.44
322.524	11.66
322.736	12.35
322.948	12.97
323.16	9.67
323.372	9.23
323.584	9.61
323.796	7.35
324.007	6.62
324.219	8.07
324.431	8.9
324.643	9.39
324.855	9.81
325.067	9.91
325.279	10.14
325.491	12.9
325.702	12.41
325.914	13.34
326.126	14.02
326.338	14.71
326.55	13.17
326.761	12.33
326.973	12.15
327.185	11.65
327.396	12.86
327.608	11.94
327.82	10.4
328.032	9.37
328.243	8.55
328.455	8.57
328.666	7.16
328.878	7.58
329.09	8.44
329.301	10.65
329.513	11.58
329.725	9.74
329.936	9.74
330.148	10.74
330.359	12.68
330.571	13.54
330.782	12.22
330.994	12.39
331.205	12.38
331.417	14.17
331.628	11.64
331.84	9.72
332.051	11.49
332.262	11.17
332.474	10.3
332.685	9.67
332.897	10.48
333.108	10.53
333.319	12.3
333.531	12.22
333.742	10.96
333.953	11.16
334.165	12.11
334.376	10.22
334.587	10.7
334.799	11.56
335.01	12.75
335.221	14.43
335.432	13.48
335.644	13.56
335.855	12.48
336.066	13.6
336.277	14.8
336.488	14.12
336.7	16.84
336.911	17.18
337.122	16.49
337.333	14.59
337.544	12.76
337.755	15.21
337.966	15.71
338.177	17.36
338.388	16.54
338.599	16.77
338.811	16.41
339.022	14.36
339.233	13.94
339.444	14.5
339.655	15.66
339.866	16.23
340.076	16.53
340.287	15.31
340.498	14.61
340.709	14.42
340.92	12.67
341.131	13.92
341.342	12.38
341.553	13.17
341.764	12.93
341.975	13.52
342.185	12.94
342.396	11.27
342.607	11.18
342.818	10.46
343.029	10.74
343.239	11.5
343.45	10.88
343.661	13.79
343.872	12.86
344.082	12.74
344.293	11.3
344.504	12.98
344.714	14.14
344.925	14.18
345.136	15.26
345.346	16.14
345.557	16.25
345.768	16.16
345.978	15.24
346.189	15.76
346.399	15.79
346.61	17.09
346.821	14.47
347.031	13.2
347.242	12.68
347.452	12.54
347.663	12.87
347.873	11.79
348.084	12.95
348.294	13.17
348.504	11.96
348.715	12.67
348.925	13.66
349.136	14.79
349.346	15.27
349.557	16.16
349.767	17.65
349.977	16.34
350.188	16.17
350.398	14.05
350.608	14.13
350.819	13.02
351.029	13.45
351.239	12.35
351.449	12.52
351.66	12.17
351.87	11.76
352.08	9.65
352.29	11.26
352.501	12.22
352.711	13.61
352.921	12.62
353.131	14.43
353.341	14.23
353.552	13.86
353.762	13.96
353.972	13.83
354.182	13.98
354.392	14.71
354.602	13.95
354.812	14.28
355.022	14.2
355.232	15.28
355.442	13.94
355.652	12.66
355.862	13
356.072	13.09
356.282	14.26
356.492	14.24
356.702	13
356.912	12.72
357.122	11.17
357.332	11.86
357.542	10.72
357.752	11.17
357.962	11.17
358.171	11.85
358.381	11.8
358.591	9.66
358.801	9.29
359.011	9.35
359.221	8.63
359.43	8.95
359.64	8.87
359.85	8.4
360.06	8.84
360.269	8.77
360.479	7.67
360.689	7.03
360.899	8.07
361.108	8.24
361.318	8.99
361.528	9.75
361.737	10.46
361.947	9.93
362.156	11.62
362.366	12.15
362.576	12.07
362.785	12.11
362.995	13.41
363.204	13.23
363.414	12.79
363.623	12.51
363.833	11.38
364.042	11.06
364.252	11.19
364.461	10.15
364.671	10.5
364.88	10.98
365.09	11.24
365.299	9.48
365.509	9.86
365.718	9.78
365.927	10.04
366.137	10.83
366.346	10.64
366.555	11.32
366.765	11.24
366.974	10.78
367.183	10.66
367.393	9.97
367.602	10.24
367.811	11.07
368.021	11.62
368.23	11.55
368.439	12.13
368.648	11.55
368.857	10.23
369.067	9.35
369.276	7.48
369.485	7.88
369.694	8.71
369.903	8.67
370.112	7.13
370.321	6.92
370.531	5.76
370.74	4.65
370.949	5.55
371.158	6.83
371.367	7.28
371.576	9.03
371.785	9.25
371.994	9.12
372.203	8.41
372.412	8.36
372.621	9
372.83	9.1
373.039	8.85
373.248	8.08
373.457	7.28
373.666	7.04
373.874	6.52
374.083	5.81
374.292	5.95
374.501	6.16
374.71	7.06
374.919	6.66
375.128	7.19
375.336	7.75
375.545	7.83
375.754	7.82
375.963	8.34
376.171	8.27
376.38	8.29
376.589	7.93
376.798	8.17
377.006	8.69
377.215	8.35
377.424	8.63
377.632	9.31
377.841	9.29
378.05	9.19
378.258	9.15
378.467	8.91
378.675	9.1
378.884	8.71
379.093	8.42
379.301	7.45
379.51	6.84
379.718	6.42
379.927	5.69
380.135	6.05
380.344	6.36
380.552	6.55
380.761	6.29
380.969	5.75
381.177	6.89
381.386	8
381.594	8.62
381.803	9.55
382.011	9.8
382.219	10.06
382.428	9.29
382.636	9
382.845	8.84
383.053	8.89
383.261	8.86
383.469	7.75
383.678	7.1
383.886	6.81
384.094	6.93
384.302	6.75
384.511	6.71
384.719	7.11
384.927	6.69
385.135	6.56
385.343	6.82
385.552	6.86
385.76	6.71
385.968	6.32
386.176	5.96
386.384	5.28
386.592	5.2
386.8	5.11
387.008	4.71
387.216	4.78
387.424	4.47
387.633	4.38
387.841	4.46
388.049	4.65
388.257	4.89
388.465	4.88
388.672	5.16
388.88	4.94
389.088	4.77
389.296	4.99
389.504	5.06
389.712	5.18
389.92	5.07
390.128	5.47
390.336	5.63
390.544	5.65
390.751	6.2
390.959	5.76
391.167	6.06
391.375	5.89
391.583	5.73
391.79	5.37
391.998	5.28
392.206	5.07
392.414	4.74
392.621	4.7
392.829	4.43
393.037	4.1
393.244	4.41
393.452	4.49
393.66	4.36
393.867	4.51
394.075	4.67
394.283	4.67
394.49	4.96
394.698	4.65
394.905	4.54
395.113	4.59
395.32	4.26
395.528	4
395.735	3.51
395.943	3.57
396.15	3.82
396.358	4.1
396.565	4
396.773	3.56
396.98	3.9
397.188	3.69
397.395	4.16
397.602	4.33
397.81	4.56
398.017	4.49
398.225	4.8
398.432	4.51
398.639	4.35
398.847	4.25
399.054	4.69
399.261	4.35
399.468	4.62
399.676	4.46
399.883	4.48
400.09	4.22
400.297	4.27
400.505	4
400.712	3.97
400.919	3.87
401.126	3.8
401.333	3.44
401.54	3.54
401.748	3.42
401.955	2.8
402.162	2.5
402.369	2.38
402.576	2.34
402.783	2.55
402.99	2.46
403.197	2.69
403.404	2.84
403.611	2.83
403.818	2.74
404.025	2.73
404.232	3.13
404.439	3.17
404.646	3.54
404.853	3.69
405.06	3.65
405.267	3.75
405.474	3.74
405.681	3.63
405.887	4.02
406.094	4.41
406.301	4.41
406.508	4.26
406.715	4.27
406.922	4.1
407.128	4.28
407.335	4.29
407.542	4.27
407.749	4.31
407.955	4.35
408.162	3.75
408.369	3.6
408.575	3.63
408.782	3.68
408.989	4.07
409.195	4.01
409.402	3.86
409.609	3.82
409.815	3.96
410.022	3.96
410.228	4.03
410.435	4.54
410.642	4.3
410.848	4.2
411.055	4.04
411.261	3.92
411.468	4.41
411.674	4.57
411.881	4.66
412.087	4.36
412.294	4.05
412.5	4.2
412.706	3.83
412.913	3.96
413.119	3.93
413.326	4.09
413.532	4
413.738	3.38
413.945	3.11
414.151	2.68
414.357	2.96
414.564	3.27
414.77	3.05
414.976	3.27
415.182	3.37
415.389	3.48
415.595	3.57
415.801	3.44
416.007	3.59
416.214	3.57
416.42	4
416.626	4.05
416.832	4.12
417.038	4.21
417.244	4.16
417.45	4.13
417.657	3.87
417.863	3.74
418.069	3.82
418.275	3.95
418.481	3.96
418.687	3.9
418.893	3.65
419.099	3.45
419.305	3.49
419.511	3.36
419.717	3.37
419.923	3.65
420.129	3.77
420.335	3.93
420.541	3.91
420.746	4.02
420.952	4.06
421.158	4.15
421.364	4.23
421.57	4.09
421.776	4.24
421.982	4.34
422.187	4.26
422.393	4.18
422.599	4.12
422.805	3.97
423.01	3.85
423.216	3.82
423.422	3.79
423.628	3.83
423.833	4
424.039	3.9
424.245	3.68
424.45	3.61
424.656	3.55
424.862	3.48
425.067	3.49
425.273	3.48
425.478	3.44
425.684	3.32
425.889	3.23
426.095	3.04
426.301	2.95
426.506	2.95
426.712	3.04
426.917	3.11
427.123	3.01
427.328	2.93
427.533	2.81
427.739	2.74
427.944	2.95
428.15	2.72
428.355	2.84
428.561	2.99
428.766	2.87
428.971	2.78
429.177	2.81
429.382	3.03
429.587	3.19
429.793	3.56
429.998	3.43
430.203	3.24
430.408	3.35
430.614	3.34
430.819	3.39
431.024	3.76
431.229	3.77
431.434	3.61
431.64	3.42
431.845	3.36
432.05	2.89
432.255	2.81
432.46	2.94
432.665	2.77
432.87	2.85
433.076	2.84
433.281	2.61
433.486	2.64
433.691	2.81
433.896	2.72
434.101	2.67
434.306	2.87
434.511	2.85
434.716	2.78
434.921	2.94
435.126	2.76
435.331	2.79
435.535	2.71
435.74	2.57
435.945	2.42
436.15	2.57
436.355	2.59
436.56	2.53
436.765	2.56
436.97	2.71
437.174	2.7
437.379	2.9
437.584	2.94
437.789	3.16
437.993	3.32
438.198	3.41
438.403	3.39
438.608	3.34
438.812	3.34
439.017	3.46
439.222	3.34
439.426	3.36
439.631	3.22
439.836	3.17
440.04	3.08
440.245	2.9
440.45	2.83
440.654	2.78
440.859	2.9
441.063	3.01
441.268	3.04
441.472	2.88
441.677	2.94
441.881	2.88
442.086	2.92
442.29	2.86
442.495	2.97
442.699	2.94
442.904	2.89
443.108	2.87
443.312	2.92
443.517	2.87
443.721	3.1
443.925	3.09
444.13	3.09
444.334	3.02
444.538	3.1
444.743	3.18
444.947	3.21
445.151	3.39
445.356	3.39
445.56	3.26
445.764	3.06
445.968	3.09
446.173	3.01
446.377	3.04
446.581	3.03
446.785	3.02
446.989	3.02
447.193	2.9
447.398	2.75
447.602	2.62
447.806	2.61
448.01	2.84
448.214	2.78
448.418	2.85
448.622	2.76
448.826	2.78
449.03	2.74
449.234	2.66
449.438	2.91
449.642	2.97
449.846	3.31
450.05	3.39
450.254	3.44
450.458	3.31
450.662	3.29
450.866	3.3
451.069	3.24
451.273	3.39
451.477	3.41
451.681	3.39
451.885	3.54
452.089	3.46
452.292	3.35
452.496	3.14
452.7	3.18
452.904	3.22
453.107	3.36
453.311	3.41
453.515	3.27
453.719	3.36
453.922	3.24
454.126	3.02
454.33	3.05
454.533	2.96
454.737	3.09
454.94	3.28
455.144	3.17
455.348	3.23
455.551	2.92
455.755	3.04
455.958	2.77
456.162	2.66
456.365	2.52
456.569	2.3
456.772	2.51
456.976	2.42
457.179	2.28
457.383	2.31
457.586	2.3
457.79	2.51
457.993	2.45
458.196	2.58
458.4	2.77
458.603	3.15
458.807	3.18
459.01	3.11
459.213	3.11
459.417	3.12
459.62	3.13
459.823	3.01
460.026	3.04
460.23	3.01
460.433	3.04
460.636	3.03
460.839	2.8
461.042	2.81
461.246	2.92
461.449	2.9
461.652	2.86
461.855	2.83
462.058	2.85
462.261	2.92
462.464	3.06
462.668	3.14
462.871	3.07
463.074	3.19
463.277	3.16
463.48	2.94
463.683	2.96
463.886	3
464.089	3.07
464.292	3.09
464.495	2.91
464.698	2.72
464.901	2.55
465.104	2.58
465.306	2.44
465.509	2.38
465.712	2.51
465.915	2.63
466.118	2.64
466.321	2.61
466.524	2.77
466.726	2.85
466.929	2.87
467.132	2.89
467.335	2.94
467.538	2.97
467.74	3.14
467.943	3
468.146	3.07
468.348	3
468.551	3.16
468.754	3.05
468.956	2.98
469.159	2.98
469.362	3.18
469.564	3.12
469.767	3.19
469.969	2.78
470.172	2.77
470.375	2.63
470.577	2.8
470.78	2.61
470.982	2.75
471.185	2.87
471.387	2.94
471.59	2.74
471.792	2.49
471.995	2.47
472.197	2.96
472.399	3
472.602	2.84
472.804	2.65
473.007	2.58
473.209	2.27
473.411	2.23
473.614	2.27
473.816	2.16
474.018	2.31
474.22	2.28
474.423	2.11
474.625	2.07
474.827	2.17
475.03	2.32
475.232	2.28
475.434	2.62
475.636	2.52
475.838	2.34
476.04	2.33
476.243	2.38
476.445	2.52
476.647	2.46
476.849	2.51
477.051	2.44
477.253	2.46
477.455	2.59
477.657	2.47
477.859	2.41
478.061	2.5
478.263	2.57
478.465	2.55
478.667	2.35
478.869	2.31
479.071	2.3
479.273	2.48
479.475	2.47
479.677	2.54
479.879	2.49
480.081	2.75
480.283	2.85
480.485	2.91
480.686	3
480.888	3.12
481.09	3.15
481.292	3.07
481.494	2.94
481.695	2.91
481.897	2.78
482.099	2.87
482.301	2.8
482.502	2.88
482.704	2.88
482.906	2.83
483.107	2.84
483.309	2.87
483.511	2.91
483.712	2.9
483.914	2.91
484.115	2.91
484.317	2.91
484.519	2.86
484.72	2.83
484.922	2.85
485.123	2.81
485.325	2.81
485.526	2.82
485.728	2.83
485.929	2.87
486.131	2.85
486.332	2.89
486.534	2.84
486.735	2.96
486.936	2.92
487.138	2.87
487.339	2.96
487.541	2.98
487.742	2.92
487.943	2.92
488.144	2.93
488.346	2.95
488.547	2.86
488.748	2.88
488.95	2.81
489.151	2.85
489.352	2.8
489.553	2.83
489.755	2.77
489.956	2.81
490.157	2.77
490.358	2.77
490.559	2.81
490.76	2.96
490.961	3.01
491.163	3.04
491.364	2.99
491.565	3.01
491.766	2.95
491.967	2.96
492.168	2.97
492.369	3
492.57	2.92
492.771	2.9
492.972	2.85
493.173	2.82
493.374	2.86
493.575	2.88
493.776	2.96
493.976	3.04
494.177	3.11
494.378	3.28
494.579	3.39
494.78	3.51
494.981	3.52
495.182	3.46
495.382	3.52
495.583	3.53
495.784	3.48
495.985	3.41
496.185	3.24
496.386	3.17
496.587	2.98
496.788	2.85
496.988	2.84
497.189	2.65
497.39	2.64
497.59	2.52
497.791	2.44
497.992	2.43
498.192	2.47
498.393	2.59
498.593	2.5
498.794	2.49
498.994	2.52
499.195	2.58
499.395	2.63
499.596	2.68
499.796	2.79
499.997	2.83
500.197	2.77
500.398	2.76
500.598	2.93
500.799	3.08
500.999	3.09
501.199	3.09
501.4	3.12
501.6	3.14
501.801	3.06
502.001	3.05
502.201	3.01
502.402	3.29
502.602	3.29
502.802	3.03
503.002	3.01
503.203	3.05
503.403	3.13
503.603	3.01
503.803	3.11
504.003	3.24
504.204	3.25
504.404	3.1
504.604	2.98
504.804	3.01
505.004	2.99
505.204	3.02
505.404	2.89
505.604	2.97
505.804	3.15
506.005	3.18
506.205	3.03
506.405	2.99
506.605	3.32
506.805	3.21
507.005	3.17
507.204	3.25
507.404	3.12
507.604	3.08
507.804	3.1
508.004	3.1
508.204	2.99
508.404	3.11
508.604	3.12
508.804	3.09
509.003	3.21
509.203	3.21
509.403	3.14
509.603	3.13
509.803	3.27
510.002	3.13
510.202	3
510.402	3.09
510.602	3.06
510.801	2.99
511.001	3.03
511.201	2.98
511.4	3.06
511.6	3.22
511.8	3.23
511.999	3.24
512.199	3.26
512.398	3.34
512.598	3.43
512.797	3.54
512.997	3.66
513.197	3.57
513.396	3.63
513.596	3.54
513.795	3.51
513.994	3.6
514.194	3.6
514.393	3.58
514.593	3.59
514.792	3.56
514.992	3.55
515.191	3.49
515.39	3.47
515.59	3.44
515.789	3.47
515.988	3.34
516.188	3.22
516.387	3.23
516.586	3.34
516.786	3.2
516.985	3.12
517.184	3.23
517.383	3.37
517.582	3.27
517.782	3.35
517.981	3.41
518.18	3.48
518.379	3.59
518.578	3.64
518.777	3.6
518.976	3.68
519.176	3.64
519.375	3.57
519.574	3.47
519.773	3.5
519.972	3.5
520.171	3.43
520.37	3.53
520.569	3.51
520.768	3.39
520.967	3.4
521.166	3.29
521.365	3.34
521.564	3.25
521.762	3.45
521.961	3.54
522.16	3.47
522.359	3.49
522.558	3.32
522.757	3.39
522.956	3.29
523.154	3.21
523.353	3.46
523.552	3.44
523.751	3.5
523.949	3.37
524.148	3.44
524.347	3.4
524.546	3.57
524.744	3.72
524.943	3.63
525.142	3.79
525.34	3.85
525.539	3.79
525.737	3.9
525.936	3.92
526.135	3.9
526.333	3.77
526.532	3.85
526.73	3.77
526.929	3.76
527.127	3.8
527.326	3.8
527.524	3.8
527.723	3.8
527.921	3.79
528.12	3.82
528.318	3.9
528.516	4.01
528.715	3.96
528.913	3.99
529.112	3.99
529.31	4
529.508	3.97
529.707	4.07
529.905	4.05
530.103	4.07
530.301	4.09
530.5	4.06
530.698	4.01
530.896	4
531.094	3.95
531.293	3.88
531.491	3.97
531.689	4.11
531.887	4.05
532.085	4.1
532.283	4.14
532.481	4.21
532.68	4.29
532.878	4.23
533.076	4.35
533.274	4.33
533.472	4.39
533.67	4.37
533.868	4.36
534.066	4.32
534.264	4.34
534.462	4.36
534.66	4.23
534.858	4.16
535.056	4.25
535.253	4.25
535.451	4.33
535.649	4.32
535.847	4.27
536.045	4.29
536.243	4.3
536.441	4.26
536.638	4.32
536.836	4.37
537.034	4.35
537.232	4.4
537.43	4.42
537.627	4.46
537.825	4.54
538.023	4.66
538.22	4.57
538.418	4.53
538.616	4.7
538.813	4.65
539.011	4.76
539.209	4.84
539.406	4.83
539.604	4.86
539.801	4.86
539.999	4.87
540.196	4.96
540.394	5.07
540.591	5.19
540.789	5.17
540.986	5.13
541.184	4.98
541.381	5
541.579	4.98
541.776	5
541.974	5.02
542.171	5.02
542.368	5.01
542.566	5.03
542.763	5.09
542.96	5.07
543.158	5.2
543.355	5.33
543.552	5.32
543.75	5.4
543.947	5.43
544.144	5.43
544.341	5.55
544.539	5.53
544.736	5.55
544.933	5.42
545.13	5.49
545.327	5.35
545.524	5.37
545.722	5.5
545.919	5.48
546.116	5.55
546.313	5.66
546.51	5.63
546.707	5.63
546.904	5.67
547.101	5.81
547.298	5.88
547.495	5.91
547.692	5.93
547.889	5.96
548.086	6.13
548.283	6.04
548.48	6.22
548.677	6.36
548.874	6.35
549.07	6.57
549.267	6.65
549.464	6.66
549.661	6.85
549.858	6.99
550.055	6.82
550.251	6.8
550.448	6.94
550.645	6.91
550.842	6.73
551.038	6.77
551.235	6.63
551.432	6.87
551.628	6.9
551.825	7.02
552.022	6.93
552.218	7.12
552.415	7.1
552.612	7.14
552.808	7.03
553.005	7.21
553.201	7.29
553.398	7.47
553.594	7.25
553.791	7.31
553.987	7.37
554.184	7.57
554.38	7.61
554.577	7.64
554.773	7.74
554.97	7.82
555.166	7.85
555.362	7.99
555.559	8.05
555.755	8.36
555.952	8.27
556.148	8.45
556.344	8.48
556.541	8.43
556.737	8.46
556.933	8.49
557.129	8.54
557.326	8.63
557.522	8.71
557.718	8.43
557.914	8.17
558.11	8.44
558.307	8.31
558.503	8.62
558.699	9
558.895	9.05
559.091	9.02
559.287	9.08
559.483	9.21
559.679	9.37
559.876	9.6
560.072	9.86
560.268	9.86
560.464	9.9
560.66	9.78
560.856	9.84
561.052	10.03
561.247	10.15
561.443	10.28
561.639	10.25
561.835	10.02
562.031	10.26
562.227	10.44
562.423	10.51
562.619	10.64
562.815	10.5
563.01	10.39
563.206	10.37
563.402	10.35
563.598	10.28
563.793	10.43
563.989	10.61
564.185	10.46
564.381	10.34
564.576	10.29
564.772	10.32
564.968	10.62
565.163	10.66
565.359	10.71
565.555	10.82
565.75	10.94
565.946	10.89
566.141	11.11
566.337	11.11
566.532	11.1
566.728	11.18
566.923	11.29
567.119	11.26
567.314	11.47
567.51	11.45
567.705	11.42
567.901	11.54
568.096	11.31
568.292	11.14
568.487	11.16
568.682	11.43
568.878	11.64
569.073	11.55
569.268	11.28
569.464	11.27
569.659	11.48
569.854	11.62
570.05	11.68
570.245	11.99
570.44	12.02
570.635	12.11
570.831	12.2
571.026	12.13
571.221	12.3
571.416	12.72
571.611	12.62
571.806	12.5
572.002	12.49
572.197	12.52
572.392	12.64
572.587	12.73
572.782	12.74
572.977	12.65
573.172	12.78
573.367	12.85
573.562	12.86
573.757	12.97
573.952	13.38
574.147	13.54
574.342	13.38
574.537	13.46
574.732	13.61
574.927	13.68
575.121	13.75
575.316	13.68
575.511	13.71
575.706	13.81
575.901	13.71
576.096	13.56
576.29	13.68
576.485	14
576.68	13.85
576.875	13.66
577.069	13.83
577.264	13.94
577.459	14.23
577.654	14.06
577.848	14.05
578.043	14.15
578.238	14.21
578.432	13.99
578.627	13.91
578.821	14.03
579.016	14.12
579.21	14.09
579.405	13.83
579.6	13.48
579.794	13.82
579.989	13.87
580.183	13.88
580.378	13.61
580.572	13.76
580.766	13.71
580.961	13.91
581.155	14.22
581.35	14.43
581.544	14.67
581.738	15.08
581.933	14.99
582.127	14.92
582.321	15.05
582.516	15.24
582.71	15.35
582.904	15.41
583.099	15.26
583.293	15.2
583.487	14.96
583.681	14.68
583.875	14.47
584.07	14.27
584.264	13.95
584.458	13.81
584.652	14.01
584.846	13.92
585.04	13.89
585.234	14.01
585.428	13.8
585.623	13.95
585.817	14.19
586.011	14.04
586.205	14.02
586.399	14.43
586.593	14.78
586.787	14.38
586.981	14.3
587.174	14.19
587.368	14.1
587.562	14.23
587.756	14.02
587.95	14.12
588.144	14.16
588.338	14.32
588.532	14.33
588.725	14.23
588.919	14.4
589.113	14.34
589.307	14.4
589.501	14.34
589.694	14.55
589.888	14.48
590.082	14.22
590.275	14.27
590.469	14.24
590.663	14.25
590.856	14.08
591.05	14.23
591.244	14.39
591.437	14.47
591.631	14.43
591.824	14.16
592.018	14.37
592.212	14.69
592.405	14.82
592.599	14.8
592.792	14.86
592.986	14.8
593.179	14.63
593.372	14.75
593.566	14.67
593.759	14.63
593.953	14.7
594.146	14.66
594.339	14.66
594.533	14.53
594.726	14.65
594.92	14.45
595.113	14.73
595.306	14.73
595.499	14.81
595.693	15.03
595.886	15.29
596.079	15.36
596.272	15.5
596.466	15.42
596.659	15.65
596.852	15.86
597.045	15.99
597.238	15.88
597.431	16.17
597.624	15.93
597.818	15.83
598.011	15.56
598.204	15.5
598.397	15.25
598.59	15.2
598.783	15.17
598.976	14.97
599.169	14.87
599.362	14.76
599.555	14.61
599.748	14.63
599.941	14.81
600.134	15.16
600.326	15.28
600.519	15.4
600.712	15.48
600.905	15.46
601.098	15.35
601.291	15.45
601.483	15.53
601.676	15.4
601.869	15.47
602.062	15.39
602.255	15.27
602.447	15.41
602.64	15.63
602.833	15.52
603.025	15.39
603.218	15.48
603.411	15.61
603.603	15.74
603.796	15.96
603.989	16.04
604.181	16.05
604.374	16.07
604.566	15.99
604.759	16.01
604.951	16.2
605.144	16.19
605.336	16.27
605.529	16.13
605.721	15.91
605.914	15.77
606.106	15.68
606.299	15.54
606.491	15.39
606.683	15.15
606.876	15.03
607.068	14.72
607.26	14.75
607.453	14.5
607.645	14.56
607.837	14.73
608.03	14.63
608.222	14.71
608.414	14.99
608.606	15.24
608.799	15.1
608.991	15.26
609.183	15.44
609.375	15.51
609.567	15.46
609.759	15.49
609.952	15.51
610.144	15.67
610.336	15.75
610.528	15.59
610.72	15.55
610.912	15.74
611.104	15.59
611.296	15.6
611.488	15.54
611.68	15.47
611.872	15.27
612.064	15.31
612.256	15.2
612.448	14.99
612.64	15.1
612.832	15.1
613.023	15.36
613.215	15.32
613.407	15.26
613.599	15.49
613.791	15.67
613.983	15.84
614.174	15.96
614.366	15.99
614.558	16.28
614.75	16.39
614.941	16.47
615.133	16.33
615.325	16.48
615.516	16.17
615.708	15.68
615.9	15.59
616.091	15.61
616.283	15.66
616.475	15.61
616.666	15.52
616.858	15.33
617.049	15.18
617.241	15.14
617.432	14.95
617.624	15.6
617.815	15.78
618.007	15.63
618.198	15.62
618.39	15.56
618.581	15.44
618.773	15.53
618.964	15.61
619.155	15.89
619.347	15.72
619.538	15.98
619.729	15.87
619.921	15.84
620.112	16.41
620.303	16.48
620.494	16.33
620.686	16.4
620.877	15.97
621.068	15.9
621.259	15.61
621.451	15.83
621.642	15.69
621.833	15.6
622.024	15.63
622.215	15.12
622.406	15.1
622.597	15.2
622.788	15.21
622.98	15.42
623.171	15.39
623.362	15.61
623.553	15.53
623.744	15.61
623.935	15.77
624.126	16.08
624.317	16.08
624.508	16.07
624.698	15.99
624.889	16.18
625.08	16.26
625.271	16.29
625.462	16.25
625.653	16.18
625.844	16.11
626.034	15.89
626.225	15.6
626.416	15.83
626.607	15.63
626.798	15.68
626.988	15.5
627.179	15.35
627.37	15.34
627.56	15.21
627.751	15.51
627.942	15.23
628.132	15.34
628.323	15.16
628.514	14.86
628.704	14.92
628.895	14.8
629.085	14.92
629.276	15.28
629.466	15.35
629.657	15.51
629.847	15.16
630.038	15.66
630.228	15.64
630.419	16.13
630.609	16.5
630.8	16.59
630.99	16.5
631.181	16.34
631.371	16.23
631.561	16.29
631.752	16.29
631.942	16.53
632.132	16.09
632.323	15.82
632.513	16.04
632.703	15.93
632.893	16.16
633.084	16.31
633.274	16.48
633.464	16.74
633.654	16.82
633.844	16.83
634.034	16.53
634.225	16.74
634.415	17.11
634.605	16.74
634.795	16.65
634.985	16.65
635.175	16.77
635.365	16.56
635.555	16.47
635.745	16.39
635.935	16.18
636.125	16.35
636.315	16.41
636.505	16.11
636.695	16.17
636.885	16.31
637.075	16.11
637.265	15.88
637.455	16.04
637.644	16
637.834	16.01
638.024	16.12
638.214	16.21
638.404	16.1
638.593	15.96
638.783	15.94
638.973	16.07
639.163	16.3
639.352	16.12
639.542	16.19
639.732	15.67
639.921	15.28
640.111	15.25
640.301	15.67
640.49	15.76
640.68	15.48
640.87	15.31
641.059	15.16
641.249	14.91
641.438	14.84
641.628	14.48
641.817	15.16
642.007	15.5
642.196	15.95
642.386	15.42
642.575	15.23
642.764	15.68
642.954	15.92
643.143	16.15
643.333	16.33
643.522	16.9
643.711	17.49
643.901	17.07
644.09	16.72
644.279	16.53
644.469	16.69
644.658	16.98
644.847	17.21
645.036	17.57
645.226	17.02
645.415	16.86
645.604	16.74
645.793	16.58
645.982	16.37
646.171	16.55
646.361	16.24
646.55	15.81
646.739	15.83
646.928	15.83
647.117	15.54
647.306	15.93
647.495	16.18
647.684	15.97
647.873	15.67
648.062	15.84
648.251	16
648.44	16.35
648.629	16.57
648.818	16.36
649.007	16.61
649.196	16.24
649.384	16.27
649.573	15.94
649.762	16.06
649.951	16.16
650.14	16.46
650.328	16.07
650.517	16.11
650.706	16.11
650.895	16.11
651.083	15.54
651.272	15.77
651.461	15.63
651.65	15.67
651.838	15.68
652.027	15.51
652.216	15.34
652.404	15.6
652.593	15.25
652.781	15.37
652.97	15.24
653.158	15.41
653.347	15.64
653.535	15.73
653.724	15.39
653.912	15.45
654.101	15.73
654.289	15.67
654.478	15.74
654.666	16.05
654.855	16.18
655.043	16.02
655.231	15.94
655.42	15.53
655.608	15.64
655.796	15.84
655.985	15.74
656.173	15.69
656.361	15.7
656.55	15.43
656.738	15.35
656.926	15.2
657.114	15.86
657.302	15.53
657.491	15.98
657.679	15.92
657.867	16.18
658.055	16.17
658.243	15.96
658.431	15.7
658.619	15.64
658.807	15.53
658.996	15.18
659.184	14.83
659.372	15.34
659.56	15.04
659.748	15.25
659.936	15.1
660.124	15.31
660.311	15.55
660.499	16
660.687	16.14
660.875	16.17
661.063	16.51
661.251	16.18
661.439	16.06
661.627	15.98
661.814	16.19
662.002	16.33
662.19	16.28
662.378	16.41
662.565	16
662.753	16.27
662.941	15.68
663.129	15.41
663.316	15.94
663.504	15.69
663.692	15.78
663.879	15.29
664.067	15.37
664.254	15.11
664.442	15.22
664.63	15.44
664.817	15.47
665.005	16.24
665.192	17.07
665.38	17.21
665.567	17.45
665.755	17.5
665.942	17.3
666.13	16.97
666.317	17.01
666.504	16.66
666.692	16.4
666.879	15.96
667.067	15.97
667.254	15.16
667.441	14.87
667.629	14.48
667.816	14.64
668.003	14.58
668.19	14.9
668.378	14.94
668.565	14.89
668.752	14.96
668.939	15.38
669.127	15.51
669.314	15.65
669.501	15.64
669.688	15.85
669.875	16.06
670.062	15.97
670.249	16.34
670.436	16.18
670.623	16.24
670.81	16.68
670.997	16.57
671.184	16.52
671.371	16.36
671.558	16.89
671.745	17.38
671.932	17.26
672.119	17.42
672.306	17.21
672.493	17.66
672.68	17.71
672.867	17.16
673.054	17.2
673.24	17.17
673.427	17.24
673.614	17.06
673.801	16.13
673.988	15.96
674.174	16.41
674.361	16.09
674.548	15.94
674.734	16.05
674.921	16.6
675.108	16.68
675.294	16.19
675.481	15.84
675.668	16.07
675.854	16.53
676.041	16.42
676.227	15.93
676.414	16.13
676.601	15.76
676.787	15.5
676.974	14.9
677.16	15.09
677.347	15.77
677.533	16.5
677.719	16.57
677.906	16.8
678.092	17.02
678.279	17.11
678.465	17.4
678.651	17.48
678.838	17.86
679.024	18.33
679.21	17.97
679.397	17.45
679.583	17.01
679.769	16.61
679.955	16.69
680.142	16.86
680.328	17.02
680.514	16.64
680.7	16.52
680.886	16.5
681.073	16.52
681.259	16.54
681.445	17.01
681.631	17.44
681.817	17.65
682.003	17.03
682.189	16.56
682.375	16.37
682.561	16.68
682.747	17.27
682.933	17.74
683.119	17.62
683.305	17.68
683.491	17.16
683.677	17.15
683.863	16.81
684.049	16.8
684.235	16.71
684.42	16.52
684.606	15.81
684.792	15.1
684.978	14.38
685.164	14.11
685.349	13.5
685.535	13.9
685.721	13.3
685.907	13.36
686.092	13.87
686.278	14.2
686.464	14.1
686.649	14.73
686.835	14.88
687.021	14.81
687.206	14.94
687.392	16.01
687.577	15.79
687.763	16.1
687.948	16.62
688.134	16.48
688.319	16.59
688.505	17.13
688.69	16.62
688.876	16.68
689.061	16.64
689.247	16.54
689.432	15.73
689.618	15.79
689.803	16.05
689.988	15.46
690.174	15.66
690.359	15.6
690.544	15.05
690.73	15.46
690.915	16.02
691.1	16.11
691.285	16.03
691.471	16.46
691.656	16.68
691.841	16.4
692.026	17.02
692.211	16.87
692.396	16.89
692.582	17.19
692.767	16.78
692.952	16.64
693.137	16.45
693.322	16.29
693.507	16.07
693.692	15.74
693.877	15.18
694.062	14.3
694.247	14.76
694.432	14.58
694.617	14.59
694.802	14.37
694.987	14.34
695.172	14.85
695.357	15.16
695.541	15.24
695.726	15.67
695.911	16.34
696.096	16.92
696.281	16.69
696.466	16.67
696.65	16.99
696.835	17.35
697.02	16.99
697.204	16.39
697.389	16.4
697.574	16.7
697.759	16.64
697.943	16.74
698.128	16.89
698.312	16.72
698.497	16.96
698.682	16.61
698.866	16.7
699.051	16.61
699.235	16.95
699.42	16.86
699.604	16.89
699.789	17.11
699.973	17.24
700.158	16.85
700.342	16.91
700.527	16.9
700.711	17.15
700.895	16.92
701.08	17.23
701.264	17.12
701.448	17.13
701.633	16.82
701.817	16.29
702.001	16.2
702.186	16.37
702.37	16.79
702.554	16.16
702.738	15.87
702.923	16.35
703.107	16.14
703.291	15.6
703.475	16.13
703.659	16.27
703.843	16.21
704.027	16.45
704.212	16.39
704.396	15.31
704.58	16.34
704.764	16.82
704.948	16.65
705.132	16.38
705.316	16.49
705.5	15.14
705.684	15.44
705.868	15.56
706.052	15.53
706.235	15.28
706.419	16.19
706.603	15.55
706.787	15.99
706.971	16.43
707.155	17.26
707.339	18.02
707.522	18.85
707.706	18.61
707.89	18.36
708.074	17.92
708.257	18.63
708.441	18.35
708.625	18.54
708.808	18.21
708.992	17.33
709.176	16.42
709.359	16.76
709.543	16.87
709.727	17.09
709.91	16.68
710.094	16.52
710.277	16.43
710.461	16.34
710.644	16.88
710.828	16.44
711.011	15.99
711.195	16.57
711.378	15.7
711.562	15.58
711.745	15.26
711.928	15.68
712.112	15.84
712.295	16.38
712.478	16.32
712.662	15.43
712.845	15.55
713.028	16.64
713.212	17.04
713.395	16.85
713.578	17.18
713.761	17.92
713.945	18.28
714.128	18.53
714.311	17.71
714.494	18.35
714.677	18.31
714.86	17.76
715.043	17.89
715.227	17.55
715.41	17.92
715.593	18.27
715.776	17.83
715.959	17.33
716.142	16.84
716.325	16.69
716.508	16.18
716.691	16.55
716.874	17.16
717.057	16.49
717.239	15.82
717.422	15.5
717.605	14.58
717.788	14.16
717.971	14.55
718.154	14.84
718.337	14.76
718.519	15.39
718.702	14.76
718.885	14.76
719.068	15.69
719.25	16.47
719.433	16.07
719.616	17.02
719.798	16.56
719.981	16.67
720.164	16.34
720.346	16.42
720.529	16.05
720.712	16.82
720.894	16.86
721.077	15.69
721.259	15.4
721.442	17.01
721.624	16.17
721.807	16.74
721.989	17.45
722.172	17.01
722.354	16.69
722.537	16.48
722.719	16.4
722.901	16.46
723.084	17.17
723.266	16.43
723.448	15.86
723.631	16.56
723.813	16.41
723.995	15.55
724.178	16.72
724.36	16.94
724.542	17.56
724.724	17.45
724.907	17.19
725.089	16.53
725.271	16.71
725.453	17.17
725.635	17.39
725.817	18.39
725.999	19.14
726.181	18.59
726.364	19.35
726.546	18.12
726.728	17.98
726.91	17.04
727.092	17.18
727.274	17.9
727.456	17.66
727.638	16.42
727.819	16.06
728.001	14.23
728.183	14.66
728.365	14.26
728.547	14.62
728.729	14.72
728.911	15.19
729.093	15.23
729.274	15.9
729.456	15.07
729.638	15.97
729.82	14.99
730.001	16.5
730.183	16.26
730.365	16.56
730.546	17.61
730.728	18.17
730.91	18.96
731.091	18.93
731.273	17.32
731.455	17.37
731.636	16.87
731.818	17.45
731.999	16.83
732.181	16.39
732.362	15.49
732.544	14.22
732.725	13.32
732.907	12.79
733.088	13.44
733.27	14.51
733.451	15.17
733.633	14.82
733.814	14.59
733.995	14.71
734.177	15.27
734.358	15.94
734.539	17.12
734.721	17.55
734.902	17.76
735.083	17
735.264	16.77
735.446	16.93
735.627	16.56
735.808	16.72
735.989	16.53
736.17	16.78
736.351	17.71
736.533	17.13
736.714	16.91
736.895	17.66
737.076	18.59
737.257	17.4
737.438	17.16
737.619	18.92
737.8	19.25
737.981	19.51
738.162	18.51
738.343	17.7
738.524	17.33
738.705	16.69
738.886	16.15
739.067	16.23
739.247	17.28
739.428	16.83
739.609	16.4
739.79	15.22
739.971	15.76
740.151	15.9
740.332	16.22
740.513	16.49
740.694	18.31
740.874	18.34
741.055	17.75
741.236	17.54
741.417	18.3
741.597	17.97
741.778	18.32
741.958	17.37
742.139	16.73
742.32	15.89
742.5	15.84
742.681	15.18
742.861	13.81
743.042	12.74
743.222	13.84
743.403	13.27
743.583	13.65
743.764	14.3
743.944	15.76
744.124	18
744.305	19.07
744.485	18.98
744.666	19
744.846	19.92
745.026	21.52
745.207	20.58
745.387	19.33
745.567	18.69
745.747	18.14
745.928	17.77
746.108	17.12
746.288	15.5
746.468	14.91
746.648	14.58
746.829	14.17
747.009	13.13
747.189	14.64
747.369	15.95
747.549	15.04
747.729	14.01
747.909	12.36
748.089	11.37
748.269	12.3
748.449	11.99
748.629	12
748.809	12.69
748.989	12.73
749.169	10.81
749.349	10.88
749.529	12.21
749.709	13.42
749.889	14.14
750.068	15.61
750.248	15.31
750.428	16.48
750.608	15.59
750.788	16.12
750.967	16.72
751.147	15.88
751.327	15.72
751.507	16.51
751.686	16.39
751.866	16.41
752.046	16.4
752.225	16.36
752.405	16.45
752.585	17.61
752.764	17.3
752.944	15.91
753.123	17.79
753.303	17.59
753.482	16.3
753.662	17.11
753.841	16.44
754.021	16.25
754.2	15.71
754.38	14.91
754.559	14.77
754.739	13.36
754.918	14.43
755.097	13.78
755.277	14
755.456	13.38
755.635	13.22
755.815	14.15
755.994	14.05
756.173	15.39
756.352	15.77
756.532	15.46
756.711	17.1
756.89	16.93
757.069	17.41
757.248	16.44
757.427	17.88
757.607	16.49
757.786	16.29
757.965	15.57
758.144	14.8
758.323	15.6
758.502	16.7
758.681	15.65
758.86	15.66
759.039	16.09
759.218	17.37
759.397	17.09
759.576	17.29
759.755	17.6
759.934	16.93
760.113	15.92
760.291	14.26
760.47	11.98
760.649	13.08
760.828	13.57
761.007	13.33
761.186	12.41
761.364	12.89
761.543	14.46
761.722	14.48
761.901	15.84
762.079	16.61
762.258	16.67
762.437	18.36
762.615	18.5
762.794	17.45
762.972	17.32
763.151	17.75
763.33	16.65
763.508	16.41
763.687	16.41
763.865	16.64
764.044	17.75
764.222	18.43
764.401	17.37
764.579	17.09
764.758	18.63
764.936	18.34
765.114	18.21
765.293	19.35
765.471	19.22
765.65	18.12
765.828	17.9
766.006	17.45
766.184	16.95
766.363	15.89
766.541	15.57
766.719	14.84
766.898	15.06
767.076	14.63
767.254	13.69
767.432	14.07
767.61	14.39
767.788	13.85
767.967	11.8
768.145	11.94
768.323	13.62
768.501	14.2
768.679	13.22
768.857	13.04
769.035	12.61
769.213	12.53
769.391	13.72
769.569	14.05
769.747	14.1
769.925	14.19
770.103	14.93
770.281	15.41
770.459	15.73
770.636	14.39
770.814	13
770.992	14.35
771.17	13.74
771.348	11.76
771.525	13.89
771.703	13.24
771.881	15.08
772.059	14.84
772.236	15.23
772.414	13.62
772.592	15.7
772.769	17.73
772.947	17.48
773.125	18.94
773.302	18.68
773.48	16.99
773.657	16.81
773.835	16.66
774.013	16.82
774.19	14.77
774.368	12.54
774.545	13.38
774.723	13.19
774.9	12.06
775.077	9.99
775.255	9.28
775.432	10.14
775.61	9.7
775.787	9.5
775.964	8.96
776.142	8.58
776.319	11.87
776.496	10.17
776.674	9.92
776.851	10.74
777.028	11.85
777.205	14.18
777.382	12.18
777.56	11.04
777.737	10.46
777.914	7.55
778.091	9.72
778.268	7.81
778.445	9.21
778.622	8.97
778.8	8.61
778.977	5.84
779.154	2.27
779.331	4.65
779.508	5.33
779.685	7.14
779.862	11.91
780.038	10.7
780.215	11.49
780.392	13.31
780.569	13.63
780.746	15.41
780.923	17.58
781.1	18.85
781.277	16.58
781.453	16.85
781.63	15.91
781.807	11.68
781.984	13.52
782.16	13.13
782.337	11.89
782.514	10.92
782.691	12.71
782.867	13.08
783.044	14.06
783.221	15.15
783.397	17.42
783.574	15.07
783.75	16.9
783.927	17
784.103	20.06
784.28	18.28
784.456	19.49
784.633	14.86
784.809	15.07
784.986	15.27
785.162	16.33
785.339	15.05
785.515	14.78
785.692	13.61
785.868	11.11
786.044	8.54
786.221	8.11
786.397	6.88
786.573	10.46
786.749	10.35
786.926	12.95
787.102	11.42
787.278	10.97
787.454	14.76
787.631	15.32
787.807	14.31
787.983	14.94
788.159	15.16
788.335	17.55
788.511	16.88
788.687	17.12
788.863	17.65
789.039	18.2
789.216	17.83
789.392	15.95
789.568	15.96
789.744	17.54
789.919	15.46
790.095	15.33
790.271	10.82
790.447	9.07
790.623	9.28
790.799	6.05
790.975	7.71
791.151	6.82
791.327	9.27
791.502	10.35
791.678	10.03
791.854	12.57
792.03	12.04
792.205	12.47
792.381	14.9
792.557	16.29
792.733	12.74
792.908	9.75
793.084	12.21
793.259	12.57
793.435	9.4
793.611	13.46
793.786	13.44
793.962	17.19
794.137	22.01
794.313	17.66
794.488	15.59
794.664	18.85
794.839	17.72
795.015	17.94
795.19	14.47
795.366	15.58
795.541	10.74
795.716	11.61
795.892	8.44
796.067	6.3
796.242	7.78
796.418	7.54
796.593	8.61
796.768	11.78
796.944	14.33
797.119	13.29
797.294	15.03
797.469	17.56
797.644	11.94
797.82	8.2
797.995	6.61
798.17	9.58
798.345	8.53
798.52	9.74
798.695	9.58
798.87	5.49
799.045	6.18
799.22	6.59
799.395	3.97
799.57	10.71
799.745	15.87
799.92	14.29
800.095	9.97
800.27	11.59
800.445	8.62
800.62	9.09
800.795	8.73
800.97	8.83
801.145	6.8
801.319	8.59
801.494	4.95
801.669	2.4
801.844	3.25
802.018	2.86
802.193	1.35
802.368	-0.25
802.543	-3.43
802.717	-3.03
802.892	-1.37
803.067	-3.97
803.241	-5.41
803.416	-4.4
803.59	-1.85
803.765	-1.34
803.94	1.06
804.114	4.4
804.289	3.77
804.463	3.57
804.638	2.96
804.812	4.42
804.986	7.71
805.161	9
805.335	7.41
805.51	8.16
805.684	5.44
805.858	2.35
806.033	-0.67
806.207	1.84
806.381	6.29
806.556	13.4
806.73	13.95
806.904	9.99
807.078	8.69
807.253	12.4
807.427	12.67
807.601	15.77
807.775	19.5
807.949	24.03
808.123	22.04
808.298	20.22
808.472	13.67
808.646	16.03
808.82	19.08
808.994	20.33
809.168	20.2
809.342	19.54
809.516	19.08
809.69	16.23
809.864	10.14
810.038	14.08
810.212	14.09
810.385	14.69
810.559	11.67
810.733	10.6
810.907	13.68
811.081	13.05
811.255	10.4
811.428	9.64
811.602	11.14
811.776	14.39
811.95	15.49
812.123	15.58
812.297	18.46
812.471	16.46
812.644	17.82
812.818	12.34
812.992	12.37
813.165	13.9
813.339	6.27
813.512	4.2
813.686	2.28
813.86	-1.01
814.033	-0.49
814.207	-3
814.38	-3.32
814.554	-2.07
814.727	-1.02
814.9	-8.54
815.074	-8.69
815.247	-1.7
815.421	4.31
815.594	2.89
815.767	1.52
815.941	-5.76
816.114	-12.92
816.287	-10.35
816.46	-12.65
816.634	-13.87
816.807	-6.21
816.98	-10.75
817.153	-4.45
817.327	-6.71
817.5	0.78
817.673	2.96
817.846	6.47
818.019	10.43
818.192	3.99
818.365	0.92
818.538	7.36
818.711	8.76
818.884	9.51
819.057	2.87
819.23	2.85
819.403	5.86
819.576	8.25
819.749	7.85
819.922	6.94
820.095	11.14
820.268	14.77
820.441	12.81
820.614	12.26
820.786	16.04
820.959	19.18
821.132	18.61
821.305	13.99
821.477	13.76
821.65	15.6
821.823	16.35
821.996	16.3
822.168	15.1
822.341	15.83
822.514	16.01
822.686	15.19
822.859	14.97
823.031	15.28
823.204	15.45
823.376	15.84
823.549	16.21
823.722	15.72
823.894	15.65
824.067	16.24
824.239	15.69
824.411	15.51
824.584	15.68
824.756	14.84
824.929	14.48
825.101	14.86
825.273	14.46
825.446	14.32
825.618	14.56
825.79	14.64
825.963	14.12
826.135	13.89
826.307	14.48
826.479	15.87
826.652	18.12
826.824	17.93
826.996	19.78
827.168	19.71
827.34	18.37
827.512	19.17
827.684	19.18
827.856	19.79
828.029	19.77
828.201	19.76
828.373	19.61
828.545	18.24
828.717	18.57
828.889	16.51
829.061	16.18
829.232	15.12
829.404	14.43
829.576	15.04
829.748	14.16
829.92	15.03
830.092	15.56
830.264	14.02
830.436	15.73
830.607	15.24
830.779	15.09
830.951	15.28
831.123	15.19
831.294	15.6
831.466	14.8
831.638	14.98
831.809	10.69
831.981	3.42
832.153	2.96
832.324	-2.19
832.496	-3.47
832.667	-5.75
832.839	-7.93
833.011	-7.67
833.182	-6.49
833.354	-7.55
833.525	-7.31
833.697	-0.7
833.868	5.05
834.039	7.07
834.211	9.19
834.382	10.74
834.554	12.42
834.725	13.92
834.896	14.89
835.068	15.37
835.239	18.83
835.41	21.56
835.581	21.59
835.753	19.54
835.924	16.4
836.095	17.59
836.266	17.69
836.438	17.24
836.609	17.82
836.78	20.3
836.951	18.75
837.122	16.48
837.293	13.45
837.464	17.25
837.635	16.83
837.806	19.77
837.977	18.34
838.148	13.84
838.319	14.04
838.49	7.59
838.661	5.74
838.832	5.74
839.003	3.34
839.174	9.09
839.345	-1.56
839.516	2.2
839.687	3.65
839.857	-0.81
840.028	7.11
840.199	7.99
840.37	10.82
840.54	2.66
840.711	1.34
840.882	1.29
841.053	-0.42
841.223	-6.32
841.394	-12.09
841.564	-13.79
841.735	-11.22
841.906	-19.42
842.076	-18.69
842.247	-13.56
842.417	-12.21
842.588	-5.94
842.758	-2.18
842.929	0.76
843.099	10.17
843.27	23.38
843.44	18.95
843.611	13.89
843.781	12.17
843.951	9.34
844.122	11.15
844.292	19.12
844.462	16.8
844.633	11.22
844.803	3.15
844.973	-2.72
845.144	-22.55
845.314	-6.11
845.484	-1.92
845.654	4.44
845.824	12.74
845.995	6.29
846.165	1.29
846.335	12.58
846.505	15.07
846.675	16.27
846.845	23.17
847.015	47.11
847.185	38.04
847.355	33.81
847.525	25.91
847.695	26.69
847.865	17.74
848.035	19.99
848.205	8.79
848.375	19.5
848.545	7.85
848.715	14.97
848.884	-0.47
849.054	-2.03
849.224	-1.84
849.394	0.19
849.564	-13.46
849.733	16.14
849.903	7.83
850.073	2.79
850.243	0.08
850.412	16.67
850.582	31.18
850.752	37.26
850.921	16.75
851.091	25.28
851.26	36.22
851.43	6.73
851.599	-17.44
851.769	3.51
851.939	16.29
852.108	15.59
852.278	7.34
852.447	-4.69
852.616	5.06
852.786	15.76
852.955	12.88
853.125	8.75
853.294	24.02
853.463	33.96
853.633	24.63
853.802	26.3
853.971	17.84
854.141	17.49
854.31	16.13
854.479	17.64
854.648	16.47
854.818	11.74
854.987	11.61
855.156	14.27
855.325	10.48
855.494	13.3
855.663	4.58
855.832	9.08
856.001	18.14
856.171	19.82
856.34	14.72
856.509	15.32
856.678	25.16
856.847	31.17
857.016	25.71
857.185	28.41
857.353	33.47
857.522	31.87
857.691	43.51
857.86	42.36
858.029	36.33
858.198	35.26
858.367	20.71
858.535	10.97
858.704	0.33
858.873	-4.37
859.042	-1.61
859.21	-4.58
859.379	-5.82
859.548	-11.98
859.717	-18.71
859.885	-14.82
860.054	-9.73
860.222	-18.73
860.391	-4.17
860.56	12.19
860.728	14.3
860.897	-5.36
861.065	-5.33
861.234	-2.72
861.402	-10.49
861.571	-2.41
861.739	-1.37
861.908	-1.15
862.076	-5.56
862.244	-33.39
862.413	-41.98
862.581	-34.7
862.749	-36
862.918	-37.92
863.086	-32.92
863.254	-48.39
863.423	-55.17
863.591	-59.69
863.759	-73.81
863.927	-42.95
864.096	-1.89
864.264	1.82
864.432	-21.5
864.6	-18.12
864.768	-5.49
864.936	-12.55
865.104	-9.83
865.272	-19.9
865.44	-5.2
865.608	-7.33
865.776	-16.42
865.944	-20.81
866.112	-11.58
866.28	-6.41
866.448	4.37
866.616	0.21
866.784	-11.27
866.952	9.24
867.12	10.66
867.288	-0.78
867.455	-12.84
867.623	1.19
867.791	-28.32
867.959	-36.1
868.127	-0.69
868.294	-15.02
868.462	-44.79
868.63	-31.68
868.797	-42.63
868.965	-33.3
869.133	-23.39
869.3	-36.74
869.468	-41.07
869.636	-40.55
869.803	-70.15
869.971	-80.43
870.138	-93.19
870.306	-66.45
870.473	-53.42
870.641	-66.72
870.808	-90.17
870.975	-117.06
871.143	-98.9
871.31	-124.59
871.478	-88.91
871.645	-75.29
871.812	-80.53
871.98	-42.29
872.147	-34.87
872.314	-30.55
872.482	-25.28
872.649	-27.09
872.816	-15.09
872.983	-12.03
873.15	-7.13
873.318	-18.98
873.485	-14.76
873.652	-15.76
873.819	-23.6
873.986	-21.09
874.153	-27.98
874.32	-29.09
874.487	-21.03
874.654	-10.58
874.821	-19.54
874.988	-25.29
875.155	-8.29
875.322	1.8
875.489	8.47
875.656	9.98
875.823	6.81
875.99	-1.84
876.157	-17.16
876.324	-42.24
876.49	-122.86
876.657	-65.1
876.824	-93.11
876.991	-184.13
877.157	-140.38
877.324	-116.16
877.491	-95.43
877.658	-71.69
877.824	-42.67
877.991	-32.09
878.157	-18.61
878.324	-4.38
878.491	-9.03
878.657	-6.76
878.824	1.89
878.99	-8.03
879.157	-15.38
879.323	-9.72
879.49	-25.12
879.656	-14.46
879.823	1.44
879.989	-4.5
880.156	-19.65
880.322	-10.68
880.488	-5.08
880.655	-10.95
880.821	-4.46
880.987	2.66
881.154	2.12
881.32	10.84
881.486	7.81
881.652	4.17
881.819	12.07
881.985	16.6
882.151	14.35
882.317	14.21
882.483	12.61
882.649	15.24
882.816	14.55
882.982	12.28
883.148	10.69
883.314	9.68
883.48	11.38
883.646	6.87
883.812	6.82
883.978	7.25
884.144	8.12
884.31	12.36
884.476	9.73
884.642	10.26
884.807	12.26
884.973	10.81
885.139	12.03
885.305	13.62
885.471	16.33
885.637	17.35
885.802	13.73
885.968	12.62
886.134	11.18
886.3	15.24
886.465	13.34
886.631	11.66
886.797	13.09
886.962	8.46
887.128	-1.33
887.293	-0.79
887.459	3.43
887.625	2.06
887.79	5.85
887.956	6.03
888.121	-0.18
888.287	4.17
888.452	3.5
888.618	8.69
888.783	16.13
