Data from 2938070_Reflection_3.txt Node
Date: Sat Jul 11 20:40:12 EDT 2015
User: robert
Spectrometer: USB4E03001
Autoset integration time: false
Trigger mode: 4
Integration Time (sec): 1.000000E-1
Scans to average: 10
Electric dark correction enabled: true
Nonlinearity correction enabled: false
Boxcar width: 5
Stray light correction enabled: false
XAxis mode: Wavelengths
Stop averaging: false
Number of Pixels in Spectrum: 3648
>>>>>Begin Spectral Data<<<<<
177.566	71.52
177.785	70.24
178.005	62.37
178.225	45.68
178.445	55.77
178.665	18.58
178.885	746.86
179.105	107.88
179.324	1151.85
179.544	371.4
179.764	322.63
179.984	179.38
180.204	165.1
180.423	425.65
180.643	-1472.04
180.863	-187.38
181.083	-63.23
181.302	-26.39
181.522	-40.24
181.742	-28.69
181.961	3.96
182.181	11.38
182.401	14.53
182.621	13.77
182.84	1.18
183.06	2.58
183.279	-87.22
183.499	-104.42
183.719	-217.58
183.938	-399.44
184.158	-202.19
184.377	-517.82
184.597	-311.94
184.816	-1099.31
185.036	420.44
185.256	655.94
185.475	259.88
185.695	677.21
185.914	276.9
186.134	-1360.06
186.353	-86.89
186.572	705.86
186.792	386.63
187.011	2407.51
187.231	-553.66
187.45	-421.72
187.67	-294.05
187.889	-167.49
188.108	-179.19
188.328	-154.48
188.547	-238.5
188.766	-845.66
188.986	-324.51
189.205	-129.61
189.424	-124.97
189.644	-87.91
189.863	-78.96
190.082	-68.36
190.302	-87.81
190.521	-157.68
190.74	-144.9
190.959	-216.29
191.178	-346.36
191.398	-291.56
191.617	-254.36
191.836	-938.5
192.055	-327.58
192.274	-193.34
192.494	-275.28
192.713	-180.46
192.932	-139.65
193.151	-195.45
193.37	-159.16
193.589	-190.56
193.808	-271.61
194.027	-370.87
194.246	-387.47
194.465	-354.59
194.685	-375.4
194.904	-499.08
195.123	-1153.58
195.342	-202.91
195.561	-232.14
195.78	-107.94
195.999	-15.25
196.218	8.18
196.436	-28.05
196.655	-42.51
196.874	-35.75
197.093	-20.09
197.312	-22.62
197.531	-7.98
197.75	-21.64
197.969	-22.12
198.188	-74.28
198.407	-534.89
198.625	-915.38
198.844	-740.22
199.063	801.06
199.282	582.56
199.501	319.95
199.719	473.08
199.938	352.16
200.157	351.05
200.376	325.11
200.594	219.12
200.813	211.44
201.032	320.7
201.251	466.92
201.469	402.71
201.688	-96114.29
201.907	-127.48
202.125	5069.05
202.344	-146.38
202.563	-115.23
202.781	-187.39
203	-215.26
203.218	-325.43
203.437	158.7
203.656	-42.05
203.874	-4.62
204.093	64.45
204.311	-1368.1
204.53	-20.52
204.748	-109.03
204.967	-223.52
205.185	-408.12
205.404	-201.73
205.622	-190.17
205.841	-499.2
206.059	-464.03
206.278	-802.38
206.496	2101.78
206.715	-1216.4
206.933	1132.13
207.151	1225.82
207.37	494.53
207.588	670.33
207.806	491.85
208.025	567.45
208.243	-208.01
208.461	-159.87
208.68	-336.88
208.898	-113.55
209.116	-65.95
209.335	-22.13
209.553	13.96
209.771	20.06
209.989	13.11
210.208	33.54
210.426	20.16
210.644	16.68
210.862	16.63
211.081	30.34
211.299	12.99
211.517	-75.49
211.735	-55.81
211.953	-921.65
212.171	960.92
212.39	-430.93
212.608	-515.29
212.826	-976.43
213.044	247.02
213.262	1817.75
213.48	985.32
213.698	464.97
213.916	1245.41
214.134	362.44
214.352	238.27
214.57	255.06
214.788	223.04
215.006	155.68
215.224	228.02
215.442	1369.21
215.66	678.63
215.878	-754.95
216.096	-127.42
216.314	-360
216.532	-287.09
216.75	-86.02
216.968	-52.19
217.185	-104.29
217.403	-287.27
217.621	-424.33
217.839	-287.17
218.057	2989.51
218.275	333.33
218.492	173.46
218.71	219.72
218.928	350.76
219.146	815.42
219.363	225
219.581	-233.78
219.799	-27.81
220.017	31.46
220.234	2.75
220.452	-14.41
220.67	-17.23
220.887	-7.84
221.105	-14.04
221.323	-9.36
221.54	-25.77
221.758	-23.72
221.976	-15.46
222.193	-3.44
222.411	-25.55
222.629	-27.53
222.846	-10.78
223.064	-23.72
223.281	0.08
223.499	-7.96
223.716	-15.27
223.934	-28.14
224.151	-18.14
224.369	-37.76
224.586	-69.18
224.804	-37.34
225.021	-45.04
225.239	-48.8
225.456	-25.06
225.674	-70.88
225.891	-50.34
226.108	-56.38
226.326	-36.11
226.543	-32.05
226.76	-13.81
226.978	4.58
227.195	5.87
227.413	-0.38
227.63	-0.59
227.847	0.29
228.064	-0.23
228.282	-1.12
228.499	0.26
228.716	2.43
228.934	3.97
229.151	2.29
229.368	-1.99
229.585	0.26
229.802	2.34
230.02	2.44
230.237	3.12
230.454	8.41
230.671	5.86
230.888	2.02
231.105	-0.23
231.323	-0.53
231.54	-1.62
231.757	2.03
231.974	-3.2
232.191	-3.17
232.408	-9.64
232.625	-7.07
232.842	-14.93
233.059	-7.66
233.276	0.02
233.493	1.81
233.71	3.81
233.927	8.59
234.144	-1.47
234.361	-4.75
234.578	-14.04
234.795	-2.93
235.012	-10.28
235.229	-3.11
235.446	-1.52
235.663	-2.89
235.879	-3.52
236.096	-9.3
236.313	-14.11
236.53	-5.38
236.747	-0.94
236.964	7.91
237.181	11.38
237.397	15.11
237.614	5.58
237.831	2.96
238.048	1.43
238.264	0.3
238.481	-1.52
238.698	2.87
238.915	-2.24
239.131	1.25
239.348	-1.73
239.565	-8.34
239.781	-5.75
239.998	5.6
240.215	6.41
240.431	9.57
240.648	11.48
240.865	15.64
241.081	13.12
241.298	15.35
241.514	12.85
241.731	14.71
241.947	15.13
242.164	14.14
242.38	12.61
242.597	11.7
242.814	11.96
243.03	10.66
243.246	9.93
243.463	9.17
243.679	8.53
243.896	8.97
244.112	7.11
244.329	6.09
244.545	5.97
244.762	5.55
244.978	4.38
245.194	5.75
245.411	6.43
245.627	5.24
245.843	7.84
246.06	8.24
246.276	8.1
246.492	8.98
246.709	8.84
246.925	8.92
247.141	7.52
247.357	7.38
247.574	7.42
247.79	7.28
248.006	8.05
248.222	7.48
248.439	7.08
248.655	6.61
248.871	5.8
249.087	5
249.303	3.44
249.519	4.65
249.736	4.43
249.952	2.89
250.168	3.96
250.384	5.06
250.6	5.44
250.816	4.98
251.032	5.14
251.248	4.68
251.464	4.54
251.68	7.63
251.896	8.63
252.112	6.39
252.328	6.82
252.544	4
252.76	4.5
252.976	3.44
253.192	5.01
253.408	5.95
253.624	6.04
253.84	7.24
254.056	6.55
254.272	5.34
254.487	9.4
254.703	8.35
254.919	11.45
255.135	8.5
255.351	8.71
255.567	8.18
255.782	5.58
255.998	8.31
256.214	5.31
256.43	-0.1
256.646	1.69
256.861	2.08
257.077	5.54
257.293	4.13
257.508	4.3
257.724	3.26
257.94	4.55
258.155	4.45
258.371	3.69
258.587	5.14
258.802	5.58
259.018	4.85
259.234	5.02
259.449	4.18
259.665	5.32
259.88	5.75
260.096	7.4
260.312	5.92
260.527	6.76
260.743	7.92
260.958	7.68
261.174	7.9
261.389	8.7
261.605	9.22
261.82	9.15
262.036	8.77
262.251	7.98
262.466	6.58
262.682	5.32
262.897	4.01
263.113	1.01
263.328	0.98
263.543	2.16
263.759	1.83
263.974	0.4
264.189	0.94
264.405	1.32
264.62	3.64
264.835	2.44
265.051	8.89
265.266	8.15
265.481	8
265.696	11.36
265.912	12.85
266.127	12.33
266.342	13.43
266.557	9.61
266.773	8.38
266.988	7.78
267.203	8.38
267.418	5.9
267.633	7.66
267.848	7.14
268.064	4.58
268.279	3.01
268.494	2.64
268.709	0.56
268.924	2.62
269.139	4.13
269.354	2.63
269.569	2.61
269.784	3.3
269.999	1.34
270.214	2.62
270.429	2.77
270.644	1.72
270.859	1.51
271.074	1.28
271.289	0.03
271.504	-1.84
271.719	-1.21
271.934	0.69
272.149	-0.82
272.363	-0.04
272.578	-0.98
272.793	-0.53
273.008	1.63
273.223	0.79
273.438	3
273.653	4.22
273.867	5.82
274.082	6.99
274.297	5.89
274.512	8.28
274.726	6.96
274.941	8.64
275.156	8.01
275.371	7.33
275.585	9.89
275.8	6.51
276.015	8.83
276.229	9.58
276.444	9.51
276.659	8.46
276.873	8.64
277.088	11.79
277.302	9.94
277.517	9.55
277.732	8.61
277.946	5.78
278.161	6.85
278.375	4.41
278.59	0.93
278.804	-1.37
279.019	-1.98
279.233	-2.96
279.448	-5.53
279.662	-5.18
279.877	-3.41
280.091	-2.27
280.306	-0.19
280.52	1.23
280.735	1.42
280.949	2.71
281.163	4.17
281.378	4.4
281.592	3.02
281.806	2.88
282.021	2.65
282.235	1.62
282.449	0.94
282.664	-0.82
282.878	-0.81
283.092	1.32
283.307	3.1
283.521	2.29
283.735	3.92
283.949	4.77
284.164	5.65
284.378	6.49
284.592	6.62
284.806	7.41
285.02	8.69
285.234	8.39
285.449	6.12
285.663	5.01
285.877	5.4
286.091	4.74
286.305	5.66
286.519	5.52
286.733	4.95
286.947	4.02
287.161	5.22
287.375	4.54
287.589	4.5
287.803	6.48
288.017	7.88
288.231	6.93
288.445	6.88
288.659	6.73
288.873	7.24
289.087	6.85
289.301	7.72
289.515	6.19
289.729	6.04
289.943	7.84
290.157	6.57
290.371	4.69
290.584	6.72
290.798	7.7
291.012	7.79
291.226	6.89
291.44	8.74
291.654	8.62
291.867	7.86
292.081	9.36
292.295	7.99
292.509	7.6
292.722	10.28
292.936	10.1
293.15	10.12
293.364	8.95
293.577	9.89
293.791	8.85
294.005	8.65
294.218	10.77
294.432	10.78
294.645	10.93
294.859	12.9
295.073	11.67
295.286	10.79
295.5	11.55
295.713	12.63
295.927	12.49
296.14	12.07
296.354	13.21
296.568	12.87
296.781	12.35
296.994	12.67
297.208	11.82
297.421	11.69
297.635	12.04
297.848	11.79
298.062	11.37
298.275	12.33
298.489	12.98
298.702	13.7
298.915	13.02
299.129	12.6
299.342	12.41
299.555	11.84
299.769	11.3
299.982	10.02
300.195	9.85
300.409	9.6
300.622	8.29
300.835	7.49
301.048	4.96
301.262	6.08
301.475	6.55
301.688	6.4
301.901	7.17
302.115	8.76
302.328	11.26
302.541	10.53
302.754	11.11
302.967	11.78
303.18	12.9
303.393	15.01
303.607	15.23
303.82	15.8
304.033	16.31
304.246	15.79
304.459	15.87
304.672	17.21
304.885	17.82
305.098	17.46
305.311	18.36
305.524	19.03
305.737	19.02
305.95	18.98
306.163	20.44
306.376	20.94
306.589	21.99
306.802	20.41
307.015	18.94
307.228	18.85
307.44	20.38
307.653	18.03
307.866	17.13
308.079	17.05
308.292	17.52
308.505	18.07
308.718	17.39
308.93	17.69
309.143	20.1
309.356	21.44
309.569	20.91
309.781	21.41
309.994	22.64
310.207	22.78
310.42	21.72
310.632	21.36
310.845	18.49
311.058	18.43
311.27	19.48
311.483	18.26
311.696	17.11
311.908	17.29
312.121	16.62
312.333	16.11
312.546	16.67
312.759	17.24
312.971	17.43
313.184	21.15
313.396	22.74
313.609	20.68
313.821	20.85
314.034	20.64
314.246	23.37
314.459	21.79
314.671	21.87
314.884	21.64
315.096	22.17
315.309	20.96
315.521	17.89
315.733	17.57
315.946	17.45
316.158	19.54
316.371	20.05
316.583	16.61
316.795	18.7
317.008	19.63
317.22	19.23
317.432	18.86
317.644	19.77
317.857	20.63
318.069	21.16
318.281	21.14
318.494	18.58
318.706	19.04
318.918	20.68
319.13	18.14
319.342	18.01
319.555	18.67
319.767	18.49
319.979	17.42
320.191	17.49
320.403	14.97
320.615	16.15
320.827	17.14
321.039	15.59
321.252	15.58
321.464	18.95
321.676	20.04
321.888	18.11
322.1	17.44
322.312	18.43
322.524	17.58
322.736	19.65
322.948	20.18
323.16	19.4
323.372	20.03
323.584	18.45
323.796	17.92
324.007	16.51
324.219	18.75
324.431	20.83
324.643	20.73
324.855	22.28
325.067	22.13
325.279	23.97
325.491	25.57
325.702	27.22
325.914	29.04
326.126	29.23
326.338	30.36
326.55	29.04
326.761	29.55
326.973	30.71
327.185	30.26
327.396	31.24
327.608	29.53
327.82	29.36
328.032	27.68
328.243	27.63
328.455	28.53
328.666	28.2
328.878	29.07
329.09	28.34
329.301	29.76
329.513	31.54
329.725	30.06
329.936	30.18
330.148	32.02
330.359	33.96
330.571	33.56
330.782	33.62
330.994	34.05
331.205	33.42
331.417	34.8
331.628	32.88
331.84	32.04
332.051	34.39
332.262	34.4
332.474	33.27
332.685	32.43
332.897	32.9
333.108	32.52
333.319	33.64
333.531	35.55
333.742	35.11
333.953	36.62
334.165	36.87
334.376	36.89
334.587	38.08
334.799	38.6
335.01	39.33
335.221	41.19
335.432	40.63
335.644	41.45
335.855	41.38
336.066	42.36
336.277	43.27
336.488	43.06
336.7	43.22
336.911	42.27
337.122	43.07
337.333	44.03
337.544	42.81
337.755	43.77
337.966	43.99
338.177	43.28
338.388	42.22
338.599	41.29
338.811	42.38
339.022	41.76
339.233	44.44
339.444	44.38
339.655	42.71
339.866	43.28
340.076	44.07
340.287	41.74
340.498	42.93
340.709	43.93
340.92	45.28
341.131	44.32
341.342	44.21
341.553	43.38
341.764	43.67
341.975	46.35
342.185	46.72
342.396	45.57
342.607	47.1
342.818	47.93
343.029	46.75
343.239	45.08
343.45	45.23
343.661	46.94
343.872	46.98
344.082	46.41
344.293	44.91
344.504	45.66
344.714	47.33
344.925	48.08
345.136	47.94
345.346	49.2
345.557	49.65
345.768	49.54
345.978	48.62
346.189	47.2
346.399	45.6
346.61	46.47
346.821	46.66
347.031	44.97
347.242	44.7
347.452	44.89
347.663	44.43
347.873	44.49
348.084	45.31
348.294	45.04
348.504	46.5
348.715	49
348.925	49.39
349.136	48.5
349.346	49.85
349.557	49.41
349.767	49.17
349.977	47.82
350.188	48.37
350.398	47.6
350.608	49.2
350.819	47.83
351.029	47.62
351.239	46.8
351.449	45.65
351.66	45.13
351.87	44.42
352.08	43.86
352.29	45.05
352.501	45.02
352.711	45.29
352.921	43.68
353.131	45.41
353.341	45.06
353.552	44.62
353.762	46.13
353.972	45.21
354.182	46.7
354.392	46.12
354.602	46.88
354.812	46.94
355.022	47.63
355.232	48.73
355.442	47.68
355.652	48.41
355.862	47.98
356.072	48.85
356.282	49.21
356.492	48.19
356.702	48.61
356.912	48.26
357.122	47.92
357.332	48.07
357.542	46.67
357.752	46.76
357.962	45.89
358.171	47.35
358.381	47.29
358.591	48.32
358.801	48.96
359.011	48.21
359.221	48.08
359.43	47.8
359.64	48.57
359.85	48.51
360.06	49.64
360.269	49.93
360.479	49.02
360.689	48.48
360.899	48.16
361.108	47.81
361.318	48.34
361.528	48.01
361.737	47.86
361.947	46.96
362.156	48.23
362.366	47.62
362.576	47.62
362.785	46.83
362.995	46.56
363.204	46.64
363.414	46.36
363.623	47.24
363.833	47.66
364.042	47.67
364.252	48.18
364.461	46.96
364.671	46.42
364.88	45.56
365.09	46.18
365.299	45.72
365.509	45.46
365.718	45.47
365.927	44.72
366.137	45.26
366.346	45.38
366.555	45.85
366.765	45.84
366.974	46
367.183	44.98
367.393	45.43
367.602	45.81
367.811	45.8
368.021	45.37
368.23	44.88
368.439	44.48
368.648	45.04
368.857	43.73
369.067	43.86
369.276	43.3
369.485	45.2
369.694	45.18
369.903	44.3
370.112	44.37
370.321	45.06
370.531	44.49
370.74	42.43
370.949	41.41
371.158	40.76
371.367	40.26
371.576	40.61
371.785	40.49
371.994	40
372.203	40.07
372.412	39.77
372.621	40.27
372.83	40.47
373.039	41.59
373.248	41.44
373.457	41.65
373.666	41.19
373.874	41.09
374.083	40.42
374.292	40.27
374.501	40.25
374.71	40.36
374.919	39.54
375.128	39.49
375.336	39.27
375.545	38.99
375.754	38.48
375.963	38.72
376.171	37.93
376.38	37.58
376.589	37.5
376.798	37.52
377.006	37.24
377.215	36.34
377.424	35.88
377.632	36.18
377.841	35.77
378.05	35.89
378.258	35.72
378.467	36.06
378.675	36.1
378.884	35.7
379.093	35.33
379.301	34.56
379.51	34.61
379.718	34.62
379.927	33.33
380.135	33.87
380.344	34.39
380.552	34.8
380.761	34.69
380.969	34.53
381.177	34.46
381.386	35.07
381.594	35.2
381.803	35.74
382.011	35.97
382.219	36.59
382.428	36.31
382.636	35.35
382.845	34.65
383.053	34.09
383.261	34.25
383.469	34.21
383.678	33.52
383.886	33.65
384.094	33.24
384.302	32.56
384.511	32.37
384.719	31.87
384.927	31.96
385.135	32.09
385.343	32.6
385.552	32.16
385.76	31.54
385.968	31.44
386.176	30.77
386.384	30.3
386.592	30.34
386.8	30.42
387.008	30.34
387.216	29.89
387.424	29.54
387.633	29.12
387.841	28.81
388.049	29.1
388.257	28.83
388.465	28.63
388.672	28.92
388.88	28.64
389.088	28.46
389.296	28.62
389.504	28.85
389.712	28.85
389.92	28.69
390.128	28.89
390.336	28.49
390.544	28.34
390.751	28.77
390.959	28.19
391.167	28.47
391.375	27.98
391.583	27.96
391.79	27.89
391.998	27.69
392.206	27.56
392.414	27.45
392.621	27.35
392.829	27.22
393.037	27.01
393.244	26.87
393.452	26.5
393.66	26.89
393.867	26.85
394.075	26.53
394.283	26.8
394.49	27.02
394.698	26.65
394.905	26.72
395.113	26.79
395.32	26.7
395.528	26.72
395.735	26.53
395.943	26.31
396.15	26.18
396.358	26.71
396.565	26.01
396.773	25.57
396.98	25.48
397.188	25.36
397.395	25.47
397.602	25.37
397.81	25.59
398.017	25.8
398.225	25.69
398.432	25.81
398.639	25.57
398.847	25.96
399.054	26.13
399.261	26.42
399.468	26.65
399.676	26.68
399.883	26.72
400.09	26.68
400.297	26.44
400.505	26.63
400.712	26.32
400.919	26
401.126	25.56
401.333	25.42
401.54	25.39
401.748	25.13
401.955	24.95
402.162	24.52
402.369	24.48
402.576	24.45
402.783	24.58
402.99	24.48
403.197	24.48
403.404	24.83
403.611	24.99
403.818	24.92
404.025	25.1
404.232	25.33
404.439	25.5
404.646	25.6
404.853	25.88
405.06	25.92
405.267	26.06
405.474	26.36
405.681	26.13
405.887	25.95
406.094	25.83
406.301	25.62
406.508	25.53
406.715	25.55
406.922	25.23
407.128	25.08
407.335	24.82
407.542	24.89
407.749	24.82
407.955	25.08
408.162	25
408.369	25.07
408.575	25.1
408.782	24.7
408.989	25.09
409.195	25.42
409.402	25.71
409.609	25.47
409.815	25.46
410.022	25.62
410.228	25.37
410.435	25.56
410.642	25.4
410.848	25.6
411.055	25.86
411.261	25.71
411.468	25.78
411.674	25.6
411.881	25.98
412.087	26.01
412.294	25.53
412.5	25.62
412.706	25.61
412.913	25.97
413.119	25.73
413.326	25.66
413.532	25.59
413.738	25.3
413.945	25.34
414.151	24.97
414.357	24.9
414.564	25.2
414.77	25.21
414.976	25.21
415.182	24.97
415.389	24.92
415.595	24.98
415.801	25
416.007	24.86
416.214	24.64
416.42	24.72
416.626	24.75
416.832	24.64
417.038	24.57
417.244	24.38
417.45	24.45
417.657	24.33
417.863	24.15
418.069	24.06
418.275	24.07
418.481	24.26
418.687	24.15
418.893	23.97
419.099	23.94
419.305	23.97
419.511	23.98
419.717	23.79
419.923	24
420.129	24.14
420.335	24.11
420.541	24.06
420.746	24.07
420.952	24.21
421.158	24.21
421.364	24.13
421.57	24.05
421.776	24.02
421.982	24.22
422.187	24.19
422.393	24.1
422.599	24.13
422.805	24.2
423.01	24.11
423.216	24.01
423.422	24.03
423.628	24.08
423.833	24.09
424.039	24.19
424.245	24.12
424.45	24.09
424.656	23.9
424.862	23.95
425.067	23.93
425.273	23.93
425.478	23.98
425.684	23.86
425.889	23.78
426.095	23.73
426.301	23.57
426.506	23.45
426.712	23.4
426.917	23.51
427.123	23.41
427.328	23.16
427.533	23.07
427.739	22.82
427.944	22.98
428.15	22.88
428.355	23.11
428.561	23.12
428.766	23.18
428.971	23.11
429.177	23.17
429.382	23.14
429.587	23.3
429.793	23.36
429.998	23.38
430.203	23.42
430.408	23.43
430.614	23.15
430.819	23.1
431.024	23.14
431.229	23.02
431.434	23.16
431.64	23.22
431.845	23.38
432.05	23.22
432.255	23.28
432.46	23.17
432.665	23.17
432.87	23.31
433.076	23.47
433.281	23.31
433.486	23.4
433.691	23.24
433.896	23.02
434.101	22.88
434.306	22.85
434.511	22.78
434.716	22.84
434.921	22.66
435.126	22.43
435.331	22.33
435.535	22.51
435.74	22.28
435.945	22.23
436.15	22.34
436.355	22.39
436.56	22.41
436.765	22.36
436.97	22.27
437.174	22.3
437.379	22.47
437.584	22.6
437.789	22.48
437.993	22.83
438.198	22.87
438.403	22.92
438.608	22.96
438.812	22.81
439.017	22.87
439.222	22.93
439.426	23.23
439.631	23.04
439.836	22.91
440.04	22.91
440.245	22.77
440.45	22.75
440.654	22.76
440.859	22.66
441.063	22.92
441.268	22.99
441.472	22.88
441.677	22.77
441.881	22.78
442.086	22.87
442.29	22.9
442.495	22.82
442.699	22.71
442.904	22.59
443.108	22.68
443.312	22.61
443.517	22.57
443.721	22.71
443.925	22.76
444.13	22.84
444.334	22.86
444.538	22.95
444.743	22.94
444.947	23.12
445.151	23.15
445.356	23.19
445.56	22.99
445.764	23.02
445.968	22.97
446.173	22.93
446.377	22.89
446.581	22.77
446.785	22.63
446.989	22.81
447.193	22.76
447.398	22.74
447.602	22.67
447.806	22.74
448.01	22.66
448.214	22.62
448.418	22.63
448.622	22.65
448.826	22.81
449.03	22.87
449.234	22.79
449.438	22.92
449.642	22.91
449.846	23.07
450.05	23.08
450.254	23.07
450.458	23.11
450.662	23.07
450.866	23.11
451.069	22.88
451.273	22.7
451.477	22.6
451.681	22.52
451.885	22.45
452.089	22.29
452.292	22.35
452.496	22.53
452.7	22.4
452.904	22.48
453.107	22.47
453.311	22.62
453.515	22.58
453.719	22.69
453.922	22.62
454.126	22.68
454.33	22.69
454.533	22.72
454.737	22.67
454.94	22.85
455.144	22.86
455.348	22.8
455.551	22.79
455.755	22.96
455.958	22.74
456.162	22.59
456.365	22.55
456.569	22.54
456.772	22.57
456.976	22.45
457.179	22.3
457.383	22.22
457.586	22.24
457.79	22.09
457.993	22.1
458.196	22.27
458.4	22.52
458.603	22.66
458.807	22.57
459.01	22.43
459.213	22.41
459.417	22.48
459.62	22.39
459.823	22.43
460.026	22.54
460.23	22.5
460.433	22.37
460.636	22.26
460.839	22.12
461.042	22.17
461.246	22.34
461.449	22.41
461.652	22.3
461.855	22.34
462.058	22.39
462.261	22.44
462.464	22.66
462.668	22.86
462.871	22.83
463.074	22.79
463.277	22.86
463.48	22.82
463.683	22.93
463.886	23.27
464.089	23.42
464.292	23.48
464.495	23.59
464.698	23.28
464.901	23.16
465.104	23.32
465.306	23.49
465.509	23.33
465.712	23.22
465.915	23.05
466.118	22.77
466.321	22.66
466.524	22.67
466.726	22.44
466.929	22.47
467.132	22.56
467.335	22.72
467.538	22.82
467.74	22.95
467.943	22.71
468.146	22.82
468.348	22.91
468.551	23.08
468.754	22.92
468.956	22.97
469.159	23.13
469.362	23.4
469.564	23.22
469.767	23.3
469.969	23.34
470.172	23.76
470.375	23.69
470.577	23.86
470.78	23.92
470.982	24.14
471.185	24.16
471.387	24.36
471.59	24.12
471.792	24.1
471.995	23.86
472.197	23.88
472.399	23.78
472.602	23.73
472.804	23.66
473.007	23.48
473.209	23.05
473.411	23.07
473.614	22.84
473.816	22.62
474.018	22.66
474.22	22.72
474.423	22.77
474.625	22.75
474.827	22.78
475.03	22.69
475.232	22.81
475.434	23.24
475.636	23.29
475.838	23.28
476.04	23.4
476.243	23.42
476.445	23.39
476.647	23.3
476.849	23.27
477.051	23.42
477.253	23.43
477.455	23.32
477.657	23.17
477.859	23.1
478.061	23.2
478.263	23.23
478.465	23.22
478.667	23.14
478.869	23.18
479.071	23.28
479.273	23.32
479.475	23.32
479.677	23.51
479.879	23.56
480.081	23.58
480.283	23.54
480.485	23.56
480.686	23.61
480.888	23.76
481.09	23.63
481.292	23.43
481.494	23.42
481.695	23.48
481.897	23.42
482.099	23.44
482.301	23.38
482.502	23.46
482.704	23.38
482.906	23.27
483.107	23.26
483.309	23.34
483.511	23.4
483.712	23.31
483.914	23.29
484.115	23.27
484.317	23.29
484.519	23.28
484.72	23.26
484.922	23.33
485.123	23.39
485.325	23.44
485.526	23.44
485.728	23.42
485.929	23.45
486.131	23.54
486.332	23.49
486.534	23.4
486.735	23.45
486.936	23.45
487.138	23.35
487.339	23.28
487.541	23.21
487.742	23.22
487.943	23.23
488.144	23.29
488.346	23.21
488.547	23.23
488.748	23.27
488.95	23.26
489.151	23.26
489.352	23.31
489.553	23.41
489.755	23.38
489.956	23.33
490.157	23.4
490.358	23.3
490.559	23.32
490.76	23.29
490.961	23.3
491.163	23.3
491.364	23.21
491.565	23.24
491.766	23.17
491.967	23.24
492.168	23.23
492.369	23.19
492.57	23.26
492.771	23.2
492.972	23.25
493.173	23.21
493.374	23.26
493.575	23.27
493.776	23.31
493.976	23.43
494.177	23.49
494.378	23.63
494.579	23.73
494.78	23.69
494.981	23.74
495.182	23.71
495.382	23.75
495.583	23.68
495.784	23.64
495.985	23.67
496.185	23.63
496.386	23.58
496.587	23.46
496.788	23.22
496.988	23.38
497.189	23.39
497.39	23.46
497.59	23.42
497.791	23.37
497.992	23.46
498.192	23.46
498.393	23.59
498.593	23.68
498.794	23.66
498.994	23.89
499.195	23.88
499.395	23.96
499.596	24.11
499.796	24.25
499.997	24.52
500.197	24.58
500.398	24.7
500.598	24.69
500.799	24.66
500.999	24.7
501.199	24.58
501.4	24.72
501.6	24.68
501.801	24.65
502.001	24.46
502.201	24.18
502.402	24.33
502.602	24.18
502.802	24.18
503.002	24.15
503.203	24.32
503.403	24.62
503.603	24.52
503.803	24.61
504.003	24.61
504.204	24.89
504.404	25.02
504.604	24.94
504.804	25.11
505.004	25.14
505.204	25.18
505.404	25.13
505.604	25.11
505.804	25.22
506.005	25.18
506.205	25.21
506.405	25.17
506.605	25.37
506.805	25.43
507.005	25.49
507.204	25.55
507.404	25.5
507.604	25.65
507.804	25.67
508.004	25.76
508.204	25.9
508.404	26
508.604	26.07
508.804	26.03
509.003	26.23
509.203	26.24
509.403	26.27
509.603	26.4
509.803	26.56
510.002	26.58
510.202	26.54
510.402	26.72
510.602	26.78
510.801	26.87
511.001	27.01
511.201	27.05
511.4	27.14
511.6	27.2
511.8	27.4
511.999	27.37
512.199	27.48
512.398	27.8
512.598	27.83
512.797	27.86
512.997	28
513.197	28.08
513.396	28.1
513.596	28.2
513.795	28.28
513.994	28.46
514.194	28.55
514.393	28.58
514.593	28.28
514.792	28.22
514.992	28.34
515.191	28.27
515.39	28.26
515.59	28.31
515.789	28.44
515.988	28.42
516.188	28.32
516.387	28.44
516.586	28.61
516.786	28.82
516.985	28.9
517.184	29.02
517.383	29.31
517.582	29.44
517.782	29.53
517.981	29.54
518.18	29.82
518.379	29.9
518.578	29.93
518.777	30.04
518.976	30.06
519.176	30.13
519.375	30.21
519.574	30.12
519.773	30.06
519.972	30.27
520.171	30.36
520.37	30.36
520.569	30.47
520.768	30.62
520.967	30.5
521.166	30.5
521.365	30.61
521.564	30.74
521.762	30.87
521.961	31.19
522.16	30.98
522.359	30.93
522.558	30.85
522.757	30.88
522.956	30.78
523.154	30.9
523.353	31.08
523.552	31.21
523.751	31.29
523.949	31.39
524.148	31.4
524.347	31.66
524.546	31.83
524.744	32.05
524.943	32.1
525.142	32.12
525.34	32.17
525.539	32.28
525.737	32.3
525.936	32.32
526.135	32.37
526.333	32.38
526.532	32.46
526.73	32.53
526.929	32.56
527.127	32.59
527.326	32.69
527.524	32.84
527.723	32.88
527.921	32.96
528.12	33
528.318	33.03
528.516	33.1
528.715	33.11
528.913	33.17
529.112	33.24
529.31	33.36
529.508	33.39
529.707	33.41
529.905	33.46
530.103	33.5
530.301	33.55
530.5	33.57
530.698	33.59
530.896	33.56
531.094	33.44
531.293	33.34
531.491	33.29
531.689	33.37
531.887	33.28
532.085	33.26
532.283	33.23
532.481	33.33
532.68	33.44
532.878	33.43
533.076	33.56
533.274	33.64
533.472	33.78
533.67	33.81
533.868	33.86
534.066	33.97
534.264	34.01
534.462	34.09
534.66	34.07
534.858	34.04
535.056	34.18
535.253	34.19
535.451	34.41
535.649	34.36
535.847	34.51
536.045	34.48
536.243	34.52
536.441	34.55
536.638	34.65
536.836	34.61
537.034	34.61
537.232	34.62
537.43	34.68
537.627	34.59
537.825	34.63
538.023	34.47
538.22	34.44
538.418	34.47
538.616	34.49
538.813	34.46
539.011	34.61
539.209	34.65
539.406	34.58
539.604	34.46
539.801	34.57
539.999	34.59
540.196	34.75
540.394	34.81
540.591	34.77
540.789	34.75
540.986	34.84
541.184	34.82
541.381	34.89
541.579	34.89
541.776	34.93
541.974	34.86
542.171	34.9
542.368	34.86
542.566	35.01
542.763	35.09
542.96	35.19
543.158	35.2
543.355	35.17
543.552	35.04
543.75	35.17
543.947	35.23
544.144	35.32
544.341	35.37
544.539	35.38
544.736	35.28
544.933	35.4
545.13	35.46
545.327	35.38
545.524	35.61
545.722	35.87
545.919	35.9
546.116	36
546.313	36.04
546.51	35.95
546.707	36
546.904	35.92
547.101	35.8
547.298	35.78
547.495	35.79
547.692	35.64
547.889	35.66
548.086	35.68
548.283	35.55
548.48	35.61
548.677	35.86
548.874	35.89
549.07	36.06
549.267	36.14
549.464	36.14
549.661	36.18
549.858	36.32
550.055	36.07
550.251	35.98
550.448	35.85
550.645	35.82
550.842	35.64
551.038	35.74
551.235	35.76
551.432	35.84
551.628	35.88
551.825	35.85
552.022	35.7
552.218	35.77
552.415	35.78
552.612	36.14
552.808	35.97
553.005	36
553.201	35.89
553.398	35.84
553.594	35.82
553.791	35.81
553.987	35.88
554.184	36.15
554.38	36.32
554.577	36.24
554.773	35.93
554.97	36.04
555.166	36.08
555.362	36.13
555.559	36.1
555.755	36.17
555.952	36.26
556.148	36.44
556.344	36.27
556.541	36.03
556.737	36.09
556.933	36.14
557.129	36.07
557.326	35.98
557.522	36.14
557.718	36.14
557.914	35.99
558.11	35.87
558.307	35.88
558.503	35.86
558.699	36.08
558.895	36.17
559.091	36.15
559.287	36.29
559.483	36.47
559.679	36.18
559.876	36.25
560.072	36.32
560.268	36.36
560.464	36.22
560.66	36.4
560.856	36.36
561.052	36.59
561.247	36.82
561.443	36.72
561.639	36.63
561.835	36.97
562.031	37.11
562.227	37.16
562.423	37.17
562.619	37.17
562.815	36.99
563.01	36.98
563.206	36.79
563.402	36.64
563.598	36.89
563.793	37.16
563.989	36.93
564.185	36.86
564.381	36.78
564.576	36.53
564.772	36.4
564.968	36.43
565.163	36.37
565.359	36.23
565.555	36.46
565.75	36.18
565.946	36.1
566.141	35.96
566.337	35.8
566.532	35.78
566.728	35.9
566.923	36.14
567.119	36.1
567.314	36.07
567.51	36.18
567.705	35.96
567.901	36.15
568.096	36
568.292	36.23
568.487	36.09
568.682	36.01
568.878	36.22
569.073	36.07
569.268	36.1
569.464	36.53
569.659	36.52
569.854	36.59
570.05	36.75
570.245	36.64
570.44	36.48
570.635	36.82
570.831	37.21
571.026	36.94
571.221	36.98
571.416	37.01
571.611	36.81
571.806	36.79
572.002	36.87
572.197	36.83
572.392	36.91
572.587	36.95
572.782	36.73
572.977	36.54
573.172	36.69
573.367	36.87
573.562	36.94
573.757	36.87
573.952	36.96
574.147	36.91
574.342	36.71
574.537	36.72
574.732	36.86
574.927	37
575.121	36.9
575.316	36.98
575.511	36.72
575.706	36.71
575.901	36.63
576.096	36.54
576.29	36.45
576.485	36.54
576.68	36.55
576.875	36.6
577.069	36.61
577.264	36.92
577.459	36.75
577.654	36.71
577.848	36.76
578.043	36.78
578.238	36.93
578.432	37.08
578.627	37.11
578.821	36.91
579.016	36.77
579.21	37.1
579.405	36.62
579.6	36.83
579.794	37
579.989	36.76
580.183	36.74
580.378	36.63
580.572	36.65
580.766	36.57
580.961	36.61
581.155	36.63
581.35	36.3
581.544	36.66
581.738	36.79
581.933	36.57
582.127	36.65
582.321	36.98
582.516	36.84
582.71	36.81
582.904	36.85
583.099	37.2
583.293	37.33
583.487	37.38
583.681	37.19
583.875	36.92
584.07	37.14
584.264	36.99
584.458	36.74
584.652	36.83
584.846	36.79
585.04	36.99
585.234	36.93
585.428	36.9
585.623	36.91
585.817	36.96
586.011	37.21
586.205	37.15
586.399	37.34
586.593	37.61
586.787	37.68
586.981	37.76
587.174	37.38
587.368	37.54
587.562	37.45
587.756	37.29
587.95	37.5
588.144	37.38
588.338	37.48
588.532	37.7
588.725	37.64
588.919	37.71
589.113	37.57
589.307	38.12
589.501	37.96
589.694	38.08
589.888	38.3
590.082	38.28
590.275	38.3
590.469	38.27
590.663	38.22
590.856	37.99
591.05	38.07
591.244	38.31
591.437	38.05
591.631	38.29
591.824	38.28
592.018	38.27
592.212	38.25
592.405	38.31
592.599	38.52
592.792	38.51
592.986	38.67
593.179	38.49
593.372	38.36
593.566	38.28
593.759	37.85
593.953	37.89
594.146	37.83
594.339	37.97
594.533	37.98
594.726	37.89
594.92	37.97
595.113	38.37
595.306	38.36
595.499	38.68
595.693	38.74
595.886	39.02
596.079	39.03
596.272	39.11
596.466	38.89
596.659	38.92
596.852	38.94
597.045	38.75
597.238	38.42
597.431	38.78
597.624	38.6
597.818	38.73
598.011	38.53
598.204	38.36
598.397	38.21
598.59	38.22
598.783	38.34
598.976	38.39
599.169	38.54
599.362	38.54
599.555	38.23
599.748	38.15
599.941	37.98
600.134	38.29
600.326	38.7
600.519	38.79
600.712	38.94
600.905	38.71
601.098	38.5
601.291	38.57
601.483	38.45
601.676	38.48
601.869	38.38
602.062	38.53
602.255	38.44
602.447	38.26
602.64	38.45
602.833	38.3
603.025	38.38
603.218	38.5
603.411	38.55
603.603	38.99
603.796	39.1
603.989	39.31
604.181	39.38
604.374	39.49
604.566	39.53
604.759	39.31
604.951	39.48
605.144	39.37
605.336	39.36
605.529	39.15
605.721	38.86
605.914	38.81
606.106	38.48
606.299	38.25
606.491	38.1
606.683	37.95
606.876	38
607.068	38
607.26	38.19
607.453	38.15
607.645	38.32
607.837	38.59
608.03	38.39
608.222	38.74
608.414	39.15
608.606	39.09
608.799	39.18
608.991	39.4
609.183	39.31
609.375	39.36
609.567	39.27
609.759	39.39
609.952	39.37
610.144	39.47
610.336	39.41
610.528	39.24
610.72	39.44
610.912	39.6
611.104	39.59
611.296	39.73
611.488	39.47
611.68	39.75
611.872	39.53
612.064	39.59
612.256	39.82
612.448	39.94
612.64	39.74
612.832	39.51
613.023	39.7
613.215	39.62
613.407	39.54
613.599	39.78
613.791	39.49
613.983	39.67
614.174	39.52
614.366	39.22
614.558	39.27
614.75	39.42
614.941	39.39
615.133	38.74
615.325	38.85
615.516	38.63
615.708	38.69
615.9	38.58
616.091	38.63
616.283	38.79
616.475	38.95
616.666	38.63
616.858	38.56
617.049	39
617.241	39.37
617.432	39
617.624	39.07
617.815	38.45
618.007	38.69
618.198	38.38
618.39	38.29
618.581	38.12
618.773	38.07
618.964	38.4
619.155	38.05
619.347	38.09
619.538	38.59
619.729	38.74
619.921	39.21
620.112	39.43
620.303	39.81
620.494	39.81
620.686	40.01
620.877	40.22
621.068	40.21
621.259	40.09
621.451	39.53
621.642	39.41
621.833	39.37
622.024	39.57
622.215	39.31
622.406	39.23
622.597	39.23
622.788	39.23
622.98	39.57
623.171	39.18
623.362	39.53
623.553	40.04
623.744	39.61
623.935	39.65
624.126	39.7
624.317	39.65
624.508	39.87
624.698	39.53
624.889	39.58
625.08	39.23
625.271	39.42
625.462	39.34
625.653	39.23
625.844	39.66
626.034	39.62
626.225	39.31
626.416	39.56
626.607	39.31
626.798	39.42
626.988	39.51
627.179	39.49
627.37	39.52
627.56	39.34
627.751	39.24
627.942	39.07
628.132	39.23
628.323	39.5
628.514	39.32
628.704	39.36
628.895	39.42
629.085	39.44
629.276	39.3
629.466	39.05
629.657	39.4
629.847	39.36
630.038	39.45
630.228	39.03
630.419	39.09
630.609	39.3
630.8	39.28
630.99	39.12
631.181	38.98
631.371	39.09
631.561	39.31
631.752	39.13
631.942	39.38
632.132	39.44
632.323	39.78
632.513	39.6
632.703	39.64
632.893	39.74
633.084	40.16
633.274	40.42
633.464	40.62
633.654	40.72
633.844	40.51
634.034	40.28
634.225	39.96
634.415	39.94
634.605	40.16
634.795	39.91
634.985	39.97
635.175	39.66
635.365	39.28
635.555	39.39
635.745	39.51
635.935	39.49
636.125	39.71
636.315	39.95
636.505	39.86
636.695	39.37
636.885	39.7
637.075	39.57
637.265	39.46
637.455	39.21
637.644	39.1
637.834	38.61
638.024	38.81
638.214	38.47
638.404	38.48
638.593	38.25
638.783	38.28
638.973	38.06
639.163	38.23
639.352	38.25
639.542	38.38
639.732	38.33
639.921	38.51
640.111	38.62
640.301	38.96
640.49	38.68
640.68	38.68
640.87	38.81
641.059	38.69
641.249	38.28
641.438	38.28
641.628	37.99
641.817	37.88
642.007	37.77
642.196	37.5
642.386	37.65
642.575	37.93
642.764	37.8
642.954	37.71
643.143	37.76
643.333	38.02
643.522	38.21
643.711	38.54
643.901	38.57
644.09	38.24
644.279	38.42
644.469	38.16
644.658	38.02
644.847	38.63
645.036	38.98
645.226	38.86
645.415	38.75
645.604	38.9
645.793	39.35
645.982	39.21
646.171	39.66
646.361	39.73
646.55	39.62
646.739	39.83
646.928	39.47
647.117	39.39
647.306	39.57
647.495	39.88
647.684	39.5
647.873	39.28
648.062	39.17
648.251	39.22
648.44	39.15
648.629	39.37
648.818	39.41
649.007	39.6
649.196	39.23
649.384	39.28
649.573	39.12
649.762	39.51
649.951	39.2
650.14	39.3
650.328	39.06
650.517	39.18
650.706	38.73
650.895	38.83
651.083	38.64
651.272	38.85
651.461	38.22
651.65	38.29
651.838	38.14
652.027	38.77
652.216	38.84
652.404	39.35
652.593	38.88
652.781	38.78
652.97	38.5
653.158	38.81
653.347	38.94
653.535	39.49
653.724	38.88
653.912	38.85
654.101	38.58
654.289	38.92
654.478	38.36
654.666	38.89
654.855	39.52
655.043	39.43
655.231	39.09
655.42	39.02
655.608	39.25
655.796	39.49
655.985	39.44
656.173	38.94
656.361	38.89
656.55	38.65
656.738	38.32
656.926	38.34
657.114	38.62
657.302	38.45
657.491	38.42
657.679	37.88
657.867	37.79
658.055	38.02
658.243	38.68
658.431	38.35
658.619	38.67
658.807	38.67
658.996	38.15
659.184	37.79
659.372	38.14
659.56	38.08
659.748	38.33
659.936	38.73
660.124	38.84
660.311	38.41
660.499	38.64
660.687	38.73
660.875	38.69
661.063	39.29
661.251	39.67
661.439	39.26
661.627	39.18
661.814	39.33
662.002	39.3
662.19	38.97
662.378	39.23
662.565	39.14
662.753	39.29
662.941	38.74
663.129	38.62
663.316	38.34
663.504	38.45
663.692	38.63
663.879	38.49
664.067	38.31
664.254	38.22
664.442	38.36
664.63	38.49
664.817	38.24
665.005	38.91
665.192	38.76
665.38	38.63
665.567	38.89
665.755	38.53
665.942	38.17
666.13	37.88
666.317	38.02
666.504	37.71
666.692	37.39
666.879	37.08
667.067	37.41
667.254	37.15
667.441	37.08
667.629	37.06
667.816	37.44
668.003	37.67
668.19	37.87
668.378	37.64
668.565	37.72
668.752	38.04
668.939	38.2
669.127	37.7
669.314	38.02
669.501	38.2
669.688	37.99
669.875	37.8
670.062	37.96
670.249	38.25
670.436	38.22
670.623	38.11
670.81	38.33
670.997	38.67
671.184	39.21
671.371	38.57
671.558	38.62
671.745	39.3
671.932	39.45
672.119	39.31
672.306	39.46
672.493	39.9
672.68	39.81
672.867	39.58
673.054	39.55
673.24	39.35
673.427	39.84
673.614	40.23
673.801	40.06
673.988	39.41
674.174	39.53
674.361	38.6
674.548	38.14
674.734	38.18
674.921	37.89
675.108	37.86
675.294	37.34
675.481	37.32
675.668	37.2
675.854	36.46
676.041	37.32
676.227	36.76
676.414	37.48
676.601	38
676.787	37.82
676.974	37.94
677.16	37.92
677.347	38.6
677.533	38.38
677.719	38.3
677.906	39.07
678.092	38.45
678.279	38.59
678.465	38.57
678.651	38.2
678.838	38.35
679.024	38.6
679.21	38.46
679.397	38.1
679.583	38.45
679.769	38.48
679.955	38.36
680.142	38.78
680.328	39.28
680.514	38.93
680.7	38.72
680.886	38.43
681.073	37.56
681.259	37.74
681.445	37.99
681.631	37.87
681.817	38.24
682.003	38.06
682.189	37.71
682.375	37.21
682.561	37.51
682.747	37.85
682.933	38.34
683.119	39.12
683.305	38.92
683.491	38.67
683.677	38.43
683.863	37.5
684.049	37.04
684.235	37.15
684.42	36.9
684.606	36.56
684.792	35.94
684.978	35.62
685.164	35.24
685.349	35.09
685.535	35.5
685.721	35.66
685.907	36.02
686.092	36.43
686.278	36.62
686.464	37.11
686.649	37.25
686.835	37.33
687.021	37.64
687.206	37.85
687.392	37.98
687.577	37.37
687.763	37.75
687.948	37.99
688.134	37.87
688.319	38.15
688.505	37.93
688.69	37.53
688.876	37.75
689.061	37.51
689.247	37.53
689.432	37.65
689.618	37.98
689.803	37.56
689.988	37.17
690.174	37.37
690.359	37.08
690.544	36.78
690.73	37.46
690.915	37.82
691.1	38.08
691.285	37.8
691.471	37.84
691.656	37.73
691.841	37.59
692.026	38.19
692.211	37.59
692.396	37.95
692.582	38.07
692.767	37.64
692.952	37.89
693.137	37.59
693.322	38.1
693.507	37.66
693.692	38
693.877	37.56
694.062	37.38
694.247	37.84
694.432	37.66
694.617	38.3
694.802	37.91
694.987	37.67
695.172	37.6
695.357	37.39
695.541	37.69
695.726	37.75
695.911	37.82
696.096	37.25
696.281	37.19
696.466	37.25
696.65	36.78
696.835	37.66
697.02	37.4
697.204	37.28
697.389	37.29
697.574	37.18
697.759	37.32
697.943	38.12
698.128	38.8
698.312	38.47
698.497	38.49
698.682	38.85
698.866	38.61
699.051	38.7
699.235	38.9
699.42	38.86
699.604	38.85
699.789	38.46
699.973	38.35
700.158	37.97
700.342	38.54
700.527	38.28
700.711	37.77
700.895	37.25
701.08	37.69
701.264	37.75
701.448	37.74
701.633	37.58
701.817	37.36
702.001	37.03
702.186	37.09
702.37	37.1
702.554	36.78
702.738	37.27
702.923	37.95
703.107	37.2
703.291	36.98
703.475	37.79
703.659	37.88
703.843	38.52
704.027	38.79
704.212	38.48
704.396	37.65
704.58	37.8
704.764	37.4
704.948	36.84
705.132	36.63
705.316	36.29
705.5	34.98
705.684	34.72
705.868	34.1
706.052	33.77
706.235	34.08
706.419	34.92
706.603	35.16
706.787	36.11
706.971	36.67
707.155	37.04
707.339	36.97
707.522	37.09
707.706	37.61
707.89	37.34
708.074	37.85
708.257	37.8
708.441	37.25
708.625	37.7
708.808	36.27
708.992	36.26
709.176	36.56
709.359	37.45
709.543	37.82
709.727	37.84
709.91	37.94
710.094	37.27
710.277	36.74
710.461	37.02
710.644	36.42
710.828	36.84
711.011	36.31
711.195	36.11
711.378	35.22
711.562	35.38
711.745	34.82
711.928	35.08
712.112	35.64
712.295	36.83
712.478	37.16
712.662	37.42
712.845	37.62
713.028	37.58
713.212	37.68
713.395	38.66
713.578	38.29
713.761	39.3
713.945	39.64
714.128	39.31
714.311	38.35
714.494	37.94
714.677	38.22
714.86	37.71
715.043	38.83
715.227	38.56
715.41	37.93
715.593	38.09
715.776	37.87
715.959	37.13
716.142	37.29
716.325	36.92
716.508	37.01
716.691	36.89
716.874	37.33
717.057	36.32
717.239	35.82
717.422	36.38
717.605	35.41
717.788	35.1
717.971	35.57
718.154	35.41
718.337	36.01
718.519	36.17
718.702	35.76
718.885	36.16
719.068	36.86
719.25	37.35
719.433	37.11
719.616	38.32
719.798	37.55
719.981	37.98
720.164	37.81
720.346	37.75
720.529	38.19
720.712	39.11
720.894	39.02
721.077	39.1
721.259	38.96
721.442	38.01
721.624	36.86
721.807	36.77
721.989	36.72
722.172	36.33
722.354	37.02
722.537	36.06
722.719	35.93
722.901	35.62
723.084	35.04
723.266	34.91
723.448	36.77
723.631	37.6
723.813	38.07
723.995	37.9
724.178	38.36
724.36	36.96
724.542	37.17
724.724	36.62
724.907	37
725.089	36.29
725.271	36.09
725.453	34.8
725.635	34.58
725.817	34.64
725.999	34.57
726.181	34.62
726.364	35.78
726.546	35.88
726.728	35.47
726.91	35.17
727.092	35.97
727.274	37.45
727.456	37.85
727.638	38.17
727.819	38.94
728.001	38.85
728.183	39.11
728.365	39.06
728.547	38.95
728.729	39.6
728.911	39.21
729.093	38.89
729.274	38.04
729.456	37.93
729.638	37.23
729.82	36.32
730.001	36.89
730.183	37.38
730.365	37.09
730.546	37.2
730.728	37.3
730.91	37.82
731.091	37.2
731.273	37.46
731.455	37.38
731.636	38.24
731.818	39.04
731.999	38.42
732.181	37.12
732.362	36.39
732.544	36.42
732.725	35.22
732.907	35.4
733.088	36.48
733.27	36.55
733.451	37.14
733.633	36.6
733.814	35.11
733.995	35.14
734.177	34.87
734.358	35.58
734.539	34.74
734.721	35.74
734.902	34.93
735.083	34.81
735.264	35.18
735.446	34.26
735.627	34.98
735.808	36.45
735.989	35.76
736.17	36.76
736.351	36.49
736.533	37.01
736.714	36.69
736.895	37.77
737.076	37.41
737.257	35.56
737.438	36.48
737.619	36.28
737.8	36.51
737.981	37.07
738.162	36.31
738.343	36.76
738.524	36.62
738.705	35.62
738.886	34.67
739.067	34.87
739.247	35.47
739.428	34.66
739.609	34.48
739.79	34.77
739.971	34.31
740.151	33.84
740.332	33.87
740.513	34.58
740.694	35.46
740.874	35.51
741.055	35.7
741.236	35.71
741.417	35.39
741.597	35.24
741.778	33.98
741.958	33.88
742.139	34.44
742.32	33.69
742.5	32.51
742.681	32.83
742.861	32.72
743.042	32.66
743.222	32.63
743.403	33.33
743.583	32.34
743.764	32.63
743.944	33.97
744.124	34.76
744.305	35.34
744.485	35.75
744.666	35.52
744.846	35.12
745.026	35.76
745.207	36.33
745.387	35.31
745.567	35.96
745.747	35.37
745.928	34.04
746.108	33.74
746.288	32.91
746.468	32.17
746.648	32.27
746.829	32.28
747.009	30.6
747.189	31.73
747.369	32.01
747.549	30.77
747.729	30.89
747.909	31.06
748.089	31.15
748.269	31.16
748.449	31.14
748.629	30.08
748.809	29.83
748.989	30.02
749.169	27.95
749.349	27.93
749.529	30.12
749.709	30.14
749.889	30.69
750.068	31.35
750.248	30.57
750.428	30.52
750.608	30.75
750.788	31.84
750.967	31.86
751.147	32.19
751.327	32.84
751.507	32.24
751.686	32.27
751.866	32.5
752.046	31.99
752.225	33.28
752.405	35.29
752.585	37
752.764	36.85
752.944	36.79
753.123	36.52
753.303	35.35
753.482	35.74
753.662	36.59
753.841	35.61
754.021	34.9
754.2	33.96
754.38	32.78
754.559	31.35
754.739	29.74
754.918	29.93
755.097	29.73
755.277	29.93
755.456	29.29
755.635	29.83
755.815	30.42
755.994	30.59
756.173	30.48
756.352	29.72
756.532	29.28
756.711	31.06
756.89	30.18
757.069	30.21
757.248	31.64
757.427	32.22
757.607	30.78
757.786	31.09
757.965	30.54
758.144	31.16
758.323	33.17
758.502	34.19
758.681	33.46
758.86	34.33
759.039	36.07
759.218	34.41
759.397	33.91
759.576	33.24
759.755	33.25
759.934	33.78
760.113	33.63
760.291	31.55
760.47	30.62
760.649	31.38
760.828	31.3
761.007	30.86
761.186	32.16
761.364	32.23
761.543	33.61
761.722	33.74
761.901	34.21
762.079	34.18
762.258	34.6
762.437	35.26
762.615	34.49
762.794	34.82
762.972	34.45
763.151	34.19
763.33	34.58
763.508	35.3
763.687	34.41
763.865	34.38
764.044	34.53
764.222	34.32
764.401	34.13
764.579	33.8
764.758	33.94
764.936	33.13
765.114	33.05
765.293	31.96
765.471	30.78
765.65	31.17
765.828	30.81
766.006	30.84
766.184	31.22
766.363	29.68
766.541	31.37
766.719	30.5
766.898	31.14
767.076	31.17
767.254	32.56
767.432	32.99
767.61	33.68
767.788	34.08
767.967	33
768.145	33.05
768.323	34.53
768.501	34.93
768.679	36.07
768.857	36.03
769.035	35.65
769.213	35.26
769.391	35.73
769.569	34.35
769.747	34.4
769.925	35.24
770.103	35.45
770.281	36.62
770.459	34.99
770.636	34.36
770.814	33.09
770.992	32.47
771.17	32.77
771.348	31.45
771.525	31.89
771.703	30.39
771.881	32.06
772.059	32.99
772.236	31.97
772.414	30.07
772.592	31.31
772.769	33.3
772.947	32.92
773.125	30.81
773.302	30.48
773.48	32.1
773.657	31.92
773.835	29.32
774.013	27.63
774.19	28.52
774.368	28.8
774.545	29.24
774.723	27.44
774.9	27.44
775.077	28.72
775.255	30.41
775.432	28.56
775.61	27.97
775.787	28.88
775.964	27.68
776.142	23.08
776.319	22.85
776.496	20.61
776.674	22.6
776.851	23.82
777.028	23.68
777.205	22.96
777.382	24.01
777.56	26.07
777.737	25.7
777.914	26.08
778.091	29.53
778.268	31.86
778.445	33.76
778.622	34.57
778.8	35.09
778.977	36.35
779.154	36.72
779.331	36.18
779.508	37
779.685	37.12
779.862	38.21
780.038	36.73
780.215	35.78
780.392	35.51
780.569	34.97
780.746	34.09
780.923	33.46
781.1	34.73
781.277	34.92
781.453	33.87
781.63	33.81
781.807	33.76
781.984	34.13
782.16	34.68
782.337	33.35
782.514	33.46
782.691	33.95
782.867	32.78
783.044	32.23
783.221	32.69
783.397	33.48
783.574	33.85
783.75	32.91
783.927	34.21
784.103	36.63
784.28	37.18
784.456	36.81
784.633	36.37
784.809	37.24
784.986	36.4
785.162	33.07
785.339	32.83
785.515	32.04
785.692	30.17
785.868	25.16
786.044	22.44
786.221	25.01
786.397	24.9
786.573	23.28
786.749	22.97
786.926	22.66
787.102	23.39
787.278	21.42
787.454	22.06
787.631	25.77
787.807	29.91
787.983	30.72
788.159	26.51
788.335	26.77
788.511	29.2
788.687	30.08
788.863	30.36
789.039	33.63
789.216	34.12
789.392	35.69
789.568	35.44
789.744	35.25
789.919	33.95
790.095	34.78
790.271	34.24
790.447	32.02
790.623	31.44
790.799	31.83
790.975	31.13
791.151	32.65
791.327	31.22
791.502	31.17
791.678	29.67
791.854	30.39
792.03	30.56
792.205	31.42
792.381	30.92
792.557	29.44
792.733	26.91
792.908	24.26
793.084	22.9
793.259	24.01
793.435	21.27
793.611	23.05
793.786	22.74
793.962	25.24
794.137	24.35
794.313	27.67
794.488	31.2
794.664	33.59
794.839	32.24
795.015	34.85
795.19	33.41
795.366	34.98
795.541	35.13
795.716	34.76
795.892	34.87
796.067	36.46
796.242	36.24
796.418	33.96
796.593	32.14
796.768	35.86
796.944	37.34
797.119	36.99
797.294	38.56
797.469	39.53
797.644	38.21
797.82	34.97
797.995	31.89
798.17	31.54
798.345	31.68
798.52	29.56
798.695	26.95
798.87	22.28
799.045	22.54
799.22	21.06
799.395	16.29
799.57	19.58
799.745	21.91
799.92	22.93
800.095	21.66
800.27	21.71
800.445	23.4
800.62	27.25
800.795	30.08
800.97	27.79
801.145	26.82
801.319	28.5
801.494	25.88
801.669	25.11
801.844	23.51
802.018	24.9
802.193	26.16
802.368	27.69
802.543	23.13
802.717	22.04
802.892	25.43
803.067	24.93
803.241	26.08
803.416	26.89
803.59	24.2
803.765	28.41
803.94	25.85
804.114	26.76
804.289	24.69
804.463	27.92
804.638	27.22
804.812	26.67
804.986	28.84
805.161	29.24
805.335	24.24
805.51	26.61
805.684	22.62
805.858	22.5
806.033	21.81
806.207	25.21
806.381	23.71
806.556	26.54
806.73	26.84
806.904	24.89
807.078	23.79
807.253	26.14
807.427	26.2
807.601	26.92
807.775	26.6
807.949	26.55
808.123	22.81
808.298	22.87
808.472	19.36
808.646	21.73
808.82	22.36
808.994	22.74
809.168	26.25
809.342	25.21
809.516	29.64
809.69	33.14
809.864	30.11
810.038	31.62
810.212	33.71
810.385	35.82
810.559	30.41
810.733	27.49
810.907	28.4
811.081	26.7
811.255	29.45
811.428	27.85
811.602	22.42
811.776	25.8
811.95	27.57
812.123	26.6
812.297	24.63
812.471	27.9
812.644	29.1
812.818	28.01
812.992	32.86
813.165	28.95
813.339	28.3
813.512	30.1
813.686	26.09
813.86	24.29
814.033	22.74
814.207	23.35
814.38	20.96
814.554	24.51
814.727	26.53
814.9	20.58
815.074	23.57
815.247	19.24
815.421	20.37
815.594	21.02
815.767	18.48
815.941	18.32
816.114	16.72
816.287	20.8
816.46	21.5
816.634	16.77
816.807	21.11
816.98	21.4
817.153	27.72
817.327	31.77
817.5	33.56
817.673	33.51
817.846	34.74
818.019	35.67
818.192	33.6
818.365	26.45
818.538	29.43
818.711	28.98
818.884	24.17
819.057	21.31
819.23	18.23
819.403	17.66
819.576	23.13
819.749	22.58
819.922	21.56
820.095	22.53
820.268	25.12
820.441	24.06
820.614	23.84
820.786	26.88
820.959	28.62
821.132	29.17
821.305	28.42
821.477	29.12
821.65	29.13
821.823	29.29
821.996	30.5
822.168	30.62
822.341	31.36
822.514	31.47
822.686	31.4
822.859	31.75
823.031	31.89
823.204	32.39
823.376	31.59
823.549	32.56
823.722	32.68
823.894	32.57
824.067	33.52
824.239	32.78
824.411	32.79
824.584	33.24
824.756	33.28
824.929	33.45
825.101	33.16
825.273	33.34
825.446	33.8
825.618	33.31
825.79	33.12
825.963	31.75
826.135	33.45
826.307	33.69
826.479	33.09
826.652	33.52
826.824	33.87
826.996	34.9
827.168	35.07
827.34	33.25
827.512	33.92
827.684	34.22
827.856	34.25
828.029	33.67
828.201	34.74
828.373	35.04
828.545	34.08
828.717	33.25
828.889	31.94
829.061	32.06
829.232	32.17
829.404	29.73
829.576	29.03
829.748	28.6
829.92	27.66
830.092	25.77
830.264	26.24
830.436	24.28
830.607	23.06
830.779	24.8
830.951	24.55
831.123	24.71
831.294	25.55
831.466	23.88
831.638	22.56
831.809	23.38
831.981	20.75
832.153	19.57
832.324	15.49
832.496	16.88
832.667	12.07
832.839	10.15
833.011	8.31
833.182	15.28
833.354	14.12
833.525	17.71
833.697	19.16
833.868	21.29
834.039	20.55
834.211	22.36
834.382	21.38
834.554	23.12
834.725	22.7
834.896	23.93
835.068	24.11
835.239	25.86
835.41	26.9
835.581	26.96
835.753	25.4
835.924	25.98
836.095	27.4
836.266	28.33
836.438	28.33
836.609	29.66
836.78	29.54
836.951	26.36
837.122	23.76
837.293	19.89
837.464	21.41
837.635	22.41
837.806	22.97
837.977	23.95
838.148	25.37
838.319	24.8
838.49	25.09
838.661	26.76
838.832	23.69
839.003	25.03
839.174	29.2
839.345	23.72
839.516	24.91
839.687	21.09
839.857	18.03
840.028	16.88
840.199	16.49
840.37	16.11
840.54	6.98
840.711	13.24
840.882	14.96
841.053	8.19
841.223	7.61
841.394	8.61
841.564	16.93
841.735	17.62
841.906	14.19
842.076	10.13
842.247	0.3
842.417	6.33
842.588	4.98
842.758	10.04
842.929	13.72
843.099	17.9
843.27	13.29
843.44	0.95
843.611	0.81
843.781	-1.46
843.951	4.02
844.122	11.55
844.292	17.74
844.462	16.79
844.633	6.68
844.803	-1.05
844.973	-9.3
845.144	-8.34
845.314	1.51
845.484	-6.85
845.654	-3.64
845.824	4.96
845.995	4.72
846.165	0.66
846.335	2.8
846.505	12.58
846.675	14.56
846.845	23.63
847.015	27.34
847.185	24.96
847.355	35.05
847.525	28.14
847.695	21.31
847.865	10.6
848.035	4.65
848.205	9.4
848.375	4.45
848.545	18.56
848.715	13.98
848.884	-5.08
849.054	-2.05
849.224	-10.4
849.394	-10.59
849.564	-26.09
849.733	-6.72
849.903	-13.94
850.073	-11.06
850.243	-8.34
850.412	-14.92
850.582	-8.05
850.752	8.5
850.921	-14.8
851.091	-31.16
851.26	-7.7
851.43	-3.26
851.599	-15.91
851.769	-5.17
851.939	-3.19
852.108	-12.32
852.278	-13.22
852.447	-4.61
852.616	1.27
852.786	7.35
852.955	12.58
853.125	5.2
853.294	5.41
853.463	16.85
853.633	15.59
853.802	14.19
853.971	21.68
854.141	26.16
854.31	17.5
854.479	12.52
854.648	8.85
854.818	12.68
854.987	10.3
855.156	16.25
855.325	9.61
855.494	11.15
855.663	10.32
855.832	6.56
856.001	-2.29
856.171	-3.19
856.34	-12.86
856.509	-14.68
856.678	-20.2
856.847	-18.29
857.016	-29.03
857.185	-42.25
857.353	-55.39
857.522	-48.48
857.691	-38.54
857.86	-24.04
858.029	-15.89
858.198	6.76
858.367	-0.25
858.535	-5.51
858.704	10.52
858.873	17.39
859.042	23.03
859.21	27.4
859.379	26.23
859.548	29.85
859.717	12.43
859.885	17.81
860.054	18.16
860.222	38.5
860.391	49.04
860.56	52.7
860.728	50.43
860.897	28.16
861.065	5.09
861.234	-7.68
861.402	-41.22
861.571	-5.53
861.739	-18.45
861.908	-16.56
862.076	-35.4
862.244	-58.29
862.413	-75.21
862.581	-71.72
862.749	-63.1
862.918	-54.46
863.086	-28.81
863.254	-33.14
863.423	-57.14
863.591	-43.91
863.759	-47.95
863.927	-8.9
864.096	11.17
864.264	19.8
864.432	2.54
864.6	0.82
864.768	10.34
864.936	-5.33
865.104	-5.78
865.272	1.74
865.44	-5.42
865.608	-13.36
865.776	-34.63
865.944	-24.58
866.112	-16.33
866.28	-2.41
866.448	13.43
866.616	1.49
866.784	-1.76
866.952	25.67
867.12	28.99
867.288	34.46
867.455	25.65
867.623	35.72
867.791	20.86
867.959	17.9
868.127	32.72
868.294	-8.95
868.462	-23.7
868.63	-25.03
868.797	-48.26
868.965	-66.56
869.133	-44.85
869.3	-24.7
869.468	-40.12
869.636	-49.17
869.803	-48.4
869.971	-47.78
870.138	-30.63
870.306	-10.53
870.473	-8.69
870.641	-22.16
870.808	-37.93
870.975	-75.02
871.143	-86.91
871.31	-79.98
871.478	-34.21
871.645	-41.28
871.812	-40.52
871.98	-12.46
872.147	-22
872.314	-13.45
872.482	-2.58
872.649	5.97
872.816	2.29
872.983	4.64
873.15	9.5
873.318	0.57
873.485	-0.21
873.652	-14.52
873.819	-29.65
873.986	-18.88
874.153	-21.75
874.32	-30.88
874.487	-20.37
874.654	9.61
874.821	6.18
874.988	5.82
875.155	4.2
875.322	3.37
875.489	8.09
875.656	8.36
875.823	7.62
875.99	10.05
876.157	6.82
876.324	-37.56
876.49	-128.23
876.657	-67.68
876.824	-141.1
876.991	-112.08
877.157	-66.4
877.324	-27.35
877.491	-11.1
877.658	5.36
877.824	13.67
877.991	28.5
878.157	28.2
878.324	33.67
878.491	19.87
878.657	22.08
878.824	0.62
878.99	-6.98
879.157	-25.92
879.323	-17.97
879.49	-35.87
879.656	-33.42
879.823	-26.52
879.989	-18.78
880.156	-36.2
880.322	-20.21
880.488	-14.47
880.655	-7.78
880.821	4.69
880.987	6.84
881.154	5.93
881.32	5.29
881.486	12.99
881.652	12.17
881.819	17.21
881.985	18.07
882.151	17.78
882.317	16.11
882.483	15.74
882.649	16.57
882.816	19.76
882.982	17.12
883.148	16.94
883.314	14.46
883.48	17
883.646	15.65
883.812	18.49
883.978	21.36
884.144	22.46
884.31	28.18
884.476	25.46
884.642	26.35
884.807	29.26
884.973	28.43
885.139	29.15
885.305	28.66
885.471	30.3
885.637	29.61
885.802	25.77
885.968	25.83
886.134	20.36
886.3	26.19
886.465	24.14
886.631	22.31
886.797	24.8
886.962	21.9
887.128	19.15
887.293	16.28
887.459	17.74
887.625	13.08
887.79	13.26
887.956	13.87
888.121	4.46
888.287	2.32
888.452	-2.75
888.618	5.56
888.783	6.99
