Data from 2938073_Reflection_3.txt Node
Date: Sat Jul 11 20:32:11 EDT 2015
User: robert
Spectrometer: USB4E03001
Autoset integration time: false
Trigger mode: 4
Integration Time (sec): 1.000000E-1
Scans to average: 10
Electric dark correction enabled: true
Nonlinearity correction enabled: false
Boxcar width: 5
Stray light correction enabled: false
XAxis mode: Wavelengths
Stop averaging: false
Number of Pixels in Spectrum: 3648
>>>>>Begin Spectral Data<<<<<
177.566	5.51
177.785	-82.08
178.005	19.36
178.225	46.21
178.445	46.48
178.665	-24.71
178.885	-30.4
179.105	16.21
179.324	-73.71
179.544	196.06
179.764	77.94
179.984	74.58
180.204	38.1
180.423	179.24
180.643	124.84
180.863	114.19
181.083	161.21
181.302	311.16
181.522	349.93
181.742	327.06
181.961	770.88
182.181	-1847.09
182.401	448.59
182.621	227.51
182.84	164.91
183.06	453.6
183.279	2033.23
183.499	288.24
183.719	274.64
183.938	228.09
184.158	295.17
184.377	268.53
184.597	246.38
184.816	321.99
185.036	753.6
185.256	496.78
185.475	134.91
185.695	172.66
185.914	235.86
186.134	189.41
186.353	198.45
186.572	247.1
186.792	319.13
187.011	356.01
187.231	228.03
187.45	260.3
187.67	251.97
187.889	267.27
188.108	282.48
188.328	257.49
188.547	379.48
188.766	266.06
188.986	368.15
189.205	165.94
189.424	140.24
189.644	169.09
189.863	164.4
190.082	178.39
190.302	220.14
190.521	177.73
190.74	152.03
190.959	122.06
191.178	147.88
191.398	142.4
191.617	148.98
191.836	172.16
192.055	312.57
192.274	211.7
192.494	184.13
192.713	176.95
192.932	175.12
193.151	177.13
193.37	215.23
193.589	216.39
193.808	194.64
194.027	166.72
194.246	189.3
194.465	157.17
194.685	183.83
194.904	170.83
195.123	161.15
195.342	201.13
195.561	221.61
195.78	179.73
195.999	165.67
196.218	148.02
196.436	126.76
196.655	88.74
196.874	95.29
197.093	101.37
197.312	72.45
197.531	74.53
197.75	42.78
197.969	40.02
198.188	-2.88
198.407	-65.01
198.625	-74.52
198.844	-26.12
199.063	-5.77
199.282	-274.64
199.501	-181.71
199.719	100.39
199.938	74.47
200.157	54.92
200.376	-26.22
200.594	168.28
200.813	3352.22
201.032	-226.49
201.251	-61.04
201.469	-8.59
201.688	-126
201.907	-144.71
202.125	627.31
202.344	3655.56
202.563	581.78
202.781	338.22
203	-903.21
203.218	167.82
203.437	137.26
203.656	96.85
203.874	118.1
204.093	82.33
204.311	108.91
204.53	100.65
204.748	95.16
204.967	87.11
205.185	76.04
205.404	71.55
205.622	73.01
205.841	62.61
206.059	50.86
206.278	44.02
206.496	52.13
206.715	44.59
206.933	62.12
207.151	70.49
207.37	71.69
207.588	119.91
207.806	157.56
208.025	197.7
208.243	207.63
208.461	221.07
208.68	200.62
208.898	226.35
209.116	240.38
209.335	228.61
209.553	164.84
209.771	230.87
209.989	120.14
210.208	116.16
210.426	106.32
210.644	-2.75
210.862	-87.32
211.081	-30.85
211.299	-92.57
211.517	-372.9
211.735	-536.49
211.953	-404.93
212.171	1042.9
212.39	-227.21
212.608	-388.89
212.826	-7560.87
213.044	441.27
213.262	439.62
213.48	209.03
213.698	80.06
213.916	55.5
214.134	57.52
214.352	81.84
214.57	615.44
214.788	28.19
215.006	-9
215.224	-53.37
215.442	-92.7
215.66	-69.49
215.878	-75.34
216.096	3.24
216.314	2.67
216.532	57.39
216.75	44.6
216.968	26.81
217.185	192.96
217.403	231.62
217.621	727.92
217.839	242.65
218.057	177.89
218.275	166.04
218.492	168.44
218.71	134.27
218.928	102.76
219.146	92.53
219.363	90.99
219.581	75.74
219.799	86.53
220.017	87.12
220.234	96.34
220.452	98.57
220.67	95.62
220.887	83.89
221.105	67.68
221.323	92.96
221.54	80.06
221.758	63.07
221.976	82.04
222.193	83.51
222.411	75.6
222.629	52.44
222.846	54.39
223.064	64.24
223.281	83.94
223.499	88.71
223.716	66.79
223.934	69.53
224.151	74.52
224.369	65.4
224.586	49.25
224.804	50.82
225.021	44.92
225.239	41.15
225.456	30.44
225.674	20.65
225.891	32.84
226.108	28.95
226.326	24.09
226.543	29.47
226.76	34.65
226.978	33.73
227.195	29.62
227.413	33.19
227.63	33.1
227.847	30.89
228.064	30.32
228.282	21.87
228.499	16.34
228.716	16.64
228.934	13.03
229.151	10.16
229.368	7.79
229.585	6.88
229.802	7.81
230.02	5.6
230.237	4.5
230.454	1.88
230.671	3.24
230.888	5.73
231.105	4.37
231.323	3.59
231.54	4.78
231.757	7.08
231.974	6.3
232.191	10.12
232.408	10.37
232.625	12.88
232.842	12.65
233.059	11.89
233.276	15.83
233.493	18.13
233.71	17.76
233.927	21.88
234.144	21.96
234.361	26.35
234.578	23.03
234.795	25.06
235.012	23.53
235.229	26.05
235.446	26.64
235.663	26.91
235.879	24.49
236.096	23.39
236.313	17.88
236.53	16.81
236.747	16.11
236.964	15.05
237.181	14.53
237.397	19.22
237.614	20.5
237.831	20.97
238.048	22.25
238.264	21.65
238.481	23.77
238.698	29.43
238.915	31.74
239.131	31.89
239.348	29.65
239.565	26.58
239.781	23.36
239.998	24.31
240.215	22.5
240.431	19.62
240.648	19.82
240.865	22.12
241.081	17.67
241.298	16.51
241.514	12.94
241.731	12.5
241.947	12.15
242.164	12.21
242.38	11.09
242.597	10.83
242.814	10.27
243.03	10.1
243.246	9.9
243.463	10.97
243.679	10.88
243.896	13.66
244.112	14.41
244.329	16.04
244.545	15.02
244.762	14.9
244.978	14.86
245.194	15.1
245.411	16.85
245.627	13.63
245.843	13.01
246.06	11.56
246.276	10.19
246.492	9.54
246.709	9.05
246.925	8.72
247.141	8.79
247.357	8.88
247.574	8.9
247.79	8.52
248.006	8.85
248.222	8.41
248.439	8.82
248.655	8.17
248.871	8.03
249.087	8.28
249.303	9.8
249.519	10.34
249.736	10.52
249.952	11.07
250.168	9.8
250.384	11.94
250.6	13.78
250.816	14.31
251.032	14.01
251.248	14.81
251.464	13.74
251.68	12.11
251.896	11.82
252.112	12.43
252.328	11.9
252.544	13.27
252.76	10.94
252.976	10.48
253.192	10.18
253.408	11.31
253.624	11.83
253.84	11.68
254.056	12.12
254.272	12.39
254.487	12.89
254.703	13.32
254.919	11.96
255.135	12.76
255.351	10.14
255.567	7.6
255.782	8.69
255.998	6.69
256.214	9.67
256.43	8.39
256.646	7.39
256.861	7.43
257.077	6.68
257.293	8.66
257.508	9.53
257.724	10.78
257.94	12.9
258.155	11.92
258.371	11.89
258.587	9.84
258.802	10.32
259.018	9.78
259.234	9.09
259.449	8.68
259.665	7.46
259.88	7
260.096	6.86
260.312	6.06
260.527	6.31
260.743	6.8
260.958	6.75
261.174	6.07
261.389	6.62
261.605	6.41
261.82	6.83
262.036	7.72
262.251	8.86
262.466	9.32
262.682	10.56
262.897	10.63
263.113	10.6
263.328	12.75
263.543	13.47
263.759	12.62
263.974	14.02
264.189	14.8
264.405	14.59
264.62	12.81
264.835	12.24
265.051	10.69
265.266	11.5
265.481	9.7
265.696	7.33
265.912	6.21
266.127	6.31
266.342	4.3
266.557	3.66
266.773	4.04
266.988	4.56
267.203	4.65
267.418	5.92
267.633	4.83
267.848	4.53
268.064	5.84
268.279	7.12
268.494	9.58
268.709	11.06
268.924	9.97
269.139	8.76
269.354	8.6
269.569	7.76
269.784	6.77
269.999	6.03
270.214	6.91
270.429	6.31
270.644	7.06
270.859	4.19
271.074	4.69
271.289	6.79
271.504	7.47
271.719	6.64
271.934	7.78
272.149	9.19
272.363	10.16
272.578	9.78
272.793	9.34
273.008	8.19
273.223	9.44
273.438	9.69
273.653	9.08
273.867	8.64
274.082	9.55
274.297	8.32
274.512	6.79
274.726	6.09
274.941	7.26
275.156	8.46
275.371	7
275.585	7.27
275.8	6.05
276.015	6.12
276.229	5.07
276.444	5.59
276.659	6.88
276.873	7.48
277.088	7.49
277.302	7.75
277.517	7.78
277.732	10.83
277.946	9.5
278.161	8.63
278.375	7.46
278.59	9.61
278.804	9.8
279.019	8.67
279.233	8.07
279.448	8.77
279.662	8.31
279.877	6.7
280.091	5.72
280.306	6.43
280.52	6.15
280.735	6.86
280.949	7.83
281.163	7.41
281.378	8.9
281.592	9.78
281.806	8.93
282.021	8.23
282.235	8.64
282.449	9.34
282.664	8.14
282.878	10.03
283.092	10.33
283.307	8.79
283.521	8.67
283.735	7.21
283.949	6.47
284.164	6.99
284.378	6.96
284.592	7.46
284.806	7.44
285.02	8.14
285.234	7.53
285.449	7.77
285.663	7.67
285.877	7.94
286.091	8.71
286.305	9.11
286.519	9.23
286.733	9.6
286.947	9.94
287.161	10.45
287.375	11.22
287.589	9.83
287.803	9.13
288.017	10.05
288.231	10.08
288.445	10.43
288.659	10.36
288.873	9.43
289.087	9.29
289.301	8.23
289.515	7.29
289.729	6.89
289.943	8.71
290.157	9.18
290.371	9.1
290.584	8.42
290.798	7.82
291.012	7.36
291.226	9.11
291.44	9.63
291.654	9.46
291.867	9.41
292.081	8.42
292.295	8.55
292.509	8.37
292.722	8.32
292.936	8.81
293.15	9.75
293.364	10.28
293.577	8.85
293.791	8.23
294.005	8.49
294.218	8.96
294.432	9.55
294.645	7.46
294.859	7.83
295.073	8.08
295.286	8.5
295.5	8.36
295.713	7.82
295.927	7.33
296.14	7.54
296.354	8.38
296.568	8.2
296.781	8.82
296.994	8.99
297.208	9.33
297.421	8.99
297.635	8.85
297.848	8.78
298.062	8.85
298.275	10.52
298.489	11.75
298.702	11.11
298.915	10.42
299.129	10.64
299.342	11.52
299.555	11.18
299.769	12.16
299.982	11.69
300.195	11.03
300.409	12.31
300.622	10.76
300.835	9.8
301.048	10.65
301.262	11.53
301.475	10.8
301.688	9.95
301.901	9.4
302.115	7.93
302.328	8.56
302.541	8.9
302.754	7.73
302.967	7.95
303.18	6.94
303.393	6.54
303.607	6.59
303.82	6.25
304.033	6.98
304.246	7.71
304.459	9.55
304.672	8.22
304.885	8.8
305.098	9.38
305.311	9.24
305.524	10.06
305.737	10.09
305.95	11.63
306.163	10.17
306.376	11.64
306.589	11.18
306.802	10.85
307.015	14.21
307.228	14.77
307.44	13.88
307.653	15.27
307.866	15.05
308.079	13.67
308.292	12.17
308.505	14.88
308.718	14.56
308.93	15.08
309.143	14.53
309.356	13.31
309.569	12.98
309.781	12.98
309.994	12.24
310.207	12.49
310.42	13.74
310.632	15.13
310.845	15.11
311.058	14.37
311.27	13.73
311.483	13.53
311.696	13.3
311.908	13.27
312.121	14.11
312.333	14.27
312.546	15.03
312.759	14.91
312.971	13.57
313.184	13.1
313.396	13.64
313.609	14.65
313.821	15.52
314.034	15.44
314.246	16.62
314.459	16.36
314.671	16.13
314.884	14.46
315.096	15.33
315.309	15.77
315.521	16.26
315.733	16.74
315.946	16.81
316.158	17.22
316.371	17.03
316.583	15.36
316.795	15.61
317.008	15.05
317.22	15.96
317.432	16.55
317.644	17.24
317.857	16.48
318.069	16.36
318.281	15.91
318.494	16.04
318.706	17.2
318.918	18.74
319.13	19.51
319.342	21.02
319.555	20.75
319.767	18.58
319.979	17.98
320.191	18.73
320.403	18.44
320.615	19.29
320.827	18.61
321.039	17.78
321.252	17.89
321.464	18.48
321.676	17.37
321.888	18.13
322.1	18.98
322.312	18.98
322.524	17.67
322.736	17.9
322.948	17.36
323.16	17.43
323.372	16.69
323.584	15.52
323.796	14.4
324.007	14.61
324.219	14.06
324.431	16.23
324.643	15.35
324.855	16.64
325.067	16.96
325.279	16.23
325.491	15.82
325.702	18.09
325.914	19.49
326.126	18.89
326.338	19.3
326.55	18.95
326.761	17.06
326.973	17.77
327.185	16.68
327.396	16.66
327.608	19.18
327.82	18.76
328.032	16.97
328.243	16.24
328.455	16.97
328.666	17.09
328.878	19.59
329.09	19.38
329.301	20.11
329.513	21.45
329.725	21.36
329.936	19.1
330.148	20.62
330.359	23.3
330.571	23.94
330.782	23.43
330.994	22.39
331.205	20.01
331.417	21.46
331.628	22.57
331.84	23.84
332.051	23.85
332.262	25.17
332.474	26.14
332.685	25.53
332.897	24.9
333.108	27.12
333.319	29.63
333.531	30.75
333.742	31.2
333.953	30.8
334.165	30.27
334.376	32.56
334.587	33.6
334.799	33.53
335.01	32.67
335.221	33.04
335.432	32.65
335.644	32.81
335.855	32.83
336.066	33.29
336.277	32.84
336.488	32.35
336.7	29.45
336.911	28.34
337.122	28.28
337.333	29.54
337.544	29.49
337.755	29.22
337.966	28.78
338.177	29.8
338.388	29.22
338.599	29.65
338.811	30.25
339.022	32.43
339.233	32.8
339.444	33.82
339.655	33.24
339.866	34.91
340.076	35.92
340.287	36.06
340.498	34.99
340.709	34.14
340.92	34.65
341.131	35.41
341.342	34.67
341.553	35.81
341.764	35.46
341.975	35.76
342.185	35.12
342.396	34.73
342.607	34.82
342.818	35.04
343.029	36.13
343.239	36
343.45	35.76
343.661	36.19
343.872	34.17
344.082	33.5
344.293	34.03
344.504	35.08
344.714	34.93
344.925	34.98
345.136	34.76
345.346	35.72
345.557	35.77
345.768	35.27
345.978	36.27
346.189	37.7
346.399	37.6
346.61	37.36
346.821	35.56
347.031	35.47
347.242	35.32
347.452	35.64
347.663	34.38
347.873	34.12
348.084	34.81
348.294	34.18
348.504	33.77
348.715	33.67
348.925	33.66
349.136	33.47
349.346	33.65
349.557	34.32
349.767	34.67
349.977	34.5
350.188	33.79
350.398	33.58
350.608	32.81
350.819	33.02
351.029	33.83
351.239	33.64
351.449	34.56
351.66	34.34
351.87	33.24
352.08	32.08
352.29	33.02
352.501	33.21
352.711	33.01
352.921	33.62
353.131	33.32
353.341	32.1
353.552	31.86
353.762	31.72
353.972	31.64
354.182	31.68
354.392	32.85
354.602	32.55
354.812	32.43
355.022	32.12
355.232	31.98
355.442	31.91
355.652	32.66
355.862	32.14
356.072	32.55
356.282	32.5
356.492	33.27
356.702	33.28
356.912	33.9
357.122	34.34
357.332	34.8
357.542	34.8
357.752	34.75
357.962	35.05
358.171	35.74
358.381	34.66
358.591	34.1
358.801	33.88
359.011	34.26
359.221	33.47
359.43	33.72
359.64	33.05
359.85	32.35
360.06	32.45
360.269	32.17
360.479	31.08
360.689	31.49
360.899	32.56
361.108	32.45
361.318	31.25
361.528	31.26
361.737	31.28
361.947	31.79
362.156	32.16
362.366	32.44
362.576	32.06
362.785	32.45
362.995	32.38
363.204	31.74
363.414	31.68
363.623	32.35
363.833	31.89
364.042	31.13
364.252	30.86
364.461	31.1
364.671	30.34
364.88	30.57
365.09	31.13
365.299	31.38
365.509	31.02
365.718	31.2
365.927	30.8
366.137	31.22
366.346	31.6
366.555	32.03
366.765	31.21
366.974	31.5
367.183	31.23
367.393	30.58
367.602	30.22
367.811	30.92
368.021	30.61
368.23	30.15
368.439	30.68
368.648	31.42
368.857	31.02
369.067	31.42
369.276	31.2
369.485	31.16
369.694	31.59
369.903	31.6
370.112	31.19
370.321	30.53
370.531	30.69
370.74	30.07
370.949	28.46
371.158	28.71
371.367	28.82
371.576	28.72
371.785	28.98
371.994	28.83
372.203	29.17
372.412	29.28
372.621	29.63
372.83	29.88
373.039	29.89
373.248	30.65
373.457	30.13
373.666	30.16
373.874	30.33
374.083	29.94
374.292	29.54
374.501	28.79
374.71	28.28
374.919	28.53
375.128	28.66
375.336	27.94
375.545	28.03
375.754	28.12
375.963	27.46
376.171	27.14
376.38	27.7
376.589	28.14
376.798	27.94
377.006	28.16
377.215	27.09
377.424	26.3
377.632	26.25
377.841	25.54
378.05	25.31
378.258	25.35
378.467	25.14
378.675	24.46
378.884	23.96
379.093	24.37
379.301	24.22
379.51	24.88
379.718	24.98
379.927	25.37
380.135	25
380.344	24.83
380.552	25
380.761	25.48
380.969	25.44
381.177	24.92
381.386	25.26
381.594	25.33
381.803	25.06
382.011	25.57
382.219	25.39
382.428	26.15
382.636	26.26
382.845	26.19
383.053	25.41
383.261	25.07
383.469	25.33
383.678	24.46
383.886	24.22
384.094	24.43
384.302	23.72
384.511	23.69
384.719	22.98
384.927	22.77
385.135	22.63
385.343	22.73
385.552	22.96
385.76	22.62
385.968	22.59
386.176	22.51
386.384	22.41
386.592	22.67
386.8	22.58
387.008	22.73
387.216	22.41
387.424	22.23
387.633	22
387.841	21.62
388.049	21.62
388.257	21.57
388.465	21.33
388.672	20.97
388.88	20.73
389.088	20.34
389.296	20.38
389.504	21.08
389.712	20.67
389.92	21.06
390.128	21.25
390.336	21.2
390.544	20.99
390.751	20.91
390.959	20.82
391.167	20.48
391.375	20.65
391.583	20.37
391.79	19.96
391.998	20.18
392.206	20.08
392.414	19.93
392.621	20.03
392.829	19.92
393.037	20.15
393.244	20.12
393.452	20.12
393.66	20.05
393.867	20.11
394.075	20.1
394.283	20.15
394.49	19.9
394.698	20.12
394.905	20.15
395.113	20.17
395.32	19.61
395.528	19.81
395.735	20.11
395.943	19.99
396.15	20.03
396.358	20.04
396.565	20.23
396.773	20.5
396.98	20.36
397.188	19.96
397.395	20.07
397.602	20.41
397.81	20.38
398.017	20.61
398.225	20.62
398.432	20.51
398.639	20.32
398.847	20.48
399.054	20.13
399.261	20.2
399.468	20.61
399.676	20.28
399.883	20.4
400.09	20.21
400.297	20.17
400.505	20.24
400.712	20.36
400.919	20.37
401.126	19.88
401.333	19.91
401.54	19.61
401.748	19.16
401.955	19.67
402.162	19.5
402.369	19.56
402.576	19.39
402.783	19.62
402.99	19.69
403.197	19.46
403.404	19.53
403.611	19.45
403.818	19.35
404.025	19.71
404.232	19.48
404.439	19.48
404.646	19.64
404.853	19.55
405.06	19.52
405.267	19.61
405.474	19.74
405.681	19.69
405.887	19.63
406.094	20.1
406.301	20.19
406.508	20.31
406.715	20.21
406.922	20.15
407.128	20.06
407.335	19.84
407.542	19.93
407.749	19.94
407.955	19.9
408.162	20.12
408.369	19.9
408.575	19.53
408.782	19.48
408.989	19.66
409.195	19.45
409.402	19.52
409.609	19.67
409.815	19.72
410.022	20.04
410.228	19.94
410.435	20.01
410.642	19.96
410.848	20.07
411.055	20.23
411.261	20.19
411.468	20.2
411.674	20.01
411.881	19.74
412.087	19.46
412.294	18.89
412.5	18.98
412.706	18.86
412.913	18.91
413.119	18.87
413.326	18.49
413.532	18.31
413.738	18.47
413.945	18.76
414.151	18.86
414.357	18.69
414.564	18.89
414.77	18.68
414.976	18.7
415.182	18.63
415.389	18.59
415.595	18.95
415.801	19.18
416.007	18.89
416.214	18.72
416.42	18.72
416.626	18.82
416.832	18.76
417.038	18.78
417.244	18.57
417.45	18.62
417.657	18.72
417.863	18.51
418.069	18.25
418.275	18.33
418.481	18.35
418.687	18.33
418.893	18.44
419.099	18.33
419.305	18.31
419.511	18.21
419.717	18.02
419.923	17.93
420.129	17.84
420.335	17.9
420.541	17.67
420.746	17.64
420.952	17.41
421.158	17.16
421.364	17.14
421.57	17.24
421.776	17.34
421.982	17.23
422.187	17.16
422.393	17.24
422.599	17.03
422.805	17.02
423.01	17
423.216	17.08
423.422	17.09
423.628	16.98
423.833	16.84
424.039	16.64
424.245	16.66
424.45	16.6
424.656	16.52
424.862	16.66
425.067	16.76
425.273	16.68
425.478	16.71
425.684	16.86
425.889	16.96
426.095	16.96
426.301	16.96
426.506	17.05
426.712	17.07
426.917	17.05
427.123	16.92
427.328	16.91
427.533	16.98
427.739	16.84
427.944	16.47
428.15	16.49
428.355	16.28
428.561	16.43
428.766	16.37
428.971	16.45
429.177	16.7
429.382	16.67
429.587	16.66
429.793	16.36
429.998	16.57
430.203	16.81
430.408	16.63
430.614	16.6
430.819	16.6
431.024	16.68
431.229	16.45
431.434	16.23
431.64	16.22
431.845	16.42
432.05	16.6
432.255	16.66
432.46	16.52
432.665	16.55
432.87	16.71
433.076	16.59
433.281	16.6
433.486	16.75
433.691	16.72
433.896	16.96
434.101	16.98
434.306	17.16
434.511	17.16
434.716	17.33
434.921	17.5
435.126	17.59
435.331	17.62
435.535	17.68
435.74	17.76
435.945	17.72
436.15	17.68
436.355	17.38
436.56	17.22
436.765	17.27
436.97	17.12
437.174	17
437.379	16.89
437.584	17.06
437.789	16.93
437.993	16.77
438.198	16.8
438.403	16.65
438.608	16.7
438.812	16.73
439.017	16.42
439.222	16.61
439.426	16.53
439.631	16.42
439.836	16.4
440.04	16.31
440.245	16.4
440.45	16.34
440.654	16.39
440.859	16.51
441.063	16.53
441.268	16.78
441.472	16.66
441.677	16.59
441.881	16.91
442.086	16.96
442.29	17.07
442.495	16.97
442.699	17.02
442.904	16.99
443.108	16.88
443.312	16.8
443.517	16.75
443.721	16.87
443.925	17.08
444.13	16.91
444.334	16.91
444.538	16.93
444.743	16.99
444.947	16.94
445.151	16.91
445.356	17.05
445.56	16.86
445.764	16.74
445.968	16.53
446.173	16.45
446.377	16.28
446.581	16.16
446.785	16.22
446.989	16.1
447.193	16.12
447.398	16.08
447.602	15.91
447.806	16.04
448.01	15.99
448.214	16.04
448.418	16.04
448.622	16.13
448.826	16.32
449.03	16.18
449.234	16.2
449.438	16.16
449.642	16.17
449.846	16.25
450.05	16.21
450.254	16.26
450.458	16.17
450.662	15.89
450.866	16.06
451.069	15.76
451.273	15.89
451.477	16.06
451.681	15.97
451.885	16.01
452.089	15.78
452.292	15.81
452.496	15.77
452.7	15.9
452.904	16.11
453.107	16.09
453.311	16.19
453.515	15.95
453.719	15.94
453.922	16.17
454.126	16.09
454.33	16.32
454.533	16.3
454.737	16.36
454.94	16.29
455.144	16.29
455.348	16.18
455.551	16
455.755	15.91
455.958	15.9
456.162	15.86
456.365	15.93
456.569	15.81
456.772	15.87
456.976	15.72
457.179	15.82
457.383	15.89
457.586	15.97
457.79	15.94
457.993	16.24
458.196	16.08
458.4	15.97
458.603	15.96
458.807	16.07
459.01	16.03
459.213	16.07
459.417	16.07
459.62	16.1
459.823	16.03
460.026	16.17
460.23	16.12
460.433	16.15
460.636	16.23
460.839	16.22
461.042	16.08
461.246	16
461.449	16.08
461.652	16.03
461.855	16
462.058	16.03
462.261	15.91
462.464	15.65
462.668	15.72
462.871	15.72
463.074	15.68
463.277	15.73
463.48	15.81
463.683	15.75
463.886	15.9
464.089	15.8
464.292	15.92
464.495	16.05
464.698	16.31
464.901	16.19
465.104	16.08
465.306	16.06
465.509	16.4
465.712	16.67
465.915	16.74
466.118	16.57
466.321	16.6
466.524	16.49
466.726	16.43
466.929	16.32
467.132	16.43
467.335	16.38
467.538	16.58
467.74	16.35
467.943	16.23
468.146	16.35
468.348	16.46
468.551	16.75
468.754	16.9
468.956	16.99
469.159	17.1
469.362	16.95
469.564	17.11
469.767	17
469.969	17.1
470.172	17.11
470.375	16.98
470.577	17.02
470.78	16.81
470.982	16.72
471.185	16.8
471.387	16.81
471.59	16.89
471.792	16.97
471.995	16.94
472.197	17
472.399	16.94
472.602	17.15
472.804	17.04
473.007	17.03
473.209	16.96
473.411	16.88
473.614	16.81
473.816	17.11
474.018	17.02
474.22	16.96
474.423	16.83
474.625	16.76
474.827	16.62
475.03	16.7
475.232	16.83
475.434	16.8
475.636	16.88
475.838	17.04
476.04	16.81
476.243	16.77
476.445	16.97
476.647	16.95
476.849	17.1
477.051	17.01
477.253	16.92
477.455	16.84
477.657	16.84
477.859	16.87
478.061	16.83
478.263	16.84
478.465	16.78
478.667	16.83
478.869	16.68
479.071	16.55
479.273	16.62
479.475	16.68
479.677	16.81
479.879	16.7
480.081	16.66
480.283	16.72
480.485	16.69
480.686	16.85
480.888	16.68
481.09	16.79
481.292	16.82
481.494	16.81
481.695	16.79
481.897	16.54
482.099	16.66
482.301	16.54
482.502	16.45
482.704	16.45
482.906	16.37
483.107	16.34
483.309	16.35
483.511	16.34
483.712	16.28
483.914	16.29
484.115	16.34
484.317	16.33
484.519	16.31
484.72	16.27
484.922	16.27
485.123	16.25
485.325	16.26
485.526	16.29
485.728	16.3
485.929	16.36
486.131	16.42
486.332	16.42
486.534	16.41
486.735	16.5
486.936	16.58
487.138	16.59
487.339	16.59
487.541	16.64
487.742	16.7
487.943	16.71
488.144	16.75
488.346	16.61
488.547	16.62
488.748	16.61
488.95	16.63
489.151	16.68
489.352	16.65
489.553	16.71
489.755	16.7
489.956	16.57
490.157	16.57
490.358	16.46
490.559	16.47
490.76	16.47
490.961	16.49
491.163	16.47
491.364	16.45
491.565	16.58
491.766	16.57
491.967	16.58
492.168	16.57
492.369	16.55
492.57	16.72
492.771	16.75
492.972	16.82
493.173	16.86
493.374	16.84
493.575	16.86
493.776	16.78
493.976	16.79
494.177	16.86
494.378	16.97
494.579	17.04
494.78	16.9
494.981	16.92
495.182	16.87
495.382	16.85
495.583	17.12
495.784	17.17
495.985	17.36
496.185	17.43
496.386	17.45
496.587	17.58
496.788	17.63
496.988	17.67
497.189	17.84
497.39	17.86
497.59	17.99
497.791	17.78
497.992	17.78
498.192	17.71
498.393	17.7
498.593	17.76
498.794	17.61
498.994	17.61
499.195	17.54
499.395	17.57
499.596	17.69
499.796	17.7
499.997	17.83
500.197	17.81
500.398	17.78
500.598	17.85
500.799	17.82
500.999	17.82
501.199	17.85
501.4	17.95
501.6	17.88
501.801	17.95
502.001	17.88
502.201	17.92
502.402	18.13
502.602	18.17
502.802	18.19
503.002	18.25
503.203	18.35
503.403	18.47
503.603	18.54
503.803	18.66
504.003	18.58
504.204	18.59
504.404	18.53
504.604	18.44
504.804	18.54
505.004	18.53
505.204	18.63
505.404	18.51
505.604	18.59
505.804	18.55
506.005	18.6
506.205	18.68
506.405	18.89
506.605	19
506.805	19.11
507.005	19.18
507.204	19.23
507.404	19.14
507.604	19.57
507.804	19.42
508.004	19.58
508.204	19.67
508.404	19.63
508.604	19.71
508.804	19.83
509.003	19.88
509.203	20
509.403	20.12
509.603	20.31
509.803	20.18
510.002	20.44
510.202	20.59
510.402	20.54
510.602	20.7
510.801	20.73
511.001	20.74
511.201	20.79
511.4	20.76
511.6	20.95
511.8	21.04
511.999	21.18
512.199	21.09
512.398	21.06
512.598	21.2
512.797	21.37
512.997	21.47
513.197	21.61
513.396	21.72
513.596	21.86
513.795	21.69
513.994	21.66
514.194	21.8
514.393	22.01
514.593	22.12
514.792	22.35
514.992	22.35
515.191	22.31
515.39	22.43
515.59	22.5
515.789	22.5
515.988	22.8
516.188	23.01
516.387	22.99
516.586	23.05
516.786	23.12
516.985	23.05
517.184	23.14
517.383	23.25
517.582	23.13
517.782	23.12
517.981	23.12
518.18	23.22
518.379	23.17
518.578	23.33
518.777	23.42
518.976	23.48
519.176	23.54
519.375	23.62
519.574	23.65
519.773	23.85
519.972	23.92
520.171	24.16
520.37	24.08
520.569	24.14
520.768	24.15
520.967	24.18
521.166	24.29
521.365	24.36
521.564	24.36
521.762	24.52
521.961	24.44
522.16	24.57
522.359	24.44
522.558	24.44
522.757	24.43
522.956	24.51
523.154	24.5
523.353	24.59
523.552	24.66
523.751	24.76
523.949	24.71
524.148	24.85
524.347	24.93
524.546	25.02
524.744	25.2
524.943	25.36
525.142	25.24
525.34	25.3
525.539	25.32
525.737	25.19
525.936	25.17
526.135	25.22
526.333	25.27
526.532	25.34
526.73	25.34
526.929	25.25
527.127	25.25
527.326	25.35
527.524	25.33
527.723	25.34
527.921	25.43
528.12	25.46
528.318	25.55
528.516	25.54
528.715	25.52
528.913	25.58
529.112	25.64
529.31	25.62
529.508	25.65
529.707	25.7
529.905	25.78
530.103	25.77
530.301	25.77
530.5	25.79
530.698	25.9
530.896	26
531.094	26.03
531.293	26.08
531.491	26.12
531.689	26.2
531.887	26.21
532.085	26.04
532.283	26.06
532.481	26.14
532.68	26.15
532.878	26.12
533.076	26.04
533.274	26.1
533.472	26.12
533.67	26.25
533.868	26.21
534.066	26.25
534.264	26.33
534.462	26.42
534.66	26.49
534.858	26.54
535.056	26.48
535.253	26.47
535.451	26.42
535.649	26.45
535.847	26.36
536.045	26.48
536.243	26.53
536.441	26.45
536.638	26.45
536.836	26.4
537.034	26.38
537.232	26.49
537.43	26.55
537.627	26.59
537.825	26.57
538.023	26.74
538.22	26.8
538.418	26.94
538.616	27.24
538.813	27.44
539.011	27.58
539.209	27.67
539.406	27.72
539.604	27.95
539.801	28.02
539.999	28.2
540.196	28.22
540.394	28.21
540.591	28.22
540.789	28.27
540.986	28.23
541.184	28.28
541.381	28.33
541.579	28.51
541.776	28.62
541.974	28.78
542.171	28.9
542.368	29
542.566	29.15
542.763	29.27
542.96	29.35
543.158	29.57
543.355	29.68
543.552	29.9
543.75	29.94
543.947	30.02
544.144	30.13
544.341	30.3
544.539	30.71
544.736	30.84
544.933	30.98
545.13	31.39
545.327	31.6
545.524	31.91
545.722	31.83
545.919	31.85
546.116	31.84
546.313	31.88
546.51	31.71
546.707	31.2
546.904	31.01
547.101	30.77
547.298	30.35
547.495	30.13
547.692	30.02
547.889	29.94
548.086	29.86
548.283	29.79
548.48	29.63
548.677	29.52
548.874	29.56
549.07	29.51
549.267	29.46
549.464	29.56
549.661	29.55
549.858	29.24
550.055	29.18
550.251	29.3
550.448	29.09
550.645	28.95
550.842	29.04
551.038	29.07
551.235	29.18
551.432	29.08
551.628	28.96
551.825	28.89
552.022	28.94
552.218	29.04
552.415	28.93
552.612	28.93
552.808	29.03
553.005	28.91
553.201	28.95
553.398	29.06
553.594	29.18
553.791	29.17
553.987	29.14
554.184	29.11
554.38	29.06
554.577	29.07
554.773	29.3
554.97	29.15
555.166	29.04
555.362	29.07
555.559	28.93
555.755	28.97
555.952	29.12
556.148	29.14
556.344	29.02
556.541	28.96
556.737	29.06
556.933	28.91
557.129	28.99
557.326	28.94
557.522	28.83
557.718	28.77
557.914	28.79
558.11	28.58
558.307	28.61
558.503	28.68
558.699	28.65
558.895	28.6
559.091	28.47
559.287	28.36
559.483	28.44
559.679	28.55
559.876	28.48
560.072	28.4
560.268	28.5
560.464	28.48
560.66	28.44
560.856	28.54
561.052	28.47
561.247	28.73
561.443	28.84
561.639	28.93
561.835	29.04
562.031	29.13
562.227	29.08
562.423	29.11
562.619	29.03
562.815	29.08
563.01	29.14
563.206	29.33
563.402	29.22
563.598	29.32
563.793	29.4
563.989	29.3
564.185	29.39
564.381	29.52
564.576	29.32
564.772	29.28
564.968	29.24
565.163	29.29
565.359	29.09
565.555	29
565.75	28.99
565.946	29.02
566.141	29.06
566.337	29.1
566.532	29.18
566.728	29.26
566.923	29.38
567.119	29.64
567.314	29.68
567.51	29.82
567.705	30.05
567.901	30.14
568.096	29.98
568.292	30.03
568.487	29.84
568.682	29.9
568.878	30.17
569.073	30.17
569.268	29.92
569.464	29.61
569.659	29.47
569.854	29.23
570.05	29.04
570.245	29.31
570.44	29.38
570.635	29.43
570.831	29.18
571.026	29.14
571.221	29.07
571.416	29.17
571.611	29.46
571.806	29.64
572.002	29.68
572.197	29.82
572.392	29.72
572.587	29.62
572.782	29.65
572.977	29.7
573.172	29.78
573.367	29.91
573.562	29.77
573.757	29.7
573.952	29.69
574.147	29.72
574.342	29.77
574.537	29.82
574.732	29.91
574.927	29.95
575.121	29.99
575.316	29.77
575.511	29.71
575.706	29.88
575.901	29.94
576.096	30.02
576.29	30.26
576.485	30.26
576.68	30.27
576.875	30.44
577.069	30.57
577.264	30.88
577.459	30.98
577.654	31.2
577.848	31.13
578.043	31.17
578.238	31.05
578.432	31.15
578.627	31.2
578.821	31.54
579.016	31.5
579.21	31.42
579.405	31.66
579.6	31.79
579.794	31.81
579.989	31.76
580.183	31.76
580.378	31.98
580.572	31.91
580.766	31.94
580.961	31.67
581.155	31.59
581.35	31.82
581.544	31.36
581.738	31.36
581.933	31.42
582.127	31.76
582.321	31.81
582.516	31.81
582.71	31.85
582.904	31.84
583.099	32.14
583.293	32.14
583.487	31.97
583.681	32.26
583.875	32.43
584.07	32.7
584.264	32.55
584.458	32.46
584.652	32.22
584.846	32.21
585.04	32.18
585.234	31.86
585.428	32.03
585.623	32.19
585.817	32.22
586.011	32.15
586.205	32.14
586.399	32.4
586.593	32.5
586.787	32.61
586.981	32.55
587.174	32.55
587.368	32.66
587.562	32.59
587.756	32.42
587.95	32.31
588.144	32.16
588.338	32.03
588.532	31.85
588.725	31.85
588.919	31.75
589.113	31.66
589.307	31.72
589.501	31.5
589.694	31.67
589.888	31.73
590.082	31.54
590.275	31.49
590.469	31.42
590.663	31.27
590.856	31.37
591.05	31.65
591.244	31.81
591.437	32.08
591.631	32.43
591.824	32.2
592.018	32.39
592.212	32.7
592.405	33
592.599	32.97
592.792	33.49
592.986	33.55
593.179	33.39
593.372	33.27
593.566	33.08
593.759	33.09
593.953	33.08
594.146	32.88
594.339	32.95
594.533	32.81
594.726	32.83
594.92	32.45
595.113	32.34
595.306	32.18
595.499	32.39
595.693	32.27
595.886	31.99
596.079	32.19
596.272	32.16
596.466	32.18
596.659	32.11
596.852	31.87
597.045	32.09
597.238	32.19
597.431	32.19
597.624	31.97
597.818	32.1
598.011	32.26
598.204	32.09
598.397	32.19
598.59	32.07
598.783	32.24
598.976	32.6
599.169	32.6
599.362	32.38
599.555	32.64
599.748	32.77
599.941	32.78
600.134	32.97
600.326	32.92
600.519	33.02
600.712	33.09
600.905	33.04
601.098	32.86
601.291	32.61
601.483	32.72
601.676	32.69
601.869	32.76
602.062	32.61
602.255	32.04
602.447	32.18
602.64	32.19
602.833	31.89
603.025	31.96
603.218	32.15
603.411	32.48
603.603	32.51
603.796	32.6
603.989	32.59
604.181	32.87
604.374	33.18
604.566	33.12
604.759	33.11
604.951	33.32
605.144	33.26
605.336	33.19
605.529	32.93
605.721	33.03
605.914	32.85
606.106	32.71
606.299	32.73
606.491	32.85
606.683	32.94
606.876	32.97
607.068	32.89
607.26	33.13
607.453	33.19
607.645	33.06
607.837	33.08
608.03	33.21
608.222	33.41
608.414	33.44
608.606	33.62
608.799	34.19
608.991	34.52
609.183	35
609.375	35.52
609.567	36.26
609.759	37.24
609.952	38.08
610.144	39.09
610.336	40.14
610.528	40.92
610.72	41.67
610.912	42.36
611.104	43.01
611.296	43.39
611.488	43.71
611.68	43.96
611.872	44.16
612.064	43.99
612.256	43.9
612.448	43.53
612.64	43.1
612.832	42.77
613.023	41.86
613.215	41.07
613.407	40.7
613.599	40.2
613.791	39.7
613.983	39.11
614.174	38.81
614.366	37.91
614.558	37.53
614.75	37.01
614.941	36.56
615.133	36.4
615.325	36.37
615.516	36.11
615.708	35.85
615.9	35.56
616.091	35.33
616.283	35.12
616.475	34.92
616.666	34.68
616.858	35.02
617.049	35.05
617.241	34.95
617.432	34.77
617.624	34.82
617.815	34.74
618.007	34.81
618.198	34.79
618.39	34.76
618.581	34.92
618.773	34.88
618.964	34.66
619.155	34.47
619.347	34.53
619.538	34.65
619.729	34.48
619.921	34.63
620.112	34.46
620.303	34.27
620.494	34.06
620.686	34.04
620.877	34.2
621.068	34.35
621.259	34.35
621.451	34.25
621.642	34.36
621.833	34.47
622.024	34.3
622.215	34.41
622.406	34.4
622.597	34.68
622.788	34.57
622.98	34.49
623.171	34.14
623.362	34.21
623.553	34.14
623.744	34.01
623.935	33.99
624.126	34.08
624.317	33.97
624.508	34.38
624.698	34.15
624.889	34.02
625.08	33.82
625.271	33.82
625.462	33.55
625.653	33.54
625.844	33.63
626.034	33.58
626.225	33.5
626.416	33.51
626.607	33.21
626.798	33.28
626.988	33.49
627.179	33.55
627.37	33.61
627.56	33.72
627.751	33.95
627.942	33.95
628.132	34.05
628.323	34.35
628.514	34.19
628.704	34.31
628.895	34.42
629.085	34.65
629.276	34.83
629.466	34.86
629.657	35.14
629.847	35.3
630.038	35.42
630.228	35.32
630.419	34.95
630.609	35.16
630.8	35.34
630.99	35.41
631.181	35.15
631.371	35.2
631.561	35.42
631.752	35.31
631.942	35.11
632.132	34.68
632.323	34.77
632.513	34.71
632.703	34.67
632.893	34.5
633.084	34.3
633.274	34.14
633.464	34.05
633.654	33.72
633.844	33.47
634.034	33.47
634.225	33.29
634.415	33.23
634.605	33.2
634.795	33.51
634.985	32.92
635.175	33.02
635.365	33.04
635.555	32.87
635.745	33.06
635.935	33.2
636.125	32.88
636.315	33.06
636.505	33.02
636.695	32.83
636.885	32.54
637.075	33.07
637.265	33.03
637.455	33.2
637.644	33.17
637.834	33.28
638.024	33.4
638.214	33.82
638.404	33.82
638.593	33.85
638.783	34.33
638.973	34.35
639.163	34.34
639.352	34.01
639.542	34.05
639.732	33.93
639.921	33.53
640.111	33.22
640.301	32.94
640.49	33.3
640.68	33.66
640.87	33.15
641.059	33.31
641.249	33.28
641.438	33.14
641.628	33.26
641.817	32.9
642.007	32.97
642.196	33.03
642.386	33.01
642.575	32.81
642.764	32.36
642.954	33.02
643.143	32.84
643.333	32.6
643.522	32.77
643.711	32.82
643.901	33.3
644.09	33.33
644.279	33.49
644.469	33.5
644.658	33.27
644.847	33
645.036	32.98
645.226	32.84
645.415	33.46
645.604	33.59
645.793	33.26
645.982	33.21
646.171	33.35
646.361	33.12
646.55	33.15
646.739	33.25
646.928	33.79
647.117	33.25
647.306	33.05
647.495	32.3
647.684	32.3
647.873	32.24
648.062	32.14
648.251	31.74
648.44	31.73
648.629	31.83
648.818	32
649.007	31.89
649.196	32.23
649.384	32.37
649.573	32.86
649.762	33.17
649.951	33.14
650.14	33.42
650.328	33.77
650.517	33.82
650.706	33.7
650.895	33.51
651.083	33.35
651.272	33.08
651.461	33.38
651.65	33.57
651.838	33.18
652.027	33.3
652.216	32.89
652.404	32.99
652.593	33.09
652.781	32.85
652.97	33.24
653.158	33.18
653.347	33.34
653.535	33.14
653.724	32.92
653.912	32.9
654.101	32.78
654.289	33.66
654.478	33.47
654.666	33.7
654.855	33.63
655.043	33.71
655.231	33.92
655.42	33.98
655.608	34
655.796	33.73
655.985	33.5
656.173	33.72
656.361	33.49
656.55	33.77
656.738	33.95
656.926	34.25
657.114	34.07
657.302	33.94
657.491	33.62
657.679	33.71
657.867	33.84
658.055	34.2
658.243	34.08
658.431	33.82
658.619	33.51
658.807	32.95
658.996	33.2
659.184	33.62
659.372	33.46
659.56	33.48
659.748	33.3
659.936	33.3
660.124	33.26
660.311	33.37
660.499	33.26
660.687	33.09
660.875	33.48
661.063	33.2
661.251	32.35
661.439	32.48
661.627	32.63
661.814	32.89
662.002	32.84
662.19	32.58
662.378	32.61
662.565	32.58
662.753	33.3
662.941	33.08
663.129	32.93
663.316	33.55
663.504	33.84
663.692	33.76
663.879	33.55
664.067	33.72
664.254	34.34
664.442	34.39
664.63	34.17
664.817	33.9
665.005	33.76
665.192	33.77
665.38	33.48
665.567	33.36
665.755	33.19
665.942	33.32
666.13	33.44
666.317	33.4
666.504	32.73
666.692	33.19
666.879	32.97
667.067	33.4
667.254	33.25
667.441	33.13
667.629	32.91
667.816	33.22
668.003	33.22
668.19	32.79
668.378	32.64
668.565	33.05
668.752	32.9
668.939	33.06
669.127	32.61
669.314	33.32
669.501	33.68
669.688	33.91
669.875	34.32
670.062	34.34
670.249	34.5
670.436	34.01
670.623	33.63
670.81	33.97
670.997	34.03
671.184	34.12
671.371	33.03
671.558	32.69
671.745	32.34
671.932	31.75
672.119	31.87
672.306	32.01
672.493	32.24
672.68	32.68
672.867	32.53
673.054	32.06
673.24	32.46
673.427	33.58
673.614	33.9
673.801	33.87
673.988	33.45
674.174	33.18
674.361	32.54
674.548	33.01
674.734	32.95
674.921	33.16
675.108	33.33
675.294	32.96
675.481	32.68
675.668	32.72
675.854	33.39
676.041	34.32
676.227	34.1
676.414	34.59
676.601	34.31
676.787	34.36
676.974	33.94
677.16	33.79
677.347	34.1
677.533	33.88
677.719	33.72
677.906	33.15
678.092	32.35
678.279	32.55
678.465	32.79
678.651	32.81
678.838	33.21
679.024	33.46
679.21	33.44
679.397	33.54
679.583	33.67
679.769	33.51
679.955	33.64
680.142	33.82
680.328	34.16
680.514	33.86
680.7	33.99
680.886	33.57
681.073	33.42
681.259	33.46
681.445	33.07
681.631	32.78
681.817	32.69
682.003	32.83
682.189	33.03
682.375	32.82
682.561	33.17
682.747	33.5
682.933	33.75
683.119	33.85
683.305	34.25
683.491	34.1
683.677	34.64
683.863	35.04
684.049	35.25
684.235	35.3
684.42	35.02
684.606	34.6
684.792	34.33
684.978	34.49
685.164	34.54
685.349	34.15
685.535	33.87
685.721	33.37
685.907	33.64
686.092	33.28
686.278	33.23
686.464	33.53
686.649	33.8
686.835	33.59
687.021	33.31
687.206	33.42
687.392	33.71
687.577	34.9
687.763	35.08
687.948	34.36
688.134	34.08
688.319	34.52
688.505	34.33
688.69	34.39
688.876	34.19
689.061	34.07
689.247	33.56
689.432	33.62
689.618	32.9
689.803	32.67
689.988	33.23
690.174	33.13
690.359	32.55
690.544	32.45
690.73	32.44
690.915	32.7
691.1	33.13
691.285	33.49
691.471	33.46
691.656	33.35
691.841	33.73
692.026	33.26
692.211	33.95
692.396	34.2
692.582	34.71
692.767	34.68
692.952	35.02
693.137	34.77
693.322	34.92
693.507	35.14
693.692	35.46
693.877	35.37
694.062	35.59
694.247	35.68
694.432	35.52
694.617	35.67
694.802	35.57
694.987	35.17
695.172	35.34
695.357	35.23
695.541	34.95
695.726	34.96
695.911	34.88
696.096	35.2
696.281	34.78
696.466	35.28
696.65	34.9
696.835	35.03
697.02	35.1
697.204	34.73
697.389	34.65
697.574	34.73
697.759	34.91
697.943	34.94
698.128	34.52
698.312	34.63
698.497	34.35
698.682	34.02
698.866	33.85
699.051	33.51
699.235	33.68
699.42	33.84
699.604	34.03
699.789	33.93
699.973	33.92
700.158	34.15
700.342	34.13
700.527	34.36
700.711	34.29
700.895	34.65
701.08	34.95
701.264	35.07
701.448	34.26
701.633	33.73
701.817	33.88
702.001	33.55
702.186	33.57
702.37	33.59
702.554	33.44
702.738	34.06
702.923	33.81
703.107	33.59
703.291	33.26
703.475	34.19
703.659	34.45
703.843	33.78
704.027	34.45
704.212	34.25
704.396	34.31
704.58	34.49
704.764	34.69
704.948	34.3
705.132	34.77
705.316	34.82
705.5	35.07
705.684	35.17
705.868	35.33
706.052	35.38
706.235	35.75
706.419	35.32
706.603	35.01
706.787	34.91
706.971	35.06
707.155	35.48
707.339	36.46
707.522	36.69
707.706	36.03
707.89	36.28
708.074	37.69
708.257	37.47
708.441	38.53
708.625	38.1
708.808	38.21
708.992	37.85
709.176	37.44
709.359	36.08
709.543	35.88
709.727	37.01
709.91	36.65
710.094	35.19
710.277	35.45
710.461	35.39
710.644	35.53
710.828	35.79
711.011	36.81
711.195	36.89
711.378	37.33
711.562	36.8
711.745	36.39
711.928	36.75
712.112	37.14
712.295	36.35
712.478	35.43
712.662	35.85
712.845	35.53
713.028	34.65
713.212	34.64
713.395	34.22
713.578	34.56
713.761	34.31
713.945	34.28
714.128	33.69
714.311	33.65
714.494	34.08
714.677	33.97
714.86	33.54
715.043	34.32
715.227	34.19
715.41	35.28
715.593	35.15
715.776	35.12
715.959	34.84
716.142	35.03
716.325	35.55
716.508	35.55
716.691	35.94
716.874	36.81
717.057	35.88
717.239	35.41
717.422	34.84
717.605	35.19
717.788	34.55
717.971	35.3
718.154	35.41
718.337	35.82
718.519	36.28
718.702	35.97
718.885	35.33
719.068	36.1
719.25	36.48
719.433	36.78
719.616	35.98
719.798	37.17
719.981	37.4
720.164	37.12
720.346	36.98
720.529	36.54
720.712	36.59
720.894	35.76
721.077	35.5
721.259	36.36
721.442	35.86
721.624	36.67
721.807	35.73
721.989	35.28
722.172	35.26
722.354	34.66
722.537	33.94
722.719	34.25
722.901	35.45
723.084	36.1
723.266	35.66
723.448	36.09
723.631	34.98
723.813	35.97
723.995	36.23
724.178	36.05
724.36	36.38
724.542	36.41
724.724	35.54
724.907	36
725.089	36.66
725.271	36.94
725.453	36.2
725.635	36.81
725.817	36.37
725.999	35.91
726.181	36.43
726.364	36.71
726.546	37.37
726.728	37.65
726.91	37.33
727.092	36.31
727.274	35.63
727.456	36.49
727.638	36.4
727.819	36.23
728.001	36.78
728.183	35.47
728.365	36.47
728.547	35.69
728.729	35.58
728.911	35.32
729.093	35.11
729.274	35.22
729.456	33.74
729.638	34.25
729.82	34.3
730.001	33.89
730.183	34.98
730.365	33.57
730.546	34.53
730.728	34.4
730.91	33.18
731.091	33.47
731.273	33.65
731.455	34.2
731.636	34.27
731.818	33.22
731.999	32.24
732.181	31.91
732.362	31.77
732.544	31.88
732.725	32.65
732.907	33.49
733.088	32.8
733.27	32.17
733.451	32.44
733.633	31.21
733.814	32.53
733.995	33.68
734.177	33.14
734.358	33.43
734.539	32.99
734.721	32.5
734.902	32.91
735.083	33.6
735.264	33.99
735.446	34.51
735.627	34.59
735.808	33.53
735.989	33.41
736.17	33.53
736.351	34.17
736.533	33.45
736.714	33.47
736.895	33.54
737.076	33.82
737.257	33.74
737.438	33.31
737.619	34.69
737.8	34.62
737.981	34.24
738.162	35.16
738.343	34.58
738.524	34.32
738.705	33.44
738.886	32.83
739.067	33.06
739.247	32.86
739.428	33.26
739.609	32.68
739.79	33.78
739.971	35.23
740.151	35.48
740.332	35.42
740.513	36.22
740.694	37.11
740.874	36.96
741.055	36.04
741.236	36.38
741.417	36.25
741.597	35.75
741.778	35.4
741.958	34.21
742.139	33.61
742.32	32.98
742.5	33.17
742.681	33.78
742.861	34.63
743.042	34.28
743.222	34.9
743.403	35.07
743.583	35.74
743.764	36
743.944	33.93
744.124	33.1
744.305	33.67
744.485	32.87
744.666	32.65
744.846	32.72
745.026	35.12
745.207	34.34
745.387	34.97
745.567	34.32
745.747	34.77
745.928	36.33
746.108	37.53
746.288	38.08
746.468	38.35
746.648	38.08
746.829	37.6
747.009	35.78
747.189	36.03
747.369	34.46
747.549	34.5
747.729	35.02
747.909	36.5
748.089	35.87
748.269	35.96
748.449	37.06
748.629	37.02
748.809	36.39
748.989	35.97
749.169	35.5
749.349	36.96
749.529	36.9
749.709	35.7
749.889	34.61
750.068	34.81
750.248	34.41
750.428	34.31
750.608	34.04
750.788	34.61
750.967	35
751.147	36.25
751.327	34.84
751.507	35.7
751.686	35.87
751.866	35.55
752.046	35.28
752.225	35.62
752.405	34.27
752.585	34.56
752.764	34.41
752.944	33.93
753.123	32.99
753.303	34.09
753.482	33.97
753.662	34.65
753.841	35.53
754.021	34.36
754.2	35.42
754.38	35.75
754.559	35.13
754.739	35.5
754.918	36.19
755.097	36.48
755.277	35.1
755.456	35.33
755.635	33.71
755.815	33.17
755.994	34.38
756.173	33.78
756.352	33.49
756.532	33.8
756.711	32.13
756.89	31.73
757.069	31.37
757.248	30.5
757.427	30.15
757.607	30.99
757.786	30.57
757.965	31.31
758.144	31.1
758.323	31.64
758.502	31.93
758.681	33.33
758.86	32.9
759.039	31.55
759.218	32.74
759.397	32.12
759.576	31.67
759.755	31.62
759.934	30.89
760.113	30.33
760.291	30.32
760.47	29.67
760.649	29
760.828	30.68
761.007	31.96
761.186	32.29
761.364	32.68
761.543	32.4
761.722	32.27
761.901	32.79
762.079	32.92
762.258	33.67
762.437	34.34
762.615	33.75
762.794	33.36
762.972	33.48
763.151	34.02
763.33	34.15
763.508	34.48
763.687	35.68
763.865	35.66
764.044	36.37
764.222	35.75
764.401	35.33
764.579	36.57
764.758	36.03
764.936	36.8
765.114	36.7
765.293	36.34
765.471	36.16
765.65	36.51
765.828	36.55
766.006	35.44
766.184	35.92
766.363	35.24
766.541	34.8
766.719	35.07
766.898	34.88
767.076	34.73
767.254	34.99
767.432	35.15
767.61	33.29
767.788	33.75
767.967	33.4
768.145	33.55
768.323	35.2
768.501	36.33
768.679	37.98
768.857	36.15
769.035	34.79
769.213	35.29
769.391	34.08
769.569	34.26
769.747	34.58
769.925	35.45
770.103	34.16
770.281	33.04
770.459	31.74
770.636	30.3
770.814	31.9
770.992	32.5
771.17	32.53
771.348	35.88
771.525	35.53
771.703	34.49
771.881	33.89
772.059	35.07
772.236	35.43
772.414	36.46
772.592	36.58
772.769	36.18
772.947	36.66
773.125	37.13
773.302	35.42
773.48	36
773.657	35.51
773.835	35.33
774.013	33.44
774.19	31.75
774.368	31.09
774.545	29.65
774.723	30.15
774.9	31.37
775.077	31.03
775.255	33.67
775.432	34.99
775.61	33.85
775.787	36.06
775.964	36.18
776.142	37.46
776.319	35.91
776.496	35.36
776.674	35.63
776.851	34.24
777.028	35
777.205	32.45
777.382	30.81
777.56	32.09
777.737	29.8
777.914	31.89
778.091	33.14
778.268	35.07
778.445	35.97
778.622	36.08
778.8	35.37
778.977	33.61
779.154	33.69
779.331	31.82
779.508	33.84
779.685	34.7
779.862	32.41
780.038	31.4
780.215	30.43
780.392	30.3
780.569	31.21
780.746	33.23
780.923	33.87
781.1	36.57
781.277	38.88
781.453	37.37
781.63	38.91
781.807	40.89
781.984	41.77
782.16	44.07
782.337	44.64
782.514	42.35
782.691	38.42
782.867	37.08
783.044	33.8
783.221	31.72
783.397	32.45
783.574	31.63
783.75	31.82
783.927	32.62
784.103	30.99
784.28	32.5
784.456	33.26
784.633	35.22
784.809	37.32
784.986	39.56
785.162	41.59
785.339	40.94
785.515	41.57
785.692	42.43
785.868	41.41
786.044	42.52
786.221	39.88
786.397	39.38
786.573	41.6
786.749	41.81
786.926	39.65
787.102	40.77
787.278	37.76
787.454	37.58
787.631	35.32
787.807	37.91
787.983	37.41
788.159	39.89
788.335	40.34
788.511	39.36
788.687	37.56
788.863	37.54
789.039	35.45
789.216	39.39
789.392	39.12
789.568	38.28
789.744	35.96
789.919	34.15
790.095	33.53
790.271	35.86
790.447	38.44
790.623	38.8
790.799	37.13
790.975	39.11
791.151	36.93
791.327	35.29
791.502	37
791.678	37.43
791.854	39.1
792.03	38.81
792.205	35.47
792.381	32.71
792.557	35.32
792.733	37.41
792.908	38.24
793.084	39.46
793.259	39.57
793.435	39.29
793.611	39.08
793.786	39.11
793.962	36.3
794.137	35.58
794.313	34.59
794.488	33.33
794.664	32.72
794.839	32.78
795.015	29.78
795.19	30.8
795.366	31.67
795.541	34.19
795.716	31.57
795.892	34.72
796.067	36.05
796.242	36.24
796.418	35.2
796.593	38.04
796.768	37.75
796.944	40.6
797.119	41.34
797.294	42.43
797.469	40.78
797.644	43.04
797.82	41.17
797.995	40.11
798.17	41.31
798.345	42.98
798.52	39.46
798.695	38.55
798.87	36.85
799.045	38.47
799.22	38.77
799.395	39.8
799.57	36.95
799.745	38.25
799.92	41.49
800.095	39.88
800.27	40.17
800.445	40.51
800.62	40.09
800.795	41.06
800.97	39.69
801.145	37.73
801.319	33.53
801.494	35.16
801.669	33.3
801.844	27.88
802.018	26.63
802.193	24.43
802.368	23.98
802.543	23.21
802.717	22.7
802.892	21.47
803.067	20.6
803.241	23.1
803.416	22.13
803.59	22.96
803.765	25.08
803.94	26.93
804.114	28.91
804.289	31.38
804.463	33.11
804.638	35.72
804.812	36.67
804.986	40.72
805.161	39.26
805.335	39.51
805.51	40.68
805.684	42.84
805.858	42.6
806.033	40.36
806.207	38.21
806.381	38.24
806.556	38.79
806.73	39.81
806.904	38.85
807.078	38.89
807.253	40.9
807.427	42.24
807.601	41.86
807.775	40.54
807.949	43.45
808.123	44.82
808.298	45.95
808.472	44.11
808.646	44.03
808.82	41.46
808.994	43.66
809.168	40.8
809.342	39.65
809.516	38.11
809.69	39.24
809.864	38.65
810.038	39.72
810.212	39.8
810.385	41.03
810.559	39.58
810.733	42.09
810.907	39.15
811.081	41.89
811.255	42.23
811.428	44.11
811.602	45.07
811.776	40.85
811.95	39.74
812.123	37.16
812.297	38.51
812.471	34.72
812.644	32.3
812.818	37.19
812.992	34.93
813.165	30.7
813.339	27.18
813.512	26.02
813.686	30.09
813.86	31.95
814.033	34.61
814.207	32.37
814.38	34.58
814.554	35
814.727	35.65
814.9	36.78
815.074	36.24
815.247	36.64
815.421	35.46
815.594	38.05
815.767	37.91
815.941	36.88
816.114	38.74
816.287	42.24
816.46	43.88
816.634	40.75
816.807	42.98
816.98	46.09
817.153	47.96
817.327	51.16
817.5	50.14
817.673	47.93
817.846	48.09
818.019	46.68
818.192	44.15
818.365	45.6
818.538	46.92
818.711	45.83
818.884	44.2
819.057	44.49
819.23	45.34
819.403	43.61
819.576	43.34
819.749	40.07
819.922	41.4
820.095	44.12
820.268	40.96
820.441	39.84
820.614	38.72
820.786	37.75
820.959	35.65
821.132	33.48
821.305	34.28
821.477	32.74
821.65	33.69
821.823	32.42
821.996	32.52
822.168	32.16
822.341	31.9
822.514	31.61
822.686	31.1
822.859	31.44
823.031	30.91
823.204	30.57
823.376	30.94
823.549	31.14
823.722	31.28
823.894	30.25
824.067	29.74
824.239	30.02
824.411	30.06
824.584	30.84
824.756	30.84
824.929	31.23
825.101	31.61
825.273	32.91
825.446	32.19
825.618	32.24
825.79	32.77
825.963	34.45
826.135	33.85
826.307	34.36
826.479	33.07
826.652	33.05
826.824	33.21
826.996	32.11
827.168	31.89
827.34	31.63
827.512	32.04
827.684	31.44
827.856	30.8
828.029	31.77
828.201	31.19
828.373	31.85
828.545	33.05
828.717	33.59
828.889	34.14
829.061	33.3
829.232	32.9
829.404	32.44
829.576	32.42
829.748	33.02
829.92	32.11
830.092	33.16
830.264	35
830.436	33.91
830.607	33.78
830.779	31.66
830.951	27.12
831.123	28.37
831.294	28.29
831.466	30.54
831.638	30.51
831.809	32.84
831.981	29.56
832.153	32.07
832.324	32.97
832.496	30.88
832.667	38.67
832.839	46.14
833.011	46.49
833.182	45
833.354	41.64
833.525	39.63
833.697	37.16
833.868	37.74
834.039	36.01
834.211	33.87
834.382	34.78
834.554	33.08
834.725	31.07
834.896	29.6
835.068	30.5
835.239	30.94
835.41	32.38
835.581	33.37
835.753	32.61
835.924	29.85
836.095	30.27
836.266	30.73
836.438	28.05
836.609	29.04
836.78	33.01
836.951	33.87
837.122	35.7
837.293	35.72
837.464	39.4
837.635	42.33
837.806	47.08
837.977	51.32
838.148	52.31
838.319	55.8
838.49	56.38
838.661	53.58
838.832	54.36
839.003	58.44
839.174	57.57
839.345	51.56
839.516	51.97
839.687	50.5
839.857	43.31
840.028	43.79
840.199	41.82
840.37	40.19
840.54	40.17
840.711	42.14
840.882	41.53
841.053	39.76
841.223	37.07
841.394	38.92
841.564	37.57
841.735	36.69
841.906	34.26
842.076	38.1
842.247	42.99
842.417	41.44
842.588	39.06
842.758	40.84
842.929	44.43
843.099	46.52
843.27	47.49
843.44	50.23
843.611	55.63
843.781	55.15
843.951	42.6
844.122	34.27
844.292	40.49
844.462	41.07
844.633	31.29
844.803	31.34
844.973	34.65
845.144	39.03
845.314	42.06
845.484	44.34
845.654	47.23
845.824	63.18
845.995	74.72
846.165	73.15
846.335	71.71
846.505	78.46
846.675	74.3
846.845	85.44
847.015	77.21
847.185	77.08
847.355	87.22
847.525	93.4
847.695	95.99
847.865	95.81
848.035	99.25
848.205	114.34
848.375	115.13
848.545	110.48
848.715	106.09
848.884	127.63
849.054	139.06
849.224	118.22
849.394	108.74
849.564	100.47
849.733	102.39
849.903	97.92
850.073	80.46
850.243	71.76
850.412	83.28
850.582	77.16
850.752	65.23
850.921	60.26
851.091	59.8
851.26	61.12
851.43	45.1
851.599	22.63
851.769	20.71
851.939	30.05
852.108	47.2
852.278	53.7
852.447	61.56
852.616	62.62
852.786	76.71
852.955	85.1
853.125	81.36
853.294	96.99
853.463	112.69
853.633	116.15
853.802	102.72
853.971	88.65
854.141	84.53
854.31	79.71
854.479	76.8
854.648	68.75
854.818	57.26
854.987	59.92
855.156	53.13
855.325	52.37
855.494	53.58
855.663	61.33
855.832	70.63
856.001	79.81
856.171	79.14
856.34	84.67
856.509	87.32
856.678	84.18
856.847	86.66
857.016	90.38
857.185	88.52
857.353	82.19
857.522	79.31
857.691	86.1
857.86	79.42
858.029	92.13
858.198	85.55
858.367	92.38
858.535	95.88
858.704	92.92
858.873	85.05
859.042	80.83
859.21	80.81
859.379	72.31
859.548	61.13
859.717	33.8
859.885	29.03
860.054	33.83
860.222	31.9
860.391	43.91
860.56	54.87
860.728	54.05
860.897	49.71
861.065	56.56
861.234	53.64
861.402	61.58
861.571	85.88
861.739	95.86
861.908	84.56
862.076	64.19
862.244	66.22
862.413	56.69
862.581	63.68
862.749	64.47
862.918	52.76
863.086	57.98
863.254	47.5
863.423	47.36
863.591	47.74
863.759	40.13
863.927	67.5
864.096	82.74
864.264	72.51
864.432	70.16
864.6	78.26
864.768	89.3
864.936	91.27
865.104	90.96
865.272	93.86
865.44	88.4
865.608	78.58
865.776	75.36
865.944	68.11
866.112	77.22
866.28	87.23
866.448	93.56
866.616	92.9
866.784	86.92
866.952	87.08
867.12	99.67
867.288	106.18
867.455	133.81
867.623	130.13
867.791	129.5
867.959	115.24
868.127	112.44
868.294	89.79
868.462	90.91
868.63	89.89
868.797	95.82
868.965	98.64
869.133	85.47
869.3	79.82
869.468	73
869.636	68.39
869.803	74.35
869.971	74.11
870.138	74.74
870.306	69.32
870.473	71.58
870.641	77.88
870.808	66.34
870.975	74.92
871.143	74.97
871.31	86.14
871.478	74.22
871.645	78.88
871.812	72.51
871.98	80.09
872.147	76.88
872.314	80.41
872.482	76.66
872.649	68.98
872.816	62.09
872.983	64.99
873.15	48.84
873.318	59.34
873.485	64.71
873.652	28.94
873.819	-4.95
873.986	38.47
874.153	57.41
874.32	43.48
874.487	63.4
874.654	58.92
874.821	41.17
874.988	52.23
875.155	42.74
875.322	39.4
875.489	51.92
875.656	43.79
875.823	32.49
875.99	44.95
876.157	41.61
876.324	42.68
876.49	54.51
876.657	67.13
876.824	68.89
876.991	75.99
877.157	72.07
877.324	69.93
877.491	53.22
877.658	57.9
877.824	49.58
877.991	70.63
878.157	62.67
878.324	54.46
878.491	45.23
878.657	33.7
878.824	46.36
878.99	34.54
879.157	21.87
879.323	45.41
879.49	43.03
879.656	39.06
879.823	13.3
879.989	14.64
880.156	16.96
880.322	26.24
880.488	37.44
880.655	40.06
880.821	38.81
880.987	46.46
881.154	42.44
881.32	46.34
881.486	46.94
881.652	49.19
881.819	48.58
881.985	49.49
882.151	40.17
882.317	36.17
882.483	27.94
882.649	31.47
882.816	30.45
882.982	33.37
883.148	32.28
883.314	30.65
883.48	30.42
883.646	31.94
883.812	31.65
883.978	35.37
884.144	37.73
884.31	40.28
884.476	39.42
884.642	41.52
884.807	39.69
884.973	38.65
885.139	39.92
885.305	38.85
885.471	38.32
885.637	34.83
885.802	35.76
885.968	33.29
886.134	32.85
886.3	33.66
886.465	30.9
886.631	34.79
886.797	38.81
886.962	44.42
887.128	47.33
887.293	53.17
887.459	66.32
887.625	66.3
887.79	73.32
887.956	70.56
888.121	70.5
888.287	75.33
888.452	80.67
888.618	75.54
888.783	70.52
