Data from 2938125_Reflection_2.txt Node
Date: Sat Jul 11 17:28:06 EDT 2015
User: robert
Spectrometer: USB4E03001
Autoset integration time: false
Trigger mode: 4
Integration Time (sec): 1.000000E-1
Scans to average: 10
Electric dark correction enabled: true
Nonlinearity correction enabled: false
Boxcar width: 5
Stray light correction enabled: false
XAxis mode: Wavelengths
Stop averaging: false
Number of Pixels in Spectrum: 3648
>>>>>Begin Spectral Data<<<<<
177.566	-120.58
177.785	2126.47
178.005	54.39
178.225	851.56
178.445	152.92
178.665	143.27
178.885	100
179.105	63.03
179.324	121.92
179.544	43.99
179.764	50.55
179.984	91.02
180.204	89.61
180.423	93.64
180.643	96.3
180.863	115.55
181.083	105.87
181.302	92.59
181.522	90.13
181.742	109.67
181.961	140.3
182.181	144.78
182.401	106.86
182.621	141.76
182.84	145.96
183.06	151.6
183.279	116.85
183.499	146.48
183.719	163.17
183.938	159.04
184.158	132.48
184.377	107.35
184.597	107.76
184.816	108.91
185.036	110.08
185.256	114.58
185.475	118.53
185.695	128.61
185.914	115.27
186.134	135.1
186.353	142.7
186.572	132.62
186.792	127.84
187.011	132.21
187.231	133.57
187.45	119.57
187.67	128.01
187.889	107.9
188.108	116.35
188.328	117.44
188.547	103.53
188.766	104.26
188.986	128.28
189.205	114.24
189.424	105.67
189.644	106.75
189.863	118.31
190.082	89.25
190.302	96.14
190.521	104
190.74	110.82
190.959	117.23
191.178	108.35
191.398	103.03
191.617	118.2
191.836	127.86
192.055	121.15
192.274	117.66
192.494	116.38
192.713	107.97
192.932	87.33
193.151	76.51
193.37	64.37
193.589	64.99
193.808	69.78
194.027	74.74
194.246	82.61
194.465	79.84
194.685	64.65
194.904	81.93
195.123	98.1
195.342	128.65
195.561	170.14
195.78	278.81
195.999	180.57
196.218	130.56
196.436	94.14
196.655	74.85
196.874	78.49
197.093	66.2
197.312	59.46
197.531	60
197.75	48.72
197.969	48.91
198.188	45.24
198.407	44.36
198.625	45.38
198.844	63.34
199.063	64.14
199.282	60.28
199.501	65.57
199.719	67.29
199.938	72.58
200.157	64.21
200.376	58.32
200.594	51.26
200.813	54.64
201.032	58.08
201.251	56.83
201.469	67.86
201.688	82.89
201.907	84.14
202.125	93.57
202.344	84.6
202.563	94.76
202.781	104.63
203	120.82
203.218	121.17
203.437	125.2
203.656	122.85
203.874	114.42
204.093	111.73
204.311	118.07
204.53	112.69
204.748	133.16
204.967	142.57
205.185	128.31
205.404	109.1
205.622	98.52
205.841	92
206.059	91.35
206.278	117.09
206.496	99.22
206.715	98.4
206.933	92.44
207.151	93.31
207.37	87.62
207.588	89.72
207.806	98.8
208.025	102.04
208.243	101.39
208.461	90.81
208.68	76.52
208.898	84.27
209.116	86.47
209.335	89.89
209.553	90.75
209.771	93.81
209.989	93.1
210.208	88.7
210.426	100.12
210.644	109.99
210.862	108.8
211.081	132.25
211.299	114.45
211.517	114.66
211.735	109.97
211.953	96.41
212.171	93.6
212.39	96.69
212.608	110.41
212.826	101.57
213.044	96.81
213.262	117.35
213.48	110.13
213.698	117.14
213.916	130.65
214.134	106.15
214.352	128.26
214.57	118.26
214.788	108.2
215.006	64.9
215.224	77.16
215.442	72.39
215.66	55.03
215.878	46.49
216.096	57.2
216.314	53.43
216.532	69.55
216.75	66.13
216.968	66
217.185	69.74
217.403	92.23
217.621	81.35
217.839	87.94
218.057	89.72
218.275	93.84
218.492	92.81
218.71	106.47
218.928	134.9
219.146	116.09
219.363	124.29
219.581	132.36
219.799	124.45
220.017	131.41
220.234	132.35
220.452	136.04
220.67	140.46
220.887	135.33
221.105	124.73
221.323	123.75
221.54	122.54
221.758	129.4
221.976	122.83
222.193	132
222.411	146.58
222.629	144.19
222.846	144.15
223.064	132.64
223.281	124.51
223.499	124.76
223.716	102.87
223.934	107.97
224.151	86.86
224.369	71.44
224.586	64.98
224.804	59.21
225.021	54.44
225.239	53.77
225.456	41.44
225.674	47.26
225.891	45.97
226.108	42.6
226.326	38.98
226.543	40.62
226.76	32.79
226.978	31.94
227.195	28.19
227.413	23.96
227.63	23.64
227.847	30.48
228.064	30.01
228.282	31.63
228.499	32.84
228.716	31.38
228.934	27.46
229.151	29.96
229.368	31.64
229.585	30.7
229.802	30.32
230.02	32.06
230.237	30.97
230.454	29.87
230.671	28.9
230.888	27.67
231.105	29.91
231.323	30.6
231.54	32.51
231.757	29.22
231.974	29.92
232.191	36.3
232.408	36.14
232.625	36.59
232.842	37.08
233.059	35.43
233.276	33.96
233.493	34.6
233.71	39.05
233.927	37.08
234.144	37.35
234.361	37.75
234.578	37.75
234.795	35.44
235.012	36.68
235.229	34.64
235.446	39.84
235.663	41.97
235.879	40.79
236.096	38.4
236.313	42.85
236.53	42.42
236.747	42.27
236.964	39.45
237.181	37.61
237.397	37.76
237.614	39.03
237.831	31.48
238.048	31.84
238.264	30.35
238.481	27.98
238.698	23.32
238.915	23.64
239.131	26.55
239.348	27.63
239.565	30.78
239.781	30.4
239.998	29.83
240.215	30.21
240.431	28.12
240.648	29.81
240.865	30.65
241.081	28.14
241.298	26.1
241.514	25.15
241.731	24.51
241.947	23.22
242.164	21.27
242.38	20.68
242.597	19.9
242.814	20.18
243.03	18.55
243.246	19.94
243.463	20.12
243.679	22.4
243.896	21.2
244.112	19.71
244.329	19.18
244.545	20.76
244.762	20.42
244.978	19.8
245.194	19.39
245.411	19.04
245.627	14.39
245.843	14.5
246.06	11.94
246.276	12.47
246.492	13
246.709	14.25
246.925	14.08
247.141	14.5
247.357	15.04
247.574	14.96
247.79	14.88
248.006	15.64
248.222	15.02
248.439	15.51
248.655	16.49
248.871	17.28
249.087	17.73
249.303	16.5
249.519	17.74
249.736	19.09
249.952	20.1
250.168	23.12
250.384	25.07
250.6	26.44
250.816	26.88
251.032	25.36
251.248	22.94
251.464	20.44
251.68	21.74
251.896	20.04
252.112	19.65
252.328	20.25
252.544	19.12
252.76	18.18
252.976	18.42
253.192	19.02
253.408	17.98
253.624	20.4
253.84	22.19
254.056	22.48
254.272	22.62
254.487	21.08
254.703	17.06
254.919	17.15
255.135	16.67
255.351	16.13
255.567	14.35
255.782	17.31
255.998	13.58
256.214	10.75
256.43	12.04
256.646	12.7
256.861	12.66
257.077	17.05
257.293	15.84
257.508	16.33
257.724	15.8
257.94	16.03
258.155	14.4
258.371	15.87
258.587	15.01
258.802	14.46
259.018	13.76
259.234	13.92
259.449	12.74
259.665	12.51
259.88	12.94
260.096	13.61
260.312	13.72
260.527	13.54
260.743	12.96
260.958	13.65
261.174	13.77
261.389	14.16
261.605	14.89
261.82	15.72
262.036	15.64
262.251	14.84
262.466	15.6
262.682	14.77
262.897	15.39
263.113	16.06
263.328	15.88
263.543	15.66
263.759	15.11
263.974	14.82
264.189	13.58
264.405	14.33
264.62	13.63
264.835	13.02
265.051	15.19
265.266	16.03
265.481	15.18
265.696	15.31
265.912	15.96
266.127	16.83
266.342	14.27
266.557	15.66
266.773	14.83
266.988	14.76
267.203	14.86
267.418	14.33
267.633	14.21
267.848	15.16
268.064	15.62
268.279	15.17
268.494	14.12
268.709	15.39
268.924	14.58
269.139	15.65
269.354	16.73
269.569	15.97
269.784	16.47
269.999	16.26
270.214	15.4
270.429	16.42
270.644	14.95
270.859	15.66
271.074	15.31
271.289	15.96
271.504	16.39
271.719	16.3
271.934	16.24
272.149	15.39
272.363	14.95
272.578	14.68
272.793	14.09
273.008	16.16
273.223	15.73
273.438	16.87
273.653	17.32
273.867	17.37
274.082	17.4
274.297	18.29
274.512	19.08
274.726	20.06
274.941	19.91
275.156	19.31
275.371	19.29
275.585	20.51
275.8	20.79
276.015	20.73
276.229	19.58
276.444	19.95
276.659	18.48
276.873	18.19
277.088	18.46
277.302	18.71
277.517	17.85
277.732	17.26
277.946	16.39
278.161	16.93
278.375	16.48
278.59	16.99
278.804	15.68
279.019	18
279.233	18.14
279.448	16.38
279.662	17
279.877	16.81
280.091	15.84
280.306	17.06
280.52	16.33
280.735	15.44
280.949	14.26
281.163	14.45
281.378	13.81
281.592	13.04
281.806	13.89
282.021	14.84
282.235	16.92
282.449	17.74
282.664	14.92
282.878	14.33
283.092	14.85
283.307	15.76
283.521	15.57
283.735	15.51
283.949	15.45
284.164	14.62
284.378	13.39
284.592	12.53
284.806	10.97
285.02	14.07
285.234	14.41
285.449	13.11
285.663	12.33
285.877	13.11
286.091	12.91
286.305	14.36
286.519	15.24
286.733	15.8
286.947	15.74
287.161	16.24
287.375	14.41
287.589	14.82
287.803	16.7
288.017	16.87
288.231	15.61
288.445	15.33
288.659	14.75
288.873	15.25
289.087	14.85
289.301	14.95
289.515	16.02
289.729	15.38
289.943	14.13
290.157	12.57
290.371	12.85
290.584	14.75
290.798	14.97
291.012	14.78
291.226	13.42
291.44	13.06
291.654	13.69
291.867	12.45
292.081	12.37
292.295	12.93
292.509	14.18
292.722	15.01
292.936	12.83
293.15	13.44
293.364	13.43
293.577	13.75
293.791	15.43
294.005	15.69
294.218	16.74
294.432	18.14
294.645	18.66
294.859	18.05
295.073	18.6
295.286	17.66
295.5	17.25
295.713	16.46
295.927	17.4
296.14	17.36
296.354	16.22
296.568	15.49
296.781	16.38
296.994	15.86
297.208	15.53
297.421	15.4
297.635	16.37
297.848	15.83
298.062	15.72
298.275	14.76
298.489	15.22
298.702	15.13
298.915	14.72
299.129	14.01
299.342	15.28
299.555	17.27
299.769	17.65
299.982	18.26
300.195	19.44
300.409	20.22
300.622	21.45
300.835	20.18
301.048	19.98
301.262	21.42
301.475	22.25
301.688	20.8
301.901	18.74
302.115	18.62
302.328	18.2
302.541	17.72
302.754	16.38
302.967	16.35
303.18	15.56
303.393	15.93
303.607	15.93
303.82	15.01
304.033	14.51
304.246	14.92
304.459	13.2
304.672	14.53
304.885	13.65
305.098	16.38
305.311	17.19
305.524	19.17
305.737	19.6
305.95	19.3
306.163	18.86
306.376	18.88
306.589	18.61
306.802	20.84
307.015	20.42
307.228	22.06
307.44	20.73
307.653	20.62
307.866	19
308.079	19.68
308.292	19.07
308.505	19.74
308.718	19.91
308.93	20.13
309.143	19.23
309.356	19.2
309.569	18.29
309.781	19.06
309.994	17.33
310.207	17.49
310.42	16.36
310.632	17.31
310.845	16.62
311.058	16.83
311.27	16.84
311.483	16.81
311.696	17.17
311.908	18.07
312.121	17.1
312.333	17.72
312.546	17.31
312.759	19.12
312.971	19.37
313.184	19.6
313.396	20.52
313.609	22.88
313.821	21.87
314.034	20.48
314.246	21.17
314.459	21.26
314.671	22.12
314.884	23.38
315.096	23.2
315.309	24.83
315.521	25.62
315.733	24.38
315.946	21.86
316.158	23.36
316.371	23.74
316.583	21.81
316.795	21.27
317.008	20.92
317.22	20.24
317.432	20.15
317.644	17.13
317.857	17.33
318.069	16.83
318.281	18.8
318.494	16.91
318.706	17.64
318.918	18.09
319.13	19.36
319.342	18.29
319.555	18.58
319.767	16.89
319.979	18.19
320.191	17
320.403	17.97
320.615	17.02
320.827	16.89
321.039	17.53
321.252	18.92
321.464	18.85
321.676	22.36
321.888	21.86
322.1	22.94
322.312	21.3
322.524	22.51
322.736	22.43
322.948	21.42
323.16	21.98
323.372	21.2
323.584	20.33
323.796	20.79
324.007	17.42
324.219	17.4
324.431	16.73
324.643	17.77
324.855	17.04
325.067	17.38
325.279	17.84
325.491	18.77
325.702	18.05
325.914	17.78
326.126	17.24
326.338	17.54
326.55	17.34
326.761	18.53
326.973	17.24
327.185	17.94
327.396	18.4
327.608	17.38
327.82	17.21
328.032	18.63
328.243	18.61
328.455	18.01
328.666	17.81
328.878	17.2
329.09	16.45
329.301	18.63
329.513	16.92
329.725	16.19
329.936	17.96
330.148	17.82
330.359	17.21
330.571	16.78
330.782	16.72
330.994	16.1
331.205	17.58
331.417	16.35
331.628	15.21
331.84	16.86
332.051	15.11
332.262	14.6
332.474	14.25
332.685	13.76
332.897	13.24
333.108	13.36
333.319	14.4
333.531	13.83
333.742	14.91
333.953	14.95
334.165	14.88
334.376	16
334.587	15.13
334.799	14.6
335.01	14.26
335.221	15.87
335.432	15.4
335.644	14.98
335.855	14.61
336.066	13.99
336.277	13.32
336.488	13.8
336.7	13.69
336.911	14.95
337.122	15.36
337.333	15.84
337.544	14.68
337.755	14.93
337.966	15.15
338.177	16.65
338.388	16.48
338.599	16.91
338.811	15.71
339.022	15.12
339.233	14.08
339.444	13.7
339.655	13.19
339.866	14.33
340.076	15.3
340.287	16.78
340.498	16.04
340.709	16.65
340.92	16.43
341.131	17.11
341.342	17.78
341.553	18.52
341.764	18.96
341.975	19.39
342.185	18.72
342.396	18.05
342.607	17.09
342.818	16.76
343.029	17.11
343.239	16.36
343.45	15.31
343.661	14.11
343.872	13.76
344.082	14.11
344.293	13.52
344.504	14.63
344.714	14.47
344.925	14.04
345.136	14.09
345.346	12.66
345.557	13.17
345.768	14.02
345.978	15.47
346.189	14.9
346.399	13.2
346.61	13.21
346.821	12.11
347.031	11.82
347.242	11.18
347.452	11.48
347.663	11.66
347.873	11.6
348.084	10.27
348.294	10.4
348.504	10.42
348.715	11.83
348.925	12.3
349.136	12.25
349.346	12.79
349.557	13.42
349.767	13.41
349.977	15.49
350.188	15.36
350.398	16.63
350.608	15.72
350.819	16.05
351.029	15.18
351.239	14.97
351.449	15.87
351.66	15.75
351.87	15.66
352.08	15.06
352.29	14.42
352.501	15.97
352.711	16.85
352.921	16.78
353.131	16.59
353.341	16.94
353.552	17.51
353.762	15.71
353.972	16.06
354.182	16.46
354.392	16.66
354.602	15.52
354.812	14.13
355.022	12.84
355.232	13
355.442	12.26
355.652	12.83
355.862	11.92
356.072	12.85
356.282	12.77
356.492	12.76
356.702	13.22
356.912	12.97
357.122	12.46
357.332	12.7
357.542	12.66
357.752	13.39
357.962	12.85
358.171	13.64
358.381	13.04
358.591	12.18
358.801	12.68
359.011	12.22
359.221	12.86
359.43	13.59
359.64	12.76
359.85	13.52
360.06	13.67
360.269	13.56
360.479	12.72
360.689	12.59
360.899	13.26
361.108	12.49
361.318	12.64
361.528	12.57
361.737	12.9
361.947	13.62
362.156	12.84
362.366	11.94
362.576	12.03
362.785	12.03
362.995	12.31
363.204	12.21
363.414	11.76
363.623	11.09
363.833	11.63
364.042	10.86
364.252	10.58
364.461	11.04
364.671	11.54
364.88	11.05
365.09	11.71
365.299	11.69
365.509	11.25
365.718	11.13
365.927	11.61
366.137	11.15
366.346	10.72
366.555	10.53
366.765	11.36
366.974	11.61
367.183	11.4
367.393	11.11
367.602	10.57
367.811	11.58
368.021	11.61
368.23	11.3
368.439	10.02
368.648	10.52
368.857	10.17
369.067	9.32
369.276	9.63
369.485	10.37
369.694	9.99
369.903	10.43
370.112	9.08
370.321	9.09
370.531	8.95
370.74	9.61
370.949	8.8
371.158	9.05
371.367	8.04
371.576	7.39
371.785	7.94
371.994	7.68
372.203	8.39
372.412	8.39
372.621	9.6
372.83	8.88
373.039	9.16
373.248	9.99
373.457	10.4
373.666	11.07
373.874	11.66
374.083	11.11
374.292	11.48
374.501	10.4
374.71	10.76
374.919	10.31
375.128	10.67
375.336	9.9
375.545	9.93
375.754	9.79
375.963	9.74
376.171	8.93
376.38	9.28
376.589	9.09
376.798	8.77
377.006	8.43
377.215	8.72
377.424	8.52
377.632	9.2
377.841	9.01
378.05	8.89
378.258	8.6
378.467	8.68
378.675	8.16
378.884	8.43
379.093	8.18
379.301	8.52
379.51	7.86
379.718	8.28
379.927	7.83
380.135	7.49
380.344	7.5
380.552	7.23
380.761	7.42
380.969	7.9
381.177	7.68
381.386	8.04
381.594	7.74
381.803	7.81
382.011	7.34
382.219	7.7
382.428	8.33
382.636	7.87
382.845	8.1
383.053	8.27
383.261	7.16
383.469	7.75
383.678	7.49
383.886	7.26
384.094	7.07
384.302	7.43
384.511	7.33
384.719	6.82
384.927	7.09
385.135	7.15
385.343	7.09
385.552	7.4
385.76	6.33
385.968	6.84
386.176	6.94
386.384	6.56
386.592	6.1
386.8	6.33
387.008	6.57
387.216	6.79
387.424	6.83
387.633	6.32
387.841	6.53
388.049	7.25
388.257	7.25
388.465	7.08
388.672	7.27
388.88	7.51
389.088	7.06
389.296	7.19
389.504	6.7
389.712	6.76
389.92	7.06
390.128	6.82
390.336	6.19
390.544	6.54
390.751	6.33
390.959	6.61
391.167	6.28
391.375	6.14
391.583	5.68
391.79	5.48
391.998	5.56
392.206	5.23
392.414	4.77
392.621	4.85
392.829	4.01
393.037	4.43
393.244	4.11
393.452	4.68
393.66	4.41
393.867	4.33
394.075	4.63
394.283	4.29
394.49	4.74
394.698	5.39
394.905	5.27
395.113	5.41
395.32	5.1
395.528	5.3
395.735	5.11
395.943	5.18
396.15	5.18
396.358	4.81
396.565	4.83
396.773	4.37
396.98	4.16
397.188	4.66
397.395	4.64
397.602	5.04
397.81	4.69
398.017	4.81
398.225	5.12
398.432	5.26
398.639	5.61
398.847	5.97
399.054	5.9
399.261	6.16
399.468	6.01
399.676	5.95
399.883	5.62
400.09	5.94
400.297	5.81
400.505	5.96
400.712	6.05
400.919	6.11
401.126	5.7
401.333	5.84
401.54	5.2
401.748	4.82
401.955	4.86
402.162	4.68
402.369	4.35
402.576	4.12
402.783	3.88
402.99	3.8
403.197	3.45
403.404	3.57
403.611	3.44
403.818	3.63
404.025	3.83
404.232	3.83
404.439	4.12
404.646	4.22
404.853	4.33
405.06	4.14
405.267	4.05
405.474	3.97
405.681	3.92
405.887	3.85
406.094	3.95
406.301	4.19
406.508	4.18
406.715	4.21
406.922	4.52
407.128	4.26
407.335	4.16
407.542	4.27
407.749	4.33
407.955	4.63
408.162	4.85
408.369	5.01
408.575	4.92
408.782	5.36
408.989	4.82
409.195	4.56
409.402	4.8
409.609	5.14
409.815	5.37
410.022	5.74
410.228	5.14
410.435	5.17
410.642	4.76
410.848	4.51
411.055	3.88
411.261	4.5
411.468	4.2
411.674	4.15
411.881	4.03
412.087	3.9
412.294	3.59
412.5	3.82
412.706	3.85
412.913	3.95
413.119	3.86
413.326	4.07
413.532	3.76
413.738	3.88
413.945	3.92
414.151	3.8
414.357	3.71
414.564	3.82
414.77	3.9
414.976	3.57
415.182	3.73
415.389	3.71
415.595	3.52
415.801	3.31
416.007	3.33
416.214	3.05
416.42	2.97
416.626	2.8
416.832	2.76
417.038	2.77
417.244	3.01
417.45	2.81
417.657	2.77
417.863	2.9
418.069	3.14
418.275	3.18
418.481	3.45
418.687	3.54
418.893	3.55
419.099	3.42
419.305	3.26
419.511	3.16
419.717	3.04
419.923	2.96
420.129	3.05
420.335	3
420.541	3.02
420.746	2.78
420.952	2.93
421.158	2.9
421.364	2.83
421.57	2.81
421.776	2.74
421.982	2.84
422.187	2.87
422.393	2.85
422.599	2.78
422.805	2.83
423.01	2.89
423.216	2.93
423.422	2.88
423.628	2.98
423.833	3.03
424.039	3.16
424.245	3.12
424.45	3.22
424.656	3.13
424.862	3.12
425.067	2.92
425.273	2.98
425.478	2.57
425.684	2.55
425.889	2.5
426.095	2.61
426.301	2.6
426.506	2.69
426.712	2.75
426.917	2.75
427.123	2.65
427.328	2.75
427.533	2.71
427.739	3.13
427.944	3.24
428.15	3.47
428.355	3.35
428.561	3.45
428.766	3.56
428.971	3.35
429.177	3.27
429.382	3.38
429.587	3.41
429.793	3.72
429.998	3.63
430.203	3.74
430.408	3.5
430.614	3.48
430.819	3.2
431.024	3.21
431.229	3.31
431.434	3.2
431.64	3.35
431.845	3.44
432.05	3.12
432.255	3.12
432.46	2.84
432.665	2.96
432.87	3.08
433.076	3.2
433.281	3.19
433.486	3.14
433.691	3.44
433.896	3.27
434.101	3.1
434.306	3.05
434.511	3.05
434.716	3.31
434.921	3.2
435.126	3.05
435.331	2.95
435.535	2.87
435.74	2.73
435.945	2.63
436.15	2.61
436.355	2.78
436.56	2.97
436.765	2.97
436.97	2.8
437.174	2.78
437.379	2.77
437.584	2.84
437.789	2.92
437.993	2.97
438.198	3.1
438.403	3.23
438.608	3.03
438.812	2.92
439.017	2.72
439.222	2.79
439.426	2.79
439.631	2.92
439.836	2.93
440.04	2.94
440.245	3.18
440.45	3.14
440.654	3.25
440.859	3.42
441.063	3.37
441.268	3.53
441.472	3.51
441.677	3.68
441.881	3.61
442.086	3.5
442.29	3.23
442.495	3.11
442.699	3.04
442.904	2.84
443.108	2.74
443.312	2.8
443.517	2.64
443.721	2.6
443.925	2.44
444.13	2.46
444.334	2.62
444.538	2.82
444.743	2.86
444.947	2.72
445.151	2.88
445.356	2.92
445.56	2.94
445.764	3.07
445.968	3.05
446.173	3.09
446.377	2.93
446.581	2.95
446.785	2.97
446.989	2.78
447.193	2.87
447.398	2.71
447.602	2.65
447.806	2.63
448.01	2.75
448.214	2.78
448.418	2.77
448.622	3.05
448.826	2.94
449.03	2.79
449.234	3.04
449.438	3.05
449.642	3.13
449.846	3.05
450.05	3.11
450.254	2.7
450.458	2.48
450.662	2.26
450.866	1.99
451.069	1.94
451.273	2.03
451.477	1.85
451.681	1.71
451.885	1.63
452.089	1.96
452.292	1.91
452.496	2.15
452.7	2.58
452.904	2.77
453.107	2.88
453.311	2.93
453.515	3.07
453.719	3.2
453.922	3.26
454.126	3.45
454.33	3.1
454.533	3.13
454.737	3.03
454.94	2.77
455.144	2.73
455.348	2.67
455.551	2.67
455.755	2.65
455.958	2.48
456.162	2.64
456.365	2.54
456.569	2.73
456.772	2.66
456.976	2.75
457.179	2.72
457.383	2.72
457.586	2.78
457.79	2.8
457.993	2.78
458.196	2.8
458.4	2.89
458.603	3.06
458.807	2.9
459.01	2.92
459.213	2.75
459.417	2.86
459.62	2.93
459.823	2.98
460.026	2.97
460.23	2.97
460.433	2.99
460.636	2.78
460.839	2.56
461.042	2.63
461.246	2.75
461.449	2.81
461.652	2.84
461.855	2.72
462.058	2.65
462.261	2.67
462.464	2.66
462.668	2.7
462.871	2.86
463.074	2.83
463.277	2.79
463.48	2.62
463.683	2.72
463.886	2.71
464.089	2.74
464.292	2.77
464.495	2.8
464.698	2.79
464.901	2.75
465.104	2.68
465.306	2.88
465.509	2.94
465.712	3.01
465.915	2.94
466.118	2.62
466.321	2.86
466.524	2.86
466.726	2.9
466.929	2.83
467.132	2.85
467.335	2.91
467.538	2.79
467.74	2.75
467.943	2.61
468.146	2.63
468.348	2.68
468.551	2.55
468.754	2.43
468.956	2.35
469.159	2.28
469.362	2.38
469.564	2.26
469.767	2.26
469.969	2.46
470.172	2.58
470.375	2.67
470.577	2.87
470.78	2.92
470.982	3
471.185	2.95
471.387	3.12
471.59	2.96
471.792	3.12
471.995	3.28
472.197	3.07
472.399	3.12
472.602	3.25
472.804	3.13
473.007	3.01
473.209	3
473.411	3.12
473.614	3.1
473.816	3.24
474.018	3.14
474.22	3
474.423	3.14
474.625	3.02
474.827	2.88
475.03	3.06
475.232	3.06
475.434	3.12
475.636	3.04
475.838	2.88
476.04	2.66
476.243	2.73
476.445	2.66
476.647	2.8
476.849	2.94
477.051	2.77
477.253	2.78
477.455	2.71
477.657	2.63
477.859	2.7
478.061	2.73
478.263	2.83
478.465	2.8
478.667	2.9
478.869	2.63
479.071	2.59
479.273	2.71
479.475	2.65
479.677	2.7
479.879	2.79
480.081	2.69
480.283	2.74
480.485	2.89
480.686	3.01
480.888	2.92
481.09	3
481.292	2.86
481.494	2.79
481.695	2.76
481.897	2.76
482.099	2.71
482.301	2.71
482.502	2.71
482.704	2.63
482.906	2.49
483.107	2.48
483.309	2.41
483.511	2.39
483.712	2.37
483.914	2.35
484.115	2.31
484.317	2.3
484.519	2.3
484.72	2.3
484.922	2.25
485.123	2.3
485.325	2.32
485.526	2.38
485.728	2.45
485.929	2.49
486.131	2.49
486.332	2.54
486.534	2.55
486.735	2.5
486.936	2.48
487.138	2.5
487.339	2.46
487.541	2.44
487.742	2.45
487.943	2.37
488.144	2.39
488.346	2.41
488.547	2.45
488.748	2.41
488.95	2.47
489.151	2.42
489.352	2.48
489.553	2.48
489.755	2.48
489.956	2.45
490.157	2.56
490.358	2.57
490.559	2.61
490.76	2.57
490.961	2.58
491.163	2.52
491.364	2.63
491.565	2.61
491.766	2.61
491.967	2.65
492.168	2.65
492.369	2.59
492.57	2.52
492.771	2.48
492.972	2.44
493.173	2.37
493.374	2.33
493.575	2.26
493.776	2.2
493.976	2.17
494.177	2.14
494.378	2.09
494.579	2.08
494.78	2.06
494.981	2.05
495.182	2.08
495.382	2.24
495.583	2.51
495.784	2.57
495.985	2.63
496.185	2.65
496.386	2.64
496.587	2.74
496.788	2.89
496.988	2.98
497.189	3.01
497.39	2.98
497.59	2.96
497.791	2.91
497.992	2.84
498.192	2.8
498.393	2.81
498.593	2.81
498.794	2.77
498.994	2.71
499.195	2.73
499.395	3.01
499.596	3.04
499.796	3.08
499.997	3.07
500.197	3.08
500.398	3.2
500.598	3.24
500.799	3.31
500.999	3.24
501.199	3.25
501.4	3.1
501.6	2.89
501.801	2.9
502.001	3.06
502.201	3.06
502.402	3.01
502.602	2.83
502.802	2.9
503.002	2.84
503.203	2.89
503.403	2.9
503.603	2.86
503.803	2.71
504.003	2.6
504.204	2.37
504.404	2.38
504.604	2.42
504.804	2.44
505.004	2.45
505.204	2.54
505.404	2.51
505.604	2.46
505.804	2.72
506.005	2.73
506.205	2.8
506.405	2.9
506.605	2.92
506.805	2.91
507.005	3.02
507.204	2.99
507.404	2.87
507.604	2.91
507.804	2.72
508.004	2.64
508.204	2.67
508.404	2.72
508.604	2.65
508.804	2.63
509.003	2.59
509.203	2.63
509.403	2.56
509.603	2.71
509.803	2.78
510.002	2.96
510.202	3
510.402	3.01
510.602	2.92
510.801	3.01
511.001	2.86
511.201	2.91
511.4	2.88
511.6	2.96
511.8	2.87
511.999	2.86
512.199	2.84
512.398	2.82
512.598	2.85
512.797	3.04
512.997	2.97
513.197	3.15
513.396	3.29
513.596	3.24
513.795	3.25
513.994	3.16
514.194	3.01
514.393	2.99
514.593	3.11
514.792	3.05
514.992	2.92
515.191	3.07
515.39	2.94
515.59	2.7
515.789	2.82
515.988	2.83
516.188	2.87
516.387	2.95
516.586	2.93
516.786	2.85
516.985	2.98
517.184	3.05
517.383	3.11
517.582	3.21
517.782	3.3
517.981	3.25
518.18	3.23
518.379	3.31
518.578	3.34
518.777	3.4
518.976	3.29
519.176	3.24
519.375	3.22
519.574	3.18
519.773	3.16
519.972	3.22
520.171	3.27
520.37	3.1
520.569	2.98
520.768	3.04
520.967	3.08
521.166	3.14
521.365	3.14
521.564	3.15
521.762	3.04
521.961	3.08
522.16	3.05
522.359	3.02
522.558	3.21
522.757	3.32
522.956	3.23
523.154	3.18
523.353	3.34
523.552	3.3
523.751	3.36
523.949	3.42
524.148	3.42
524.347	3.44
524.546	3.32
524.744	3.25
524.943	3.24
525.142	3.28
525.34	3.34
525.539	3.25
525.737	3.28
525.936	3.17
526.135	3.02
526.333	2.97
526.532	2.99
526.73	3.05
526.929	3.09
527.127	3.17
527.326	3.08
527.524	3.03
527.723	3.07
527.921	3.08
528.12	3.09
528.318	3.17
528.516	3.15
528.715	3.11
528.913	3.11
529.112	3.08
529.31	3
529.508	3.03
529.707	3.02
529.905	3.02
530.103	3.01
530.301	3.02
530.5	3.01
530.698	2.99
530.896	3.08
531.094	3.16
531.293	3.17
531.491	3.28
531.689	3.33
531.887	3.44
532.085	3.43
532.283	3.41
532.481	3.44
532.68	3.48
532.878	3.63
533.076	3.48
533.274	3.37
533.472	3.48
533.67	3.46
533.868	3.44
534.066	3.38
534.264	3.4
534.462	3.41
534.66	3.41
534.858	3.4
535.056	3.37
535.253	3.53
535.451	3.67
535.649	3.62
535.847	3.6
536.045	3.67
536.243	3.65
536.441	3.64
536.638	3.65
536.836	3.56
537.034	3.64
537.232	3.67
537.43	3.74
537.627	3.74
537.825	3.82
538.023	3.89
538.22	3.87
538.418	4.02
538.616	4.17
538.813	4.17
539.011	4.48
539.209	4.48
539.406	4.45
539.604	4.4
539.801	4.43
539.999	4.32
540.196	4.3
540.394	4.4
540.591	4.38
540.789	4.32
540.986	4.42
541.184	4.3
541.381	4.27
541.579	4.3
541.776	4.22
541.974	4.15
542.171	4.2
542.368	4.33
542.566	4.29
542.763	4.31
542.96	4.4
543.158	4.4
543.355	4.54
543.552	4.53
543.75	4.64
543.947	4.77
544.144	4.87
544.341	4.96
544.539	4.97
544.736	5.08
544.933	5.12
545.13	5.06
545.327	5.06
545.524	4.99
545.722	5.09
545.919	5.01
546.116	4.95
546.313	4.94
546.51	4.91
546.707	4.78
546.904	4.83
547.101	4.93
547.298	5
547.495	5.05
547.692	5.07
547.889	5.03
548.086	5.08
548.283	5.18
548.48	5.34
548.677	5.41
548.874	5.59
549.07	5.63
549.267	5.67
549.464	5.61
549.661	5.62
549.858	5.7
550.055	6.03
550.251	6
550.448	6.13
550.645	6.18
550.842	6.07
551.038	5.98
551.235	5.96
551.432	5.95
551.628	5.86
551.825	5.84
552.022	5.93
552.218	5.63
552.415	5.63
552.612	5.58
552.808	5.65
553.005	5.88
553.201	5.93
553.398	6.04
553.594	6.04
553.791	6.34
553.987	6.5
554.184	6.6
554.38	6.76
554.577	6.97
554.773	6.99
554.97	7.02
555.166	7.06
555.362	7.01
555.559	6.83
555.755	7.05
555.952	7.12
556.148	7.37
556.344	7.36
556.541	7.39
556.737	7.34
556.933	7.39
557.129	7.65
557.326	7.73
557.522	7.78
557.718	7.98
557.914	7.9
558.11	7.79
558.307	7.49
558.503	7.66
558.699	7.77
558.895	7.83
559.091	8
559.287	7.72
559.483	7.69
559.679	7.88
559.876	7.87
560.072	7.78
560.268	8.02
560.464	8.2
560.66	8.35
560.856	8.36
561.052	8.44
561.247	8.38
561.443	8.41
561.639	8.49
561.835	8.63
562.031	8.74
562.227	8.72
562.423	8.59
562.619	8.74
562.815	8.58
563.01	8.66
563.206	8.69
563.402	8.73
563.598	8.81
563.793	8.83
563.989	8.8
564.185	8.78
564.381	8.88
564.576	8.83
564.772	8.74
564.968	8.95
565.163	9.01
565.359	8.99
565.555	8.87
565.75	8.93
565.946	8.84
566.141	8.91
566.337	8.98
566.532	9.01
566.728	9.14
566.923	9.09
567.119	9.04
567.314	9.09
567.51	9.13
567.705	9.31
567.901	9.49
568.096	9.67
568.292	9.6
568.487	9.68
568.682	9.74
568.878	9.73
569.073	9.7
569.268	9.59
569.464	9.56
569.659	9.82
569.854	10.01
570.05	9.93
570.245	9.93
570.44	10.1
570.635	10.03
570.831	10.04
571.026	10.23
571.221	10.44
571.416	10.62
571.611	10.8
571.806	10.69
572.002	10.76
572.197	10.77
572.392	10.76
572.587	10.75
572.782	10.79
572.977	10.96
573.172	10.95
573.367	10.97
573.562	11.09
573.757	11.06
573.952	11.21
574.147	11.06
574.342	11
574.537	11.14
574.732	11.13
574.927	11.14
575.121	11.01
575.316	11.06
575.511	11.13
575.706	10.97
575.901	11.02
576.096	10.97
576.29	11.02
576.485	11.17
576.68	11.01
576.875	11.1
577.069	11.19
577.264	11.26
577.459	11.29
577.654	11.2
577.848	11.21
578.043	11.19
578.238	11.17
578.432	11.34
578.627	11.45
578.821	11.42
579.016	11.51
579.21	11.71
579.405	11.79
579.6	11.7
579.794	11.63
579.989	12.03
580.183	12.13
580.378	12.2
580.572	12.06
580.766	12.04
580.961	12.42
581.155	12.06
581.35	12.17
581.544	12.08
581.738	12.25
581.933	12.47
582.127	12.37
582.321	12.11
582.516	12.19
582.71	12.36
582.904	12.61
583.099	12.52
583.293	13
583.487	12.7
583.681	12.95
583.875	12.87
584.07	13.13
584.264	13.13
584.458	13.16
584.652	13.12
584.846	13.02
585.04	12.85
585.234	12.84
585.428	12.49
585.623	12.58
585.817	12.51
586.011	12.64
586.205	12.29
586.399	12.19
586.593	12.32
586.787	12.35
586.981	12.1
587.174	12.05
587.368	12.01
587.562	12.44
587.756	12.42
587.95	12.56
588.144	12.45
588.338	12.58
588.532	12.59
588.725	12.48
588.919	12.61
589.113	12.85
589.307	12.87
589.501	13.01
589.694	12.84
589.888	13.09
590.082	13.07
590.275	12.99
590.469	12.97
590.663	12.96
590.856	13.17
591.05	12.9
591.244	13.02
591.437	13.17
591.631	12.89
591.824	13
592.018	12.87
592.212	12.82
592.405	13.08
592.599	13.36
592.792	13.45
592.986	13.33
593.179	13.48
593.372	13.37
593.566	13.29
593.759	13.59
593.953	13.69
594.146	13.74
594.339	13.83
594.533	13.75
594.726	13.64
594.92	13.78
595.113	13.82
595.306	13.83
595.499	13.78
595.693	13.76
595.886	13.95
596.079	13.85
596.272	13.85
596.466	13.89
596.659	13.8
596.852	13.68
597.045	13.59
597.238	13.51
597.431	13.37
597.624	13.51
597.818	13.47
598.011	13.21
598.204	13.13
598.397	13.02
598.59	13.05
598.783	13.04
598.976	13.13
599.169	13.13
599.362	13.33
599.555	13.44
599.748	13.43
599.941	13.43
600.134	13.34
600.326	13.19
600.519	13.25
600.712	13.24
600.905	13.31
601.098	13.25
601.291	13.57
601.483	13.66
601.676	13.75
601.869	13.84
602.062	13.95
602.255	14
602.447	14.18
602.64	14.11
602.833	14.01
603.025	14.2
603.218	14.27
603.411	14.13
603.603	14.01
603.796	14.06
603.989	13.65
604.181	13.6
604.374	13.49
604.566	13.45
604.759	13.52
604.951	13.48
605.144	13.4
605.336	13.28
605.529	13.22
605.721	13.22
605.914	13.08
606.106	13.42
606.299	13.48
606.491	13.6
606.683	13.68
606.876	13.55
607.068	13.47
607.26	13.5
607.453	13.64
607.645	13.7
607.837	13.56
608.03	13.54
608.222	13.21
608.414	12.95
608.606	13.09
608.799	13.18
608.991	13.26
609.183	13.48
609.375	13.21
609.567	13.27
609.759	12.95
609.952	13.12
610.144	13.4
610.336	13.69
610.528	13.78
610.72	13.79
610.912	13.37
611.104	13.35
611.296	12.99
611.488	13.13
611.68	12.93
611.872	13.27
612.064	13.14
612.256	13.02
612.448	13.03
612.64	13.47
612.832	13.34
613.023	13.85
613.215	14.06
613.407	14.27
613.599	14.25
613.791	14.36
613.983	14.07
614.174	14.32
614.366	14.43
614.558	14.14
614.75	14.09
614.941	14.09
615.133	14.13
615.325	14
615.516	14.03
615.708	14.24
615.9	14.36
616.091	14.79
616.283	14.53
616.475	14.34
616.666	14.69
616.858	14.39
617.049	14.46
617.241	14.09
617.432	14.09
617.624	14.37
617.815	14.22
618.007	13.83
618.198	13.54
618.39	13.85
618.581	13.74
618.773	13.79
618.964	13.83
619.155	13.83
619.347	13.78
619.538	13.82
619.729	13.63
619.921	13.57
620.112	13.92
620.303	14.07
620.494	13.84
620.686	13.9
620.877	13.75
621.068	13.64
621.259	13.77
621.451	14
621.642	13.95
621.833	13.99
622.024	13.91
622.215	13.89
622.406	13.78
622.597	13.92
622.788	13.81
622.98	13.84
623.171	13.95
623.362	13.88
623.553	13.99
623.744	13.9
623.935	13.79
624.126	13.81
624.317	13.64
624.508	13.62
624.698	13.58
624.889	13.67
625.08	13.92
625.271	14.23
625.462	14.21
625.653	14.1
625.844	14.23
626.034	14.42
626.225	14.52
626.416	14.66
626.607	14.96
626.798	14.85
626.988	15.11
627.179	15
627.37	14.69
627.56	15.02
627.751	15.01
627.942	14.96
628.132	14.79
628.323	14.76
628.514	14.91
628.704	14.49
628.895	14.62
629.085	14.12
629.276	14
629.466	14.09
629.657	13.85
629.847	13.97
630.038	14.13
630.228	14.23
630.419	14.23
630.609	14.13
630.8	14.29
630.99	14.38
631.181	14.98
631.371	15.11
631.561	15.11
631.752	15
631.942	15.05
632.132	15.21
632.323	15.29
632.513	15.56
632.703	15.4
632.893	15.3
633.084	15.22
633.274	15.13
633.464	15.06
633.654	15.14
633.844	15.05
634.034	14.95
634.225	14.48
634.415	14.13
634.605	14.03
634.795	14.21
634.985	14.27
635.175	14.53
635.365	14.54
635.555	14.4
635.745	14.23
635.935	14.4
636.125	14.3
636.315	14.47
636.505	14.84
636.695	14.61
636.885	14.49
637.075	14.33
637.265	13.83
637.455	13.58
637.644	13.67
637.834	13.48
638.024	13.25
638.214	13.31
638.404	13.26
638.593	13.16
638.783	13.29
638.973	13.37
639.163	13.67
639.352	13.77
639.542	14.1
639.732	14.04
639.921	14.46
640.111	14.74
640.301	14.86
640.49	14.96
640.68	15.36
640.87	15.06
641.059	15.18
641.249	15.46
641.438	15.59
641.628	15.48
641.817	15.76
642.007	15.75
642.196	15.66
642.386	15.68
642.575	15.74
642.764	15.26
642.954	15.43
643.143	15.38
643.333	15.26
643.522	15.3
643.711	15.14
643.901	15.25
644.09	15.28
644.279	15.5
644.469	15.24
644.658	15.24
644.847	15.54
645.036	15.73
645.226	15.75
645.415	15.69
645.604	15.52
645.793	15.37
645.982	15.09
646.171	14.9
646.361	14.83
646.55	15.03
646.739	14.91
646.928	14.73
647.117	14.34
647.306	13.95
647.495	13.57
647.684	13.72
647.873	13.48
648.062	13.49
648.251	13.7
648.44	13.71
648.629	13.52
648.818	13.29
649.007	13.2
649.196	13.63
649.384	14.26
649.573	14.38
649.762	14.37
649.951	14.84
650.14	15.02
650.328	14.82
650.517	14.79
650.706	15.17
650.895	15.57
651.083	15.66
651.272	15.78
651.461	15.22
651.65	14.92
651.838	14.99
652.027	14.84
652.216	14.51
652.404	14.94
652.593	15.26
652.781	15.25
652.97	14.84
653.158	14.83
653.347	14.6
653.535	14.64
653.724	14.99
653.912	14.95
654.101	15.26
654.289	15.34
654.478	15.13
654.666	14.83
654.855	14.67
655.043	15.16
655.231	15.12
655.42	15.55
655.608	15.65
655.796	16.03
655.985	16.01
656.173	16.14
656.361	16.06
656.55	15.92
656.738	16.25
656.926	16.28
657.114	16.26
657.302	16.66
657.491	16.24
657.679	16.24
657.867	15.84
658.055	15.77
658.243	15.51
658.431	15.46
658.619	15.58
658.807	15.26
658.996	15.37
659.184	15.1
659.372	15.02
659.56	14.92
659.748	14.95
659.936	15.22
660.124	14.89
660.311	14.98
660.499	15.15
660.687	15.13
660.875	15.16
661.063	14.89
661.251	15.04
661.439	14.92
661.627	15.01
661.814	14.9
662.002	14.3
662.19	14.84
662.378	14.8
662.565	14.96
662.753	15.03
662.941	14.97
663.129	14.68
663.316	15.12
663.504	15.06
663.692	15.18
663.879	15.57
664.067	15.88
664.254	16.09
664.442	16.17
664.63	15.98
664.817	15.85
665.005	15.61
665.192	15.81
665.38	15.56
665.567	15.6
665.755	15.52
665.942	15.17
666.13	15.58
666.317	15.19
666.504	14.67
666.692	14.56
666.879	14.72
667.067	14.85
667.254	15.4
667.441	15.22
667.629	15.16
667.816	15.22
668.003	15.52
668.19	15.4
668.378	15.84
668.565	15.94
668.752	16.1
668.939	15.77
669.127	15.61
669.314	15.59
669.501	15.96
669.688	16.35
669.875	16.23
670.062	16.21
670.249	16.17
670.436	15.61
670.623	15.58
670.81	15.65
670.997	15.69
671.184	15.91
671.371	15.63
671.558	15.34
671.745	14.82
671.932	15.1
672.119	14.7
672.306	14.77
672.493	14.82
672.68	15.43
672.867	15.2
673.054	15.72
673.24	15.76
673.427	15.54
673.614	15.29
673.801	15.37
673.988	15.15
674.174	15.88
674.361	15.84
674.548	16.11
674.734	15.55
674.921	15.22
675.108	14.71
675.294	14.79
675.481	15.24
675.668	15.76
675.854	16.16
676.041	16.26
676.227	16.08
676.414	16.18
676.601	16.02
676.787	16.29
676.974	17
677.16	16.83
677.347	16.71
677.533	16.79
677.719	17.14
677.906	17.18
678.092	17.27
678.279	16.66
678.465	16.3
678.651	16.2
678.838	16.58
679.024	16.26
679.21	16.82
679.397	16.68
679.583	16.5
679.769	15.79
679.955	15.44
680.142	15.29
680.328	15.84
680.514	16.04
680.7	16.32
680.886	16.12
681.073	16.28
681.259	15.97
681.445	16.18
681.631	16.24
681.817	16.56
682.003	16.94
682.189	16.94
682.375	16.72
682.561	16.64
682.747	16.73
682.933	16.41
683.119	16.53
683.305	16.37
683.491	16.26
683.677	16.32
683.863	16.23
684.049	16.01
684.235	16.39
684.42	16.64
684.606	16.61
684.792	16.34
684.978	16.45
685.164	16
685.349	16.53
685.535	16.6
685.721	16.39
685.907	16.31
686.092	15.98
686.278	15.8
686.464	15.48
686.649	15.85
686.835	15.91
687.021	15.98
687.206	16.46
687.392	16.46
687.577	16.84
687.763	16.84
687.948	16.54
688.134	16.83
688.319	17.14
688.505	17.19
688.69	17
688.876	17.16
689.061	17.2
689.247	17.17
689.432	16.74
689.618	16.6
689.803	16.89
689.988	17.24
690.174	17.38
690.359	17.42
690.544	17.79
690.73	17.89
690.915	18.07
691.1	18.08
691.285	18.18
691.471	18.17
691.656	17.68
691.841	17.99
692.026	17.93
692.211	17.82
692.396	17.42
692.582	17.25
692.767	17.12
692.952	17.12
693.137	17.17
693.322	17.34
693.507	17.8
693.692	17.93
693.877	17.32
694.062	17.7
694.247	17.48
694.432	17.62
694.617	17.27
694.802	17.52
694.987	16.64
695.172	16.67
695.357	16.78
695.541	16.55
695.726	16.72
695.911	17.31
696.096	16.36
696.281	16.46
696.466	15.99
696.65	15.87
696.835	15.6
697.02	16.06
697.204	16.18
697.389	16.03
697.574	16.18
697.759	15.71
697.943	15.57
698.128	15.63
698.312	15.85
698.497	16
698.682	16.01
698.866	16.55
699.051	16.52
699.235	16.29
699.42	16.06
699.604	16.01
699.789	16.2
699.973	16.07
700.158	16.71
700.342	16.4
700.527	16.67
700.711	17.03
700.895	16.56
701.08	16.56
701.264	16.38
701.448	16.74
701.633	16.62
701.817	16.86
702.001	16.72
702.186	16.62
702.37	16.9
702.554	16.53
702.738	16.84
702.923	16.95
703.107	17.41
703.291	17.59
703.475	17.01
703.659	17.51
703.843	17.74
704.027	17.55
704.212	17.29
704.396	17.36
704.58	17.52
704.764	17.03
704.948	17.02
705.132	17.18
705.316	17.77
705.5	18.09
705.684	17.95
705.868	17.66
706.052	18.05
706.235	18.25
706.419	18.72
706.603	18.66
706.787	18.55
706.971	18.75
707.155	18.11
707.339	17.99
707.522	18.67
707.706	19.08
707.89	19.47
708.074	19.57
708.257	19.54
708.441	19.4
708.625	19.99
708.808	20.27
708.992	19.72
709.176	19.54
709.359	19.37
709.543	18.26
709.727	17.48
709.91	17.22
710.094	17.06
710.277	17.21
710.461	17.02
710.644	16.61
710.828	16.91
711.011	16.85
711.195	17.25
711.378	17.41
711.562	17.91
711.745	18.06
711.928	18.02
712.112	18.36
712.295	18.39
712.478	18.31
712.662	18.49
712.845	17.96
713.028	18.33
713.212	18.43
713.395	18.41
713.578	17.87
713.761	17.24
713.945	16.87
714.128	16.27
714.311	15.87
714.494	14.87
714.677	14.67
714.86	14.88
715.043	14.93
715.227	15.33
715.41	15.44
715.593	15.81
715.776	16.66
715.959	17.79
716.142	18.11
716.325	18.79
716.508	20
716.691	20.04
716.874	20.34
717.057	20.58
717.239	20.08
717.422	19.61
717.605	19.91
717.788	19.77
717.971	18.85
718.154	19.01
718.337	19.18
718.519	18.77
718.702	19.06
718.885	18.09
719.068	18.29
719.25	18.75
719.433	18.74
719.616	18.74
719.798	18.78
719.981	19.46
720.164	18.87
720.346	18.07
720.529	18.25
720.712	18.16
720.894	19.74
721.077	19.23
721.259	18.02
721.442	17.78
721.624	17.58
721.807	17.28
721.989	17.06
722.172	17.83
722.354	18.21
722.537	18.57
722.719	18.25
722.901	18.12
723.084	17.3
723.266	18.04
723.448	19.29
723.631	20
723.813	20.28
723.995	20.76
724.178	20.85
724.36	20.51
724.542	19.39
724.724	19.92
724.907	19.68
725.089	20.44
725.271	20.53
725.453	20.47
725.635	20.02
725.817	19.85
725.999	19.35
726.181	19.18
726.364	18.74
726.546	19.52
726.728	19.28
726.91	19
727.092	19.5
727.274	20.31
727.456	19.9
727.638	19.87
727.819	19.73
728.001	19.35
728.183	18.79
728.365	19.53
728.547	19.12
728.729	19.55
728.911	19.28
729.093	18.27
729.274	17.46
729.456	17.23
729.638	16.75
729.82	17.17
730.001	17.6
730.183	17.5
730.365	16.99
730.546	17.32
730.728	16.15
730.91	16.38
731.091	17.54
731.273	17.66
731.455	17.65
731.636	18.35
731.818	18.53
731.999	18.56
732.181	19.3
732.362	20.9
732.544	20.17
732.725	20.19
732.907	20.24
733.088	19.36
733.27	20.01
733.451	19.8
733.633	19.98
733.814	20.15
733.995	20.25
734.177	20.25
734.358	19.26
734.539	19.43
734.721	20
734.902	19.22
735.083	19.41
735.264	18.57
735.446	19.02
735.627	17.89
735.808	17.22
735.989	17.12
736.17	17.18
736.351	16.11
736.533	16.98
736.714	17.71
736.895	19
737.076	18.94
737.257	19.1
737.438	19.32
737.619	19.53
737.8	19.36
737.981	19.44
738.162	19.61
738.343	20.98
738.524	20.33
738.705	20.23
738.886	19.94
739.067	19.31
739.247	19.06
739.428	18.99
739.609	19.77
739.79	19.98
739.971	19.6
740.151	19.7
740.332	19.69
740.513	20.11
740.694	18.91
740.874	18.24
741.055	19.87
741.236	19.92
741.417	20.16
741.597	19.49
741.778	20.45
741.958	21.34
742.139	20.22
742.32	18.87
742.5	19.04
742.681	20.11
742.861	19.58
743.042	19.03
743.222	18.07
743.403	18.19
743.583	17.6
743.764	17.75
743.944	15.93
744.124	16.82
744.305	17.16
744.485	17
744.666	15.93
744.846	17.69
745.026	17.8
745.207	19.34
745.387	19.5
745.567	20.83
745.747	19.75
745.928	19.9
746.108	19.97
746.288	19.47
746.468	20.02
746.648	21.04
746.829	20.77
747.009	20.08
747.189	19.59
747.369	19.75
747.549	19.16
747.729	19.18
747.909	19.5
748.089	19.02
748.269	19.99
748.449	19.18
748.629	18.49
748.809	18.37
748.989	18.92
749.169	19.43
749.349	17.75
749.529	17.85
749.709	17.76
749.889	18.73
750.068	18.63
750.248	18.3
750.428	17.6
750.608	17.7
750.788	17.18
750.967	17.58
751.147	16.16
751.327	19.31
751.507	18.74
751.686	19.08
751.866	20.07
752.046	21.18
752.225	20.76
752.405	21.77
752.585	22.01
752.764	22.32
752.944	21.38
753.123	22.97
753.303	20.4
753.482	20.6
753.662	20.25
753.841	18.64
754.021	18.21
754.2	17.77
754.38	18.54
754.559	19.3
754.739	19.15
754.918	19.71
755.097	18.86
755.277	19.05
755.456	18.94
755.635	19.85
755.815	20.27
755.994	21.01
756.173	22.59
756.352	22.11
756.532	21.57
756.711	21.7
756.89	22.1
757.069	23.16
757.248	23.51
757.427	23.57
757.607	23.27
757.786	24.42
757.965	23.45
758.144	22.52
758.323	22.79
758.502	22.31
758.681	22.68
758.86	21.69
759.039	21.71
759.218	22.02
759.397	22.72
759.576	22.14
759.755	21.98
759.934	22.75
760.113	24.95
760.291	23.54
760.47	24.23
760.649	24.52
760.828	24.44
761.007	23.85
761.186	24.29
761.364	23.73
761.543	23.29
761.722	22.64
761.901	22.69
762.079	20.98
762.258	22
762.437	21.86
762.615	21.13
762.794	21.86
762.972	22.13
763.151	21.4
763.33	21.5
763.508	22.16
763.687	21.63
763.865	21.87
764.044	22.11
764.222	21.64
764.401	22.6
764.579	22.44
764.758	22.41
764.936	22.69
765.114	23.29
765.293	23.83
765.471	23.86
765.65	24.61
765.828	24.31
766.006	23.99
766.184	25.23
766.363	24.58
766.541	24.59
766.719	24.46
766.898	23.54
767.076	21.76
767.254	21.59
767.432	22.68
767.61	21.69
767.788	20.88
767.967	22.18
768.145	22.2
768.323	22.11
768.501	21.82
768.679	20.9
768.857	20.47
769.035	22.01
769.213	22.54
769.391	21.7
769.569	22.31
769.747	23.32
769.925	23.93
770.103	22.2
770.281	22.83
770.459	25.03
770.636	25.95
770.814	26.87
770.992	26.8
771.17	26.28
771.348	26.26
771.525	25.51
771.703	24.44
771.881	24.22
772.059	26.09
772.236	24.98
772.414	24.1
772.592	25.78
772.769	25.19
772.947	25.5
773.125	26.5
773.302	24.74
773.48	26.59
773.657	27.23
773.835	25.69
774.013	24.84
774.19	24.43
774.368	26.22
774.545	24.39
774.723	26.74
774.9	27.02
775.077	26.15
775.255	28.46
775.432	29.7
775.61	30.38
775.787	29.83
775.964	30.76
776.142	32.94
776.319	31.41
776.496	31.81
776.674	30.77
776.851	30.25
777.028	29.84
777.205	28.38
777.382	25.45
777.56	22.87
777.737	24.55
777.914	21.87
778.091	20.6
778.268	19.97
778.445	18.97
778.622	16.49
778.8	15.11
778.977	14.05
779.154	15.9
779.331	17.29
779.508	19.76
779.685	19.3
779.862	22.19
780.038	22.1
780.215	23.93
780.392	26.14
780.569	29.31
780.746	31.49
780.923	31.64
781.1	32.23
781.277	31.33
781.453	29.49
781.63	28.71
781.807	29.5
781.984	28.84
782.16	28.99
782.337	27.92
782.514	27.9
782.691	27.89
782.867	30.01
783.044	28.6
783.221	30.25
783.397	31.93
783.574	31.28
783.75	31.22
783.927	32.3
784.103	32.36
784.28	32.15
784.456	30.75
784.633	30.72
784.809	31.4
784.986	31.34
785.162	29.85
785.339	29.97
785.515	31.86
785.692	30.21
785.868	30.96
786.044	29.14
786.221	29.37
786.397	30.33
786.573	30.51
786.749	28
786.926	27.94
787.102	29.5
787.278	29.97
787.454	30.93
787.631	31.13
787.807	30.21
787.983	29.11
788.159	29.61
788.335	29.54
788.511	27.25
788.687	28.09
788.863	28.09
789.039	27.11
789.216	26.37
789.392	23.72
789.568	23.35
789.744	24.85
789.919	26.04
790.095	24.57
790.271	23.67
790.447	24.44
790.623	25.89
790.799	25.4
790.975	25.99
791.151	25.37
791.327	27.62
791.502	25.99
791.678	25.94
791.854	25.39
792.03	26.74
792.205	25.82
792.381	26.92
792.557	27.72
792.733	29.57
792.908	28.99
793.084	28.61
793.259	25.75
793.435	29.18
793.611	26.84
793.786	27.87
793.962	27.15
794.137	29.67
794.313	29.11
794.488	26.53
794.664	25.55
794.839	24.79
795.015	27.94
795.19	29.74
795.366	29.4
795.541	30.63
795.716	31.61
795.892	32.98
796.067	33.48
796.242	32.85
796.418	33.86
796.593	31.75
796.768	33.7
796.944	33.01
797.119	33.27
797.294	31.32
797.469	30.4
797.644	28.76
797.82	26.87
797.995	25.97
798.17	28.68
798.345	28.45
798.52	29.21
798.695	30.39
798.87	28.74
799.045	27.46
799.22	28.55
799.395	28.58
799.57	30.5
799.745	32.33
799.92	32.58
800.095	31.85
800.27	31.56
800.445	31.92
800.62	26.12
800.795	28.06
800.97	28.07
801.145	26.27
801.319	27.12
801.494	26.28
801.669	26.76
801.844	25.44
802.018	23.83
802.193	21.94
802.368	22.03
802.543	26.37
802.717	26.3
802.892	26.5
803.067	29.12
803.241	27.47
803.416	26.43
803.59	24.73
803.765	23.48
803.94	26.11
804.114	27.85
804.289	28.1
804.463	27.91
804.638	25.13
804.812	26.01
804.986	25.27
805.161	25.18
805.335	26.79
805.51	27.63
805.684	31.26
805.858	27
806.033	26.39
806.207	26.3
806.381	23.86
806.556	25.15
806.73	25.69
806.904	25.29
807.078	28.48
807.253	27.12
807.427	25.81
807.601	23.65
807.775	24.5
807.949	25.79
808.123	26.25
808.298	26.88
808.472	27.07
808.646	25.59
808.82	25.03
808.994	22.27
809.168	25.81
809.342	28.46
809.516	28
809.69	31.77
809.864	32.13
810.038	33.35
810.212	31.19
810.385	30.42
810.559	32.97
810.733	37.04
810.907	36.25
811.081	32.53
811.255	34.4
811.428	35.84
811.602	35.89
811.776	35.23
811.95	32.93
812.123	36.53
812.297	35.77
812.471	35.33
812.644	30.54
812.818	34.18
812.992	32.61
813.165	30.34
813.339	28.56
813.512	27.77
813.686	27.3
813.86	31.21
814.033	32.61
814.207	32.45
814.38	29.06
814.554	31.18
814.727	30.99
814.9	30.11
815.074	31.46
815.247	36.82
815.421	34.88
815.594	30.25
815.767	27.02
815.941	27.26
816.114	30.9
816.287	36.14
816.46	37.15
816.634	36.88
816.807	42.48
816.98	39.23
817.153	34.56
817.327	36.34
817.5	42.63
817.673	45.99
817.846	45.15
818.019	44.17
818.192	40.89
818.365	38.42
818.538	37.76
818.711	36.6
818.884	34.87
819.057	37.12
819.23	36.31
819.403	34.16
819.576	33.6
819.749	31.51
819.922	32.91
820.095	32.64
820.268	35.51
820.441	34.07
820.614	31.01
820.786	31.3
820.959	29.03
821.132	27.68
821.305	26.43
821.477	23.89
821.65	25.21
821.823	24.46
821.996	24.08
822.168	23.35
822.341	22.76
822.514	23.26
822.686	22.76
822.859	22.9
823.031	22.88
823.204	23.3
823.376	24.19
823.549	23.82
823.722	24.02
823.894	24.67
824.067	24.42
824.239	25.31
824.411	24.86
824.584	25.84
824.756	25.2
824.929	24.83
825.101	24.5
825.273	24.46
825.446	24.72
825.618	23.26
825.79	22.01
825.963	22.29
826.135	22.3
826.307	22.5
826.479	21.84
826.652	22.79
826.824	24
826.996	24.55
827.168	24.03
827.34	23.68
827.512	23.56
827.684	24.77
827.856	24.94
828.029	23.92
828.201	23.43
828.373	23.7
828.545	23.97
828.717	21.97
828.889	21.62
829.061	22.27
829.232	20.1
829.404	22.23
829.576	21.2
829.748	20.64
829.92	22.25
830.092	24.3
830.264	25.14
830.436	25.63
830.607	28.47
830.779	28.87
830.951	28.83
831.123	33.17
831.294	33.52
831.466	33.97
831.638	34.48
831.809	33.03
831.981	31.9
832.153	30.48
832.324	29.73
832.496	28.65
832.667	27.94
832.839	25.22
833.011	24.9
833.182	23.97
833.354	23.81
833.525	25.98
833.697	25.15
833.868	26.09
834.039	27.9
834.211	26.22
834.382	27.64
834.554	28.08
834.725	29.84
834.896	30.31
835.068	29.44
835.239	30.54
835.41	29.07
835.581	31.49
835.753	31.26
835.924	29.44
836.095	30.78
836.266	28.91
836.438	30.79
836.609	28.72
836.78	28.3
836.951	28.05
837.122	27.74
837.293	30.52
837.464	26.83
837.635	29.12
837.806	32.22
837.977	33.22
838.148	36.11
838.319	32.1
838.49	32.22
838.661	30.89
838.832	35.55
839.003	38.97
839.174	34.94
839.345	38.87
839.516	33.09
839.687	33.98
839.857	33.85
840.028	29.93
840.199	31.96
840.37	38.82
840.54	43.19
840.711	36.83
840.882	30.59
841.053	33.52
841.223	36.06
841.394	39.46
841.564	41.82
841.735	44.98
841.906	48.4
842.076	49
842.247	47.27
842.417	44.52
842.588	43.38
842.758	46.71
842.929	44.32
843.099	40.78
843.27	42.87
843.44	37.88
843.611	37.07
843.781	42.34
843.951	44.86
844.122	41.81
844.292	47.97
844.462	57.29
844.633	59.91
844.803	64.06
844.973	66.6
845.144	71.11
845.314	81.79
845.484	81.6
845.654	79.36
845.824	79.83
845.995	83.95
846.165	76.19
846.335	77.32
846.505	79.57
846.675	76.92
846.845	74.9
847.015	69.19
847.185	58.09
847.355	54.31
847.525	50.68
847.695	45.29
847.865	48.73
848.035	52.47
848.205	47.59
848.375	48.34
848.545	46.24
848.715	44.12
848.884	43.25
849.054	53.79
849.224	56.34
849.394	56.72
849.564	68.11
849.733	67.06
849.903	69.86
850.073	81.19
850.243	73.48
850.412	71.14
850.582	75.83
850.752	72.48
850.921	61.32
851.091	57.44
851.26	63.17
851.43	54.68
851.599	57.76
851.769	54.15
851.939	42.59
852.108	42.56
852.278	50.09
852.447	51.62
852.616	70.09
852.786	65.78
852.955	70.26
853.125	62.06
853.294	68.35
853.463	53.81
853.633	55.47
853.802	68.95
853.971	65.09
854.141	59.38
854.31	55.28
854.479	42.98
854.648	51.68
854.818	47.66
854.987	51.41
855.156	54.39
855.325	55.99
855.494	58.42
855.663	60.7
855.832	60.58
856.001	64.97
856.171	62.34
856.34	60.11
856.509	59.83
856.678	63.06
856.847	59.51
857.016	59.64
857.185	63.87
857.353	61.07
857.522	55.43
857.691	56.03
857.86	56.6
858.029	59.94
858.198	56.58
858.367	51.92
858.535	52.78
858.704	57.7
858.873	61.44
859.042	56.79
859.21	55.73
859.379	52.83
859.548	55.15
859.717	49.46
859.885	49.43
860.054	60.56
860.222	60.85
860.391	61.32
860.56	54.69
860.728	47.36
860.897	47.15
861.065	46.36
861.234	53.15
861.402	57.37
861.571	63.55
861.739	63.73
861.908	60.68
862.076	62.41
862.244	62.87
862.413	73.67
862.581	79.21
862.749	91.34
862.918	89.67
863.086	85.97
863.254	80.35
863.423	71.02
863.591	74.17
863.759	68.7
863.927	69.57
864.096	66.04
864.264	63.07
864.432	59.64
864.6	51.21
864.768	53.86
864.936	55.33
865.104	57.91
865.272	62.52
865.44	61.75
865.608	63.21
865.776	62.44
865.944	69.12
866.112	59.62
866.28	68.09
866.448	76.35
866.616	76.63
866.784	71.27
866.952	67.6
867.12	66.62
867.288	57.59
867.455	57.61
867.623	55.69
867.791	51.05
867.959	59.16
868.127	53.46
868.294	53
868.462	50.08
868.63	53.39
868.797	53.37
868.965	53.72
869.133	58.49
869.3	53.97
869.468	55.2
869.636	63.37
869.803	64.86
869.971	69.39
870.138	68.95
870.306	70.86
870.473	62.88
870.641	67.88
870.808	61.09
870.975	54.03
871.143	57.86
871.31	55.63
871.478	53.16
871.645	53.68
871.812	56.58
871.98	50.47
872.147	50.05
872.314	55.97
872.482	53.97
872.649	57.88
872.816	67.52
872.983	63.82
873.15	59.86
873.318	54.29
873.485	52.24
873.652	43.28
873.819	51.86
873.986	54.83
874.153	63.69
874.32	62.63
874.487	60.33
874.654	50.92
874.821	51.18
874.988	56.46
875.155	63.4
875.322	47.48
875.489	52.27
875.656	29.04
875.823	36.58
875.99	36.97
876.157	39.19
876.324	46.15
876.49	47.79
876.657	49.07
876.824	49.2
876.991	46.47
877.157	54.01
877.324	46.7
877.491	50.32
877.658	49.27
877.824	47.52
877.991	54.49
878.157	54.63
878.324	53.32
878.491	54.24
878.657	53.25
878.824	60.7
878.99	55.67
879.157	57.9
879.323	58.42
879.49	60.17
879.656	60.65
879.823	55.74
879.989	48.45
880.156	52.17
880.322	50.17
880.488	53.3
880.655	52.91
880.821	55.09
880.987	64.14
881.154	62.81
881.32	57.3
881.486	49.55
881.652	48.77
881.819	46.26
881.985	44.38
882.151	43.12
882.317	38.1
882.483	34.7
882.649	32.1
882.816	26.55
882.982	28.02
883.148	31.82
883.314	33.46
883.48	32.5
883.646	32.63
883.812	30.64
883.978	32.91
884.144	35.43
884.31	34.31
884.476	34.29
884.642	33.13
884.807	34
884.973	30.2
885.139	29.65
885.305	30.77
885.471	31.69
885.637	36.36
885.802	33.91
885.968	34.41
886.134	35.21
886.3	37.27
886.465	45.71
886.631	42.3
886.797	44.45
886.962	47.87
887.128	47.03
887.293	49.26
887.459	46.04
887.625	45.43
887.79	47.77
887.956	46.82
888.121	48.99
888.287	44.38
888.452	48.29
888.618	48.4
888.783	43.43
