Data from 2938022_Reflection_2.txt Node
Date: Sun Jul 12 15:24:50 EDT 2015
User: robert
Spectrometer: USB4E03001
Autoset integration time: false
Trigger mode: 4
Integration Time (sec): 1.000000E-1
Scans to average: 10
Electric dark correction enabled: true
Nonlinearity correction enabled: false
Boxcar width: 5
Stray light correction enabled: false
XAxis mode: Wavelengths
Stop averaging: false
Number of Pixels in Spectrum: 3648
>>>>>Begin Spectral Data<<<<<
177.566	-388.39
177.785	-235.77
178.005	-385.65
178.225	604.23
178.445	-100.76
178.665	-37.79
178.885	-40.86
179.105	-102.89
179.324	-68.57
179.544	-267.52
179.764	-197.34
179.984	-8.47
180.204	438.96
180.423	17.28
180.643	105.1
180.863	231.93
181.083	2522.88
181.302	-14.74
181.522	-93.66
181.742	430.31
181.961	93.13
182.181	-328.06
182.401	545.4
182.621	1447.42
182.84	-2162.24
183.06	-47.9
183.279	-114.2
183.499	-22.49
183.719	18.55
183.938	-0.59
184.158	39.38
184.377	420.95
184.597	111.8
184.816	154.28
185.036	118.53
185.256	-1034.51
185.475	154.86
185.695	-1423.62
185.914	-834.8
186.134	-451.36
186.353	-157.09
186.572	-17225
186.792	-180.03
187.011	-2246.36
187.231	3529.47
187.45	-79.61
187.67	-21.25
187.889	63.98
188.108	121.38
188.328	144.96
188.547	286.99
188.766	-479.75
188.986	-252.32
189.205	-190.12
189.424	-402.26
189.644	-696.21
189.863	-337.8
190.082	671.61
190.302	3311.32
190.521	-1572.09
190.74	2501.09
190.959	214.8
191.178	69.75
191.398	47.99
191.617	-18.71
191.836	-104.06
192.055	-87.86
192.274	271.14
192.494	416.63
192.713	234.03
192.932	212.62
193.151	178.99
193.37	140.09
193.589	167.28
193.808	146.14
194.027	146.03
194.246	155.22
194.465	184.58
194.685	156.1
194.904	91.28
195.123	73.44
195.342	45.38
195.561	22.81
195.78	-1.81
195.999	-43.1
196.218	-105.92
196.436	-29.65
196.655	-49.49
196.874	25.72
197.093	-27.82
197.312	-62.46
197.531	-103.04
197.75	42.03
197.969	154.76
198.188	-239.39
198.407	-156.68
198.625	-141.88
198.844	-59.11
199.063	-53.59
199.282	51.68
199.501	56.18
199.719	30.64
199.938	73.31
200.157	101.65
200.376	323.29
200.594	-335.01
200.813	-435.19
201.032	-320.35
201.251	-498.5
201.469	-706.82
201.688	6490.97
201.907	-478.05
202.125	-741.09
202.344	-4844.05
202.563	-1376.33
202.781	-449.47
203	2496.32
203.218	-3450.81
203.437	-365.83
203.656	-224.55
203.874	-386.7
204.093	-116.4
204.311	10.85
204.53	-14.12
204.748	-41.39
204.967	-25.01
205.185	-77.61
205.404	-76.72
205.622	-52.46
205.841	483.26
206.059	-606.11
206.278	45.12
206.496	66.29
206.715	-76.02
206.933	141.96
207.151	-16.94
207.37	5.12
207.588	48.49
207.806	81.66
208.025	706.62
208.243	39
208.461	31.21
208.68	88.23
208.898	-72.05
209.116	-385.1
209.335	-46.21
209.553	-138.81
209.771	-103.1
209.989	-47.92
210.208	-78.44
210.426	-320.87
210.644	1415.84
210.862	-3157.94
211.081	-799.42
211.299	-636.49
211.517	-460.71
211.735	-1160.24
211.953	-964.04
212.171	-21580
212.39	421.18
212.608	-114.35
212.826	-19.4
213.044	-43.74
213.262	34.58
213.48	64.53
213.698	78.57
213.916	51.48
214.134	81.43
214.352	74.29
214.57	37.86
214.788	46.97
215.006	56.81
215.224	66.75
215.442	64.92
215.66	51.47
215.878	22.44
216.096	34.63
216.314	46.66
216.532	22.73
216.75	39.44
216.968	95.55
217.185	65.9
217.403	81.77
217.621	47.25
217.839	63.12
218.057	59.6
218.275	49.59
218.492	-4.43
218.71	75.84
218.928	-61.66
219.146	-71.6
219.363	-121.62
219.581	-273.77
219.799	-242.62
220.017	-277.41
220.234	-683.79
220.452	-892.01
220.67	-427.63
220.887	-229
221.105	-157.64
221.323	-172.39
221.54	-174.36
221.758	-106.2
221.976	-121.73
222.193	-180.74
222.411	-59.21
222.629	-18.29
222.846	-9.72
223.064	-22.17
223.281	-57.46
223.499	-59.62
223.716	-72.14
223.934	-35.77
224.151	-63.2
224.369	-71.74
224.586	-25.85
224.804	-42.81
225.021	-47.4
225.239	-36.15
225.456	-13.51
225.674	-3.41
225.891	10.61
226.108	10.28
226.326	-5.7
226.543	5.04
226.76	7.35
226.978	8.7
227.195	10.49
227.413	14.3
227.63	12.46
227.847	6.64
228.064	9.02
228.282	4.39
228.499	9.65
228.716	11.98
228.934	11.06
229.151	10.35
229.368	8.73
229.585	6.33
229.802	8.81
230.02	10.06
230.237	7.23
230.454	5.67
230.671	7.84
230.888	4.29
231.105	5.87
231.323	2.81
231.54	4.58
231.757	3.54
231.974	7.36
232.191	-4.68
232.408	-9.97
232.625	-2.96
232.842	-5.89
233.059	-3.24
233.276	-7.12
233.493	-12.89
233.71	-13.28
233.927	-12.23
234.144	-4.96
234.361	-1.91
234.578	-0.65
234.795	3.88
235.012	3.97
235.229	11.87
235.446	9.84
235.663	5.22
235.879	7.45
236.096	8.98
236.313	4.09
236.53	-1.59
236.747	-1.63
236.964	4.29
237.181	3.82
237.397	5.14
237.614	3.66
237.831	9.63
238.048	15.96
238.264	17.6
238.481	21.21
238.698	26.63
238.915	34.21
239.131	27.81
239.348	29.24
239.565	28.26
239.781	27.23
239.998	23.65
240.215	16.99
240.431	15.72
240.648	13.41
240.865	14.27
241.081	11.32
241.298	6.16
241.514	7.35
241.731	6.98
241.947	5.29
242.164	3.41
242.38	1.65
242.597	3.98
242.814	4.23
243.03	3.83
243.246	1.11
243.463	-0.44
243.679	0.54
243.896	-0.62
244.112	-1.79
244.329	-0.37
244.545	0.86
244.762	4.22
244.978	1.92
245.194	2
245.411	2.37
245.627	4.67
245.843	6.85
246.06	7.52
246.276	8.4
246.492	8.99
246.709	10.11
246.925	10.69
247.141	10.23
247.357	11.03
247.574	10.83
247.79	11.04
248.006	11.34
248.222	11.59
248.439	11.03
248.655	10.16
248.871	9.64
249.087	9.09
249.303	7.72
249.519	6.97
249.736	5.38
249.952	2.18
250.168	2.63
250.384	-0.01
250.6	1.25
250.816	2.18
251.032	5.43
251.248	4.69
251.464	6.19
251.68	6.72
251.896	6.11
252.112	5.05
252.328	8.56
252.544	7.84
252.76	10.2
252.976	9.44
253.192	8.74
253.408	8.09
253.624	9.82
253.84	7.96
254.056	8.78
254.272	11.52
254.487	13.95
254.703	12.82
254.919	11.14
255.135	7.29
255.351	5.08
255.567	9.67
255.782	7.06
255.998	5.57
256.214	7.19
256.43	7.09
256.646	6.4
256.861	6.13
257.077	5.83
257.293	10.33
257.508	11.77
257.724	12.72
257.94	10.45
258.155	12.02
258.371	11.94
258.587	11.78
258.802	10.53
259.018	9.64
259.234	10.59
259.449	11.2
259.665	10.18
259.88	9.72
260.096	8.9
260.312	9.68
260.527	8.92
260.743	8.01
260.958	7.96
261.174	8.14
261.389	7.67
261.605	6.33
261.82	7.03
262.036	6.44
262.251	6.47
262.466	7.9
262.682	6.73
262.897	7.39
263.113	8.19
263.328	5.92
263.543	5.95
263.759	6.73
263.974	7.7
264.189	4.79
264.405	5.26
264.62	6.53
264.835	5.25
265.051	4.36
265.266	5.03
265.481	6.52
265.696	7.97
265.912	8.27
266.127	9.1
266.342	8.61
266.557	8.8
266.773	8.38
266.988	6.12
267.203	6.61
267.418	6.76
267.633	6.67
267.848	6.06
268.064	6.08
268.279	6.88
268.494	6.63
268.709	5.66
268.924	5.26
269.139	6.05
269.354	6.03
269.569	6.06
269.784	5.49
269.999	5.09
270.214	4.74
270.429	4.88
270.644	3.42
270.859	2.97
271.074	3.78
271.289	3.63
271.504	3.49
271.719	5.97
271.934	5.41
272.149	5.2
272.363	4.58
272.578	5.02
272.793	5.31
273.008	5.5
273.223	6.76
273.438	7.39
273.653	9.01
273.867	9.2
274.082	8.75
274.297	7.99
274.512	8.16
274.726	7.84
274.941	8.28
275.156	5.99
275.371	6.27
275.585	4.65
275.8	4.18
276.015	2.18
276.229	3.38
276.444	3.69
276.659	4.94
276.873	5.75
277.088	5.99
277.302	6.11
277.517	8.89
277.732	9.43
277.946	9.84
278.161	9.68
278.375	10.93
278.59	9.92
278.804	8.54
279.019	7.8
279.233	7.01
279.448	7.15
279.662	5.95
279.877	5.45
280.091	3.88
280.306	6.03
280.52	6.64
280.735	7.17
280.949	7.48
281.163	7.6
281.378	8.41
281.592	7.93
281.806	8.7
282.021	9.22
282.235	8.2
282.449	8.29
282.664	7.13
282.878	7.07
283.092	5.82
283.307	5.59
283.521	6.17
283.735	6.48
283.949	7.82
284.164	8.25
284.378	8.01
284.592	8.86
284.806	9.34
285.02	9.14
285.234	9.74
285.449	9.59
285.663	9.19
285.877	9.68
286.091	9.88
286.305	9.26
286.519	9.11
286.733	9.84
286.947	10.11
287.161	9.83
287.375	10.39
287.589	9.11
287.803	9.77
288.017	10.08
288.231	9.78
288.445	9.06
288.659	9.95
288.873	10.15
289.087	8.17
289.301	7.92
289.515	8.59
289.729	7.71
289.943	8.43
290.157	8.28
290.371	8.87
290.584	7.38
290.798	7.87
291.012	7.84
291.226	6.54
291.44	8.76
291.654	8.33
291.867	9.14
292.081	9.45
292.295	8.71
292.509	9.32
292.722	9.53
292.936	9.63
293.15	8.62
293.364	7.57
293.577	8.36
293.791	7.39
294.005	8.17
294.218	8.75
294.432	8.05
294.645	8.62
294.859	7.96
295.073	7.59
295.286	7.98
295.5	7.92
295.713	8.41
295.927	8.29
296.14	7.38
296.354	6.53
296.568	5.05
296.781	4.94
296.994	4.55
297.208	5.5
297.421	4.59
297.635	4.93
297.848	5.89
298.062	5.83
298.275	5.54
298.489	5.95
298.702	6.54
298.915	6.56
299.129	7.3
299.342	7.89
299.555	7.1
299.769	7.58
299.982	8.59
300.195	7.8
300.409	8.52
300.622	8.18
300.835	7.37
301.048	7.92
301.262	10.06
301.475	9.89
301.688	9.93
301.901	10.38
302.115	10.23
302.328	9.95
302.541	10.87
302.754	9.44
302.967	11.66
303.18	13.61
303.393	12.58
303.607	10.82
303.82	11.14
304.033	9.96
304.246	9.49
304.459	9.81
304.672	10.63
304.885	11.43
305.098	11.36
305.311	9.76
305.524	9.38
305.737	9.54
305.95	8.58
306.163	8.98
306.376	9.36
306.589	8.71
306.802	10.13
307.015	7.98
307.228	7.27
307.44	8.12
307.653	8.41
307.866	7.31
308.079	8.24
308.292	8.62
308.505	7.18
308.718	8.47
308.93	8.62
309.143	7.02
309.356	7.41
309.569	4.77
309.781	4.78
309.994	4.86
310.207	4.72
310.42	3.39
310.632	4.63
310.845	6.27
311.058	5.33
311.27	5.16
311.483	5.1
311.696	5.63
311.908	7.76
312.121	8.6
312.333	7.67
312.546	9.16
312.759	9.18
312.971	7.82
313.184	6.62
313.396	6.95
313.609	7.91
313.821	8.34
314.034	8.59
314.246	7.46
314.459	6.61
314.671	6.52
314.884	5.87
315.096	7.24
315.309	8.48
315.521	9.69
315.733	11.14
315.946	11.77
316.158	12.77
316.371	11.83
316.583	11.44
316.795	9.97
317.008	11.76
317.22	10.82
317.432	9.4
317.644	9.8
317.857	8.62
318.069	6.98
318.281	7.42
318.494	6.53
318.706	6.43
318.918	6.91
319.13	8.31
319.342	7.5
319.555	6.74
319.767	7.21
319.979	5.91
320.191	4.68
320.403	4.76
320.615	4.14
320.827	4.16
321.039	5.17
321.252	4.57
321.464	4.89
321.676	5.12
321.888	7.07
322.1	9.12
322.312	10.1
322.524	10.43
322.736	10.84
322.948	10.72
323.16	10.38
323.372	9.3
323.584	9.97
323.796	8.54
324.007	7.26
324.219	7.41
324.431	6.16
324.643	5.33
324.855	4.18
325.067	3.34
325.279	1.69
325.491	3.8
325.702	3.97
325.914	3.86
326.126	5.62
326.338	6.96
326.55	7.3
326.761	7.28
326.973	6.07
327.185	7.93
327.396	8.99
327.608	11.11
327.82	8.67
328.032	7.92
328.243	6.67
328.455	6.74
328.666	7.01
328.878	5.7
329.09	4.77
329.301	5.63
329.513	4.94
329.725	4.97
329.936	4.03
330.148	5.99
330.359	7.32
330.571	8.4
330.782	7.8
330.994	7.29
331.205	8.22
331.417	9.06
331.628	10.47
331.84	12.51
332.051	11.13
332.262	11.15
332.474	8.83
332.685	8.85
332.897	8.87
333.108	9.21
333.319	8.05
333.531	6.51
333.742	6.37
333.953	6.37
334.165	5.64
334.376	6.53
334.587	7.11
334.799	8.35
335.01	7.79
335.221	8.01
335.432	6.82
335.644	7.11
335.855	8.08
336.066	8.16
336.277	7.72
336.488	7.47
336.7	6.36
336.911	5.96
337.122	5.37
337.333	5.58
337.544	4.94
337.755	5.49
337.966	6.3
338.177	5.06
338.388	5.44
338.599	6.05
338.811	5.28
339.022	5.6
339.233	4.65
339.444	5.52
339.655	4.47
339.866	6.08
340.076	6.54
340.287	6.71
340.498	8.91
340.709	8.03
340.92	7.92
341.131	8.71
341.342	9.56
341.553	9.54
341.764	10.09
341.975	11.51
342.185	11.37
342.396	11.52
342.607	11.59
342.818	11.02
343.029	10.47
343.239	9.51
343.45	9.02
343.661	8.7
343.872	9.18
344.082	7.94
344.293	7.01
344.504	6.25
344.714	6.33
344.925	6.91
345.136	4.84
345.346	5.21
345.557	6.01
345.768	6.11
345.978	5.34
346.189	4.98
346.399	6.29
346.61	6.93
346.821	7.55
347.031	6.93
347.242	5.92
347.452	7.17
347.663	8.6
347.873	8.84
348.084	9.67
348.294	10.26
348.504	11.1
348.715	10.45
348.925	8.85
349.136	7.46
349.346	7.44
349.557	6.94
349.767	7.46
349.977	6.29
350.188	6
350.398	5.41
350.608	6.15
350.819	5.68
351.029	5.75
351.239	8.57
351.449	9.39
351.66	8.17
351.87	8.88
352.08	9.21
352.29	10.51
352.501	9.68
352.711	9.61
352.921	9.63
353.131	10.15
353.341	9.14
353.552	8.29
353.762	7.82
353.972	9.18
354.182	9.15
354.392	9.58
354.602	7.72
354.812	8.42
355.022	8.04
355.232	8.12
355.442	7.58
355.652	7.93
355.862	6.57
356.072	6.37
356.282	5.65
356.492	5.31
356.702	4.96
356.912	5.85
357.122	5.54
357.332	6.25
357.542	6.68
357.752	7.19
357.962	6.47
358.171	7.7
358.381	9.39
358.591	9.97
358.801	10.58
359.011	10.52
359.221	10.18
359.43	10.47
359.64	10.32
359.85	9.02
360.06	9.27
360.269	9.9
360.479	8.17
360.689	7.4
360.899	7.85
361.108	7.37
361.318	7.95
361.528	7.88
361.737	7.52
361.947	6.82
362.156	7.07
362.366	6.29
362.576	5.78
362.785	6.76
362.995	6.68
363.204	6.56
363.414	6.79
363.623	6.7
363.833	6.58
364.042	7.01
364.252	7.73
364.461	7.58
364.671	8.01
364.88	7.83
365.09	6.63
365.299	6.49
365.509	5.12
365.718	5.07
365.927	3.82
366.137	3.59
366.346	3.26
366.555	3.39
366.765	4.67
366.974	4.89
367.183	5.5
367.393	5.87
367.602	5.57
367.811	6.98
368.021	5.68
368.23	5.75
368.439	6.59
368.648	5.92
368.857	5.18
369.067	3.77
369.276	3.94
369.485	3.98
369.694	4.71
369.903	4.85
370.112	4.59
370.321	5.48
370.531	5.65
370.74	5.24
370.949	5.86
371.158	5.67
371.367	6.17
371.576	5.54
371.785	5.34
371.994	5.53
372.203	5.44
372.412	5.55
372.621	6.38
372.83	6.1
373.039	6.01
373.248	6.17
373.457	6.67
373.666	5.89
373.874	6.01
374.083	6.12
374.292	5.04
374.501	4.8
374.71	4.68
374.919	3.95
375.128	5.15
375.336	5.53
375.545	5.8
375.754	5.17
375.963	5.39
376.171	4.73
376.38	4.68
376.589	5.56
376.798	5.82
377.006	6.11
377.215	6.63
377.424	6.54
377.632	5.81
377.841	5.5
378.05	5.99
378.258	6.62
378.467	6.99
378.675	7.19
378.884	7.21
379.093	7.37
379.301	6.87
379.51	6.23
379.718	5.75
379.927	6.04
380.135	6.18
380.344	6.54
380.552	5.75
380.761	5.65
380.969	5.14
381.177	5.17
381.386	5.43
381.594	5.41
381.803	5.68
382.011	5.45
382.219	5.63
382.428	5.19
382.636	5.21
382.845	5.34
383.053	4.95
383.261	5.12
383.469	4.89
383.678	4.12
383.886	3.64
384.094	3.99
384.302	3.88
384.511	3.74
384.719	4.02
384.927	3.81
385.135	3.8
385.343	4.08
385.552	3.99
385.76	3.84
385.968	3.41
386.176	3.62
386.384	3.29
386.592	3.45
386.8	3.77
387.008	3.51
387.216	3.16
387.424	3.35
387.633	3.36
387.841	3.44
388.049	3.84
388.257	4.5
388.465	4.52
388.672	4.41
388.88	4.53
389.088	4.04
389.296	4.08
389.504	3.96
389.712	3.87
389.92	3.86
390.128	4.2
390.336	3.74
390.544	4.12
390.751	4.48
390.959	4.79
391.167	4.48
391.375	4.63
391.583	4.41
391.79	4.3
391.998	4.21
392.206	4.2
392.414	4.11
392.621	4
392.829	3.67
393.037	3.7
393.244	3.36
393.452	3.51
393.66	3.72
393.867	3.84
394.075	4.22
394.283	4.32
394.49	4.59
394.698	4.23
394.905	4.47
395.113	4.46
395.32	4.39
395.528	4.26
395.735	4.14
395.943	4.16
396.15	4.23
396.358	3.5
396.565	3.52
396.773	3.16
396.98	3.18
397.188	3.53
397.395	3.53
397.602	3.13
397.81	2.99
398.017	3.13
398.225	2.95
398.432	3.1
398.639	3.54
398.847	3.35
399.054	3.61
399.261	3.85
399.468	3.25
399.676	3.39
399.883	3.48
400.09	3.58
400.297	3.72
400.505	3.28
400.712	3.4
400.919	3.71
401.126	3.8
401.333	3.56
401.54	3.4
401.748	3.55
401.955	3.36
402.162	3.68
402.369	3.57
402.576	3.42
402.783	3.93
402.99	3.67
403.197	3.28
403.404	3.54
403.611	3.36
403.818	3.29
404.025	3.41
404.232	3.47
404.439	3.26
404.646	3.5
404.853	3.57
405.06	3.37
405.267	3.37
405.474	3.4
405.681	3.31
405.887	3.45
406.094	3.44
406.301	3.27
406.508	3.31
406.715	3.6
406.922	3.49
407.128	3.58
407.335	3.4
407.542	3.61
407.749	3.77
407.955	3.84
408.162	3.87
408.369	3.96
408.575	4.11
408.782	3.93
408.989	3.99
409.195	4.14
409.402	3.92
409.609	3.99
409.815	4.04
410.022	4.14
410.228	3.83
410.435	3.62
410.642	3.74
410.848	3.77
411.055	3.92
411.261	3.35
411.468	3.29
411.674	3.13
411.881	3.17
412.087	2.96
412.294	3.12
412.5	3.25
412.706	3.44
412.913	3.22
413.119	3.07
413.326	3.33
413.532	3.58
413.738	3.58
413.945	3.57
414.151	3.79
414.357	3.77
414.564	3.54
414.77	3.57
414.976	3.62
415.182	3.65
415.389	3.67
415.595	3.38
415.801	3.57
416.007	3.49
416.214	3.47
416.42	3.61
416.626	3.33
416.832	3.53
417.038	3.49
417.244	3.47
417.45	3.46
417.657	3.54
417.863	3.48
418.069	3.3
418.275	3.23
418.481	3.29
418.687	3.18
418.893	3.34
419.099	3.27
419.305	3.22
419.511	3.18
419.717	3.32
419.923	3.28
420.129	3.32
420.335	3.45
420.541	3.39
420.746	3.44
420.952	3.22
421.158	3.27
421.364	3.21
421.57	3.22
421.776	3.21
421.982	3.07
422.187	3.1
422.393	3.13
422.599	2.96
422.805	3.02
423.01	2.98
423.216	3.03
423.422	3.01
423.628	2.95
423.833	3.02
424.039	3.06
424.245	3.14
424.45	3.18
424.656	3.22
424.862	3.4
425.067	3.6
425.273	3.53
425.478	3.58
425.684	3.56
425.889	3.61
426.095	3.57
426.301	3.58
426.506	3.61
426.712	3.52
426.917	3.28
427.123	3.14
427.328	2.91
427.533	3.03
427.739	2.96
427.944	2.83
428.15	3.03
428.355	2.79
428.561	2.83
428.766	2.85
428.971	2.89
429.177	3
429.382	2.97
429.587	2.98
429.793	2.88
429.998	3.16
430.203	3.28
430.408	3.12
430.614	3.27
430.819	3.33
431.024	3.2
431.229	2.89
431.434	2.96
431.64	3.02
431.845	2.9
432.05	2.85
432.255	2.76
432.46	2.87
432.665	2.99
432.87	3
433.076	2.83
433.281	2.9
433.486	3.19
433.691	3.14
433.896	3.09
434.101	3.25
434.306	3.31
434.511	3.27
434.716	3.33
434.921	3.26
435.126	3.13
435.331	3.16
435.535	3.03
435.74	2.76
435.945	2.82
436.15	2.83
436.355	2.82
436.56	2.71
436.765	2.65
436.97	2.58
437.174	2.73
437.379	2.91
437.584	2.83
437.789	2.77
437.993	2.94
438.198	2.89
438.403	2.78
438.608	2.69
438.812	2.76
439.017	2.75
439.222	2.73
439.426	2.42
439.631	2.34
439.836	2.57
440.04	2.53
440.245	2.7
440.45	2.67
440.654	2.84
440.859	2.86
441.063	2.98
441.268	3.05
441.472	3.02
441.677	3.06
441.881	3.08
442.086	3.09
442.29	3.13
442.495	3.03
442.699	3.06
442.904	2.98
443.108	2.96
443.312	2.83
443.517	2.84
443.721	2.81
443.925	2.95
444.13	2.97
444.334	2.78
444.538	2.94
444.743	2.91
444.947	2.98
445.151	3.09
445.356	3.2
445.56	3.23
445.764	3.17
445.968	3.1
446.173	2.98
446.377	3.07
446.581	3.11
446.785	3.11
446.989	3.05
447.193	2.95
447.398	2.84
447.602	2.85
447.806	2.84
448.01	2.87
448.214	3.1
448.418	3.35
448.622	3.36
448.826	3.41
449.03	3.38
449.234	3.29
449.438	3.27
449.642	3.26
449.846	3.16
450.05	2.96
450.254	3.03
450.458	2.85
450.662	2.65
450.866	2.39
451.069	2.4
451.273	2.49
451.477	2.87
451.681	2.97
451.885	2.95
452.089	3.01
452.292	3.22
452.496	3.17
452.7	2.99
452.904	2.96
453.107	3.26
453.311	3.08
453.515	2.77
453.719	2.57
453.922	2.48
454.126	2.66
454.33	2.57
454.533	2.56
454.737	2.62
454.94	2.68
455.144	2.92
455.348	2.7
455.551	2.91
455.755	3.02
455.958	3.1
456.162	3.13
456.365	2.95
456.569	3.11
456.772	3.15
456.976	2.9
457.179	3.05
457.383	2.66
457.586	2.66
457.79	2.49
457.993	2.7
458.196	2.59
458.4	2.7
458.603	2.83
458.807	2.59
459.01	2.63
459.213	2.77
459.417	2.76
459.62	2.74
459.823	2.76
460.026	2.77
460.23	2.71
460.433	2.77
460.636	2.77
460.839	2.66
461.042	2.67
461.246	2.68
461.449	2.78
461.652	2.81
461.855	2.91
462.058	2.96
462.261	3.09
462.464	3.19
462.668	3.17
462.871	2.99
463.074	2.97
463.277	3.07
463.48	3.05
463.683	2.94
463.886	2.77
464.089	2.64
464.292	2.65
464.495	2.83
464.698	2.6
464.901	2.72
465.104	2.79
465.306	2.68
465.509	2.71
465.712	2.67
465.915	2.54
466.118	2.66
466.321	2.79
466.524	2.84
466.726	2.55
466.929	2.64
467.132	2.47
467.335	2.54
467.538	2.76
467.74	2.74
467.943	2.7
468.146	2.68
468.348	2.71
468.551	2.73
468.754	2.63
468.956	2.75
469.159	2.74
469.362	2.79
469.564	2.58
469.767	2.39
469.969	2.49
470.172	2.37
470.375	2.6
470.577	2.7
470.78	2.7
470.982	2.65
471.185	2.61
471.387	2.78
471.59	2.71
471.792	2.93
471.995	3.1
472.197	3.15
472.399	3.4
472.602	3.25
472.804	3.24
473.007	3.16
473.209	3.27
473.411	3.22
473.614	3.3
473.816	3.3
474.018	3.32
474.22	3.22
474.423	3.11
474.625	3.12
474.827	3.24
475.03	3.12
475.232	2.99
475.434	2.92
475.636	2.99
475.838	2.77
476.04	2.94
476.243	2.94
476.445	2.92
476.647	2.83
476.849	2.56
477.051	2.5
477.253	2.56
477.455	2.83
477.657	2.92
477.859	3
478.061	3.07
478.263	3.07
478.465	3.05
478.667	3.2
478.869	3.15
479.071	3.31
479.273	3.24
479.475	3.18
479.677	3.11
479.879	3.03
480.081	2.96
480.283	2.93
480.485	2.83
480.686	2.84
480.888	2.86
481.09	3.03
481.292	3.04
481.494	3.03
481.695	3.05
481.897	3
482.099	3
482.301	2.97
482.502	2.89
482.704	2.74
482.906	2.78
483.107	2.75
483.309	2.73
483.511	2.72
483.712	2.75
483.914	2.79
484.115	2.79
484.317	2.81
484.519	2.77
484.72	2.81
484.922	2.88
485.123	2.85
485.325	2.83
485.526	2.86
485.728	2.87
485.929	2.94
486.131	2.88
486.332	2.91
486.534	2.94
486.735	3.01
486.936	2.96
487.138	2.98
487.339	2.99
487.541	3.02
487.742	2.96
487.943	2.98
488.144	2.9
488.346	2.84
488.547	2.79
488.748	2.79
488.95	2.69
489.151	2.74
489.352	2.84
489.553	2.94
489.755	2.91
489.956	2.91
490.157	2.89
490.358	2.97
490.559	2.97
490.76	3.03
490.961	3.01
491.163	3.05
491.364	3.02
491.565	2.86
491.766	2.78
491.967	2.76
492.168	2.87
492.369	2.83
492.57	2.84
492.771	2.99
492.972	2.97
493.173	2.87
493.374	3
493.575	2.96
493.776	3.02
493.976	3.05
494.177	3.06
494.378	2.91
494.579	3.01
494.78	2.89
494.981	2.72
495.182	2.72
495.382	2.66
495.583	2.43
495.784	2.42
495.985	2.48
496.185	2.44
496.386	2.42
496.587	2.3
496.788	2.41
496.988	2.4
497.189	2.46
497.39	2.46
497.59	2.54
497.791	2.65
497.992	2.68
498.192	2.57
498.393	2.52
498.593	2.61
498.794	2.75
498.994	2.6
499.195	2.74
499.395	2.75
499.596	2.82
499.796	2.84
499.997	2.9
500.197	2.96
500.398	3.09
500.598	3.11
500.799	3.11
500.999	3.1
501.199	3.2
501.4	3.01
501.6	3.18
501.801	3.1
502.001	3.34
502.201	3.17
502.402	3.18
502.602	3.33
502.802	3.46
503.002	3.5
503.203	3.58
503.403	3.47
503.603	3.63
503.803	3.47
504.003	3.4
504.204	3.41
504.404	3.41
504.604	3.39
504.804	3.43
505.004	3.33
505.204	3.3
505.404	3.49
505.604	3.47
505.804	3.44
506.005	3.43
506.205	3.63
506.405	3.36
506.605	3.5
506.805	3.48
507.005	3.33
507.204	3.25
507.404	3.18
507.604	2.95
507.804	2.84
508.004	2.73
508.204	2.73
508.404	2.73
508.604	2.84
508.804	2.83
509.003	2.78
509.203	2.91
509.403	3.04
509.603	2.96
509.803	3.08
510.002	3.24
510.202	3.36
510.402	3.45
510.602	3.35
510.801	3.35
511.001	3.38
511.201	3.49
511.4	3.28
511.6	3.27
511.8	3.47
511.999	3.54
512.199	3.37
512.398	3.39
512.598	3.41
512.797	3.28
512.997	3.29
513.197	3.29
513.396	3.39
513.596	3.46
513.795	3.53
513.994	3.48
514.194	3.12
514.393	3.23
514.593	3.25
514.792	3.22
514.992	3.31
515.191	3.26
515.39	3.15
515.59	2.97
515.789	3.08
515.988	2.93
516.188	2.98
516.387	3.21
516.586	3.17
516.786	3.13
516.985	3.21
517.184	3.37
517.383	3.41
517.582	3.49
517.782	3.53
517.981	3.42
518.18	3.5
518.379	3.41
518.578	3.4
518.777	3.42
518.976	3.27
519.176	3.18
519.375	3.14
519.574	3.13
519.773	3.1
519.972	3.01
520.171	3.12
520.37	3.13
520.569	3.21
520.768	3.24
520.967	3.32
521.166	3.53
521.365	3.56
521.564	3.59
521.762	3.57
521.961	3.72
522.16	3.74
522.359	3.7
522.558	3.69
522.757	3.65
522.956	3.63
523.154	3.67
523.353	3.64
523.552	3.58
523.751	3.62
523.949	3.65
524.148	3.71
524.347	3.74
524.546	3.58
524.744	3.52
524.943	3.47
525.142	3.43
525.34	3.35
525.539	3.33
525.737	3.39
525.936	3.4
526.135	3.4
526.333	3.29
526.532	3.34
526.73	3.43
526.929	3.48
527.127	3.51
527.326	3.55
527.524	3.57
527.723	3.55
527.921	3.62
528.12	3.6
528.318	3.56
528.516	3.55
528.715	3.47
528.913	3.54
529.112	3.55
529.31	3.56
529.508	3.54
529.707	3.57
529.905	3.62
530.103	3.59
530.301	3.57
530.5	3.65
530.698	3.74
530.896	3.9
531.094	3.92
531.293	4.03
531.491	4.08
531.689	4.16
531.887	4.23
532.085	4.26
532.283	4.33
532.481	4.39
532.68	4.34
532.878	4.31
533.076	4.34
533.274	4.25
533.472	4.17
533.67	4.22
533.868	4.32
534.066	4.28
534.264	4.16
534.462	4.07
534.66	4.03
534.858	3.99
535.056	3.9
535.253	3.82
535.451	3.89
535.649	3.96
535.847	3.93
536.045	3.9
536.243	3.9
536.441	3.92
536.638	3.9
536.836	3.94
537.034	4.09
537.232	4.18
537.43	4.22
537.627	4.25
537.825	4.18
538.023	4.1
538.22	4.07
538.418	4.09
538.616	4.3
538.813	4.37
539.011	4.33
539.209	4.27
539.406	4.33
539.604	4.33
539.801	4.4
539.999	4.38
540.196	4.51
540.394	4.5
540.591	4.53
540.789	4.48
540.986	4.52
541.184	4.55
541.381	4.6
541.579	4.54
541.776	4.7
541.974	4.65
542.171	4.7
542.368	4.67
542.566	4.7
542.763	4.72
542.96	4.72
543.158	4.78
543.355	4.87
543.552	4.96
543.75	5.09
543.947	4.89
544.144	4.89
544.341	4.93
544.539	5
544.736	4.89
544.933	5.11
545.13	5.12
545.327	5.18
545.524	5.1
545.722	5.12
545.919	5.07
546.116	5.03
546.313	5.06
546.51	5.2
546.707	5.2
546.904	5.2
547.101	4.98
547.298	4.92
547.495	4.87
547.692	4.9
547.889	4.81
548.086	4.92
548.283	5.15
548.48	5.16
548.677	5.16
548.874	5.29
549.07	5.42
549.267	5.34
549.464	5.48
549.661	5.43
549.858	5.59
550.055	5.63
550.251	5.66
550.448	5.7
550.645	5.75
550.842	5.6
551.038	5.46
551.235	5.44
551.432	5.57
551.628	5.76
551.825	5.91
552.022	5.69
552.218	5.7
552.415	5.76
552.612	5.73
552.808	5.75
553.005	5.93
553.201	6.1
553.398	6.25
553.594	6.06
553.791	6.16
553.987	6.29
554.184	6.43
554.38	6.48
554.577	6.36
554.773	6.49
554.97	6.47
555.166	6.38
555.362	6.33
555.559	6.32
555.755	6.77
555.952	6.56
556.148	6.36
556.344	6.37
556.541	6.5
556.737	6.85
556.933	6.79
557.129	6.89
557.326	7.07
557.522	7.17
557.718	7.16
557.914	7.06
558.11	7.21
558.307	7.39
558.503	7.4
558.699	7.16
558.895	7.01
559.091	7.16
559.287	7.38
559.483	7.38
559.679	7.35
559.876	7.56
560.072	7.58
560.268	7.51
560.464	7.6
560.66	7.71
560.856	7.98
561.052	8.15
561.247	8.23
561.443	8.13
561.639	7.95
561.835	7.91
562.031	7.9
562.227	7.95
562.423	7.96
562.619	7.97
562.815	8.1
563.01	8.14
563.206	8.02
563.402	7.98
563.598	7.91
563.793	8.01
563.989	8.09
564.185	8.27
564.381	8.42
564.576	8.48
564.772	8.37
564.968	8.33
565.163	8.44
565.359	8.52
565.555	8.46
565.75	8.66
565.946	8.6
566.141	8.83
566.337	8.73
566.532	8.71
566.728	8.76
566.923	9
567.119	9.12
567.314	9.01
567.51	9.04
567.705	9.16
567.901	9.15
568.096	9.46
568.292	9.31
568.487	9.36
568.682	9.42
568.878	9.39
569.073	9.26
569.268	9.5
569.464	9.65
569.659	9.57
569.854	9.68
570.05	9.74
570.245	9.67
570.44	9.89
570.635	10.15
570.831	10.41
571.026	10.52
571.221	10.64
571.416	10.45
571.611	10.45
571.806	10.62
572.002	10.58
572.197	10.58
572.392	10.65
572.587	10.46
572.782	10.44
572.977	10.33
573.172	10.43
573.367	10.56
573.562	10.59
573.757	10.63
573.952	10.62
574.147	10.42
574.342	10.46
574.537	10.43
574.732	10.58
574.927	10.34
575.121	10.46
575.316	10.43
575.511	10.31
575.706	10.33
575.901	10.36
576.096	10.39
576.29	10.61
576.485	10.65
576.68	10.76
576.875	10.82
577.069	11.13
577.264	11.07
577.459	11.12
577.654	11.26
577.848	11.45
578.043	11.28
578.238	11.29
578.432	11.23
578.627	11.44
578.821	11.58
579.016	11.58
579.21	11.55
579.405	11.4
579.6	11.45
579.794	11.55
579.989	11.54
580.183	11.9
580.378	12.14
580.572	12.44
580.766	12.23
580.961	12.26
581.155	12.2
581.35	12.06
581.544	12.26
581.738	12.25
581.933	12.07
582.127	11.83
582.321	11.72
582.516	11.55
582.71	11.47
582.904	11.47
583.099	11.27
583.293	11.24
583.487	11.43
583.681	11.45
583.875	11.6
584.07	11.68
584.264	11.83
584.458	11.65
584.652	11.74
584.846	11.63
585.04	11.39
585.234	11.37
585.428	11.45
585.623	11.27
585.817	11.17
586.011	11.02
586.205	11.06
586.399	11.16
586.593	11.44
586.787	11.27
586.981	11.29
587.174	11.5
587.368	11.81
587.562	11.73
587.756	11.79
587.95	11.86
588.144	12.11
588.338	12.25
588.532	12.09
588.725	12.08
588.919	12.18
589.113	12.33
589.307	12.43
589.501	12.22
589.694	12.46
589.888	12.64
590.082	12.54
590.275	12.55
590.469	12.38
590.663	12.57
590.856	12.54
591.05	12.62
591.244	12.52
591.437	12.67
591.631	12.72
591.824	12.35
592.018	12.24
592.212	12.38
592.405	12.32
592.599	12.36
592.792	12.06
592.986	12.23
593.179	12.1
593.372	12.44
593.566	12.24
593.759	12.25
593.953	12.75
594.146	12.69
594.339	12.97
594.533	12.93
594.726	12.8
594.92	12.8
595.113	12.71
595.306	12.93
595.499	12.85
595.693	12.79
595.886	12.86
596.079	12.8
596.272	12.82
596.466	12.59
596.659	12.55
596.852	12.6
597.045	12.74
597.238	12.95
597.431	12.83
597.624	12.63
597.818	12.84
598.011	12.9
598.204	12.85
598.397	13.01
598.59	13.14
598.783	13.19
598.976	13.32
599.169	13.53
599.362	13.27
599.555	13.51
599.748	13.85
599.941	13.89
600.134	13.9
600.326	14.11
600.519	13.98
600.712	14.12
600.905	14.26
601.098	14.37
601.291	14.13
601.483	14.06
601.676	13.75
601.869	13.57
602.062	13.53
602.255	13.37
602.447	13.22
602.64	13.26
602.833	13.31
603.025	13.37
603.218	13.38
603.411	13.62
603.603	13.76
603.796	13.85
603.989	13.9
604.181	13.93
604.374	13.86
604.566	13.86
604.759	13.84
604.951	13.87
605.144	13.63
605.336	13.57
605.529	13.54
605.721	13.38
605.914	13.28
606.106	13.29
606.299	13.26
606.491	13.61
606.683	13.57
606.876	13.66
607.068	13.39
607.26	13.69
607.453	13.51
607.645	13.47
607.837	13.65
608.03	13.75
608.222	13.92
608.414	14.02
608.606	13.84
608.799	13.89
608.991	13.95
609.183	14.19
609.375	14.26
609.567	14.37
609.759	14.37
609.952	14.5
610.144	14.55
610.336	14.33
610.528	14.34
610.72	14.26
610.912	14.14
611.104	14
611.296	13.68
611.488	13.65
611.68	13.58
611.872	13.68
612.064	13.7
612.256	13.77
612.448	13.93
612.64	13.79
612.832	13.92
613.023	14.11
613.215	14.03
613.407	13.94
613.599	13.64
613.791	13.58
613.983	13.51
614.174	13.42
614.366	13.41
614.558	13.32
614.75	13.53
614.941	13.84
615.133	13.88
615.325	14.2
615.516	14.24
615.708	14.59
615.9	14.78
616.091	14.47
616.283	14.31
616.475	14.27
616.666	14.17
616.858	14.2
617.049	13.98
617.241	14.09
617.432	14.11
617.624	14.18
617.815	13.75
618.007	13.47
618.198	13.8
618.39	13.95
618.581	13.71
618.773	14.07
618.964	14.06
619.155	13.99
619.347	14.02
619.538	13.47
619.729	13.58
619.921	13.74
620.112	14.37
620.303	14.4
620.494	14.38
620.686	14.78
620.877	14.5
621.068	14.55
621.259	14.51
621.451	14.18
621.642	14.66
621.833	14.49
622.024	14.57
622.215	14.43
622.406	14.3
622.597	14.16
622.788	13.91
622.98	13.74
623.171	13.75
623.362	13.53
623.553	13.66
623.744	13.66
623.935	13.53
624.126	13.56
624.317	13.41
624.508	13.19
624.698	13.06
624.889	12.91
625.08	13.33
625.271	13.15
625.462	13.41
625.653	13.55
625.844	13.63
626.034	14.08
626.225	14.14
626.416	14.28
626.607	14.62
626.798	14.95
626.988	15.36
627.179	15.09
627.37	15.08
627.56	15.14
627.751	15.15
627.942	15.29
628.132	15.08
628.323	15.18
628.514	15.08
628.704	15.16
628.895	15.25
629.085	14.92
629.276	15.17
629.466	15.13
629.657	15.14
629.847	15.06
630.038	14.93
630.228	15.14
630.419	15.08
630.609	15.04
630.8	14.7
630.99	14.27
631.181	14.44
631.371	14.22
631.561	13.84
631.752	14.08
631.942	13.99
632.132	14.15
632.323	13.76
632.513	13.52
632.703	13.86
632.893	14.05
633.084	14.23
633.274	14.42
633.464	14.53
633.654	14.93
633.844	14.9
634.034	14.9
634.225	14.83
634.415	15.18
634.605	15.25
634.795	15.07
634.985	15.07
635.175	15.01
635.365	14.9
635.555	14.69
635.745	14.74
635.935	14.44
636.125	14.65
636.315	14.21
636.505	14
636.695	14
636.885	13.89
637.075	13.89
637.265	14.05
637.455	13.93
637.644	14.14
637.834	14.11
638.024	14.13
638.214	14.09
638.404	14.34
638.593	14.72
638.783	14.85
638.973	14.77
639.163	14.69
639.352	14.71
639.542	14.73
639.732	14.51
639.921	14.67
640.111	14.89
640.301	14.57
640.49	14.65
640.68	14.42
640.87	14.38
641.059	14.54
641.249	14.88
641.438	14.62
641.628	14.69
641.817	14.72
642.007	14.62
642.196	14.43
642.386	14.59
642.575	14.86
642.764	14.75
642.954	15.03
643.143	14.98
643.333	14.49
643.522	14.81
643.711	14.78
643.901	15
644.09	14.75
644.279	14.83
644.469	14.86
644.658	14.52
644.847	14.59
645.036	14.44
645.226	14.65
645.415	14.94
645.604	14.47
645.793	14.42
645.982	14.37
646.171	14.56
646.361	14.88
646.55	15.02
646.739	14.74
646.928	15.08
647.117	14.68
647.306	14.48
647.495	14.16
647.684	14.82
647.873	14.79
648.062	14.8
648.251	14.7
648.44	14.94
648.629	15.21
648.818	15.5
649.007	15.38
649.196	15.48
649.384	15.46
649.573	15.99
649.762	15.61
649.951	15.75
650.14	16.12
650.328	16.41
650.517	15.87
650.706	15.38
650.895	15.68
651.083	15.53
651.272	15.55
651.461	15.5
651.65	14.98
651.838	15.18
652.027	15.36
652.216	15.14
652.404	14.9
652.593	15.15
652.781	15.25
652.97	14.64
653.158	14.86
653.347	14.92
653.535	14.9
653.724	14.75
653.912	14.91
654.101	14.58
654.289	14.73
654.478	14.97
654.666	14.86
654.855	14.83
655.043	14.68
655.231	14.25
655.42	14.37
655.608	14.15
655.796	14.53
655.985	14.46
656.173	14.46
656.361	14.18
656.55	13.97
656.738	13.82
656.926	13.85
657.114	14.41
657.302	14.57
657.491	14.54
657.679	14.58
657.867	14.74
658.055	14.92
658.243	14.66
658.431	14.74
658.619	14.96
658.807	15
658.996	15.09
659.184	15.13
659.372	15.06
659.56	14.91
659.748	15.21
659.936	15.25
660.124	15.05
660.311	15.4
660.499	15.45
660.687	15.6
660.875	15.55
661.063	15.68
661.251	15.74
661.439	15.72
661.627	16.06
661.814	15.93
662.002	15.66
662.19	15.74
662.378	15.65
662.565	15.6
662.753	15.28
662.941	15.3
663.129	15.2
663.316	15.36
663.504	15.56
663.692	15.53
663.879	16.3
664.067	16.46
664.254	16.27
664.442	16.77
664.63	16.85
664.817	16.58
665.005	16.9
665.192	16.96
665.38	16.85
665.567	16.8
665.755	16.84
665.942	16.28
666.13	16.64
666.317	16.68
666.504	16.46
666.692	16.02
666.879	16.37
667.067	15.82
667.254	15.6
667.441	15.56
667.629	15.69
667.816	15.73
668.003	16
668.19	15.73
668.378	15.93
668.565	16.16
668.752	16.03
668.939	15.95
669.127	16.8
669.314	17.49
669.501	17.55
669.688	17.33
669.875	16.93
670.062	16.52
670.249	16.36
670.436	15.77
670.623	15.08
670.81	15.58
670.997	15.57
671.184	15.1
671.371	14.45
671.558	14.28
671.745	14.56
671.932	15.1
672.119	15.01
672.306	15.5
672.493	15.65
672.68	16.07
672.867	16.33
673.054	16.39
673.24	16.56
673.427	16.54
673.614	15.89
673.801	15.63
673.988	15.46
674.174	15.91
674.361	15.73
674.548	16.1
674.734	16
674.921	15.55
675.108	15.51
675.294	14.35
675.481	14.58
675.668	15.13
675.854	15.15
676.041	14.97
676.227	15.06
676.414	14.53
676.601	14.56
676.787	14.44
676.974	14.28
677.16	14.21
677.347	15.55
677.533	15.29
677.719	15.43
677.906	15.16
678.092	15.72
678.279	15.61
678.465	16.04
678.651	16.14
678.838	16.63
679.024	16.8
679.21	16.52
679.397	16.52
679.583	16.43
679.769	16.43
679.955	16.79
680.142	16.68
680.328	16.41
680.514	16.31
680.7	16.15
680.886	16.33
681.073	16.29
681.259	16.48
681.445	16.2
681.631	16.71
681.817	16.63
682.003	16.48
682.189	15.88
682.375	15.79
682.561	16.06
682.747	16.07
682.933	15.8
683.119	16.36
683.305	16.5
683.491	16.11
683.677	16.06
683.863	16.48
684.049	16.25
684.235	16.48
684.42	16.81
684.606	16.38
684.792	16.3
684.978	16.14
685.164	15.51
685.349	15.64
685.535	15.71
685.721	15.6
685.907	15.33
686.092	16.04
686.278	16.53
686.464	17.09
686.649	16.66
686.835	16.51
687.021	16.18
687.206	16.37
687.392	15.76
687.577	16.32
687.763	16.24
687.948	16.08
688.134	15.54
688.319	15.44
688.505	14.97
688.69	15.86
688.876	16.13
689.061	16.13
689.247	16.14
689.432	16.68
689.618	16.29
689.803	16.4
689.988	16.49
690.174	16.31
690.359	16.33
690.544	16.24
690.73	16.1
690.915	15.8
691.1	15.76
691.285	15.11
691.471	15.23
691.656	15.9
691.841	15.8
692.026	16.41
692.211	16.92
692.396	16.9
692.582	16.79
692.767	17.09
692.952	16.88
693.137	17.53
693.322	18.25
693.507	18.14
693.692	17.64
693.877	16.64
694.062	16.39
694.247	16.27
694.432	16.36
694.617	16.31
694.802	15.47
694.987	16
695.172	15.7
695.357	15.52
695.541	15.47
695.726	15.15
695.911	16.1
696.096	15.7
696.281	15.55
696.466	15.18
696.65	15.45
696.835	15.92
697.02	15.43
697.204	15.68
697.389	15.91
697.574	16.33
697.759	16.83
697.943	17.04
698.128	16.87
698.312	16.99
698.497	16.72
698.682	16.59
698.866	16.34
699.051	16.98
699.235	16.85
699.42	16.66
699.604	16.42
699.789	15.88
699.973	15.53
700.158	15.86
700.342	15.53
700.527	16.06
700.711	15.97
700.895	15.87
701.08	15.85
701.264	15.82
701.448	15.77
701.633	16.27
701.817	16.32
702.001	16.37
702.186	16.1
702.37	16.69
702.554	16.9
702.738	16.84
702.923	17.39
703.107	16.58
703.291	16.37
703.475	16.28
703.659	15.36
703.843	16.18
704.027	15.18
704.212	15.62
704.396	15.48
704.58	14.75
704.764	14.51
704.948	14.13
705.132	14.44
705.316	14.49
705.5	14.72
705.684	14.98
705.868	14.73
706.052	15.79
706.235	15.03
706.419	15.05
706.603	14.81
706.787	15.98
706.971	15.78
707.155	15.6
707.339	15.82
707.522	16.22
707.706	16.13
707.89	15.94
708.074	16.27
708.257	16.33
708.441	17.03
708.625	16.94
708.808	16
708.992	16.9
709.176	16.56
709.359	16.04
709.543	15.8
709.727	15.5
709.91	15.89
710.094	15.88
710.277	16.44
710.461	15.44
710.644	15.49
710.828	16
711.011	15.47
711.195	15.84
711.378	15.87
711.562	15.53
711.745	15.71
711.928	15.54
712.112	15.25
712.295	15.11
712.478	15.04
712.662	15.59
712.845	15.2
713.028	15.74
713.212	16.34
713.395	16.35
713.578	15.74
713.761	16.34
713.945	16.4
714.128	15.64
714.311	15.4
714.494	16.28
714.677	16.44
714.86	17.1
715.043	17.23
715.227	17.31
715.41	17.86
715.593	18.44
715.776	17.56
715.959	16.87
716.142	17.5
716.325	17.31
716.508	16.9
716.691	16.91
716.874	16.4
717.057	15.52
717.239	15.43
717.422	15.3
717.605	15.84
717.788	15.47
717.971	16.96
718.154	16.68
718.337	17.27
718.519	17.24
718.702	16.23
718.885	16.03
719.068	16.42
719.25	15.59
719.433	15.85
719.616	15.55
719.798	16.01
719.981	15.32
720.164	15.11
720.346	15.52
720.529	14.84
720.712	15.36
720.894	15.58
721.077	14.68
721.259	14.45
721.442	13.72
721.624	14.48
721.807	14.86
721.989	14.7
722.172	16
722.354	14.83
722.537	16.61
722.719	16.82
722.901	16.82
723.084	17.63
723.266	17.6
723.448	17.46
723.631	17.39
723.813	17.67
723.995	18.99
724.178	18.28
724.36	18.31
724.542	17.02
724.724	17.39
724.907	16.9
725.089	16.74
725.271	16.77
725.453	17.45
725.635	16.94
725.817	16.99
725.999	15.51
726.181	16.27
726.364	16.3
726.546	16.95
726.728	16.43
726.91	16.86
727.092	17.51
727.274	18.83
727.456	19
727.638	19.49
727.819	19.04
728.001	19.6
728.183	19.57
728.365	19.97
728.547	19.94
728.729	20.23
728.911	19.92
729.093	19.13
729.274	17.93
729.456	16.74
729.638	16.61
729.82	16.36
730.001	15.14
730.183	14.87
730.365	14.76
730.546	14.13
730.728	14.65
730.91	15.54
731.091	15.31
731.273	14.86
731.455	15.71
731.636	15.77
731.818	16.59
731.999	17.39
732.181	17.05
732.362	16.69
732.544	17.01
732.725	15.94
732.907	16.41
733.088	16.8
733.27	17.79
733.451	17.02
733.633	16.26
733.814	16.65
733.995	16.58
734.177	16.44
734.358	17.05
734.539	17.4
734.721	17.22
734.902	15.76
735.083	16.03
735.264	16.63
735.446	18.1
735.627	19.17
735.808	18.69
735.989	18.6
736.17	19.68
736.351	19.05
736.533	18.45
736.714	18.38
736.895	18.05
737.076	17.12
737.257	16.92
737.438	15.55
737.619	14.28
737.8	14.5
737.981	15.28
738.162	15
738.343	15.85
738.524	16.78
738.705	17.72
738.886	19.36
739.067	20.71
739.247	20.03
739.428	21
739.609	21.68
739.79	21.17
739.971	20.41
740.151	20.31
740.332	19.01
740.513	18.28
740.694	18.75
740.874	18.47
741.055	17.85
741.236	19.24
741.417	19.71
741.597	19.22
741.778	19.38
741.958	19.37
742.139	19.5
742.32	20.5
742.5	20.13
742.681	19.76
742.861	19.43
743.042	19.74
743.222	18.75
743.403	16.41
743.583	16.31
743.764	15.01
743.944	15.85
744.124	14.09
744.305	13.68
744.485	14.61
744.666	14.15
744.846	13.11
745.026	11.36
745.207	11.31
745.387	13.19
745.567	14.48
745.747	16.44
745.928	16.57
746.108	18.15
746.288	17.89
746.468	16.29
746.648	18.38
746.829	19.26
747.009	20.69
747.189	20.22
747.369	20.75
747.549	20.08
747.729	19.65
747.909	19.73
748.089	19.51
748.269	20.2
748.449	21.74
748.629	20.47
748.809	19.46
748.989	19.04
749.169	19.61
749.349	19.19
749.529	19.66
749.709	18.91
749.889	19.04
750.068	20.73
750.248	21.25
750.428	20.38
750.608	20.18
750.788	21.01
750.967	21.78
751.147	21.09
751.327	20.57
751.507	20.54
751.686	20.52
751.866	19.4
752.046	17.25
752.225	16.69
752.405	17.23
752.585	17.71
752.764	16.78
752.944	16.02
753.123	16.63
753.303	17.47
753.482	17.48
753.662	16.37
753.841	16.23
754.021	16.09
754.2	15.77
754.38	16.57
754.559	16.48
754.739	17.8
754.918	18.35
755.097	18.83
755.277	17.45
755.456	17.16
755.635	17.6
755.815	17.29
755.994	18.1
756.173	17.72
756.352	16.47
756.532	17.23
756.711	17.09
756.89	17.31
757.069	15.79
757.248	16.6
757.427	16.81
757.607	17.72
757.786	17.78
757.965	17.9
758.144	18.82
758.323	19.52
758.502	18.18
758.681	17.67
758.86	18
759.039	19.06
759.218	18.04
759.397	16.67
759.576	16.21
759.755	15.99
759.934	14.81
760.113	14.23
760.291	13.44
760.47	13.43
760.649	13.39
760.828	12.84
761.007	12.31
761.186	11.75
761.364	12.58
761.543	13.06
761.722	14.62
761.901	15.54
762.079	16.42
762.258	16.34
762.437	17.45
762.615	17
762.794	16.51
762.972	17.97
763.151	20.37
763.33	19.61
763.508	19.75
763.687	19.42
763.865	19.59
764.044	19.3
764.222	20.07
764.401	19.94
764.579	19.37
764.758	19.25
764.936	18.21
765.114	16.92
765.293	18.35
765.471	18.52
765.65	19.05
765.828	18.14
766.006	18.51
766.184	17.77
766.363	18.05
766.541	18.17
766.719	18.44
766.898	18.03
767.076	19.38
767.254	19.01
767.432	19.86
767.61	19.11
767.788	19.89
767.967	18.29
768.145	18.26
768.323	16.13
768.501	17.9
768.679	19.69
768.857	19.91
769.035	18.79
769.213	17.12
769.391	14.32
769.569	15.2
769.747	15.39
769.925	16.9
770.103	17.41
770.281	19.13
770.459	19.29
770.636	17.66
770.814	16.39
770.992	17.06
771.17	17.46
771.348	17.46
771.525	17.23
771.703	15.86
771.881	15.52
772.059	15.28
772.236	15.53
772.414	15.22
772.592	16.11
772.769	17.57
772.947	14.51
773.125	12.17
773.302	11.71
773.48	8.65
773.657	12.91
773.835	12.92
774.013	15.3
774.19	14.92
774.368	14.11
774.545	12.69
774.723	10.91
774.9	14.04
775.077	18.1
775.255	21.05
775.432	21.79
775.61	18.94
775.787	19.35
775.964	18
776.142	15.87
776.319	16.29
776.496	17.87
776.674	20.25
776.851	19.97
777.028	20.2
777.205	19.74
777.382	19.99
777.56	21.59
777.737	20.97
777.914	20.88
778.091	23.61
778.268	24.56
778.445	26.47
778.622	26.95
778.8	25.95
778.977	26.36
779.154	25.49
779.331	28.21
779.508	27.56
779.685	26.04
779.862	24.59
780.038	25.28
780.215	24.56
780.392	23.42
780.569	21.93
780.746	22.66
780.923	21.26
781.1	22.38
781.277	19.35
781.453	17.29
781.63	18.16
781.807	18.18
781.984	16.73
782.16	17.58
782.337	14.09
782.514	16.91
782.691	19.42
782.867	20.3
783.044	19.44
783.221	19.99
783.397	20.56
783.574	21.09
783.75	21.23
783.927	20.12
784.103	18.93
784.28	19.69
784.456	18.1
784.633	15.07
784.809	13.29
784.986	12.92
785.162	13.88
785.339	10.77
785.515	12
785.692	11.95
785.868	11.61
786.044	11.62
786.221	13.95
786.397	12.78
786.573	14.7
786.749	15.32
786.926	16.76
787.102	14.62
787.278	19.17
787.454	17.5
787.631	16.2
787.807	17.5
787.983	17.77
788.159	18.06
788.335	18.37
788.511	19.84
788.687	21.56
788.863	20.36
789.039	22.71
789.216	20.52
789.392	21.75
789.568	23.68
789.744	23.18
789.919	23.24
790.095	22.39
790.271	23.32
790.447	20.9
790.623	20.47
790.799	20.68
790.975	22.55
791.151	24.27
791.327	23.24
791.502	22.29
791.678	20.84
791.854	21.35
792.03	19.94
792.205	19.36
792.381	17.44
792.557	15.28
792.733	15.66
792.908	13.08
793.084	16.47
793.259	19
793.435	22.14
793.611	22.16
793.786	23.77
793.962	23.46
794.137	21.98
794.313	24.62
794.488	29.19
794.664	28.78
794.839	27.07
795.015	24.76
795.19	22.13
795.366	16.88
795.541	16.93
795.716	12
795.892	9.22
796.067	11.7
796.242	13.02
796.418	7.98
796.593	6.67
796.768	8.42
796.944	4.7
797.119	4.44
797.294	6.7
797.469	8.3
797.644	9.86
797.82	15.45
797.995	13.18
798.17	12.76
798.345	13.48
798.52	15.07
798.695	14.42
798.87	19.76
799.045	21.48
799.22	20.94
799.395	18.89
799.57	17.75
799.745	12.72
799.92	11.58
800.095	6.44
800.27	7.78
800.445	9.62
800.62	9.21
800.795	6.34
800.97	3.95
801.145	6.18
801.319	8.08
801.494	11.07
801.669	12.18
801.844	16.96
802.018	21.36
802.193	21.44
802.368	20.94
802.543	20.15
802.717	19.27
802.892	23.46
803.067	20.44
803.241	20.07
803.416	19.14
803.59	20.42
803.765	15.37
803.94	12.84
804.114	11.7
804.289	12.25
804.463	14.17
804.638	14.51
804.812	13.89
804.986	15.07
805.161	14.35
805.335	13.08
805.51	12.28
805.684	18.17
805.858	14.98
806.033	15.74
806.207	13.96
806.381	11.21
806.556	10.14
806.73	7.65
806.904	8.24
807.078	9.07
807.253	9.16
807.427	11.57
807.601	9.48
807.775	17.03
807.949	13.66
808.123	16.86
808.298	18.18
808.472	17.61
808.646	16.67
808.82	15.26
808.994	13.61
809.168	16.07
809.342	14.52
809.516	12.06
809.69	10.47
809.864	13.28
810.038	12.03
810.212	12.55
810.385	10.61
810.559	8.42
810.733	8.97
810.907	7.5
811.081	4.89
811.255	5.57
811.428	8.09
811.602	7.5
811.776	10.33
811.95	-0.67
812.123	-0.21
812.297	2.42
812.471	9.64
812.644	9.84
812.818	15.88
812.992	15.35
813.165	15.48
813.339	12.07
813.512	9.16
813.686	5.49
813.86	12.7
814.033	8.89
814.207	10.48
814.38	3.91
814.554	4.7
814.727	-4.48
814.9	-3.97
815.074	-6.58
815.247	-3.04
815.421	-5.62
815.594	-0.86
815.767	-2.89
815.941	0.55
816.114	-3.56
816.287	-0.29
816.46	-3.41
816.634	2.72
816.807	5.8
816.98	6.24
817.153	9.3
817.327	8.05
817.5	8.62
817.673	11.4
817.846	13.58
818.019	13.49
818.192	8.64
818.365	11.39
818.538	15.61
818.711	15.12
818.884	14.7
819.057	14.12
819.23	17.44
819.403	16.51
819.576	16.76
819.749	13.09
819.922	17.39
820.095	20.5
820.268	20.21
820.441	21
820.614	18.96
820.786	18.6
820.959	18.78
821.132	20.03
821.305	19.39
821.477	19.13
821.65	20.43
821.823	19.26
821.996	19.12
822.168	20.12
822.341	19.64
822.514	20.09
822.686	20.73
822.859	20.74
823.031	20.26
823.204	20.44
823.376	20.41
823.549	20.01
823.722	19.98
823.894	20.01
824.067	20.5
824.239	20.3
824.411	20.71
824.584	20.5
824.756	20.65
824.929	20.58
825.101	21.06
825.273	21.95
825.446	21.47
825.618	22.44
825.79	23.08
825.963	21.92
826.135	22.91
826.307	22.17
826.479	21
826.652	20.55
826.824	20.45
826.996	19.67
827.168	18.31
827.34	19.92
827.512	20.56
827.684	19.54
827.856	19.85
828.029	18.93
828.201	20.53
828.373	21.36
828.545	19.63
828.717	18.9
828.889	18.83
829.061	17.9
829.232	16.64
829.404	16.2
829.576	19.81
829.748	18.52
829.92	16.39
830.092	14.73
830.264	15.37
830.436	16.19
830.607	19.76
830.779	21.21
830.951	23.03
831.123	22.81
831.294	22.72
831.466	20.23
831.638	17.92
831.809	20.61
831.981	19.58
832.153	20.25
832.324	23.33
832.496	23.37
832.667	23.72
832.839	26.52
833.011	25.74
833.182	23.67
833.354	21.11
833.525	23.05
833.697	19.85
833.868	18.31
834.039	17.75
834.211	17.32
834.382	16.95
834.554	15.67
834.725	12.78
834.896	13.49
835.068	12.85
835.239	11.94
835.41	11.38
835.581	12.77
835.753	14.01
835.924	15.4
836.095	16.41
836.266	16.23
836.438	14.06
836.609	14.3
836.78	18.45
836.951	22.99
837.122	23.1
837.293	22.7
837.464	24.34
837.635	21.58
837.806	19.68
837.977	11.29
838.148	8.75
838.319	15.33
838.49	14.55
838.661	2.46
838.832	-3.5
839.003	0.69
839.174	0.99
839.345	-0.35
839.516	6.59
839.687	13.09
839.857	19.05
840.028	15.96
840.199	12.63
840.37	23.73
840.54	23.17
840.711	23.4
840.882	20.68
841.053	22.43
841.223	24.73
841.394	24.02
841.564	12.47
841.735	12.07
841.906	17.17
842.076	18.78
842.247	12.1
842.417	15.02
842.588	15.48
842.758	18.43
842.929	16.07
843.099	18.56
843.27	15.85
843.44	15.49
843.611	14.78
843.781	15.81
843.951	3.92
844.122	-0.08
844.292	-1.16
844.462	1.05
844.633	-4.67
844.803	-5.74
844.973	-8.65
845.144	-12.58
845.314	-10.33
845.484	-5.34
845.654	-14.65
845.824	-8.41
845.995	-4.51
846.165	-14.3
846.335	-13.87
846.505	-10.94
846.675	-11.46
846.845	-14.01
847.015	-4.78
847.185	-5.07
847.355	-3.57
847.525	2.91
847.695	10.17
847.865	10.24
848.035	21.33
848.205	19.47
848.375	26.5
848.545	13.68
848.715	-5.32
848.884	-4.26
849.054	-3.57
849.224	-16.65
849.394	-21.15
849.564	-16.86
849.733	-2.51
849.903	-11.76
850.073	-7.68
850.243	-24.74
850.412	-18.68
850.582	4.18
850.752	15.51
850.921	13.58
851.091	37.6
851.26	37.66
851.43	21.61
851.599	6.86
851.769	13.13
851.939	5.66
852.108	-6.05
852.278	23.35
852.447	15.62
852.616	12.54
852.786	29.51
852.955	18.92
853.125	18.35
853.294	10.1
853.463	14.24
853.633	30.43
853.802	35.36
853.971	42.74
854.141	32.57
854.31	31.25
854.479	20.09
854.648	21.03
854.818	58.15
854.987	52.2
855.156	52.4
855.325	49.75
855.494	24.13
855.663	24.69
855.832	31.8
856.001	63.46
856.171	56.81
856.34	56.38
856.509	32.92
856.678	2.51
856.847	-2.63
857.016	2.01
857.185	-3.47
857.353	-19.23
857.522	-69.16
857.691	-77.91
857.86	-236.47
858.029	-299.08
858.198	-627.55
858.367	-290.4
858.535	-320.19
858.704	-221.52
858.873	-148.93
859.042	-140.16
859.21	-59.8
859.379	-3.9
859.548	-7
859.717	-13.73
859.885	-3.35
860.054	24.17
860.222	22.32
860.391	35.98
860.56	30.59
860.728	26.88
860.897	38.44
861.065	15.91
861.234	-27.23
861.402	-24.24
861.571	-0.55
861.739	4.96
861.908	-34.16
862.076	-40.26
862.244	-43.18
862.413	-16.55
862.581	5.5
862.749	0.39
862.918	17.31
863.086	35.73
863.254	57.79
863.423	53.52
863.591	51.12
863.759	63.07
863.927	52.29
864.096	29.33
864.264	27.47
864.432	27.4
864.6	33.78
864.768	31.67
864.936	27.54
865.104	-31
865.272	-25.21
865.44	-55.04
865.608	-99.83
865.776	-174.27
865.944	-57.29
866.112	-94.74
866.28	-196.67
866.448	-146.24
866.616	-151.09
866.784	-158.4
866.952	-105.3
867.12	-101.39
867.288	-53.15
867.455	-65.86
867.623	-63.79
867.791	-80.61
867.959	-104.4
868.127	-103.03
868.294	-89.1
868.462	-111.04
868.63	-18.46
868.797	-3.9
868.965	-18.6
869.133	-10.9
869.3	17.35
869.468	19.57
869.636	13.65
869.803	14.84
869.971	63.51
870.138	40.69
870.306	39.35
870.473	9.67
870.641	15.11
870.808	14.79
870.975	-8.25
871.143	-49.75
871.31	-73.83
871.478	-16.8
871.645	-11.88
871.812	-22.23
871.98	-7.11
872.147	-15.28
872.314	-18.18
872.482	-27.07
872.649	-29.64
872.816	-2.87
872.983	18.35
873.15	23.75
873.318	15.72
873.485	4.94
873.652	-4.87
873.819	3.95
873.986	30.05
874.153	37.73
874.32	46.63
874.487	47.91
874.654	22.91
874.821	12.8
874.988	24.5
875.155	43.77
875.322	35.34
875.489	43.14
875.656	46.22
875.823	20.56
875.99	12.26
876.157	2.75
876.324	-12.59
876.49	32.43
876.657	47.64
876.824	22.19
876.991	-112.85
877.157	-16.95
877.324	-141.61
877.491	-28.58
877.658	-64.79
877.824	1.16
877.991	14.99
878.157	5.35
878.324	-2.69
878.491	-7.78
878.657	-4.72
878.824	-13.32
878.99	-27.35
879.157	-12.2
879.323	-12.71
879.49	-0.07
879.656	-16.33
879.823	-13.09
879.989	-13.43
880.156	-8.79
880.322	-5.72
880.488	-2.01
880.655	5.97
880.821	22.26
880.987	23.13
881.154	14.58
881.32	25.34
881.486	32.5
881.652	25.68
881.819	26.65
881.985	22.23
882.151	27
882.317	24.63
882.483	23.79
882.649	20.05
882.816	20.02
882.982	22.58
883.148	16.99
883.314	20.17
883.48	19.22
883.646	22.56
883.812	25.6
883.978	24.36
884.144	22.43
884.31	26.61
884.476	26.31
884.642	26.77
884.807	29.9
884.973	32.83
885.139	29.29
885.305	29.5
885.471	27.83
885.637	25.84
885.802	25.24
885.968	26.67
886.134	21.2
886.3	21.36
886.465	16.96
886.631	9.21
886.797	6.94
886.962	6.38
887.128	2.93
887.293	6.1
887.459	0.19
887.625	-13
887.79	-9.92
887.956	-7.71
888.121	-11.1
888.287	3.06
888.452	-1.61
888.618	-26.13
888.783	-50.24
