Data from 2938122_Reflection_2.txt Node
Date: Sat Jul 11 17:42:59 EDT 2015
User: robert
Spectrometer: USB4E03001
Autoset integration time: false
Trigger mode: 4
Integration Time (sec): 1.000000E-1
Scans to average: 10
Electric dark correction enabled: true
Nonlinearity correction enabled: false
Boxcar width: 5
Stray light correction enabled: false
XAxis mode: Wavelengths
Stop averaging: false
Number of Pixels in Spectrum: 3648
>>>>>Begin Spectral Data<<<<<
177.566	548.15
177.785	-57.86
178.005	23.94
178.225	29.85
178.445	37.03
178.665	49.94
178.885	120.3
179.105	126.87
179.324	96.29
179.544	62.97
179.764	68.3
179.984	53.53
180.204	52.68
180.423	31.6
180.643	-85
180.863	169.38
181.083	34.8
181.302	93.59
181.522	102.27
181.742	125.74
181.961	132.9
182.181	103.97
182.401	166.72
182.621	486.93
182.84	276.79
183.06	80.55
183.279	70.88
183.499	68.63
183.719	26.87
183.938	-2.76
184.158	-5.35
184.377	-10.07
184.597	10.44
184.816	16.52
185.036	17.49
185.256	10.63
185.475	54.93
185.695	53.39
185.914	43.11
186.134	71.84
186.353	57.69
186.572	37.08
186.792	47.17
187.011	78.08
187.231	57.71
187.45	59.78
187.67	55.41
187.889	27.99
188.108	53.24
188.328	44.38
188.547	31.22
188.766	56.88
188.986	79.64
189.205	95.95
189.424	61.6
189.644	64.96
189.863	65.32
190.082	267.19
190.302	96.21
190.521	-59.25
190.74	-30.67
190.959	382.85
191.178	136.69
191.398	-117.6
191.617	-6.36
191.836	-26.59
192.055	-93.48
192.274	-74.13
192.494	-0.14
192.713	-283.22
192.932	47.76
193.151	379.38
193.37	-360.69
193.589	-63.11
193.808	-504.86
194.027	-209.32
194.246	375.2
194.465	8388.14
194.685	927.6
194.904	-1657.35
195.123	466.52
195.342	-574.34
195.561	456.11
195.78	134.06
195.999	85.64
196.218	249.41
196.436	214.58
196.655	195.76
196.874	103.37
197.093	123.27
197.312	104.7
197.531	112.63
197.75	93.88
197.969	106.22
198.188	138.05
198.407	141.46
198.625	134.02
198.844	157.79
199.063	135.65
199.282	193.83
199.501	142.2
199.719	251.02
199.938	143.44
200.157	234.46
200.376	-83.09
200.594	-47.77
200.813	-0.12
201.032	34.44
201.251	6.06
201.469	30.08
201.688	34.95
201.907	17.98
202.125	9.83
202.344	-24.36
202.563	-30.51
202.781	-35.26
203	-27.38
203.218	-10.2
203.437	-51.52
203.656	-7.11
203.874	-46.37
204.093	-20.66
204.311	16.71
204.53	42.23
204.748	55.29
204.967	53.43
205.185	66.85
205.404	67.99
205.622	84.09
205.841	88.98
206.059	75.68
206.278	97.63
206.496	116.12
206.715	129.03
206.933	73.13
207.151	176.12
207.37	279.46
207.588	371.69
207.806	243.87
208.025	381.59
208.243	271.91
208.461	341.68
208.68	-77.04
208.898	222.06
209.116	127.36
209.335	163.84
209.553	126.05
209.771	128.45
209.989	300.2
210.208	-373.77
210.426	-273.51
210.644	-298.41
210.862	61.95
211.081	129.2
211.299	142.29
211.517	293.83
211.735	333.48
211.953	106.21
212.171	108.79
212.39	103.81
212.608	105
212.826	90.84
213.044	91.28
213.262	108.43
213.48	75.96
213.698	66.38
213.916	54.67
214.134	40.55
214.352	57.99
214.57	60.58
214.788	50.15
215.006	43.92
215.224	26.07
215.442	20.18
215.66	11.87
215.878	13.25
216.096	-9.95
216.314	-1.36
216.532	-24.25
216.75	-19.58
216.968	-37.35
217.185	-6.8
217.403	-28.21
217.621	-12.66
217.839	54.07
218.057	33.05
218.275	36.94
218.492	45.24
218.71	23.15
218.928	24.21
219.146	-12.81
219.363	-75.33
219.581	-225.58
219.799	600.86
220.017	3823.71
220.234	336.38
220.452	256.5
220.67	483.73
220.887	-348.43
221.105	-348.04
221.323	-78.72
221.54	33.96
221.758	67.99
221.976	57.62
222.193	72.93
222.411	51.04
222.629	44.83
222.846	60.13
223.064	57.46
223.281	56.54
223.499	60.09
223.716	59.92
223.934	47.43
224.151	44.72
224.369	51.11
224.586	43.8
224.804	50.72
225.021	48.75
225.239	49.53
225.456	38.59
225.674	38.98
225.891	33.38
226.108	34.94
226.326	36.71
226.543	40.89
226.76	32.44
226.978	30.21
227.195	25.41
227.413	25.43
227.63	24.22
227.847	28.57
228.064	24.87
228.282	27.92
228.499	25.46
228.716	26.33
228.934	24.21
229.151	27.59
229.368	27.32
229.585	27.31
229.802	29.34
230.02	27.51
230.237	26.22
230.454	25.73
230.671	23.73
230.888	23.72
231.105	20.67
231.323	18.87
231.54	15.78
231.757	18.31
231.974	17.77
232.191	16.5
232.408	16.16
232.625	18.34
232.842	22.74
233.059	24.2
233.276	19.49
233.493	24.9
233.71	25.31
233.927	23.86
234.144	21.5
234.361	23.79
234.578	22.59
234.795	19.1
235.012	11.25
235.229	4.11
235.446	1.27
235.663	7.06
235.879	5.66
236.096	4.17
236.313	0.46
236.53	-0.89
236.747	-1.8
236.964	-2.48
237.181	9.41
237.397	18.77
237.614	29.92
237.831	29.25
238.048	29.1
238.264	24.32
238.481	24.83
238.698	23.53
238.915	16.73
239.131	18
239.348	15.99
239.565	12.21
239.781	12.11
239.998	9.53
240.215	13.41
240.431	14.02
240.648	15.97
240.865	16.66
241.081	18.83
241.298	20.75
241.514	17.15
241.731	17.86
241.947	19.33
242.164	18.03
242.38	16.39
242.597	15.04
242.814	15.02
243.03	16.28
243.246	16.46
243.463	16.16
243.679	16.13
243.896	17.94
244.112	17.32
244.329	16.49
244.545	17.85
244.762	19.62
244.978	20.36
245.194	21.94
245.411	18.69
245.627	16.58
245.843	14.78
246.06	16.4
246.276	15.14
246.492	16.05
246.709	14.32
246.925	14.86
247.141	13.39
247.357	13.61
247.574	12.76
247.79	14.48
248.006	15.32
248.222	16.32
248.439	15.12
248.655	15.18
248.871	13.72
249.087	15.16
249.303	14.88
249.519	14.91
249.736	14.55
249.952	13.7
250.168	10.79
250.384	11.12
250.6	10.42
250.816	11.54
251.032	14.82
251.248	16.01
251.464	15.39
251.68	13.97
251.896	16.79
252.112	15.16
252.328	14.87
252.544	14.45
252.76	13.95
252.976	14.72
253.192	15.12
253.408	14.74
253.624	13.9
253.84	13.67
254.056	14.82
254.272	15.38
254.487	16.09
254.703	15.77
254.919	18.32
255.135	17.62
255.351	16.48
255.567	15.75
255.782	17.2
255.998	19.66
256.214	22.24
256.43	20.54
256.646	17.34
256.861	16.76
257.077	18.46
257.293	19.13
257.508	15.04
257.724	14.17
257.94	13.82
258.155	10.98
258.371	12.03
258.587	9.3
258.802	9.54
259.018	9
259.234	9.57
259.449	9.14
259.665	8.3
259.88	9.81
260.096	9.47
260.312	9.05
260.527	8.91
260.743	7.38
260.958	8.18
261.174	8.04
261.389	7.84
261.605	7.64
261.82	7.81
262.036	7
262.251	5.41
262.466	5.41
262.682	7.56
262.897	6.97
263.113	8.24
263.328	8.34
263.543	10.98
263.759	11.83
263.974	11.99
264.189	11.27
264.405	12.36
264.62	13.52
264.835	14.43
265.051	12.32
265.266	14.58
265.481	12.55
265.696	11.56
265.912	10.6
266.127	10.04
266.342	8.98
266.557	9.41
266.773	8.88
266.988	10.03
267.203	10.11
267.418	10.01
267.633	10.45
267.848	11.46
268.064	12.08
268.279	10.71
268.494	12.57
268.709	13.51
268.924	13.23
269.139	12.9
269.354	13.09
269.569	12.6
269.784	12.55
269.999	10.26
270.214	9.38
270.429	8.73
270.644	9.89
270.859	10.62
271.074	9.9
271.289	9.33
271.504	9.95
271.719	9.68
271.934	10.2
272.149	10.2
272.363	10.53
272.578	10.27
272.793	10.11
273.008	9.59
273.223	8.28
273.438	8.38
273.653	9.76
273.867	9.98
274.082	9.21
274.297	8.71
274.512	9.13
274.726	8
274.941	8.76
275.156	10.07
275.371	9.14
275.585	9.54
275.8	10
276.015	9.69
276.229	8.23
276.444	8.21
276.659	9.25
276.873	7.65
277.088	9.47
277.302	11.81
277.517	10.4
277.732	9.8
277.946	9.82
278.161	10.13
278.375	11.58
278.59	14.77
278.804	14.97
279.019	13.33
279.233	15.24
279.448	14.81
279.662	13.7
279.877	12.12
280.091	12.26
280.306	13.66
280.52	12.26
280.735	9.83
280.949	8.42
281.163	8.7
281.378	9.03
281.592	9.19
281.806	8.38
282.021	8.36
282.235	9.62
282.449	10.38
282.664	8.68
282.878	10.53
283.092	11.57
283.307	11.79
283.521	11.39
283.735	10.43
283.949	9.54
284.164	9.84
284.378	9.63
284.592	9.38
284.806	9.83
285.02	8.86
285.234	7.6
285.449	6.94
285.663	6.98
285.877	7.41
286.091	9.36
286.305	10.24
286.519	9.74
286.733	10.44
286.947	11.05
287.161	11.03
287.375	12.84
287.589	13.3
287.803	14.93
288.017	14.25
288.231	15.45
288.445	13.45
288.659	13.58
288.873	16.76
289.087	16.84
289.301	15.19
289.515	15.3
289.729	15.41
289.943	15.56
290.157	15.78
290.371	17.81
290.584	18.19
290.798	19.2
291.012	18.41
291.226	17.49
291.44	16.82
291.654	17.58
291.867	17.67
292.081	17.84
292.295	18.77
292.509	18.03
292.722	15.06
292.936	11.98
293.15	11.37
293.364	14.39
293.577	14.43
293.791	16.07
294.005	15.38
294.218	14.65
294.432	13.47
294.645	12.15
294.859	12.14
295.073	13.16
295.286	15.12
295.5	15.19
295.713	13.4
295.927	13.04
296.14	12.54
296.354	12.88
296.568	13.19
296.781	15.19
296.994	14.78
297.208	15.13
297.421	15.28
297.635	14.97
297.848	16.12
298.062	16.92
298.275	16.25
298.489	16.21
298.702	17.62
298.915	17.77
299.129	16.2
299.342	17.81
299.555	16.87
299.769	17.86
299.982	18.18
300.195	17.61
300.409	17.16
300.622	18.9
300.835	19.57
301.048	18.94
301.262	18.8
301.475	19.2
301.688	19.64
301.901	21.11
302.115	21.06
302.328	20.35
302.541	21.12
302.754	20.06
302.967	20.3
303.18	19.55
303.393	20.4
303.607	20.61
303.82	19.88
304.033	18.6
304.246	19.67
304.459	20.92
304.672	22.2
304.885	21.86
305.098	22.73
305.311	21.04
305.524	21.35
305.737	19.76
305.95	20.57
306.163	21.09
306.376	21.72
306.589	19.4
306.802	17.88
307.015	17.48
307.228	16.51
307.44	17.06
307.653	17.74
307.866	19.01
308.079	21.89
308.292	21.06
308.505	20.23
308.718	19.7
308.93	20.64
309.143	21.76
309.356	21.07
309.569	20.72
309.781	19.52
309.994	19.3
310.207	17.9
310.42	16.07
310.632	16.76
310.845	16.28
311.058	16.87
311.27	15.83
311.483	14.98
311.696	16.08
311.908	16.97
312.121	18.03
312.333	18.58
312.546	18.95
312.759	19.81
312.971	19.1
313.184	20.01
313.396	19.23
313.609	21.01
313.821	22.47
314.034	21.1
314.246	21.6
314.459	20.73
314.671	21.28
314.884	20.91
315.096	21.84
315.309	22.51
315.521	22.61
315.733	24.55
315.946	23.76
316.158	20.01
316.371	20.18
316.583	20.07
316.795	20.53
317.008	21.21
317.22	22.26
317.432	22.06
317.644	22.7
317.857	24.42
318.069	23.38
318.281	24.85
318.494	27.27
318.706	27.79
318.918	27.46
319.13	27.15
319.342	27.28
319.555	24.9
319.767	24.78
319.979	24.46
320.191	22.42
320.403	22.3
320.615	21.77
320.827	21.73
321.039	22
321.252	21.63
321.464	22.75
321.676	21.59
321.888	22.71
322.1	21.75
322.312	19.9
322.524	20.2
322.736	18.63
322.948	18.4
323.16	18.65
323.372	17.74
323.584	17.59
323.796	17.67
324.007	16.86
324.219	18.41
324.431	18.06
324.643	19.04
324.855	19.28
325.067	20.45
325.279	20.39
325.491	19.66
325.702	20.3
325.914	21.15
326.126	19.69
326.338	19.73
326.55	19.66
326.761	20.34
326.973	20.1
327.185	20.03
327.396	19.84
327.608	18.47
327.82	20.86
328.032	21.26
328.243	20.18
328.455	20.91
328.666	20.14
328.878	18.47
329.09	17.63
329.301	18
329.513	19.09
329.725	18.54
329.936	19.39
330.148	17.06
330.359	15.31
330.571	15.92
330.782	15.95
330.994	18.62
331.205	20.02
331.417	20.39
331.628	20.29
331.84	19.01
332.051	19.54
332.262	20.29
332.474	21.45
332.685	22.75
332.897	22.63
333.108	21.69
333.319	20.71
333.531	20.04
333.742	19.84
333.953	19.57
334.165	20.03
334.376	20.55
334.587	19.45
334.799	19.23
335.01	19.85
335.221	20.95
335.432	21.02
335.644	21.45
335.855	21.74
336.066	21.63
336.277	21.24
336.488	21.03
336.7	20.6
336.911	21.85
337.122	22.62
337.333	22.62
337.544	20.63
337.755	20.65
337.966	19.64
338.177	19.42
338.388	19.69
338.599	21.26
338.811	20.9
339.022	20.82
339.233	20.84
339.444	19.9
339.655	17.73
339.866	18.42
340.076	18.81
340.287	18.74
340.498	18.89
340.709	19.64
340.92	19.01
341.131	18.15
341.342	17.72
341.553	17.44
341.764	17.45
341.975	18.65
342.185	20.31
342.396	20.04
342.607	20.95
342.818	21.22
343.029	20.41
343.239	19.97
343.45	20.95
343.661	21.72
343.872	21.32
344.082	21.86
344.293	21.93
344.504	20.92
344.714	21.74
344.925	21.21
345.136	21.32
345.346	20.92
345.557	20.65
345.768	19.88
345.978	19.72
346.189	20.6
346.399	20.42
346.61	20.78
346.821	20.2
347.031	19.37
347.242	20.25
347.452	19.62
347.663	21
347.873	21.43
348.084	23.19
348.294	22.78
348.504	22.68
348.715	22.46
348.925	22.81
349.136	23.31
349.346	22.15
349.557	19.97
349.767	20.51
349.977	19.04
350.188	19.45
350.398	19.04
350.608	19.03
350.819	17.82
351.029	16.87
351.239	16.49
351.449	15.92
351.66	15.84
351.87	15.95
352.08	15.92
352.29	17.02
352.501	17.48
352.711	17.99
352.921	17.51
353.131	17.85
353.341	18.12
353.552	17.47
353.762	16.69
353.972	19.25
354.182	19.05
354.392	18.35
354.602	17.48
354.812	16.43
355.022	15.01
355.232	15.12
355.442	15.05
355.652	15.14
355.862	15.33
356.072	16
356.282	13.42
356.492	13.85
356.702	13.88
356.912	13.68
357.122	13.31
357.332	14.72
357.542	14.27
357.752	13.75
357.962	13.92
358.171	13.84
358.381	14.79
358.591	15.54
358.801	15.75
359.011	16.68
359.221	17.59
359.43	17.75
359.64	16.27
359.85	16.14
360.06	16.27
360.269	15.49
360.479	15.25
360.689	14.18
360.899	14.4
361.108	14.39
361.318	14.46
361.528	14.25
361.737	14.08
361.947	14.27
362.156	14.48
362.366	14.75
362.576	14.69
362.785	15.07
362.995	15.26
363.204	15.55
363.414	15.67
363.623	15.3
363.833	15.38
364.042	15.65
364.252	15.17
364.461	15.16
364.671	15.14
364.88	16.31
365.09	15.75
365.299	16.6
365.509	17.09
365.718	17.1
365.927	16.89
366.137	16.26
366.346	16.28
366.555	16.47
366.765	16.74
366.974	15.9
367.183	15.27
367.393	15.59
367.602	15.02
367.811	14.04
368.021	14.42
368.23	13.96
368.439	15.15
368.648	15.77
368.857	16.5
369.067	15.98
369.276	15.66
369.485	15.57
369.694	15.54
369.903	15.15
370.112	14.83
370.321	15.09
370.531	14.72
370.74	14.54
370.949	14.42
371.158	14.05
371.367	14.68
371.576	16
371.785	15.48
371.994	14.93
372.203	15.11
372.412	15.5
372.621	15.5
372.83	15.62
373.039	14.54
373.248	13.89
373.457	13.67
373.666	13.03
373.874	12.23
374.083	12.81
374.292	13.32
374.501	12.56
374.71	12.59
374.919	12.06
375.128	12.07
375.336	12.65
375.545	13.01
375.754	12.94
375.963	12.95
376.171	13.12
376.38	13.18
376.589	12.95
376.798	12.95
377.006	12.12
377.215	12.09
377.424	12
377.632	12.1
377.841	11.71
378.05	11.82
378.258	11.83
378.467	12.3
378.675	11.82
378.884	11.26
379.093	11.53
379.301	11.89
379.51	11.61
379.718	11.76
379.927	11.28
380.135	11
380.344	10.97
380.552	11.01
380.761	10.54
380.969	10.38
381.177	10.87
381.386	11
381.594	10.75
381.803	10.75
382.011	10.68
382.219	10.52
382.428	11.41
382.636	10.88
382.845	10.79
383.053	10.76
383.261	10.82
383.469	10.48
383.678	10.37
383.886	10.59
384.094	11.08
384.302	10.86
384.511	11.19
384.719	10.35
384.927	10.36
385.135	10.1
385.343	10.09
385.552	10.74
385.76	11.14
385.968	11.45
386.176	11.36
386.384	10.38
386.592	9.99
386.8	9.67
387.008	9.52
387.216	9.62
387.424	9.45
387.633	9.43
387.841	8.41
388.049	7.92
388.257	7.56
388.465	7.32
388.672	7.3
388.88	7.96
389.088	7.67
389.296	8.03
389.504	8.15
389.712	8.13
389.92	7.82
390.128	8.2
390.336	8.25
390.544	7.53
390.751	7.45
390.959	7.51
391.167	7.37
391.375	7.5
391.583	7.39
391.79	7.03
391.998	7.51
392.206	7.45
392.414	7.54
392.621	7.36
392.829	7.76
393.037	7.82
393.244	8.14
393.452	7.72
393.66	8.08
393.867	7.6
394.075	7.7
394.283	7.54
394.49	7.45
394.698	7.11
394.905	7.05
395.113	7.13
395.32	7.08
395.528	7.07
395.735	7.41
395.943	6.99
396.15	7.22
396.358	7.26
396.565	7.34
396.773	7.75
396.98	8.05
397.188	8
397.395	7.74
397.602	7.88
397.81	7.58
398.017	7.24
398.225	7.19
398.432	7.64
398.639	7.51
398.847	7.06
399.054	6.48
399.261	6.19
399.468	6.14
399.676	6.08
399.883	5.89
400.09	5.7
400.297	5.76
400.505	5.69
400.712	5.5
400.919	5.52
401.126	5.75
401.333	5.79
401.54	5.75
401.748	5.84
401.955	5.73
402.162	5.97
402.369	6
402.576	5.98
402.783	6.1
402.99	6.18
403.197	5.99
403.404	5.84
403.611	6.09
403.818	6.53
404.025	6.44
404.232	6.7
404.439	6.6
404.646	6.8
404.853	6.71
405.06	6.89
405.267	6.61
405.474	6.83
405.681	6.92
405.887	6.84
406.094	6.52
406.301	6.68
406.508	6.57
406.715	6.4
406.922	6.4
407.128	6.78
407.335	6.59
407.542	6.76
407.749	6.81
407.955	7.04
408.162	6.84
408.369	6.7
408.575	6.68
408.782	6.83
408.989	6.92
409.195	6.92
409.402	6.82
409.609	6.77
409.815	6.7
410.022	6.42
410.228	6.23
410.435	6.53
410.642	6.77
410.848	7
411.055	7.06
411.261	7.09
411.468	7.29
411.674	7.12
411.881	7.11
412.087	7.19
412.294	7.17
412.5	7.27
412.706	7.38
412.913	7.14
413.119	6.86
413.326	6.57
413.532	6.5
413.738	6.4
413.945	6.5
414.151	6.58
414.357	6.4
414.564	6.57
414.77	6.49
414.976	6.45
415.182	6.56
415.389	6.91
415.595	7.27
415.801	7.25
416.007	7.18
416.214	6.87
416.42	6.61
416.626	6.8
416.832	6.97
417.038	6.79
417.244	6.73
417.45	6.91
417.657	6.55
417.863	6.33
418.069	6.57
418.275	6.46
418.481	6.51
418.687	6.55
418.893	6.22
419.099	5.98
419.305	5.92
419.511	5.85
419.717	5.68
419.923	5.83
420.129	5.6
420.335	5.57
420.541	5.61
420.746	5.77
420.952	5.85
421.158	5.94
421.364	5.98
421.57	6
421.776	5.99
421.982	6.05
422.187	5.92
422.393	6.03
422.599	5.77
422.805	5.76
423.01	5.61
423.216	5.53
423.422	5.56
423.628	5.78
423.833	5.85
424.039	5.91
424.245	5.82
424.45	5.92
424.656	5.94
424.862	6.1
425.067	6.11
425.273	6.11
425.478	6.1
425.684	6.22
425.889	6.1
426.095	6.05
426.301	5.84
426.506	5.82
426.712	5.8
426.917	6.04
427.123	5.94
427.328	5.88
427.533	6.03
427.739	6.17
427.944	6.13
428.15	6.02
428.355	5.96
428.561	6.18
428.766	6.31
428.971	6.37
429.177	6.28
429.382	6.27
429.587	6.3
429.793	6.22
429.998	6.12
430.203	5.78
430.408	5.85
430.614	6.13
430.819	6.17
431.024	6.25
431.229	6.13
431.434	6.13
431.64	6.21
431.845	6.13
432.05	6.14
432.255	6.07
432.46	6.2
432.665	6.06
432.87	5.86
433.076	5.67
433.281	5.49
433.486	5.46
433.691	5.5
433.896	5.59
434.101	5.58
434.306	5.47
434.511	5.57
434.716	5.62
434.921	5.86
435.126	6.11
435.331	6.37
435.535	6.35
435.74	6.42
435.945	6.33
436.15	6.33
436.355	6.34
436.56	6.49
436.765	6.42
436.97	6.44
437.174	6.31
437.379	6.38
437.584	5.95
437.789	6
437.993	6.07
438.198	6.11
438.403	5.82
438.608	5.97
438.812	5.87
439.017	5.75
439.222	5.67
439.426	5.57
439.631	5.22
439.836	5.28
440.04	5.32
440.245	5.26
440.45	5.04
440.654	5.27
440.859	5.12
441.063	5.11
441.268	5.23
441.472	5.22
441.677	5.38
441.881	5.41
442.086	5.57
442.29	5.52
442.495	5.52
442.699	5.68
442.904	5.66
443.108	6.03
443.312	6.09
443.517	6.08
443.721	6.27
443.925	6.2
444.13	6.51
444.334	6.39
444.538	6.35
444.743	6.32
444.947	6.44
445.151	6.27
445.356	5.96
445.56	6.01
445.764	5.94
445.968	5.98
446.173	5.84
446.377	5.75
446.581	5.74
446.785	5.7
446.989	5.66
447.193	5.55
447.398	5.47
447.602	5.49
447.806	5.44
448.01	5.57
448.214	5.4
448.418	5.53
448.622	5.41
448.826	5.47
449.03	5.48
449.234	5.44
449.438	5.43
449.642	5.59
449.846	5.42
450.05	5.37
450.254	5.36
450.458	5.35
450.662	5.25
450.866	5.11
451.069	5.27
451.273	5.25
451.477	5.15
451.681	5.07
451.885	5.15
452.089	5.33
452.292	5.29
452.496	5.27
452.7	5.36
452.904	5.26
453.107	5.32
453.311	5.21
453.515	5.3
453.719	5.58
453.922	5.78
454.126	5.72
454.33	5.86
454.533	5.89
454.737	5.77
454.94	5.74
455.144	5.74
455.348	5.76
455.551	5.75
455.755	5.8
455.958	5.79
456.162	5.75
456.365	5.7
456.569	5.56
456.772	5.47
456.976	5.58
457.179	5.57
457.383	5.71
457.586	5.7
457.79	5.65
457.993	5.58
458.196	5.61
458.4	5.72
458.603	5.55
458.807	5.5
459.01	5.63
459.213	5.64
459.417	5.7
459.62	5.74
459.823	5.9
460.026	5.82
460.23	5.81
460.433	5.74
460.636	5.7
460.839	5.87
461.042	5.94
461.246	5.9
461.449	5.87
461.652	5.72
461.855	5.57
462.058	5.39
462.261	5.51
462.464	5.39
462.668	5.4
462.871	5.24
463.074	5.4
463.277	5.4
463.48	5.46
463.683	5.64
463.886	5.7
464.089	5.83
464.292	5.89
464.495	5.78
464.698	5.76
464.901	5.84
465.104	5.89
465.306	5.64
465.509	5.51
465.712	5.32
465.915	5.26
466.118	5.28
466.321	5.5
466.524	5.38
466.726	5.55
466.929	5.79
467.132	5.66
467.335	5.66
467.538	5.61
467.74	5.71
467.943	5.74
468.146	5.64
468.348	5.63
468.551	5.45
468.754	5.63
468.956	5.61
469.159	5.6
469.362	5.56
469.564	5.7
469.767	5.86
469.969	5.92
470.172	6.08
470.375	6.13
470.577	6.24
470.78	6.07
470.982	5.95
471.185	6.05
471.387	5.85
471.59	5.95
471.792	5.85
471.995	5.7
472.197	5.54
472.399	5.55
472.602	5.53
472.804	5.47
473.007	5.59
473.209	5.78
473.411	5.69
473.614	5.55
473.816	5.56
474.018	5.44
474.22	5.47
474.423	5.47
474.625	5.58
474.827	5.48
475.03	5.29
475.232	5.34
475.434	5.05
475.636	5.07
475.838	5.17
476.04	5.26
476.243	5.33
476.445	5.44
476.647	5.52
476.849	5.25
477.051	5.36
477.253	5.46
477.455	5.39
477.657	5.55
477.859	5.37
478.061	5.44
478.263	5.32
478.465	5.09
478.667	5.02
478.869	5.06
479.071	5.14
479.273	4.91
479.475	4.88
479.677	4.88
479.879	4.69
480.081	4.91
480.283	4.99
480.485	5.05
480.686	5.31
480.888	5.38
481.09	5.27
481.292	5.21
481.494	5.33
481.695	5.32
481.897	5.4
482.099	5.5
482.301	5.39
482.502	5.32
482.704	5.23
482.906	5.18
483.107	5.12
483.309	5.11
483.511	5.09
483.712	5.09
483.914	5.13
484.115	5.13
484.317	5.1
484.519	5.07
484.72	5.06
484.922	5.06
485.123	5.06
485.325	5.09
485.526	5.08
485.728	5.12
485.929	5.05
486.131	5.02
486.332	4.91
486.534	4.86
486.735	4.88
486.936	4.83
487.138	4.9
487.339	4.89
487.541	4.89
487.742	4.91
487.943	4.9
488.144	4.98
488.346	5
488.547	5.07
488.748	5.15
488.95	5.15
489.151	5.23
489.352	5.15
489.553	5.13
489.755	5.07
489.956	5.16
490.157	5.19
490.358	5.15
490.559	5.12
490.76	5.05
490.961	5
491.163	5.01
491.364	4.99
491.565	4.99
491.766	5.08
491.967	5.17
492.168	5.14
492.369	5.11
492.57	5.12
492.771	5.08
492.972	5.17
493.173	5.21
493.374	5.21
493.575	5.31
493.776	5.54
493.976	5.54
494.177	5.58
494.378	5.52
494.579	5.51
494.78	5.65
494.981	5.64
495.182	5.67
495.382	5.71
495.583	5.86
495.784	5.83
495.985	5.66
496.185	5.63
496.386	5.48
496.587	5.65
496.788	5.61
496.988	5.51
497.189	5.47
497.39	5.4
497.59	5.32
497.791	5.19
497.992	5.05
498.192	4.95
498.393	4.92
498.593	5.01
498.794	4.89
498.994	5.03
499.195	4.91
499.395	5.05
499.596	5.02
499.796	4.97
499.997	5.08
500.197	5.1
500.398	5.25
500.598	5.2
500.799	5.33
500.999	5.34
501.199	5.16
501.4	5.35
501.6	5.42
501.801	5.47
502.001	5.36
502.201	5.17
502.402	5.18
502.602	5.3
502.802	5.33
503.002	5.39
503.203	5.44
503.403	5.47
503.603	5.47
503.803	5.5
504.003	5.51
504.204	5.68
504.404	5.78
504.604	5.88
504.804	5.72
505.004	5.67
505.204	5.64
505.404	5.44
505.604	5.52
505.804	5.42
506.005	5.4
506.205	5.3
506.405	5.35
506.605	5.32
506.805	5.26
507.005	5.4
507.204	5.34
507.404	5.1
507.604	5.13
507.804	5.18
508.004	5.29
508.204	5.15
508.404	5.2
508.604	5.05
508.804	5.14
509.003	5.14
509.203	4.92
509.403	4.85
509.603	4.97
509.803	5.15
510.002	5.26
510.202	5.17
510.402	5.33
510.602	5.27
510.801	5.36
511.001	5.22
511.201	5.31
511.4	5.44
511.6	5.5
511.8	5.48
511.999	5.43
512.199	5.31
512.398	5.4
512.598	5.35
512.797	5.39
512.997	5.4
513.197	5.51
513.396	5.4
513.596	5.34
513.795	5.55
513.994	5.45
514.194	5.4
514.393	5.48
514.593	5.46
514.792	5.43
514.992	5.5
515.191	5.48
515.39	5.53
515.59	5.48
515.789	5.57
515.988	5.49
516.188	5.53
516.387	5.39
516.586	5.25
516.786	5.04
516.985	4.91
517.184	4.97
517.383	5.06
517.582	4.92
517.782	5.01
517.981	4.9
518.18	4.94
518.379	5.03
518.578	5.14
518.777	5.25
518.976	5.46
519.176	5.49
519.375	5.49
519.574	5.44
519.773	5.61
519.972	5.54
520.171	5.63
520.37	5.62
520.569	5.67
520.768	5.74
520.967	5.74
521.166	5.69
521.365	5.78
521.564	5.77
521.762	5.77
521.961	5.76
522.16	5.87
522.359	5.8
522.558	5.78
522.757	5.76
522.956	5.77
523.154	5.61
523.353	5.62
523.552	5.58
523.751	5.42
523.949	5.47
524.148	5.38
524.347	5.38
524.546	5.45
524.744	5.31
524.943	5.29
525.142	5.24
525.34	5.28
525.539	5.26
525.737	5.22
525.936	5.31
526.135	5.2
526.333	5.19
526.532	5.24
526.73	5.18
526.929	5.28
527.127	5.24
527.326	5.29
527.524	5.36
527.723	5.38
527.921	5.45
528.12	5.5
528.318	5.52
528.516	5.61
528.715	5.55
528.913	5.56
529.112	5.55
529.31	5.6
529.508	5.59
529.707	5.56
529.905	5.53
530.103	5.5
530.301	5.52
530.5	5.57
530.698	5.46
530.896	5.63
531.094	5.71
531.293	5.71
531.491	5.71
531.689	5.74
531.887	5.74
532.085	5.85
532.283	5.93
532.481	5.84
532.68	5.83
532.878	5.82
533.076	5.69
533.274	5.68
533.472	5.69
533.67	5.69
533.868	5.6
534.066	5.59
534.264	5.63
534.462	5.64
534.66	5.72
534.858	5.81
535.056	5.97
535.253	6.05
535.451	6.05
535.649	6.05
535.847	5.99
536.045	6.16
536.243	6.13
536.441	6.04
536.638	6.05
536.836	5.96
537.034	5.86
537.232	5.71
537.43	5.66
537.627	5.63
537.825	5.63
538.023	5.69
538.22	5.67
538.418	5.69
538.616	5.72
538.813	5.69
539.011	5.87
539.209	5.86
539.406	5.95
539.604	6.01
539.801	6.15
539.999	6.25
540.196	6.13
540.394	6.02
540.591	6.11
540.789	6.14
540.986	6.18
541.184	6.1
541.381	6.1
541.579	6.16
541.776	6.16
541.974	6.12
542.171	6.19
542.368	6.34
542.566	6.42
542.763	6.41
542.96	6.5
543.158	6.4
543.355	6.33
543.552	6.4
543.75	6.36
543.947	6.39
544.144	6.44
544.341	6.44
544.539	6.4
544.736	6.39
544.933	6.51
545.13	6.48
545.327	6.73
545.524	6.93
545.722	7.04
545.919	7.07
546.116	7.21
546.313	7.35
546.51	7.25
546.707	7.31
546.904	7.4
547.101	7.42
547.298	7.34
547.495	7.32
547.692	7.24
547.889	7.31
548.086	7.4
548.283	7.38
548.48	7.28
548.677	7.37
548.874	7.43
549.07	7.49
549.267	7.43
549.464	7.51
549.661	7.52
549.858	7.66
550.055	7.58
550.251	7.58
550.448	7.58
550.645	7.45
550.842	7.45
551.038	7.43
551.235	7.36
551.432	7.22
551.628	7.42
551.825	7.3
552.022	7.36
552.218	7.44
552.415	7.45
552.612	7.38
552.808	7.53
553.005	7.38
553.201	7.38
553.398	7.39
553.594	7.53
553.791	7.56
553.987	7.79
554.184	7.92
554.38	7.9
554.577	7.94
554.773	8.2
554.97	8.11
555.166	8.33
555.362	8.29
555.559	8.19
555.755	8.49
555.952	8.41
556.148	8.22
556.344	8.18
556.541	8.08
556.737	8.08
556.933	7.9
557.129	8.05
557.326	8.14
557.522	8.21
557.718	8.35
557.914	8.21
558.11	8.24
558.307	8.56
558.503	8.68
558.699	8.73
558.895	8.67
559.091	8.7
559.287	8.79
559.483	8.73
559.679	8.67
559.876	8.76
560.072	8.85
560.268	8.61
560.464	8.4
560.66	8.25
560.856	8.39
561.052	8.43
561.247	8.44
561.443	8.49
561.639	8.5
561.835	8.78
562.031	8.71
562.227	8.48
562.423	8.66
562.619	8.8
562.815	8.85
563.01	8.75
563.206	8.77
563.402	8.91
563.598	8.79
563.793	8.9
563.989	8.79
564.185	8.95
564.381	9.15
564.576	9.08
564.772	9.04
564.968	9.05
565.163	9.09
565.359	9.1
565.555	8.9
565.75	8.96
565.946	8.94
566.141	8.91
566.337	8.85
566.532	8.81
566.728	8.88
566.923	8.95
567.119	8.93
567.314	9.09
567.51	9.02
567.705	8.99
567.901	8.95
568.096	8.87
568.292	8.91
568.487	8.81
568.682	8.75
568.878	8.81
569.073	8.55
569.268	8.7
569.464	8.61
569.659	8.78
569.854	8.97
570.05	9.05
570.245	9.08
570.44	9.03
570.635	9.11
570.831	9.16
571.026	9.26
571.221	9.33
571.416	9.34
571.611	9.36
571.806	9.39
572.002	9.53
572.197	9.57
572.392	9.74
572.587	9.81
572.782	9.82
572.977	9.81
573.172	9.85
573.367	10.01
573.562	9.97
573.757	9.9
573.952	9.83
574.147	9.62
574.342	9.63
574.537	9.66
574.732	9.82
574.927	9.89
575.121	10
575.316	9.86
575.511	9.98
575.706	10.09
575.901	10.2
576.096	10.21
576.29	10.19
576.485	10.04
576.68	9.87
576.875	9.6
577.069	9.61
577.264	9.74
577.459	9.62
577.654	9.66
577.848	9.56
578.043	9.55
578.238	9.48
578.432	9.68
578.627	10.11
578.821	10.15
579.016	10.3
579.21	10.1
579.405	10.26
579.6	10.43
579.794	10.27
579.989	10.33
580.183	10.47
580.378	10.58
580.572	10.6
580.766	10.41
580.961	10.55
581.155	10.46
581.35	10.77
581.544	10.24
581.738	10.29
581.933	10.33
582.127	10.45
582.321	10.15
582.516	10.38
582.71	10.4
582.904	10.34
583.099	10.28
583.293	10.32
583.487	10.26
583.681	10.8
583.875	10.84
584.07	10.87
584.264	10.7
584.458	11.03
584.652	10.88
584.846	11.13
585.04	10.98
585.234	10.7
585.428	10.82
585.623	10.77
585.817	10.54
586.011	10.64
586.205	10.48
586.399	10.5
586.593	10.61
586.787	10.47
586.981	10.2
587.174	10.24
587.368	10.31
587.562	10.36
587.756	10.29
587.95	10.33
588.144	10.17
588.338	10.23
588.532	10.24
588.725	10.27
588.919	10.75
589.113	10.82
589.307	10.99
589.501	11.26
589.694	11.28
589.888	11.44
590.082	11.41
590.275	11.55
590.469	11.49
590.663	11.55
590.856	11.23
591.05	10.96
591.244	11.03
591.437	11
591.631	10.74
591.824	10.78
592.018	10.85
592.212	10.89
592.405	10.84
592.599	10.83
592.792	10.73
592.986	10.86
593.179	10.78
593.372	10.87
593.566	11.15
593.759	11.24
593.953	11.33
594.146	11.32
594.339	11.27
594.533	11.27
594.726	11.33
594.92	11.59
595.113	11.61
595.306	11.6
595.499	11.48
595.693	11.19
595.886	11.48
596.079	11.32
596.272	11.31
596.466	11.26
596.659	11.25
596.852	11.32
597.045	11.32
597.238	11.25
597.431	11.25
597.624	11.2
597.818	11.39
598.011	11.4
598.204	11.3
598.397	11.29
598.59	11.33
598.783	11.45
598.976	11.43
599.169	11.2
599.362	11.32
599.555	11.55
599.748	11.62
599.941	11.51
600.134	11.01
600.326	11.01
600.519	10.84
600.712	10.67
600.905	10.57
601.098	10.44
601.291	10.48
601.483	10.47
601.676	10.33
601.869	10.52
602.062	10.36
602.255	10.81
602.447	11.02
602.64	11.27
602.833	11.27
603.025	11.38
603.218	11.51
603.411	11.49
603.603	11.49
603.796	11.48
603.989	11.2
604.181	11.18
604.374	11.06
604.566	11.12
604.759	11.14
604.951	11.52
605.144	11.5
605.336	11.47
605.529	11.63
605.721	11.8
605.914	11.96
606.106	12.2
606.299	12.41
606.491	12.45
606.683	12.36
606.876	12.37
607.068	12.08
607.26	12.06
607.453	12.28
607.645	12.07
607.837	11.7
608.03	11.55
608.222	11.46
608.414	11.4
608.606	11.68
608.799	11.98
608.991	12.09
609.183	11.94
609.375	12.08
609.567	11.9
609.759	12.08
609.952	12.37
610.144	12.4
610.336	12.55
610.528	12.69
610.72	12.46
610.912	12.25
611.104	12.3
611.296	12.48
611.488	12.28
611.68	12.46
611.872	12.43
612.064	12.25
612.256	12.17
612.448	11.94
612.64	11.71
612.832	11.86
613.023	11.89
613.215	11.58
613.407	11.77
613.599	12.08
613.791	11.84
613.983	11.77
614.174	12.16
614.366	12.48
614.558	12.48
614.75	12.8
614.941	12.85
615.133	12.74
615.325	12.82
615.516	12.68
615.708	12.42
615.9	12.7
616.091	12.7
616.283	12.26
616.475	11.89
616.666	12.45
616.858	12.37
617.049	12.29
617.241	12.55
617.432	12.52
617.624	12.54
617.815	12.59
618.007	12.24
618.198	12.37
618.39	12.43
618.581	12.56
618.773	12.04
618.964	11.88
619.155	12.12
619.347	11.85
619.538	11.84
619.729	11.99
619.921	11.99
620.112	12.09
620.303	12.12
620.494	11.92
620.686	11.81
620.877	11.78
621.068	11.81
621.259	11.69
621.451	11.6
621.642	11.88
621.833	12.1
622.024	11.82
622.215	11.7
622.406	11.5
622.597	11.66
622.788	11.86
622.98	12.18
623.171	12
623.362	12
623.553	12.22
623.744	11.84
623.935	11.55
624.126	11.73
624.317	11.75
624.508	11.68
624.698	11.59
624.889	11.41
625.08	11.18
625.271	10.87
625.462	10.73
625.653	10.59
625.844	10.61
626.034	10.55
626.225	10.62
626.416	10.45
626.607	10.59
626.798	10.87
626.988	11.19
627.179	11.35
627.37	11.69
627.56	11.84
627.751	11.99
627.942	12.08
628.132	12.22
628.323	12.28
628.514	12.41
628.704	12.51
628.895	12.33
629.085	12.22
629.276	11.96
629.466	11.85
629.657	11.88
629.847	12.08
630.038	12.27
630.228	12.31
630.419	12.24
630.609	12.47
630.8	12.28
630.99	11.95
631.181	11.65
631.371	12.08
631.561	12.1
631.752	11.84
631.942	11.75
632.132	11.82
632.323	12.01
632.513	11.81
632.703	12
632.893	12.07
633.084	12.37
633.274	12.72
633.464	12.63
633.654	12.65
633.844	12.69
634.034	12.6
634.225	12.27
634.415	11.57
634.605	11.67
634.795	11.6
634.985	11.53
635.175	11.7
635.365	11.49
635.555	11.42
635.745	11.8
635.935	11.98
636.125	11.68
636.315	11.78
636.505	12.15
636.695	12.29
636.885	12.36
637.075	12.5
637.265	12.6
637.455	12.76
637.644	12.53
637.834	12.22
638.024	12.02
638.214	12.58
638.404	12.72
638.593	12.6
638.783	12.74
638.973	12.41
639.163	12.28
639.352	12.17
639.542	12.07
639.732	12.42
639.921	12.46
640.111	12.36
640.301	11.72
640.49	11.5
640.68	11.66
640.87	11.29
641.059	11.29
641.249	11.45
641.438	11.48
641.628	11.38
641.817	11.48
642.007	11.39
642.196	11.66
642.386	11.87
642.575	12.15
642.764	12.27
642.954	12.29
643.143	12.42
643.333	12.87
643.522	12.57
643.711	12.33
643.901	12.15
644.09	12.2
644.279	12.59
644.469	12.63
644.658	12.65
644.847	12.55
645.036	12.76
645.226	13.31
645.415	12.72
645.604	12.64
645.793	12.26
645.982	12.01
646.171	12.17
646.361	11.48
646.55	11.4
646.739	10.94
646.928	10.91
647.117	11.02
647.306	10.67
647.495	11
647.684	11.61
647.873	12.19
648.062	12.17
648.251	12.2
648.44	12.47
648.629	12.87
648.818	13.1
649.007	13.08
649.196	12.56
649.384	12.49
649.573	12.27
649.762	12.05
649.951	12.22
650.14	12.04
650.328	11.98
650.517	11.87
650.706	11.68
650.895	11.67
651.083	11.69
651.272	12.27
651.461	12.4
651.65	12.35
651.838	12.14
652.027	12.24
652.216	12.49
652.404	12.41
652.593	12.5
652.781	12.52
652.97	12.29
653.158	12.19
653.347	11.69
653.535	12.06
653.724	11.68
653.912	12.19
654.101	12.21
654.289	12.02
654.478	12.35
654.666	12.3
654.855	12.37
655.043	12.61
655.231	12.84
655.42	12.62
655.608	11.63
655.796	12.16
655.985	11.68
656.173	11.64
656.361	12.44
656.55	12.07
656.738	11.97
656.926	12.19
657.114	11.81
657.302	11.57
657.491	12.09
657.679	12.13
657.867	11.92
658.055	12.13
658.243	11.91
658.431	11.18
658.619	11.31
658.807	11.28
658.996	10.89
659.184	11.24
659.372	11.3
659.56	11.08
659.748	11.08
659.936	11.07
660.124	11.03
660.311	11.15
660.499	11.47
660.687	11.72
660.875	11.91
661.063	11.99
661.251	11.9
661.439	11.78
661.627	11.98
661.814	12.79
662.002	12.85
662.19	12.97
662.378	13
662.565	12.76
662.753	12.73
662.941	12.61
663.129	12.81
663.316	12.86
663.504	12.93
663.692	13.26
663.879	12.6
664.067	12.71
664.254	12.46
664.442	12.39
664.63	12.68
664.817	13.11
665.005	13.41
665.192	13.26
665.38	13.36
665.567	13.36
665.755	13.47
665.942	13.65
666.13	13.74
666.317	13.8
666.504	13.46
666.692	13.48
666.879	13.11
667.067	13.01
667.254	12.96
667.441	13
667.629	13.36
667.816	12.94
668.003	13.15
668.19	12.81
668.378	12.99
668.565	13.62
668.752	13.71
668.939	12.79
669.127	12.39
669.314	12.63
669.501	12.44
669.688	12.42
669.875	13.05
670.062	12.99
670.249	13.19
670.436	12.94
670.623	12.88
670.81	12.39
670.997	13.16
671.184	12.81
671.371	12.57
671.558	12.7
671.745	12.68
671.932	12.1
672.119	12.3
672.306	12.56
672.493	12.59
672.68	12.71
672.867	13.28
673.054	13.35
673.24	13.84
673.427	14.18
673.614	14.42
673.801	14.41
673.988	14.5
674.174	14.49
674.361	14.32
674.548	14.25
674.734	13.69
674.921	13.34
675.108	13.05
675.294	12.61
675.481	12.28
675.668	12.18
675.854	12.04
676.041	11.39
676.227	11.03
676.414	11.05
676.601	11.33
676.787	11.82
676.974	11.69
677.16	11.67
677.347	11.92
677.533	11.86
677.719	11.7
677.906	11.89
678.092	12.62
678.279	12.89
678.465	13.28
678.651	12.88
678.838	12.85
679.024	13.09
679.21	13.23
679.397	13.57
679.583	13.56
679.769	13.44
679.955	13.15
680.142	13.06
680.328	12.83
680.514	12.32
680.7	12.58
680.886	12.49
681.073	12.64
681.259	12.57
681.445	12.39
681.631	12.36
681.817	12.2
682.003	12.39
682.189	11.96
682.375	11.97
682.561	12.49
682.747	12.09
682.933	11.5
683.119	11.04
683.305	10.89
683.491	10.99
683.677	10.97
683.863	11.56
684.049	11.33
684.235	11.99
684.42	11.99
684.606	11.22
684.792	11.66
684.978	12.06
685.164	12.36
685.349	12.49
685.535	12.18
685.721	12.4
685.907	11.8
686.092	12.07
686.278	11.69
686.464	11.7
686.649	12.54
686.835	12.42
687.021	12.73
687.206	12.8
687.392	12.92
687.577	13.49
687.763	13.18
687.948	14.01
688.134	13.84
688.319	14.14
688.505	14.13
688.69	14
688.876	14.39
689.061	14.18
689.247	14.17
689.432	14.02
689.618	14.05
689.803	14.49
689.988	14.36
690.174	14.4
690.359	14.72
690.544	14.86
690.73	15.04
690.915	14.97
691.1	14.75
691.285	14.64
691.471	14.65
691.656	14.48
691.841	14.17
692.026	13.74
692.211	13.87
692.396	12.9
692.582	12.85
692.767	12
692.952	11.2
693.137	11.73
693.322	12.26
693.507	12.82
693.692	12.59
693.877	12.38
694.062	12.82
694.247	12.62
694.432	12.69
694.617	12.69
694.802	12.61
694.987	12.81
695.172	12.81
695.357	12.21
695.541	11.91
695.726	12.01
695.911	12.44
696.096	11.82
696.281	12
696.466	12.31
696.65	12.43
696.835	12.43
697.02	13.25
697.204	13.16
697.389	13
697.574	12.94
697.759	13.02
697.943	12.66
698.128	12.85
698.312	12.87
698.497	13.45
698.682	13.23
698.866	13.56
699.051	12.96
699.235	13.07
699.42	13.2
699.604	13.45
699.789	13.17
699.973	13.61
700.158	13.83
700.342	13.74
700.527	13.42
700.711	13.55
700.895	13.48
701.08	13.97
701.264	13.69
701.448	14.31
701.633	14.17
701.817	14.66
702.001	14.05
702.186	13.88
702.37	14.1
702.554	13.69
702.738	13.94
702.923	14.74
703.107	13.62
703.291	13.79
703.475	12.78
703.659	12.27
703.843	12.46
704.027	13.33
704.212	13.52
704.396	13.44
704.58	13.41
704.764	13.44
704.948	12.98
705.132	13.99
705.316	14.31
705.5	14.77
705.684	15.36
705.868	15.25
706.052	15.72
706.235	15.82
706.419	15.96
706.603	15.85
706.787	15.6
706.971	15.52
707.155	15.29
707.339	14.68
707.522	14.65
707.706	13.91
707.89	13.86
708.074	13.75
708.257	13.56
708.441	13.7
708.625	13.5
708.808	13.77
708.992	13.72
709.176	13.32
709.359	13.39
709.543	13.56
709.727	13.44
709.91	13.42
710.094	13.06
710.277	14.1
710.461	13.45
710.644	13.6
710.828	13.95
711.011	13.73
711.195	14.26
711.378	14.4
711.562	14.34
711.745	15.14
711.928	14.48
712.112	15.04
712.295	13.43
712.478	13.88
712.662	14.8
712.845	13.75
713.028	14.28
713.212	13.92
713.395	14.39
713.578	13.96
713.761	13.57
713.945	14.87
714.128	13.97
714.311	15.19
714.494	15.09
714.677	14.35
714.86	14.77
715.043	14.33
715.227	14.88
715.41	13.49
715.593	13.62
715.776	14.16
715.959	13.32
716.142	13.03
716.325	12.69
716.508	12.31
716.691	12.7
716.874	12.74
717.057	13.2
717.239	12.95
717.422	13.7
717.605	13.92
717.788	13.75
717.971	13.25
718.154	13.45
718.337	12.82
718.519	12.78
718.702	12.23
718.885	12.42
719.068	12.08
719.25	12.51
719.433	13.58
719.616	13.88
719.798	13.71
719.981	14.41
720.164	14.92
720.346	15.19
720.529	16.39
720.712	16.58
720.894	16.34
721.077	15.95
721.259	15.4
721.442	14.61
721.624	14.15
721.807	14.1
721.989	14.31
722.172	14.06
722.354	14.02
722.537	13.86
722.719	14.4
722.901	15.39
723.084	15.51
723.266	14.39
723.448	13.71
723.631	14.08
723.813	14.39
723.995	13.42
724.178	13.97
724.36	14.69
724.542	14.61
724.724	14.38
724.907	13.32
725.089	14.06
725.271	15.24
725.453	15.1
725.635	15.01
725.817	14.09
725.999	14.34
726.181	14.19
726.364	13.31
726.546	12.98
726.728	12.4
726.91	12.74
727.092	11.83
727.274	12.48
727.456	12.93
727.638	13.49
727.819	13.78
728.001	14.37
728.183	13.7
728.365	13.63
728.547	13.97
728.729	14.51
728.911	15.25
729.093	14.48
729.274	14.42
729.456	14.74
729.638	13.42
729.82	13.86
730.001	13.47
730.183	13.53
730.365	14.39
730.546	13.81
730.728	12.97
730.91	11.96
731.091	12.4
731.273	11.92
731.455	11.2
731.636	12.51
731.818	12.81
731.999	14.03
732.181	15.26
732.362	15.07
732.544	15.86
732.725	17.34
732.907	17.79
733.088	18.75
733.27	19.27
733.451	20.24
733.633	19.4
733.814	19.35
733.995	19.06
734.177	19.05
734.358	19.23
734.539	18.51
734.721	17.79
734.902	17.2
735.083	17.52
735.264	17.24
735.446	17.64
735.627	18.9
735.808	18.89
735.989	17.85
736.17	17.29
736.351	17.37
736.533	18.38
736.714	18.23
736.895	18.46
737.076	17.57
737.257	17.37
737.438	16.48
737.619	15.94
737.8	15.97
737.981	16.87
738.162	16.44
738.343	16.32
738.524	16.52
738.705	16.59
738.886	16.16
739.067	15.79
739.247	16.26
739.428	15.07
739.609	14.44
739.79	13.12
739.971	13.67
740.151	13.56
740.332	13.62
740.513	12.57
740.694	11.66
740.874	11.93
741.055	11.91
741.236	13.14
741.417	15.19
741.597	15.03
741.778	17.81
741.958	17.23
742.139	17.39
742.32	16.19
742.5	16.43
742.681	17.38
742.861	17.07
743.042	17.99
743.222	16.68
743.403	16.17
743.583	17.67
743.764	16.16
743.944	16.21
744.124	16.59
744.305	17.02
744.485	16.8
744.666	17.43
744.846	18.27
745.026	19.26
745.207	19.11
745.387	20.49
745.567	19.93
745.747	18.5
745.928	16.36
746.108	16.3
746.288	17.72
746.468	18.32
746.648	16.44
746.829	17.53
747.009	16.08
747.189	16.55
747.369	16.06
747.549	16.57
747.729	17.22
747.909	18.74
748.089	18.21
748.269	17.35
748.449	16.75
748.629	18.05
748.809	16.23
748.989	16.26
749.169	15.1
749.349	14.55
749.529	14.85
749.709	15.12
749.889	13.82
750.068	13.46
750.248	14.66
750.428	14.42
750.608	14.12
750.788	15.6
750.967	15.77
751.147	16.94
751.327	16.86
751.507	15.35
751.686	15.8
751.866	16.98
752.046	17.65
752.225	17.2
752.405	16.32
752.585	16.72
752.764	16.72
752.944	16.44
753.123	16.28
753.303	16.06
753.482	17.01
753.662	16.87
753.841	16.91
754.021	17.33
754.2	17.33
754.38	19.35
754.559	19.3
754.739	17.95
754.918	18.58
755.097	17.74
755.277	17.85
755.456	17.77
755.635	18.42
755.815	18.72
755.994	16.74
756.173	16.12
756.352	15.02
756.532	15.84
756.711	15.98
756.89	16.66
757.069	17.89
757.248	18.14
757.427	18.57
757.607	19.11
757.786	18.4
757.965	19.36
758.144	19.23
758.323	19.1
758.502	18.28
758.681	19.17
758.86	17.92
759.039	18.53
759.218	19.64
759.397	18.95
759.576	16.66
759.755	16.87
759.934	17.74
760.113	17.09
760.291	17.36
760.47	17.23
760.649	17.42
760.828	16.73
761.007	15.04
761.186	13.91
761.364	13.32
761.543	14.74
761.722	14.83
761.901	13.93
762.079	14.69
762.258	14.15
762.437	13.63
762.615	14.22
762.794	15.32
762.972	16.46
763.151	15.99
763.33	16.06
763.508	15.16
763.687	15.63
763.865	15.84
764.044	15.44
764.222	16.13
764.401	16.26
764.579	15.08
764.758	14.3
764.936	13.67
765.114	13.38
765.293	12.58
765.471	13.77
765.65	13.23
765.828	13.96
766.006	14.12
766.184	13.91
766.363	13.57
766.541	14.05
766.719	14.15
766.898	15.24
767.076	15.06
767.254	17.33
767.432	17.72
767.61	18.13
767.788	17.62
767.967	18.03
768.145	17.35
768.323	17.15
768.501	16.9
768.679	16.65
768.857	16.22
769.035	16.78
769.213	16.46
769.391	15.67
769.569	15.21
769.747	17.58
769.925	18.07
770.103	17.11
770.281	18.37
770.459	17.92
770.636	18.36
770.814	17.43
770.992	17.37
771.17	15.82
771.348	15.64
771.525	15.67
771.703	12.76
771.881	12.84
772.059	13.98
772.236	14.82
772.414	14.55
772.592	14.96
772.769	15.12
772.947	16.38
773.125	16.92
773.302	16.75
773.48	16.69
773.657	17.54
773.835	17.19
774.013	17.33
774.19	16.41
774.368	17.7
774.545	18.87
774.723	17.43
774.9	17.55
775.077	18.16
775.255	19.76
775.432	19.94
775.61	19.53
775.787	18.73
775.964	20.67
776.142	21.57
776.319	22.04
776.496	21.14
776.674	20.71
776.851	19.23
777.028	17.56
777.205	17.82
777.382	19.23
777.56	19.79
777.737	22.04
777.914	19.28
778.091	19.41
778.268	17
778.445	16.8
778.622	18.13
778.8	16.86
778.977	19.03
779.154	16.81
779.331	15.52
779.508	14.56
779.685	13.9
779.862	15.79
780.038	14.67
780.215	17.36
780.392	18.25
780.569	19.34
780.746	22.23
780.923	21.14
781.1	22.31
781.277	23.37
781.453	24.03
781.63	23.07
781.807	22.85
781.984	23.65
782.16	21.2
782.337	19.81
782.514	17.94
782.691	17.91
782.867	19.19
783.044	20.02
783.221	20.65
783.397	22.97
783.574	25.7
783.75	24.96
783.927	24.16
784.103	26.73
784.28	27.79
784.456	28.64
784.633	27.08
784.809	24.79
784.986	23.17
785.162	20.45
785.339	16.08
785.515	13.47
785.692	13.28
785.868	12.43
786.044	10.01
786.221	12.29
786.397	11.13
786.573	13.09
786.749	13.33
786.926	12.25
787.102	14.17
787.278	14.92
787.454	16.02
787.631	16.72
787.807	15.93
787.983	16.79
788.159	15.18
788.335	12.82
788.511	9.96
788.687	11.4
788.863	12.32
789.039	10.15
789.216	10.95
789.392	7.88
789.568	7.39
789.744	8.47
789.919	10.26
790.095	8.48
790.271	10.18
790.447	12.61
790.623	12.14
790.799	11.75
790.975	13.89
791.151	13.04
791.327	12.99
791.502	15.32
791.678	18.61
791.854	17.1
792.03	17.19
792.205	17.85
792.381	14.87
792.557	15.21
792.733	18.3
792.908	17.88
793.084	18.44
793.259	18.77
793.435	16.81
793.611	11.27
793.786	11.11
793.962	10.72
794.137	12.32
794.313	16.01
794.488	15.72
794.664	14.81
794.839	13.78
795.015	14.2
795.19	13.59
795.366	15.37
795.541	19.57
795.716	20.36
795.892	20.22
796.067	19.5
796.242	18.1
796.418	15.8
796.593	15.87
796.768	16.27
796.944	16.95
797.119	19.68
797.294	15.16
797.469	17.49
797.644	18.79
797.82	21.15
797.995	17.96
798.17	19.99
798.345	21.65
798.52	18.63
798.695	19.1
798.87	18.52
799.045	15.24
799.22	21.84
799.395	19.05
799.57	16.49
799.745	15.59
799.92	19.2
800.095	18.35
800.27	19.48
800.445	24.08
800.62	23.92
800.795	24.5
800.97	28.75
801.145	25.07
801.319	25.36
801.494	26.29
801.669	26.29
801.844	27.25
802.018	26.58
802.193	24.95
802.368	20.87
802.543	18.58
802.717	19.37
802.892	15.69
803.067	14.14
803.241	12.46
803.416	11.39
803.59	10.6
803.765	8.37
803.94	5.54
804.114	7.05
804.289	12.23
804.463	14.91
804.638	13.29
804.812	16.85
804.986	13.98
805.161	13.46
805.335	12.87
805.51	14.62
805.684	14.66
805.858	16.41
806.033	15.82
806.207	11.26
806.381	12.96
806.556	11.64
806.73	7.62
806.904	9.38
807.078	9.51
807.253	8.32
807.427	7.03
807.601	7.54
807.775	7.18
807.949	11.38
808.123	13.56
808.298	11.77
808.472	10.67
808.646	13.29
808.82	17.86
808.994	17.54
809.168	19.97
809.342	19.8
809.516	18.99
809.69	20.25
809.864	17.78
810.038	14.84
810.212	20.36
810.385	24.18
810.559	22.55
810.733	21.28
810.907	21.05
811.081	24.03
811.255	28.56
811.428	33.06
811.602	31.66
811.776	34.81
811.95	37.58
812.123	32.73
812.297	32.5
812.471	34.59
812.644	35.68
812.818	38.3
812.992	38.27
813.165	36.22
813.339	31.92
813.512	32.25
813.686	32.16
813.86	29.94
814.033	30.64
814.207	32.16
814.38	33.41
814.554	30.59
814.727	31.47
814.9	27.92
815.074	27.84
815.247	29.04
815.421	29.84
815.594	25.73
815.767	26.75
815.941	25.66
816.114	24.74
816.287	22.71
816.46	22.52
816.634	17.04
816.807	14.93
816.98	13.24
817.153	19.11
817.327	18.27
817.5	18.79
817.673	14.45
817.846	17.93
818.019	15.96
818.192	16.18
818.365	15.63
818.538	17.53
818.711	22.31
818.884	21.72
819.057	14.06
819.23	11.56
819.403	12.54
819.576	13.1
819.749	12.73
819.922	12.48
820.095	12.09
820.268	16.06
820.441	18.42
820.614	16.97
820.786	17.8
820.959	17.83
821.132	17.85
821.305	16.94
821.477	18.5
821.65	17.37
821.823	17.2
821.996	17.46
822.168	16.73
822.341	16.16
822.514	15.44
822.686	15.86
822.859	15.73
823.031	16.42
823.204	16.32
823.376	15.89
823.549	16.19
823.722	16.73
823.894	16.4
824.067	16.69
824.239	16.72
824.411	17.61
824.584	17.26
824.756	18.61
824.929	18.9
825.101	19.93
825.273	19
825.446	19.5
825.618	18.43
825.79	19.51
825.963	19.81
826.135	20.12
826.307	21.05
826.479	19.53
826.652	17.1
826.824	16.77
826.996	16.84
827.168	18.16
827.34	17.94
827.512	19.35
827.684	20.06
827.856	18.89
828.029	19.19
828.201	17.71
828.373	18.49
828.545	19.4
828.717	19.18
828.889	18.98
829.061	18.49
829.232	17.88
829.404	17.15
829.576	13.82
829.748	12.56
829.92	12.9
830.092	13.51
830.264	15.66
830.436	18.12
830.607	18.88
830.779	18.8
830.951	20.11
831.123	21.95
831.294	22.04
831.466	25.56
831.638	28.42
831.809	27.29
831.981	26.24
832.153	24.68
832.324	22.02
832.496	22.74
832.667	24.02
832.839	25.76
833.011	24.65
833.182	22.53
833.354	17.18
833.525	17.59
833.697	18.09
833.868	19.48
834.039	22.01
834.211	22.3
834.382	21.77
834.554	19.27
834.725	15.83
834.896	15.45
835.068	18.57
835.239	19.22
835.41	19.25
835.581	20.76
835.753	19.4
835.924	15.53
836.095	15.76
836.266	16.21
836.438	17.29
836.609	18.99
836.78	21.88
836.951	21.58
837.122	25.09
837.293	22.66
837.464	20.03
837.635	24.01
837.806	24.47
837.977	24.38
838.148	27.66
838.319	25.74
838.49	27.23
838.661	26.37
838.832	23.55
839.003	22.53
839.174	26.64
839.345	26.15
839.516	23.57
839.687	28.83
839.857	33.31
840.028	26.03
840.199	36.46
840.37	36.54
840.54	36.72
840.711	36.71
840.882	33.96
841.053	28.24
841.223	29.16
841.394	26.7
841.564	22.69
841.735	15.83
841.906	16.88
842.076	12.22
842.247	9.24
842.417	10.29
842.588	9.97
842.758	14.89
842.929	20.09
843.099	21.99
843.27	22.86
843.44	24.28
843.611	22.12
843.781	22.39
843.951	15.57
844.122	22.34
844.292	17.9
844.462	15.24
844.633	10.57
844.803	10.13
844.973	8.24
845.144	16.13
845.314	17.01
845.484	19.86
845.654	20.36
845.824	21.52
845.995	15.14
846.165	18.57
846.335	19.75
846.505	22.48
846.675	23.42
846.845	18.28
847.015	18.62
847.185	20.58
847.355	29.89
847.525	35.43
847.695	33.54
847.865	31.75
848.035	27.55
848.205	29.35
848.375	30.98
848.545	29.82
848.715	35.71
848.884	31.94
849.054	38.32
849.224	35.11
849.394	38.14
849.564	36.34
849.733	40.49
849.903	42.03
850.073	49.43
850.243	53.97
850.412	54.82
850.582	51.17
850.752	48.56
850.921	33.62
851.091	46.73
851.26	38.24
851.43	59.89
851.599	57.59
851.769	57.5
851.939	49.55
852.108	38.31
852.278	39.76
852.447	36.73
852.616	45.09
852.786	49.52
852.955	46.76
853.125	46.45
853.294	34.15
853.463	24.96
853.633	29.34
853.802	25.85
853.971	37.84
854.141	38.82
854.31	43.76
854.479	48.3
854.648	48.51
854.818	45.55
854.987	51.74
855.156	51.74
855.325	61.23
855.494	61.75
855.663	56.3
855.832	47.28
856.001	47.52
856.171	45.14
856.34	34.81
856.509	28.49
856.678	26.79
856.847	14.68
857.016	7.88
857.185	1.83
857.353	-6.51
857.522	-5.94
857.691	0.83
857.86	-6.08
858.029	-14.51
858.198	-29.1
858.367	-18.52
858.535	-22.16
858.704	-23.31
858.873	-4.8
859.042	3.21
859.21	10.92
859.379	29.66
859.548	21.87
859.717	28.38
859.885	33.1
860.054	45.97
860.222	39.16
860.391	34.72
860.56	32.89
860.728	21.24
860.897	11.33
861.065	-2.6
861.234	-1.13
861.402	-4.29
861.571	7.76
861.739	10.55
861.908	12.86
862.076	17.48
862.244	18.08
862.413	23.9
862.581	28.21
862.749	29.3
862.918	34.34
863.086	18.43
863.254	28.93
863.423	22.65
863.591	23.24
863.759	14.16
863.927	13.7
864.096	17.2
864.264	17.26
864.432	17.11
864.6	14.86
864.768	19.95
864.936	30.87
865.104	29.5
865.272	40.65
865.44	42.78
865.608	45.2
865.776	59.1
865.944	66.38
866.112	55.03
866.28	52.07
866.448	32.31
866.616	44.64
866.784	21.94
866.952	27.93
867.12	7.1
867.288	18
867.455	12
867.623	13.5
867.791	15.06
867.959	17.25
868.127	19.68
868.294	43.59
868.462	42.42
868.63	56.72
868.797	61.8
868.965	66.61
869.133	53.81
869.3	49.79
869.468	52.57
869.636	54.2
869.803	58.92
869.971	65.85
870.138	67.06
870.306	71.78
870.473	50.7
870.641	47.49
870.808	48.3
870.975	55.7
871.143	63.78
871.31	46.6
871.478	44.65
871.645	48.51
871.812	37.8
871.98	39.85
872.147	25.71
872.314	27.36
872.482	26.4
872.649	20.41
872.816	32.11
872.983	20.59
873.15	22.39
873.318	30.11
873.485	34.15
873.652	37.53
873.819	39.7
873.986	31.99
874.153	35.3
874.32	39.47
874.487	51.05
874.654	38.85
874.821	53.65
874.988	53.04
875.155	30.59
875.322	3.56
875.489	17.17
875.656	17.09
875.823	28.39
875.99	23.79
876.157	-2.77
876.324	4.25
876.49	-7.3
876.657	-12.81
876.824	-15.31
876.991	-1.72
877.157	16.2
877.324	11.13
877.491	12.52
877.658	8.31
877.824	18.33
877.991	32.18
878.157	26.87
878.324	31.47
878.491	38.04
878.657	49.99
878.824	49.85
878.99	43.89
879.157	42.85
879.323	36.8
879.49	40.14
879.656	28.53
879.823	23.82
879.989	25.91
880.156	27.09
880.322	18.56
880.488	18.68
880.655	13.48
880.821	17.56
880.987	15.31
881.154	9.84
881.32	12.34
881.486	-0.18
881.652	7.35
881.819	8.91
881.985	12.55
882.151	15.71
882.317	13.17
882.483	17.92
882.649	15.01
882.816	14.84
882.982	16.24
883.148	15.04
883.314	19.56
883.48	19.3
883.646	19.79
883.812	21.11
883.978	20.59
884.144	21.63
884.31	22.31
884.476	24.14
884.642	25.57
884.807	29.45
884.973	31.74
885.139	32.18
885.305	29.01
885.471	25.16
885.637	24.05
885.802	25.95
885.968	25.06
886.134	22.28
886.3	22.54
886.465	19.57
886.631	15.28
886.797	15.62
886.962	18.77
887.128	24.14
887.293	30.64
887.459	26.97
887.625	24.74
887.79	21.21
887.956	21.34
888.121	20.56
888.287	24.91
888.452	22.19
888.618	20.87
888.783	14.61
