Data from 2938122_Reflection_3.txt Node
Date: Sat Jul 11 17:43:52 EDT 2015
User: robert
Spectrometer: USB4E03001
Autoset integration time: false
Trigger mode: 4
Integration Time (sec): 1.000000E-1
Scans to average: 10
Electric dark correction enabled: true
Nonlinearity correction enabled: false
Boxcar width: 5
Stray light correction enabled: false
XAxis mode: Wavelengths
Stop averaging: false
Number of Pixels in Spectrum: 3648
>>>>>Begin Spectral Data<<<<<
177.566	706.94
177.785	92.04
178.005	89.81
178.225	92.74
178.445	68.17
178.665	157.28
178.885	124.65
179.105	117.18
179.324	84.59
179.544	92.24
179.764	109.04
179.984	143.51
180.204	142.29
180.423	129.3
180.643	502.37
180.863	-596.37
181.083	142.71
181.302	179.86
181.522	176.18
181.742	228.31
181.961	198.76
182.181	183.75
182.401	269.86
182.621	872.56
182.84	444.15
183.06	101.73
183.279	88.73
183.499	123.02
183.719	121.95
183.938	108.93
184.158	161.55
184.377	152.28
184.597	157.37
184.816	155.1
185.036	149.55
185.256	174.85
185.475	212.83
185.695	217.12
185.914	246.36
186.134	212.86
186.353	236.5
186.572	152.59
186.792	161.01
187.011	212.8
187.231	179.86
187.45	149
187.67	142.03
187.889	136.89
188.108	156.56
188.328	165.12
188.547	159.83
188.766	144.36
188.986	163.42
189.205	170.19
189.424	162.38
189.644	194.89
189.863	228.71
190.082	989.22
190.302	269.28
190.521	193.28
190.74	150.2
190.959	-1255.23
191.178	-823.38
191.398	704.67
191.617	256.16
191.836	248.62
192.055	325.82
192.274	300.35
192.494	229.05
192.713	801.94
192.932	619.74
193.151	-7440.21
193.37	-1626.21
193.589	-359.79
193.808	-2389.73
194.027	-1955.32
194.246	1087.56
194.465	20847.46
194.685	2159.83
194.904	-4650.9
195.123	1041.63
195.342	-1334.28
195.561	939.31
195.78	381.15
195.999	317.45
196.218	538.41
196.436	402.23
196.655	288.4
196.874	193.36
197.093	173.11
197.312	144.62
197.531	184.41
197.75	166.07
197.969	156.36
198.188	161.14
198.407	170.99
198.625	160.7
198.844	174.53
199.063	196.86
199.282	227.73
199.501	252.81
199.719	312.48
199.938	135.95
200.157	163.17
200.376	-479.41
200.594	78.58
200.813	99.85
201.032	104.74
201.251	106.04
201.469	49.05
201.688	61.28
201.907	49.69
202.125	41.51
202.344	-6.1
202.563	30.99
202.781	74.08
203	88.27
203.218	85.38
203.437	90.26
203.656	48.13
203.874	89.7
204.093	41.65
204.311	75.19
204.53	82.91
204.748	78.39
204.967	60.83
205.185	47.39
205.404	34.65
205.622	50.23
205.841	57.48
206.059	77.62
206.278	94.7
206.496	132.65
206.715	130.63
206.933	180.31
207.151	334.69
207.37	509.61
207.588	833.66
207.806	561.9
208.025	849.46
208.243	547.36
208.461	428.24
208.68	-173.08
208.898	396.1
209.116	220.27
209.335	173.62
209.553	281.69
209.771	260.99
209.989	554.51
210.208	-1002.3
210.426	-604.3
210.644	-1008.14
210.862	311.41
211.081	234.76
211.299	245.16
211.517	376.48
211.735	341.97
211.953	133.21
212.171	90.21
212.39	86.07
212.608	63.2
212.826	71.2
213.044	53.86
213.262	65.41
213.48	69.02
213.698	75.11
213.916	77.41
214.134	76.07
214.352	91.36
214.57	101.66
214.788	86.81
215.006	91.34
215.224	75.08
215.442	80.58
215.66	82.98
215.878	87.99
216.096	113.06
216.314	119.98
216.532	124.1
216.75	106.36
216.968	129.54
217.185	132.46
217.403	133.86
217.621	191.76
217.839	160.97
218.057	117.44
218.275	85.48
218.492	43.57
218.71	46.91
218.928	43.29
219.146	27.97
219.363	50.68
219.581	31.03
219.799	95.81
220.017	-1181.44
220.234	-51.43
220.452	3.56
220.67	-227.98
220.887	468.63
221.105	472.02
221.323	160.98
221.54	97.42
221.758	69.27
221.976	55.76
222.193	44.09
222.411	29.56
222.629	38.06
222.846	54.89
223.064	58.36
223.281	53.86
223.499	50.89
223.716	62.43
223.934	68.09
224.151	66
224.369	75.2
224.586	83.1
224.804	72.47
225.021	56.79
225.239	41.2
225.456	28
225.674	23.17
225.891	35.4
226.108	21.16
226.326	13.94
226.543	15.1
226.76	9.77
226.978	9.96
227.195	18.88
227.413	28.23
227.63	29.3
227.847	25.41
228.064	24.62
228.282	20.33
228.499	18.44
228.716	19.53
228.934	18.18
229.151	21.05
229.368	18.65
229.585	16.31
229.802	15.04
230.02	14.18
230.237	14.35
230.454	13.75
230.671	10.79
230.888	10.33
231.105	11.79
231.323	10.51
231.54	6.54
231.757	11.26
231.974	13.82
232.191	16.41
232.408	14.74
232.625	18.75
232.842	23.96
233.059	25.99
233.276	29.07
233.493	29.6
233.71	28.35
233.927	29.37
234.144	28.34
234.361	27.9
234.578	24.45
234.795	24.02
235.012	16.97
235.229	10.43
235.446	13.51
235.663	12.75
235.879	10.09
236.096	11.47
236.313	4.3
236.53	2
236.747	3.66
236.964	1.54
237.181	4.94
237.397	10.6
237.614	15.03
237.831	16.31
238.048	22.06
238.264	18.42
238.481	15.23
238.698	18.37
238.915	12.08
239.131	12.13
239.348	11.05
239.565	7.88
239.781	7.26
239.998	7.22
240.215	11.99
240.431	10.03
240.648	10.94
240.865	12.8
241.081	13.66
241.298	15.57
241.514	12.97
241.731	14.05
241.947	14.48
242.164	12.3
242.38	10.99
242.597	6.85
242.814	7.08
243.03	8.65
243.246	9.72
243.463	9.83
243.679	10.22
243.896	11.24
244.112	9.42
244.329	8.16
244.545	11.48
244.762	10.15
244.978	12.43
245.194	13.42
245.411	9.97
245.627	8.05
245.843	7.96
246.06	7.68
246.276	7.06
246.492	8.9
246.709	8.91
246.925	8.31
247.141	9.27
247.357	8.27
247.574	7.21
247.79	8.58
248.006	8.61
248.222	8.84
248.439	7.61
248.655	6.36
248.871	5.77
249.087	6.42
249.303	5.02
249.519	3.99
249.736	4.82
249.952	4.34
250.168	3.91
250.384	5.87
250.6	5.09
250.816	6.33
251.032	10.09
251.248	8.58
251.464	10.27
251.68	10.51
251.896	10.72
252.112	10.82
252.328	10.56
252.544	10.66
252.76	9.23
252.976	10.25
253.192	10.77
253.408	9.99
253.624	11.99
253.84	11.17
254.056	13.37
254.272	15.89
254.487	13.63
254.703	15.76
254.919	14.34
255.135	15.21
255.351	16.53
255.567	17
255.782	19.61
255.998	15.65
256.214	14.31
256.43	13.55
256.646	9.08
256.861	13.61
257.077	14.63
257.293	15.12
257.508	12.22
257.724	7.79
257.94	6.74
258.155	5.95
258.371	7.78
258.587	6.45
258.802	5.7
259.018	5.51
259.234	4.2
259.449	2.86
259.665	1.36
259.88	2.52
260.096	3.13
260.312	3.62
260.527	3.42
260.743	3.27
260.958	3.64
261.174	3.31
261.389	4.01
261.605	3.92
261.82	4.41
262.036	6.03
262.251	4.76
262.466	5.23
262.682	5.23
262.897	4.68
263.113	4.93
263.328	6.01
263.543	8.19
263.759	9.01
263.974	9.14
264.189	8.86
264.405	9.09
264.62	10.41
264.835	9.85
265.051	9.53
265.266	11.01
265.481	8.42
265.696	8.68
265.912	9.89
266.127	8.76
266.342	10.02
266.557	10.03
266.773	9.03
266.988	8.66
267.203	8.52
267.418	10.07
267.633	9.05
267.848	10.13
268.064	9.35
268.279	8.1
268.494	7.9
268.709	7.28
268.924	8.25
269.139	8.63
269.354	8.88
269.569	8.45
269.784	6.15
269.999	6.04
270.214	4.83
270.429	4.47
270.644	5.13
270.859	6.99
271.074	6.1
271.289	5.55
271.504	6.03
271.719	6.68
271.934	6.32
272.149	6.54
272.363	7.31
272.578	7.25
272.793	7.17
273.008	7.43
273.223	6.75
273.438	7.25
273.653	8.74
273.867	8.1
274.082	7.68
274.297	9.42
274.512	10.53
274.726	9.55
274.941	9.9
275.156	11.16
275.371	10.66
275.585	10.78
275.8	10.82
276.015	9.48
276.229	10.99
276.444	10.88
276.659	10.53
276.873	9.8
277.088	10.7
277.302	12.63
277.517	10.79
277.732	10.77
277.946	9.23
278.161	9.47
278.375	8.54
278.59	8.02
278.804	9.26
279.019	8.37
279.233	8.9
279.448	10.05
279.662	9.16
279.877	9.21
280.091	7.14
280.306	9.67
280.52	9.51
280.735	7.78
280.949	7.44
281.163	7
281.378	8.25
281.592	8.63
281.806	7.32
282.021	8.1
282.235	8.18
282.449	8.64
282.664	7.85
282.878	9.05
283.092	10.4
283.307	10.3
283.521	9.71
283.735	8.74
283.949	8.6
284.164	8.08
284.378	8.11
284.592	8.72
284.806	9.54
285.02	9.86
285.234	9.11
285.449	7.15
285.663	7.16
285.877	6.98
286.091	7.68
286.305	6.94
286.519	7.23
286.733	6.88
286.947	7.42
287.161	6.73
287.375	5.28
287.589	5.46
287.803	8.74
288.017	9.51
288.231	10.47
288.445	9.24
288.659	10.1
288.873	11.26
289.087	9.75
289.301	8.03
289.515	10.13
289.729	11.09
289.943	11.32
290.157	10.86
290.371	11.19
290.584	9.63
290.798	10.39
291.012	10.1
291.226	10.1
291.44	11.43
291.654	11.92
291.867	10.54
292.081	9.99
292.295	9.75
292.509	8.78
292.722	5.99
292.936	7.21
293.15	6.36
293.364	7.9
293.577	7.02
293.791	8.08
294.005	8.74
294.218	8.1
294.432	7.31
294.645	7.85
294.859	9.49
295.073	10.21
295.286	10.59
295.5	10.64
295.713	9.41
295.927	9.77
296.14	9.17
296.354	9.32
296.568	9.64
296.781	11.48
296.994	10.64
297.208	10.65
297.421	11.7
297.635	10.35
297.848	10.18
298.062	10.37
298.275	9.87
298.489	9.65
298.702	10.33
298.915	10.47
299.129	9.37
299.342	9.14
299.555	8.06
299.769	7.57
299.982	10.03
300.195	11.16
300.409	11.61
300.622	11.49
300.835	11.45
301.048	11.05
301.262	10.69
301.475	11.07
301.688	12.53
301.901	12.37
302.115	12.71
302.328	12.32
302.541	13.72
302.754	14
302.967	15.92
303.18	15.81
303.393	15.74
303.607	17.2
303.82	17.23
304.033	16.22
304.246	17.27
304.459	17.57
304.672	17.25
304.885	15.62
305.098	15.33
305.311	13.48
305.524	13.6
305.737	13.5
305.95	13.79
306.163	12.02
306.376	12.02
306.589	10.27
306.802	8.86
307.015	9.07
307.228	7.48
307.44	6.74
307.653	8.66
307.866	8.73
308.079	8.95
308.292	6.49
308.505	6.96
308.718	8.14
308.93	9.31
309.143	8.51
309.356	7.88
309.569	9.23
309.781	10.31
309.994	9.91
310.207	12.36
310.42	10.67
310.632	11.23
310.845	11.14
311.058	11.71
311.27	10.68
311.483	12.26
311.696	11.49
311.908	12.33
312.121	11.99
312.333	12.38
312.546	10.26
312.759	12.26
312.971	12.4
313.184	11.92
313.396	10.23
313.609	12.24
313.821	12.91
314.034	13.88
314.246	12.83
314.459	12.58
314.671	12.05
314.884	11.04
315.096	10.54
315.309	10.5
315.521	13.2
315.733	13.3
315.946	12
316.158	10.75
316.371	10.3
316.583	10.63
316.795	9.81
317.008	9.19
317.22	11.94
317.432	12.58
317.644	13.51
317.857	13.88
318.069	14.49
318.281	16.27
318.494	16.3
318.706	16.89
318.918	17.39
319.13	18.47
319.342	20.48
319.555	19.65
319.767	19.61
319.979	18.47
320.191	17.03
320.403	18.3
320.615	16.62
320.827	16.92
321.039	17.8
321.252	15.97
321.464	15.79
321.676	15.26
321.888	15.16
322.1	14.74
322.312	14.68
322.524	13.38
322.736	11.66
322.948	11.7
323.16	11.49
323.372	10.95
323.584	11.81
323.796	13.31
324.007	11.35
324.219	10.55
324.431	9.48
324.643	11.39
324.855	12.18
325.067	12.95
325.279	13.46
325.491	13.82
325.702	13.08
325.914	12.87
326.126	10.98
326.338	11.87
326.55	12.54
326.761	14.25
326.973	13.74
327.185	14.24
327.396	12.47
327.608	11.52
327.82	11.52
328.032	12.96
328.243	12.16
328.455	12.95
328.666	13.3
328.878	11.5
329.09	10.78
329.301	8.65
329.513	8.94
329.725	10.08
329.936	12.07
330.148	13.47
330.359	12.91
330.571	13.78
330.782	12.31
330.994	13.29
331.205	14.61
331.417	15.07
331.628	15.95
331.84	14.42
332.051	15.9
332.262	17.74
332.474	17.11
332.685	17.18
332.897	17.59
333.108	18.51
333.319	18.83
333.531	19.21
333.742	19.1
333.953	19.71
334.165	21.49
334.376	22.24
334.587	19.02
334.799	19.29
335.01	18.94
335.221	19.36
335.432	19.98
335.644	19.85
335.855	19.58
336.066	18.67
336.277	17.82
336.488	16.69
336.7	15.35
336.911	16.4
337.122	15.82
337.333	16.24
337.544	16.56
337.755	16.93
337.966	15.97
338.177	15.82
338.388	16.04
338.599	16.56
338.811	15.82
339.022	15.37
339.233	15.8
339.444	15.96
339.655	15.84
339.866	14.99
340.076	13.66
340.287	13.66
340.498	13.73
340.709	13.86
340.92	14.21
341.131	15.07
341.342	15.63
341.553	17.04
341.764	17.42
341.975	18.38
342.185	19.17
342.396	19.71
342.607	19.99
342.818	20.2
343.029	20.31
343.239	19.88
343.45	20.5
343.661	21.73
343.872	19.95
344.082	19.43
344.293	19.56
344.504	19.58
344.714	19.36
344.925	19.71
345.136	19.11
345.346	19.76
345.557	20.77
345.768	20.49
345.978	20.04
346.189	20.9
346.399	21.92
346.61	21.29
346.821	20.53
347.031	19.7
347.242	18.87
347.452	19.35
347.663	19.18
347.873	18.49
348.084	18.25
348.294	18.16
348.504	17.98
348.715	16.98
348.925	17.17
349.136	16.76
349.346	17.36
349.557	17.58
349.767	18.58
349.977	17.8
350.188	17.16
350.398	17.82
350.608	16.11
350.819	14.8
351.029	14.78
351.239	14.81
351.449	16.46
351.66	17.55
351.87	17.45
352.08	18.18
352.29	18.72
352.501	20
352.711	20.52
352.921	21.59
353.131	22.32
353.341	22.46
353.552	21.25
353.762	20.01
353.972	20.38
354.182	19.71
354.392	18.57
354.602	19.32
354.812	19.14
355.022	17.49
355.232	16.13
355.442	17.61
355.652	18.38
355.862	19.17
356.072	18.65
356.282	18.08
356.492	19.45
356.702	20.25
356.912	20.08
357.122	19.9
357.332	21.67
357.542	22.35
357.752	20.76
357.962	19.07
358.171	19.07
358.381	21.28
358.591	20.33
358.801	20.03
359.011	19.22
359.221	19.37
359.43	18.97
359.64	17.9
359.85	18.16
360.06	18.93
360.269	19.76
360.479	19.95
360.689	18.49
360.899	18.9
361.108	18.7
361.318	18.86
361.528	18.39
361.737	18.03
361.947	17.81
362.156	17.71
362.366	18.37
362.576	17.81
362.785	17.68
362.995	18.26
363.204	17.98
363.414	17.84
363.623	17.44
363.833	17.83
364.042	18.67
364.252	18.67
364.461	19.21
364.671	17.9
364.88	19.04
365.09	18.43
365.299	17.96
365.509	18.76
365.718	18.65
365.927	19.15
366.137	19.23
366.346	19.28
366.555	19.16
366.765	18.11
366.974	18.38
367.183	18.2
367.393	19.04
367.602	19.34
367.811	19.6
368.021	19.96
368.23	19.18
368.439	18.89
368.648	19.02
368.857	20.36
369.067	21.2
369.276	20.97
369.485	21
369.694	21.23
369.903	21.64
370.112	21.69
370.321	21.82
370.531	22.15
370.74	22.34
370.949	22.94
371.158	22.54
371.367	22.31
371.576	22.96
371.785	22.72
371.994	22.28
372.203	21.83
372.412	21.26
372.621	21.89
372.83	21.79
373.039	21.41
373.248	19.91
373.457	19.55
373.666	20.13
373.874	19.38
374.083	19.85
374.292	20.16
374.501	19.88
374.71	20.16
374.919	19.43
375.128	20.02
375.336	20.22
375.545	21.34
375.754	21.64
375.963	20.58
376.171	21
376.38	21.06
376.589	21.14
376.798	20.76
377.006	21.01
377.215	20.97
377.424	20.62
377.632	20.77
377.841	20.4
378.05	20.04
378.258	20.43
378.467	20.28
378.675	20.12
378.884	19.46
379.093	20.09
379.301	20.11
379.51	20.29
379.718	20.48
379.927	19.91
380.135	20.17
380.344	20.51
380.552	21.07
380.761	20.97
380.969	20.92
381.177	21.26
381.386	21.61
381.594	20.65
381.803	20.54
382.011	20.94
382.219	21.39
382.428	21.06
382.636	20.33
382.845	19.67
383.053	19.93
383.261	19.42
383.469	19.34
383.678	19.07
383.886	20.14
384.094	20.63
384.302	20.51
384.511	20.72
384.719	20.72
384.927	20.85
385.135	21.44
385.343	21.7
385.552	22.49
385.76	22.45
385.968	22.51
386.176	22.45
386.384	21.87
386.592	21.34
386.8	21.43
387.008	21.48
387.216	22.19
387.424	22.11
387.633	21.99
387.841	21.78
388.049	21.41
388.257	21.53
388.465	21.26
388.672	21.36
388.88	21.98
389.088	21.51
389.296	21.23
389.504	21.08
389.712	21.3
389.92	21.27
390.128	21.56
390.336	22.66
390.544	22.37
390.751	22.37
390.959	22.16
391.167	22
391.375	22.25
391.583	22.73
391.79	22.51
391.998	22.27
392.206	22.38
392.414	22.06
392.621	21.83
392.829	21.91
393.037	22.14
393.244	22.55
393.452	22.62
393.66	22.94
393.867	22.67
394.075	22.73
394.283	22.87
394.49	22.64
394.698	22.88
394.905	22.66
395.113	23.02
395.32	23.32
395.528	23.61
395.735	23.53
395.943	23.45
396.15	23.83
396.358	24.19
396.565	24.47
396.773	25
396.98	25.32
397.188	25.43
397.395	25.11
397.602	24.9
397.81	24.94
398.017	25.21
398.225	25.19
398.432	25.49
398.639	25.39
398.847	25.5
399.054	25.16
399.261	24.97
399.468	25.2
399.676	25.58
399.883	25.42
400.09	24.93
400.297	24.91
400.505	25.08
400.712	24.7
400.919	24.79
401.126	24.67
401.333	24.81
401.54	24.82
401.748	24.68
401.955	24.21
402.162	24.67
402.369	25.08
402.576	25.42
402.783	25.46
402.99	25.84
403.197	25.92
403.404	25.79
403.611	25.96
403.818	26.3
404.025	26.3
404.232	26.77
404.439	26.61
404.646	26.82
404.853	26.74
405.06	26.82
405.267	26.65
405.474	26.82
405.681	26.96
405.887	27.01
406.094	26.87
406.301	27.11
406.508	26.89
406.715	27
406.922	26.91
407.128	27.02
407.335	26.75
407.542	27.03
407.749	26.72
407.955	27.05
408.162	27.1
408.369	26.91
408.575	26.75
408.782	26.97
408.989	27.05
409.195	27.11
409.402	26.86
409.609	27.1
409.815	26.94
410.022	27.27
410.228	27.28
410.435	27.37
410.642	27.43
410.848	27.72
411.055	27.97
411.261	27.97
411.468	28.18
411.674	28.35
411.881	28.3
412.087	27.89
412.294	27.8
412.5	27.49
412.706	27.53
412.913	27.75
413.119	27.59
413.326	27.33
413.532	27.21
413.738	27.17
413.945	27.19
414.151	27.21
414.357	27.51
414.564	27.49
414.77	27.64
414.976	27.67
415.182	27.47
415.389	27.31
415.595	27.2
415.801	26.83
416.007	26.77
416.214	26.44
416.42	26.28
416.626	26.24
416.832	26.31
417.038	26.21
417.244	26.14
417.45	26.05
417.657	25.97
417.863	26.25
418.069	26.57
418.275	26.52
418.481	26.53
418.687	26.48
418.893	26.33
419.099	26.24
419.305	26.03
419.511	25.87
419.717	25.79
419.923	25.88
420.129	25.62
420.335	25.67
420.541	25.58
420.746	25.55
420.952	25.72
421.158	25.86
421.364	25.76
421.57	25.99
421.776	25.96
421.982	26.12
422.187	26.09
422.393	26.08
422.599	25.86
422.805	25.83
423.01	25.91
423.216	25.88
423.422	25.74
423.628	25.86
423.833	25.66
424.039	25.66
424.245	25.55
424.45	25.61
424.656	25.69
424.862	25.75
425.067	25.77
425.273	25.82
425.478	25.72
425.684	25.84
425.889	25.76
426.095	25.8
426.301	25.92
426.506	26.07
426.712	26.08
426.917	26.13
427.123	25.96
427.328	26.14
427.533	26.16
427.739	26.22
427.944	26.07
428.15	26.1
428.355	25.93
428.561	25.83
428.766	25.66
428.971	25.62
429.177	25.78
429.382	25.9
429.587	25.58
429.793	25.5
429.998	25.4
430.203	25.47
430.408	25.46
430.614	25.73
430.819	25.69
431.024	25.91
431.229	25.93
431.434	25.65
431.64	25.75
431.845	25.91
432.05	25.92
432.255	25.95
432.46	25.86
432.665	25.91
432.87	25.93
433.076	25.96
433.281	25.69
433.486	25.57
433.691	25.78
433.896	25.75
434.101	25.7
434.306	25.76
434.511	25.88
434.716	25.98
434.921	26.07
435.126	26.08
435.331	26.13
435.535	26.14
435.74	26.39
435.945	26.34
436.15	26.46
436.355	26.43
436.56	26.45
436.765	26.45
436.97	26.53
437.174	26.36
437.379	26.41
437.584	26.43
437.789	26.66
437.993	26.62
438.198	26.64
438.403	26.39
438.608	26.35
438.812	26.11
439.017	25.9
439.222	25.8
439.426	25.65
439.631	25.62
439.836	25.45
440.04	25.22
440.245	25.24
440.45	25.09
440.654	25.05
440.859	25.01
441.063	25.01
441.268	25.15
441.472	25.27
441.677	25.47
441.881	25.49
442.086	25.42
442.29	25.61
442.495	25.51
442.699	25.52
442.904	25.6
443.108	25.79
443.312	25.85
443.517	25.82
443.721	25.58
443.925	25.46
444.13	25.39
444.334	25.56
444.538	25.24
444.743	25.15
444.947	25.21
445.151	25.2
445.356	25.09
445.56	25.07
445.764	25.05
445.968	25.2
446.173	25.17
446.377	25.13
446.581	25.08
446.785	25.3
446.989	25.26
447.193	25.17
447.398	25.11
447.602	24.98
447.806	25.17
448.01	25.31
448.214	25.27
448.418	25.33
448.622	25.33
448.826	25.34
449.03	25.27
449.234	25.39
449.438	25.38
449.642	25.64
449.846	25.84
450.05	25.65
450.254	25.4
450.458	25.31
450.662	25.13
450.866	25.12
451.069	25.38
451.273	25.33
451.477	25.19
451.681	25.15
451.885	25.03
452.089	24.84
452.292	24.79
452.496	24.8
452.7	24.68
452.904	24.79
453.107	24.69
453.311	24.48
453.515	24.41
453.719	24.49
453.922	24.68
454.126	24.56
454.33	24.77
454.533	24.83
454.737	24.89
454.94	24.96
455.144	25.17
455.348	25.34
455.551	25.4
455.755	25.59
455.958	25.64
456.162	25.61
456.365	25.66
456.569	25.62
456.772	25.59
456.976	25.71
457.179	25.68
457.383	25.49
457.586	25.4
457.79	25.24
457.993	25.22
458.196	25.12
458.4	25.18
458.603	25.22
458.807	25.18
459.01	25.3
459.213	25.26
459.417	25.45
459.62	25.44
459.823	25.57
460.026	25.57
460.23	25.51
460.433	25.58
460.636	25.49
460.839	25.56
461.042	25.6
461.246	25.5
461.449	25.45
461.652	25.36
461.855	25.42
462.058	25.42
462.261	25.51
462.464	25.52
462.668	25.63
462.871	25.63
463.074	25.56
463.277	25.49
463.48	25.65
463.683	25.76
463.886	25.74
464.089	25.82
464.292	25.76
464.495	25.86
464.698	25.95
464.901	25.87
465.104	25.9
465.306	25.93
465.509	26.08
465.712	25.93
465.915	25.98
466.118	25.93
466.321	26.01
466.524	25.83
466.726	25.7
466.929	25.75
467.132	25.73
467.335	25.87
467.538	25.97
467.74	26.07
467.943	26.11
468.146	26.18
468.348	26.29
468.551	26.18
468.754	26.41
468.956	26.45
469.159	26.49
469.362	26.57
469.564	26.65
469.767	26.56
469.969	26.53
470.172	26.58
470.375	26.53
470.577	26.62
470.78	26.64
470.982	26.65
471.185	26.78
471.387	26.69
471.59	26.52
471.792	26.57
471.995	26.59
472.197	26.41
472.399	26.47
472.602	26.48
472.804	26.57
473.007	26.61
473.209	26.61
473.411	26.57
473.614	26.49
473.816	26.62
474.018	26.53
474.22	26.55
474.423	26.65
474.625	26.63
474.827	26.47
475.03	26.11
475.232	26.01
475.434	26.06
475.636	26.1
475.838	26.22
476.04	26.3
476.243	26.24
476.445	26.46
476.647	26.4
476.849	26.45
477.051	26.45
477.253	26.67
477.455	26.62
477.657	26.54
477.859	26.44
478.061	26.42
478.263	26.34
478.465	26.34
478.667	26.28
478.869	26.43
479.071	26.32
479.273	26.15
479.475	26.05
479.677	26.15
479.879	26.02
480.081	25.92
480.283	25.94
480.485	25.99
480.686	26
480.888	25.76
481.09	25.59
481.292	25.54
481.494	25.76
481.695	25.86
481.897	25.87
482.099	25.86
482.301	25.93
482.502	25.8
482.704	25.64
482.906	25.57
483.107	25.59
483.309	25.67
483.511	25.68
483.712	25.61
483.914	25.59
484.115	25.56
484.317	25.55
484.519	25.45
484.72	25.53
484.922	25.63
485.123	25.66
485.325	25.66
485.526	25.62
485.728	25.61
485.929	25.66
486.131	25.59
486.332	25.59
486.534	25.67
486.735	25.72
486.936	25.66
487.138	25.59
487.339	25.59
487.541	25.57
487.742	25.57
487.943	25.56
488.144	25.58
488.346	25.7
488.547	25.7
488.748	25.78
488.95	25.84
489.151	25.86
489.352	25.92
489.553	25.88
489.755	25.98
489.956	25.95
490.157	25.99
490.358	25.88
490.559	25.81
490.76	25.79
490.961	25.61
491.163	25.67
491.364	25.72
491.565	25.69
491.766	25.79
491.967	25.81
492.168	25.77
492.369	25.79
492.57	25.89
492.771	25.78
492.972	25.78
493.173	25.82
493.374	25.79
493.575	25.75
493.776	25.9
493.976	25.91
494.177	25.96
494.378	26.13
494.579	26.19
494.78	26.33
494.981	26.54
495.182	26.68
495.382	26.74
495.583	26.67
495.784	26.78
495.985	26.67
496.185	26.65
496.386	26.57
496.587	26.55
496.788	26.52
496.988	26.51
497.189	26.46
497.39	26.34
497.59	26.43
497.791	26.53
497.992	26.48
498.192	26.44
498.393	26.39
498.593	26.45
498.794	26.5
498.994	26.45
499.195	26.26
499.395	26.23
499.596	26.18
499.796	26.08
499.997	26.06
500.197	26.02
500.398	25.94
500.598	25.93
500.799	25.77
500.999	25.63
501.199	25.44
501.4	25.59
501.6	25.69
501.801	25.77
502.001	25.74
502.201	25.81
502.402	25.79
502.602	25.98
502.802	26
503.002	26.08
503.203	26.08
503.403	26.22
503.603	26.18
503.803	26.21
504.003	26.27
504.204	26.15
504.404	26.14
504.604	26.26
504.804	26.07
505.004	25.99
505.204	26.11
505.404	26.15
505.604	26.15
505.804	26.1
506.005	26.03
506.205	26.05
506.405	26.26
506.605	26.25
506.805	26.21
507.005	26.27
507.204	26.47
507.404	26.25
507.604	26.18
507.804	26.31
508.004	26.38
508.204	26.43
508.404	26.34
508.604	26.21
508.804	26.23
509.003	26.17
509.203	26.17
509.403	26.01
509.603	26.12
509.803	26.23
510.002	26.21
510.202	26.21
510.402	26.31
510.602	26.22
510.801	26.29
511.001	26.17
511.201	26.28
511.4	26.3
511.6	26.37
511.8	26.37
511.999	26.47
512.199	26.4
512.398	26.31
512.598	26.16
512.797	26.18
512.997	26.22
513.197	26.28
513.396	26.17
513.596	26.1
513.795	26.14
513.994	26.14
514.194	25.98
514.393	25.98
514.593	26
514.792	25.94
514.992	25.99
515.191	25.91
515.39	25.96
515.59	25.9
515.789	26.07
515.988	26.01
516.188	25.95
516.387	25.86
516.586	25.79
516.786	25.69
516.985	25.77
517.184	25.69
517.383	25.86
517.582	25.8
517.782	25.81
517.981	25.68
518.18	25.67
518.379	25.73
518.578	25.74
518.777	25.94
518.976	26.06
519.176	26.05
519.375	26.26
519.574	26.09
519.773	26.07
519.972	26.17
520.171	26.24
520.37	26.29
520.569	26.27
520.768	26.5
520.967	26.56
521.166	26.72
521.365	26.75
521.564	26.72
521.762	26.81
521.961	26.95
522.16	26.99
522.359	26.97
522.558	26.86
522.757	26.94
522.956	26.83
523.154	26.68
523.353	26.56
523.552	26.57
523.751	26.5
523.949	26.63
524.148	26.59
524.347	26.58
524.546	26.47
524.744	26.38
524.943	26.39
525.142	26.19
525.34	26.1
525.539	26.07
525.737	25.94
525.936	25.95
526.135	25.78
526.333	25.66
526.532	25.55
526.73	25.54
526.929	25.62
527.127	25.49
527.326	25.57
527.524	25.63
527.723	25.58
527.921	25.6
528.12	25.67
528.318	25.7
528.516	25.72
528.715	25.72
528.913	25.77
529.112	25.78
529.31	25.82
529.508	25.83
529.707	25.81
529.905	25.83
530.103	25.85
530.301	25.81
530.5	25.77
530.698	25.8
530.896	25.86
531.094	25.92
531.293	25.83
531.491	25.92
531.689	25.9
531.887	25.92
532.085	25.94
532.283	25.93
532.481	25.77
532.68	25.82
532.878	25.8
533.076	25.8
533.274	25.69
533.472	25.79
533.67	25.8
533.868	25.79
534.066	25.71
534.264	25.76
534.462	25.82
534.66	26.01
534.858	26.11
535.056	26.16
535.253	26.14
535.451	26.26
535.649	26.31
535.847	26.19
536.045	26.24
536.243	26.25
536.441	26.25
536.638	26.38
536.836	26.34
537.034	26.27
537.232	26.19
537.43	26.32
537.627	26.26
537.825	26.07
538.023	26.22
538.22	26.29
538.418	26.55
538.616	26.65
538.813	26.54
539.011	26.66
539.209	26.57
539.406	26.72
539.604	26.64
539.801	26.69
539.999	26.88
540.196	26.73
540.394	26.7
540.591	26.67
540.789	26.68
540.986	26.77
541.184	26.69
541.381	26.86
541.579	26.91
541.776	26.93
541.974	26.98
542.171	27.07
542.368	27.22
542.566	27.31
542.763	27.29
542.96	27.47
543.158	27.49
543.355	27.55
543.552	27.75
543.75	27.91
543.947	28.19
544.144	28.33
544.341	28.63
544.539	28.88
544.736	29.06
544.933	29.34
545.13	29.34
545.327	29.67
545.524	29.89
545.722	29.72
545.919	29.75
546.116	29.68
546.313	29.73
546.51	29.39
546.707	29.27
546.904	29.18
547.101	28.96
547.298	28.74
547.495	28.49
547.692	28.35
547.889	28.44
548.086	28.26
548.283	28.27
548.48	28.06
548.677	28.06
548.874	28.03
549.07	27.94
549.267	27.96
549.464	28.14
549.661	27.99
549.858	28.08
550.055	27.86
550.251	27.88
550.448	27.75
550.645	27.75
550.842	27.7
551.038	27.45
551.235	27.61
551.432	27.6
551.628	27.45
551.825	27.48
552.022	27.29
552.218	27.17
552.415	27.2
552.612	27.02
552.808	27.19
553.005	27.01
553.201	27.05
553.398	26.86
553.594	26.93
553.791	27.12
553.987	27.2
554.184	27.31
554.38	27.37
554.577	27.27
554.773	27.58
554.97	27.36
555.166	27.59
555.362	27.46
555.559	27.56
555.755	27.62
555.952	27.46
556.148	27.32
556.344	27.25
556.541	27.4
556.737	27.54
556.933	27.21
557.129	27.44
557.326	27.38
557.522	27.57
557.718	27.71
557.914	27.76
558.11	27.79
558.307	27.98
558.503	28.24
558.699	28.1
558.895	28.04
559.091	28.19
559.287	28.25
559.483	28.37
559.679	28.35
559.876	28.33
560.072	28.2
560.268	28
560.464	27.91
560.66	27.61
560.856	27.76
561.052	27.86
561.247	28.01
561.443	27.69
561.639	27.65
561.835	27.67
562.031	27.48
562.227	27.45
562.423	27.52
562.619	27.6
562.815	27.69
563.01	27.67
563.206	27.45
563.402	27.15
563.598	27.32
563.793	27.23
563.989	27.37
564.185	27.45
564.381	27.41
564.576	27.43
564.772	27.35
564.968	27.29
565.163	27.11
565.359	27.1
565.555	27.08
565.75	27.09
565.946	27.03
566.141	26.89
566.337	26.84
566.532	26.83
566.728	26.87
566.923	27.04
567.119	27.22
567.314	27.46
567.51	27.54
567.705	27.61
567.901	27.44
568.096	27.67
568.292	27.56
568.487	27.61
568.682	27.64
568.878	27.64
569.073	27.27
569.268	27.24
569.464	27.2
569.659	27.43
569.854	27.48
570.05	27.67
570.245	27.63
570.44	27.7
570.635	27.84
570.831	27.78
571.026	27.86
571.221	27.98
571.416	27.69
571.611	27.65
571.806	27.46
572.002	27.52
572.197	27.3
572.392	27.31
572.587	27.42
572.782	27.25
572.977	27.34
573.172	27.2
573.367	27.35
573.562	27.6
573.757	27.56
573.952	27.55
574.147	27.47
574.342	27.75
574.537	27.82
574.732	27.77
574.927	27.8
575.121	27.76
575.316	27.83
575.511	27.83
575.706	27.85
575.901	27.84
576.096	27.8
576.29	27.89
576.485	27.75
576.68	27.54
576.875	27.5
577.069	27.49
577.264	27.84
577.459	27.95
577.654	27.93
577.848	27.81
578.043	27.74
578.238	28
578.432	28.03
578.627	28.33
578.821	28.57
579.016	28.76
579.21	28.9
579.405	28.8
579.6	28.84
579.794	28.95
579.989	29.14
580.183	29.41
580.378	29.46
580.572	29.55
580.766	29.47
580.961	29.63
581.155	29.67
581.35	29.62
581.544	29.47
581.738	29.35
581.933	29.31
582.127	29.3
582.321	29.16
582.516	29.02
582.71	29.16
582.904	29.13
583.099	29.06
583.293	29.07
583.487	29.31
583.681	29.54
583.875	29.69
584.07	29.64
584.264	29.88
584.458	30.12
584.652	30.1
584.846	29.99
585.04	29.95
585.234	29.84
585.428	30.13
585.623	29.79
585.817	29.9
586.011	30.11
586.205	30.22
586.399	29.73
586.593	29.55
586.787	29.79
586.981	29.93
587.174	29.96
587.368	29.82
587.562	29.69
587.756	29.72
587.95	29.34
588.144	28.98
588.338	28.92
588.532	29.16
588.725	29.38
588.919	29.31
589.113	29.21
589.307	29.27
589.501	29.41
589.694	29.48
589.888	29.39
590.082	29.41
590.275	29.54
590.469	29.51
590.663	29.52
590.856	29.26
591.05	29.18
591.244	29.26
591.437	29.37
591.631	29.41
591.824	29.22
592.018	29.41
592.212	29.43
592.405	29.32
592.599	29.39
592.792	29.2
592.986	29.59
593.179	29.63
593.372	29.54
593.566	29.48
593.759	29.35
593.953	29.61
594.146	29.54
594.339	29.73
594.533	29.75
594.726	29.65
594.92	29.7
595.113	29.35
595.306	29.17
595.499	28.84
595.693	28.53
595.886	28.7
596.079	28.54
596.272	28.59
596.466	28.43
596.659	28.42
596.852	28.47
597.045	28.6
597.238	28.6
597.431	28.68
597.624	28.84
597.818	29.05
598.011	29.13
598.204	29
598.397	29.05
598.59	28.93
598.783	28.87
598.976	28.79
599.169	28.99
599.362	29.01
599.555	29.3
599.748	29.46
599.941	29.6
600.134	29.48
600.326	29.58
600.519	29.67
600.712	29.58
600.905	29.77
601.098	30.1
601.291	30.11
601.483	30.07
601.676	29.86
601.869	29.92
602.062	29.45
602.255	29.49
602.447	29.35
602.64	29.26
602.833	29.56
603.025	29.65
603.218	29.17
603.411	28.72
603.603	28.7
603.796	28.67
603.989	28.48
604.181	28.59
604.374	28.53
604.566	28.63
604.759	28.73
604.951	28.73
605.144	28.63
605.336	28.84
605.529	29.02
605.721	29.08
605.914	29.16
606.106	29.33
606.299	29.54
606.491	29.65
606.683	29.5
606.876	29.45
607.068	29.43
607.26	29.52
607.453	29.4
607.645	29.53
607.837	29.44
608.03	29.72
608.222	29.93
608.414	30.26
608.606	30.52
608.799	31.06
608.991	31.43
609.183	31.67
609.375	32.34
609.567	32.99
609.759	33.69
609.952	34.64
610.144	35.02
610.336	35.56
610.528	35.94
610.72	36.25
610.912	36.49
611.104	36.79
611.296	37.17
611.488	37.17
611.68	37.14
611.872	36.83
612.064	36.25
612.256	36.08
612.448	35.73
612.64	35.48
612.832	35.32
613.023	35.22
613.215	34.85
613.407	34.54
613.599	34.17
613.791	33.99
613.983	33.75
614.174	33.97
614.366	33.88
614.558	33.46
614.75	33.48
614.941	33.22
615.133	32.85
615.325	32.91
615.516	32.74
615.708	32.61
615.9	32.61
616.091	32.45
616.283	31.91
616.475	31.63
616.666	31.74
616.858	31.56
617.049	31.51
617.241	31.64
617.432	31.53
617.624	31.63
617.815	31.73
618.007	31.54
618.198	31.53
618.39	31.8
618.581	31.86
618.773	31.75
618.964	31.58
619.155	31.67
619.347	31.56
619.538	31.46
619.729	31.23
619.921	31.16
620.112	31.29
620.303	31.11
620.494	30.98
620.686	30.81
620.877	30.83
621.068	30.88
621.259	30.95
621.451	31.01
621.642	31.33
621.833	31.52
622.024	31.24
622.215	31
622.406	31.17
622.597	31.2
622.788	31.16
622.98	31.34
623.171	31.26
623.362	30.86
623.553	30.71
623.744	30.48
623.935	30.72
624.126	30.84
624.317	30.84
624.508	30.76
624.698	30.49
624.889	30.39
625.08	30.23
625.271	30.24
625.462	30.37
625.653	30.21
625.844	30.3
626.034	30.17
626.225	30.01
626.416	29.99
626.607	29.86
626.798	29.87
626.988	30.05
627.179	30.05
627.37	30.13
627.56	30.16
627.751	30.36
627.942	30.21
628.132	30.17
628.323	30.37
628.514	30.48
628.704	30.87
628.895	31.15
629.085	31.16
629.276	31.05
629.466	30.94
629.657	30.79
629.847	30.81
630.038	31.14
630.228	31.32
630.419	31.37
630.609	31.33
630.8	30.94
630.99	30.68
631.181	30.48
631.371	30.56
631.561	30.27
631.752	30.5
631.942	30.35
632.132	30.05
632.323	29.74
632.513	29.55
632.703	29.15
632.893	29.46
633.084	29.34
633.274	29.21
633.464	29.13
633.654	29.49
633.844	29.22
634.034	29.44
634.225	29.36
634.415	29.15
634.605	29.2
634.795	29.24
634.985	28.79
635.175	29.27
635.365	29.5
635.555	29.3
635.745	29.3
635.935	29.72
636.125	29.42
636.315	29.24
636.505	29.27
636.695	29.37
636.885	29.99
637.075	30.33
637.265	29.96
637.455	29.9
637.644	29.93
637.834	29.91
638.024	29.71
638.214	30.22
638.404	30.42
638.593	30.5
638.783	30.25
638.973	29.89
639.163	29.87
639.352	29.95
639.542	30.06
639.732	30.51
639.921	30.51
640.111	30.8
640.301	30.52
640.49	30.6
640.68	30.82
640.87	31.02
641.059	31.11
641.249	31.12
641.438	31.53
641.628	31.51
641.817	31.57
642.007	31.44
642.196	31.21
642.386	31.6
642.575	31.9
642.764	31.8
642.954	32.05
643.143	31.99
643.333	32.22
643.522	32.01
643.711	32
643.901	31.77
644.09	31.84
644.279	31.97
644.469	30.94
644.658	30.99
644.847	30.74
645.036	30.35
645.226	30.91
645.415	30.98
645.604	30.78
645.793	30.51
645.982	30.42
646.171	30.53
646.361	30.31
646.55	30.68
646.739	30.31
646.928	30.54
647.117	31.14
647.306	30.86
647.495	30.33
647.684	30.7
647.873	30.81
648.062	30.85
648.251	30.97
648.44	31.19
648.629	31.4
648.818	31.08
649.007	31.08
649.196	30.46
649.384	30.71
649.573	31.1
649.762	30.99
649.951	30.96
650.14	30.92
650.328	30.57
650.517	30.12
650.706	30.01
650.895	30.27
651.083	30.35
651.272	30.75
651.461	30.72
651.65	30.53
651.838	30
652.027	30.14
652.216	30.24
652.404	30.07
652.593	30.33
652.781	30.4
652.97	30.3
653.158	30.06
653.347	29.32
653.535	29.13
653.724	29.19
653.912	29.6
654.101	29.48
654.289	29.11
654.478	29.5
654.666	29.18
654.855	29.57
655.043	29.74
655.231	29.78
655.42	30.05
655.608	29.71
655.796	30.26
655.985	30.16
656.173	30.26
656.361	30.68
656.55	30.43
656.738	30.67
656.926	30.07
657.114	29.87
657.302	29.73
657.491	29.96
657.679	29.84
657.867	29.06
658.055	29.18
658.243	29.25
658.431	29.23
658.619	29.54
658.807	29.42
658.996	29.4
659.184	29.58
659.372	29.66
659.56	29.53
659.748	29.69
659.936	29.94
660.124	29.96
660.311	30.33
660.499	30.32
660.687	30.22
660.875	30.29
661.063	30.56
661.251	30.52
661.439	30.82
661.627	30.92
661.814	31.36
662.002	31.92
662.19	32.3
662.378	31.93
662.565	32.17
662.753	32.46
662.941	32.51
663.129	33.02
663.316	33.12
663.504	32.95
663.692	33.13
663.879	32.69
664.067	32.08
664.254	31.35
664.442	31.46
664.63	31.55
664.817	31.49
665.005	31.61
665.192	30.87
665.38	30.89
665.567	30.79
665.755	31.12
665.942	31.12
666.13	31.46
666.317	32.02
666.504	31.57
666.692	31.36
666.879	30.89
667.067	30.89
667.254	31.28
667.441	31.23
667.629	31.31
667.816	30.82
668.003	30.99
668.19	30.54
668.378	30.29
668.565	30.61
668.752	30.76
668.939	30.6
669.127	30.59
669.314	30.5
669.501	30.38
669.688	30.43
669.875	31.09
670.062	31.26
670.249	31.04
670.436	30.89
670.623	30.79
670.81	30.42
670.997	30.46
671.184	30.12
671.371	30.14
671.558	30.44
671.745	30.51
671.932	29.77
672.119	29.42
672.306	30.38
672.493	30.37
672.68	30.69
672.867	30.92
673.054	31.21
673.24	31.13
673.427	31.6
673.614	31.62
673.801	31.62
673.988	31.65
674.174	32.08
674.361	31.71
674.548	31.94
674.734	31.58
674.921	31.38
675.108	31.51
675.294	31.96
675.481	31.34
675.668	30.81
675.854	31.1
676.041	31.35
676.227	30.87
676.414	30.78
676.601	30.78
676.787	31.02
676.974	30.86
677.16	30.73
677.347	30.73
677.533	30.87
677.719	31.16
677.906	31.04
678.092	31.15
678.279	31.23
678.465	31.23
678.651	30.96
678.838	30.81
679.024	30.76
679.21	30.89
679.397	31.05
679.583	30.9
679.769	31.15
679.955	31.1
680.142	30.53
680.328	30.73
680.514	30.43
680.7	30.73
680.886	30.82
681.073	31.29
681.259	31.25
681.445	31.13
681.631	31.02
681.817	30.15
682.003	29.7
682.189	30.17
682.375	29.92
682.561	30.08
682.747	29.75
682.933	29.26
683.119	28.85
683.305	28.87
683.491	28.66
683.677	28.56
683.863	29.7
684.049	30.13
684.235	30.05
684.42	30.1
684.606	30.03
684.792	30.43
684.978	31.05
685.164	31.31
685.349	31.18
685.535	31.01
685.721	30.92
685.907	30.22
686.092	30.62
686.278	30.68
686.464	30.48
686.649	30.64
686.835	30.66
687.021	30.55
687.206	30.48
687.392	30.58
687.577	30.99
687.763	31.33
687.948	31.83
688.134	31.64
688.319	31.35
688.505	31.57
688.69	31.84
688.876	31.81
689.061	31.96
689.247	32.14
689.432	31.96
689.618	32.09
689.803	32.02
689.988	32.16
690.174	31.91
690.359	31.82
690.544	31.78
690.73	31.64
690.915	31.54
691.1	30.35
691.285	30.33
691.471	30.84
691.656	31
691.841	31.09
692.026	30.55
692.211	30.35
692.396	30.46
692.582	30.51
692.767	29.8
692.952	29.48
693.137	30.53
693.322	30.71
693.507	29.97
693.692	29.4
693.877	29.08
694.062	29.47
694.247	29.11
694.432	29.12
694.617	29.51
694.802	29.69
694.987	30.01
695.172	30.35
695.357	29.71
695.541	29.79
695.726	29.88
695.911	30.16
696.096	29.98
696.281	31.08
696.466	31.35
696.65	30.98
696.835	30.79
697.02	30.93
697.204	31.1
697.389	31.3
697.574	31.36
697.759	31.74
697.943	31.58
698.128	31.59
698.312	30.9
698.497	30.87
698.682	30.91
698.866	31.45
699.051	31.44
699.235	30.7
699.42	30.74
699.604	31.1
699.789	30.77
699.973	31.21
700.158	31.26
700.342	31.43
700.527	31.58
700.711	31.63
700.895	31.33
701.08	31.25
701.264	31.65
701.448	31.78
701.633	31.86
701.817	31.8
702.001	31.39
702.186	31.68
702.37	32.11
702.554	32.18
702.738	31.97
702.923	32.52
703.107	32.01
703.291	32.2
703.475	31.96
703.659	31.21
703.843	31.07
704.027	31.48
704.212	30.94
704.396	31.09
704.58	31.31
704.764	31.85
704.948	31.95
705.132	32.13
705.316	32.5
705.5	32.59
705.684	33.36
705.868	33.93
706.052	33.45
706.235	33.63
706.419	33.22
706.603	32.72
706.787	32.76
706.971	32.53
707.155	32.4
707.339	31.98
707.522	32.12
707.706	32.34
707.89	32.19
708.074	32.22
708.257	32.18
708.441	32.21
708.625	31.8
708.808	31.68
708.992	32.05
709.176	32.34
709.359	32.41
709.543	31.69
709.727	31.2
709.91	31.38
710.094	31.99
710.277	32.47
710.461	32.89
710.644	33.63
710.828	33.6
711.011	33.61
711.195	34.13
711.378	34.49
711.562	34.41
711.745	34.59
711.928	33.48
712.112	33.5
712.295	32.9
712.478	32.21
712.662	31.63
712.845	31.14
713.028	30.38
713.212	29.54
713.395	29.68
713.578	30.27
713.761	29.78
713.945	30.82
714.128	30.08
714.311	30.12
714.494	30.33
714.677	30.71
714.86	30.7
715.043	31.08
715.227	31.87
715.41	31.01
715.593	31.16
715.776	31.25
715.959	31.11
716.142	31.02
716.325	31.31
716.508	31.03
716.691	30.37
716.874	30.35
717.057	30.07
717.239	29.72
717.422	29.63
717.605	29.54
717.788	29.57
717.971	29.08
718.154	28.98
718.337	28.61
718.519	28.31
718.702	28.49
718.885	28.59
719.068	28.58
719.25	28.94
719.433	29.48
719.616	29.94
719.798	29.8
719.981	29.98
720.164	30.05
720.346	30.59
720.529	30.81
720.712	31.4
720.894	31.83
721.077	31.02
721.259	30.27
721.442	30.96
721.624	30.16
721.807	30.51
721.989	30.74
722.172	31.15
722.354	31.72
722.537	32.06
722.719	31.86
722.901	32.08
723.084	33.04
723.266	33.47
723.448	33.06
723.631	33.58
723.813	32.66
723.995	32
724.178	32.89
724.36	32.11
724.542	32.78
724.724	32.97
724.907	32.09
725.089	32.88
725.271	32.46
725.453	31.82
725.635	31.31
725.817	31.5
725.999	32.51
726.181	31.71
726.364	30.66
726.546	29.72
726.728	28.97
726.91	29.55
727.092	28.84
727.274	29.49
727.456	28.87
727.638	28.98
727.819	28.97
728.001	28.65
728.183	27.89
728.365	29.02
728.547	29.28
728.729	30.45
728.911	30.77
729.093	30.48
729.274	30.54
729.456	31.05
729.638	30.55
729.82	30.78
730.001	31.04
730.183	31.84
730.365	32.14
730.546	31.74
730.728	31.32
730.91	31.24
731.091	30.59
731.273	29.97
731.455	30.74
731.636	31.22
731.818	31.84
731.999	32.31
732.181	32.73
732.362	32.37
732.544	32.97
732.725	33.33
732.907	33.74
733.088	34.63
733.27	34.85
733.451	35.16
733.633	34.83
733.814	34.66
733.995	34.03
734.177	34.22
734.358	33.41
734.539	33.09
734.721	32.66
734.902	32.27
735.083	33.26
735.264	32.92
735.446	32.28
735.627	33.3
735.808	33.36
735.989	33.85
736.17	32.72
736.351	33.45
736.533	34.02
736.714	34.08
736.895	33.33
737.076	31.9
737.257	31.86
737.438	31.32
737.619	30
737.8	29.76
737.981	30.21
738.162	30.57
738.343	30.62
738.524	30.7
738.705	30.92
738.886	31.47
739.067	31.48
739.247	32.21
739.428	32.05
739.609	32.82
739.79	32.39
739.971	30.96
740.151	30.22
740.332	29.72
740.513	29.49
740.694	28.76
740.874	28.33
741.055	27.93
741.236	28.94
741.417	30.61
741.597	29.79
741.778	29.84
741.958	30.42
742.139	32.16
742.32	32.43
742.5	33.36
742.681	34.74
742.861	34.03
743.042	34.45
743.222	32.49
743.403	32.19
743.583	33.5
743.764	34.97
743.944	34.52
744.124	33.94
744.305	33.8
744.485	32.86
744.666	31.69
744.846	33.14
745.026	34.51
745.207	35.39
745.387	34.85
745.567	34.34
745.747	33.02
745.928	32.21
746.108	32.07
746.288	32.37
746.468	32.1
746.648	32.87
746.829	32.75
747.009	31.74
747.189	31.68
747.369	32.97
747.549	33.74
747.729	34.15
747.909	35.42
748.089	35.78
748.269	36.21
748.449	36.53
748.629	36.5
748.809	35.91
748.989	35.02
749.169	34.14
749.349	34.62
749.529	34.93
749.709	35.02
749.889	35
750.068	34.93
750.248	34.36
750.428	33.81
750.608	32.89
750.788	33.43
750.967	33.94
751.147	35.18
751.327	34.21
751.507	34.36
751.686	33.96
751.866	34.43
752.046	34.7
752.225	34.37
752.405	34.35
752.585	35.38
752.764	35.47
752.944	35.04
753.123	34.6
753.303	34.26
753.482	32.91
753.662	34.18
753.841	33.7
754.021	33.24
754.2	33.99
754.38	33.41
754.559	33.73
754.739	33.97
754.918	34.8
755.097	34.4
755.277	33.57
755.456	34.13
755.635	34.43
755.815	33.89
755.994	32.59
756.173	31.63
756.352	31.67
756.532	30.96
756.711	29.46
756.89	29.93
757.069	29.75
757.248	30.16
757.427	31.34
757.607	29.93
757.786	29.1
757.965	29.25
758.144	30.07
758.323	31.22
758.502	31.4
758.681	32.41
758.86	32.05
759.039	33.61
759.218	33.85
759.397	32.77
759.576	31.01
759.755	31.22
759.934	31.55
760.113	31.29
760.291	30.94
760.47	30.56
760.649	30.89
760.828	30.44
761.007	29.28
761.186	29.5
761.364	30.01
761.543	31.82
761.722	32.15
761.901	31.61
762.079	31.25
762.258	30.96
762.437	31.14
762.615	31.34
762.794	32.29
762.972	32.13
763.151	31.74
763.33	31.89
763.508	31.51
763.687	31.77
763.865	32.6
764.044	32.66
764.222	32.85
764.401	32.64
764.579	32.71
764.758	31.72
764.936	31.83
765.114	31.77
765.293	31.18
765.471	31.48
765.65	31.47
765.828	31.83
766.006	31.57
766.184	32.03
766.363	31.08
766.541	30.93
766.719	30.85
766.898	31.52
767.076	31.18
767.254	31.35
767.432	31.18
767.61	31.79
767.788	31.23
767.967	32.33
768.145	31.65
768.323	32.55
768.501	32.75
768.679	33.13
768.857	31.95
769.035	33.61
769.213	34.87
769.391	34.61
769.569	34.64
769.747	35.67
769.925	35.33
770.103	36.03
770.281	35.57
770.459	35.08
770.636	35.68
770.814	36.26
770.992	35.25
771.17	32.75
771.348	32.69
771.525	31.49
771.703	30.84
771.881	30.87
772.059	30.47
772.236	31.9
772.414	30.63
772.592	31.22
772.769	32.18
772.947	32.51
773.125	32.74
773.302	34.81
773.48	36.28
773.657	34.3
773.835	35.39
774.013	34
774.19	34.64
774.368	34.94
774.545	34.55
774.723	33.49
774.9	35.02
775.077	36.13
775.255	35.92
775.432	37.68
775.61	39.22
775.787	37.58
775.964	37.51
776.142	36.51
776.319	38.08
776.496	38.03
776.674	38.07
776.851	35.27
777.028	35.21
777.205	35.3
777.382	35.33
777.56	37.39
777.737	38.25
777.914	39.03
778.091	38.98
778.268	37.23
778.445	37.57
778.622	36.65
778.8	35.18
778.977	35.03
779.154	34.98
779.331	31.35
779.508	28.89
779.685	29.2
779.862	31.91
780.038	31.75
780.215	34.28
780.392	34.41
780.569	34.6
780.746	37.9
780.923	37.08
781.1	35.43
781.277	38.39
781.453	39.41
781.63	39.12
781.807	38.15
781.984	38.41
782.16	36.87
782.337	36.37
782.514	39.42
782.691	37.98
782.867	38.77
783.044	40.14
783.221	40.02
783.397	41.76
783.574	41.02
783.75	39.71
783.927	40.3
784.103	42.44
784.28	43.02
784.456	40.31
784.633	39.62
784.809	40.77
784.986	41
785.162	38.53
785.339	36.89
785.515	37.05
785.692	36.41
785.868	33.97
786.044	30.44
786.221	30.77
786.397	34.95
786.573	37.73
786.749	34.88
786.926	32.06
787.102	32.17
787.278	31.45
787.454	32.03
787.631	34.47
787.807	34.1
787.983	34.27
788.159	32.18
788.335	27.42
788.511	26.48
788.687	29.13
788.863	32.64
789.039	32.86
789.216	32.16
789.392	30.46
789.568	29.75
789.744	31.93
789.919	32.84
790.095	32.56
790.271	34.68
790.447	32.66
790.623	33.38
790.799	29.92
790.975	29.15
791.151	27.41
791.327	30.48
791.502	29.87
791.678	31.42
791.854	30.22
792.03	30.42
792.205	28.85
792.381	30
792.557	27.68
792.733	28.98
792.908	33.51
793.084	35.37
793.259	30.81
793.435	30.39
793.611	28.21
793.786	28.73
793.962	29.66
794.137	30.75
794.313	31.42
794.488	33.13
794.664	32.9
794.839	29.93
795.015	32.55
795.19	33.75
795.366	35.43
795.541	34.62
795.716	34.97
795.892	35.02
796.067	37.46
796.242	37.08
796.418	35.72
796.593	37.78
796.768	36.93
796.944	37.67
797.119	38.87
797.294	34.79
797.469	35.55
797.644	36.34
797.82	35.84
797.995	31.2
798.17	33.27
798.345	34.83
798.52	32.15
798.695	32.06
798.87	31.62
799.045	30.73
799.22	34.14
799.395	32.49
799.57	30.77
799.745	32.54
799.92	35.31
800.095	32.99
800.27	32.39
800.445	34.78
800.62	36.44
800.795	33.99
800.97	35.97
801.145	37.15
801.319	36.31
801.494	37.46
801.669	34.14
801.844	35.41
802.018	35.46
802.193	36.2
802.368	33.31
802.543	33.62
802.717	39.06
802.892	35.46
803.067	36.86
803.241	39.02
803.416	39.98
803.59	40.67
803.765	35.69
803.94	33.17
804.114	29.59
804.289	31.52
804.463	30.94
804.638	27.4
804.812	29.31
804.986	21.96
805.161	24.81
805.335	23.3
805.51	27.11
805.684	26.7
805.858	30.32
806.033	28.51
806.207	28.04
806.381	29.91
806.556	29.96
806.73	27.7
806.904	30.33
807.078	28.22
807.253	31.89
807.427	30.22
807.601	33.12
807.775	29.8
807.949	32.45
808.123	32.59
808.298	33.05
808.472	31.74
808.646	35.33
808.82	35.39
808.994	33.98
809.168	31.93
809.342	31.68
809.516	32.23
809.69	37.73
809.864	41.7
810.038	41.46
810.212	39.05
810.385	38.3
810.559	40.62
810.733	40.75
810.907	40.25
811.081	39.31
811.255	42.04
811.428	42.42
811.602	42.03
811.776	42.13
811.95	45.12
812.123	44.97
812.297	49.4
812.471	46.43
812.644	45.12
812.818	52.21
812.992	50.71
813.165	49.28
813.339	47.81
813.512	44.58
813.686	43.61
813.86	41.39
814.033	41.32
814.207	41.15
814.38	40.19
814.554	46.83
814.727	44.1
814.9	45.89
815.074	45.24
815.247	45.1
815.421	45.34
815.594	43.6
815.767	45
815.941	46.93
816.114	44.88
816.287	43.59
816.46	35.06
816.634	32.42
816.807	28.46
816.98	29.82
817.153	29.27
817.327	30.32
817.5	31.13
817.673	29.84
817.846	27.44
818.019	26.47
818.192	30.06
818.365	33.28
818.538	35.79
818.711	41.02
818.884	38.41
819.057	39.02
819.23	37.98
819.403	33.83
819.576	32.42
819.749	33.44
819.922	33.11
820.095	33.6
820.268	36.43
820.441	35.42
820.614	34.12
820.786	34.76
820.959	33.83
821.132	34.3
821.305	37.24
821.477	37.46
821.65	36.82
821.823	35.61
821.996	34.17
822.168	32.77
822.341	32.74
822.514	32.35
822.686	31.86
822.859	31.62
823.031	31.11
823.204	29.54
823.376	28.91
823.549	28.02
823.722	28.58
823.894	28.99
824.067	29.25
824.239	28.08
824.411	28.2
824.584	27.84
824.756	27.58
824.929	27.42
825.101	28.55
825.273	27.61
825.446	27.59
825.618	27.88
825.79	27.67
825.963	27.48
826.135	27.96
826.307	28.23
826.479	28.12
826.652	28.51
826.824	29.75
826.996	28.75
827.168	30.2
827.34	32.12
827.512	31.69
827.684	32.18
827.856	32.19
828.029	32.88
828.201	31.96
828.373	32.36
828.545	33.06
828.717	32.19
828.889	32.66
829.061	32.4
829.232	30.09
829.404	28.94
829.576	28.26
829.748	28.37
829.92	28.73
830.092	29.63
830.264	29.96
830.436	28.5
830.607	27.59
830.779	30.71
830.951	32.97
831.123	34.34
831.294	36.2
831.466	36.2
831.638	37.9
831.809	34.69
831.981	31.27
832.153	31.98
832.324	32.26
832.496	36.26
832.667	32.3
832.839	31.64
833.011	35.45
833.182	34.91
833.354	35.04
833.525	30.64
833.697	33.94
833.868	35.64
834.039	35.59
834.211	35.64
834.382	32.82
834.554	34.48
834.725	34.35
834.896	32.07
835.068	32.35
835.239	29.97
835.41	32.23
835.581	31.98
835.753	33.01
835.924	32.51
836.095	31.76
836.266	31.17
836.438	29.75
836.609	29.4
836.78	30.23
836.951	30.79
837.122	32.64
837.293	32.8
837.464	31.42
837.635	33.79
837.806	34.83
837.977	37.75
838.148	43.72
838.319	42.12
838.49	42.41
838.661	45.31
838.832	42.23
839.003	46.76
839.174	50.81
839.345	49.9
839.516	46.73
839.687	52.11
839.857	53.3
840.028	49.06
840.199	54.93
840.37	55.41
840.54	50.47
840.711	52.26
840.882	48.05
841.053	45.55
841.223	46.15
841.394	44.23
841.564	36.88
841.735	32.18
841.906	32.66
842.076	28.95
842.247	28.84
842.417	32.67
842.588	33.17
842.758	35.03
842.929	29.87
843.099	32.48
843.27	35.93
843.44	38.34
843.611	42.34
843.781	34.31
843.951	39.81
844.122	49.07
844.292	46.81
844.462	49.76
844.633	41.97
844.803	44.71
844.973	44.02
845.144	39.65
845.314	38.42
845.484	45.71
845.654	59.35
845.824	65.22
845.995	51.79
846.165	64.54
846.335	64.53
846.505	86.57
846.675	89.77
846.845	86.18
847.015	93.07
847.185	95.61
847.355	78.51
847.525	75.97
847.695	61.1
847.865	65.45
848.035	56.99
848.205	51.87
848.375	51.78
848.545	44.06
848.715	44.56
848.884	51.04
849.054	49.64
849.224	47.92
849.394	61.23
849.564	65.31
849.733	69.98
849.903	80.38
850.073	96.06
850.243	105.3
850.412	104.53
850.582	127.2
850.752	134.63
850.921	144.62
851.091	141.64
851.26	108.45
851.43	110.23
851.599	95.35
851.769	95.49
851.939	82.52
852.108	67.32
852.278	63.37
852.447	54.31
852.616	41.83
852.786	53.52
852.955	57.46
853.125	54.89
853.294	59.54
853.463	75.71
853.633	65.28
853.802	69.21
853.971	74.26
854.141	82.76
854.31	95.81
854.479	114.52
854.648	104.85
854.818	95.33
854.987	105.29
855.156	96.84
855.325	79.83
855.494	85.87
855.663	83.97
855.832	78.84
856.001	86.31
856.171	74.66
856.34	67.99
856.509	74.25
856.678	77.47
856.847	60.35
857.016	55.66
857.185	55.85
857.353	53.31
857.522	46.66
857.691	40.21
857.86	26.65
858.029	26.81
858.198	20.83
858.367	13.12
858.535	5.76
858.704	15.89
858.873	37.24
859.042	52.92
859.21	71.17
859.379	81.13
859.548	99.96
859.717	92.06
859.885	86.99
860.054	81.95
860.222	95.81
860.391	97.19
860.56	107.87
860.728	90.43
860.897	95.13
861.065	82.11
861.234	91.21
861.402	79.05
861.571	100.06
861.739	96.8
861.908	94.76
862.076	80.21
862.244	74.52
862.413	68.96
862.581	67.98
862.749	67.16
862.918	66.46
863.086	56.73
863.254	72.49
863.423	73.36
863.591	81.87
863.759	91.49
863.927	85.13
864.096	80.42
864.264	79.81
864.432	82.29
864.6	69.11
864.768	70.33
864.936	76.5
865.104	80.91
865.272	66.87
865.44	70.88
865.608	65.13
865.776	75.58
865.944	96.35
866.112	83.98
866.28	106.32
866.448	112.51
866.616	115.22
866.784	102.15
866.952	72.1
867.12	69.1
867.288	58.61
867.455	63.13
867.623	78.45
867.791	66.61
867.959	84.83
868.127	67.24
868.294	75.24
868.462	72.59
868.63	72.94
868.797	72.65
868.965	72.86
869.133	67.72
869.3	61.1
869.468	67.4
869.636	75.28
869.803	67.42
869.971	70.49
870.138	55.39
870.306	61.77
870.473	60.78
870.641	64.37
870.808	74.92
870.975	89.03
871.143	90.08
871.31	72.47
871.478	61.83
871.645	65.18
871.812	70.35
871.98	74.37
872.147	67.52
872.314	61.1
872.482	48.06
872.649	34.48
872.816	28.25
872.983	29.77
873.15	28.65
873.318	40.61
873.485	45.58
873.652	36.38
873.819	23.66
873.986	24.96
874.153	26.47
874.32	45.27
874.487	46.15
874.654	45.76
874.821	33.15
874.988	28.09
875.155	17.32
875.322	-12.98
875.489	-2.01
875.656	5.19
875.823	-2.24
875.99	7.83
876.157	-12.73
876.324	3.77
876.49	-2.73
876.657	2.81
876.824	-5.11
876.991	4.9
877.157	18.16
877.324	12.71
877.491	19.99
877.658	26.78
877.824	22.92
877.991	20.15
878.157	14.5
878.324	18.5
878.491	15.86
878.657	41.06
878.824	44.56
878.99	55.62
879.157	57.67
879.323	53.89
879.49	52.18
879.656	63.61
879.823	59.76
879.989	52.89
880.156	56.87
880.322	62.64
880.488	53.91
880.655	46.95
880.821	40.13
880.987	40.75
881.154	43.82
881.32	41.06
881.486	36.08
881.652	43.06
881.819	43.12
881.985	38.32
882.151	36.7
882.317	37.94
882.483	39.38
882.649	37.64
882.816	36.44
882.982	32.46
883.148	33.38
883.314	33.21
883.48	32.01
883.646	35.21
883.812	34.12
883.978	33.56
884.144	32.57
884.31	30.13
884.476	30.61
884.642	34.81
884.807	39.91
884.973	41.56
885.139	40.75
885.305	42.07
885.471	37.01
885.637	38.75
885.802	40.19
885.968	41.42
886.134	44.65
886.3	44.13
886.465	37.14
886.631	33.37
886.797	27.94
886.962	30.9
887.128	25.46
887.293	29.52
887.459	34.53
887.625	28.43
887.79	28.3
887.956	25.99
888.121	27.37
888.287	28.69
888.452	26.68
888.618	32.14
888.783	32.28
