Data from 2938057_Reflection_2.txt Node
Date: Sun Jul 12 13:58:46 EDT 2015
User: robert
Spectrometer: USB4E03001
Autoset integration time: false
Trigger mode: 4
Integration Time (sec): 1.000000E-1
Scans to average: 10
Electric dark correction enabled: true
Nonlinearity correction enabled: false
Boxcar width: 5
Stray light correction enabled: false
XAxis mode: Wavelengths
Stop averaging: false
Number of Pixels in Spectrum: 3648
>>>>>Begin Spectral Data<<<<<
177.566	117.01
177.785	293.62
178.005	-42900
178.225	-252.91
178.445	-146.57
178.665	-12.69
178.885	152
179.105	163.06
179.324	101.31
179.544	64.5
179.764	94.47
179.984	98.2
180.204	116.97
180.423	120.38
180.643	122.94
180.863	104.54
181.083	88.21
181.302	57.27
181.522	59.44
181.742	49.55
181.961	43
182.181	22.37
182.401	16.89
182.621	5.11
182.84	-4.62
183.06	-23.12
183.279	-23.27
183.499	-49.32
183.719	-84.21
183.938	-99
184.158	-70.46
184.377	-51.73
184.597	-40.23
184.816	-55.22
185.036	-65.99
185.256	-11.01
185.475	-4.6
185.695	-7.64
185.914	-8.74
186.134	13.39
186.353	10.27
186.572	6.96
186.792	5.98
187.011	31
187.231	45.38
187.45	57.81
187.67	2.39
187.889	-23.37
188.108	-21.07
188.328	2.61
188.547	-19.54
188.766	11.85
188.986	32.55
189.205	22.43
189.424	12.14
189.644	30.69
189.863	15.59
190.082	60.91
190.302	82.45
190.521	73.29
190.74	70.97
190.959	102.12
191.178	88.09
191.398	66.35
191.617	65.75
191.836	75.31
192.055	87.87
192.274	39.49
192.494	62.52
192.713	33.74
192.932	88.93
193.151	66.73
193.37	-127.21
193.589	-66.92
193.808	-91.92
194.027	86.27
194.246	56.8
194.465	35.32
194.685	-36.89
194.904	178.58
195.123	-8.69
195.342	156.19
195.561	208.21
195.78	232.5
195.999	329.74
196.218	378.57
196.436	-219.21
196.655	-66.26
196.874	-63.85
197.093	-29.25
197.312	-25.34
197.531	-66.53
197.75	-31.31
197.969	9.34
198.188	11.29
198.407	58.07
198.625	59.87
198.844	49.63
199.063	49.06
199.282	79.05
199.501	48.83
199.719	52.87
199.938	52.91
200.157	46.63
200.376	37.61
200.594	71.3
200.813	22.33
201.032	-22.77
201.251	1.7
201.469	-68.47
201.688	-61.01
201.907	-70.51
202.125	-1.33
202.344	15.66
202.563	9.87
202.781	22.89
203	26.34
203.218	31.92
203.437	35.69
203.656	44.65
203.874	55.24
204.093	57.67
204.311	65.16
204.53	738.64
204.748	-1.01
204.967	8.24
205.185	4096.23
205.404	1859.72
205.622	-386.04
205.841	-272.51
206.059	-47.85
206.278	-57.7
206.496	-62.46
206.715	2.27
206.933	-23.35
207.151	-36.31
207.37	-53.17
207.588	-5.75
207.806	-20.96
208.025	-19.76
208.243	-56.29
208.461	-173.97
208.68	-94.53
208.898	-73.78
209.116	-177.27
209.335	-148.64
209.553	-231.21
209.771	-70.07
209.989	-100.84
210.208	-57.74
210.426	-59.64
210.644	-44.81
210.862	-20.85
211.081	-19.95
211.299	-35.47
211.517	8.6
211.735	41.71
211.953	35.42
212.171	39.95
212.39	44.31
212.608	45.61
212.826	67.97
213.044	52.02
213.262	24.25
213.48	22.62
213.698	63.93
213.916	39.95
214.134	20.86
214.352	6.98
214.57	7.75
214.788	8.48
215.006	12.96
215.224	8.06
215.442	-1.73
215.66	9.86
215.878	2.26
216.096	-37.99
216.314	-27.16
216.532	-79.94
216.75	-8.79
216.968	-44.66
217.185	-103.61
217.403	-91.41
217.621	-62.4
217.839	1.14
218.057	29.79
218.275	21.74
218.492	16.64
218.71	12.13
218.928	9.17
219.146	-5
219.363	24.42
219.581	46.79
219.799	44.89
220.017	33.02
220.234	29.58
220.452	25.21
220.67	-2.47
220.887	8.66
221.105	-2.9
221.323	-8.05
221.54	-9.59
221.758	-41.23
221.976	-31.79
222.193	-25.07
222.411	-12.87
222.629	-14.76
222.846	-18.62
223.064	-3.62
223.281	1.88
223.499	4.34
223.716	14.09
223.934	30.96
224.151	32.05
224.369	28.07
224.586	31.82
224.804	39.25
225.021	36.88
225.239	24.86
225.456	25.04
225.674	10.99
225.891	6.65
226.108	5.63
226.326	-8.05
226.543	-3.01
226.76	-6.96
226.978	-7.45
227.195	-5.51
227.413	-1.24
227.63	6.84
227.847	10.35
228.064	9.24
228.282	14.78
228.499	17.05
228.716	18.77
228.934	18.41
229.151	21.32
229.368	18.9
229.585	18.26
229.802	18.62
230.02	18.51
230.237	15.14
230.454	20.37
230.671	18.87
230.888	18.42
231.105	16.81
231.323	21.85
231.54	19.32
231.757	21.62
231.974	17.11
232.191	15.98
232.408	15.65
232.625	18.3
232.842	16.59
233.059	16.75
233.276	16.68
233.493	15.35
233.71	14.55
233.927	16.38
234.144	17.06
234.361	15.95
234.578	20.6
234.795	21.2
235.012	19.86
235.229	18.01
235.446	17.29
235.663	17.16
235.879	18.36
236.096	12.76
236.313	17.87
236.53	13.44
236.747	14.88
236.964	4.19
237.181	3.19
237.397	-4.72
237.614	-6.32
237.831	-4.73
238.048	-9.67
238.264	-8.91
238.481	-9.57
238.698	-20.18
238.915	-14.18
239.131	-9.42
239.348	-3.08
239.565	1.72
239.781	7.56
239.998	8.64
240.215	6.37
240.431	5.93
240.648	6.46
240.865	4.07
241.081	6.81
241.298	9.71
241.514	12.66
241.731	14.19
241.947	11.58
242.164	10.69
242.38	11.46
242.597	13.51
242.814	13.68
243.03	14.7
243.246	16.94
243.463	15.99
243.679	14.05
243.896	12.8
244.112	11.35
244.329	13.31
244.545	13.87
244.762	11.83
244.978	12.71
245.194	14.86
245.411	14.04
245.627	13.05
245.843	14.18
246.06	14.3
246.276	15.27
246.492	15.77
246.709	14.45
246.925	14.2
247.141	15.64
247.357	14.68
247.574	13.61
247.79	13.8
248.006	13.3
248.222	12.74
248.439	12.57
248.655	12.34
248.871	10.77
249.087	11.89
249.303	12.21
249.519	11.3
249.736	11.57
249.952	11.93
250.168	11.96
250.384	12.24
250.6	13.08
250.816	13.29
251.032	11.19
251.248	13
251.464	11.05
251.68	11.2
251.896	10.1
252.112	8.85
252.328	7.11
252.544	6.28
252.76	6.6
252.976	5.96
253.192	3.3
253.408	4.17
253.624	3.95
253.84	5.15
254.056	6.8
254.272	5.13
254.487	6.54
254.703	5.55
254.919	3.68
255.135	3.62
255.351	0.63
255.567	5.99
255.782	8.6
255.998	8.61
256.214	4.96
256.43	2.06
256.646	4.4
256.861	3.73
257.077	7.61
257.293	8.55
257.508	8.42
257.724	10.17
257.94	7.09
258.155	5.66
258.371	6.42
258.587	7.84
258.802	7.39
259.018	7.41
259.234	6.83
259.449	6.31
259.665	7.73
259.88	7.67
260.096	8.34
260.312	9.5
260.527	9.81
260.743	9.41
260.958	9.52
261.174	9.68
261.389	9.87
261.605	11.24
261.82	12.19
262.036	12.47
262.251	13.12
262.466	12.67
262.682	11.72
262.897	10.3
263.113	10.13
263.328	11.39
263.543	10.74
263.759	10.27
263.974	9.03
264.189	7.94
264.405	5.97
264.62	4.33
264.835	4.57
265.051	3.83
265.266	5.54
265.481	4.26
265.696	4.6
265.912	6.21
266.127	5.31
266.342	4.43
266.557	4.55
266.773	5.3
266.988	4.85
267.203	5.46
267.418	6.82
267.633	5.73
267.848	7.01
268.064	5.08
268.279	6.27
268.494	7.49
268.709	8.99
268.924	9.5
269.139	9.58
269.354	10.86
269.569	9.87
269.784	9.55
269.999	9.72
270.214	8.98
270.429	8.67
270.644	6.67
270.859	8.1
271.074	8.08
271.289	8.1
271.504	8.08
271.719	7.84
271.934	7.19
272.149	6.73
272.363	6.84
272.578	7.97
272.793	8.54
273.008	9.73
273.223	8.71
273.438	9.25
273.653	9.21
273.867	8.69
274.082	10.13
274.297	11.1
274.512	12.12
274.726	11.04
274.941	10.38
275.156	10.52
275.371	8.4
275.585	8.49
275.8	6.23
276.015	5.76
276.229	4.69
276.444	2.41
276.659	2.51
276.873	2.41
277.088	4.51
277.302	4.16
277.517	3.89
277.732	7
277.946	5.3
278.161	5.48
278.375	5.03
278.59	6.62
278.804	7.71
279.019	7.4
279.233	8.47
279.448	8.16
279.662	8.66
279.877	9.83
280.091	7.08
280.306	7.99
280.52	8.75
280.735	9.35
280.949	8
281.163	8.87
281.378	8.51
281.592	8.1
281.806	8.7
282.021	8.65
282.235	9.03
282.449	10.36
282.664	10.06
282.878	10.81
283.092	10.72
283.307	11.22
283.521	9.96
283.735	10.63
283.949	10.84
284.164	9.81
284.378	10.75
284.592	9.12
284.806	8.64
285.02	9.67
285.234	9.51
285.449	9.19
285.663	10.03
285.877	9.8
286.091	10.26
286.305	9.5
286.519	9.79
286.733	9.65
286.947	9.08
287.161	9
287.375	8.34
287.589	8.64
287.803	9.91
288.017	9.16
288.231	10.34
288.445	11.4
288.659	10.42
288.873	10
289.087	9.93
289.301	11.74
289.515	12.89
289.729	12.31
289.943	12.06
290.157	11.76
290.371	12.09
290.584	11.84
290.798	11.39
291.012	12.55
291.226	12.3
291.44	11.83
291.654	10.88
291.867	10
292.081	11.5
292.295	10.9
292.509	11.79
292.722	11.52
292.936	11.44
293.15	10.18
293.364	11.07
293.577	11.4
293.791	10.88
294.005	11.04
294.218	10.86
294.432	10.27
294.645	9.17
294.859	8.08
295.073	9.11
295.286	9.67
295.5	10.09
295.713	9.38
295.927	9.5
296.14	10.07
296.354	10.45
296.568	10.41
296.781	10.12
296.994	10.2
297.208	9.77
297.421	8.82
297.635	8.54
297.848	8.41
298.062	8.39
298.275	7.87
298.489	8.26
298.702	8.37
298.915	8.45
299.129	8.48
299.342	9.7
299.555	10.48
299.769	10
299.982	10.07
300.195	9.99
300.409	10.67
300.622	11.83
300.835	11.14
301.048	11.72
301.262	13.03
301.475	13.92
301.688	14.03
301.901	13.75
302.115	14.11
302.328	12.19
302.541	12.38
302.754	12.57
302.967	13.21
303.18	13.5
303.393	12.75
303.607	12.5
303.82	10.47
304.033	10.19
304.246	9.75
304.459	10.12
304.672	11.4
304.885	11.1
305.098	9.59
305.311	6.92
305.524	5.98
305.737	5.14
305.95	5.91
306.163	8.84
306.376	9.03
306.589	9.47
306.802	8.4
307.015	7.79
307.228	8.9
307.44	7.82
307.653	9.1
307.866	9.83
308.079	11.32
308.292	10.14
308.505	8.19
308.718	6.94
308.93	7.49
309.143	9.98
309.356	11.64
309.569	10.33
309.781	11.3
309.994	12.27
310.207	11.94
310.42	10.89
310.632	10.45
310.845	11.61
311.058	13.24
311.27	13.27
311.483	11.87
311.696	10.44
311.908	11.06
312.121	10.73
312.333	9.7
312.546	9.86
312.759	10.94
312.971	12.11
313.184	10.99
313.396	9.09
313.609	8.5
313.821	9.28
314.034	10.06
314.246	9.28
314.459	9.53
314.671	10.18
314.884	9.23
315.096	9.45
315.309	9.3
315.521	10.11
315.733	10.03
315.946	8.89
316.158	6.78
316.371	6.44
316.583	7.55
316.795	7.05
317.008	7.1
317.22	8.63
317.432	7.37
317.644	5.75
317.857	5.01
318.069	6.05
318.281	7.03
318.494	9.84
318.706	12.1
318.918	11.82
319.13	14.12
319.342	14.65
319.555	15.05
319.767	14.95
319.979	15.84
320.191	16.64
320.403	18.12
320.615	18.41
320.827	16.78
321.039	16.53
321.252	17.29
321.464	15.41
321.676	14.42
321.888	13.53
322.1	13.17
322.312	11.78
322.524	11.71
322.736	9.72
322.948	9.29
323.16	9.77
323.372	8.05
323.584	6.37
323.796	7.99
324.007	8.39
324.219	7.69
324.431	8.69
324.643	7.92
324.855	8.58
325.067	8.79
325.279	9.68
325.491	11.27
325.702	10.62
325.914	11.03
326.126	10.14
326.338	9.63
326.55	9.67
326.761	9.62
326.973	11.61
327.185	9.28
327.396	9.28
327.608	8.26
327.82	7.06
328.032	7.74
328.243	8.13
328.455	8.15
328.666	9.08
328.878	9.29
329.09	8.62
329.301	8.06
329.513	10.27
329.725	9.75
329.936	10.89
330.148	11.18
330.359	12.17
330.571	14
330.782	13.26
330.994	13.45
331.205	13.52
331.417	15.09
331.628	16.2
331.84	15.97
332.051	16.39
332.262	15.53
332.474	15.09
332.685	15.15
332.897	12.96
333.108	14.41
333.319	13.42
333.531	14.28
333.742	13.34
333.953	12.16
334.165	11.77
334.376	11.53
334.587	11.55
334.799	10.62
335.01	9.31
335.221	9.11
335.432	8.55
335.644	9.58
335.855	9.25
336.066	9.23
336.277	8.02
336.488	8.52
336.7	9.33
336.911	8.81
337.122	9.43
337.333	9.25
337.544	9.37
337.755	9.3
337.966	9.3
338.177	8.89
338.388	8.02
338.599	10.29
338.811	9.95
339.022	9.42
339.233	9.75
339.444	9.32
339.655	9.74
339.866	9.29
340.076	8.58
340.287	7.72
340.498	8.23
340.709	9.02
340.92	7.92
341.131	6.4
341.342	7.12
341.553	8.26
341.764	9.96
341.975	9.35
342.185	9.63
342.396	11.05
342.607	11.04
342.818	9.99
343.029	9.68
343.239	8.92
343.45	10.21
343.661	9.91
343.872	9.27
344.082	7.57
344.293	8.09
344.504	8.03
344.714	6.97
344.925	6.45
345.136	6.21
345.346	6
345.557	6.31
345.768	5.95
345.978	6.84
346.189	6.28
346.399	6.34
346.61	6.14
346.821	5.7
347.031	6.03
347.242	5.66
347.452	7.75
347.663	7.78
347.873	7.62
348.084	7.98
348.294	7.63
348.504	8.24
348.715	7.46
348.925	7.68
349.136	7.89
349.346	8.86
349.557	10.78
349.767	8.84
349.977	9.53
350.188	10.51
350.398	10.44
350.608	11
350.819	11.38
351.029	12.22
351.239	11.89
351.449	12.55
351.66	11.13
351.87	11.16
352.08	11.48
352.29	10.7
352.501	10.37
352.711	9.77
352.921	8.75
353.131	7.35
353.341	6.97
353.552	7.86
353.762	6.62
353.972	6.95
354.182	5.46
354.392	6.56
354.602	7.01
354.812	7.32
355.022	8.27
355.232	7.65
355.442	8.42
355.652	8.6
355.862	8.29
356.072	9.15
356.282	9.99
356.492	10.64
356.702	9.85
356.912	9.79
357.122	9.26
357.332	7.91
357.542	8.57
357.752	7.91
357.962	8.67
358.171	8.8
358.381	9.2
358.591	8.63
358.801	8.71
359.011	8.74
359.221	9.17
359.43	9.06
359.64	10.25
359.85	9.49
360.06	9.89
360.269	9.39
360.479	9.56
360.689	9.6
360.899	9.42
361.108	9.52
361.318	10.02
361.528	9.93
361.737	10.15
361.947	9.87
362.156	10.44
362.366	10.41
362.576	10.52
362.785	9.64
362.995	9.8
363.204	9.75
363.414	9.18
363.623	8.93
363.833	8.34
364.042	7.67
364.252	7.78
364.461	6.87
364.671	6.18
364.88	5.7
365.09	6.15
365.299	5.89
365.509	5.66
365.718	5.52
365.927	5.12
366.137	4.78
366.346	4.68
366.555	4.7
366.765	5.64
366.974	6.39
367.183	6.28
367.393	5.92
367.602	4.95
367.811	4.92
368.021	5.08
368.23	4.58
368.439	4.82
368.648	4.83
368.857	4.51
369.067	3.26
369.276	3.1
369.485	3.9
369.694	4.68
369.903	5.17
370.112	5.19
370.321	4.75
370.531	5.47
370.74	5.63
370.949	6.12
371.158	6.74
371.367	6.9
371.576	6.66
371.785	6.17
371.994	6.27
372.203	6.34
372.412	6.35
372.621	7.02
372.83	6.42
373.039	6.39
373.248	6.48
373.457	5.68
373.666	5.57
373.874	5.4
374.083	5.24
374.292	4.15
374.501	3.9
374.71	3.76
374.919	3.38
375.128	3.61
375.336	4.09
375.545	3.87
375.754	4.66
375.963	4.31
376.171	3.94
376.38	4.69
376.589	5.28
376.798	4.84
377.006	4.67
377.215	5.31
377.424	4.98
377.632	4.83
377.841	5.07
378.05	4.41
378.258	4.74
378.467	5.6
378.675	5.04
378.884	5.86
379.093	6.21
379.301	7.13
379.51	6.98
379.718	6.37
379.927	6.25
380.135	6.49
380.344	6.73
380.552	7.26
380.761	7.25
380.969	6.64
381.177	5.94
381.386	6.43
381.594	6.1
381.803	5.35
382.011	6.47
382.219	5.93
382.428	5.61
382.636	5.3
382.845	4.87
383.053	4.49
383.261	5.2
383.469	4.87
383.678	4.26
383.886	3.52
384.094	3.7
384.302	3.48
384.511	3.35
384.719	3.19
384.927	3.24
385.135	3.7
385.343	4.06
385.552	4.33
385.76	4.57
385.968	4.76
386.176	5.32
386.384	5.29
386.592	5.29
386.8	5.21
387.008	4.84
387.216	4.59
387.424	4.4
387.633	4.19
387.841	3.83
388.049	3.61
388.257	4.12
388.465	3.96
388.672	4.13
388.88	4.5
389.088	4.71
389.296	5.12
389.504	5.05
389.712	4.94
389.92	4.52
390.128	4.4
390.336	4.57
390.544	4.11
390.751	4.01
390.959	3.89
391.167	3.54
391.375	4.08
391.583	3.84
391.79	4.25
391.998	4.16
392.206	4.31
392.414	3.98
392.621	4.05
392.829	3.85
393.037	4.07
393.244	4.25
393.452	4.41
393.66	3.98
393.867	3.84
394.075	3.76
394.283	3.84
394.49	3.96
394.698	4.11
394.905	4.07
395.113	4.26
395.32	3.93
395.528	3.47
395.735	3.33
395.943	3.09
396.15	3.44
396.358	3.76
396.565	3.65
396.773	3.67
396.98	3.8
397.188	3.75
397.395	3.75
397.602	3.89
397.81	4.29
398.017	4.22
398.225	4.69
398.432	4.64
398.639	3.63
398.847	3.51
399.054	3.21
399.261	3.36
399.468	2.95
399.676	2.96
399.883	2.56
400.09	2.47
400.297	2.49
400.505	2.29
400.712	2.24
400.919	2.55
401.126	2.41
401.333	2.3
401.54	2.24
401.748	2.02
401.955	1.83
402.162	2.05
402.369	2.08
402.576	2.26
402.783	2.13
402.99	2.29
403.197	2.51
403.404	2.65
403.611	2.83
403.818	2.89
404.025	3.62
404.232	3.8
404.439	4.06
404.646	3.71
404.853	3.65
405.06	3.64
405.267	3.52
405.474	3.49
405.681	3.74
405.887	3.56
406.094	3.31
406.301	3.09
406.508	3.16
406.715	3.17
406.922	3.47
407.128	3.31
407.335	3.27
407.542	3.31
407.749	3.31
407.955	3.04
408.162	3.24
408.369	3.1
408.575	3.11
408.782	2.88
408.989	2.58
409.195	2.78
409.402	2.56
409.609	2.46
409.815	2.61
410.022	2.55
410.228	2.34
410.435	2.39
410.642	2.6
410.848	2.51
411.055	2.6
411.261	3.04
411.468	2.94
411.674	3.18
411.881	3.53
412.087	2.97
412.294	3.03
412.5	3.11
412.706	3.12
412.913	3.15
413.119	3.03
413.326	2.93
413.532	2.28
413.738	2.48
413.945	2.54
414.151	2.53
414.357	2.81
414.564	2.85
414.77	3.27
414.976	3.12
415.182	2.86
415.389	2.74
415.595	2.38
415.801	2.95
416.007	2.74
416.214	2.91
416.42	2.7
416.626	2.75
416.832	2.64
417.038	2.37
417.244	2.59
417.45	2.83
417.657	3
417.863	3.35
418.069	3.03
418.275	2.92
418.481	2.88
418.687	3.16
418.893	3.31
419.099	3.42
419.305	3.5
419.511	3.42
419.717	3.5
419.923	3.4
420.129	3.39
420.335	3.35
420.541	3.41
420.746	3.19
420.952	3.03
421.158	2.94
421.364	2.99
421.57	3.01
421.776	3.01
421.982	2.85
422.187	2.7
422.393	2.66
422.599	2.78
422.805	2.79
423.01	2.87
423.216	2.95
423.422	2.87
423.628	2.76
423.833	2.67
424.039	2.7
424.245	2.77
424.45	2.86
424.656	2.96
424.862	2.99
425.067	2.97
425.273	3.06
425.478	2.94
425.684	3.05
425.889	3.03
426.095	3.03
426.301	2.97
426.506	2.93
426.712	3.12
426.917	2.98
427.123	2.92
427.328	2.93
427.533	3.06
427.739	2.95
427.944	2.77
428.15	2.84
428.355	2.94
428.561	3.07
428.766	3
428.971	3.03
429.177	2.94
429.382	2.8
429.587	2.9
429.793	2.71
429.998	2.76
430.203	2.9
430.408	3
430.614	3.12
430.819	2.94
431.024	2.97
431.229	3.05
431.434	3.36
431.64	3.49
431.845	3.43
432.05	3.56
432.255	3.7
432.46	3.86
432.665	3.65
432.87	3.41
433.076	3.51
433.281	3.58
433.486	3.48
433.691	3.45
433.896	3.34
434.101	3.18
434.306	2.95
434.511	2.9
434.716	2.71
434.921	2.68
435.126	2.9
435.331	2.7
435.535	2.53
435.74	2.49
435.945	2.12
436.15	2.07
436.355	2.01
436.56	2.07
436.765	1.88
436.97	2.1
437.174	2.3
437.379	2.22
437.584	2.66
437.789	2.9
437.993	2.88
438.198	2.98
438.403	3.02
438.608	3.17
438.812	3.2
439.017	3.5
439.222	3.34
439.426	3.1
439.631	3.08
439.836	2.83
440.04	2.69
440.245	2.59
440.45	2.5
440.654	2.51
440.859	2.46
441.063	2.41
441.268	2.29
441.472	2.15
441.677	2.17
441.881	2.27
442.086	2.19
442.29	2.14
442.495	2.24
442.699	2.37
442.904	2.48
443.108	2.38
443.312	2.48
443.517	2.5
443.721	2.85
443.925	3.07
444.13	2.96
444.334	3.07
444.538	2.98
444.743	2.94
444.947	2.98
445.151	2.98
445.356	3.02
445.56	3.07
445.764	3.05
445.968	2.77
446.173	2.63
446.377	2.56
446.581	2.71
446.785	2.85
446.989	2.92
447.193	2.81
447.398	2.77
447.602	2.83
447.806	2.83
448.01	2.9
448.214	2.93
448.418	2.82
448.622	2.89
448.826	2.6
449.03	2.47
449.234	2.46
449.438	2.5
449.642	2.51
449.846	2.51
450.05	2.41
450.254	2.13
450.458	2.11
450.662	2.37
450.866	2.37
451.069	2.53
451.273	2.69
451.477	2.5
451.681	2.63
451.885	2.45
452.089	2.36
452.292	2.28
452.496	2.36
452.7	2.36
452.904	2.36
453.107	2.56
453.311	2.6
453.515	2.48
453.719	2.59
453.922	2.55
454.126	2.83
454.33	2.95
454.533	2.79
454.737	2.91
454.94	2.9
455.144	2.94
455.348	2.65
455.551	2.53
455.755	2.68
455.958	2.66
456.162	2.75
456.365	2.49
456.569	2.41
456.772	2.49
456.976	2.45
457.179	2.53
457.383	2.39
457.586	2.32
457.79	2.38
457.993	2.23
458.196	2.25
458.4	2.13
458.603	2.11
458.807	2.34
459.01	2.45
459.213	2.3
459.417	2.34
459.62	2.43
459.823	2.62
460.026	2.62
460.23	2.67
460.433	2.6
460.636	2.7
460.839	2.64
461.042	2.54
461.246	2.51
461.449	2.63
461.652	2.65
461.855	2.48
462.058	2.44
462.261	2.43
462.464	2.3
462.668	2.25
462.871	2.13
463.074	2.31
463.277	2.02
463.48	2.03
463.683	2.13
463.886	2.06
464.089	2.21
464.292	2.08
464.495	2.14
464.698	2.42
464.901	2.41
465.104	2.37
465.306	2.3
465.509	2.35
465.712	2.53
465.915	2.56
466.118	2.54
466.321	2.58
466.524	2.61
466.726	2.5
466.929	2.32
467.132	2.44
467.335	2.62
467.538	2.62
467.74	2.72
467.943	2.61
468.146	2.52
468.348	2.58
468.551	2.57
468.754	2.7
468.956	2.77
469.159	2.83
469.362	2.9
469.564	2.76
469.767	2.72
469.969	2.75
470.172	2.72
470.375	2.45
470.577	2.48
470.78	2.52
470.982	2.36
471.185	2.42
471.387	2.26
471.59	2.11
471.792	2.21
471.995	2.14
472.197	2.02
472.399	2.07
472.602	2.3
472.804	2.27
473.007	2.1
473.209	2.16
473.411	1.91
473.614	2.05
473.816	2.03
474.018	1.8
474.22	1.77
474.423	1.84
474.625	1.64
474.827	1.51
475.03	1.48
475.232	1.73
475.434	1.63
475.636	1.78
475.838	1.76
476.04	2.05
476.243	2.18
476.445	2.27
476.647	2.35
476.849	2.4
477.051	2.33
477.253	2.21
477.455	2.01
477.657	1.98
477.859	2.14
478.061	2.16
478.263	2.01
478.465	1.96
478.667	1.82
478.869	1.72
479.071	1.88
479.273	2.04
479.475	2.35
479.677	2.56
479.879	2.43
480.081	2.35
480.283	2.41
480.485	2.59
480.686	2.53
480.888	2.72
481.09	2.71
481.292	2.58
481.494	2.59
481.695	2.39
481.897	2.28
482.099	2.41
482.301	2.39
482.502	2.31
482.704	2.3
482.906	2.31
483.107	2.24
483.309	2.3
483.511	2.34
483.712	2.29
483.914	2.29
484.115	2.28
484.317	2.25
484.519	2.26
484.72	2.33
484.922	2.27
485.123	2.27
485.325	2.36
485.526	2.35
485.728	2.39
485.929	2.45
486.131	2.44
486.332	2.42
486.534	2.52
486.735	2.42
486.936	2.28
487.138	2.29
487.339	2.32
487.541	2.29
487.742	2.28
487.943	2.27
488.144	2.24
488.346	2.26
488.547	2.26
488.748	2.15
488.95	2.23
489.151	2.26
489.352	2.29
489.553	2.27
489.755	2.19
489.956	2.21
490.157	2.13
490.358	2.07
490.559	2.08
490.76	2.1
490.961	2.21
491.163	2.2
491.364	2.26
491.565	2.24
491.766	2.23
491.967	2.33
492.168	2.29
492.369	2.38
492.57	2.5
492.771	2.52
492.972	2.54
493.173	2.47
493.374	2.48
493.575	2.53
493.776	2.54
493.976	2.51
494.177	2.57
494.378	2.7
494.579	2.65
494.78	2.45
494.981	2.5
495.182	2.39
495.382	2.44
495.583	2.47
495.784	2.27
495.985	2.14
496.185	2.29
496.386	2.17
496.587	1.94
496.788	1.89
496.988	2.06
497.189	2.07
497.39	2.24
497.59	2.16
497.791	2.07
497.992	2.08
498.192	2.24
498.393	2.27
498.593	2.32
498.794	2.4
498.994	2.46
499.195	2.38
499.395	2.06
499.596	1.94
499.796	1.99
499.997	2.05
500.197	2.12
500.398	2.15
500.598	2.17
500.799	2.06
500.999	2.05
501.199	1.9
501.4	2.19
501.6	2.66
501.801	2.75
502.001	2.8
502.201	2.95
502.402	3.11
502.602	2.96
502.802	2.9
503.002	2.86
503.203	2.9
503.403	3.03
503.603	2.87
503.803	2.66
504.003	2.61
504.204	2.63
504.404	2.56
504.604	2.52
504.804	2.48
505.004	2.28
505.204	2.44
505.404	2.34
505.604	2.33
505.804	2.22
506.005	2.12
506.205	2.13
506.405	2.18
506.605	1.93
506.805	1.72
507.005	1.79
507.204	1.99
507.404	2
507.604	2.18
507.804	2.3
508.004	2.35
508.204	2.46
508.404	2.62
508.604	2.4
508.804	2.65
509.003	2.76
509.203	2.74
509.403	2.71
509.603	2.67
509.803	2.55
510.002	2.56
510.202	2.67
510.402	2.57
510.602	2.51
510.801	2.69
511.001	2.68
511.201	2.82
511.4	2.94
511.6	2.83
511.8	2.95
511.999	3.07
512.199	2.97
512.398	2.87
512.598	3
512.797	3.14
512.997	3.12
513.197	3.14
513.396	3.04
513.596	2.93
513.795	3.05
513.994	2.91
514.194	3.01
514.393	3.07
514.593	3.05
514.792	3.04
514.992	2.86
515.191	2.95
515.39	2.81
515.59	2.94
515.789	3.02
515.988	3
516.188	2.97
516.387	2.8
516.586	2.69
516.786	2.68
516.985	2.76
517.184	2.72
517.383	2.69
517.582	2.81
517.782	2.79
517.981	2.79
518.18	2.88
518.379	3.03
518.578	3
518.777	3.03
518.976	3.05
519.176	3.08
519.375	3.19
519.574	3.19
519.773	3.2
519.972	3.16
520.171	3.11
520.37	3.09
520.569	2.85
520.768	3.01
520.967	3.09
521.166	3.03
521.365	2.9
521.564	2.9
521.762	2.89
521.961	2.88
522.16	2.88
522.359	2.94
522.558	2.78
522.757	3.05
522.956	2.97
523.154	2.84
523.353	2.98
523.552	2.96
523.751	2.66
523.949	2.7
524.148	2.65
524.347	2.71
524.546	2.84
524.744	3
524.943	2.95
525.142	2.92
525.34	3.02
525.539	2.95
525.737	3
525.936	3.2
526.135	3.09
526.333	3.09
526.532	2.98
526.73	2.94
526.929	2.93
527.127	2.9
527.326	2.94
527.524	2.84
527.723	2.82
527.921	2.85
528.12	2.81
528.318	2.9
528.516	2.9
528.715	3
528.913	2.99
529.112	3
529.31	2.98
529.508	2.93
529.707	3.03
529.905	3.05
530.103	3
530.301	3.04
530.5	3.13
530.698	3.27
530.896	3.28
531.094	3.3
531.293	3.36
531.491	3.47
531.689	3.59
531.887	3.63
532.085	3.68
532.283	3.75
532.481	3.83
532.68	3.69
532.878	3.55
533.076	3.49
533.274	3.45
533.472	3.38
533.67	3.35
533.868	3.32
534.066	3.34
534.264	3.38
534.462	3.38
534.66	3.35
534.858	3.43
535.056	3.48
535.253	3.46
535.451	3.46
535.649	3.49
535.847	3.46
536.045	3.44
536.243	3.45
536.441	3.42
536.638	3.43
536.836	3.39
537.034	3.3
537.232	3.22
537.43	3.42
537.627	3.47
537.825	3.56
538.023	3.72
538.22	3.8
538.418	3.76
538.616	3.74
538.813	3.84
539.011	3.89
539.209	3.92
539.406	4.18
539.604	4.08
539.801	4.21
539.999	4.25
540.196	4.28
540.394	4.38
540.591	4.34
540.789	4.4
540.986	4.41
541.184	4.42
541.381	4.56
541.579	4.48
541.776	4.48
541.974	4.48
542.171	4.5
542.368	4.45
542.566	4.43
542.763	4.46
542.96	4.46
543.158	4.39
543.355	4.39
543.552	4.3
543.75	4.39
543.947	4.52
544.144	4.46
544.341	4.39
544.539	4.36
544.736	4.33
544.933	4.43
545.13	4.45
545.327	4.57
545.524	4.51
545.722	4.53
545.919	4.47
546.116	4.41
546.313	4.43
546.51	4.5
546.707	4.59
546.904	4.72
547.101	4.78
547.298	4.77
547.495	4.74
547.692	4.76
547.889	4.84
548.086	4.86
548.283	4.95
548.48	4.97
548.677	5
548.874	5.06
549.07	4.96
549.267	5.02
549.464	5.18
549.661	5.37
549.858	5.64
550.055	5.68
550.251	5.68
550.448	5.73
550.645	5.87
550.842	5.83
551.038	5.9
551.235	6.03
551.432	5.86
551.628	5.84
551.825	5.79
552.022	5.74
552.218	5.7
552.415	5.81
552.612	5.69
552.808	5.75
553.005	5.7
553.201	5.62
553.398	5.72
553.594	5.76
553.791	5.87
553.987	5.79
554.184	5.7
554.38	5.88
554.577	5.95
554.773	6.05
554.97	6.14
555.166	6.36
555.362	6.56
555.559	6.44
555.755	6.52
555.952	6.54
556.148	6.95
556.344	7.05
556.541	7.07
556.737	6.86
556.933	6.85
557.129	6.65
557.326	6.58
557.522	6.6
557.718	6.64
557.914	6.77
558.11	6.41
558.307	6.25
558.503	6.32
558.699	6.3
558.895	6.76
559.091	6.94
559.287	7.16
559.483	7.17
559.679	7.21
559.876	7.27
560.072	7.23
560.268	7.62
560.464	7.64
560.66	7.57
560.856	7.6
561.052	7.57
561.247	7.58
561.443	7.64
561.639	7.71
561.835	7.83
562.031	7.98
562.227	8.42
562.423	8.4
562.619	8.55
562.815	8.75
563.01	8.71
563.206	8.66
563.402	8.57
563.598	8.54
563.793	8.87
563.989	8.64
564.185	8.48
564.381	8.13
564.576	8.25
564.772	8.12
564.968	8.12
565.163	8.27
565.359	8.38
565.555	8.56
565.75	8.63
565.946	8.4
566.141	8.47
566.337	8.68
566.532	8.81
566.728	8.95
566.923	8.93
567.119	9.1
567.314	9.06
567.51	8.88
567.705	8.85
567.901	8.68
568.096	8.73
568.292	9.04
568.487	8.9
568.682	9.01
568.878	9
569.073	9.01
569.268	8.97
569.464	9.18
569.659	9.34
569.854	9.36
570.05	9.66
570.245	9.81
570.44	9.75
570.635	9.95
570.831	9.99
571.026	9.77
571.221	9.94
571.416	9.79
571.611	9.74
571.806	9.82
572.002	10.04
572.197	9.87
572.392	9.74
572.587	9.54
572.782	9.52
572.977	9.61
573.172	9.93
573.367	9.97
573.562	10.25
573.757	10.48
573.952	10.43
574.147	10.27
574.342	10.5
574.537	10.57
574.732	10.78
574.927	10.79
575.121	10.67
575.316	10.54
575.511	10.58
575.706	10.41
575.901	10.37
576.096	10.34
576.29	10.31
576.485	10.28
576.68	10.53
576.875	10.61
577.069	10.73
577.264	10.74
577.459	10.9
577.654	10.75
577.848	10.72
578.043	10.48
578.238	10.61
578.432	10.72
578.627	10.63
578.821	10.26
579.016	9.95
579.21	9.9
579.405	9.81
579.6	9.81
579.794	9.85
579.989	9.79
580.183	9.8
580.378	9.65
580.572	9.75
580.766	10.06
580.961	10.37
581.155	10.44
581.35	10.31
581.544	10.31
581.738	10.45
581.933	10.93
582.127	11.21
582.321	11.37
582.516	11.44
582.71	11.59
582.904	11.52
583.099	11.68
583.293	11.78
583.487	11.88
583.681	11.93
583.875	11.78
584.07	11.39
584.264	11.53
584.458	11.44
584.652	11.58
584.846	11.33
585.04	11.62
585.234	11.41
585.428	11.66
585.623	11.45
585.817	11.4
586.011	11.47
586.205	11.64
586.399	11.57
586.593	11.64
586.787	11.5
586.981	11.67
587.174	11.36
587.368	11.28
587.562	11.39
587.756	11.84
587.95	12.09
588.144	12.17
588.338	12.11
588.532	11.96
588.725	11.81
588.919	11.98
589.113	11.92
589.307	11.95
589.501	11.92
589.694	11.63
589.888	11.4
590.082	11.62
590.275	11.55
590.469	11.47
590.663	11.49
590.856	11.64
591.05	11.58
591.244	11.64
591.437	11.92
591.631	11.9
591.824	12.09
592.018	12.61
592.212	12.29
592.405	12.1
592.599	12.55
592.792	12.54
592.986	12.83
593.179	13.03
593.372	13.12
593.566	12.88
593.759	13.2
593.953	13.29
594.146	12.72
594.339	12.67
594.533	12.87
594.726	12.61
594.92	12.56
595.113	12.4
595.306	12.46
595.499	12.12
595.693	12.39
595.886	12.27
596.079	12.35
596.272	12.49
596.466	12.69
596.659	12.63
596.852	12.47
597.045	12.69
597.238	12.59
597.431	12.46
597.624	12.77
597.818	12.59
598.011	12.49
598.204	12.33
598.397	12.47
598.59	12.36
598.783	12.33
598.976	12.51
599.169	12.41
599.362	12.42
599.555	12.79
599.748	12.94
599.941	12.77
600.134	13.15
600.326	13.1
600.519	12.8
600.712	12.8
600.905	13.25
601.098	12.96
601.291	13.06
601.483	13.15
601.676	12.81
601.869	12.54
602.062	12.66
602.255	12.52
602.447	12.7
602.64	12.84
602.833	12.89
603.025	12.34
603.218	12.6
603.411	12.66
603.603	12.79
603.796	12.85
603.989	12.82
604.181	12.94
604.374	13.08
604.566	13.05
604.759	13.14
604.951	13.24
605.144	13.62
605.336	13.53
605.529	13.56
605.721	13.43
605.914	13.5
606.106	13.43
606.299	13.35
606.491	13.17
606.683	13.1
606.876	13.13
607.068	13.07
607.26	12.82
607.453	12.8
607.645	12.61
607.837	12.72
608.03	12.56
608.222	12.75
608.414	12.83
608.606	12.96
608.799	13.07
608.991	12.97
609.183	12.75
609.375	12.85
609.567	12.9
609.759	12.94
609.952	12.86
610.144	12.99
610.336	13.18
610.528	13.32
610.72	12.98
610.912	12.92
611.104	13.06
611.296	13.26
611.488	13.18
611.68	13.14
611.872	13.21
612.064	13.27
612.256	13.06
612.448	12.9
612.64	12.75
612.832	13.06
613.023	13.11
613.215	13.08
613.407	12.89
613.599	13.1
613.791	13.06
613.983	12.82
614.174	12.88
614.366	12.87
614.558	13.08
614.75	12.93
614.941	12.56
615.133	12.31
615.325	11.93
615.516	11.87
615.708	11.97
615.9	12.38
616.091	13.01
616.283	13.06
616.475	13.12
616.666	13.07
616.858	13.27
617.049	13.57
617.241	13.98
617.432	14.39
617.624	14.67
617.815	14.44
618.007	14.04
618.198	13.74
618.39	13.87
618.581	13.8
618.773	13.45
618.964	13.55
619.155	13.49
619.347	13.29
619.538	13.42
619.729	13.19
619.921	13.36
620.112	13.66
620.303	13.65
620.494	13.32
620.686	13.57
620.877	13.77
621.068	13.68
621.259	13.8
621.451	13.78
621.642	13.41
621.833	13.57
622.024	13.36
622.215	13.01
622.406	12.81
622.597	13.04
622.788	12.92
622.98	12.95
623.171	12.6
623.362	12.92
623.553	12.81
623.744	13.05
623.935	12.95
624.126	12.75
624.317	13.19
624.508	13.41
624.698	13.29
624.889	13.37
625.08	13.61
625.271	13.73
625.462	13.43
625.653	13.41
625.844	13.28
626.034	13.23
626.225	13.84
626.416	13.84
626.607	13.74
626.798	13.86
626.988	14.25
627.179	14.08
627.37	14.21
627.56	14.21
627.751	14.32
627.942	14.42
628.132	14.52
628.323	14.36
628.514	14.13
628.704	14.47
628.895	14.45
629.085	13.79
629.276	13.64
629.466	13.3
629.657	13.36
629.847	13.45
630.038	13.61
630.228	13.6
630.419	13.52
630.609	13.87
630.8	13.5
630.99	13.34
631.181	13.72
631.371	13.91
631.561	14.01
631.752	13.94
631.942	13.95
632.132	13.69
632.323	13.94
632.513	13.9
632.703	13.77
632.893	13.72
633.084	14.29
633.274	14.22
633.464	14.4
633.654	14.43
633.844	14.46
634.034	14.51
634.225	14.59
634.415	14.13
634.605	13.99
634.795	14.06
634.985	14.02
635.175	13.57
635.365	13.44
635.555	13.39
635.745	13.37
635.935	13.34
636.125	13.06
636.315	13.18
636.505	13.54
636.695	13.35
636.885	13.16
637.075	13.41
637.265	13.21
637.455	12.76
637.644	12.5
637.834	12.74
638.024	12.9
638.214	13.04
638.404	12.51
638.593	12.57
638.783	12.71
638.973	12.76
639.163	12.54
639.352	12.77
639.542	13.4
639.732	13.14
639.921	13.21
640.111	13.45
640.301	13.34
640.49	13.47
640.68	13.27
640.87	13.62
641.059	13.75
641.249	14.22
641.438	14.39
641.628	13.94
641.817	14.69
642.007	14.78
642.196	14.34
642.386	14.5
642.575	14.57
642.764	14.63
642.954	14.23
643.143	14.04
643.333	13.51
643.522	12.92
643.711	13.68
643.901	13.01
644.09	12.83
644.279	13.17
644.469	13.15
644.658	13.29
644.847	13.39
645.036	13.88
645.226	14.09
645.415	14.6
645.604	15.14
645.793	14.94
645.982	15.23
646.171	15.13
646.361	15.08
646.55	15.09
646.739	15.2
646.928	14.87
647.117	14.69
647.306	14.2
647.495	13.89
647.684	13.66
647.873	13.8
648.062	13.83
648.251	14.25
648.44	13.98
648.629	14.08
648.818	14.21
649.007	14.47
649.196	14.49
649.384	14.89
649.573	14.91
649.762	14.86
649.951	14.69
650.14	14.82
650.328	14.95
650.517	15.03
650.706	14.7
650.895	14.61
651.083	14.85
651.272	14.79
651.461	14.8
651.65	15.17
651.838	15.3
652.027	15.19
652.216	15.16
652.404	15.23
652.593	15.53
652.781	15.79
652.97	15.89
653.158	15.56
653.347	15.46
653.535	15.33
653.724	14.99
653.912	15.1
654.101	15.34
654.289	14.88
654.478	14.58
654.666	13.74
654.855	13.53
655.043	13.33
655.231	13.85
655.42	14.39
655.608	14.4
655.796	14.63
655.985	14.7
656.173	14.8
656.361	15.23
656.55	15.15
656.738	16.14
656.926	16.3
657.114	16.35
657.302	16.01
657.491	15.5
657.679	15.51
657.867	15.41
658.055	15.09
658.243	14.91
658.431	14.88
658.619	15.11
658.807	15.1
658.996	15.15
659.184	14.95
659.372	14.98
659.56	14.88
659.748	14.73
659.936	14.55
660.124	14.81
660.311	14.83
660.499	15.1
660.687	15.02
660.875	14.77
661.063	14.56
661.251	14.9
661.439	14.79
661.627	15.08
661.814	15.62
662.002	16.12
662.19	16.09
662.378	15.9
662.565	15.2
662.753	14.78
662.941	14.91
663.129	15.6
663.316	15.37
663.504	15.33
663.692	15.28
663.879	15.56
664.067	15.03
664.254	15.51
664.442	15.6
664.63	15.98
664.817	16.18
665.005	16.22
665.192	15.75
665.38	15.69
665.567	15.75
665.755	16.04
665.942	15.28
666.13	15.48
666.317	14.87
666.504	15.07
666.692	15.29
666.879	15.16
667.067	14.86
667.254	15.12
667.441	15.25
667.629	15.58
667.816	15.3
668.003	15.66
668.19	15.1
668.378	15.2
668.565	15.52
668.752	15.06
668.939	14.97
669.127	15.26
669.314	15.17
669.501	15.14
669.688	14.54
669.875	14.25
670.062	14.13
670.249	14.71
670.436	14.65
670.623	14.56
670.81	14.79
670.997	15.58
671.184	15.2
671.371	15.32
671.558	15.17
671.745	15.77
671.932	15.87
672.119	16.08
672.306	15.95
672.493	15.99
672.68	15.89
672.867	15.7
673.054	15.1
673.24	15.55
673.427	15.4
673.614	15.36
673.801	15.32
673.988	15.66
674.174	15.65
674.361	15.57
674.548	15.56
674.734	15.39
674.921	16.21
675.108	16.31
675.294	16.41
675.481	16.74
675.668	16.8
675.854	16.65
676.041	16.76
676.227	16.38
676.414	16.83
676.601	17.36
676.787	17.13
676.974	16.97
677.16	16.84
677.347	16.9
677.533	16.53
677.719	16.71
677.906	16.51
678.092	16.24
678.279	16.65
678.465	16.42
678.651	15.88
678.838	15.99
679.024	14.82
679.21	15.1
679.397	15.25
679.583	15.21
679.769	15.46
679.955	15.95
680.142	16.01
680.328	15.7
680.514	15.29
680.7	15.32
680.886	15.47
681.073	16.29
681.259	15.84
681.445	15.68
681.631	15.96
681.817	15.57
682.003	15.75
682.189	15.66
682.375	15.81
682.561	16.08
682.747	16.2
682.933	16.12
683.119	15.82
683.305	16.25
683.491	16.05
683.677	15.85
683.863	16.12
684.049	15.58
684.235	15.65
684.42	15.31
684.606	15.41
684.792	15.48
684.978	15.79
685.164	16.07
685.349	15.8
685.535	15.52
685.721	14.91
685.907	14.62
686.092	14.65
686.278	15.07
686.464	15.42
686.649	15.93
686.835	15.66
687.021	14.89
687.206	15.16
687.392	15.4
687.577	15.55
687.763	15.98
687.948	16.11
688.134	15.84
688.319	15.7
688.505	15.77
688.69	15.71
688.876	16.02
689.061	16.29
689.247	15.83
689.432	15.53
689.618	15.68
689.803	15.88
689.988	15.38
690.174	15.8
690.359	15.88
690.544	15.48
690.73	15.35
690.915	15.12
691.1	14.93
691.285	14.92
691.471	15.67
691.656	15.63
691.841	15.74
692.026	16.61
692.211	16.81
692.396	16.41
692.582	17.01
692.767	16.91
692.952	17.48
693.137	17.2
693.322	17.62
693.507	17.13
693.692	17.56
693.877	17.14
694.062	17.23
694.247	16.82
694.432	17.12
694.617	16.83
694.802	16.46
694.987	16.4
695.172	17.27
695.357	16.9
695.541	16.52
695.726	15.89
695.911	15.97
696.096	15.84
696.281	15.53
696.466	15.96
696.65	15.89
696.835	16.39
697.02	16.39
697.204	15.77
697.389	15.98
697.574	16.23
697.759	16.53
697.943	16.55
698.128	16.7
698.312	17.22
698.497	16.9
698.682	16.53
698.866	16.27
699.051	16.39
699.235	17.18
699.42	17.17
699.604	17.27
699.789	17.37
699.973	17.63
700.158	17.42
700.342	17.06
700.527	16.78
700.711	17.64
700.895	17.89
701.08	17.43
701.264	17.01
701.448	16.76
701.633	17.67
701.817	17.17
702.001	17.13
702.186	17.48
702.37	17.51
702.554	18.43
702.738	18.62
702.923	19.13
703.107	19.65
703.291	19.79
703.475	20.15
703.659	19.3
703.843	19.59
704.027	19.38
704.212	18.51
704.396	18.79
704.58	18.28
704.764	17.36
704.948	17.01
705.132	16.93
705.316	16.71
705.5	16.13
705.684	16.4
705.868	16.13
706.052	17.08
706.235	16.79
706.419	16.68
706.603	16.65
706.787	17.39
706.971	17.42
707.155	16.99
707.339	17.68
707.522	18.09
707.706	17.41
707.89	17.62
708.074	16.74
708.257	17.35
708.441	17.62
708.625	17.21
708.808	17.11
708.992	17.01
709.176	16.9
709.359	16.35
709.543	16.66
709.727	17.23
709.91	17.43
710.094	17.92
710.277	17.93
710.461	17.1
710.644	18.38
710.828	18.59
711.011	18
711.195	18.69
711.378	18.54
711.562	19.05
711.745	18.89
711.928	19
712.112	19.2
712.295	19.76
712.478	20.33
712.662	19.67
712.845	19.83
713.028	20.04
713.212	19.56
713.395	19.51
713.578	18.89
713.761	18.78
713.945	18.91
714.128	18.46
714.311	18.7
714.494	18.5
714.677	19.01
714.86	18.63
715.043	18.88
715.227	18.61
715.41	18.75
715.593	19.26
715.776	19.41
715.959	18.8
716.142	18.79
716.325	17.85
716.508	18.06
716.691	17.42
716.874	16.95
717.057	16.5
717.239	17.32
717.422	17.15
717.605	16.6
717.788	16.34
717.971	16.4
718.154	16.34
718.337	16.12
718.519	16.37
718.702	15.71
718.885	15.48
719.068	15.62
719.25	14.63
719.433	14.9
719.616	14.91
719.798	15.37
719.981	15.49
720.164	15.38
720.346	15.85
720.529	15.77
720.712	15.59
720.894	16.12
721.077	16.57
721.259	16.93
721.442	16.61
721.624	16.1
721.807	15.96
721.989	16.36
722.172	16.87
722.354	16.63
722.537	16.41
722.719	17.08
722.901	17.94
723.084	18.56
723.266	18.42
723.448	18.58
723.631	18.31
723.813	17.29
723.995	17.6
724.178	17.27
724.36	17.53
724.542	16.85
724.724	17.1
724.907	15.83
725.089	14.71
725.271	15.72
725.453	15.26
725.635	15.66
725.817	16.84
725.999	16.55
726.181	16.25
726.364	17.12
726.546	17.84
726.728	17.57
726.91	17.86
727.092	18.18
727.274	17.96
727.456	18.64
727.638	19.65
727.819	19.88
728.001	19.56
728.183	20.06
728.365	19.9
728.547	18.92
728.729	19.28
728.911	18.83
729.093	18.51
729.274	18.36
729.456	17.77
729.638	16.73
729.82	16.71
730.001	16.28
730.183	16.61
730.365	16.57
730.546	17.39
730.728	17.51
730.91	17.65
731.091	19.37
731.273	18.36
731.455	18.22
731.636	18.83
731.818	18.12
731.999	17.81
732.181	17.61
732.362	17.8
732.544	18.26
732.725	17.96
732.907	18.09
733.088	16.31
733.27	16.3
733.451	16.55
733.633	16.4
733.814	16.62
733.995	17.41
734.177	17.8
734.358	16.9
734.539	16.53
734.721	15.62
734.902	15.73
735.083	15.77
735.264	17.24
735.446	17.28
735.627	17.2
735.808	17.19
735.989	17.71
736.17	16.55
736.351	17.71
736.533	17.97
736.714	17.71
736.895	17.66
737.076	18.71
737.257	17.95
737.438	18.4
737.619	19.54
737.8	19.52
737.981	20.13
738.162	19.4
738.343	18.98
738.524	19.54
738.705	19.93
738.886	20.83
739.067	20.63
739.247	20.83
739.428	20.34
739.609	19.79
739.79	20.1
739.971	19.64
740.151	21.01
740.332	21.68
740.513	20.72
740.694	20.97
740.874	20.09
741.055	20.11
741.236	20.25
741.417	20.52
741.597	19.76
741.778	20.34
741.958	18.9
742.139	19.25
742.32	16.67
742.5	17.06
742.681	17.66
742.861	16.65
743.042	16.89
743.222	17.47
743.403	17.23
743.583	18.25
743.764	16.57
743.944	17.29
744.124	16.51
744.305	18.81
744.485	19.72
744.666	19.48
744.846	21.28
745.026	21.19
745.207	19.75
745.387	20.2
745.567	20.17
745.747	20.5
745.928	20.09
746.108	19.26
746.288	18.85
746.468	17.55
746.648	17.14
746.829	16.34
747.009	15.74
747.189	16.75
747.369	16.9
747.549	16.66
747.729	17.31
747.909	18.73
748.089	20.07
748.269	20.1
748.449	20.12
748.629	21.39
748.809	22.25
748.989	22.58
749.169	20.44
749.349	19.3
749.529	18.35
749.709	17.78
749.889	16.51
750.068	16.35
750.248	16.31
750.428	16.27
750.608	15.12
750.788	14.23
750.967	12.96
751.147	14.49
751.327	14.88
751.507	14.14
751.686	14.95
751.866	15.55
752.046	14.3
752.225	14.61
752.405	14.94
752.585	14.62
752.764	15.62
752.944	16.68
753.123	18.39
753.303	19.48
753.482	20.11
753.662	19
753.841	18.87
754.021	19.21
754.2	18.67
754.38	18.08
754.559	19.09
754.739	18.55
754.918	18.61
755.097	17.81
755.277	17.11
755.456	17.38
755.635	17.4
755.815	15.79
755.994	17.19
756.173	18.59
756.352	19.23
756.532	19.67
756.711	18.76
756.89	19
757.069	17.75
757.248	18.38
757.427	18.99
757.607	19.7
757.786	20.93
757.965	19.78
758.144	17.09
758.323	16.97
758.502	15.75
758.681	17.25
758.86	16.25
759.039	16.53
759.218	16.37
759.397	15.87
759.576	15.97
759.755	16.74
759.934	17.24
760.113	18.06
760.291	17.29
760.47	17.36
760.649	18.25
760.828	18.25
761.007	17.86
761.186	17.52
761.364	17.6
761.543	17.59
761.722	18.15
761.901	18.09
762.079	19.73
762.258	20.09
762.437	20.24
762.615	18.77
762.794	19.32
762.972	19.42
763.151	18.62
763.33	18.83
763.508	19.11
763.687	19.01
763.865	19.25
764.044	18.12
764.222	18.54
764.401	18.7
764.579	18.79
764.758	18.37
764.936	19.7
765.114	20.26
765.293	19.71
765.471	18.6
765.65	17.25
765.828	16.85
766.006	17.09
766.184	17.42
766.363	17.79
766.541	18.47
766.719	18.13
766.898	17.25
767.076	18.08
767.254	17.95
767.432	19
767.61	19.38
767.788	19.55
767.967	19.36
768.145	18.94
768.323	18.18
768.501	17.35
768.679	17.69
768.857	16.74
769.035	16.96
769.213	17.44
769.391	18.91
769.569	20.04
769.747	20.55
769.925	20.63
770.103	18.53
770.281	21
770.459	23.09
770.636	23.66
770.814	23.69
770.992	22.54
771.17	22.09
771.348	23.06
771.525	22.91
771.703	21.81
771.881	22.72
772.059	24.66
772.236	21.92
772.414	20.44
772.592	20.06
772.769	21.75
772.947	22.61
773.125	23.38
773.302	20.8
773.48	21.31
773.657	21.9
773.835	22.13
774.013	23.38
774.19	24.09
774.368	22.99
774.545	22.5
774.723	21.04
774.9	20.34
775.077	20.78
775.255	21.88
775.432	21.27
775.61	19.45
775.787	20.52
775.964	18.24
776.142	16.61
776.319	16.05
776.496	19.96
776.674	20.23
776.851	19.91
777.028	19.72
777.205	19.73
777.382	19.05
777.56	19.86
777.737	19.73
777.914	21.46
778.091	22.52
778.268	24.08
778.445	21.06
778.622	21.86
778.8	22.01
778.977	23.3
779.154	22.18
779.331	20.15
779.508	20.31
779.685	19.77
779.862	20.86
780.038	20.53
780.215	20.73
780.392	20.66
780.569	20.41
780.746	21.12
780.923	21.84
781.1	19.47
781.277	19.45
781.453	17.06
781.63	16.65
781.807	18.07
781.984	18.38
782.16	18.02
782.337	19.26
782.514	18.39
782.691	17.72
782.867	14.49
783.044	18.01
783.221	22.06
783.397	24.68
783.574	22.92
783.75	19.8
783.927	20.43
784.103	18.68
784.28	16.88
784.456	17.01
784.633	16.8
784.809	15.22
784.986	15.91
785.162	15.04
785.339	15.27
785.515	16.97
785.692	15.79
785.868	17.18
786.044	16.29
786.221	17.84
786.397	18.31
786.573	18.18
786.749	19.11
786.926	17.28
787.102	17.05
787.278	17.17
787.454	16.58
787.631	18.75
787.807	16.15
787.983	17.04
788.159	17.75
788.335	16.28
788.511	18.12
788.687	18.68
788.863	18.25
789.039	14.82
789.216	13.07
789.392	15.78
789.568	16.79
789.744	18.17
789.919	17.74
790.095	16.8
790.271	16.66
790.447	14.81
790.623	18.78
790.799	19.47
790.975	25.3
791.151	28.18
791.327	25.18
791.502	23
791.678	21.76
791.854	20.57
792.03	20.26
792.205	20.45
792.381	20.14
792.557	15.61
792.733	14.36
792.908	13.85
793.084	14.68
793.259	14.74
793.435	13.16
793.611	14.02
793.786	17.24
793.962	15.99
794.137	19.09
794.313	21.19
794.488	21.77
794.664	25.5
794.839	22.84
795.015	21.86
795.19	23.57
795.366	26.08
795.541	26.25
795.716	23.17
795.892	22.9
796.067	20.01
796.242	22.3
796.418	24.52
796.593	20.5
796.768	20.24
796.944	19.04
797.119	18.73
797.294	16.66
797.469	18.28
797.644	22.09
797.82	24.48
797.995	26.17
798.17	23.78
798.345	23.34
798.52	25.12
798.695	25.78
798.87	23.1
799.045	23.06
799.22	22.07
799.395	23.14
799.57	21.13
799.745	20.15
799.92	22.2
800.095	21.98
800.27	21.55
800.445	21.65
800.62	21.68
800.795	26.07
800.97	24.45
801.145	26.96
801.319	24.36
801.494	25.53
801.669	25.21
801.844	22.6
802.018	23.02
802.193	21.94
802.368	21.69
802.543	23.99
802.717	25.43
802.892	24.72
803.067	27.32
803.241	28.4
803.416	27.95
803.59	28.55
803.765	26.49
803.94	25.51
804.114	26.19
804.289	28.91
804.463	24.51
804.638	22.45
804.812	26.78
804.986	21.22
805.161	18.24
805.335	16.03
805.51	13.76
805.684	17.72
805.858	17.42
806.033	14.63
806.207	10.69
806.381	12.69
806.556	11.3
806.73	7.77
806.904	11.49
807.078	15.45
807.253	17.35
807.427	17.42
807.601	19.67
807.775	19.3
807.949	23.05
808.123	24.2
808.298	25.3
808.472	22.87
808.646	22.94
808.82	21.52
808.994	21.79
809.168	20.43
809.342	19.94
809.516	18.99
809.69	19.76
809.864	20.81
810.038	23.1
810.212	22.93
810.385	29.13
810.559	30.37
810.733	28.2
810.907	25.54
811.081	27.63
811.255	32.29
811.428	34
811.602	34.37
811.776	30.61
811.95	27.27
812.123	28.11
812.297	24.76
812.471	24.48
812.644	30.18
812.818	32.71
812.992	31.75
813.165	29.85
813.339	26.34
813.512	26.12
813.686	26.98
813.86	28.85
814.033	31.74
814.207	33.49
814.38	36.2
814.554	34.51
814.727	30.98
814.9	30.11
815.074	30.35
815.247	31.78
815.421	31.68
815.594	33.04
815.767	32.4
815.941	25.96
816.114	23.77
816.287	20.66
816.46	14.82
816.634	10.46
816.807	12.06
816.98	11.3
817.153	4.68
817.327	4.18
817.5	2.17
817.673	5.68
817.846	11.19
818.019	10.02
818.192	10.63
818.365	11.76
818.538	16
818.711	13.69
818.884	16.49
819.057	16.71
819.23	17.28
819.403	18.76
819.576	16.71
819.749	12.48
819.922	16.25
820.095	17.28
820.268	18.24
820.441	18.98
820.614	20.57
820.786	21.94
820.959	21.34
821.132	23.04
821.305	23.92
821.477	24.51
821.65	25.83
821.823	24.93
821.996	24.17
822.168	25
822.341	25.14
822.514	25.22
822.686	24.82
822.859	25.01
823.031	24.44
823.204	24.17
823.376	23.16
823.549	22.71
823.722	23.73
823.894	23.89
824.067	22.99
824.239	23.23
824.411	23.39
824.584	23.5
824.756	24.06
824.929	24.63
825.101	23.68
825.273	23.31
825.446	23.13
825.618	21.46
825.79	21.82
825.963	23.34
826.135	23.43
826.307	22.19
826.479	21.43
826.652	21.7
826.824	20.36
826.996	21.42
827.168	23.12
827.34	24.26
827.512	25.11
827.684	25.09
827.856	24.98
828.029	24.77
828.201	26.3
828.373	27.13
828.545	26.65
828.717	28.9
828.889	29.04
829.061	29.9
829.232	30.99
829.404	30.61
829.576	30.27
829.748	30.63
829.92	31.52
830.092	30.26
830.264	28.26
830.436	27.28
830.607	25
830.779	25.77
830.951	23.68
831.123	20.66
831.294	21.01
831.466	22.65
831.638	22.92
831.809	20.23
831.981	22.87
832.153	28.66
832.324	30.93
832.496	29.97
832.667	31.7
832.839	32.67
833.011	28.07
833.182	28.04
833.354	24.34
833.525	26.8
833.697	27.13
833.868	24.5
834.039	22.19
834.211	22.03
834.382	22.53
834.554	20.7
834.725	20.71
834.896	21.77
835.068	23.34
835.239	25.8
835.41	22.94
835.581	22.33
835.753	21.32
835.924	20.78
836.095	18.48
836.266	19.11
836.438	20.16
836.609	18.85
836.78	22.32
836.951	17.1
837.122	16.12
837.293	14.87
837.464	14.52
837.635	20.61
837.806	17.4
837.977	22.81
838.148	15.84
838.319	15.46
838.49	19.71
838.661	22.48
838.832	31.23
839.003	28.27
839.174	31.31
839.345	33
839.516	31.42
839.687	35.59
839.857	33.72
840.028	41.64
840.199	42.85
840.37	43.94
840.54	36.9
840.711	34.36
840.882	34.84
841.053	37.79
841.223	39.37
841.394	34.87
841.564	33.64
841.735	23.58
841.906	20.93
842.076	22.42
842.247	25.21
842.417	26.28
842.588	27.73
842.758	33.18
842.929	29.54
843.099	28.81
843.27	30.78
843.44	31.81
843.611	39.9
843.781	42.21
843.951	39.23
844.122	34.08
844.292	35.73
844.462	31.95
844.633	31.06
844.803	27.59
844.973	34.73
845.144	33.78
845.314	39.88
845.484	32.38
845.654	29.14
845.824	34.96
845.995	33.79
846.165	30.74
846.335	23.97
846.505	21.12
846.675	14.78
846.845	5.8
847.015	18.98
847.185	11.46
847.355	26.51
847.525	30.53
847.695	20.05
847.865	16.17
848.035	14.34
848.205	23.7
848.375	20.63
848.545	35.72
848.715	40.55
848.884	21.8
849.054	21.72
849.224	21.61
849.394	21.74
849.564	23.77
849.733	30.75
849.903	34.02
850.073	37.34
850.243	43.63
850.412	40.9
850.582	38.35
850.752	38.39
850.921	38.54
851.091	39.75
851.26	34.55
851.43	28.1
851.599	30.63
851.769	32.62
851.939	24.94
852.108	19.55
852.278	25.63
852.447	14.77
852.616	13.52
852.786	16.13
852.955	14.34
853.125	21.27
853.294	29.69
853.463	21.33
853.633	22.18
853.802	23.63
853.971	21.6
854.141	6.22
854.31	24.43
854.479	37.82
854.648	38.07
854.818	41.95
854.987	33.22
855.156	28.43
855.325	31.66
855.494	29.53
855.663	33.54
855.832	41.2
856.001	46.28
856.171	43.72
856.34	50.09
856.509	47.73
856.678	46.58
856.847	53.82
857.016	64.41
857.185	66.16
857.353	65.82
857.522	60.21
857.691	56.58
857.86	71.45
858.029	67.17
858.198	56.64
858.367	55.72
858.535	58.58
858.704	58.14
858.873	47.13
859.042	39.24
859.21	43.52
859.379	46.25
859.548	36.57
859.717	28.01
859.885	27.24
860.054	28.53
860.222	24.36
860.391	19.75
860.56	14.31
860.728	16.47
860.897	25.41
861.065	24.34
861.234	30.78
861.402	39.59
861.571	32.51
861.739	27.84
861.908	17.07
862.076	26.49
862.244	25.05
862.413	31.57
862.581	29.84
862.749	32.24
862.918	21.68
863.086	7.82
863.254	5.76
863.423	16.84
863.591	16.24
863.759	30.37
863.927	31.73
864.096	17.72
864.264	21.17
864.432	26.99
864.6	14.48
864.768	19.79
864.936	26.54
865.104	25.48
865.272	26.91
865.44	34.84
865.608	34.68
865.776	27.48
865.944	39.89
866.112	44.39
866.28	36.38
866.448	46.81
866.616	53.38
866.784	51.28
866.952	50
867.12	46.75
867.288	40.66
867.455	39.03
867.623	40.54
867.791	26.29
867.959	14.01
868.127	16.53
868.294	14.74
868.462	-8.17
868.63	-20.18
868.797	-24.65
868.965	-35.88
869.133	-47.84
869.3	-34.47
869.468	-39.81
869.636	-21.98
869.803	-1.51
869.971	6.13
870.138	-6.18
870.306	13.66
870.473	16.67
870.641	16.52
870.808	17.04
870.975	23.81
871.143	15.63
871.31	29.4
871.478	29.64
871.645	30.12
871.812	31.27
871.98	38.3
872.147	33.84
872.314	30.01
872.482	33.89
872.649	37.92
872.816	33.15
872.983	36.09
873.15	20.4
873.318	13.9
873.485	11.62
873.652	15.35
873.819	23.06
873.986	20.98
874.153	26.49
874.32	21.42
874.487	17.82
874.654	22.38
874.821	17.27
874.988	29.97
875.155	37.04
875.322	43.04
875.489	42.73
875.656	30.32
875.823	34.04
875.99	41.15
876.157	42.17
876.324	43.2
876.49	47.03
876.657	64.68
876.824	60.66
876.991	60.52
877.157	57.04
877.324	44.87
877.491	42.91
877.658	46.59
877.824	32.88
877.991	32.25
878.157	30.29
878.324	24.11
878.491	13.12
878.657	-4.97
878.824	3.64
878.99	-2.92
879.157	5.75
879.323	7.35
879.49	5.9
879.656	11.89
879.823	14.12
879.989	8.94
880.156	4.59
880.322	11.3
880.488	21.89
880.655	25.3
880.821	26.75
880.987	18.6
881.154	21.39
881.32	21.33
881.486	22.08
881.652	26.89
881.819	28.72
881.985	31.42
882.151	31.73
882.317	29.29
882.483	30.42
882.649	31.98
882.816	35.61
882.982	35.33
883.148	34.6
883.314	30.13
883.48	28.66
883.646	27.14
883.812	27.49
883.978	27.6
884.144	27.96
884.31	26.84
884.476	26.43
884.642	24.83
884.807	23.86
884.973	22.92
885.139	24.76
885.305	23.43
885.471	26.41
885.637	27.86
885.802	26.44
885.968	28.87
886.134	29.83
886.3	26.18
886.465	22.7
886.631	21.96
886.797	23.02
886.962	26.45
887.128	27.48
887.293	24.78
887.459	22.42
887.625	19.43
887.79	10.85
887.956	4
888.121	12.17
888.287	14.33
888.452	14.57
888.618	15.52
888.783	9.65
