Data from 2938031_Reflection_2.txt Node
Date: Sun Jul 12 15:01:15 EDT 2015
User: robert
Spectrometer: USB4E03001
Autoset integration time: false
Trigger mode: 4
Integration Time (sec): 1.000000E-1
Scans to average: 10
Electric dark correction enabled: true
Nonlinearity correction enabled: false
Boxcar width: 5
Stray light correction enabled: false
XAxis mode: Wavelengths
Stop averaging: false
Number of Pixels in Spectrum: 3648
>>>>>Begin Spectral Data<<<<<
177.566	81.09
177.785	-50.35
178.005	-1728.57
178.225	790.55
178.445	241.84
178.665	237.41
178.885	34.22
179.105	55.85
179.324	53.91
179.544	140.7
179.764	-84.04
179.984	26.5
180.204	-34.58
180.423	-163.24
180.643	-406.22
180.863	-15360
181.083	-221.37
181.302	-124.13
181.522	-117.28
181.742	-285.6
181.961	-2728.09
182.181	-289.61
182.401	-83.41
182.621	-84.44
182.84	-48.95
183.06	-34.59
183.279	-45.77
183.499	-120.99
183.719	-105.48
183.938	-92.82
184.158	-78.28
184.377	-68.55
184.597	-79.21
184.816	-180.4
185.036	-257.34
185.256	-172.31
185.475	-120.77
185.695	-144.3
185.914	-96.61
186.134	-85.05
186.353	-90.78
186.572	-55.82
186.792	-77.69
187.011	-67.88
187.231	-45.4
187.45	-54.26
187.67	-97.27
187.889	-279.11
188.108	-173.14
188.328	-95.64
188.547	-60.7
188.766	-15.41
188.986	126.49
189.205	198.87
189.424	485.62
189.644	238.58
189.863	1395.02
190.082	420.95
190.302	197.4
190.521	236.97
190.74	500
190.959	170.35
191.178	44.38
191.398	231.62
191.617	-1163.79
191.836	-1377.78
192.055	345.49
192.274	-193.13
192.494	-76.21
192.713	-166.53
192.932	-110.32
193.151	-74.56
193.37	-94.17
193.589	-146.74
193.808	-111.97
194.027	-132.43
194.246	-87.52
194.465	-78.69
194.685	-63.84
194.904	-48.04
195.123	-55.28
195.342	-62.55
195.561	-158.89
195.78	-173.6
195.999	-96.82
196.218	-95.1
196.436	-154.03
196.655	-98.61
196.874	-107.65
197.093	-174.42
197.312	-470.06
197.531	-220.61
197.75	-129.59
197.969	-55.68
198.188	-131.67
198.407	-158.24
198.625	-143.93
198.844	-88.28
199.063	-112.11
199.282	-96.65
199.501	-75.51
199.719	-45.82
199.938	-88.44
200.157	-68.49
200.376	-98.29
200.594	-42.81
200.813	-6.75
201.032	-14.33
201.251	-29.41
201.469	-30.5
201.688	-14.46
201.907	-46.07
202.125	-71.68
202.344	-37.92
202.563	-102.86
202.781	-227
203	-183.97
203.218	-261.76
203.437	11988.37
203.656	-192.04
203.874	-174.2
204.093	-170.72
204.311	-175.03
204.53	-202.36
204.748	-227.57
204.967	-157.19
205.185	-144.85
205.404	-116.82
205.622	-124.63
205.841	-73.53
206.059	-196.72
206.278	-73.87
206.496	-24.58
206.715	3.03
206.933	39.95
207.151	32.9
207.37	31.08
207.588	48.17
207.806	24.01
208.025	11.36
208.243	16.27
208.461	18.53
208.68	14.48
208.898	6.84
209.116	23.15
209.335	6.28
209.553	5.05
209.771	-8.08
209.989	-5
210.208	-4.98
210.426	22.59
210.644	11.25
210.862	2.56
211.081	2.08
211.299	-64.87
211.517	-138.66
211.735	-125.08
211.953	-147.82
212.171	-70.38
212.39	-89.88
212.608	-17.43
212.826	-25.37
213.044	-40.34
213.262	-43.76
213.48	-148.13
213.698	-44.45
213.916	-74.58
214.134	-32.59
214.352	-33.91
214.57	-19.74
214.788	-22.03
215.006	-66.94
215.224	-52.27
215.442	-11.41
215.66	-12.67
215.878	-2.04
216.096	-12.8
216.314	12.27
216.532	10.06
216.75	3.98
216.968	2.34
217.185	-3.85
217.403	5.64
217.621	5.33
217.839	-0.06
218.057	27.7
218.275	39.41
218.492	49.79
218.71	83.12
218.928	102.41
219.146	109.98
219.363	127.95
219.581	233.14
219.799	194.8
220.017	188.47
220.234	152.33
220.452	83.88
220.67	77.57
220.887	72.67
221.105	42.05
221.323	21.05
221.54	9.35
221.758	-6.66
221.976	-26.66
222.193	-32.25
222.411	-62.61
222.629	-39.26
222.846	-28.14
223.064	-44.85
223.281	-31.32
223.499	-13.74
223.716	-1.51
223.934	5.78
224.151	39.08
224.369	49.68
224.586	82.6
224.804	92.46
225.021	87.93
225.239	67.05
225.456	57.79
225.674	66.3
225.891	52.22
226.108	49.76
226.326	37.03
226.543	13.09
226.76	3.27
226.978	-15.91
227.195	-9.29
227.413	-12.37
227.63	-6.01
227.847	-2.7
228.064	0.55
228.282	-2.09
228.499	-4.65
228.716	-1.6
228.934	1.44
229.151	2.67
229.368	2.69
229.585	0.99
229.802	4.21
230.02	5.4
230.237	6.18
230.454	4.72
230.671	5.71
230.888	7.42
231.105	5.85
231.323	7.02
231.54	5
231.757	7
231.974	9.54
232.191	3.09
232.408	1.1
232.625	-2.88
232.842	-6.71
233.059	-5.49
233.276	-6.16
233.493	-3.77
233.71	-7.17
233.927	-9.41
234.144	-9.61
234.361	-7.65
234.578	-4.27
234.795	-9.17
235.012	-8.35
235.229	-7.25
235.446	-6.18
235.663	-4.73
235.879	-8.71
236.096	-11.89
236.313	-6.89
236.53	-5.2
236.747	-6.41
236.964	-9.01
237.181	-2.04
237.397	-3.81
237.614	-3.88
237.831	1.49
238.048	2.06
238.264	4.26
238.481	7.66
238.698	7.51
238.915	5.21
239.131	2.7
239.348	-1.91
239.565	-3.06
239.781	-5.1
239.998	-3.75
240.215	-5.85
240.431	-7.59
240.648	-7.13
240.865	-8.03
241.081	-4.48
241.298	-1.98
241.514	-0.14
241.731	3.08
241.947	3.41
242.164	5.93
242.38	6.59
242.597	6.64
242.814	7.22
243.03	8.76
243.246	9.51
243.463	7.89
243.679	8.63
243.896	8.68
244.112	8.69
244.329	7.36
244.545	7.62
244.762	8.05
244.978	6.97
245.194	5.07
245.411	2.96
245.627	3.47
245.843	4.64
246.06	4.37
246.276	4.38
246.492	4.54
246.709	5.18
246.925	4.13
247.141	5.06
247.357	5.52
247.574	6.66
247.79	7.37
248.006	8.52
248.222	8.98
248.439	8.29
248.655	8.82
248.871	8.48
249.087	8.56
249.303	11.07
249.519	9.68
249.736	9.68
249.952	9.23
250.168	7.92
250.384	5.13
250.6	4.15
250.816	5.32
251.032	4.88
251.248	5.58
251.464	6.7
251.68	3.45
251.896	3.34
252.112	2.58
252.328	1.69
252.544	0.38
252.76	-0.04
252.976	-1.67
253.192	-1.02
253.408	-2.23
253.624	-1.68
253.84	-5.03
254.056	-6.48
254.272	-4.94
254.487	-4.65
254.703	-4.1
254.919	-1.53
255.135	3.09
255.351	4.04
255.567	2.26
255.782	5.06
255.998	3.46
256.214	5.42
256.43	9.05
256.646	7.93
256.861	7.41
257.077	7.05
257.293	6.75
257.508	4.81
257.724	4.67
257.94	4.53
258.155	4.43
258.371	5.19
258.587	6.24
258.802	5.32
259.018	6.4
259.234	6.92
259.449	7.03
259.665	7.29
259.88	7.6
260.096	7.8
260.312	8.61
260.527	8.75
260.743	9.39
260.958	8.35
261.174	8.34
261.389	7.99
261.605	8.26
261.82	7.95
262.036	7.75
262.251	7.46
262.466	9.3
262.682	8.49
262.897	8.26
263.113	7.53
263.328	9.47
263.543	10.94
263.759	11.92
263.974	11.81
264.189	12.61
264.405	12.11
264.62	10.81
264.835	9.11
265.051	9.17
265.266	9.62
265.481	8.97
265.696	8.52
265.912	7.69
266.127	5.29
266.342	4.79
266.557	4.39
266.773	3.77
266.988	5
267.203	4.28
267.418	4.88
267.633	3.99
267.848	4.06
268.064	4.02
268.279	2.44
268.494	2.04
268.709	1.57
268.924	2.72
269.139	3.37
269.354	3.53
269.569	3.37
269.784	1.39
269.999	2.22
270.214	2.84
270.429	2.16
270.644	2.57
270.859	4.12
271.074	4.53
271.289	3.67
271.504	4.95
271.719	4.14
271.934	5.68
272.149	6.83
272.363	6.04
272.578	5.46
272.793	6.59
273.008	7.13
273.223	6.87
273.438	6.55
273.653	7.56
273.867	6.23
274.082	6.16
274.297	5.72
274.512	5.05
274.726	4.51
274.941	4.41
275.156	4.43
275.371	3.71
275.585	3.07
275.8	4.41
276.015	3.73
276.229	3.46
276.444	3.42
276.659	2.25
276.873	2.61
277.088	3.38
277.302	2.66
277.517	2.13
277.732	3.32
277.946	4.5
278.161	2.66
278.375	2.79
278.59	4.05
278.804	5.01
279.019	5.64
279.233	4.31
279.448	4.71
279.662	4.86
279.877	5.59
280.091	3.93
280.306	4.38
280.52	4.58
280.735	3.58
280.949	3.39
281.163	3.31
281.378	3.33
281.592	4.48
281.806	3.97
282.021	4.34
282.235	3.65
282.449	5.28
282.664	2.92
282.878	4.5
283.092	4.82
283.307	5.15
283.521	4.87
283.735	4.39
283.949	4.69
284.164	4.7
284.378	4.49
284.592	5.09
284.806	4.31
285.02	7.01
285.234	5.49
285.449	5.37
285.663	5.44
285.877	5.38
286.091	6.62
286.305	6.54
286.519	6.63
286.733	6.91
286.947	6.53
287.161	6.57
287.375	5.36
287.589	5.45
287.803	5.18
288.017	5.8
288.231	5.76
288.445	5.58
288.659	5.4
288.873	5.24
289.087	5.21
289.301	4.67
289.515	5.35
289.729	6.31
289.943	8.17
290.157	8.5
290.371	7.93
290.584	8.53
290.798	8.66
291.012	9.8
291.226	9.56
291.44	8.97
291.654	9.58
291.867	8.75
292.081	6.75
292.295	5.65
292.509	6.74
292.722	6.88
292.936	6.76
293.15	5.95
293.364	4.2
293.577	4.74
293.791	6.34
294.005	6.59
294.218	7.35
294.432	7.94
294.645	8.73
294.859	8.43
295.073	8.97
295.286	8.53
295.5	8.13
295.713	8.34
295.927	9.04
296.14	8.74
296.354	8.14
296.568	6.69
296.781	8.06
296.994	7.35
297.208	7.27
297.421	6.17
297.635	6.52
297.848	6.05
298.062	6.55
298.275	5.13
298.489	5.13
298.702	6.18
298.915	7.62
299.129	6.31
299.342	5.82
299.555	5.5
299.769	6.37
299.982	5.34
300.195	5.35
300.409	5.28
300.622	6.64
300.835	6.49
301.048	5.96
301.262	5.12
301.475	5.55
301.688	6.36
301.901	6.93
302.115	5.69
302.328	5.89
302.541	5.92
302.754	5.42
302.967	5.78
303.18	4.21
303.393	2.96
303.607	2.88
303.82	3.56
304.033	2.93
304.246	3.71
304.459	4.68
304.672	5.13
304.885	5.08
305.098	5.39
305.311	4.01
305.524	5.21
305.737	5.89
305.95	6.75
306.163	4.36
306.376	4.24
306.589	3.19
306.802	2.36
307.015	0.94
307.228	2.05
307.44	1.03
307.653	1.62
307.866	0.98
308.079	1.78
308.292	1.97
308.505	4.39
308.718	6.24
308.93	6.48
309.143	7.77
309.356	9.73
309.569	8.58
309.781	8.84
309.994	8.69
310.207	9.42
310.42	9.47
310.632	9.37
310.845	9.6
311.058	8.35
311.27	8.26
311.483	7.89
311.696	8.67
311.908	8.79
312.121	8.65
312.333	8.79
312.546	8.44
312.759	7.86
312.971	7.35
313.184	6.47
313.396	7.64
313.609	7.44
313.821	7.11
314.034	3.79
314.246	5.55
314.459	6.76
314.671	5.75
314.884	6.65
315.096	7.82
315.309	8.51
315.521	9.13
315.733	8.26
315.946	9.1
316.158	8.86
316.371	10.28
316.583	9.38
316.795	9.12
317.008	10.85
317.22	10.33
317.432	8.89
317.644	8.76
317.857	8.22
318.069	8.53
318.281	7.1
318.494	8.55
318.706	8.76
318.918	9.08
319.13	8.71
319.342	8.67
319.555	8.28
319.767	8.77
319.979	8.81
320.191	8.71
320.403	8.69
320.615	8.18
320.827	7.95
321.039	6.72
321.252	8.19
321.464	9.3
321.676	8.91
321.888	9.33
322.1	9.73
322.312	9.09
322.524	9.82
322.736	9.34
322.948	9.53
323.16	8.1
323.372	9.61
323.584	8.85
323.796	7.83
324.007	7.58
324.219	7.14
324.431	6.93
324.643	6.11
324.855	5.55
325.067	6.36
325.279	7.72
325.491	8.68
325.702	7.61
325.914	7.15
326.126	7.67
326.338	8.98
326.55	9.41
326.761	9.37
326.973	11.18
327.185	10.62
327.396	11.08
327.608	10.6
327.82	10.96
328.032	11.08
328.243	10.87
328.455	10.99
328.666	10.49
328.878	10.89
329.09	10.53
329.301	9.2
329.513	11.27
329.725	11.4
329.936	11.27
330.148	11.04
330.359	11.66
330.571	11.58
330.782	11.13
330.994	11.15
331.205	10.43
331.417	10.58
331.628	11.29
331.84	10.57
332.051	8.87
332.262	10.47
332.474	10.65
332.685	10.7
332.897	12.08
333.108	12.13
333.319	11.52
333.531	11.93
333.742	13.17
333.953	13.14
334.165	13.19
334.376	14.37
334.587	14.13
334.799	14.17
335.01	14.04
335.221	13.86
335.432	13.93
335.644	13.63
335.855	13.23
336.066	13.28
336.277	12.97
336.488	13.45
336.7	13.07
336.911	12.52
337.122	11.8
337.333	12.22
337.544	13.23
337.755	12.68
337.966	13.19
338.177	14.14
338.388	14.15
338.599	14.91
338.811	15.36
339.022	14.46
339.233	15.35
339.444	15.64
339.655	15.62
339.866	14.17
340.076	15.42
340.287	15.47
340.498	15.43
340.709	14.24
340.92	13.2
341.131	12.95
341.342	14.31
341.553	13.29
341.764	13.4
341.975	12.65
342.185	11.6
342.396	11.03
342.607	11.28
342.818	11.24
343.029	12.25
343.239	12.96
343.45	12.27
343.661	11.41
343.872	11.28
344.082	11.88
344.293	12.63
344.504	14.24
344.714	13.9
344.925	13.4
345.136	12.16
345.346	12.52
345.557	12.37
345.768	11.72
345.978	12.34
346.189	13.23
346.399	12.45
346.61	13.3
346.821	12.74
347.031	13.22
347.242	12.67
347.452	14.12
347.663	12.86
347.873	13.03
348.084	14.62
348.294	15.07
348.504	14.83
348.715	15.32
348.925	14.58
349.136	13.72
349.346	12.42
349.557	13.92
349.767	12.86
349.977	14.12
350.188	13.81
350.398	13.38
350.608	13.04
350.819	11.69
351.029	11.64
351.239	12.33
351.449	12.21
351.66	13.78
351.87	14.44
352.08	15.75
352.29	14.1
352.501	14.68
352.711	14.28
352.921	13.81
353.131	14.14
353.341	14.11
353.552	13.35
353.762	14.24
353.972	13.12
354.182	13.02
354.392	13.03
354.602	13.97
354.812	13.97
355.022	13.93
355.232	14.26
355.442	14.77
355.652	14.54
355.862	14.5
356.072	14.36
356.282	15.08
356.492	14.57
356.702	13.66
356.912	13.02
357.122	13
357.332	13.69
357.542	13.86
357.752	13.86
357.962	13.89
358.171	13.88
358.381	14.29
358.591	14.59
358.801	13.98
359.011	15.17
359.221	15.36
359.43	15.13
359.64	13.89
359.85	13.57
360.06	13.64
360.269	13.94
360.479	13.85
360.689	13.72
360.899	12.67
361.108	12.72
361.318	12.11
361.528	12.48
361.737	12.11
361.947	12.55
362.156	12.19
362.366	11.71
362.576	10.93
362.785	10.8
362.995	10.53
363.204	11.01
363.414	11.17
363.623	10.81
363.833	10.31
364.042	9.86
364.252	9.69
364.461	9.68
364.671	9.79
364.88	9.92
365.09	9.6
365.299	9.6
365.509	9.26
365.718	8.79
365.927	8.36
366.137	8.54
366.346	9.44
366.555	9.73
366.765	9.23
366.974	8.83
367.183	8.62
367.393	8.49
367.602	8.19
367.811	8.04
368.021	8.3
368.23	8.94
368.439	8.86
368.648	9.33
368.857	9.17
369.067	9.62
369.276	10.2
369.485	10.68
369.694	10.72
369.903	11.29
370.112	11.51
370.321	12.08
370.531	11.97
370.74	11.67
370.949	11.76
371.158	11.74
371.367	12.55
371.576	12.25
371.785	12.7
371.994	12.88
372.203	12.55
372.412	13.15
372.621	13.41
372.83	12.99
373.039	12.7
373.248	11.83
373.457	12.22
373.666	11.46
373.874	11.28
374.083	10.42
374.292	10.63
374.501	10.25
374.71	9.58
374.919	9.13
375.128	9.47
375.336	10.07
375.545	10.05
375.754	9.49
375.963	9.5
376.171	9.83
376.38	9.99
376.589	9.84
376.798	10.6
377.006	10.89
377.215	10.66
377.424	10.83
377.632	11.07
377.841	11.18
378.05	11.66
378.258	11.63
378.467	11.54
378.675	11.43
378.884	11.79
379.093	11.47
379.301	10.92
379.51	10.89
379.718	10.49
379.927	9.89
380.135	10.13
380.344	9.39
380.552	9.71
380.761	9.52
380.969	10.03
381.177	9.44
381.386	9.5
381.594	10.11
381.803	10.78
382.011	10.59
382.219	10.78
382.428	10.41
382.636	10.84
382.845	10.72
383.053	10.55
383.261	10.05
383.469	9.74
383.678	9.76
383.886	9.52
384.094	8.47
384.302	8.27
384.511	8.39
384.719	8.35
384.927	8.18
385.135	7.96
385.343	8.23
385.552	8.67
385.76	9.03
385.968	8.57
386.176	8.49
386.384	8.64
386.592	8.68
386.8	8.28
387.008	8.48
387.216	8.56
387.424	8.3
387.633	8.03
387.841	7.58
388.049	7.55
388.257	7.76
388.465	7.84
388.672	8.17
388.88	8.5
389.088	8.37
389.296	8.59
389.504	8.44
389.712	8.63
389.92	8.75
390.128	8.93
390.336	8.64
390.544	8.43
390.751	8.27
390.959	8.19
391.167	8.33
391.375	8.53
391.583	8.26
391.79	8.56
391.998	8.54
392.206	8.68
392.414	8.91
392.621	8.91
392.829	9
393.037	8.78
393.244	8.42
393.452	8.61
393.66	8.7
393.867	8.4
394.075	8.25
394.283	8.08
394.49	7.82
394.698	7.62
394.905	7.63
395.113	7.48
395.32	7.47
395.528	7.45
395.735	6.87
395.943	7.41
396.15	7.82
396.358	7.48
396.565	7.83
396.773	8.27
396.98	8.23
397.188	8.46
397.395	8.64
397.602	8.93
397.81	9.03
398.017	9.47
398.225	9.03
398.432	9.02
398.639	9.12
398.847	8.69
399.054	8.04
399.261	8.37
399.468	8.2
399.676	8.15
399.883	7.95
400.09	8.14
400.297	7.82
400.505	7.99
400.712	7.63
400.919	7.83
401.126	7.84
401.333	8.02
401.54	7.46
401.748	7.43
401.955	7.4
402.162	7.3
402.369	7.11
402.576	7.46
402.783	7.18
402.99	7.52
403.197	7.19
403.404	7.43
403.611	7.53
403.818	7.47
404.025	7.48
404.232	7.49
404.439	8
404.646	8.1
404.853	7.71
405.06	7.61
405.267	7.48
405.474	7.66
405.681	7.8
405.887	7.66
406.094	7.95
406.301	8.05
406.508	8.1
406.715	7.73
406.922	7.74
407.128	7.8
407.335	7.88
407.542	8.15
407.749	8.14
407.955	8.06
408.162	8.07
408.369	7.98
408.575	7.84
408.782	7.34
408.989	7.45
409.195	7.41
409.402	7.38
409.609	7.32
409.815	7.19
410.022	7.05
410.228	7
410.435	7.3
410.642	7.41
410.848	7.38
411.055	7.55
411.261	7.52
411.468	7.51
411.674	7.68
411.881	7.85
412.087	7.71
412.294	7.79
412.5	8.05
412.706	8.28
412.913	8.09
413.119	8.32
413.326	8.48
413.532	8.45
413.738	8.49
413.945	8.4
414.151	8.48
414.357	8.34
414.564	8.22
414.77	7.9
414.976	7.68
415.182	7.78
415.389	7.52
415.595	7.47
415.801	7.31
416.007	7.45
416.214	7.3
416.42	7.17
416.626	7.53
416.832	7.53
417.038	7.6
417.244	7.58
417.45	7.63
417.657	7.75
417.863	7.83
418.069	7.86
418.275	7.63
418.481	7.89
418.687	7.67
418.893	7.61
419.099	7.72
419.305	7.69
419.511	7.6
419.717	7.53
419.923	7.49
420.129	7.51
420.335	7.35
420.541	7.33
420.746	7.22
420.952	7.29
421.158	7.25
421.364	7.41
421.57	7.32
421.776	7.38
421.982	7.48
422.187	7.51
422.393	7.37
422.599	7.6
422.805	7.76
423.01	7.84
423.216	7.89
423.422	7.76
423.628	7.45
423.833	7.52
424.039	7.43
424.245	7.39
424.45	7.27
424.656	7.44
424.862	7.41
425.067	7.33
425.273	7.21
425.478	7.18
425.684	7.27
425.889	7.34
426.095	7.26
426.301	7.37
426.506	7.35
426.712	7.34
426.917	7.28
427.123	7.33
427.328	7.26
427.533	7.3
427.739	7.24
427.944	7.15
428.15	7.11
428.355	7.29
428.561	7.12
428.766	7.1
428.971	7.48
429.177	7.43
429.382	7.2
429.587	7.21
429.793	7.16
429.998	7.18
430.203	7.28
430.408	7.26
430.614	7.17
430.819	7.23
431.024	6.96
431.229	6.75
431.434	6.52
431.64	6.58
431.845	6.7
432.05	6.69
432.255	6.82
432.46	6.76
432.665	6.91
432.87	6.89
433.076	6.9
433.281	7.02
433.486	6.99
433.691	7.31
433.896	7.56
434.101	7.6
434.306	7.71
434.511	7.67
434.716	7.79
434.921	7.68
435.126	7.81
435.331	7.79
435.535	7.81
435.74	7.71
435.945	7.63
436.15	7.26
436.355	7.22
436.56	7.1
436.765	7.16
436.97	7.02
437.174	7.04
437.379	6.9
437.584	6.98
437.789	6.91
437.993	7.1
438.198	7.04
438.403	7.32
438.608	7.09
438.812	7.11
439.017	6.93
439.222	7.02
439.426	7.12
439.631	7.04
439.836	6.97
440.04	7.04
440.245	7.06
440.45	7.06
440.654	7.04
440.859	7.12
441.063	7.23
441.268	7.36
441.472	7.27
441.677	7.29
441.881	7.33
442.086	7.37
442.29	7.37
442.495	7.31
442.699	7.47
442.904	7.39
443.108	7.58
443.312	7.63
443.517	7.66
443.721	7.76
443.925	7.73
444.13	7.65
444.334	7.71
444.538	7.69
444.743	7.71
444.947	7.56
445.151	7.53
445.356	7.32
445.56	7.31
445.764	7.3
445.968	7.33
446.173	7.3
446.377	7.27
446.581	7.18
446.785	7.24
446.989	7.27
447.193	7.23
447.398	7.14
447.602	7.4
447.806	7.31
448.01	7.34
448.214	7.12
448.418	7.02
448.622	7.03
448.826	7.01
449.03	6.95
449.234	6.98
449.438	7.17
449.642	7.36
449.846	7.22
450.05	6.95
450.254	6.91
450.458	7.08
450.662	7.09
450.866	7.25
451.069	7.45
451.273	7.42
451.477	7.42
451.681	7.32
451.885	7.14
452.089	6.83
452.292	7.11
452.496	7.02
452.7	6.93
452.904	7.1
453.107	7.08
453.311	6.92
453.515	6.98
453.719	6.87
453.922	6.69
454.126	6.66
454.33	6.88
454.533	6.77
454.737	6.7
454.94	6.89
455.144	6.81
455.348	6.87
455.551	6.92
455.755	6.85
455.958	6.68
456.162	6.51
456.365	6.59
456.569	6.6
456.772	6.78
456.976	6.96
457.179	6.87
457.383	6.78
457.586	6.66
457.79	6.68
457.993	6.75
458.196	6.9
458.4	7.09
458.603	7.14
458.807	7.12
459.01	7.18
459.213	7.22
459.417	7.25
459.62	7.27
459.823	7.27
460.026	7.22
460.23	7.24
460.433	7.23
460.636	7.23
460.839	7.27
461.042	7.19
461.246	7.01
461.449	6.91
461.652	6.66
461.855	6.69
462.058	6.68
462.261	6.8
462.464	6.77
462.668	6.9
462.871	6.88
463.074	6.74
463.277	6.87
463.48	6.99
463.683	6.76
463.886	6.99
464.089	7.09
464.292	6.88
464.495	6.66
464.698	6.63
464.901	6.58
465.104	6.58
465.306	6.62
465.509	6.52
465.712	6.39
465.915	6.59
466.118	6.58
466.321	6.21
466.524	6.41
466.726	6.51
466.929	6.33
467.132	6.31
467.335	6.28
467.538	6.31
467.74	6.39
467.943	6.57
468.146	6.41
468.348	6.34
468.551	6.71
468.754	6.69
468.956	6.66
469.159	7.1
469.362	7.15
469.564	7.27
469.767	7.24
469.969	7.33
470.172	7.24
470.375	7.48
470.577	7.56
470.78	7.38
470.982	7.44
471.185	7.41
471.387	7
471.59	6.73
471.792	6.77
471.995	6.87
472.197	6.71
472.399	6.61
472.602	6.64
472.804	6.56
473.007	6.61
473.209	6.5
473.411	6.61
473.614	6.73
473.816	6.75
474.018	6.76
474.22	6.7
474.423	6.87
474.625	7.11
474.827	7.07
475.03	7.2
475.232	7.1
475.434	7.28
475.636	7.11
475.838	7.19
476.04	7.29
476.243	7.22
476.445	7
476.647	6.92
476.849	6.87
477.051	6.72
477.253	6.57
477.455	6.68
477.657	6.75
477.859	6.8
478.061	6.72
478.263	6.62
478.465	6.66
478.667	6.76
478.869	6.69
479.071	6.72
479.273	6.85
479.475	6.97
479.677	6.96
479.879	6.7
480.081	6.86
480.283	6.9
480.485	6.91
480.686	6.83
480.888	6.89
481.09	7.04
481.292	6.82
481.494	6.85
481.695	6.88
481.897	6.82
482.099	6.99
482.301	6.96
482.502	6.91
482.704	6.98
482.906	6.9
483.107	6.93
483.309	6.87
483.511	6.93
483.712	6.91
483.914	6.89
484.115	6.91
484.317	6.87
484.519	6.82
484.72	6.85
484.922	6.89
485.123	6.95
485.325	6.9
485.526	6.86
485.728	6.87
485.929	6.88
486.131	6.9
486.332	6.89
486.534	6.86
486.735	6.88
486.936	6.84
487.138	6.74
487.339	6.71
487.541	6.66
487.742	6.68
487.943	6.68
488.144	6.69
488.346	6.66
488.547	6.64
488.748	6.61
488.95	6.57
489.151	6.57
489.352	6.61
489.553	6.65
489.755	6.79
489.956	6.85
490.157	6.75
490.358	6.7
490.559	6.6
490.76	6.61
490.961	6.79
491.163	6.84
491.364	6.89
491.565	6.87
491.766	6.87
491.967	6.91
492.168	6.87
492.369	6.88
492.57	6.87
492.771	6.93
492.972	6.96
493.173	6.81
493.374	6.81
493.575	6.75
493.776	6.68
493.976	6.69
494.177	6.52
494.378	6.67
494.579	6.7
494.78	6.72
494.981	6.91
495.182	6.88
495.382	6.94
495.583	7.09
495.784	7.03
495.985	7
496.185	6.96
496.386	6.95
496.587	6.79
496.788	6.88
496.988	6.86
497.189	6.75
497.39	6.76
497.59	6.69
497.791	6.44
497.992	6.46
498.192	6.54
498.393	6.64
498.593	6.69
498.794	6.66
498.994	6.75
499.195	6.77
499.395	6.64
499.596	6.74
499.796	6.8
499.997	6.83
500.197	6.8
500.398	6.81
500.598	6.58
500.799	6.43
500.999	6.49
501.199	6.36
501.4	6.42
501.6	6.66
501.801	6.61
502.001	6.59
502.201	6.69
502.402	6.72
502.602	6.9
502.802	7.01
503.002	7.19
503.203	7.2
503.403	7.23
503.603	7.24
503.803	7.21
504.003	7.21
504.204	7.24
504.404	7.25
504.604	7.21
504.804	6.91
505.004	6.92
505.204	6.93
505.404	6.87
505.604	6.85
505.804	6.99
506.005	6.97
506.205	6.93
506.405	6.96
506.605	6.97
506.805	7
507.005	7.1
507.204	6.93
507.404	6.82
507.604	6.94
507.804	6.77
508.004	6.74
508.204	6.81
508.404	6.84
508.604	6.78
508.804	6.78
509.003	6.76
509.203	6.69
509.403	6.79
509.603	6.79
509.803	6.8
510.002	6.9
510.202	6.73
510.402	6.65
510.602	6.64
510.801	6.71
511.001	6.72
511.201	6.65
511.4	6.73
511.6	6.72
511.8	6.78
511.999	6.51
512.199	6.58
512.398	6.5
512.598	6.43
512.797	6.51
512.997	6.47
513.197	6.48
513.396	6.46
513.596	6.6
513.795	6.69
513.994	6.74
514.194	6.86
514.393	6.69
514.593	6.73
514.792	6.91
514.992	6.91
515.191	6.83
515.39	6.97
515.59	7.02
515.789	7.01
515.988	6.91
516.188	6.89
516.387	6.89
516.586	7.05
516.786	7.31
516.985	7.23
517.184	7.23
517.383	7.31
517.582	7.26
517.782	7.37
517.981	7.27
518.18	7.31
518.379	7.35
518.578	7.42
518.777	7.51
518.976	7.3
519.176	7.42
519.375	7.39
519.574	7.41
519.773	7.39
519.972	7.42
520.171	7.4
520.37	7.38
520.569	7.39
520.768	7.46
520.967	7.35
521.166	7.42
521.365	7.25
521.564	7.16
521.762	7.27
521.961	7.37
522.16	7.18
522.359	7.33
522.558	7.45
522.757	7.35
522.956	7.34
523.154	7.4
523.353	7.43
523.552	7.34
523.751	7.45
523.949	7.4
524.148	7.25
524.347	7.52
524.546	7.48
524.744	7.46
524.943	7.57
525.142	7.46
525.34	7.5
525.539	7.47
525.737	7.54
525.936	7.55
526.135	7.58
526.333	7.62
526.532	7.55
526.73	7.57
526.929	7.52
527.127	7.55
527.326	7.57
527.524	7.54
527.723	7.61
527.921	7.68
528.12	7.66
528.318	7.6
528.516	7.66
528.715	7.61
528.913	7.63
529.112	7.69
529.31	7.68
529.508	7.77
529.707	7.73
529.905	7.72
530.103	7.68
530.301	7.73
530.5	7.74
530.698	7.68
530.896	7.82
531.094	7.91
531.293	7.93
531.491	7.9
531.689	7.92
531.887	8
532.085	8
532.283	7.97
532.481	8.02
532.68	8.1
532.878	8.11
533.076	8.12
533.274	8.03
533.472	8.06
533.67	8.21
533.868	8.12
534.066	8.15
534.264	8.22
534.462	8.32
534.66	8.2
534.858	8.1
535.056	8.18
535.253	8.1
535.451	8.11
535.649	8.07
535.847	7.94
536.045	7.98
536.243	8.05
536.441	8.03
536.638	8.01
536.836	8.1
537.034	8.16
537.232	8.12
537.43	8.13
537.627	8.28
537.825	8.29
538.023	8.35
538.22	8.48
538.418	8.41
538.616	8.34
538.813	8.39
539.011	8.36
539.209	8.41
539.406	8.28
539.604	8.44
539.801	8.3
539.999	8.38
540.196	8.41
540.394	8.38
540.591	8.38
540.789	8.43
540.986	8.48
541.184	8.55
541.381	8.61
541.579	8.69
541.776	8.64
541.974	8.68
542.171	8.65
542.368	8.65
542.566	8.65
542.763	8.72
542.96	8.71
543.158	8.66
543.355	8.67
543.552	8.66
543.75	8.7
543.947	8.81
544.144	8.8
544.341	8.84
544.539	8.92
544.736	8.87
544.933	8.99
545.13	9.08
545.327	9.17
545.524	9.29
545.722	9.35
545.919	9.44
546.116	9.4
546.313	9.49
546.51	9.46
546.707	9.45
546.904	9.57
547.101	9.53
547.298	9.58
547.495	9.68
547.692	9.51
547.889	9.48
548.086	9.52
548.283	9.49
548.48	9.53
548.677	9.63
548.874	9.63
549.07	9.49
549.267	9.57
549.464	9.62
549.661	9.43
549.858	9.61
550.055	9.68
550.251	9.65
550.448	9.59
550.645	9.6
550.842	9.5
551.038	9.65
551.235	9.74
551.432	9.65
551.628	9.72
551.825	9.8
552.022	9.79
552.218	9.81
552.415	9.67
552.612	9.84
552.808	9.82
553.005	9.96
553.201	10.01
553.398	10.15
553.594	10.21
553.791	10.18
553.987	10.15
554.184	10.08
554.38	10.01
554.577	10.4
554.773	10.41
554.97	10.32
555.166	10.29
555.362	10.25
555.559	10.11
555.755	10.18
555.952	10.08
556.148	10.14
556.344	10.22
556.541	10.34
556.737	10
556.933	10.16
557.129	10.31
557.326	10.41
557.522	10.38
557.718	10.48
557.914	10.14
558.11	10.22
558.307	10.39
558.503	10.27
558.699	10.15
558.895	10.26
559.091	10.26
559.287	10.39
559.483	10.38
559.679	10.15
559.876	10.35
560.072	10.59
560.268	10.55
560.464	10.53
560.66	10.53
560.856	10.71
561.052	10.8
561.247	10.67
561.443	10.5
561.639	10.54
561.835	10.84
562.031	10.62
562.227	10.56
562.423	10.65
562.619	10.75
562.815	10.87
563.01	11.03
563.206	11.09
563.402	11.09
563.598	11.15
563.793	11.27
563.989	11.17
564.185	11.3
564.381	11.48
564.576	11.59
564.772	11.46
564.968	11.56
565.163	11.53
565.359	11.53
565.555	11.57
565.75	11.51
565.946	11.39
566.141	11.51
566.337	11.66
566.532	11.5
566.728	11.56
566.923	11.71
567.119	11.74
567.314	11.75
567.51	11.75
567.705	11.85
567.901	11.95
568.096	12.13
568.292	12.09
568.487	12.14
568.682	12.23
568.878	12.18
569.073	11.93
569.268	11.72
569.464	11.9
569.659	11.75
569.854	11.62
570.05	11.62
570.245	11.77
570.44	11.74
570.635	11.56
570.831	11.75
571.026	11.69
571.221	11.9
571.416	11.98
571.611	11.75
571.806	11.76
572.002	12.01
572.197	11.86
572.392	11.56
572.587	11.63
572.782	11.8
572.977	11.7
573.172	11.89
573.367	11.8
573.562	12.08
573.757	12.16
573.952	12.11
574.147	12
574.342	12.27
574.537	12.48
574.732	12.54
574.927	12.59
575.121	12.58
575.316	12.45
575.511	12.53
575.706	12.69
575.901	12.78
576.096	12.93
576.29	12.86
576.485	12.83
576.68	12.98
576.875	12.71
577.069	12.28
577.264	12.33
577.459	12.4
577.654	12.3
577.848	12.06
578.043	12.01
578.238	12.02
578.432	11.99
578.627	11.95
578.821	11.71
579.016	12.07
579.21	12.27
579.405	12.31
579.6	12.17
579.794	12.32
579.989	12.01
580.183	11.9
580.378	11.97
580.572	12.14
580.766	12.36
580.961	12.4
581.155	12.29
581.35	12.5
581.544	12.5
581.738	12.66
581.933	12.68
582.127	13.08
582.321	13.26
582.516	13.31
582.71	13.14
582.904	12.71
583.099	12.72
583.293	12.82
583.487	12.66
583.681	12.73
583.875	12.57
584.07	12.78
584.264	12.58
584.458	12.47
584.652	12.27
584.846	12.52
585.04	12.67
585.234	12.6
585.428	12.46
585.623	12.67
585.817	12.47
586.011	12.47
586.205	12.42
586.399	12.36
586.593	12.3
586.787	12.36
586.981	12.17
587.174	12.3
587.368	12.43
587.562	12.72
587.756	12.5
587.95	12.61
588.144	12.82
588.338	12.65
588.532	12.86
588.725	13.07
588.919	13.25
589.113	13.29
589.307	13.24
589.501	12.79
589.694	12.48
589.888	12.61
590.082	12.86
590.275	12.69
590.469	12.95
590.663	12.76
590.856	12.49
591.05	12.46
591.244	12.44
591.437	12.51
591.631	12.76
591.824	12.9
592.018	12.8
592.212	12.82
592.405	12.81
592.599	12.45
592.792	12.57
592.986	12.68
593.179	12.75
593.372	12.82
593.566	12.79
593.759	13.08
593.953	12.95
594.146	13.26
594.339	12.81
594.533	12.71
594.726	12.91
594.92	12.83
595.113	12.81
595.306	12.83
595.499	12.77
595.693	12.73
595.886	12.89
596.079	12.8
596.272	12.75
596.466	12.93
596.659	13.03
596.852	12.94
597.045	13.11
597.238	13.29
597.431	13.35
597.624	13.44
597.818	13.49
598.011	13.22
598.204	13.55
598.397	13.51
598.59	13.78
598.783	13.86
598.976	13.97
599.169	14.17
599.362	14.11
599.555	13.93
599.748	13.76
599.941	13.84
600.134	14.06
600.326	13.99
600.519	14.1
600.712	13.85
600.905	14.03
601.098	14.1
601.291	13.71
601.483	13.73
601.676	13.7
601.869	14.2
602.062	14.24
602.255	14.26
602.447	14.2
602.64	14.14
602.833	14.09
603.025	14.09
603.218	14.12
603.411	14.12
603.603	14.09
603.796	14.24
603.989	13.9
604.181	13.96
604.374	14.04
604.566	14.22
604.759	14.06
604.951	14.18
605.144	14.17
605.336	14.05
605.529	14.24
605.721	14.3
605.914	14.32
606.106	14.45
606.299	14.35
606.491	14.08
606.683	13.78
606.876	13.98
607.068	13.84
607.26	13.93
607.453	13.82
607.645	13.72
607.837	13.63
608.03	13.57
608.222	13.49
608.414	13.57
608.606	13.49
608.799	13.58
608.991	13.52
609.183	13.47
609.375	13.3
609.567	13.32
609.759	13.25
609.952	13.15
610.144	12.95
610.336	12.99
610.528	12.79
610.72	13.08
610.912	13.18
611.104	13.37
611.296	13.52
611.488	13.67
611.68	13.79
611.872	14.1
612.064	14.13
612.256	14.42
612.448	14.3
612.64	14.39
612.832	14.11
613.023	14.05
613.215	13.78
613.407	13.89
613.599	13.66
613.791	13.72
613.983	13.28
614.174	13.56
614.366	13.52
614.558	13.66
614.75	13.68
614.941	13.55
615.133	13.45
615.325	13.56
615.516	13.49
615.708	13.81
615.9	13.93
616.091	13.96
616.283	13.75
616.475	13.58
616.666	13.88
616.858	14.09
617.049	14.4
617.241	14.35
617.432	14.12
617.624	13.89
617.815	13.74
618.007	13.7
618.198	13.97
618.39	14.08
618.581	14.06
618.773	13.61
618.964	13.24
619.155	13.25
619.347	13.24
619.538	13.51
619.729	13.68
619.921	13.9
620.112	14.25
620.303	14.28
620.494	14.26
620.686	14.83
620.877	15.35
621.068	15.78
621.259	15.87
621.451	15.94
621.642	15.9
621.833	16.1
622.024	15.89
622.215	15.39
622.406	14.98
622.597	14.94
622.788	14.46
622.98	14.04
623.171	13.69
623.362	13.47
623.553	13.19
623.744	12.91
623.935	12.73
624.126	12.92
624.317	13.18
624.508	13.24
624.698	13.07
624.889	13.02
625.08	12.99
625.271	13.21
625.462	13.31
625.653	13.78
625.844	13.99
626.034	13.6
626.225	13.57
626.416	13.54
626.607	13.88
626.798	14.2
626.988	14.23
627.179	14.42
627.37	14.75
627.56	14.57
627.751	14.43
627.942	14.41
628.132	14.96
628.323	14.73
628.514	14.88
628.704	14.72
628.895	14.7
629.085	15.01
629.276	14.8
629.466	14.49
629.657	14.67
629.847	14.69
630.038	14.99
630.228	14.73
630.419	14.73
630.609	14.72
630.8	14.66
630.99	14.54
631.181	14.04
631.371	14.51
631.561	14.35
631.752	14.29
631.942	14.49
632.132	14.54
632.323	14.68
632.513	14.57
632.703	14.14
632.893	14.07
633.084	13.82
633.274	13.96
633.464	13.66
633.654	13.99
633.844	14.37
634.034	13.82
634.225	13.46
634.415	13.42
634.605	13.7
634.795	13.96
634.985	13.93
635.175	14.12
635.365	14.33
635.555	14.61
635.745	14.47
635.935	14.22
636.125	14.91
636.315	14.82
636.505	14.68
636.695	14.35
636.885	14.17
637.075	14.35
637.265	14.67
637.455	14.74
637.644	14.23
637.834	14.13
638.024	14.07
638.214	13.78
638.404	13.85
638.593	14.08
638.783	14.28
638.973	14.75
639.163	14.94
639.352	14.83
639.542	14.51
639.732	14.78
639.921	14.94
640.111	14.79
640.301	14.65
640.49	15.06
640.68	14.91
640.87	15.25
641.059	14.57
641.249	14.67
641.438	14.58
641.628	14.72
641.817	14.42
642.007	14.88
642.196	15.27
642.386	15.57
642.575	15.14
642.764	15.49
642.954	15.5
643.143	15.64
643.333	15.82
643.522	15.67
643.711	15.68
643.901	16.23
644.09	15.65
644.279	15.65
644.469	15.67
644.658	16.1
644.847	15.87
645.036	15.71
645.226	15.82
645.415	15.11
645.604	15.11
645.793	15.25
645.982	15.22
646.171	15.21
646.361	14.85
646.55	14.53
646.739	14.57
646.928	14.04
647.117	13.85
647.306	14.13
647.495	14.46
647.684	14.62
647.873	14.71
648.062	14.4
648.251	14.23
648.44	14.63
648.629	14.29
648.818	13.86
649.007	14.03
649.196	14.27
649.384	13.7
649.573	13.29
649.762	13.03
649.951	12.81
650.14	12.83
650.328	12.93
650.517	12.55
650.706	12.78
650.895	13.09
651.083	13.32
651.272	13.23
651.461	13.44
651.65	13.87
651.838	14
652.027	14.23
652.216	14.46
652.404	14.36
652.593	14.56
652.781	14.71
652.97	14.62
653.158	14.55
653.347	14.84
653.535	14.44
653.724	14.14
653.912	13.81
654.101	13.38
654.289	13.32
654.478	13.77
654.666	13.72
654.855	14.15
655.043	14.27
655.231	14.09
655.42	13.87
655.608	14.43
655.796	15.24
655.985	15.68
656.173	16.08
656.361	15.82
656.55	16.04
656.738	15.83
656.926	15.43
657.114	14.86
657.302	14.99
657.491	15.19
657.679	15.26
657.867	15.1
658.055	15.11
658.243	14.46
658.431	14.52
658.619	14.49
658.807	14.52
658.996	14.7
659.184	15.2
659.372	15.18
659.56	15.01
659.748	15.06
659.936	14.62
660.124	14.54
660.311	15.11
660.499	15.1
660.687	14.96
660.875	14.75
661.063	14.35
661.251	14.05
661.439	13.89
661.627	13.7
661.814	13.54
662.002	13.68
662.19	13.67
662.378	13.17
662.565	13.32
662.753	13.34
662.941	13.83
663.129	14.12
663.316	14.01
663.504	14.78
663.692	14.72
663.879	15.13
664.067	15
664.254	15.28
664.442	15.34
664.63	15.23
664.817	14.76
665.005	14.54
665.192	14.67
665.38	14.56
665.567	14.22
665.755	14.26
665.942	14.18
666.13	14.05
666.317	13.79
666.504	14.01
666.692	13.66
666.879	13.88
667.067	13.74
667.254	13.56
667.441	14.2
667.629	14.25
667.816	14.66
668.003	14.61
668.19	14.59
668.378	14.65
668.565	14.94
668.752	15.19
668.939	14.92
669.127	15.27
669.314	15.33
669.501	15.52
669.688	15.53
669.875	15.24
670.062	15.11
670.249	15.16
670.436	15.35
670.623	14.94
670.81	15.34
670.997	15.87
671.184	15.66
671.371	15.54
671.558	15.16
671.745	15.03
671.932	14.86
672.119	14.57
672.306	15.16
672.493	14.9
672.68	14.81
672.867	14.65
673.054	14.17
673.24	14.45
673.427	14.96
673.614	15.06
673.801	14.87
673.988	15
674.174	15.46
674.361	14.87
674.548	15.51
674.734	16.14
674.921	16.11
675.108	16.43
675.294	15.93
675.481	15.89
675.668	15.61
675.854	15.49
676.041	15.55
676.227	15.33
676.414	15.42
676.601	14.92
676.787	14.88
676.974	14.7
677.16	14.6
677.347	14.96
677.533	14.72
677.719	14.77
677.906	14.63
678.092	14.56
678.279	14.61
678.465	14.65
678.651	14.43
678.838	14.21
679.024	14.61
679.21	14.65
679.397	14.28
679.583	14.33
679.769	14.36
679.955	14.54
680.142	14.67
680.328	14.51
680.514	14.61
680.7	14.59
680.886	14.62
681.073	14.6
681.259	14.63
681.445	15.03
681.631	14.73
681.817	14.75
682.003	14.84
682.189	15.17
682.375	15.04
682.561	15.25
682.747	15.49
682.933	15.87
683.119	15.66
683.305	16.13
683.491	15.91
683.677	16.41
683.863	16.68
684.049	16.83
684.235	16.42
684.42	16.67
684.606	16.29
684.792	16.07
684.978	15.72
685.164	15.61
685.349	15.13
685.535	15.53
685.721	15.51
685.907	14.79
686.092	14.52
686.278	14.82
686.464	15.01
686.649	15.25
686.835	15.06
687.021	14.86
687.206	14.64
687.392	14.38
687.577	14.22
687.763	14.11
687.948	14.32
688.134	14.97
688.319	15.01
688.505	14.7
688.69	14.34
688.876	14.18
689.061	14
689.247	14.08
689.432	14.3
689.618	14.17
689.803	14.57
689.988	15.03
690.174	14.73
690.359	14.66
690.544	14.56
690.73	15.03
690.915	15.58
691.1	16.07
691.285	15.88
691.471	15.73
691.656	15.76
691.841	15.29
692.026	14.7
692.211	14.67
692.396	14.7
692.582	15.31
692.767	15.73
692.952	15.61
693.137	15.47
693.322	16.12
693.507	16.84
693.692	16.62
693.877	16.4
694.062	16.68
694.247	16.43
694.432	16.13
694.617	15.33
694.802	15.38
694.987	15.27
695.172	15.43
695.357	15.27
695.541	14.61
695.726	15.38
695.911	15.1
696.096	15.33
696.281	15.79
696.466	15.28
696.65	16.16
696.835	15.82
697.02	16.03
697.204	15.27
697.389	15.12
697.574	15.41
697.759	15.32
697.943	15.17
698.128	15.12
698.312	14.97
698.497	15.09
698.682	14.84
698.866	15.04
699.051	15.14
699.235	15.79
699.42	15.81
699.604	15.5
699.789	15.16
699.973	15.37
700.158	15.53
700.342	15.14
700.527	15.13
700.711	15.14
700.895	14.6
701.08	14.78
701.264	14.32
701.448	14.13
701.633	13.72
701.817	13.63
702.001	14.12
702.186	14.14
702.37	14.08
702.554	14.72
702.738	14.98
702.923	15.25
703.107	14.69
703.291	15.13
703.475	16.1
703.659	17.15
703.843	17.97
704.027	17.69
704.212	17.09
704.396	17.68
704.58	17.7
704.764	16.99
704.948	16.45
705.132	16.73
705.316	16.33
705.5	16.17
705.684	15.89
705.868	15.67
706.052	16.08
706.235	16.45
706.419	16.17
706.603	16.03
706.787	16.48
706.971	17.11
707.155	16.62
707.339	16.76
707.522	15.84
707.706	15.64
707.89	14.95
708.074	14.91
708.257	14.7
708.441	15.13
708.625	15.26
708.808	15.21
708.992	14.79
709.176	14.94
709.359	14.73
709.543	14.17
709.727	14.13
709.91	14.73
710.094	14.92
710.277	15.02
710.461	14.23
710.644	14.23
710.828	14.45
711.011	14.25
711.195	14.15
711.378	15.03
711.562	15.99
711.745	16.22
711.928	16.35
712.112	16
712.295	16.39
712.478	17.32
712.662	17.83
712.845	17.51
713.028	18.02
713.212	18.33
713.395	17.68
713.578	17.58
713.761	18.46
713.945	17.59
714.128	17.73
714.311	17.44
714.494	16.8
714.677	16.25
714.86	16.65
715.043	16.46
715.227	16.04
715.41	16.88
715.593	16.85
715.776	15.48
715.959	15.44
716.142	15.54
716.325	15.04
716.508	15.41
716.691	14.43
716.874	13.69
717.057	14.5
717.239	15.08
717.422	15
717.605	15.57
717.788	16.13
717.971	16.59
718.154	16.51
718.337	16.92
718.519	16.58
718.702	18.27
718.885	18.6
719.068	17.57
719.25	17.54
719.433	16.63
719.616	16.43
719.798	15.82
719.981	16.11
720.164	15.55
720.346	16.12
720.529	17.32
720.712	16.62
720.894	16.75
721.077	17.08
721.259	16.94
721.442	15.98
721.624	15.06
721.807	15.65
721.989	15.3
722.172	16.35
722.354	14.89
722.537	13.36
722.719	13.22
722.901	13.13
723.084	12.8
723.266	13.24
723.448	14.48
723.631	14.71
723.813	14.49
723.995	14.7
724.178	13.44
724.36	15
724.542	15.54
724.724	15.26
724.907	15.01
725.089	15.46
725.271	15.17
725.453	15.66
725.635	15.93
725.817	15.95
725.999	16.16
726.181	16.74
726.364	17.14
726.546	17.1
726.728	17.8
726.91	19.34
727.092	19.45
727.274	19.48
727.456	18.93
727.638	18.62
727.819	18.9
728.001	18.95
728.183	18.73
728.365	17.27
728.547	16.84
728.729	16.78
728.911	15.21
729.093	14.19
729.274	14.65
729.456	14.62
729.638	14.09
729.82	13.83
730.001	13.77
730.183	14.3
730.365	14.93
730.546	16.07
730.728	16.85
730.91	16.99
731.091	17.93
731.273	16.31
731.455	16.73
731.636	17.64
731.818	16.94
731.999	17.75
732.181	17.43
732.362	17.51
732.544	16.62
732.725	15.5
732.907	15.66
733.088	16.33
733.27	16.86
733.451	16.2
733.633	15.79
733.814	16.85
733.995	15.86
734.177	15.71
734.358	15.64
734.539	15.65
734.721	15.86
734.902	15.81
735.083	14.56
735.264	14.69
735.446	14.87
735.627	14.74
735.808	14.72
735.989	14.7
736.17	14.81
736.351	15.16
736.533	16.22
736.714	16.52
736.895	15.89
737.076	16.91
737.257	16.96
737.438	17.99
737.619	18.42
737.8	18.39
737.981	18.13
738.162	18.79
738.343	17.95
738.524	17
738.705	15.88
738.886	16.97
739.067	15.48
739.247	15.78
739.428	15.14
739.609	14.66
739.79	14.58
739.971	14.62
740.151	13.7
740.332	15.05
740.513	15.2
740.694	15.88
740.874	16.41
741.055	17.67
741.236	16.79
741.417	16.73
741.597	17.17
741.778	16.7
741.958	18.02
742.139	17.43
742.32	15.87
742.5	16.46
742.681	16.2
742.861	15.33
743.042	15.19
743.222	15.61
743.403	15.58
743.583	15.92
743.764	16.04
743.944	15.26
744.124	15.36
744.305	16.32
744.485	15.95
744.666	15.8
744.846	15.43
745.026	13.98
745.207	12.74
745.387	12.41
745.567	12.49
745.747	12.08
745.928	11.79
746.108	11.99
746.288	11.57
746.468	10.85
746.648	11.88
746.829	11.96
747.009	13.04
747.189	14.72
747.369	16.18
747.549	15.29
747.729	16.71
747.909	16.82
748.089	17.08
748.269	17.56
748.449	16.25
748.629	15.9
748.809	17.3
748.989	18.08
749.169	18.12
749.349	17.28
749.529	18.17
749.709	17.66
749.889	17.11
750.068	17.31
750.248	17.58
750.428	19.52
750.608	19
750.788	17.14
750.967	16.86
751.147	16.13
751.327	15.19
751.507	15.61
751.686	16.06
751.866	16.56
752.046	18.38
752.225	17.72
752.405	18.25
752.585	19.14
752.764	20.54
752.944	18.99
753.123	19.33
753.303	19.34
753.482	19.37
753.662	20.27
753.841	19.34
754.021	17.57
754.2	17.46
754.38	16.68
754.559	16.74
754.739	15.3
754.918	15.25
755.097	15.9
755.277	16
755.456	15.58
755.635	14.07
755.815	15.43
755.994	15.65
756.173	15.99
756.352	16.88
756.532	15.93
756.711	16.81
756.89	17.54
757.069	17.44
757.248	17.73
757.427	17.83
757.607	18.56
757.786	18.27
757.965	19.11
758.144	20.41
758.323	20.04
758.502	20.24
758.681	19.55
758.86	20.67
759.039	20.32
759.218	21.24
759.397	20.95
759.576	19.99
759.755	20.68
759.934	19.35
760.113	18.03
760.291	17.93
760.47	18.28
760.649	18.57
760.828	17.75
761.007	16.98
761.186	16.57
761.364	16.31
761.543	16.49
761.722	15.6
761.901	16.52
762.079	16.67
762.258	16.44
762.437	15.54
762.615	16.5
762.794	16.67
762.972	17.55
763.151	16.47
763.33	16.7
763.508	16.87
763.687	16.7
763.865	16.18
764.044	16.04
764.222	16.47
764.401	16.37
764.579	16.52
764.758	16.48
764.936	16.24
765.114	18.08
765.293	16.79
765.471	16.88
765.65	17.32
765.828	18.54
766.006	18.13
766.184	17.35
766.363	17.9
766.541	16.62
766.719	16.37
766.898	16.46
767.076	14.56
767.254	15.65
767.432	16.07
767.61	14.93
767.788	14.33
767.967	15.64
768.145	16.73
768.323	16.67
768.501	17.12
768.679	17.07
768.857	17.88
769.035	19.44
769.213	20.57
769.391	19.14
769.569	20.76
769.747	20.7
769.925	20.03
770.103	19.52
770.281	20.76
770.459	20.88
770.636	20.84
770.814	21.95
770.992	22.08
771.17	21.76
771.348	22.6
771.525	21.41
771.703	22.91
771.881	21.79
772.059	21.09
772.236	21.08
772.414	22.84
772.592	24.28
772.769	22.61
772.947	21.29
773.125	21.8
773.302	21.18
773.48	21.25
773.657	19.96
773.835	20.51
774.013	20.71
774.19	17.79
774.368	17.87
774.545	17.49
774.723	15.77
774.9	15.29
775.077	13.62
775.255	14.67
775.432	15.63
775.61	15.21
775.787	16.44
775.964	15.25
776.142	15.93
776.319	13.84
776.496	13.31
776.674	14.14
776.851	15.82
777.028	15.16
777.205	12.34
777.382	13.89
777.56	11.57
777.737	10.79
777.914	13.14
778.091	15.7
778.268	17.24
778.445	16.12
778.622	15.98
778.8	14.79
778.977	16.64
779.154	18.99
779.331	15.62
779.508	18.78
779.685	20.17
779.862	20.82
780.038	20.15
780.215	17.69
780.392	17.96
780.569	18.54
780.746	17.75
780.923	18.55
781.1	20.7
781.277	22.04
781.453	18.65
781.63	18.06
781.807	15.91
781.984	14.46
782.16	15.89
782.337	17.26
782.514	15.46
782.691	16.25
782.867	14.91
783.044	14.1
783.221	12.55
783.397	13.97
783.574	12.52
783.75	11.43
783.927	14.97
784.103	11.37
784.28	11.25
784.456	16
784.633	16.81
784.809	16.18
784.986	14.56
785.162	17.77
785.339	19.62
785.515	17.76
785.692	20.03
785.868	17.01
786.044	20.3
786.221	19.5
786.397	17.14
786.573	17.39
786.749	17.3
786.926	17.3
787.102	16.01
787.278	13.76
787.454	13.36
787.631	13.95
787.807	13.81
787.983	14.74
788.159	15.79
788.335	14.94
788.511	13.51
788.687	15.23
788.863	12.46
789.039	13.42
789.216	15.63
789.392	16.89
789.568	15.99
789.744	16.68
789.919	18.43
790.095	17.81
790.271	16.41
790.447	16.42
790.623	16.17
790.799	19.37
790.975	19.35
791.151	17.67
791.327	18.32
791.502	17.61
791.678	15.49
791.854	11.9
792.03	12.83
792.205	13.81
792.381	15.27
792.557	14.43
792.733	16.67
792.908	15.83
793.084	17.68
793.259	19.38
793.435	19.78
793.611	22.77
793.786	21.8
793.962	19.82
794.137	21.06
794.313	17.72
794.488	17.62
794.664	14.64
794.839	12.22
795.015	9.99
795.19	7.21
795.366	9.61
795.541	7.35
795.716	13.03
795.892	11.11
796.067	9.42
796.242	7.88
796.418	7.38
796.593	6.46
796.768	9.53
796.944	10.72
797.119	11.73
797.294	6.87
797.469	8.65
797.644	4.05
797.82	4.41
797.995	7.61
798.17	13.8
798.345	14.39
798.52	13.16
798.695	11.73
798.87	11.03
799.045	10.95
799.22	13.69
799.395	12.88
799.57	11.81
799.745	14.07
799.92	13.49
800.095	11.07
800.27	9.57
800.445	12.32
800.62	14.86
800.795	14.98
800.97	9.13
801.145	7.77
801.319	8.53
801.494	10.08
801.669	11.64
801.844	11.31
802.018	10.32
802.193	11.01
802.368	10.66
802.543	8.25
802.717	10.98
802.892	17.25
803.067	16.55
803.241	14.71
803.416	11.31
803.59	8.9
803.765	8.35
803.94	10.14
804.114	12.33
804.289	10.8
804.463	6.96
804.638	7.15
804.812	5.72
804.986	2.42
805.161	6.89
805.335	10.51
805.51	11.64
805.684	11.02
805.858	9.8
806.033	9.04
806.207	10.6
806.381	13.8
806.556	9.59
806.73	11.9
806.904	19.58
807.078	18.64
807.253	20.31
807.427	19.63
807.601	22.81
807.775	24.9
807.949	25.83
808.123	23.7
808.298	27.56
808.472	27.13
808.646	24.33
808.82	20.71
808.994	21.59
809.168	20.58
809.342	21.2
809.516	18.92
809.69	16.54
809.864	18.61
810.038	22.06
810.212	18.59
810.385	24.94
810.559	21.95
810.733	21.9
810.907	17.96
811.081	12.13
811.255	11.76
811.428	11.01
811.602	10.65
811.776	8.04
811.95	4.11
812.123	5.64
812.297	-0.01
812.471	4.31
812.644	3.26
812.818	4.19
812.992	8.14
813.165	9.35
813.339	9.33
813.512	6.21
813.686	1.71
813.86	4.78
814.033	2.12
814.207	4.06
814.38	2.59
814.554	3.79
814.727	6.31
814.9	5.29
815.074	3.68
815.247	4.96
815.421	3.48
815.594	6.36
815.767	7.72
815.941	14.72
816.114	11.83
816.287	14.7
816.46	14.33
816.634	10.64
816.807	10.59
816.98	6.02
817.153	6.05
817.327	10.43
817.5	10.65
817.673	10.43
817.846	8.34
818.019	14.01
818.192	12.93
818.365	10.35
818.538	10.8
818.711	14.78
818.884	15.89
819.057	15.17
819.23	14.29
819.403	14.4
819.576	11.06
819.749	5.82
819.922	3.85
820.095	4.25
820.268	7.57
820.441	8.89
820.614	6.2
820.786	9.67
820.959	10.66
821.132	12.29
821.305	13.16
821.477	15.22
821.65	16
821.823	16.7
821.996	17.47
822.168	17.42
822.341	17.5
822.514	17.92
822.686	17.84
822.859	17.88
823.031	17.68
823.204	17.39
823.376	17.47
823.549	16.86
823.722	17.06
823.894	17.54
824.067	16.65
824.239	15.7
824.411	16.56
824.584	15.7
824.756	15.1
824.929	14.38
825.101	13.83
825.273	13.38
825.446	14.43
825.618	13.7
825.79	12.53
825.963	13.83
826.135	15.5
826.307	13.72
826.479	15.01
826.652	15.04
826.824	15.65
826.996	16.18
827.168	15.4
827.34	15.27
827.512	14.92
827.684	15.14
827.856	14.66
828.029	13.55
828.201	14.64
828.373	13.48
828.545	12.68
828.717	12.77
828.889	13.28
829.061	13.3
829.232	13.88
829.404	16.42
829.576	16.5
829.748	17.42
829.92	15.82
830.092	14.72
830.264	13.88
830.436	13.12
830.607	12.81
830.779	10.36
830.951	11.43
831.123	9.66
831.294	4.1
831.466	1.96
831.638	4.19
831.809	4.87
831.981	7.05
832.153	8.48
832.324	10.75
832.496	9.01
832.667	7.07
832.839	10.28
833.011	12.23
833.182	15.52
833.354	14.86
833.525	12.77
833.697	15.11
833.868	12.68
834.039	12.17
834.211	12.09
834.382	12.43
834.554	12.79
834.725	10.91
834.896	10.58
835.068	8.26
835.239	5.86
835.41	7.21
835.581	11.38
835.753	12.89
835.924	11.92
836.095	11.3
836.266	12.67
836.438	14.41
836.609	13.29
836.78	11.01
836.951	11.83
837.122	17.53
837.293	15.9
837.464	8.49
837.635	7
837.806	6.68
837.977	7.7
838.148	5.74
838.319	7.18
838.49	8.22
838.661	11.44
838.832	9.15
839.003	5.19
839.174	3.75
839.345	3.81
839.516	8.01
839.687	12.64
839.857	13.9
840.028	13.99
840.199	18.7
840.37	20.8
840.54	23.69
840.711	25.2
840.882	25.61
841.053	27.59
841.223	29.94
841.394	23.37
841.564	22.4
841.735	26.68
841.906	29.34
842.076	21.28
842.247	17.28
842.417	4.9
842.588	10.78
842.758	13.87
842.929	14.85
843.099	11.19
843.27	16.33
843.44	19.09
843.611	6.71
843.781	0.02
843.951	5
844.122	8.56
844.292	22.05
844.462	18.37
844.633	14.69
844.803	18.29
844.973	16.78
845.144	15.16
845.314	13.66
845.484	12.92
845.654	12.52
845.824	3.02
845.995	0.31
846.165	-9.14
846.335	-10.15
846.505	-6.58
846.675	-17.47
846.845	-15.19
847.015	-11.03
847.185	-11.29
847.355	1.89
847.525	3.13
847.695	13.66
847.865	15.62
848.035	17.47
848.205	15.64
848.375	10.87
848.545	6.7
848.715	5.88
848.884	-4.27
849.054	-2.69
849.224	-9.8
849.394	-7.53
849.564	1.17
849.733	-15.36
849.903	-16.75
850.073	-17.04
850.243	-16.44
850.412	-6.14
850.582	-10.24
850.752	1.62
850.921	8.47
851.091	7.98
851.26	9.53
851.43	0.04
851.599	1.64
851.769	-25.3
851.939	-7.19
852.108	-3.5
852.278	-9.49
852.447	1.96
852.616	0.04
852.786	-0.49
852.955	2.75
853.125	10.65
853.294	18.35
853.463	21.68
853.633	37.56
853.802	24.25
853.971	27.14
854.141	31.97
854.31	28.83
854.479	31.03
854.648	27.65
854.818	28.98
854.987	21.34
855.156	5.45
855.325	13.91
855.494	16.98
855.663	20.92
855.832	4.78
856.001	-8.06
856.171	-3.32
856.34	8.43
856.509	-3.38
856.678	-10.46
856.847	-7.8
857.016	-5.01
857.185	-4.68
857.353	-8.35
857.522	5.12
857.691	18.2
857.86	22.29
858.029	7.59
858.198	-9.56
858.367	-7.88
858.535	-2.36
858.704	-9.84
858.873	-8.96
859.042	0.54
859.21	6.6
859.379	-7.23
859.548	-23.16
859.717	-30.48
859.885	-6.48
860.054	3.67
860.222	2.29
860.391	-1.63
860.56	2.11
860.728	7.49
860.897	-2.15
861.065	-7.89
861.234	-4.24
861.402	9.15
861.571	13.44
861.739	7.61
861.908	-4.57
862.076	0.61
862.244	11.74
862.413	21.64
862.581	17.44
862.749	16.7
862.918	14.01
863.086	18.3
863.254	10.82
863.423	21.97
863.591	22
863.759	29.71
863.927	26.97
864.096	18.29
864.264	-1.52
864.432	4.39
864.6	-8.56
864.768	0.54
864.936	-27.34
865.104	-20.53
865.272	-27.99
865.44	-33.68
865.608	-55.21
865.776	-65.32
865.944	-71.68
866.112	-32.03
866.28	-24.91
866.448	-18.32
866.616	-29.16
866.784	-26.27
866.952	-33.41
867.12	-48.62
867.288	-30.64
867.455	-27.21
867.623	-21.74
867.791	-15.88
867.959	-33.95
868.127	-41.45
868.294	-16.22
868.462	-9.25
868.63	0.04
868.797	11.28
868.965	18.68
869.133	10.34
869.3	19.71
869.468	18.83
869.636	21.69
869.803	25.48
869.971	24.24
870.138	12.76
870.306	14.66
870.473	18.13
870.641	6.94
870.808	2.43
870.975	3.4
871.143	-11.72
871.31	-14.48
871.478	3.47
871.645	23.67
871.812	21.86
871.98	19.15
872.147	23.28
872.314	19.25
872.482	19.36
872.649	20.29
872.816	17.63
872.983	22.32
873.15	20.75
873.318	4.49
873.485	4.98
873.652	-5.27
873.819	-3.61
873.986	-15.35
874.153	-20.52
874.32	-26.55
874.487	-26.62
874.654	-11.79
874.821	-4.4
874.988	10.01
875.155	20.04
875.322	11.04
875.489	27.17
875.656	22.69
875.823	32.39
875.99	24.04
876.157	28.98
876.324	23.92
876.49	15.99
876.657	13.41
876.824	4.36
876.991	8.71
877.157	10.1
877.324	21.82
877.491	14.38
877.658	7.13
877.824	-1.64
877.991	-19.07
878.157	-20.91
878.324	-1.84
878.491	3.15
878.657	12.29
878.824	8.44
878.99	-8.27
879.157	-47.67
879.323	-35.28
879.49	-39.93
879.656	-11.57
879.823	-7.61
879.989	-11.96
880.156	-16.24
880.322	-31.57
880.488	-54.65
880.655	-42.88
880.821	-23.99
880.987	-4.45
881.154	5.54
881.32	16.3
881.486	16.33
881.652	21.74
881.819	25.13
881.985	22.21
882.151	16.23
882.317	21.06
882.483	24.67
882.649	21.91
882.816	22.81
882.982	21.76
883.148	19.89
883.314	16.55
883.48	14.2
883.646	12.25
883.812	10.47
883.978	13.3
884.144	11.48
884.31	11.43
884.476	10.56
884.642	8.46
884.807	7
884.973	6.93
885.139	8.11
885.305	9.3
885.471	11.58
885.637	14.12
885.802	11.38
885.968	12.96
886.134	9.56
886.3	11.83
886.465	15.6
886.631	17.19
886.797	18.33
886.962	19.46
887.128	16.71
887.293	11.58
887.459	9.24
887.625	10.88
887.79	12.52
887.956	15.28
888.121	13.63
888.287	3.31
888.452	4.7
888.618	-0.57
888.783	0.17
