Data from 2938036_Reflection_1.txt Node
Date: Sun Jul 12 14:49:11 EDT 2015
User: robert
Spectrometer: USB4E03001
Autoset integration time: false
Trigger mode: 4
Integration Time (sec): 1.000000E-1
Scans to average: 10
Electric dark correction enabled: true
Nonlinearity correction enabled: false
Boxcar width: 5
Stray light correction enabled: false
XAxis mode: Wavelengths
Stop averaging: false
Number of Pixels in Spectrum: 3648
>>>>>Begin Spectral Data<<<<<
177.566	83.05
177.785	151.59
178.005	179.04
178.225	-22.14
178.445	80.87
178.665	124.55
178.885	366.88
179.105	99.69
179.324	102.87
179.544	58.87
179.764	71.49
179.984	51.23
180.204	50.26
180.423	12.41
180.643	48.64
180.863	56.78
181.083	59.2
181.302	54.34
181.522	37.92
181.742	35.04
181.961	24.48
182.181	4.49
182.401	47.35
182.621	54.19
182.84	22.05
183.06	15.99
183.279	12.91
183.499	-5.44
183.719	1.82
183.938	-76.75
184.158	-30.21
184.377	-733.72
184.597	304.66
184.816	-350.75
185.036	-549.9
185.256	242.81
185.475	358.68
185.695	580.2
185.914	252.22
186.134	-727.94
186.353	-194.48
186.572	404.15
186.792	4137.5
187.011	-458.31
187.231	-250.62
187.45	-440.94
187.67	-209.77
187.889	-39.82
188.108	-110.28
188.328	-57.25
188.547	54.87
188.766	80.23
188.986	54.33
189.205	73.24
189.424	88.61
189.644	100.19
189.863	81.05
190.082	43.62
190.302	18.25
190.521	420.09
190.74	668.86
190.959	273.63
191.178	-11.07
191.398	-21.62
191.617	19.45
191.836	-39.76
192.055	-246.18
192.274	34.19
192.494	51.26
192.713	128.17
192.932	89.83
193.151	73.4
193.37	115.7
193.589	177.4
193.808	198.5
194.027	165.5
194.246	172.48
194.465	173.34
194.685	233.18
194.904	209.92
195.123	442.47
195.342	-502.85
195.561	-619.4
195.78	-215.64
195.999	-84.09
196.218	-99.81
196.436	-284.31
196.655	-40.47
196.874	-14.97
197.093	16.83
197.312	115.97
197.531	420.16
197.75	13.33
197.969	14.49
198.188	64.61
198.407	198.65
198.625	1045.86
198.844	565.72
199.063	-865.56
199.282	1209.63
199.501	398.28
199.719	1072.65
199.938	-1067.24
200.157	-398.23
200.376	-810.28
200.594	-244.07
200.813	1534.04
201.032	-1067.38
201.251	-590.48
201.469	-2516.58
201.688	-146.31
201.907	-85.96
202.125	-74.99
202.344	-4.58
202.563	-266.81
202.781	98.04
203	183.66
203.218	128.86
203.437	256.1
203.656	181.67
203.874	123.58
204.093	136.92
204.311	137.6
204.53	161.1
204.748	121.13
204.967	136.3
205.185	152.3
205.404	198.21
205.622	130.97
205.841	149.45
206.059	251.47
206.278	220.99
206.496	200.16
206.715	208.46
206.933	895.59
207.151	435
207.37	-575.32
207.588	-98.45
207.806	-98.84
208.025	-38.72
208.243	-22.44
208.461	-38.58
208.68	-62.62
208.898	-136.52
209.116	-99.92
209.335	703.96
209.553	-1171.92
209.771	172.23
209.989	371.91
210.208	251.33
210.426	286.62
210.644	172.35
210.862	97.59
211.081	114.18
211.299	76.89
211.517	145.87
211.735	195.41
211.953	209.41
212.171	668.6
212.39	395.36
212.608	253.14
212.826	-232.04
213.044	60.31
213.262	-79.13
213.48	-56.47
213.698	179.89
213.916	59.65
214.134	-67.13
214.352	81.39
214.57	86.42
214.788	83.36
215.006	764
215.224	582.46
215.442	-248.35
215.66	-277.24
215.878	-212.67
216.096	-223.05
216.314	-206.06
216.532	-199.89
216.75	-58.25
216.968	-263.51
217.185	-142.32
217.403	-64.43
217.621	-80.74
217.839	-9.03
218.057	36.59
218.275	-134.86
218.492	198.32
218.71	-1287.23
218.928	-93.92
219.146	116.39
219.363	57.34
219.581	43.98
219.799	124.24
220.017	63.34
220.234	81.14
220.452	121.51
220.67	-199.66
220.887	-505.81
221.105	-22.63
221.323	27.19
221.54	151.26
221.758	-51.91
221.976	-142.56
222.193	102.21
222.411	45.45
222.629	46.84
222.846	215.03
223.064	-145.02
223.281	-360.88
223.499	64.12
223.716	20.01
223.934	-1534.15
224.151	15.07
224.369	63.54
224.586	130.09
224.804	156.97
225.021	124.51
225.239	106.79
225.456	117.5
225.674	90.37
225.891	86.74
226.108	71.44
226.326	50.93
226.543	36.9
226.76	22.05
226.978	7.96
227.195	12.65
227.413	6.2
227.63	2.4
227.847	-3.63
228.064	-8.65
228.282	-8.99
228.499	-6.63
228.716	-0.99
228.934	2.16
229.151	4.11
229.368	4.52
229.585	3.69
229.802	5.4
230.02	8.33
230.237	9.07
230.454	12.44
230.671	13.99
230.888	13.45
231.105	13.85
231.323	16.15
231.54	13.52
231.757	11.76
231.974	18.7
232.191	18.94
232.408	10.38
232.625	17.07
232.842	15.26
233.059	11
233.276	9.93
233.493	11.75
233.71	11.99
233.927	13.61
234.144	14.35
234.361	8.48
234.578	16.2
234.795	23.73
235.012	17.13
235.229	17.89
235.446	25.05
235.663	31.32
235.879	27.05
236.096	22.84
236.313	21.78
236.53	30.46
236.747	28.74
236.964	17.04
237.181	13.12
237.397	13.86
237.614	16.12
237.831	13.41
238.048	9.03
238.264	5.84
238.481	7.71
238.698	11.38
238.915	4.93
239.131	8.18
239.348	12.08
239.565	12.92
239.781	18.85
239.998	15.86
240.215	17.05
240.431	15.71
240.648	17.26
240.865	16.28
241.081	16.76
241.298	16.37
241.514	16.49
241.731	16.02
241.947	16.6
242.164	15.53
242.38	15.91
242.597	15.52
242.814	15.26
243.03	15.56
243.246	16.69
243.463	16.01
243.679	15.82
243.896	14.73
244.112	14.68
244.329	14.7
244.545	14.95
244.762	14.01
244.978	12.88
245.194	12.39
245.411	10.24
245.627	7.98
245.843	9.24
246.06	11.14
246.276	11.61
246.492	11.95
246.709	13.11
246.925	11.93
247.141	12.41
247.357	12.01
247.574	12.51
247.79	12.85
248.006	12.95
248.222	12.67
248.439	11.71
248.655	11.63
248.871	11.87
249.087	10.76
249.303	10.94
249.519	12.29
249.736	13.07
249.952	12.75
250.168	14.43
250.384	16.68
250.6	16.01
250.816	15.99
251.032	15.49
251.248	15.41
251.464	15.55
251.68	17.7
251.896	15.45
252.112	15.27
252.328	13.82
252.544	12.14
252.76	11.77
252.976	12.36
253.192	13.76
253.408	13.49
253.624	12.97
253.84	12.23
254.056	8.28
254.272	5.87
254.487	5.57
254.703	5.46
254.919	4.75
255.135	4.36
255.351	1.73
255.567	1.25
255.782	0.75
255.998	0.52
256.214	-0.62
256.43	2.78
256.646	4.87
256.861	5.07
257.077	9.83
257.293	8.92
257.508	8.81
257.724	10.91
257.94	11.87
258.155	11.93
258.371	11.78
258.587	12.02
258.802	12.44
259.018	12.09
259.234	11.28
259.449	9.58
259.665	10.42
259.88	10.31
260.096	10.73
260.312	9.96
260.527	10.25
260.743	9.7
260.958	9.46
261.174	9.27
261.389	10.72
261.605	12.81
261.82	14.14
262.036	13.92
262.251	14.76
262.466	14.45
262.682	13.93
262.897	13.71
263.113	17.53
263.328	19.66
263.543	20.32
263.759	15.28
263.974	12.99
264.189	11.05
264.405	10.75
264.62	9.47
264.835	7.47
265.051	10.45
265.266	11.92
265.481	6.5
265.696	2.47
265.912	1.69
266.127	5.16
266.342	4.27
266.557	3.91
266.773	4.73
266.988	4
267.203	4.61
267.418	4.27
267.633	4.23
267.848	6.82
268.064	10.34
268.279	11.36
268.494	9.49
268.709	7.96
268.924	9.59
269.139	9.79
269.354	10.45
269.569	11.12
269.784	10.89
269.999	10.12
270.214	7.46
270.429	5.8
270.644	5.27
270.859	7.58
271.074	9.05
271.289	8.51
271.504	8.28
271.719	8.93
271.934	9.02
272.149	8.9
272.363	9.22
272.578	9.72
272.793	10.44
273.008	10.47
273.223	9.06
273.438	8.88
273.653	9.05
273.867	9.01
274.082	8.45
274.297	8.57
274.512	8.14
274.726	6.9
274.941	7.2
275.156	6.12
275.371	5.91
275.585	5.67
275.8	3.41
276.015	2.34
276.229	3.33
276.444	4.11
276.659	4.33
276.873	4.68
277.088	7.83
277.302	9.49
277.517	9.69
277.732	9.85
277.946	11.03
278.161	12.97
278.375	14.17
278.59	14.9
278.804	14.47
279.019	14.25
279.233	13.56
279.448	12.62
279.662	11.17
279.877	10.98
280.091	9.46
280.306	10.72
280.52	11.28
280.735	10.61
280.949	10.43
281.163	11.93
281.378	11.01
281.592	11.01
281.806	10.6
282.021	10.32
282.235	10.55
282.449	12.15
282.664	10.6
282.878	10.41
283.092	9.77
283.307	9.04
283.521	7.81
283.735	8.8
283.949	9.97
284.164	9.96
284.378	10.92
284.592	11.19
284.806	11.27
285.02	10.88
285.234	10.37
285.449	10.69
285.663	10.56
285.877	10.76
286.091	10.59
286.305	10.85
286.519	9.98
286.733	10.16
286.947	9.99
287.161	8.85
287.375	8.9
287.589	9.77
287.803	8.98
288.017	8.64
288.231	6.77
288.445	6.64
288.659	5.81
288.873	6.74
289.087	6.51
289.301	6.51
289.515	7.22
289.729	8.22
289.943	8.4
290.157	10.38
290.371	10.07
290.584	10.55
290.798	11.66
291.012	12
291.226	12.64
291.44	13.36
291.654	14.15
291.867	15.78
292.081	16.82
292.295	16.58
292.509	15.77
292.722	16.67
292.936	17.25
293.15	15.48
293.364	15.19
293.577	14.66
293.791	13.73
294.005	13.28
294.218	10.55
294.432	9.68
294.645	9.25
294.859	9.21
295.073	8.43
295.286	8.52
295.5	9.87
295.713	9.58
295.927	10.02
296.14	9.29
296.354	8.95
296.568	9.18
296.781	10.04
296.994	9.64
297.208	8.79
297.421	8.95
297.635	8.13
297.848	6.94
298.062	6.57
298.275	6.21
298.489	7.11
298.702	6.62
298.915	7.87
299.129	6.34
299.342	6.56
299.555	7.21
299.769	6.37
299.982	8.57
300.195	9.07
300.409	10.26
300.622	9.35
300.835	8.36
301.048	9.48
301.262	8.79
301.475	7.72
301.688	8.26
301.901	8.19
302.115	9.72
302.328	7.79
302.541	7.22
302.754	7.38
302.967	8.65
303.18	9.79
303.393	9.25
303.607	9.3
303.82	11.19
304.033	11.92
304.246	12.81
304.459	13.21
304.672	14.12
304.885	15.32
305.098	14.16
305.311	14.12
305.524	13.66
305.737	13.97
305.95	13.17
306.163	12.79
306.376	12.08
306.589	12.07
306.802	10.63
307.015	10.94
307.228	9.72
307.44	10.64
307.653	10.44
307.866	10.26
308.079	9.6
308.292	10.71
308.505	10.18
308.718	9.3
308.93	8.7
309.143	9.79
309.356	10.65
309.569	10.88
309.781	11.28
309.994	11.65
310.207	11.05
310.42	11.79
310.632	10.92
310.845	11.78
311.058	13.07
311.27	13.32
311.483	12.2
311.696	12.18
311.908	13.01
312.121	12.9
312.333	13.99
312.546	14.55
312.759	14.38
312.971	15.89
313.184	15.51
313.396	13.72
313.609	14.57
313.821	15.79
314.034	14.69
314.246	14.14
314.459	13.37
314.671	13.05
314.884	9.68
315.096	10.22
315.309	10
315.521	10.46
315.733	11.46
315.946	10.45
316.158	10.75
316.371	12.19
316.583	11.89
316.795	12.86
317.008	11.98
317.22	15.04
317.432	15.03
317.644	15.12
317.857	15.35
318.069	16.91
318.281	17.25
318.494	17.75
318.706	17
318.918	17.69
319.13	17.37
319.342	16.45
319.555	16.2
319.767	16.54
319.979	15.92
320.191	15.43
320.403	14.22
320.615	15.01
320.827	14.44
321.039	14.54
321.252	14.1
321.464	13.01
321.676	12.92
321.888	12.57
322.1	11.68
322.312	11.1
322.524	11.91
322.736	12.99
322.948	11.97
323.16	12.47
323.372	13.29
323.584	13.16
323.796	14.1
324.007	13.99
324.219	15.7
324.431	16.29
324.643	18.12
324.855	17
325.067	16.11
325.279	15.99
325.491	15.24
325.702	14.02
325.914	14.16
326.126	15.21
326.338	15.9
326.55	14.89
326.761	15.18
326.973	13.13
327.185	14.12
327.396	14.01
327.608	14.4
327.82	14.36
328.032	15.36
328.243	14.63
328.455	14.91
328.666	15.72
328.878	17.55
329.09	17.71
329.301	18.61
329.513	20.18
329.725	21.23
329.936	21.33
330.148	22.68
330.359	22.05
330.571	23.12
330.782	20
330.994	19.04
331.205	18.3
331.417	19.06
331.628	18.33
331.84	17.41
332.051	15.7
332.262	15.47
332.474	14.77
332.685	13.9
332.897	13.9
333.108	15.35
333.319	13.87
333.531	14.11
333.742	12.65
333.953	13.98
334.165	14.1
334.376	14.78
334.587	15.82
334.799	14.26
335.01	16.17
335.221	16.32
335.432	15.74
335.644	18.13
335.855	17.65
336.066	18.32
336.277	16.88
336.488	17.42
336.7	17.05
336.911	17.12
337.122	18.13
337.333	17.64
337.544	19.23
337.755	20.04
337.966	19.45
338.177	19.61
338.388	19.08
338.599	20.58
338.811	18.52
339.022	20.17
339.233	19.86
339.444	19.95
339.655	19.56
339.866	18.67
340.076	17.79
340.287	17.53
340.498	16.89
340.709	16.3
340.92	15.93
341.131	17.38
341.342	16.51
341.553	16.98
341.764	17.15
341.975	17.68
342.185	16.66
342.396	16.88
342.607	17.59
342.818	18.81
343.029	20.39
343.239	20.6
343.45	20.23
343.661	20.2
343.872	19.85
344.082	19.17
344.293	18.07
344.504	17.83
344.714	18.15
344.925	17.62
345.136	17.63
345.346	16.96
345.557	15.65
345.768	14.79
345.978	15.47
346.189	14.08
346.399	14.35
346.61	15.48
346.821	16.49
347.031	17.43
347.242	17.11
347.452	15.81
347.663	15.68
347.873	16.2
348.084	16.32
348.294	15.89
348.504	16.73
348.715	17.45
348.925	16.33
349.136	16.02
349.346	15.48
349.557	15.61
349.767	16.05
349.977	16.39
350.188	16.9
350.398	18.07
350.608	18.21
350.819	19.6
351.029	19.13
351.239	18.87
351.449	19.13
351.66	18.53
351.87	17.94
352.08	17.77
352.29	17.72
352.501	17.7
352.711	17.59
352.921	17.1
353.131	15.56
353.341	16
353.552	16.47
353.762	16.56
353.972	17.88
354.182	19.07
354.392	17.98
354.602	17.08
354.812	17.7
355.022	18.55
355.232	17.65
355.442	19.19
355.652	18.76
355.862	18.64
356.072	17.84
356.282	15.74
356.492	14.99
356.702	17.06
356.912	17.15
357.122	16.58
357.332	15.16
357.542	15.02
357.752	14.21
357.962	13.86
358.171	14.78
358.381	15.58
358.591	16.45
358.801	16.67
359.011	15.28
359.221	15.78
359.43	15.56
359.64	16.19
359.85	16.67
360.06	16.74
360.269	16.98
360.479	16.27
360.689	15.77
360.899	15.43
361.108	14.62
361.318	15.03
361.528	14.59
361.737	14.73
361.947	14.22
362.156	14.7
362.366	14.3
362.576	14.06
362.785	14.05
362.995	13.92
363.204	13.65
363.414	14.34
363.623	13.99
363.833	14.47
364.042	14.81
364.252	15.08
364.461	14.98
364.671	14.89
364.88	14.51
365.09	14.09
365.299	13.59
365.509	13.93
365.718	14.16
365.927	14.33
366.137	13.76
366.346	13.19
366.555	12.83
366.765	12.48
366.974	12.6
367.183	13.77
367.393	14.18
367.602	14.19
367.811	13.93
368.021	12.59
368.23	13
368.439	13.44
368.648	13.41
368.857	12.42
369.067	12.13
369.276	11.59
369.485	11.22
369.694	11
369.903	11.15
370.112	12.33
370.321	13.35
370.531	13.84
370.74	13.05
370.949	12.81
371.158	13.93
371.367	13.5
371.576	13.98
371.785	13.38
371.994	13.76
372.203	14.29
372.412	13.46
372.621	13.04
372.83	12.63
373.039	12.06
373.248	12.16
373.457	12.03
373.666	12.14
373.874	12.01
374.083	12.1
374.292	12.23
374.501	11.27
374.71	11.71
374.919	12.08
375.128	11.43
375.336	12.37
375.545	12.17
375.754	11.94
375.963	12.8
376.171	12.9
376.38	13.16
376.589	12.73
376.798	13.08
377.006	12.43
377.215	12.31
377.424	12.38
377.632	12.22
377.841	12.88
378.05	13.55
378.258	12.68
378.467	12.87
378.675	12.71
378.884	12.3
379.093	12.47
379.301	12.93
379.51	12.87
379.718	12.65
379.927	12.53
380.135	11.64
380.344	11.35
380.552	11.86
380.761	11.71
380.969	11.72
381.177	11.44
381.386	11.27
381.594	11.07
381.803	11.14
382.011	11.29
382.219	11.36
382.428	11.37
382.636	10.92
382.845	10.08
383.053	9.94
383.261	9.72
383.469	9.85
383.678	9.79
383.886	9.69
384.094	9.52
384.302	9.19
384.511	9.19
384.719	9.22
384.927	9.45
385.135	10.23
385.343	10.33
385.552	10.41
385.76	10.57
385.968	10.69
386.176	10.31
386.384	10.38
386.592	10.82
386.8	11.02
387.008	10.98
387.216	10.74
387.424	9.92
387.633	9.76
387.841	9.61
388.049	9.68
388.257	9.28
388.465	9.38
388.672	9.55
388.88	9.39
389.088	9
389.296	8.98
389.504	9.07
389.712	9.68
389.92	9.61
390.128	9.27
390.336	9.23
390.544	9.33
390.751	9.69
390.959	9.91
391.167	9.69
391.375	9.8
391.583	9.58
391.79	9.14
391.998	9.22
392.206	8.77
392.414	8.9
392.621	9.09
392.829	9.06
393.037	8.61
393.244	7.9
393.452	7.82
393.66	7.85
393.867	7.88
394.075	8.13
394.283	7.61
394.49	7.9
394.698	8.23
394.905	7.81
395.113	7.61
395.32	7.85
395.528	7.89
395.735	8.16
395.943	7.62
396.15	7.86
396.358	7.5
396.565	7.44
396.773	7.57
396.98	7.43
397.188	7.29
397.395	7.56
397.602	7.35
397.81	7.31
398.017	7.42
398.225	7.79
398.432	7.71
398.639	7.91
398.847	8.09
399.054	7.89
399.261	7.87
399.468	8.2
399.676	7.87
399.883	7.94
400.09	8.05
400.297	7.73
400.505	7.52
400.712	7.42
400.919	7.58
401.126	7.48
401.333	7.31
401.54	7.38
401.748	7.13
401.955	7.43
402.162	7.6
402.369	7.69
402.576	7.74
402.783	7.97
402.99	7.98
403.197	7.73
403.404	7.81
403.611	7.78
403.818	7.61
404.025	7.64
404.232	7.32
404.439	7.24
404.646	6.65
404.853	6.76
405.06	6.78
405.267	6.67
405.474	6.72
405.681	6.37
405.887	6.62
406.094	6.61
406.301	6.43
406.508	6.52
406.715	6.58
406.922	6.77
407.128	6.57
407.335	6.15
407.542	6.25
407.749	6.17
407.955	6.54
408.162	6.42
408.369	6.26
408.575	6.09
408.782	6.26
408.989	5.86
409.195	6.09
409.402	6.19
409.609	6.24
409.815	6.2
410.022	6.12
410.228	6.04
410.435	6.03
410.642	5.98
410.848	6.52
411.055	6.4
411.261	6.58
411.468	6.33
411.674	6.01
411.881	6.16
412.087	6.52
412.294	6.38
412.5	6.17
412.706	5.83
412.913	5.71
413.119	5.2
413.326	5.34
413.532	5.19
413.738	5.62
413.945	5.58
414.151	5.58
414.357	5.16
414.564	5.63
414.77	5.6
414.976	5.78
415.182	5.87
415.389	6.08
415.595	5.95
415.801	5.97
416.007	5.97
416.214	6.22
416.42	6.29
416.626	6.14
416.832	5.9
417.038	5.81
417.244	5.95
417.45	5.89
417.657	5.71
417.863	5.52
418.069	5.49
418.275	5.45
418.481	5.52
418.687	5.59
418.893	5.64
419.099	5.67
419.305	5.71
419.511	5.69
419.717	5.58
419.923	5.7
420.129	5.88
420.335	5.94
420.541	5.84
420.746	5.75
420.952	5.58
421.158	5.44
421.364	5.39
421.57	5.46
421.776	5.42
421.982	5.58
422.187	5.5
422.393	5.37
422.599	5.32
422.805	5.36
423.01	5.25
423.216	5.29
423.422	5.32
423.628	5.33
423.833	5.31
424.039	5.34
424.245	5.37
424.45	5.22
424.656	5.36
424.862	5.45
425.067	5.43
425.273	5.57
425.478	5.64
425.684	5.83
425.889	5.78
426.095	5.93
426.301	5.87
426.506	5.87
426.712	6.21
426.917	6.11
427.123	6
427.328	5.89
427.533	5.88
427.739	5.51
427.944	5.46
428.15	5.48
428.355	5.21
428.561	5.15
428.766	4.97
428.971	4.99
429.177	5.01
429.382	5.03
429.587	4.94
429.793	4.94
429.998	5.29
430.203	5.58
430.408	5.76
430.614	5.81
430.819	5.78
431.024	5.95
431.229	5.79
431.434	5.67
431.64	5.63
431.845	5.86
432.05	5.84
432.255	5.64
432.46	5.32
432.665	5.16
432.87	5.07
433.076	5.24
433.281	4.95
433.486	4.96
433.691	5.07
433.896	4.99
434.101	4.98
434.306	4.8
434.511	4.82
434.716	4.82
434.921	4.8
435.126	4.93
435.331	4.9
435.535	5.17
435.74	5.2
435.945	5.18
436.15	5.32
436.355	5.33
436.56	5.54
436.765	5.66
436.97	5.64
437.174	5.93
437.379	5.85
437.584	5.69
437.789	5.62
437.993	5.55
438.198	5.49
438.403	5.26
438.608	4.99
438.812	4.96
439.017	4.81
439.222	5
439.426	4.79
439.631	4.88
439.836	5.01
440.04	5.02
440.245	5.07
440.45	5.17
440.654	5.33
440.859	5.53
441.063	5.34
441.268	5.39
441.472	5.15
441.677	5.15
441.881	5.09
442.086	4.92
442.29	4.84
442.495	4.78
442.699	4.73
442.904	4.66
443.108	4.65
443.312	4.79
443.517	4.98
443.721	5.1
443.925	5.35
444.13	5.65
444.334	5.75
444.538	5.77
444.743	5.8
444.947	5.76
445.151	5.7
445.356	5.5
445.56	5.59
445.764	5.56
445.968	5.45
446.173	5.25
446.377	5.01
446.581	5.18
446.785	5.17
446.989	5.15
447.193	5.15
447.398	5.22
447.602	5.31
447.806	5.28
448.01	5.2
448.214	5.22
448.418	5.24
448.622	5.37
448.826	5.14
449.03	4.99
449.234	5.06
449.438	5.03
449.642	4.98
449.846	5.05
450.05	4.86
450.254	4.81
450.458	5.03
450.662	4.88
450.866	4.8
451.069	4.91
451.273	5.21
451.477	5.03
451.681	5.06
451.885	5.08
452.089	5.01
452.292	5
452.496	5.01
452.7	4.74
452.904	4.86
453.107	4.87
453.311	4.92
453.515	4.91
453.719	5.08
453.922	5.12
454.126	4.91
454.33	4.84
454.533	4.92
454.737	4.91
454.94	4.99
455.144	4.78
455.348	4.72
455.551	4.52
455.755	4.53
455.958	4.59
456.162	4.47
456.365	4.76
456.569	4.85
456.772	4.94
456.976	5.06
457.179	5.16
457.383	5.35
457.586	5.29
457.79	5.43
457.993	5.43
458.196	5.27
458.4	5.38
458.603	5.34
458.807	5.2
459.01	5.25
459.213	5.14
459.417	5.11
459.62	4.98
459.823	5.03
460.026	4.99
460.23	5
460.433	4.92
460.636	4.85
460.839	4.79
461.042	4.95
461.246	4.78
461.449	4.92
461.652	4.94
461.855	5.03
462.058	4.98
462.261	5.09
462.464	4.9
462.668	5.02
462.871	5.08
463.074	4.93
463.277	5.06
463.48	5.29
463.683	4.98
463.886	4.78
464.089	5
464.292	5.15
464.495	5.07
464.698	5.11
464.901	4.95
465.104	4.81
465.306	5.08
465.509	4.68
465.712	4.74
465.915	4.87
466.118	4.85
466.321	4.69
466.524	4.57
466.726	4.56
466.929	4.62
467.132	4.77
467.335	4.88
467.538	4.75
467.74	5
467.943	4.77
468.146	4.85
468.348	5.06
468.551	5.14
468.754	4.98
468.956	4.82
469.159	4.87
469.362	4.71
469.564	4.47
469.767	4.49
469.969	4.25
470.172	4.22
470.375	4.12
470.577	4.23
470.78	3.96
470.982	4.12
471.185	4.24
471.387	4.28
471.59	4.21
471.792	4.34
471.995	4.39
472.197	4.54
472.399	4.69
472.602	4.47
472.804	4.22
473.007	4.31
473.209	4.32
473.411	4.2
473.614	4.15
473.816	4.35
474.018	4.42
474.22	4.35
474.423	4.35
474.625	4.46
474.827	4.62
475.03	4.78
475.232	4.98
475.434	5.03
475.636	5.09
475.838	4.97
476.04	4.94
476.243	4.84
476.445	4.91
476.647	4.76
476.849	4.75
477.051	4.86
477.253	4.88
477.455	4.63
477.657	4.53
477.859	4.71
478.061	4.75
478.263	4.83
478.465	4.91
478.667	4.75
478.869	4.91
479.071	4.74
479.273	4.56
479.475	4.55
479.677	4.7
479.879	4.75
480.081	4.61
480.283	4.51
480.485	4.56
480.686	4.44
480.888	4.52
481.09	4.56
481.292	4.63
481.494	4.69
481.695	4.72
481.897	4.6
482.099	4.57
482.301	4.65
482.502	4.7
482.704	4.69
482.906	4.72
483.107	4.75
483.309	4.74
483.511	4.8
483.712	4.86
483.914	4.81
484.115	4.82
484.317	4.88
484.519	4.88
484.72	4.88
484.922	4.87
485.123	4.89
485.325	4.92
485.526	4.88
485.728	4.87
485.929	4.86
486.131	4.83
486.332	4.82
486.534	4.78
486.735	4.75
486.936	4.8
487.138	4.83
487.339	4.81
487.541	4.72
487.742	4.77
487.943	4.71
488.144	4.67
488.346	4.69
488.547	4.73
488.748	4.69
488.95	4.71
489.151	4.64
489.352	4.57
489.553	4.57
489.755	4.72
489.956	4.69
490.157	4.7
490.358	4.76
490.559	4.75
490.76	4.82
490.961	4.88
491.163	4.95
491.364	5.02
491.565	5.07
491.766	5.05
491.967	4.99
492.168	5.05
492.369	5.04
492.57	5.1
492.771	5.14
492.972	5.09
493.173	5.11
493.374	4.9
493.575	4.96
493.776	4.92
493.976	4.82
494.177	4.77
494.378	4.55
494.579	4.59
494.78	4.46
494.981	4.4
495.182	4.39
495.382	4.26
495.583	4.57
495.784	4.49
495.985	4.48
496.185	4.73
496.386	4.9
496.587	5.02
496.788	5.08
496.988	5.18
497.189	5.2
497.39	5.3
497.59	5.43
497.791	5.24
497.992	5.13
498.192	5.07
498.393	5.02
498.593	4.88
498.794	4.84
498.994	4.8
499.195	4.68
499.395	4.72
499.596	4.66
499.796	4.54
499.997	4.64
500.197	4.76
500.398	4.93
500.598	4.93
500.799	4.97
500.999	4.97
501.199	5.05
501.4	5.04
501.6	5.19
501.801	4.99
502.001	5.11
502.201	5.13
502.402	5.26
502.602	5.35
502.802	5.39
503.002	5.51
503.203	5.65
503.403	5.5
503.603	5.57
503.803	5.51
504.003	5.86
504.204	5.9
504.404	6.04
504.604	5.87
504.804	5.7
505.004	5.54
505.204	5.41
505.404	5.45
505.604	5.42
505.804	5.32
506.005	5.32
506.205	5.26
506.405	5.29
506.605	5.24
506.805	5.45
507.005	5.4
507.204	5.59
507.404	5.68
507.604	5.58
507.804	5.59
508.004	5.67
508.204	5.78
508.404	5.85
508.604	5.66
508.804	5.57
509.003	5.51
509.203	5.55
509.403	5.44
509.603	5.52
509.803	5.42
510.002	5.44
510.202	5.49
510.402	5.4
510.602	5.33
510.801	5.38
511.001	5.31
511.201	5.27
511.4	5.35
511.6	5.42
511.8	5.31
511.999	5.48
512.199	5.41
512.398	5.5
512.598	5.52
512.797	5.44
512.997	5.6
513.197	5.76
513.396	5.7
513.596	5.76
513.795	5.77
513.994	5.88
514.194	5.85
514.393	6.09
514.593	5.87
514.792	5.84
514.992	5.92
515.191	5.98
515.39	6.05
515.59	6.16
515.789	6.05
515.988	6.1
516.188	6.02
516.387	6.06
516.586	5.94
516.786	6.13
516.985	6.09
517.184	6.1
517.383	5.9
517.582	5.8
517.782	5.76
517.981	5.81
518.18	5.86
518.379	5.84
518.578	5.77
518.777	5.78
518.976	5.78
519.176	5.73
519.375	5.77
519.574	5.8
519.773	5.87
519.972	5.9
520.171	5.89
520.37	5.82
520.569	5.88
520.768	6.09
520.967	6.18
521.166	6.2
521.365	6.29
521.564	6.24
521.762	6.2
521.961	6.14
522.16	6.1
522.359	6.05
522.558	6.16
522.757	6.16
522.956	6.07
523.154	5.96
523.353	5.99
523.552	6.14
523.751	6.31
523.949	6.32
524.148	6.36
524.347	6.27
524.546	6.52
524.744	6.45
524.943	6.52
525.142	6.41
525.34	6.43
525.539	6.43
525.737	6.22
525.936	6.16
526.135	6.31
526.333	6.31
526.532	6.49
526.73	6.41
526.929	6.46
527.127	6.47
527.326	6.53
527.524	6.55
527.723	6.56
527.921	6.72
528.12	6.7
528.318	6.67
528.516	6.72
528.715	6.64
528.913	6.64
529.112	6.68
529.31	6.66
529.508	6.75
529.707	6.77
529.905	6.77
530.103	6.71
530.301	6.76
530.5	6.82
530.698	6.89
530.896	6.96
531.094	7.02
531.293	7.01
531.491	7.08
531.689	6.96
531.887	6.97
532.085	7.06
532.283	7.1
532.481	7.18
532.68	7.26
532.878	7.23
533.076	7.24
533.274	7.17
533.472	7.25
533.67	7.34
533.868	7.42
534.066	7.46
534.264	7.49
534.462	7.46
534.66	7.53
534.858	7.55
535.056	7.56
535.253	7.61
535.451	7.75
535.649	7.74
535.847	7.71
536.045	7.66
536.243	7.72
536.441	7.74
536.638	7.9
536.836	7.79
537.034	7.7
537.232	7.81
537.43	7.87
537.627	8.03
537.825	8.05
538.023	8.03
538.22	8.16
538.418	8.31
538.616	8.31
538.813	8.39
539.011	8.55
539.209	8.6
539.406	8.67
539.604	8.74
539.801	8.7
539.999	8.83
540.196	8.86
540.394	8.87
540.591	8.86
540.789	8.94
540.986	8.89
541.184	8.82
541.381	8.8
541.579	8.78
541.776	8.85
541.974	8.88
542.171	8.87
542.368	8.95
542.566	9.03
542.763	9.1
542.96	9.18
543.158	9.2
543.355	9.43
543.552	9.6
543.75	9.81
543.947	9.78
544.144	9.89
544.341	9.82
544.539	9.94
544.736	10.04
544.933	10.02
545.13	9.92
545.327	10.12
545.524	10.1
545.722	10.17
545.919	10.02
546.116	10.26
546.313	10.27
546.51	10.45
546.707	10.45
546.904	10.49
547.101	10.55
547.298	10.75
547.495	10.62
547.692	10.76
547.889	10.68
548.086	10.81
548.283	10.75
548.48	10.76
548.677	10.84
548.874	10.86
549.07	10.99
549.267	11.02
549.464	11.05
549.661	11.2
549.858	11.16
550.055	11.26
550.251	11.43
550.448	11.46
550.645	11.76
550.842	11.85
551.038	11.86
551.235	11.85
551.432	11.92
551.628	12.06
551.825	12.14
552.022	12.16
552.218	12.24
552.415	12.17
552.612	12.33
552.808	12.39
553.005	12.53
553.201	12.85
553.398	12.9
553.594	13.01
553.791	13.09
553.987	13.12
554.184	13.01
554.38	13.05
554.577	13.12
554.773	13.04
554.97	12.84
555.166	13.01
555.362	12.9
555.559	13.03
555.755	13.02
555.952	13.03
556.148	13.21
556.344	13.26
556.541	13.29
556.737	13.31
556.933	13.57
557.129	13.59
557.326	13.45
557.522	13.33
557.718	13.17
557.914	13.19
558.11	13.2
558.307	13.41
558.503	13.74
558.699	13.97
558.895	14.31
559.091	14.31
559.287	14.42
559.483	14.57
559.679	14.93
559.876	15.05
560.072	15.11
560.268	14.95
560.464	15
560.66	15
560.856	15.01
561.052	14.7
561.247	14.71
561.443	14.94
561.639	14.94
561.835	14.98
562.031	14.94
562.227	14.87
562.423	15.22
562.619	15.23
562.815	15.1
563.01	15.22
563.206	15.48
563.402	15.54
563.598	15.4
563.793	15.44
563.989	15.4
564.185	15.61
564.381	15.76
564.576	15.69
564.772	15.8
564.968	15.94
565.163	15.87
565.359	15.83
565.555	15.81
565.75	15.93
565.946	15.88
566.141	15.99
566.337	15.91
566.532	16.1
566.728	16.23
566.923	16.2
567.119	16.19
567.314	16.36
567.51	16.52
567.705	16.66
567.901	16.65
568.096	16.75
568.292	16.97
568.487	17.11
568.682	17.19
568.878	17.15
569.073	17.25
569.268	17.33
569.464	17.11
569.659	17.14
569.854	17.18
570.05	17.29
570.245	17.46
570.44	17.16
570.635	17.24
570.831	17.2
571.026	17.26
571.221	17.33
571.416	17.36
571.611	17.52
571.806	17.65
572.002	17.79
572.197	17.88
572.392	17.82
572.587	17.87
572.782	17.9
572.977	17.85
573.172	17.79
573.367	17.86
573.562	18
573.757	18.08
573.952	17.8
574.147	17.69
574.342	17.63
574.537	17.49
574.732	17.59
574.927	17.69
575.121	17.65
575.316	17.84
575.511	17.74
575.706	17.76
575.901	17.98
576.096	18.3
576.29	18.31
576.485	18.12
576.68	18.25
576.875	18.22
577.069	18.17
577.264	18.41
577.459	18.36
577.654	18.35
577.848	18.38
578.043	18.26
578.238	18.15
578.432	18.14
578.627	18.4
578.821	18.3
579.016	18.45
579.21	18.33
579.405	18.31
579.6	18.06
579.794	18.02
579.989	18.29
580.183	18.26
580.378	18.12
580.572	18.08
580.766	17.93
580.961	18
581.155	17.68
581.35	17.79
581.544	17.88
581.738	18.08
581.933	18
582.127	17.47
582.321	17.33
582.516	17.66
582.71	17.7
582.904	17.76
583.099	18.17
583.293	18.5
583.487	18.66
583.681	18.48
583.875	18.54
584.07	18.66
584.264	18.92
584.458	19.13
584.652	18.82
584.846	19.09
585.04	19.05
585.234	18.99
585.428	18.93
585.623	18.74
585.817	19.21
586.011	19.23
586.205	19.26
586.399	19.57
586.593	19.52
586.787	19.99
586.981	19.81
587.174	19.9
587.368	19.89
587.562	19.94
587.756	20.2
587.95	19.83
588.144	20.01
588.338	20.24
588.532	20.03
588.725	19.96
588.919	19.79
589.113	19.99
589.307	19.99
589.501	19.85
589.694	19.94
589.888	19.92
590.082	19.91
590.275	19.8
590.469	19.71
590.663	19.8
590.856	19.66
591.05	19.5
591.244	19.3
591.437	19.47
591.631	19.41
591.824	19.23
592.018	19.06
592.212	19.17
592.405	19.11
592.599	19.03
592.792	19.17
592.986	19.39
593.179	19.23
593.372	19.16
593.566	19.15
593.759	19.08
593.953	19.15
594.146	19.22
594.339	19.2
594.533	19.03
594.726	18.93
594.92	18.63
595.113	18.54
595.306	18.62
595.499	18.82
595.693	18.56
595.886	18.82
596.079	18.96
596.272	19.07
596.466	19.14
596.659	19.25
596.852	19.27
597.045	19.36
597.238	19.44
597.431	19.48
597.624	19.3
597.818	19.47
598.011	19.43
598.204	19.43
598.397	19.38
598.59	19.3
598.783	19.24
598.976	19.38
599.169	19.4
599.362	19.39
599.555	19.26
599.748	19.47
599.941	19.54
600.134	19.72
600.326	19.59
600.519	19.52
600.712	19.75
600.905	19.85
601.098	19.91
601.291	19.68
601.483	19.76
601.676	20.22
601.869	20.13
602.062	20.25
602.255	20.07
602.447	20.34
602.64	20.47
602.833	20.3
603.025	20.49
603.218	20.5
603.411	20.72
603.603	20.73
603.796	20.68
603.989	20.76
604.181	20.72
604.374	20.82
604.566	20.63
604.759	20.51
604.951	20.56
605.144	20.58
605.336	20.58
605.529	20.6
605.721	20.74
605.914	20.7
606.106	20.75
606.299	20.74
606.491	20.72
606.683	20.88
606.876	20.85
607.068	20.84
607.26	20.76
607.453	20.8
607.645	20.61
607.837	20.41
608.03	20.15
608.222	20.13
608.414	19.97
608.606	20.04
608.799	19.97
608.991	20.17
609.183	19.92
609.375	19.77
609.567	19.79
609.759	19.9
609.952	19.85
610.144	20.17
610.336	20.15
610.528	20.27
610.72	20.22
610.912	20.27
611.104	20.12
611.296	20.37
611.488	20.61
611.68	20.87
611.872	21.07
612.064	21.31
612.256	20.88
612.448	20.64
612.64	20.58
612.832	20.53
613.023	20.29
613.215	20.28
613.407	20.44
613.599	20.3
613.791	19.95
613.983	19.39
614.174	19.45
614.366	19.85
614.558	20.15
614.75	20.2
614.941	20.28
615.133	20.35
615.325	20.46
615.516	20.31
615.708	20.42
615.9	20.32
616.091	20.65
616.283	20.53
616.475	20.94
616.666	21
616.858	21.35
617.049	21.47
617.241	21.58
617.432	21.99
617.624	22.03
617.815	21.96
618.007	21.67
618.198	21.6
618.39	21.58
618.581	21.12
618.773	21.25
618.964	20.98
619.155	20.79
619.347	20.44
619.538	20.14
619.729	20.06
619.921	20.04
620.112	20.61
620.303	20.68
620.494	20.27
620.686	20.44
620.877	20.53
621.068	20.47
621.259	20.47
621.451	20.62
621.642	20.59
621.833	20.66
622.024	20.78
622.215	20.51
622.406	20.42
622.597	20.58
622.788	20.42
622.98	20.11
623.171	20.23
623.362	20.17
623.553	20.58
623.744	20.63
623.935	20.69
624.126	20.86
624.317	20.93
624.508	20.92
624.698	20.9
624.889	20.94
625.08	20.97
625.271	20.77
625.462	20.98
625.653	20.89
625.844	21.21
626.034	21.12
626.225	20.98
626.416	20.97
626.607	21.02
626.798	21.3
626.988	21.43
627.179	21.4
627.37	21.5
627.56	21.4
627.751	21.5
627.942	21.28
628.132	21.34
628.323	21.35
628.514	21.66
628.704	21.73
628.895	21.73
629.085	21.54
629.276	21.42
629.466	21.43
629.657	21.31
629.847	21.01
630.038	21.02
630.228	21.15
630.419	21.17
630.609	21.09
630.8	21.09
630.99	20.97
631.181	21
631.371	21.28
631.561	21.28
631.752	21.26
631.942	21.44
632.132	21.43
632.323	21.33
632.513	20.99
632.703	20.71
632.893	20.83
633.084	20.95
633.274	20.76
633.464	20.75
633.654	20.65
633.844	20.97
634.034	21.06
634.225	20.91
634.415	21.11
634.605	21.34
634.795	21.85
634.985	21.99
635.175	22.13
635.365	22.54
635.555	22.53
635.745	22.82
635.935	22.8
636.125	22.71
636.315	22.91
636.505	22.87
636.695	22.91
636.885	22.49
637.075	22.05
637.265	21.98
637.455	21.64
637.644	21.51
637.834	21.75
638.024	21.5
638.214	21.35
638.404	21.12
638.593	21.08
638.783	20.99
638.973	20.79
639.163	21.45
639.352	21.45
639.542	21.67
639.732	21.74
639.921	21.48
640.111	21.49
640.301	21.69
640.49	21.88
640.68	22.04
640.87	21.82
641.059	22.12
641.249	21.85
641.438	21.73
641.628	21.38
641.817	21.14
642.007	21.04
642.196	21.34
642.386	21.11
642.575	20.96
642.764	20.59
642.954	20.71
643.143	20.41
643.333	19.76
643.522	19.77
643.711	20.48
643.901	20.96
644.09	20.92
644.279	20.73
644.469	20.75
644.658	20.77
644.847	20.59
645.036	20.87
645.226	21.02
645.415	21.6
645.604	21.78
645.793	21.64
645.982	21.52
646.171	21.45
646.361	21.84
646.55	22.02
646.739	22.18
646.928	22.59
647.117	22.59
647.306	22.64
647.495	22.3
647.684	21.97
647.873	22.03
648.062	22.23
648.251	22.14
648.44	21.67
648.629	21.73
648.818	21.59
649.007	21.48
649.196	21.65
649.384	21.83
649.573	21.99
649.762	22.01
649.951	21.55
650.14	21.3
650.328	21.61
650.517	21.62
650.706	21.44
650.895	21.46
651.083	21.55
651.272	21.67
651.461	21.55
651.65	21.74
651.838	22.3
652.027	22.45
652.216	22.51
652.404	22.37
652.593	22.25
652.781	21.98
652.97	22.2
653.158	21.61
653.347	21.44
653.535	21.37
653.724	21.31
653.912	21.03
654.101	20.83
654.289	20.44
654.478	20.54
654.666	20.74
654.855	21.2
655.043	20.84
655.231	21.25
655.42	20.95
655.608	21.26
655.796	21.16
655.985	21.1
656.173	21.2
656.361	21.75
656.55	21.66
656.738	21.66
656.926	21.51
657.114	21.64
657.302	21.75
657.491	21.91
657.679	21.63
657.867	21.72
658.055	21.72
658.243	21.58
658.431	21.58
658.619	21.54
658.807	21.63
658.996	21.94
659.184	21.96
659.372	22.16
659.56	22.18
659.748	22.41
659.936	22.57
660.124	22.68
660.311	22.96
660.499	22.71
660.687	22.7
660.875	22.67
661.063	22.39
661.251	22.63
661.439	22.57
661.627	22.84
661.814	22.71
662.002	22.81
662.19	22.37
662.378	22.55
662.565	22.73
662.753	22.93
662.941	23.17
663.129	23.12
663.316	23.01
663.504	22.87
663.692	22.42
663.879	22.23
664.067	22.06
664.254	22.8
664.442	22.5
664.63	22.64
664.817	23.12
665.005	22.49
665.192	22.67
665.38	22.47
665.567	22.35
665.755	22.63
665.942	23.02
666.13	22.58
666.317	21.71
666.504	21.97
666.692	21.97
666.879	21.53
667.067	21.83
667.254	21.56
667.441	21.36
667.629	21.58
667.816	21.68
668.003	21.54
668.19	22.23
668.378	22.92
668.565	22.59
668.752	22.43
668.939	22.19
669.127	21.99
669.314	22.04
669.501	22.09
669.688	22.09
669.875	21.81
670.062	21.62
670.249	21.53
670.436	21.31
670.623	21.53
670.81	21.14
670.997	21.46
671.184	21.68
671.371	21.71
671.558	22.23
671.745	22.11
671.932	21.93
672.119	22.43
672.306	22.05
672.493	22.04
672.68	21.76
672.867	21.93
673.054	21.83
673.24	22.18
673.427	22.62
673.614	21.94
673.801	22.08
673.988	22.6
674.174	22.14
674.361	22.24
674.548	22.34
674.734	22.4
674.921	22.53
675.108	22.61
675.294	22.27
675.481	21.62
675.668	22.32
675.854	21.86
676.041	22.17
676.227	21.9
676.414	22.38
676.601	22
676.787	22.18
676.974	21.72
677.16	21.67
677.347	21.64
677.533	22.06
677.719	21.96
677.906	22.2
678.092	22.07
678.279	22.23
678.465	21.37
678.651	21.75
678.838	21.7
679.024	22.17
679.21	22.29
679.397	22.5
679.583	22.83
679.769	22.53
679.955	22.54
680.142	22.32
680.328	22.24
680.514	22.86
680.7	23.02
680.886	23.03
681.073	22.8
681.259	22.96
681.445	22.78
681.631	22.59
681.817	22.75
682.003	22.67
682.189	22.53
682.375	22.91
682.561	22.6
682.747	22.11
682.933	22.56
683.119	23.04
683.305	22.86
683.491	22.64
683.677	22.31
683.863	22.3
684.049	21.85
684.235	21.71
684.42	21.05
684.606	21.06
684.792	21.46
684.978	20.83
685.164	20.9
685.349	20.89
685.535	21.26
685.721	21.34
685.907	20.55
686.092	21.18
686.278	21.36
686.464	21.75
686.649	21.73
686.835	20.9
687.021	20.91
687.206	20.77
687.392	20.63
687.577	20.57
687.763	19.98
687.948	20.79
688.134	20.73
688.319	20.69
688.505	20.88
688.69	20.78
688.876	21.68
689.061	21.62
689.247	21.1
689.432	21.06
689.618	21.21
689.803	22.45
689.988	22.35
690.174	22.72
690.359	23.04
690.544	23.29
690.73	23.54
690.915	23.63
691.1	23.73
691.285	24.05
691.471	24.1
691.656	23.83
691.841	23.07
692.026	23.7
692.211	23.85
692.396	23.6
692.582	23.04
692.767	22.74
692.952	22.12
693.137	22.51
693.322	23.39
693.507	23.69
693.692	24.02
693.877	24.1
694.062	23.27
694.247	22.72
694.432	22.73
694.617	22.7
694.802	23.13
694.987	23.36
695.172	23.22
695.357	22.63
695.541	22.29
695.726	22.59
695.911	22.78
696.096	23.39
696.281	23.51
696.466	23.29
696.65	23.96
696.835	23.84
697.02	23.88
697.204	23.77
697.389	23.96
697.574	24.33
697.759	23.79
697.943	23.97
698.128	23.67
698.312	23.79
698.497	23.98
698.682	23.34
698.866	23.07
699.051	23.02
699.235	23.17
699.42	22.9
699.604	22.57
699.789	22.9
699.973	22.9
700.158	23.01
700.342	22.62
700.527	22.2
700.711	22.48
700.895	22.82
701.08	23.29
701.264	22.95
701.448	22.93
701.633	23.27
701.817	23.04
702.001	23.09
702.186	22.27
702.37	22
702.554	22.34
702.738	22.3
702.923	21.86
703.107	21.06
703.291	21.41
703.475	21.84
703.659	21.76
703.843	22.46
704.027	22.12
704.212	23.47
704.396	24.07
704.58	24.33
704.764	24.36
704.948	24.95
705.132	25.03
705.316	24.5
705.5	24.17
705.684	24.04
705.868	23.37
706.052	23.96
706.235	22.66
706.419	22.72
706.603	22.53
706.787	23.01
706.971	22.32
707.155	22.24
707.339	23.19
707.522	22.9
707.706	22.64
707.89	22.59
708.074	22.36
708.257	23.31
708.441	23.26
708.625	22.98
708.808	22.39
708.992	22.79
709.176	23.3
709.359	22.58
709.543	22.69
709.727	23.36
709.91	22.75
710.094	22.28
710.277	22.53
710.461	22.57
710.644	23.3
710.828	23.78
711.011	24
711.195	23.94
711.378	24.14
711.562	24.13
711.745	23.09
711.928	23.41
712.112	23.44
712.295	22.5
712.478	23.02
712.662	23.02
712.845	22.58
713.028	22.44
713.212	22.31
713.395	22.29
713.578	22.31
713.761	23.12
713.945	23.47
714.128	23.53
714.311	24
714.494	23.24
714.677	22.95
714.86	22.84
715.043	22.37
715.227	22.15
715.41	22.57
715.593	23.1
715.776	22.75
715.959	22.23
716.142	21.98
716.325	22.07
716.508	21.73
716.691	21.6
716.874	22.34
717.057	22.26
717.239	22.41
717.422	21.57
717.605	21.29
717.788	20.95
717.971	21.74
718.154	21.7
718.337	21.85
718.519	22.47
718.702	22.53
718.885	22.1
719.068	23.39
719.25	24.39
719.433	25.02
719.616	25.37
719.798	26.41
719.981	26.04
720.164	26.35
720.346	26.68
720.529	26.07
720.712	25.87
720.894	25.75
721.077	25.67
721.259	24.16
721.442	23.47
721.624	23.49
721.807	23.21
721.989	22.63
722.172	22.56
722.354	21.81
722.537	23.21
722.719	22.5
722.901	21.72
723.084	20.59
723.266	20.73
723.448	21.26
723.631	20.45
723.813	21.24
723.995	21.54
724.178	22.04
724.36	21.98
724.542	21.36
724.724	23.4
724.907	24.52
725.089	25.26
725.271	25
725.453	25.94
725.635	25.92
725.817	24.26
725.999	24.8
726.181	23.36
726.364	23.31
726.546	23.96
726.728	23.08
726.91	22.27
727.092	22.55
727.274	22.56
727.456	22.22
727.638	23.11
727.819	23.65
728.001	23.64
728.183	25.24
728.365	25.57
728.547	24.75
728.729	24.67
728.911	24.7
729.093	23.98
729.274	24.21
729.456	23.62
729.638	22.98
729.82	23.46
730.001	22.98
730.183	22.15
730.365	22.59
730.546	23.76
730.728	23.79
730.91	23.32
731.091	23.02
731.273	23.07
731.455	22.72
731.636	22.47
731.818	22.55
731.999	22.8
732.181	22.54
732.362	21.63
732.544	21.05
732.725	21.19
732.907	21.88
733.088	22.37
733.27	23.06
733.451	23.08
733.633	23.99
733.814	23.39
733.995	23.81
734.177	24.31
734.358	24.3
734.539	23.82
734.721	23.09
734.902	23.51
735.083	23.83
735.264	23.5
735.446	23.58
735.627	22.52
735.808	22.22
735.989	21.49
736.17	22.33
736.351	23.35
736.533	24.71
736.714	25.54
736.895	24.66
737.076	25.07
737.257	23.73
737.438	23.68
737.619	24.4
737.8	24.63
737.981	25.51
738.162	23.88
738.343	24.47
738.524	23.32
738.705	23.27
738.886	23.74
739.067	22.13
739.247	22.48
739.428	22.67
739.609	21.76
739.79	21.06
739.971	20.71
740.151	23.61
740.332	22.59
740.513	23.43
740.694	23.75
740.874	22.97
741.055	23.96
741.236	25.48
741.417	25.77
741.597	25.22
741.778	24.7
741.958	23.15
742.139	20.82
742.32	21.07
742.5	19.41
742.681	17.99
742.861	18.92
743.042	19.35
743.222	17.74
743.403	18.6
743.583	19.09
743.764	22.16
743.944	22.99
744.124	23.68
744.305	22.2
744.485	23.54
744.666	25.18
744.846	25.21
745.026	25.42
745.207	26.23
745.387	24.92
745.567	25.85
745.747	25.02
745.928	27.19
746.108	27.76
746.288	29.17
746.468	28.62
746.648	27.91
746.829	28.49
747.009	28.43
747.189	27.38
747.369	26.79
747.549	27.02
747.729	26.63
747.909	25.97
748.089	25.05
748.269	24.08
748.449	24.06
748.629	24.8
748.809	25.18
748.989	25.66
749.169	26.65
749.349	27.58
749.529	27.26
749.709	26.86
749.889	25.97
750.068	26.54
750.248	27.28
750.428	26.7
750.608	25.9
750.788	25.66
750.967	24
751.147	23.77
751.327	23.48
751.507	24.58
751.686	25.26
751.866	25.01
752.046	24.1
752.225	23.32
752.405	24.58
752.585	23.94
752.764	24.13
752.944	23.8
753.123	23.72
753.303	24.88
753.482	23.18
753.662	22.78
753.841	24.46
754.021	23.7
754.2	24.45
754.38	23.46
754.559	23.69
754.739	22.86
754.918	24.14
755.097	24.25
755.277	24
755.456	25.4
755.635	25
755.815	23.22
755.994	23.48
756.173	23.82
756.352	24.09
756.532	24.58
756.711	24.99
756.89	25.11
757.069	24.66
757.248	24.49
757.427	24.09
757.607	23.94
757.786	24.93
757.965	25.47
758.144	25.65
758.323	26.13
758.502	26.61
758.681	26.06
758.86	25.4
759.039	26.08
759.218	25.72
759.397	25.12
759.576	24.08
759.755	23.78
759.934	23.4
760.113	22.67
760.291	22.01
760.47	20.85
760.649	21.86
760.828	22.42
761.007	22.76
761.186	23.67
761.364	23.81
761.543	24.83
761.722	24.71
761.901	24.77
762.079	25.57
762.258	25.68
762.437	25.92
762.615	24.94
762.794	24.92
762.972	24.83
763.151	23.38
763.33	23.32
763.508	24.2
763.687	24.59
763.865	25.35
764.044	25.27
764.222	25.81
764.401	26.12
764.579	26.37
764.758	26.21
764.936	26.19
765.114	27.47
765.293	27.25
765.471	27.45
765.65	27.11
765.828	27.29
766.006	27.15
766.184	26.28
766.363	26.02
766.541	26.05
766.719	25.61
766.898	26.45
767.076	25.7
767.254	26.49
767.432	25.4
767.61	26.4
767.788	25.07
767.967	23.81
768.145	23.57
768.323	22.65
768.501	23.86
768.679	23.54
768.857	21.58
769.035	21.27
769.213	22.48
769.391	24.49
769.569	24.25
769.747	24.43
769.925	27.2
770.103	28.21
770.281	30.86
770.459	29.59
770.636	31.73
770.814	31.51
770.992	31.93
771.17	28.71
771.348	26.26
771.525	26.4
771.703	27.77
771.881	26.79
772.059	28.47
772.236	26.64
772.414	25.11
772.592	25.52
772.769	27.09
772.947	27.26
773.125	29.25
773.302	30.08
773.48	29.71
773.657	29.35
773.835	28.67
774.013	26.59
774.19	27.97
774.368	28.78
774.545	27.85
774.723	29.09
774.9	28.63
775.077	30.97
775.255	30.22
775.432	30.81
775.61	28.53
775.787	28.79
775.964	29.2
776.142	27.49
776.319	28.01
776.496	27.54
776.674	25.76
776.851	27.75
777.028	24.06
777.205	25.93
777.382	26.2
777.56	27.67
777.737	26.16
777.914	28.05
778.091	28.22
778.268	28.08
778.445	28.31
778.622	28.13
778.8	28.94
778.977	32.22
779.154	34.29
779.331	31.99
779.508	34.3
779.685	36.87
779.862	35.77
780.038	35.69
780.215	32.2
780.392	33.32
780.569	34.56
780.746	32.96
780.923	32.25
781.1	30.55
781.277	31.71
781.453	30.24
781.63	28.78
781.807	28.09
781.984	26.52
782.16	29.7
782.337	27.69
782.514	26.58
782.691	26.09
782.867	25.54
783.044	25.05
783.221	25.37
783.397	25.23
783.574	27.2
783.75	29.27
783.927	31.92
784.103	32.71
784.28	33.95
784.456	35.77
784.633	35.64
784.809	32.46
784.986	35.15
785.162	36.89
785.339	35.73
785.515	34.8
785.692	31.02
785.868	29.83
786.044	29.49
786.221	28.9
786.397	25.98
786.573	26.47
786.749	29.92
786.926	26.23
787.102	24.77
787.278	24.28
787.454	24.24
787.631	26.2
787.807	27.84
787.983	25.46
788.159	24.9
788.335	23.76
788.511	23.29
788.687	21.47
788.863	21.49
789.039	21.1
789.216	23.37
789.392	23.33
789.568	25.4
789.744	25.18
789.919	27.41
790.095	27.99
790.271	26.83
790.447	25.65
790.623	26.26
790.799	24.33
790.975	23.96
791.151	23.64
791.327	23.26
791.502	19.31
791.678	18.43
791.854	19.51
792.03	21.09
792.205	24.55
792.381	25.4
792.557	25.13
792.733	26.55
792.908	27.36
793.084	26.08
793.259	27.39
793.435	26.8
793.611	27.58
793.786	28.77
793.962	25.97
794.137	24.88
794.313	23.91
794.488	23.84
794.664	21.68
794.839	21.81
795.015	23.45
795.19	19.46
795.366	18.71
795.541	22.17
795.716	22.14
795.892	22.78
796.067	25.04
796.242	28.14
796.418	26.69
796.593	29.03
796.768	26.82
796.944	26.43
797.119	26.64
797.294	29.95
797.469	28.82
797.644	25.18
797.82	24.38
797.995	25.04
798.17	25.41
798.345	30.8
798.52	34.29
798.695	35.07
798.87	33.66
799.045	36.6
799.22	36.91
799.395	33.19
799.57	36.63
799.745	37.48
799.92	36.23
800.095	34.15
800.27	33.25
800.445	30.98
800.62	32.23
800.795	35.24
800.97	36.53
801.145	35.17
801.319	37.94
801.494	35.1
801.669	35.79
801.844	35.96
802.018	34.36
802.193	31.83
802.368	32.22
802.543	31.63
802.717	27.34
802.892	24.04
803.067	24.43
803.241	27.22
803.416	28.22
803.59	29.75
803.765	28.03
803.94	30.89
804.114	29.97
804.289	25.69
804.463	28.1
804.638	33.35
804.812	34.97
804.986	35.3
805.161	34.42
805.335	35.11
805.51	34.82
805.684	35.84
805.858	38
806.033	38.06
806.207	38.07
806.381	38.51
806.556	39.78
806.73	39.32
806.904	38.57
807.078	35
807.253	36.71
807.427	33.85
807.601	32.29
807.775	29.84
807.949	29.77
808.123	33.27
808.298	32.37
808.472	23.97
808.646	27.7
808.82	29.24
808.994	33.21
809.168	30.64
809.342	30.2
809.516	32.55
809.69	35.23
809.864	31.04
810.038	30.96
810.212	28.53
810.385	35.31
810.559	31.81
810.733	29.89
810.907	30.29
811.081	31.37
811.255	34.62
811.428	34.96
811.602	32.24
811.776	35.16
811.95	32.64
812.123	30.91
812.297	29.96
812.471	31.75
812.644	32.76
812.818	31.27
812.992	30.85
813.165	32.87
813.339	30.55
813.512	30.68
813.686	32.84
813.86	38.69
814.033	43.3
814.207	41.27
814.38	40.38
814.554	38.1
814.727	36.88
814.9	37.11
815.074	34.31
815.247	32.69
815.421	30
815.594	30.08
815.767	23.14
815.941	21.93
816.114	14.65
816.287	13.28
816.46	14.11
816.634	10.91
816.807	8.72
816.98	9.53
817.153	16.78
817.327	17.5
817.5	18.84
817.673	20
817.846	23.57
818.019	32.82
818.192	32.66
818.365	35.46
818.538	35.84
818.711	38.49
818.884	35.2
819.057	37.57
819.23	37.73
819.403	35.37
819.576	36.94
819.749	30.12
819.922	26.42
820.095	29.19
820.268	28.29
820.441	30.42
820.614	29.35
820.786	30.17
820.959	25.78
821.132	25.84
821.305	25.75
821.477	24.96
821.65	26.58
821.823	26.48
821.996	25.72
822.168	24.93
822.341	24.87
822.514	24.59
822.686	25.01
822.859	25.63
823.031	25.82
823.204	26.85
823.376	27.29
823.549	28.08
823.722	27.84
823.894	27.88
824.067	28.5
824.239	28.06
824.411	28.85
824.584	28.95
824.756	29.31
824.929	28.61
825.101	28.02
825.273	27.09
825.446	25.07
825.618	25.65
825.79	25.06
825.963	25.09
826.135	25.34
826.307	25.15
826.479	24.66
826.652	24.22
826.824	25.38
826.996	24.5
827.168	23.54
827.34	23.81
827.512	22.96
827.684	22.08
827.856	22.92
828.029	23.56
828.201	22.24
828.373	21.65
828.545	20.96
828.717	19.41
828.889	18.24
829.061	20.38
829.232	20.92
829.404	22.39
829.576	25.25
829.748	22.79
829.92	22.31
830.092	25.44
830.264	24.89
830.436	24.8
830.607	28.13
830.779	32.18
830.951	33.86
831.123	32.88
831.294	31.98
831.466	30.31
831.638	31.89
831.809	30.87
831.981	28.98
832.153	33.11
832.324	32.52
832.496	30.95
832.667	31.83
832.839	29.84
833.011	32.42
833.182	31.63
833.354	30.7
833.525	28.57
833.697	30.57
833.868	29.87
834.039	27.97
834.211	27.84
834.382	27.84
834.554	25.91
834.725	26.36
834.896	26.42
835.068	29.72
835.239	29.98
835.41	30.61
835.581	30.29
835.753	30.79
835.924	32.03
836.095	32.48
836.266	32.92
836.438	29.85
836.609	28.3
836.78	28.28
836.951	26.76
837.122	28.1
837.293	28.13
837.464	25.91
837.635	26.08
837.806	21.2
837.977	21.83
838.148	19.71
838.319	27.34
838.49	26.31
838.661	25.52
838.832	18.82
839.003	15.05
839.174	14.99
839.345	15.01
839.516	9.29
839.687	10.01
839.857	12.65
840.028	15.38
840.199	7.67
840.37	16.41
840.54	18.69
840.711	26.97
840.882	27.92
841.053	27.69
841.223	27.41
841.394	30.86
841.564	37.71
841.735	35.51
841.906	35.88
842.076	39.33
842.247	36.42
842.417	35.97
842.588	33.78
842.758	37.53
842.929	44.61
843.099	46.3
843.27	42.55
843.44	43.65
843.611	42.58
843.781	45.75
843.951	39.19
844.122	46.18
844.292	33.66
844.462	34.84
844.633	36.57
844.803	32.7
844.973	28.21
845.144	40.41
845.314	37.33
845.484	39.83
845.654	35.02
845.824	44.41
845.995	37.5
846.165	44.25
846.335	36.86
846.505	21.18
846.675	26.11
846.845	32.88
847.015	38.24
847.185	35.45
847.355	41.19
847.525	38.45
847.695	37.92
847.865	43.29
848.035	50.79
848.205	44.81
848.375	42.92
848.545	35.75
848.715	36.09
848.884	38.49
849.054	52.83
849.224	50.16
849.394	61.52
849.564	56.21
849.733	59.16
849.903	50.26
850.073	99.51
850.243	112.56
850.412	112.51
850.582	118.07
850.752	93.54
850.921	99.87
851.091	83.09
851.26	62.34
851.43	40.05
851.599	24.32
851.769	50.17
851.939	33.8
852.108	21.98
852.278	33.36
852.447	37.81
852.616	55.9
852.786	36.73
852.955	38.39
853.125	41.04
853.294	79.64
853.463	80.98
853.633	18.4
853.802	1.03
853.971	8.83
854.141	-25.93
854.31	-33.8
854.479	-38.5
854.648	-41.18
854.818	-103.13
854.987	-32.29
855.156	-77.25
855.325	-99.78
855.494	-40.39
855.663	-78.56
855.832	-21.98
856.001	-15.36
856.171	24.13
856.34	40.88
856.509	42.09
856.678	51.22
856.847	51.46
857.016	56.6
857.185	68.21
857.353	70.59
857.522	62.58
857.691	70.99
857.86	82.33
858.029	71.23
858.198	70.02
858.367	84.17
858.535	86.51
858.704	57.1
858.873	48.53
859.042	44.13
859.21	40.97
859.379	60.1
859.548	51.91
859.717	46.73
859.885	47.86
860.054	50.06
860.222	47.05
860.391	46.04
860.56	53.38
860.728	61.77
860.897	71.02
861.065	69.66
861.234	47.21
861.402	51.03
861.571	57.68
861.739	47.91
861.908	49.21
862.076	41.39
862.244	35.6
862.413	35.67
862.581	45.42
862.749	25.94
862.918	15.39
863.086	42.99
863.254	49.74
863.423	37.5
863.591	44.74
863.759	36.34
863.927	42.97
864.096	51.57
864.264	44.91
864.432	25.16
864.6	42.09
864.768	65.8
864.936	58.81
865.104	50.69
865.272	56.55
865.44	52.39
865.608	63.42
865.776	66.53
865.944	62.41
866.112	75.13
866.28	78.64
866.448	89.01
866.616	69.33
866.784	38.97
866.952	49.06
867.12	59.3
867.288	77.83
867.455	78.1
867.623	89.49
867.791	91.63
867.959	98
868.127	70.88
868.294	61.19
868.462	80.99
868.63	98.18
868.797	104.34
868.965	72.27
869.133	64.87
869.3	49.07
869.468	50
869.636	41.75
869.803	26.67
869.971	18.01
870.138	31.2
870.306	3.03
870.473	-1.63
870.641	3.48
870.808	41.14
870.975	53.39
871.143	69.58
871.31	64.31
871.478	65.88
871.645	91.48
871.812	99.17
871.98	122.7
872.147	134.36
872.314	146.62
872.482	137.05
872.649	142.59
872.816	91.55
872.983	40.78
873.15	-115.28
873.318	-21.08
873.485	-77.85
873.652	-21.84
873.819	-150.11
873.986	-119.48
874.153	-121.54
874.32	-134.3
874.487	-52.89
874.654	-26.12
874.821	-15.03
874.988	-1.34
875.155	15.45
875.322	22.33
875.489	21.31
875.656	33.64
875.823	47.25
875.99	52.41
876.157	60.53
876.324	43.68
876.49	56.58
876.657	80.82
876.824	72.45
876.991	60.66
877.157	58.07
877.324	33.24
877.491	38.06
877.658	40.05
877.824	52.86
877.991	41.58
878.157	43.8
878.324	39.87
878.491	39.11
878.657	44.55
878.824	52.87
878.99	51.73
879.157	32.95
879.323	32.18
879.49	8.8
879.656	-48.62
879.823	-159.46
879.989	-15.65
880.156	7.1
880.322	-1.44
880.488	-0.24
880.655	-54.2
880.821	-8.93
880.987	17.74
881.154	11.29
881.32	23.82
881.486	34.73
881.652	38.1
881.819	29.38
881.985	29.53
882.151	32.63
882.317	39.51
882.483	36.73
882.649	35.25
882.816	34.27
882.982	33.79
883.148	31.77
883.314	33.16
883.48	31.52
883.646	30.01
883.812	28.55
883.978	28.07
884.144	26.3
884.31	24.49
884.476	26.02
884.642	24.33
884.807	25.3
884.973	25.65
885.139	24.12
885.305	23.79
885.471	25.64
885.637	25.88
885.802	27.9
885.968	23.7
886.134	27.92
886.3	24.17
886.465	28.05
886.631	28.57
886.797	32.68
886.962	31.12
887.128	29.6
887.293	33.81
887.459	33.77
887.625	28.56
887.79	33.3
887.956	23.23
888.121	26.14
888.287	25.18
888.452	11.01
888.618	-2.46
888.783	3.37
