Data from 2938029_Reflection_3.txt Node
Date: Sun Jul 12 15:06:19 EDT 2015
User: robert
Spectrometer: USB4E03001
Autoset integration time: false
Trigger mode: 4
Integration Time (sec): 1.000000E-1
Scans to average: 10
Electric dark correction enabled: true
Nonlinearity correction enabled: false
Boxcar width: 5
Stray light correction enabled: false
XAxis mode: Wavelengths
Stop averaging: false
Number of Pixels in Spectrum: 3648
>>>>>Begin Spectral Data<<<<<
177.566	64.4
177.785	74.31
178.005	-6.83
178.225	38.57
178.445	57.8
178.665	80.08
178.885	37.08
179.105	66.51
179.324	62.39
179.544	46.71
179.764	27.36
179.984	101.04
180.204	103.39
180.423	75.06
180.643	68.59
180.863	67.37
181.083	63.52
181.302	57.62
181.522	49.85
181.742	44.95
181.961	28.49
182.181	41.19
182.401	6.39
182.621	21.65
182.84	-11.82
183.06	83.38
183.279	124.79
183.499	119.39
183.719	121.96
183.938	127.01
184.158	136.45
184.377	169.66
184.597	103.34
184.816	93.92
185.036	78.16
185.256	72.93
185.475	69.34
185.695	33.17
185.914	40.35
186.134	30.66
186.353	6.59
186.572	10.38
186.792	49.5
187.011	127.35
187.231	94.76
187.45	110.3
187.67	92.14
187.889	54.66
188.108	73.1
188.328	84.72
188.547	95.06
188.766	96.61
188.986	96.54
189.205	75.99
189.424	78.27
189.644	93.84
189.863	78.26
190.082	91.82
190.302	82.09
190.521	70.76
190.74	61.66
190.959	62.26
191.178	49.8
191.398	38.88
191.617	44.23
191.836	24.51
192.055	18.68
192.274	45.58
192.494	48.56
192.713	63.38
192.932	71.89
193.151	56.15
193.37	38.02
193.589	50.5
193.808	80.36
194.027	93.52
194.246	151.31
194.465	122.55
194.685	177.98
194.904	229.05
195.123	154.2
195.342	161.32
195.561	165.68
195.78	462.04
195.999	-48815
196.218	1606.8
196.436	1240.5
196.655	335.28
196.874	-3236.73
197.093	202.67
197.312	149.58
197.531	161.21
197.75	157.78
197.969	209.24
198.188	179.53
198.407	132.83
198.625	217.33
198.844	96.86
199.063	103.52
199.282	134.61
199.501	95.49
199.719	100.92
199.938	97.34
200.157	104.22
200.376	77.77
200.594	37.69
200.813	58.57
201.032	57.32
201.251	86.62
201.469	97.75
201.688	106.65
201.907	143.77
202.125	104.76
202.344	85.86
202.563	63.93
202.781	72.48
203	104.85
203.218	82.69
203.437	65.32
203.656	26.21
203.874	31.33
204.093	-2.41
204.311	13.67
204.53	58.37
204.748	92.17
204.967	386.18
205.185	171.8
205.404	209.51
205.622	321.86
205.841	-2696.93
206.059	-1062
206.278	793.99
206.496	739.68
206.715	442.34
206.933	-67785.71
207.151	514.18
207.37	259.77
207.588	168.61
207.806	130.5
208.025	127.8
208.243	66.88
208.461	60.96
208.68	84.21
208.898	109.91
209.116	120.61
209.335	115.68
209.553	93.26
209.771	90.18
209.989	104.37
210.208	76.62
210.426	90.17
210.644	70.17
210.862	74.49
211.081	61.03
211.299	33.28
211.517	44.28
211.735	19.31
211.953	56.79
212.171	54.09
212.39	90.45
212.608	109.11
212.826	77.96
213.044	113.21
213.262	100.41
213.48	99.51
213.698	109.1
213.916	124.83
214.134	137.63
214.352	135.19
214.57	142.46
214.788	177.91
215.006	222.68
215.224	342.74
215.442	-487.5
215.66	-107.22
215.878	-1172.29
216.096	1428.49
216.314	193.46
216.532	298.98
216.75	268.34
216.968	242.31
217.185	126.52
217.403	95.05
217.621	97.55
217.839	83.91
218.057	91.73
218.275	77.88
218.492	51.27
218.71	30.82
218.928	40.44
219.146	47.24
219.363	47.32
219.581	48.15
219.799	54.76
220.017	53.6
220.234	62.26
220.452	53.01
220.67	48.8
220.887	48.8
221.105	39.27
221.323	50.74
221.54	71.12
221.758	72.94
221.976	70.87
222.193	49.48
222.411	51.79
222.629	56.64
222.846	50.44
223.064	51.59
223.281	44.53
223.499	48.76
223.716	23.47
223.934	7.55
224.151	-7.98
224.369	-28.7
224.586	3.65
224.804	4.3
225.021	1.86
225.239	-4.67
225.456	-13.28
225.674	-11.5
225.891	-9.68
226.108	0.75
226.326	7.53
226.543	15.45
226.76	18.47
226.978	13.94
227.195	10.56
227.413	6.36
227.63	8.1
227.847	14.37
228.064	18.09
228.282	19.8
228.499	23.67
228.716	21.87
228.934	21.18
229.151	18.76
229.368	17.49
229.585	16.17
229.802	18.84
230.02	19.67
230.237	19.83
230.454	20.15
230.671	18.87
230.888	15.71
231.105	17.26
231.323	15.29
231.54	22.36
231.757	24.16
231.974	28.71
232.191	27.24
232.408	28.35
232.625	29.74
232.842	25.14
233.059	29.45
233.276	29.51
233.493	24.31
233.71	26.08
233.927	17.72
234.144	18.58
234.361	15.07
234.578	18.28
234.795	7.59
235.012	8.57
235.229	14.69
235.446	17.02
235.663	18.44
235.879	19.7
236.096	19.24
236.313	22.52
236.53	21.3
236.747	22.86
236.964	17.16
237.181	26.31
237.397	25.95
237.614	20.24
237.831	15.72
238.048	19.98
238.264	18.59
238.481	18.73
238.698	18.03
238.915	15.95
239.131	17.02
239.348	18.27
239.565	16.24
239.781	12.69
239.998	16.98
240.215	15.87
240.431	16.32
240.648	14.45
240.865	14.02
241.081	15.58
241.298	16.07
241.514	15.24
241.731	13.09
241.947	13.14
242.164	12.74
242.38	10.03
242.597	9.34
242.814	7.28
243.03	7.73
243.246	7.77
243.463	6.09
243.679	5.12
243.896	5.24
244.112	7.23
244.329	6.02
244.545	6.07
244.762	7.47
244.978	9.08
245.194	10.98
245.411	12.98
245.627	11.24
245.843	12.59
246.06	11.77
246.276	10.39
246.492	10.06
246.709	10.02
246.925	9.86
247.141	9.06
247.357	9.23
247.574	8.49
247.79	8.39
248.006	9.65
248.222	8.96
248.439	9.73
248.655	9.74
248.871	8.14
249.087	8.42
249.303	8.23
249.519	9.1
249.736	8.55
249.952	8.65
250.168	9.21
250.384	7.52
250.6	7.99
250.816	8.77
251.032	9.46
251.248	10
251.464	10.66
251.68	10.98
251.896	10.08
252.112	8.52
252.328	9
252.544	7.24
252.76	6.68
252.976	5.79
253.192	4.87
253.408	3.06
253.624	3.63
253.84	2.7
254.056	3.03
254.272	4.59
254.487	7.4
254.703	8.03
254.919	10.05
255.135	10.73
255.351	11.97
255.567	11.34
255.782	14.07
255.998	16.58
256.214	17.59
256.43	15.97
256.646	15.87
256.861	12.93
257.077	10.05
257.293	7.8
257.508	7.06
257.724	7.27
257.94	7.48
258.155	6.81
258.371	6.35
258.587	6.15
258.802	7.92
259.018	7.22
259.234	8.75
259.449	9.7
259.665	10.21
259.88	10.8
260.096	10.75
260.312	10.44
260.527	10.67
260.743	10.9
260.958	10.66
261.174	9.5
261.389	10.16
261.605	9.92
261.82	9.3
262.036	9.44
262.251	8.93
262.466	8.06
262.682	7.72
262.897	5.8
263.113	3.51
263.328	4.16
263.543	4.99
263.759	4.83
263.974	2.59
264.189	4.29
264.405	2.69
264.62	3.66
264.835	5.9
265.051	6.15
265.266	7.86
265.481	9.76
265.696	8.37
265.912	8.41
266.127	7.79
266.342	8.27
266.557	5.98
266.773	6.06
266.988	6.09
267.203	5.68
267.418	5.42
267.633	6.22
267.848	7.24
268.064	8.41
268.279	10.04
268.494	8.86
268.709	9.18
268.924	11.05
269.139	11.51
269.354	10.74
269.569	9.69
269.784	10.7
269.999	10.13
270.214	7.22
270.429	5.63
270.644	4.4
270.859	6.67
271.074	6.9
271.289	6.71
271.504	7.1
271.719	7.35
271.934	6.68
272.149	6.41
272.363	5.64
272.578	7.14
272.793	7.08
273.008	7.04
273.223	6.45
273.438	6.35
273.653	5.48
273.867	5.86
274.082	6.03
274.297	7.25
274.512	7.36
274.726	7.96
274.941	7.84
275.156	9.06
275.371	6.25
275.585	7.73
275.8	8.89
276.015	9.29
276.229	8.65
276.444	9.92
276.659	8.78
276.873	7.83
277.088	8.15
277.302	8.62
277.517	6.88
277.732	8.37
277.946	5.44
278.161	4.87
278.375	4.76
278.59	5.44
278.804	4.12
279.019	6.03
279.233	7.11
279.448	7.47
279.662	5.69
279.877	6.66
280.091	7.05
280.306	6.52
280.52	6.23
280.735	6.16
280.949	4.4
281.163	3.74
281.378	1.98
281.592	1.39
281.806	0.93
282.021	2.47
282.235	3.28
282.449	2.92
282.664	4.88
282.878	4.94
283.092	6.43
283.307	8.17
283.521	8.79
283.735	10.77
283.949	10.29
284.164	10.32
284.378	8.97
284.592	8.95
284.806	10.21
285.02	10.52
285.234	10.51
285.449	9.32
285.663	8.36
285.877	8.24
286.091	7.73
286.305	8.88
286.519	9.43
286.733	10.29
286.947	9.42
287.161	8.29
287.375	6.99
287.589	5.93
287.803	5.84
288.017	3.75
288.231	3.14
288.445	2.72
288.659	1.91
288.873	1.3
289.087	0.78
289.301	2.79
289.515	3.99
289.729	5.2
289.943	6.94
290.157	8.76
290.371	11.08
290.584	10.92
290.798	10.64
291.012	11.02
291.226	10.78
291.44	10.53
291.654	9.37
291.867	9.98
292.081	9.7
292.295	9.84
292.509	9.24
292.722	9.73
292.936	11.53
293.15	10.21
293.364	8.93
293.577	10.6
293.791	10.61
294.005	10.49
294.218	8.98
294.432	8.38
294.645	6.21
294.859	6.42
295.073	7.19
295.286	6.14
295.5	7.44
295.713	8.91
295.927	8.07
296.14	8.92
296.354	9.55
296.568	10.55
296.781	9.83
296.994	10.45
297.208	9.95
297.421	10.08
297.635	10.02
297.848	10.51
298.062	10.26
298.275	10.7
298.489	10.98
298.702	11.16
298.915	9.79
299.129	11.1
299.342	12.08
299.555	10.53
299.769	9.33
299.982	9.52
300.195	9.19
300.409	9.86
300.622	10.32
300.835	9.75
301.048	9.57
301.262	12.44
301.475	11.61
301.688	10.36
301.901	12.48
302.115	12.31
302.328	13.58
302.541	14.7
302.754	13.93
302.967	13.54
303.18	14.13
303.393	14.26
303.607	12.92
303.82	13.19
304.033	14.32
304.246	14.82
304.459	15.18
304.672	14.6
304.885	13.82
305.098	15.59
305.311	15.55
305.524	14.68
305.737	13.24
305.95	13.25
306.163	15.36
306.376	15.02
306.589	12.93
306.802	14.54
307.015	15.68
307.228	16.57
307.44	13.97
307.653	13.3
307.866	14.49
308.079	15.23
308.292	15.93
308.505	14.11
308.718	14.28
308.93	16.5
309.143	15.15
309.356	14.71
309.569	14
309.781	15.11
309.994	14.52
310.207	13.12
310.42	14.06
310.632	12.34
310.845	12.91
311.058	13
311.27	12.96
311.483	12.29
311.696	11.77
311.908	12.34
312.121	11.08
312.333	10.86
312.546	12.09
312.759	10.79
312.971	12.19
313.184	12.48
313.396	12.33
313.609	11.58
313.821	12.09
314.034	12.18
314.246	10.59
314.459	11.63
314.671	12.98
314.884	12.9
315.096	12.42
315.309	13.37
315.521	12.69
315.733	12.84
315.946	12.73
316.158	13.5
316.371	13.82
316.583	14.06
316.795	16.22
317.008	15.53
317.22	15.72
317.432	16.37
317.644	16.29
317.857	17.15
318.069	15.59
318.281	16.63
318.494	15.96
318.706	15.68
318.918	15.1
319.13	12.02
319.342	13.35
319.555	13
319.767	13.84
319.979	13.68
320.191	13.4
320.403	16.22
320.615	15.25
320.827	13.41
321.039	13.7
321.252	15.41
321.464	16.84
321.676	16.29
321.888	14.77
322.1	15.22
322.312	13.51
322.524	14.61
322.736	13
322.948	12.84
323.16	14.62
323.372	13.43
323.584	12.14
323.796	12.35
324.007	12.38
324.219	13.04
324.431	11.64
324.643	12.01
324.855	10.97
325.067	11.78
325.279	12.35
325.491	13.3
325.702	13.65
325.914	13.79
326.126	14
326.338	13.24
326.55	15.53
326.761	16.42
326.973	17.54
327.185	17.07
327.396	17.76
327.608	17.34
327.82	17.24
328.032	17.83
328.243	19.42
328.455	19.05
328.666	20.23
328.878	20.42
329.09	21.46
329.301	20.96
329.513	22.02
329.725	22.52
329.936	22.71
330.148	21.58
330.359	22.85
330.571	23.96
330.782	24.04
330.994	25.49
331.205	25.23
331.417	27.01
331.628	27.48
331.84	27.7
332.051	27.11
332.262	30.05
332.474	31.59
332.685	31.24
332.897	31.56
333.108	31.91
333.319	31.53
333.531	31.12
333.742	29.97
333.953	32.44
334.165	32.82
334.376	34.29
334.587	33.72
334.799	34.58
335.01	34.6
335.221	33.91
335.432	35.28
335.644	36.83
335.855	36.28
336.066	38.12
336.277	37.45
336.488	38.04
336.7	38.43
336.911	39.02
337.122	39.53
337.333	40.94
337.544	42.38
337.755	43.66
337.966	43.14
338.177	45.25
338.388	43
338.599	43.69
338.811	43.74
339.022	42.97
339.233	43.04
339.444	43.17
339.655	43.09
339.866	42.49
340.076	39.51
340.287	38.9
340.498	39.5
340.709	41.34
340.92	41.75
341.131	41.45
341.342	40.68
341.553	40.18
341.764	39.97
341.975	39.63
342.185	40.11
342.396	41.66
342.607	42.53
342.818	41.9
343.029	41.19
343.239	40.24
343.45	40.46
343.661	41.86
343.872	42.04
344.082	42.4
344.293	42
344.504	41.89
344.714	41.85
344.925	42.17
345.136	41.67
345.346	41.1
345.557	42.04
345.768	42.79
345.978	42.63
346.189	42.31
346.399	41.64
346.61	41.49
346.821	41.54
347.031	41.23
347.242	41.26
347.452	41.89
347.663	42.07
347.873	41.02
348.084	39.33
348.294	39.02
348.504	39.12
348.715	39.01
348.925	39.8
349.136	40.37
349.346	40.8
349.557	40.68
349.767	40.18
349.977	40.8
350.188	41.36
350.398	41.85
350.608	41.97
350.819	42.92
351.029	44.02
351.239	44.79
351.449	44.36
351.66	44.4
351.87	43.82
352.08	44.01
352.29	44.83
352.501	44.27
352.711	45.01
352.921	44.4
353.131	43.02
353.341	43.02
353.552	41.98
353.762	40.51
353.972	40.62
354.182	40.61
354.392	40.85
354.602	40.78
354.812	40.74
355.022	40.41
355.232	40.69
355.442	41.2
355.652	40.43
355.862	40.46
356.072	41.02
356.282	41.01
356.492	40.6
356.702	40.23
356.912	40.38
357.122	40.34
357.332	40.46
357.542	40.09
357.752	40.92
357.962	40.84
358.171	41.32
358.381	42.26
358.591	41.86
358.801	42.35
359.011	42.54
359.221	41.77
359.43	41.68
359.64	42.05
359.85	43.18
360.06	41.85
360.269	40.76
360.479	40.69
360.689	40.11
360.899	40.66
361.108	40.98
361.318	40.57
361.528	40.25
361.737	40.75
361.947	40.51
362.156	39.67
362.366	40.05
362.576	40.33
362.785	40.01
362.995	39.97
363.204	39.69
363.414	39.38
363.623	39.31
363.833	40.11
364.042	39.26
364.252	39.4
364.461	39.82
364.671	40.18
364.88	40.79
365.09	41
365.299	41.08
365.509	41.15
365.718	40.88
365.927	41.42
366.137	40.49
366.346	40.24
366.555	39.65
366.765	39.19
366.974	38.5
367.183	38.03
367.393	37.79
367.602	37.81
367.811	37.31
368.021	37.23
368.23	36.73
368.439	36.49
368.648	36.9
368.857	36.72
369.067	37.4
369.276	36.93
369.485	37.12
369.694	37.67
369.903	36.96
370.112	36.99
370.321	37.09
370.531	37.28
370.74	38.43
370.949	38.19
371.158	38.15
371.367	37.25
371.576	37.37
371.785	37.57
371.994	36.43
372.203	36.38
372.412	36.61
372.621	35.49
372.83	35.11
373.039	34.12
373.248	34.13
373.457	34.16
373.666	34.18
373.874	34.3
374.083	33.66
374.292	33.66
374.501	33.94
374.71	33.75
374.919	33.98
375.128	34.03
375.336	34.05
375.545	34.66
375.754	34.93
375.963	34.28
376.171	34.45
376.38	34.94
376.589	35.44
376.798	35.3
377.006	35.09
377.215	35.2
377.424	35.02
377.632	34.83
377.841	33.99
378.05	33.97
378.258	34.29
378.467	34.33
378.675	33.97
378.884	33.88
379.093	33.73
379.301	33.76
379.51	34.22
379.718	34.45
379.927	34.96
380.135	35.27
380.344	34.75
380.552	35.27
380.761	34.86
380.969	35.22
381.177	35.13
381.386	34.82
381.594	34.84
381.803	34.26
382.011	33.65
382.219	33.17
382.428	33.09
382.636	33.42
382.845	32.73
383.053	32.43
383.261	32.06
383.469	31.8
383.678	31.37
383.886	31.29
384.094	31.39
384.302	31.3
384.511	31.22
384.719	30.77
384.927	30.54
385.135	30.46
385.343	30.18
385.552	30.22
385.76	30.02
385.968	30.4
386.176	29.99
386.384	29.97
386.592	29.67
386.8	29.33
387.008	29.31
387.216	28.69
387.424	28.76
387.633	28.68
387.841	28.23
388.049	28.56
388.257	28.14
388.465	27.99
388.672	27.89
388.88	27.65
389.088	27.63
389.296	27.68
389.504	27.97
389.712	28.06
389.92	27.96
390.128	27.72
390.336	26.94
390.544	27.36
390.751	27.75
390.959	27.71
391.167	28.12
391.375	28.16
391.583	28.1
391.79	28.05
391.998	27.74
392.206	27.95
392.414	27.82
392.621	28.17
392.829	27.88
393.037	27.5
393.244	27.55
393.452	27.44
393.66	27.07
393.867	27.08
394.075	26.92
394.283	27.07
394.49	26.47
394.698	26.37
394.905	26.12
395.113	26.01
395.32	25.79
395.528	25.39
395.735	25.01
395.943	24.98
396.15	24.76
396.358	24.32
396.565	24.01
396.773	24.5
396.98	24.67
397.188	24.57
397.395	24.35
397.602	24.35
397.81	24.43
398.017	24.75
398.225	24.99
398.432	24.86
398.639	25.36
398.847	25.74
399.054	25.43
399.261	25.72
399.468	25.71
399.676	25.82
399.883	25.79
400.09	26.03
400.297	25.84
400.505	25.57
400.712	25.79
400.919	25.64
401.126	25.37
401.333	25.85
401.54	25.29
401.748	25.51
401.955	25.5
402.162	25.63
402.369	25.11
402.576	24.93
402.783	24.71
402.99	24.62
403.197	24.28
403.404	24.08
403.611	23.71
403.818	23.95
404.025	23.86
404.232	23.81
404.439	23.94
404.646	24.14
404.853	24.27
405.06	24.49
405.267	24.55
405.474	24.83
405.681	24.97
405.887	24.88
406.094	24.96
406.301	24.72
406.508	24.91
406.715	24.67
406.922	24.6
407.128	24.51
407.335	24.72
407.542	24.48
407.749	24.41
407.955	24
408.162	24.13
408.369	23.82
408.575	23.71
408.782	23.51
408.989	23.61
409.195	23.57
409.402	23.64
409.609	23.68
409.815	23.69
410.022	23.72
410.228	23.95
410.435	23.96
410.642	23.89
410.848	23.95
411.055	23.87
411.261	23.88
411.468	23.98
411.674	23.74
411.881	23.53
412.087	23.32
412.294	23.09
412.5	23.1
412.706	22.81
412.913	23.1
413.119	23.53
413.326	23.57
413.532	23.56
413.738	23.54
413.945	23.77
414.151	23.55
414.357	23.76
414.564	24.04
414.77	23.98
414.976	23.91
415.182	23.54
415.389	23.07
415.595	23.22
415.801	22.81
416.007	22.76
416.214	22.67
416.42	22.88
416.626	22.94
416.832	22.88
417.038	22.74
417.244	22.97
417.45	23.2
417.657	23.39
417.863	23.16
418.069	23.29
418.275	23.09
418.481	23.15
418.687	23.07
418.893	23.05
419.099	23.05
419.305	23.16
419.511	23.19
419.717	23.37
419.923	23.35
420.129	23.35
420.335	23.3
420.541	23.38
420.746	23.22
420.952	23.23
421.158	23.14
421.364	23.1
421.57	22.96
421.776	22.85
421.982	22.65
422.187	22.49
422.393	22.53
422.599	22.45
422.805	22.43
423.01	22.32
423.216	22.28
423.422	22.4
423.628	22.22
423.833	22.26
424.039	22.39
424.245	22.34
424.45	22.26
424.656	22.14
424.862	22.26
425.067	22.25
425.273	22.44
425.478	22.42
425.684	22.14
425.889	22.15
426.095	22.04
426.301	21.76
426.506	21.6
426.712	21.67
426.917	21.89
427.123	21.84
427.328	21.65
427.533	21.6
427.739	21.74
427.944	21.79
428.15	21.68
428.355	21.81
428.561	21.76
428.766	21.93
428.971	21.98
429.177	21.94
429.382	22.04
429.587	22.27
429.793	22.13
429.998	22.03
430.203	21.99
430.408	22.03
430.614	22.05
430.819	22.26
431.024	22.16
431.229	22.29
431.434	22.02
431.64	22
431.845	21.87
432.05	22.1
432.255	21.97
432.46	21.98
432.665	22.09
432.87	22.1
433.076	22.21
433.281	22.25
433.486	22.08
433.691	21.82
433.896	21.62
434.101	21.53
434.306	21.42
434.511	21.35
434.716	21.31
434.921	21.26
435.126	21.34
435.331	21.14
435.535	21.09
435.74	21.01
435.945	21.36
436.15	21.47
436.355	21.46
436.56	21.52
436.765	21.51
436.97	21.7
437.174	21.64
437.379	21.5
437.584	21.52
437.789	21.61
437.993	21.71
438.198	21.61
438.403	21.76
438.608	21.69
438.812	21.65
439.017	21.78
439.222	21.72
439.426	21.86
439.631	21.91
439.836	21.87
440.04	21.97
440.245	21.9
440.45	22
440.654	21.94
440.859	22.08
441.063	22.04
441.268	21.84
441.472	21.79
441.677	21.84
441.881	21.63
442.086	21.75
442.29	21.39
442.495	21.46
442.699	21.43
442.904	21.32
443.108	21.2
443.312	21.2
443.517	21.45
443.721	21.6
443.925	21.42
444.13	21.54
444.334	21.43
444.538	21.54
444.743	21.55
444.947	21.43
445.151	21.42
445.356	21.54
445.56	21.5
445.764	21.45
445.968	21.28
446.173	21.29
446.377	21.24
446.581	21.24
446.785	21.31
446.989	21.09
447.193	21.11
447.398	21.11
447.602	20.99
447.806	21
448.01	20.81
448.214	20.73
448.418	20.84
448.622	20.93
448.826	20.92
449.03	20.78
449.234	21
449.438	20.91
449.642	20.85
449.846	20.95
450.05	20.86
450.254	20.93
450.458	21.1
450.662	20.86
450.866	20.95
451.069	20.92
451.273	20.89
451.477	20.91
451.681	21.06
451.885	20.93
452.089	20.9
452.292	20.92
452.496	21.05
452.7	21.06
452.904	21.13
453.107	21.02
453.311	21.01
453.515	21
453.719	20.9
453.922	20.77
454.126	20.8
454.33	20.71
454.533	20.65
454.737	20.34
454.94	20.23
455.144	20.34
455.348	20.24
455.551	20.31
455.755	20.38
455.958	20.33
456.162	20.09
456.365	20.2
456.569	20.29
456.772	20.33
456.976	20.59
457.179	20.6
457.383	20.48
457.586	20.47
457.79	20.36
457.993	20.28
458.196	20.4
458.4	20.7
458.603	20.65
458.807	20.59
459.01	20.69
459.213	20.65
459.417	20.67
459.62	20.66
459.823	20.64
460.026	20.71
460.23	20.72
460.433	20.67
460.636	20.57
460.839	20.62
461.042	20.64
461.246	20.47
461.449	20.54
461.652	20.53
461.855	20.48
462.058	20.59
462.261	20.52
462.464	20.57
462.668	20.69
462.871	20.93
463.074	21.02
463.277	21.03
463.48	21.25
463.683	21.15
463.886	21.34
464.089	21.41
464.292	21.3
464.495	21.18
464.698	21.35
464.901	21.34
465.104	21.3
465.306	21.21
465.509	21.22
465.712	21.16
465.915	21.12
466.118	20.94
466.321	21.06
466.524	20.98
466.726	21.18
466.929	21.18
467.132	21.16
467.335	20.99
467.538	21.01
467.74	21.13
467.943	21.23
468.146	21.3
468.348	21.34
468.551	21.23
468.754	21.48
468.956	21.43
469.159	21.33
469.362	21.33
469.564	21.39
469.767	21.41
469.969	21.33
470.172	21.09
470.375	21.02
470.577	21.13
470.78	21.2
470.982	21.28
471.185	21.37
471.387	21.5
471.59	21.44
471.792	21.64
471.995	21.52
472.197	21.47
472.399	21.75
472.602	21.83
472.804	21.63
473.007	21.5
473.209	21.38
473.411	21.34
473.614	21.31
473.816	21.53
474.018	21.51
474.22	21.56
474.423	21.64
474.625	21.52
474.827	21.61
475.03	21.58
475.232	21.63
475.434	21.55
475.636	21.49
475.838	21.57
476.04	21.38
476.243	21.26
476.445	21.42
476.647	21.31
476.849	21.29
477.051	21.22
477.253	21.32
477.455	21.29
477.657	21.51
477.859	21.47
478.061	21.38
478.263	21.32
478.465	21.3
478.667	21.15
478.869	21.13
479.071	21.21
479.273	21.27
479.475	21.19
479.677	21.36
479.879	21.26
480.081	21.34
480.283	21.2
480.485	21.48
480.686	21.58
480.888	21.62
481.09	21.51
481.292	21.5
481.494	21.42
481.695	21.46
481.897	21.28
482.099	21.29
482.301	21.22
482.502	21.26
482.704	21.18
482.906	21.09
483.107	21.09
483.309	21.1
483.511	21.02
483.712	21.04
483.914	21.04
484.115	21.03
484.317	20.94
484.519	20.93
484.72	20.88
484.922	20.86
485.123	20.92
485.325	20.89
485.526	20.9
485.728	20.95
485.929	20.88
486.131	20.87
486.332	20.89
486.534	20.94
486.735	20.96
486.936	21.07
487.138	20.95
487.339	20.89
487.541	20.9
487.742	20.94
487.943	20.87
488.144	20.89
488.346	20.87
488.547	20.83
488.748	20.9
488.95	20.89
489.151	20.86
489.352	20.95
489.553	20.95
489.755	20.92
489.956	20.93
490.157	21.02
490.358	21.01
490.559	21.12
490.76	21.07
490.961	20.97
491.163	20.99
491.364	20.96
491.565	20.93
491.766	20.94
491.967	21
492.168	20.97
492.369	21.03
492.57	21.04
492.771	20.97
492.972	21.13
493.173	21.19
493.374	21.21
493.575	21.24
493.776	21.2
493.976	21.32
494.177	21.33
494.378	21.41
494.579	21.26
494.78	21.35
494.981	21.36
495.182	21.3
495.382	21.23
495.583	21.35
495.784	21.32
495.985	21.47
496.185	21.34
496.386	21.4
496.587	21.38
496.788	21.47
496.988	21.37
497.189	21.48
497.39	21.53
497.59	21.73
497.791	21.64
497.992	21.69
498.192	21.75
498.393	21.69
498.593	21.59
498.794	21.61
498.994	21.64
499.195	21.81
499.395	21.78
499.596	21.83
499.796	21.9
499.997	21.9
500.197	21.9
500.398	21.8
500.598	21.85
500.799	21.83
500.999	21.84
501.199	22.02
501.4	21.98
501.6	22.05
501.801	22.05
502.001	21.93
502.201	22.04
502.402	22.15
502.602	22.28
502.802	22.34
503.002	22.61
503.203	22.76
503.403	22.65
503.603	22.82
503.803	22.77
504.003	22.81
504.204	22.96
504.404	22.9
504.604	22.78
504.804	22.91
505.004	23.04
505.204	22.83
505.404	22.68
505.604	22.65
505.804	22.54
506.005	22.69
506.205	22.6
506.405	22.51
506.605	22.6
506.805	22.59
507.005	22.37
507.204	22.33
507.404	22.54
507.604	22.78
507.804	22.85
508.004	22.89
508.204	22.87
508.404	22.95
508.604	22.84
508.804	22.85
509.003	23.15
509.203	23.27
509.403	23.21
509.603	23.03
509.803	23.06
510.002	23.1
510.202	23.22
510.402	23.16
510.602	23.14
510.801	23.32
511.001	23.34
511.201	23.24
511.4	23.32
511.6	23.48
511.8	23.71
511.999	23.63
512.199	23.72
512.398	23.64
512.598	23.76
512.797	23.87
512.997	23.93
513.197	23.98
513.396	24.01
513.596	23.97
513.795	24.03
513.994	23.94
514.194	23.94
514.393	23.87
514.593	23.94
514.792	24.01
514.992	23.99
515.191	23.84
515.39	23.87
515.59	23.93
515.789	24.12
515.988	24.32
516.188	24.65
516.387	24.62
516.586	24.65
516.786	24.72
516.985	24.81
517.184	24.98
517.383	25.03
517.582	25
517.782	24.95
517.981	24.93
518.18	24.7
518.379	24.58
518.578	24.58
518.777	24.58
518.976	24.61
519.176	24.65
519.375	24.54
519.574	24.71
519.773	24.8
519.972	24.9
520.171	24.88
520.37	24.9
520.569	24.93
520.768	25.02
520.967	25.12
521.166	25.09
521.365	25.04
521.564	25.21
521.762	25.04
521.961	25.18
522.16	25.16
522.359	25.18
522.558	25.41
522.757	25.41
522.956	25.4
523.154	25.42
523.353	25.54
523.552	25.56
523.751	25.54
523.949	25.62
524.148	25.51
524.347	25.55
524.546	25.7
524.744	25.66
524.943	25.76
525.142	25.86
525.34	25.88
525.539	25.88
525.737	25.9
525.936	25.94
526.135	25.93
526.333	25.96
526.532	25.96
526.73	25.9
526.929	25.99
527.127	26.03
527.326	26.09
527.524	26.19
527.723	26.25
527.921	26.23
528.12	26.22
528.318	26.25
528.516	26.21
528.715	26.23
528.913	26.23
529.112	26.2
529.31	26.13
529.508	26.14
529.707	26.02
529.905	26.01
530.103	26.02
530.301	26.07
530.5	26.14
530.698	26.24
530.896	26.29
531.094	26.3
531.293	26.31
531.491	26.47
531.689	26.52
531.887	26.78
532.085	26.75
532.283	26.81
532.481	26.78
532.68	26.74
532.878	26.77
533.076	26.7
533.274	26.78
533.472	26.73
533.67	26.76
533.868	26.8
534.066	26.62
534.264	26.73
534.462	26.73
534.66	26.71
534.858	26.86
535.056	26.93
535.253	27.04
535.451	27.13
535.649	27.35
535.847	27.4
536.045	27.35
536.243	27.48
536.441	27.44
536.638	27.5
536.836	27.58
537.034	27.46
537.232	27.38
537.43	27.45
537.627	27.39
537.825	27.43
538.023	27.36
538.22	27.49
538.418	27.46
538.616	27.35
538.813	27.42
539.011	27.36
539.209	27.4
539.406	27.51
539.604	27.48
539.801	27.6
539.999	27.51
540.196	27.54
540.394	27.52
540.591	27.52
540.789	27.73
540.986	27.73
541.184	27.83
541.381	27.8
541.579	27.87
541.776	27.86
541.974	27.83
542.171	27.88
542.368	27.95
542.566	27.96
542.763	28.09
542.96	28.04
543.158	28.02
543.355	28.02
543.552	28.13
543.75	28.07
543.947	28.19
544.144	28.3
544.341	28.27
544.539	28.26
544.736	28.32
544.933	28.3
545.13	28.39
545.327	28.43
545.524	28.47
545.722	28.42
545.919	28.5
546.116	28.47
546.313	28.4
546.51	28.52
546.707	28.66
546.904	28.63
547.101	28.72
547.298	28.72
547.495	28.73
547.692	28.67
547.889	28.93
548.086	29.05
548.283	29.1
548.48	29.13
548.677	29.12
548.874	29.14
549.07	29.22
549.267	29.08
549.464	29.12
549.661	29.14
549.858	29.24
550.055	29
550.251	28.8
550.448	28.72
550.645	28.87
550.842	29.06
551.038	29.05
551.235	28.89
551.432	28.96
551.628	28.95
551.825	29.11
552.022	29.15
552.218	29.18
552.415	29.32
552.612	29.55
552.808	29.46
553.005	29.27
553.201	29.23
553.398	29.43
553.594	29.51
553.791	29.63
553.987	29.55
554.184	29.61
554.38	29.52
554.577	29.47
554.773	29.47
554.97	29.45
555.166	29.62
555.362	29.67
555.559	29.73
555.755	29.7
555.952	29.85
556.148	29.92
556.344	29.85
556.541	30.19
556.737	30.28
556.933	30.58
557.129	30.8
557.326	30.68
557.522	30.6
557.718	30.58
557.914	30.65
558.11	30.61
558.307	30.72
558.503	31.12
558.699	31.05
558.895	30.87
559.091	30.32
559.287	30.16
559.483	30.44
559.679	30.58
559.876	30.77
560.072	30.86
560.268	30.79
560.464	30.82
560.66	30.83
560.856	30.95
561.052	31.06
561.247	31.32
561.443	31.49
561.639	31.54
561.835	31.7
562.031	31.46
562.227	31.24
562.423	31.29
562.619	31.19
562.815	30.91
563.01	30.85
563.206	31.13
563.402	31.04
563.598	31.11
563.793	31.12
563.989	31.01
564.185	31.4
564.381	31.43
564.576	31.5
564.772	31.47
564.968	31.57
565.163	31.57
565.359	31.58
565.555	31.77
565.75	31.77
565.946	31.57
566.141	31.69
566.337	31.52
566.532	31.76
566.728	31.82
566.923	32.08
567.119	32.16
567.314	32.06
567.51	31.91
567.705	31.96
567.901	32.15
568.096	32.45
568.292	32.17
568.487	32.38
568.682	32.26
568.878	32.24
569.073	32.27
569.268	32.17
569.464	32.32
569.659	32.36
569.854	32.19
570.05	31.95
570.245	31.9
570.44	32.04
570.635	31.91
570.831	32.04
571.026	32.1
571.221	32.03
571.416	32.12
571.611	32.16
571.806	32.42
572.002	32.54
572.197	32.68
572.392	32.58
572.587	32.83
572.782	32.92
572.977	32.9
573.172	33
573.367	32.91
573.562	32.95
573.757	32.93
573.952	32.82
574.147	32.91
574.342	32.84
574.537	32.99
574.732	32.94
574.927	32.91
575.121	32.88
575.316	32.82
575.511	32.89
575.706	32.95
575.901	33
576.096	33.11
576.29	32.95
576.485	33.09
576.68	33.15
576.875	33.03
577.069	33.05
577.264	33.24
577.459	33.17
577.654	33.11
577.848	32.89
578.043	32.91
578.238	32.8
578.432	32.86
578.627	32.78
578.821	32.62
579.016	32.83
579.21	32.91
579.405	32.96
579.6	33.12
579.794	33.21
579.989	33.39
580.183	33.37
580.378	33.31
580.572	33.35
580.766	33.36
580.961	33.41
581.155	33.55
581.35	33.56
581.544	33.42
581.738	33.28
581.933	33.3
582.127	33.39
582.321	33.38
582.516	33.48
582.71	33.5
582.904	33.35
583.099	33.23
583.293	33
583.487	32.97
583.681	32.87
583.875	32.74
584.07	32.97
584.264	33.03
584.458	33.14
584.652	33.37
584.846	33.42
585.04	33.71
585.234	33.76
585.428	33.9
585.623	33.74
585.817	33.84
586.011	33.99
586.205	33.77
586.399	33.95
586.593	33.99
586.787	33.96
586.981	33.95
587.174	34.12
587.368	34.21
587.562	34.19
587.756	34.31
587.95	34.36
588.144	34.55
588.338	34.6
588.532	34.41
588.725	34.62
588.919	34.6
589.113	34.52
589.307	34.08
589.501	34.41
589.694	34.32
589.888	34.33
590.082	34.35
590.275	34.25
590.469	34.34
590.663	34.22
590.856	33.91
591.05	34.02
591.244	34.22
591.437	34.32
591.631	34.1
591.824	34.13
592.018	34.13
592.212	34.16
592.405	34.2
592.599	34.11
592.792	34.08
592.986	34.46
593.179	34.26
593.372	34.16
593.566	34.07
593.759	33.97
593.953	34.02
594.146	34.17
594.339	34.19
594.533	34.33
594.726	34.01
594.92	33.99
595.113	33.66
595.306	33.64
595.499	33.64
595.693	34.18
595.886	34.13
596.079	34.05
596.272	34.16
596.466	34.34
596.659	34.21
596.852	34.57
597.045	34.86
597.238	34.79
597.431	34.82
597.624	34.98
597.818	34.79
598.011	34.85
598.204	35.09
598.397	34.92
598.59	34.76
598.783	34.64
598.976	34.46
599.169	34.54
599.362	34.73
599.555	34.53
599.748	34.41
599.941	34.33
600.134	34.47
600.326	34.14
600.519	34.09
600.712	34.08
600.905	34.4
601.098	34.39
601.291	34.11
601.483	34.17
601.676	34.33
601.869	34.29
602.062	34.49
602.255	34.58
602.447	34.78
602.64	34.65
602.833	34.72
603.025	34.7
603.218	35.03
603.411	35.06
603.603	35.3
603.796	35.37
603.989	35.18
604.181	34.93
604.374	34.86
604.566	34.86
604.759	35.08
604.951	35.08
605.144	34.89
605.336	34.68
605.529	34.75
605.721	34.58
605.914	34.49
606.106	34.81
606.299	34.74
606.491	34.74
606.683	34.66
606.876	34.82
607.068	34.76
607.26	34.88
607.453	35.1
607.645	35.17
607.837	35.16
608.03	35.4
608.222	35.24
608.414	35.35
608.606	35.23
608.799	35.26
608.991	34.87
609.183	34.86
609.375	35.09
609.567	34.88
609.759	34.98
609.952	34.87
610.144	34.9
610.336	35.11
610.528	35.08
610.72	35.25
610.912	35.42
611.104	35.57
611.296	35.59
611.488	35.31
611.68	35.46
611.872	35.2
612.064	35.5
612.256	35.46
612.448	35.26
612.64	35.5
612.832	35.36
613.023	35.15
613.215	35.09
613.407	34.93
613.599	35.03
613.791	34.98
613.983	35.24
614.174	35.15
614.366	34.8
614.558	34.67
614.75	34.61
614.941	34.71
615.133	34.91
615.325	35.14
615.516	35.21
615.708	35.05
615.9	35.3
616.091	35.06
616.283	35.02
616.475	35.16
616.666	35.37
616.858	35.65
617.049	35.26
617.241	35.04
617.432	34.93
617.624	35.31
617.815	35.71
618.007	35.35
618.198	35.46
618.39	35.52
618.581	35.52
618.773	35.52
618.964	35.36
619.155	35.74
619.347	35.71
619.538	35.76
619.729	35.57
619.921	35.58
620.112	35.86
620.303	36.11
620.494	35.83
620.686	35.7
620.877	35.62
621.068	35.41
621.259	35.34
621.451	35.46
621.642	35.16
621.833	35.39
622.024	35.16
622.215	35.03
622.406	34.82
622.597	34.94
622.788	35.24
622.98	35.23
623.171	35.26
623.362	35.37
623.553	35.69
623.744	35.84
623.935	35.67
624.126	35.47
624.317	35.72
624.508	35.54
624.698	35.61
624.889	35.45
625.08	35.36
625.271	35.42
625.462	35.18
625.653	35.32
625.844	35.49
626.034	35.32
626.225	35.29
626.416	34.82
626.607	34.96
626.798	34.62
626.988	34.97
627.179	35.08
627.37	34.87
627.56	34.99
627.751	34.45
627.942	34.26
628.132	34.28
628.323	34.49
628.514	34.85
628.704	34.67
628.895	35.12
629.085	34.79
629.276	34.92
629.466	34.97
629.657	34.93
629.847	35.27
630.038	35.55
630.228	35.37
630.419	35.36
630.609	35.3
630.8	35.3
630.99	34.96
631.181	35.05
631.371	35.05
631.561	35.17
631.752	35.29
631.942	35.15
632.132	34.89
632.323	35.2
632.513	34.98
632.703	35.07
632.893	35.07
633.084	35.36
633.274	35.3
633.464	35.15
633.654	35.49
633.844	35.36
634.034	35.4
634.225	35.34
634.415	35.47
634.605	35.59
634.795	35.34
634.985	35.51
635.175	35.64
635.365	35.55
635.555	35.44
635.745	35.34
635.935	35.27
636.125	35.15
636.315	35.19
636.505	35.01
636.695	34.87
636.885	35.17
637.075	35.19
637.265	34.98
637.455	35.23
637.644	35.31
637.834	35.43
638.024	35.36
638.214	35.62
638.404	35.79
638.593	35.55
638.783	35.95
638.973	35.61
639.163	35.32
639.352	35.38
639.542	34.75
639.732	34.72
639.921	34.2
640.111	34.45
640.301	34.5
640.49	34.66
640.68	35.23
640.87	34.86
641.059	35.07
641.249	35.12
641.438	35.15
641.628	35.77
641.817	35.87
642.007	35.97
642.196	35.78
642.386	35.48
642.575	35.1
642.764	34.46
642.954	34.47
643.143	34.4
643.333	34.25
643.522	34.1
643.711	33.9
643.901	33.76
644.09	34.04
644.279	34.5
644.469	34.42
644.658	34.45
644.847	34.66
645.036	35.03
645.226	34.73
645.415	34.77
645.604	34.88
645.793	34.95
645.982	35.47
646.171	35.21
646.361	35.01
646.55	35.15
646.739	34.87
646.928	35.06
647.117	34.55
647.306	34.58
647.495	34.74
647.684	33.96
647.873	34.14
648.062	33.91
648.251	34.48
648.44	34.43
648.629	34.54
648.818	35.06
649.007	34.77
649.196	35.16
649.384	35.82
649.573	35.73
649.762	36.5
649.951	36.36
650.14	36.14
650.328	35.96
650.517	36.2
650.706	36.44
650.895	36.47
651.083	36.43
651.272	36.35
651.461	36.06
651.65	36.14
651.838	35.9
652.027	35.7
652.216	35.51
652.404	35.23
652.593	35.38
652.781	34.96
652.97	35.12
653.158	35.14
653.347	35.22
653.535	35.11
653.724	35.32
653.912	35.75
654.101	35.79
654.289	36.32
654.478	36.07
654.666	35.55
654.855	35.83
655.043	35.38
655.231	35.62
655.42	35.44
655.608	35.9
655.796	35.69
655.985	35.31
656.173	35.53
656.361	34.86
656.55	34.82
656.738	34.99
656.926	34.84
657.114	34.76
657.302	34.91
657.491	35.08
657.679	34.81
657.867	34.77
658.055	34.96
658.243	35.06
658.431	35.47
658.619	35.92
658.807	35.66
658.996	35.64
659.184	35.74
659.372	35.65
659.56	35.76
659.748	35.66
659.936	35.97
660.124	35.85
660.311	35.61
660.499	35.28
660.687	35.07
660.875	35.19
661.063	35.13
661.251	35.25
661.439	35.1
661.627	34.46
661.814	34.87
662.002	34.79
662.19	34.69
662.378	35.14
662.565	35.82
662.753	35.78
662.941	35.73
663.129	35.49
663.316	35.53
663.504	35.88
663.692	36.51
663.879	36.35
664.067	36.22
664.254	36.65
664.442	36.31
664.63	36.34
664.817	36.49
665.005	36.46
665.192	36.83
665.38	36.59
665.567	36.45
665.755	36.4
665.942	36.25
666.13	36.1
666.317	36.28
666.504	36.59
666.692	36.36
666.879	36.3
667.067	36.59
667.254	36.74
667.441	37.07
667.629	37.16
667.816	37.17
668.003	37.12
668.19	37.21
668.378	36.47
668.565	36.42
668.752	36
668.939	36
669.127	35.9
669.314	35.99
669.501	35.7
669.688	35.22
669.875	35.11
670.062	35.34
670.249	35.42
670.436	35.64
670.623	35.52
670.81	36.24
670.997	36.64
671.184	36.42
671.371	35.99
671.558	36.21
671.745	36.43
671.932	36.51
672.119	36
672.306	35.77
672.493	35.96
672.68	35.59
672.867	35.19
673.054	35.07
673.24	35.69
673.427	36.07
673.614	35.92
673.801	36.49
673.988	36.2
674.174	36.38
674.361	36.59
674.548	36.69
674.734	36.47
674.921	36.62
675.108	35.98
675.294	35.72
675.481	35.49
675.668	35.22
675.854	34.81
676.041	35.01
676.227	35.18
676.414	34.88
676.601	34.1
676.787	34.63
676.974	34.22
677.16	34.57
677.347	34.35
677.533	34.54
677.719	34.85
677.906	34.96
678.092	35.08
678.279	34.75
678.465	34.7
678.651	35
678.838	35.21
679.024	35.43
679.21	35.37
679.397	35.4
679.583	35.15
679.769	35.14
679.955	34.97
680.142	35.01
680.328	34.94
680.514	35.08
680.7	34.82
680.886	34.7
681.073	34.65
681.259	34.74
681.445	34.72
681.631	35.24
681.817	35.19
682.003	35.47
682.189	35.32
682.375	35.38
682.561	35.73
682.747	35.87
682.933	35.58
683.119	35.41
683.305	35.56
683.491	35.73
683.677	35.32
683.863	35.3
684.049	34.98
684.235	34.81
684.42	35.19
684.606	34.98
684.792	35.42
684.978	35.49
685.164	35.87
685.349	35.4
685.535	35.93
685.721	36.07
685.907	36.74
686.092	36.85
686.278	37.06
686.464	37.24
686.649	37.45
686.835	37.55
687.021	37.41
687.206	37.33
687.392	37.86
687.577	37.11
687.763	37.11
687.948	36.31
688.134	36.47
688.319	36.41
688.505	35.83
688.69	35.58
688.876	35.48
689.061	35.89
689.247	36
689.432	35.97
689.618	36.25
689.803	35.79
689.988	36.36
690.174	35.87
690.359	36.52
690.544	36.81
690.73	36.7
690.915	37.13
691.1	37.08
691.285	36.99
691.471	36.25
691.656	35.61
691.841	36.28
692.026	35.97
692.211	36.45
692.396	35.49
692.582	35.43
692.767	35.2
692.952	34.55
693.137	34.48
693.322	34.32
693.507	35.16
693.692	35.32
693.877	34.49
694.062	35.18
694.247	35.03
694.432	35.78
694.617	35.75
694.802	35.68
694.987	35.83
695.172	35.65
695.357	36.11
695.541	35.56
695.726	36.27
695.911	36.41
696.096	35.64
696.281	35.77
696.466	35.68
696.65	35.56
696.835	35.71
697.02	35.41
697.204	35.19
697.389	35.3
697.574	35.75
697.759	35.65
697.943	35.7
698.128	35.92
698.312	36.03
698.497	36.12
698.682	36.07
698.866	36.32
699.051	36.81
699.235	37.18
699.42	37.22
699.604	36.97
699.789	36.64
699.973	36.91
700.158	36.8
700.342	36.37
700.527	36.03
700.711	36.04
700.895	35.83
701.08	35.41
701.264	35.44
701.448	35.08
701.633	35.1
701.817	34.92
702.001	34.59
702.186	34.13
702.37	35.11
702.554	35.28
702.738	35.24
702.923	35.16
703.107	35.41
703.291	35.57
703.475	35.66
703.659	35.93
703.843	36.43
704.027	36.24
704.212	36.57
704.396	35.88
704.58	35.6
704.764	36.11
704.948	36.43
705.132	35.6
705.316	34.49
705.5	34.56
705.684	34.3
705.868	34.51
706.052	34.42
706.235	34.71
706.419	34.55
706.603	34.86
706.787	35.28
706.971	34.93
707.155	35.81
707.339	36.84
707.522	36.12
707.706	36.31
707.89	36.01
708.074	36.8
708.257	36.17
708.441	36.01
708.625	36.34
708.808	35.56
708.992	36.16
709.176	35.83
709.359	35.83
709.543	35.93
709.727	35.73
709.91	36.24
710.094	35.62
710.277	36.26
710.461	36.68
710.644	36.24
710.828	36.8
711.011	36.39
711.195	36.19
711.378	35.66
711.562	35.28
711.745	35.57
711.928	35.49
712.112	36.02
712.295	35.64
712.478	35.88
712.662	35.69
712.845	34.73
713.028	34.33
713.212	34.12
713.395	34.35
713.578	35.14
713.761	34.28
713.945	34.53
714.128	34.23
714.311	34.03
714.494	33.82
714.677	35.28
714.86	36.16
715.043	36.19
715.227	36.38
715.41	36.64
715.593	37.28
715.776	37.78
715.959	36.98
716.142	36.97
716.325	37.58
716.508	38
716.691	36.84
716.874	36.68
717.057	36.91
717.239	37.6
717.422	37.24
717.605	36.76
717.788	36.84
717.971	37.71
718.154	38.27
718.337	36.89
718.519	36.95
718.702	36.95
718.885	37.18
719.068	37.52
719.25	36.98
719.433	36.88
719.616	35.4
719.798	36.04
719.981	35.81
720.164	35.81
720.346	36.24
720.529	35.89
720.712	36.02
720.894	35.82
721.077	36.06
721.259	36.5
721.442	37.3
721.624	39.06
721.807	38.22
721.989	37.44
722.172	36.41
722.354	37.23
722.537	36.04
722.719	35.95
722.901	35.65
723.084	35.41
723.266	35.65
723.448	35.36
723.631	34.29
723.813	34.84
723.995	35.5
724.178	36.17
724.36	36.87
724.542	37.58
724.724	37.8
724.907	37.96
725.089	37.77
725.271	37.58
725.453	36.61
725.635	37.66
725.817	37.92
725.999	37.37
726.181	37.73
726.364	36.65
726.546	36.71
726.728	36
726.91	35.86
727.092	36.15
727.274	36.08
727.456	35.91
727.638	34.45
727.819	34.72
728.001	35.56
728.183	35.86
728.365	37.37
728.547	37.13
728.729	37.09
728.911	37.04
729.093	37.13
729.274	37.35
729.456	38.55
729.638	38.77
729.82	36.93
730.001	35.92
730.183	36
730.365	34.84
730.546	35.19
730.728	35.74
730.91	36.85
731.091	35.74
731.273	35.47
731.455	35.05
731.636	35.34
731.818	35.76
731.999	36.35
732.181	35.29
732.362	35.02
732.544	34.14
732.725	33.8
732.907	32.9
733.088	33.45
733.27	33.73
733.451	33.74
733.633	34.4
733.814	35.16
733.995	34.03
734.177	33.75
734.358	34.55
734.539	35.75
734.721	35.52
734.902	35.85
735.083	36.6
735.264	35.51
735.446	35.92
735.627	35.17
735.808	33.74
735.989	34.7
736.17	35.7
736.351	35.6
736.533	35.16
736.714	35.07
736.895	34.67
737.076	34.29
737.257	35.38
737.438	34.95
737.619	35.91
737.8	36.95
737.981	38.21
738.162	37.27
738.343	37.39
738.524	37.8
738.705	39.17
738.886	39.04
739.067	39.48
739.247	39.01
739.428	39.45
739.609	38.88
739.79	39.34
739.971	38.27
740.151	38.76
740.332	37.43
740.513	35.73
740.694	34.37
740.874	34.57
741.055	31.84
741.236	31.36
741.417	30.59
741.597	30.3
741.778	30.01
741.958	29.79
742.139	30.78
742.32	30.63
742.5	33.22
742.681	33.84
742.861	33.66
743.042	35.98
743.222	36.52
743.403	36.47
743.583	37.76
743.764	38.13
743.944	38.56
744.124	37.92
744.305	38.59
744.485	36.68
744.666	36.97
744.846	36.78
745.026	37.26
745.207	38.9
745.387	39.03
745.567	36.97
745.747	36.2
745.928	34.94
746.108	33.73
746.288	34.17
746.468	34.17
746.648	34.08
746.829	34.01
747.009	34.02
747.189	33.49
747.369	33.63
747.549	35.06
747.729	35.3
747.909	35.72
748.089	36.14
748.269	35.92
748.449	38.11
748.629	37.13
748.809	38.08
748.989	37.24
749.169	36.08
749.349	36.63
749.529	36.12
749.709	34.67
749.889	33.49
750.068	33.98
750.248	33.43
750.428	30.84
750.608	31.89
750.788	32.12
750.967	31.73
751.147	31.5
751.327	31.29
751.507	31.32
751.686	33.98
751.866	35.5
752.046	35.28
752.225	36.02
752.405	37.43
752.585	36.62
752.764	35.57
752.944	36.14
753.123	35.98
753.303	35.28
753.482	35.33
753.662	33.71
753.841	34.25
754.021	34.05
754.2	34.65
754.38	34.32
754.559	34.76
754.739	33.65
754.918	33.55
755.097	33.76
755.277	33.82
755.456	34.09
755.635	33.76
755.815	33.51
755.994	33.02
756.173	32.28
756.352	32.7
756.532	31.89
756.711	32.61
756.89	33.23
757.069	33.39
757.248	33.12
757.427	33.47
757.607	34.52
757.786	34.07
757.965	36.32
758.144	35.72
758.323	34.37
758.502	34.88
758.681	35.22
758.86	34.79
759.039	34.55
759.218	34.66
759.397	34.7
759.576	34.27
759.755	35.22
759.934	33.11
760.113	32.53
760.291	34.17
760.47	34.51
760.649	35.01
760.828	34.8
761.007	35.64
761.186	36.13
761.364	36.03
761.543	36.43
761.722	35.21
761.901	36.01
762.079	36.76
762.258	35.25
762.437	34.5
762.615	34.72
762.794	34.6
762.972	33.77
763.151	33.19
763.33	32.84
763.508	32.35
763.687	32.44
763.865	33.08
764.044	34.21
764.222	35.22
764.401	35.67
764.579	35.45
764.758	35.15
764.936	35.64
765.114	36.14
765.293	36.28
765.471	36.61
765.65	37.05
765.828	36.22
766.006	36.4
766.184	35.75
766.363	34.88
766.541	33.81
766.719	35.48
766.898	35.79
767.076	35.51
767.254	35.87
767.432	35.74
767.61	35.27
767.788	34.6
767.967	31.37
768.145	32.65
768.323	33.81
768.501	34.94
768.679	33.66
768.857	32.14
769.035	32.01
769.213	31.08
769.391	30.63
769.569	30.97
769.747	30.16
769.925	32.74
770.103	32.23
770.281	31.95
770.459	33.36
770.636	33.39
770.814	34.89
770.992	36.85
771.17	37.51
771.348	39.71
771.525	40.36
771.703	42.04
771.881	40.44
772.059	39.49
772.236	38.89
772.414	35.95
772.592	35.49
772.769	35.27
772.947	33.72
773.125	33.52
773.302	31.58
773.48	31.2
773.657	31.3
773.835	31.71
774.013	31.25
774.19	31.76
774.368	33.5
774.545	33.2
774.723	32.84
774.9	33.69
775.077	34.73
775.255	35.68
775.432	36.39
775.61	35.76
775.787	36.38
775.964	37.49
776.142	38.23
776.319	37.92
776.496	39.71
776.674	40.83
776.851	40.32
777.028	38.67
777.205	39.6
777.382	40.04
777.56	39.27
777.737	40.12
777.914	36.83
778.091	36.39
778.268	36.72
778.445	37.39
778.622	35.35
778.8	36.66
778.977	39.11
779.154	36.11
779.331	33.84
779.508	33.28
779.685	32.59
779.862	35.24
780.038	34.32
780.215	33.19
780.392	29.47
780.569	29.09
780.746	27.19
780.923	27.53
781.1	29.43
781.277	30.94
781.453	32.5
781.63	33.26
781.807	34.55
781.984	36.76
782.16	35.37
782.337	34.25
782.514	35.41
782.691	36.66
782.867	33.87
783.044	33.62
783.221	32.73
783.397	32.35
783.574	29.13
783.75	32.21
783.927	30.84
784.103	35.05
784.28	38.98
784.456	41.78
784.633	40.57
784.809	42.18
784.986	41.46
785.162	42.16
785.339	42.65
785.515	44.17
785.692	39.55
785.868	37.82
786.044	35.26
786.221	34.82
786.397	32.21
786.573	33.24
786.749	29.24
786.926	30.75
787.102	31.34
787.278	30.64
787.454	30.7
787.631	31.42
787.807	33.12
787.983	33.37
788.159	33.81
788.335	34.6
788.511	33.2
788.687	35.49
788.863	34.37
789.039	31.06
789.216	32.28
789.392	30.03
789.568	32.12
789.744	32.62
789.919	32
790.095	33.39
790.271	34.23
790.447	33.32
790.623	33.52
790.799	34.37
790.975	36.43
791.151	34.36
791.327	37.11
791.502	33.88
791.678	34.44
791.854	36.6
792.03	34.23
792.205	31.85
792.381	34.63
792.557	35.06
792.733	33.95
792.908	32.16
793.084	33.88
793.259	31.39
793.435	33.55
793.611	30.5
793.786	31.01
793.962	33.78
794.137	35.16
794.313	32.12
794.488	31.05
794.664	30.83
794.839	32.69
795.015	33.38
795.19	33.98
795.366	35.02
795.541	35.24
795.716	32.89
795.892	29.29
796.067	29.48
796.242	29.05
796.418	28.78
796.593	29.17
796.768	28.99
796.944	27.61
797.119	27.4
797.294	25.5
797.469	25.01
797.644	25.46
797.82	24.85
797.995	23.32
798.17	24.71
798.345	27.48
798.52	26.88
798.695	25.9
798.87	25.14
799.045	23.79
799.22	25.02
799.395	26.95
799.57	25.48
799.745	27.79
799.92	28.97
800.095	28.79
800.27	27.47
800.445	29.59
800.62	30.86
800.795	33.74
800.97	37.31
801.145	37.9
801.319	34.58
801.494	35.77
801.669	33.86
801.844	36.56
802.018	37.06
802.193	37.81
802.368	35.3
802.543	36.39
802.717	33.78
802.892	32.61
803.067	29.3
803.241	30.22
803.416	32.72
803.59	34.35
803.765	30.49
803.94	30.73
804.114	30.23
804.289	26.96
804.463	28.91
804.638	30.43
804.812	30.88
804.986	27.67
805.161	28.34
805.335	28.97
805.51	27.77
805.684	29.86
805.858	30.72
806.033	31.25
806.207	36.91
806.381	33.37
806.556	32.36
806.73	33.82
806.904	38.37
807.078	40.78
807.253	40.99
807.427	42.48
807.601	39.58
807.775	38.88
807.949	37.23
808.123	32.81
808.298	32.69
808.472	33.53
808.646	35.37
808.82	36.39
808.994	38.57
809.168	37.45
809.342	37.12
809.516	35.47
809.69	36.13
809.864	33.63
810.038	32.41
810.212	32.92
810.385	33.53
810.559	33.97
810.733	30.67
810.907	22.32
811.081	14.81
811.255	17.74
811.428	22.24
811.602	21.93
811.776	27.11
811.95	28.68
812.123	28.62
812.297	32.23
812.471	24.91
812.644	24.69
812.818	29.8
812.992	34.5
813.165	33.4
813.339	34.37
813.512	32.9
813.686	34.1
813.86	35.57
814.033	38.42
814.207	33.52
814.38	35.01
814.554	36.18
814.727	36.69
814.9	42.53
815.074	46.57
815.247	45.42
815.421	46.63
815.594	44.57
815.767	45.25
815.941	46.38
816.114	47.8
816.287	49.96
816.46	52.3
816.634	48.95
816.807	45.84
816.98	41.1
817.153	37.91
817.327	34.01
817.5	35.66
817.673	32.88
817.846	30.7
818.019	29.74
818.192	35.17
818.365	26.03
818.538	21.16
818.711	22.86
818.884	20.5
819.057	23.6
819.23	25.63
819.403	24.64
819.576	28.94
819.749	28.44
819.922	28.06
820.095	24.18
820.268	30.22
820.441	33.01
820.614	34.12
820.786	36.79
820.959	36.04
821.132	37.43
821.305	38.15
821.477	37.2
821.65	38.23
821.823	38.71
821.996	37.99
822.168	37.26
822.341	37.79
822.514	37.31
822.686	36.61
822.859	35.77
823.031	35.57
823.204	34.59
823.376	34.42
823.549	33.98
823.722	34.17
823.894	33.82
824.067	33.93
824.239	32.42
824.411	32.31
824.584	32.46
824.756	33.66
824.929	33
825.101	32.89
825.273	33.74
825.446	32.94
825.618	31.76
825.79	32.13
825.963	31.58
826.135	33.07
826.307	33.56
826.479	33.44
826.652	31.72
826.824	31.74
826.996	33.2
827.168	32.4
827.34	32.82
827.512	34.59
827.684	34.97
827.856	36.17
828.029	35.67
828.201	35.93
828.373	36.48
828.545	37.53
828.717	38.38
828.889	37.6
829.061	37.73
829.232	37.79
829.404	36.8
829.576	36.97
829.748	35.55
829.92	37.86
830.092	36.48
830.264	32.92
830.436	33.34
830.607	31.83
830.779	30.76
830.951	30.05
831.123	29.69
831.294	30.33
831.466	28.54
831.638	27.05
831.809	26.49
831.981	25.5
832.153	29.71
832.324	28.81
832.496	31.48
832.667	32.39
832.839	30.75
833.011	30.07
833.182	27.8
833.354	28.23
833.525	33.63
833.697	31.38
833.868	32.24
834.039	33.74
834.211	34.22
834.382	34.1
834.554	34.17
834.725	35.76
834.896	36.61
835.068	36.42
835.239	36.49
835.41	35.97
835.581	37.32
835.753	36.32
835.924	35.49
836.095	35.65
836.266	35.93
836.438	34.58
836.609	35.19
836.78	37.64
836.951	35.88
837.122	37.02
837.293	36.06
837.464	36.12
837.635	37.97
837.806	37.18
837.977	36.97
838.148	33.07
838.319	36.9
838.49	36.94
838.661	33.2
838.832	38.39
839.003	40.53
839.174	37.7
839.345	40.9
839.516	37.76
839.687	37.67
839.857	38.84
840.028	45.5
840.199	44.37
840.37	47.4
840.54	49.94
840.711	52.29
840.882	45.5
841.053	46.11
841.223	42.54
841.394	41.34
841.564	44.14
841.735	45.68
841.906	42.52
842.076	38.58
842.247	34.58
842.417	38.36
842.588	33.83
842.758	42.98
842.929	41.92
843.099	38.58
843.27	38.63
843.44	32.14
843.611	39.93
843.781	34.93
843.951	31.93
844.122	24.97
844.292	27.03
844.462	31.15
844.633	25.39
844.803	40.93
844.973	49.62
845.144	56.45
845.314	60.91
845.484	52.64
845.654	57.2
845.824	54.99
845.995	56.45
846.165	34.96
846.335	37.57
846.505	37.28
846.675	30.19
846.845	19.61
847.015	20.55
847.185	22.51
847.355	33.8
847.525	26.2
847.695	36.01
847.865	36.93
848.035	45.62
848.205	48.08
848.375	51.4
848.545	52.76
848.715	63.39
848.884	72.26
849.054	64.75
849.224	50.96
849.394	69.77
849.564	56.31
849.733	61.29
849.903	57
850.073	40.4
850.243	29.3
850.412	32.15
850.582	36.55
850.752	29.89
850.921	20.72
851.091	16.45
851.26	10.45
851.43	19.04
851.599	9.25
851.769	20.01
851.939	21.47
852.108	32.12
852.278	29.77
852.447	27.99
852.616	36.56
852.786	61.13
852.955	65.83
853.125	64.42
853.294	64.94
853.463	64.53
853.633	73.2
853.802	87.4
853.971	80.24
854.141	77.92
854.31	75.61
854.479	72.01
854.648	62.15
854.818	67.52
854.987	58.57
855.156	59.05
855.325	69.19
855.494	63.14
855.663	49.98
855.832	58.01
856.001	63.64
856.171	54.3
856.34	54.64
856.509	57.45
856.678	49.19
856.847	52.02
857.016	54.54
857.185	56.44
857.353	49.64
857.522	46.53
857.691	40.19
857.86	35.83
858.029	39.83
858.198	34
858.367	35.43
858.535	39.41
858.704	47.71
858.873	38.09
859.042	21.33
859.21	35.01
859.379	45.02
859.548	37.76
859.717	36.52
859.885	29.72
860.054	25.5
860.222	30.34
860.391	33.3
860.56	33.14
860.728	35.39
860.897	48.01
861.065	47.04
861.234	43.8
861.402	48.91
861.571	58.44
861.739	71.76
861.908	87.29
862.076	80.4
862.244	112.76
862.413	81.75
862.581	77.71
862.749	76.49
862.918	79.49
863.086	73.29
863.254	74.12
863.423	67.06
863.591	60.01
863.759	64.25
863.927	67.98
864.096	28.69
864.264	41.04
864.432	50.87
864.6	46.81
864.768	44.51
864.936	47.33
865.104	43.08
865.272	38.02
865.44	43.2
865.608	44.4
865.776	29.51
865.944	48.26
866.112	50.76
866.28	51.03
866.448	47.82
866.616	29.56
866.784	35.93
866.952	60.93
867.12	80.38
867.288	68.36
867.455	69.36
867.623	91.38
867.791	79.09
867.959	99.08
868.127	90.76
868.294	72.23
868.462	67.73
868.63	58.15
868.797	31.13
868.965	27.39
869.133	25.73
869.3	16.92
869.468	24.21
869.636	24.49
869.803	15.65
869.971	35.46
870.138	47.99
870.306	55.81
870.473	59.11
870.641	73.32
870.808	64.19
870.975	70.36
871.143	70.03
871.31	55.77
871.478	66.91
871.645	65.25
871.812	50.96
871.98	33.46
872.147	48.24
872.314	38.49
872.482	25.73
872.649	30.32
872.816	17.56
872.983	21.53
873.15	13.73
873.318	17.43
873.485	35.86
873.652	31.89
873.819	40.98
873.986	40.49
874.153	45.52
874.32	42.02
874.487	45.5
874.654	72.1
874.821	66.89
874.988	78.63
875.155	63.71
875.322	47.02
875.489	60.33
875.656	69.3
875.823	67.28
875.99	57.17
876.157	58.69
876.324	49.5
876.49	27.4
876.657	29.72
876.824	3.05
876.991	12.56
877.157	32.04
877.324	16.78
877.491	16.02
877.658	12.59
877.824	17.41
877.991	16.82
878.157	27.28
878.324	39.04
878.491	36.11
878.657	59.24
878.824	58.45
878.99	53.29
879.157	59.63
879.323	66.23
879.49	58.49
879.656	52.84
879.823	47.26
879.989	33.8
880.156	18.54
880.322	22.74
880.488	28.68
880.655	29
880.821	33.2
880.987	32.84
881.154	32.87
881.32	40.06
881.486	42.43
881.652	43.7
881.819	46.62
881.985	44.54
882.151	43.99
882.317	41.83
882.483	41.64
882.649	37.14
882.816	37.12
882.982	33.8
883.148	33.61
883.314	32.91
883.48	31.17
883.646	28.36
883.812	30.11
883.978	29.56
884.144	31.65
884.31	30.57
884.476	30.44
884.642	28.49
884.807	31.79
884.973	30.22
885.139	30.58
885.305	32.36
885.471	31.9
885.637	30.81
885.802	34.42
885.968	31.16
886.134	30.56
886.3	34.13
886.465	38.11
886.631	33.93
886.797	31.43
886.962	30.71
887.128	30.24
887.293	36.94
887.459	38.08
887.625	31.8
887.79	34.91
887.956	24.49
888.121	18.06
888.287	9.71
888.452	12.62
888.618	21.5
888.783	22.2
