Data from 2938063_Reflection_2.txt Node
Date: Sun Jul 12 13:45:27 EDT 2015
User: robert
Spectrometer: USB4E03001
Autoset integration time: false
Trigger mode: 4
Integration Time (sec): 1.000000E-1
Scans to average: 10
Electric dark correction enabled: true
Nonlinearity correction enabled: false
Boxcar width: 5
Stray light correction enabled: false
XAxis mode: Wavelengths
Stop averaging: false
Number of Pixels in Spectrum: 3648
>>>>>Begin Spectral Data<<<<<
177.566	55.5
177.785	73.19
178.005	-60.71
178.225	9.23
178.445	-19.85
178.665	14.15
178.885	66.13
179.105	493.33
179.324	182.43
179.544	43.23
179.764	187.61
179.984	113.79
180.204	76.18
180.423	53.46
180.643	72.08
180.863	87.44
181.083	21.16
181.302	76.97
181.522	39.16
181.742	39.81
181.961	50.49
182.181	31.99
182.401	35.98
182.621	-72.45
182.84	-113.14
183.06	-64.94
183.279	-190.51
183.499	19.85
183.719	-30.8
183.938	-6.24
184.158	-152.73
184.377	-220.19
184.597	388.48
184.816	164.39
185.036	117.31
185.256	426.38
185.475	367.85
185.695	232.35
185.914	176.7
186.134	169.75
186.353	205.6
186.572	228.69
186.792	194.21
187.011	202.88
187.231	261.17
187.45	247.56
187.67	239.57
187.889	370.75
188.108	3782.8
188.328	503.42
188.547	560.22
188.766	369.01
188.986	193.49
189.205	246.45
189.424	445.89
189.644	170.82
189.863	326.58
190.082	222.55
190.302	141.6
190.521	143.43
190.74	168.84
190.959	152.58
191.178	144.99
191.398	362.02
191.617	241.66
191.836	360.19
192.055	-290.08
192.274	-520.55
192.494	-804.07
192.713	-594.56
192.932	-395.47
193.151	-173.17
193.37	-82.55
193.589	-351.36
193.808	672.6
194.027	-67.48
194.246	19.58
194.465	-246.49
194.685	-106.34
194.904	-4201.96
195.123	-192.26
195.342	-593.87
195.561	147.76
195.78	227.85
195.999	-260.82
196.218	-307.7
196.436	93.91
196.655	226.07
196.874	464.87
197.093	124.18
197.312	434.47
197.531	389.22
197.75	433.07
197.969	-3455.04
198.188	234.49
198.407	121.36
198.625	153.43
198.844	174.74
199.063	176.63
199.282	434.7
199.501	244.88
199.719	167.08
199.938	145.29
200.157	103.03
200.376	89.01
200.594	142.04
200.813	201.6
201.032	247.9
201.251	227.09
201.469	200.58
201.688	93.98
201.907	111.44
202.125	155.4
202.344	170.5
202.563	272.68
202.781	262.9
203	230.37
203.218	250.23
203.437	345.53
203.656	1062.56
203.874	583.54
204.093	-1138.26
204.311	-348.74
204.53	-137.65
204.748	-220.14
204.967	-159.8
205.185	-469.5
205.404	-286.24
205.622	34.16
205.841	53.95
206.059	-978.17
206.278	53.73
206.496	42.03
206.715	66.54
206.933	79.5
207.151	105.1
207.37	103.39
207.588	86.93
207.806	114.9
208.025	131.27
208.243	94.05
208.461	81.36
208.68	85.27
208.898	157.23
209.116	159.02
209.335	-390.37
209.553	-280.12
209.771	-119.09
209.989	-273.53
210.208	-221.37
210.426	-82.7
210.644	18.47
210.862	62.7
211.081	30.59
211.299	-75.92
211.517	-352.94
211.735	716.55
211.953	133.19
212.171	102.75
212.39	76.98
212.608	63.18
212.826	80.89
213.044	166.32
213.262	404.94
213.48	210.62
213.698	-372.62
213.916	-142.22
214.134	250.33
214.352	2218.99
214.57	188.43
214.788	240.41
215.006	171.71
215.224	2439.69
215.442	164.45
215.66	87.92
215.878	23.99
216.096	55.56
216.314	82.81
216.532	187.78
216.75	6275.47
216.968	-450.31
217.185	-123.22
217.403	-322.09
217.621	-278.63
217.839	-209.46
218.057	-190.06
218.275	-370.84
218.492	-46.8
218.71	-144.71
218.928	369.15
219.146	-12.51
219.363	-21.76
219.581	3.14
219.799	-114.33
220.017	-165.62
220.234	-126.3
220.452	-154.43
220.67	-73.84
220.887	3.01
221.105	36.47
221.323	32.88
221.54	2.57
221.758	-27.65
221.976	-4.04
222.193	51.46
222.411	103.12
222.629	847.63
222.846	2568.7
223.064	-607.71
223.281	355.8
223.499	174.52
223.716	193.89
223.934	334.25
224.151	-1980.89
224.369	3042.35
224.586	921.63
224.804	201.55
225.021	91.58
225.239	72.64
225.456	41.74
225.674	33.1
225.891	32.5
226.108	52.59
226.326	37.32
226.543	31.98
226.76	25.35
226.978	25.89
227.195	24.52
227.413	20.87
227.63	27.77
227.847	35.04
228.064	33.65
228.282	27.19
228.499	22.81
228.716	27.91
228.934	24.39
229.151	24.9
229.368	23.18
229.585	26.92
229.802	29.29
230.02	26.11
230.237	24.54
230.454	25.89
230.671	30.92
230.888	33.24
231.105	29.06
231.323	29.76
231.54	35.02
231.757	42.06
231.974	38.22
232.191	40.25
232.408	53.81
232.625	59.29
232.842	61.51
233.059	57.03
233.276	57.29
233.493	49.3
233.71	54.19
233.927	55.25
234.144	53.02
234.361	54.46
234.578	51.01
234.795	50.66
235.012	36.37
235.229	28.81
235.446	35.93
235.663	44.08
235.879	48.14
236.096	51.13
236.313	52.88
236.53	46.38
236.747	40.16
236.964	41.19
237.181	33.32
237.397	45.05
237.614	49.55
237.831	56.85
238.048	36.97
238.264	39.88
238.481	29.69
238.698	21.74
238.915	28.81
239.131	29.76
239.348	31.82
239.565	34.15
239.781	32.39
239.998	34.11
240.215	32.77
240.431	36.33
240.648	31.85
240.865	36.13
241.081	33.31
241.298	27.02
241.514	25.87
241.731	21.35
241.947	20.93
242.164	19.28
242.38	16.37
242.597	13.31
242.814	16.09
243.03	15.5
243.246	15.3
243.463	17.56
243.679	19.47
243.896	19.31
244.112	20.99
244.329	20.45
244.545	22.86
244.762	21.99
244.978	24.45
245.194	19.23
245.411	22.3
245.627	22.48
245.843	20.48
246.06	18.2
246.276	19.71
246.492	18.69
246.709	18.28
246.925	18.11
247.141	18.37
247.357	16.48
247.574	18.94
247.79	18.02
248.006	17.04
248.222	17.23
248.439	18.08
248.655	18.71
248.871	21.83
249.087	22.29
249.303	23.44
249.519	24.34
249.736	25.35
249.952	24.85
250.168	28.48
250.384	26.49
250.6	28.59
250.816	27.91
251.032	24.71
251.248	22.47
251.464	26.38
251.68	24.43
251.896	21.63
252.112	21.04
252.328	21.99
252.544	20.76
252.76	21.81
252.976	16.84
253.192	18.34
253.408	15.77
253.624	13.2
253.84	14.45
254.056	13.91
254.272	19.01
254.487	20.23
254.703	15.05
254.919	13.44
255.135	14.54
255.351	25.28
255.567	23.72
255.782	23.68
255.998	25.84
256.214	22.06
256.43	22.08
256.646	21.95
256.861	21.78
257.077	24.2
257.293	20.59
257.508	19.16
257.724	14.45
257.94	17.28
258.155	20.06
258.371	18.9
258.587	17.1
258.802	15.51
259.018	15.14
259.234	15.45
259.449	15.89
259.665	16.07
259.88	15.82
260.096	15.52
260.312	14.19
260.527	13.76
260.743	13.69
260.958	12.79
261.174	13.2
261.389	12.63
261.605	10.87
261.82	10.73
262.036	10.45
262.251	10.66
262.466	11.31
262.682	12.85
262.897	14.35
263.113	15.8
263.328	18.12
263.543	20.22
263.759	20.52
263.974	21.82
264.189	20.02
264.405	24.18
264.62	23.03
264.835	24.08
265.051	24.14
265.266	23.34
265.481	19.89
265.696	20.79
265.912	19.02
266.127	20.71
266.342	21.41
266.557	22.15
266.773	21.17
266.988	23.1
267.203	22.78
267.418	19.64
267.633	20.2
267.848	22.34
268.064	20.36
268.279	21.78
268.494	21.5
268.709	22.39
268.924	22.09
269.139	22.18
269.354	21.67
269.569	21.65
269.784	25.25
269.999	23.28
270.214	20.99
270.429	20.12
270.644	16.92
270.859	15.03
271.074	13.49
271.289	12.82
271.504	11.43
271.719	10.98
271.934	11.64
272.149	9.47
272.363	10.8
272.578	11.79
272.793	12.11
273.008	12.24
273.223	11.22
273.438	13.94
273.653	14.62
273.867	15.05
274.082	16.01
274.297	13.79
274.512	13.56
274.726	14.19
274.941	14.06
275.156	15.35
275.371	16.66
275.585	18.21
275.8	17.01
276.015	17.14
276.229	16.86
276.444	16.98
276.659	19.22
276.873	20.47
277.088	18.84
277.302	20.67
277.517	19.11
277.732	17.76
277.946	19.63
278.161	17.75
278.375	17.88
278.59	16.96
278.804	17.08
279.019	13.69
279.233	13.21
279.448	13.57
279.662	12.29
279.877	11.91
280.091	14.05
280.306	14.12
280.52	14.05
280.735	13.23
280.949	15.68
281.163	14.13
281.378	15.47
281.592	15.89
281.806	16.13
282.021	15.74
282.235	16.96
282.449	15.5
282.664	15.39
282.878	15.65
283.092	13.45
283.307	11.57
283.521	12.03
283.735	13.59
283.949	14.06
284.164	13.41
284.378	11.4
284.592	11.46
284.806	13.1
285.02	12.14
285.234	14.15
285.449	15.37
285.663	16.37
285.877	16.56
286.091	15.14
286.305	13.44
286.519	12.14
286.733	14.64
286.947	13.68
287.161	12.09
287.375	12.14
287.589	10.17
287.803	11.95
288.017	9.49
288.231	9.74
288.445	10.25
288.659	11.72
288.873	14.39
289.087	14.26
289.301	14.68
289.515	17.54
289.729	16.3
289.943	14.85
290.157	14.06
290.371	16
290.584	15.35
290.798	16.19
291.012	16.94
291.226	17.37
291.44	17.56
291.654	18.73
291.867	17.93
292.081	18.36
292.295	20.31
292.509	19.71
292.722	19.66
292.936	21.21
293.15	19.28
293.364	18.24
293.577	16.89
293.791	17.63
294.005	17.13
294.218	15.91
294.432	17.45
294.645	17.49
294.859	18.1
295.073	19.94
295.286	19.16
295.5	19.15
295.713	19.62
295.927	21.1
296.14	20.73
296.354	20.46
296.568	20.76
296.781	20.8
296.994	20.29
297.208	20.12
297.421	19.49
297.635	19.53
297.848	20.2
298.062	21.71
298.275	21.59
298.489	20.31
298.702	20.61
298.915	21.51
299.129	21.41
299.342	22.8
299.555	23.69
299.769	22.2
299.982	23.82
300.195	25.77
300.409	25.12
300.622	24.65
300.835	26.39
301.048	28.13
301.262	26.5
301.475	26.35
301.688	24.05
301.901	22.82
302.115	21.33
302.328	19.49
302.541	17.86
302.754	16.85
302.967	17.01
303.18	16.25
303.393	14.34
303.607	16.67
303.82	15.2
304.033	15.79
304.246	19.32
304.459	21.46
304.672	21.36
304.885	20.79
305.098	21.47
305.311	21
305.524	20.16
305.737	20.36
305.95	19.54
306.163	19.75
306.376	21.57
306.589	17.29
306.802	17.56
307.015	19.03
307.228	20.6
307.44	20.94
307.653	21.96
307.866	24.63
308.079	23.09
308.292	23
308.505	22.76
308.718	22.12
308.93	23.94
309.143	24.14
309.356	21.98
309.569	21.97
309.781	21.85
309.994	23.21
310.207	20.62
310.42	22.9
310.632	23.22
310.845	23.83
311.058	23.13
311.27	23.16
311.483	22.14
311.696	23.66
311.908	24.36
312.121	24.93
312.333	23.77
312.546	26.32
312.759	25.82
312.971	24.92
313.184	23.81
313.396	24.05
313.609	23.92
313.821	24.97
314.034	23.85
314.246	21.11
314.459	20.34
314.671	20.48
314.884	17.86
315.096	15.19
315.309	13.31
315.521	14.01
315.733	14.69
315.946	13.76
316.158	12.83
316.371	11.55
316.583	11.08
316.795	11.53
317.008	10.39
317.22	11.76
317.432	14.49
317.644	16.83
317.857	18.97
318.069	19.18
318.281	18.99
318.494	20.14
318.706	20.97
318.918	21.89
319.13	18.69
319.342	16.74
319.555	15.68
319.767	14.08
319.979	13.4
320.191	13.43
320.403	13.65
320.615	12.35
320.827	11.03
321.039	10.47
321.252	12.23
321.464	14.43
321.676	17.05
321.888	17.1
322.1	18.23
322.312	19.68
322.524	18.42
322.736	17.95
322.948	20.64
323.16	21.39
323.372	22.51
323.584	19.41
323.796	18.49
324.007	18
324.219	18.61
324.431	18.84
324.643	17.74
324.855	19.18
325.067	19.63
325.279	18.78
325.491	20.38
325.702	20.63
325.914	22.11
326.126	22.62
326.338	22.62
326.55	22.73
326.761	23.38
326.973	23.23
327.185	23.43
327.396	23.57
327.608	24.46
327.82	23.83
328.032	21.85
328.243	23.6
328.455	23.53
328.666	24.56
328.878	24.15
329.09	23.09
329.301	23.9
329.513	24
329.725	22.95
329.936	22.2
330.148	22.17
330.359	24.48
330.571	26.32
330.782	27.85
330.994	27.39
331.205	27.61
331.417	27.04
331.628	28.15
331.84	26.08
332.051	25.9
332.262	26.72
332.474	26.65
332.685	26.41
332.897	24.09
333.108	24
333.319	22.16
333.531	23.66
333.742	24.49
333.953	24.91
334.165	25.86
334.376	26.17
334.587	25.58
334.799	25.09
335.01	23.74
335.221	23.07
335.432	22.79
335.644	24.1
335.855	22.69
336.066	24.67
336.277	23.9
336.488	23.94
336.7	24.22
336.911	24.62
337.122	24.58
337.333	25.33
337.544	26.61
337.755	25.56
337.966	24.49
338.177	26.24
338.388	24.02
338.599	25.13
338.811	25.72
339.022	26.13
339.233	26.04
339.444	27.71
339.655	29.26
339.866	28.86
340.076	30.26
340.287	31.17
340.498	30.43
340.709	31.46
340.92	30.25
341.131	29.37
341.342	29.41
341.553	28.35
341.764	27.13
341.975	26.98
342.185	27.41
342.396	28.01
342.607	28.77
342.818	28.19
343.029	28.36
343.239	28.27
343.45	28.33
343.661	27
343.872	27.69
344.082	26.96
344.293	26.06
344.504	25.36
344.714	25.13
344.925	24.25
345.136	23.78
345.346	23.51
345.557	21.76
345.768	22.67
345.978	23.96
346.189	24.02
346.399	25.34
346.61	25.18
346.821	25.38
347.031	24.63
347.242	27.11
347.452	27.61
347.663	26.88
347.873	28.29
348.084	28.04
348.294	28.36
348.504	29
348.715	28.06
348.925	28.49
349.136	27.41
349.346	26.84
349.557	25.46
349.767	26.82
349.977	26.24
350.188	28.11
350.398	28.31
350.608	27.98
350.819	26.43
351.029	25.89
351.239	26.05
351.449	27.21
351.66	27.45
351.87	27.52
352.08	26.75
352.29	28.31
352.501	27.36
352.711	26.38
352.921	26.32
353.131	27.94
353.341	28.58
353.552	27.95
353.762	28.49
353.972	28.67
354.182	29.75
354.392	30.03
354.602	28.55
354.812	29.48
355.022	29.48
355.232	29.67
355.442	28.65
355.652	28.61
355.862	29
356.072	27.93
356.282	28.34
356.492	28.66
356.702	27.94
356.912	28.65
357.122	27.6
357.332	28.71
357.542	28.95
357.752	29.24
357.962	28.63
358.171	28.76
358.381	28.2
358.591	27.2
358.801	26.03
359.011	25.91
359.221	24.87
359.43	24.78
359.64	23.85
359.85	24.07
360.06	24.33
360.269	24.5
360.479	24.58
360.689	25.28
360.899	25.51
361.108	25.27
361.318	25.94
361.528	26.98
361.737	26.66
361.947	26.56
362.156	25.98
362.366	25.93
362.576	26.18
362.785	25.67
362.995	25.69
363.204	25.6
363.414	25.56
363.623	25.17
363.833	24.66
364.042	25.65
364.252	25.41
364.461	25.59
364.671	26.29
364.88	26.23
365.09	27.09
365.299	26.41
365.509	26.59
365.718	26.14
365.927	24.82
366.137	24.92
366.346	24.3
366.555	24.38
366.765	24.82
366.974	24.14
367.183	24.05
367.393	23.28
367.602	23.74
367.811	23.87
368.021	24.52
368.23	25.61
368.439	26.04
368.648	25.34
368.857	25.91
369.067	25.14
369.276	24.41
369.485	25.3
369.694	25.3
369.903	24.87
370.112	25.01
370.321	24.52
370.531	24.39
370.74	24.21
370.949	24.79
371.158	24.63
371.367	24.41
371.576	25.2
371.785	24.76
371.994	24.61
372.203	25.09
372.412	25.5
372.621	25.74
372.83	25.91
373.039	25.32
373.248	24.44
373.457	24.27
373.666	24.4
373.874	23.96
374.083	23.65
374.292	23.48
374.501	23.43
374.71	22.66
374.919	22.37
375.128	22.3
375.336	22.1
375.545	22.81
375.754	22.47
375.963	22.39
376.171	21.66
376.38	21.77
376.589	21.5
376.798	21.21
377.006	21.6
377.215	21.72
377.424	21.41
377.632	22.09
377.841	21.56
378.05	21.33
378.258	21.7
378.467	22.23
378.675	22.07
378.884	22.1
379.093	22.32
379.301	21.61
379.51	21.97
379.718	21.78
379.927	21.75
380.135	21.4
380.344	21.78
380.552	21.55
380.761	21.54
380.969	21.88
381.177	22.46
381.386	22.53
381.594	22.8
381.803	22.27
382.011	22.87
382.219	22.64
382.428	22.97
382.636	22.57
382.845	21.85
383.053	21.89
383.261	21.35
383.469	20.76
383.678	20.57
383.886	20.16
384.094	20.03
384.302	19.69
384.511	19.8
384.719	19.94
384.927	20.41
385.135	20.75
385.343	20.48
385.552	20.43
385.76	20.99
385.968	21.21
386.176	21.44
386.384	21.46
386.592	21.29
386.8	20.81
387.008	20.34
387.216	20.12
387.424	20.02
387.633	19.92
387.841	20.1
388.049	19.72
388.257	19.97
388.465	19.79
388.672	19.53
388.88	19.62
389.088	19.81
389.296	20.12
389.504	19.79
389.712	19.9
389.92	19.89
390.128	19.74
390.336	19.96
390.544	19.64
390.751	19.74
390.959	19.74
391.167	19.41
391.375	19.03
391.583	19.15
391.79	19.1
391.998	18.97
392.206	19.19
392.414	18.89
392.621	18.96
392.829	18.69
393.037	18.62
393.244	18.61
393.452	18.75
393.66	19.26
393.867	19.25
394.075	19.41
394.283	19.59
394.49	19.45
394.698	19.79
394.905	19.53
395.113	19.51
395.32	19.84
395.528	20.09
395.735	20.34
395.943	20.06
396.15	19.94
396.358	19.74
396.565	19.02
396.773	19.01
396.98	19.02
397.188	18.86
397.395	18.92
397.602	18.88
397.81	18.9
398.017	18.53
398.225	18.44
398.432	18.61
398.639	19.05
398.847	19.73
399.054	19.95
399.261	19.97
399.468	20.12
399.676	20.06
399.883	19.85
400.09	19.55
400.297	20.1
400.505	20.29
400.712	20.04
400.919	19.98
401.126	20.06
401.333	20.02
401.54	20.09
401.748	20.11
401.955	20.07
402.162	20.19
402.369	20.68
402.576	20.49
402.783	20.49
402.99	20.77
403.197	20.77
403.404	20.82
403.611	20.82
403.818	21.06
404.025	21.19
404.232	21.2
404.439	20.96
404.646	20.55
404.853	20.67
405.06	20.78
405.267	20.78
405.474	20.57
405.681	20.47
405.887	20.36
406.094	19.99
406.301	19.95
406.508	20.08
406.715	19.96
406.922	20.33
407.128	20.25
407.335	20.22
407.542	20.17
407.749	20.26
407.955	20.28
408.162	20.46
408.369	20.92
408.575	20.73
408.782	20.75
408.989	21.29
409.195	21.17
409.402	20.87
409.609	20.84
409.815	20.95
410.022	21.13
410.228	20.99
410.435	20.83
410.642	20.2
410.848	20.7
411.055	20.44
411.261	20.11
411.468	20.16
411.674	20.44
411.881	20.54
412.087	20.33
412.294	19.91
412.5	19.88
412.706	20.24
412.913	20.45
413.119	19.9
413.326	20.09
413.532	20.2
413.738	20.23
413.945	19.99
414.151	19.72
414.357	19.71
414.564	19.93
414.77	19.96
414.976	19.67
415.182	19.81
415.389	19.86
415.595	19.66
415.801	19.57
416.007	19.54
416.214	19.57
416.42	19.77
416.626	19.63
416.832	19.8
417.038	19.74
417.244	19.76
417.45	19.71
417.657	19.85
417.863	19.9
418.069	19.97
418.275	19.86
418.481	19.86
418.687	19.72
418.893	19.83
419.099	19.62
419.305	19.71
419.511	19.56
419.717	19.44
419.923	19.34
420.129	19.39
420.335	19.33
420.541	19.3
420.746	19.2
420.952	19.16
421.158	19.14
421.364	19.2
421.57	19.05
421.776	19.02
421.982	19.03
422.187	18.97
422.393	19
422.599	18.83
422.805	18.74
423.01	18.88
423.216	18.86
423.422	18.92
423.628	18.85
423.833	18.88
424.039	18.88
424.245	18.83
424.45	18.91
424.656	18.82
424.862	18.94
425.067	18.92
425.273	18.74
425.478	18.8
425.684	18.68
425.889	18.7
426.095	18.8
426.301	18.7
426.506	18.72
426.712	18.69
426.917	18.74
427.123	18.74
427.328	18.71
427.533	18.9
427.739	18.63
427.944	18.73
428.15	18.45
428.355	18.31
428.561	18.45
428.766	18.58
428.971	18.6
429.177	18.49
429.382	18.31
429.587	18.54
429.793	18.45
429.998	18.76
430.203	18.55
430.408	18.63
430.614	18.78
430.819	18.81
431.024	18.69
431.229	18.84
431.434	18.88
431.64	18.97
431.845	18.67
432.05	18.58
432.255	18.33
432.46	18.4
432.665	18.52
432.87	18.39
433.076	18.38
433.281	18.44
433.486	18.37
433.691	18.4
433.896	18.47
434.101	18.53
434.306	18.53
434.511	18.66
434.716	18.65
434.921	18.72
435.126	18.62
435.331	18.46
435.535	18.28
435.74	18.1
435.945	17.89
436.15	17.88
436.355	18.01
436.56	18.07
436.765	18.05
436.97	18.13
437.174	18.17
437.379	18.27
437.584	18.67
437.789	18.76
437.993	18.79
438.198	19.02
438.403	18.95
438.608	19.07
438.812	18.79
439.017	18.98
439.222	18.84
439.426	18.81
439.631	18.83
439.836	18.52
440.04	18.55
440.245	18.47
440.45	18.34
440.654	18.38
440.859	18.11
441.063	18.23
441.268	18.12
441.472	18.13
441.677	18.03
441.881	17.99
442.086	18.19
442.29	18.29
442.495	18.24
442.699	18.33
442.904	18.27
443.108	18.41
443.312	18.36
443.517	18.32
443.721	18.37
443.925	18.17
444.13	18.17
444.334	18.05
444.538	17.97
444.743	17.99
444.947	18.03
445.151	18.18
445.356	18.28
445.56	18.43
445.764	18.45
445.968	18.31
446.173	18.56
446.377	18.44
446.581	18.48
446.785	18.43
446.989	18.41
447.193	18.27
447.398	18.09
447.602	17.99
447.806	17.86
448.01	17.89
448.214	17.98
448.418	17.84
448.622	18.04
448.826	17.98
449.03	17.91
449.234	17.88
449.438	17.89
449.642	17.96
449.846	17.9
450.05	17.88
450.254	17.81
450.458	17.87
450.662	18.02
450.866	17.76
451.069	17.77
451.273	17.85
451.477	18.13
451.681	18.3
451.885	18.32
452.089	18.53
452.292	18.84
452.496	18.67
452.7	18.53
452.904	18.39
453.107	18.57
453.311	18.39
453.515	18.35
453.719	18.11
453.922	18.06
454.126	18.05
454.33	17.97
454.533	17.72
454.737	17.7
454.94	17.71
455.144	17.79
455.348	17.54
455.551	17.73
455.755	17.74
455.958	17.96
456.162	18.06
456.365	18.02
456.569	17.8
456.772	18.06
456.976	18.31
457.179	18.23
457.383	18.19
457.586	18.22
457.79	18.19
457.993	18.02
458.196	17.76
458.4	17.64
458.603	17.84
458.807	17.99
459.01	17.71
459.213	17.73
459.417	17.72
459.62	17.77
459.823	17.92
460.026	17.79
460.23	17.89
460.433	17.93
460.636	17.86
460.839	17.72
461.042	17.57
461.246	17.77
461.449	17.81
461.652	17.75
461.855	17.76
462.058	17.61
462.261	17.89
462.464	18.08
462.668	18.27
462.871	18.44
463.074	18.3
463.277	18.22
463.48	17.99
463.683	17.75
463.886	18.05
464.089	17.8
464.292	17.95
464.495	17.73
464.698	17.63
464.901	17.33
465.104	17.15
465.306	17.33
465.509	17.7
465.712	17.85
465.915	17.93
466.118	17.92
466.321	17.94
466.524	18.07
466.726	18.23
466.929	18.21
467.132	18.44
467.335	18.51
467.538	18.77
467.74	18.56
467.943	18.47
468.146	18.36
468.348	18.29
468.551	18.38
468.754	18.15
468.956	18.18
469.159	18.24
469.362	18.27
469.564	18.3
469.767	17.98
469.969	18.16
470.172	18.19
470.375	18.22
470.577	18.35
470.78	18.52
470.982	18.65
471.185	18.55
471.387	18.52
471.59	18.44
471.792	18.37
471.995	18.35
472.197	18.03
472.399	18.09
472.602	17.96
472.804	17.75
473.007	17.66
473.209	17.65
473.411	17.7
473.614	17.45
473.816	17.44
474.018	17.45
474.22	17.53
474.423	17.81
474.625	17.64
474.827	17.79
475.03	17.89
475.232	17.92
475.434	17.89
475.636	17.75
475.838	17.87
476.04	17.88
476.243	17.86
476.445	17.82
476.647	17.64
476.849	17.74
477.051	17.63
477.253	17.62
477.455	17.47
477.657	17.45
477.859	17.5
478.061	17.33
478.263	17.48
478.465	17.61
478.667	17.8
478.869	17.87
479.071	17.79
479.273	17.83
479.475	17.96
479.677	18.02
479.879	18
480.081	17.93
480.283	18.09
480.485	17.93
480.686	17.88
480.888	17.73
481.09	17.79
481.292	17.74
481.494	17.85
481.695	17.86
481.897	17.88
482.099	17.93
482.301	17.97
482.502	18
482.704	17.96
482.906	17.86
483.107	17.89
483.309	17.92
483.511	17.98
483.712	17.94
483.914	17.88
484.115	17.86
484.317	17.85
484.519	17.82
484.72	17.8
484.922	17.75
485.123	17.84
485.325	17.8
485.526	17.74
485.728	17.67
485.929	17.68
486.131	17.65
486.332	17.68
486.534	17.63
486.735	17.63
486.936	17.63
487.138	17.68
487.339	17.52
487.541	17.53
487.742	17.51
487.943	17.55
488.144	17.54
488.346	17.52
488.547	17.49
488.748	17.52
488.95	17.57
489.151	17.57
489.352	17.61
489.553	17.8
489.755	17.81
489.956	17.8
490.157	17.84
490.358	17.82
490.559	17.91
490.76	17.86
490.961	17.82
491.163	17.77
491.364	17.74
491.565	17.79
491.766	17.67
491.967	17.65
492.168	17.75
492.369	17.67
492.57	17.61
492.771	17.6
492.972	17.64
493.173	17.66
493.374	17.65
493.575	17.62
493.776	17.55
493.976	17.59
494.177	17.65
494.378	17.57
494.579	17.66
494.78	17.65
494.981	17.71
495.182	17.69
495.382	17.69
495.583	17.68
495.784	17.67
495.985	17.61
496.185	17.65
496.386	17.74
496.587	17.72
496.788	17.74
496.988	17.99
497.189	18.02
497.39	18.01
497.59	17.97
497.791	17.98
497.992	17.98
498.192	18.04
498.393	18.09
498.593	18.04
498.794	18.06
498.994	18
499.195	17.92
499.395	17.74
499.596	17.85
499.796	17.79
499.997	17.84
500.197	17.91
500.398	18.07
500.598	17.87
500.799	17.77
500.999	17.63
501.199	17.66
501.4	17.77
501.6	17.74
501.801	17.74
502.001	17.98
502.201	18.14
502.402	18.15
502.602	18.06
502.802	18.28
503.002	18.4
503.203	18.43
503.403	18.55
503.603	18.36
503.803	18.54
504.003	18.35
504.204	18.08
504.404	17.97
504.604	17.95
504.804	17.96
505.004	17.9
505.204	17.96
505.404	18.06
505.604	17.94
505.804	17.99
506.005	18.04
506.205	17.99
506.405	18.15
506.605	18.3
506.805	18.34
507.005	18.33
507.204	18.32
507.404	18.31
507.604	18.3
507.804	18.31
508.004	18.35
508.204	18.25
508.404	18.45
508.604	18.46
508.804	18.35
509.003	18.61
509.203	18.55
509.403	18.52
509.603	18.47
509.803	18.6
510.002	18.57
510.202	18.72
510.402	18.82
510.602	18.66
510.801	18.69
511.001	18.71
511.201	18.6
511.4	18.67
511.6	18.76
511.8	18.77
511.999	18.8
512.199	19.01
512.398	18.98
512.598	18.93
512.797	19.04
512.997	18.97
513.197	19.07
513.396	18.99
513.596	19
513.795	19.03
513.994	19.18
514.194	19.02
514.393	18.9
514.593	18.81
514.792	18.7
514.992	18.88
515.191	18.98
515.39	18.86
515.59	18.79
515.789	18.83
515.988	18.86
516.188	18.72
516.387	18.75
516.586	18.66
516.786	18.68
516.985	18.88
517.184	18.68
517.383	18.74
517.582	18.84
517.782	18.93
517.981	18.98
518.18	19
518.379	18.98
518.578	19.08
518.777	19.25
518.976	19.35
519.176	19.34
519.375	19.48
519.574	19.45
519.773	19.38
519.972	19.46
520.171	19.44
520.37	19.42
520.569	19.48
520.768	19.56
520.967	19.52
521.166	19.34
521.365	19.38
521.564	19.26
521.762	19.32
521.961	19.42
522.16	19.3
522.359	19.48
522.558	19.48
522.757	19.55
522.956	19.48
523.154	19.62
523.353	19.8
523.552	19.79
523.751	20.01
523.949	20.02
524.148	19.99
524.347	20.06
524.546	19.89
524.744	19.94
524.943	19.96
525.142	19.98
525.34	19.82
525.539	19.83
525.737	19.8
525.936	19.73
526.135	19.72
526.333	19.82
526.532	19.79
526.73	19.81
526.929	19.88
527.127	19.9
527.326	19.91
527.524	20.04
527.723	20.08
527.921	20.09
528.12	20.08
528.318	20.14
528.516	20.05
528.715	20.11
528.913	20.13
529.112	20.12
529.31	20.13
529.508	20.1
529.707	20
529.905	19.93
530.103	19.95
530.301	20.02
530.5	19.97
530.698	20.01
530.896	20
531.094	20.02
531.293	20
531.491	20.01
531.689	20.03
531.887	20.12
532.085	20.24
532.283	20.26
532.481	20.2
532.68	20.24
532.878	20.27
533.076	20.21
533.274	20.24
533.472	20.28
533.67	20.33
533.868	20.36
534.066	20.46
534.264	20.43
534.462	20.33
534.66	20.41
534.858	20.38
535.056	20.42
535.253	20.46
535.451	20.45
535.649	20.45
535.847	20.34
536.045	20.46
536.243	20.33
536.441	20.41
536.638	20.55
536.836	20.61
537.034	20.8
537.232	20.77
537.43	20.83
537.627	20.8
537.825	20.83
538.023	20.92
538.22	20.91
538.418	21.08
538.616	21.05
538.813	21.1
539.011	21.14
539.209	20.96
539.406	21
539.604	20.93
539.801	21.01
539.999	21.12
540.196	21.09
540.394	21.05
540.591	20.96
540.789	20.93
540.986	20.93
541.184	20.91
541.381	20.99
541.579	21.03
541.776	21.09
541.974	21.12
542.171	21.06
542.368	21.13
542.566	21.2
542.763	21.3
542.96	21.44
543.158	21.53
543.355	21.57
543.552	21.49
543.75	21.48
543.947	21.48
544.144	21.57
544.341	21.73
544.539	21.67
544.736	21.81
544.933	21.82
545.13	21.74
545.327	21.74
545.524	21.81
545.722	22
545.919	22.14
546.116	22.2
546.313	22.15
546.51	22.12
546.707	22.05
546.904	22.03
547.101	22.03
547.298	22.15
547.495	22.13
547.692	22.03
547.889	22.1
548.086	22.04
548.283	22.11
548.48	22.16
548.677	22.11
548.874	22.27
549.07	22.06
549.267	22.05
549.464	21.91
549.661	21.88
549.858	21.9
550.055	21.88
550.251	21.8
550.448	21.95
550.645	22.01
550.842	22.05
551.038	22.04
551.235	22.06
551.432	22.16
551.628	22.44
551.825	22.63
552.022	22.77
552.218	22.69
552.415	22.83
552.612	22.72
552.808	22.8
553.005	22.9
553.201	23.18
553.398	23.23
553.594	23.23
553.791	23.21
553.987	23.12
554.184	23.18
554.38	23.28
554.577	23.39
554.773	23.51
554.97	23.6
555.166	23.77
555.362	23.83
555.559	24.04
555.755	24.28
555.952	24.23
556.148	24.23
556.344	24.42
556.541	24.69
556.737	24.77
556.933	24.69
557.129	24.51
557.326	24.59
557.522	24.38
557.718	24.6
557.914	24.57
558.11	24.74
558.307	24.91
558.503	24.64
558.699	24.38
558.895	24.31
559.091	24.46
559.287	24.55
559.483	24.5
559.679	24.63
559.876	24.39
560.072	24.14
560.268	24.17
560.464	24.21
560.66	24.2
560.856	24.26
561.052	24.27
561.247	24.45
561.443	24.4
561.639	24.3
561.835	24.21
562.031	24.36
562.227	24.59
562.423	24.52
562.619	24.58
562.815	24.78
563.01	24.81
563.206	25.08
563.402	25.07
563.598	25.2
563.793	25.24
563.989	25.57
564.185	25.57
564.381	25.58
564.576	25.52
564.772	25.59
564.968	25.71
565.163	25.94
565.359	25.94
565.555	25.98
565.75	25.98
565.946	25.93
566.141	26.08
566.337	26.12
566.532	26.19
566.728	26.22
566.923	26.11
567.119	26.16
567.314	26.01
567.51	25.9
567.705	25.91
567.901	26.12
568.096	26.28
568.292	25.92
568.487	26.04
568.682	25.97
568.878	26.01
569.073	26.12
569.268	25.84
569.464	25.89
569.659	25.88
569.854	25.58
570.05	25.21
570.245	25.4
570.44	25.41
570.635	25.3
570.831	25.26
571.026	25.26
571.221	25.43
571.416	25.44
571.611	25.42
571.806	25.53
572.002	25.63
572.197	25.79
572.392	25.68
572.587	25.84
572.782	25.68
572.977	25.81
573.172	25.98
573.367	25.94
573.562	26.09
573.757	26.06
573.952	25.92
574.147	26.08
574.342	26.25
574.537	26.35
574.732	26.24
574.927	26.47
575.121	26.56
575.316	26.6
575.511	26.51
575.706	26.65
575.901	26.85
576.096	27.06
576.29	26.87
576.485	26.87
576.68	26.55
576.875	26.57
577.069	26.72
577.264	26.59
577.459	26.55
577.654	26.51
577.848	26.56
578.043	26.39
578.238	26.67
578.432	26.85
578.627	26.85
578.821	27.21
579.016	27.39
579.21	27.33
579.405	27.46
579.6	27.69
579.794	28.06
579.989	27.95
580.183	28.37
580.378	27.87
580.572	28.16
580.766	28.09
580.961	28.07
581.155	28.11
581.35	28.05
581.544	27.91
581.738	27.55
581.933	27.52
582.127	27.72
582.321	27.61
582.516	27.85
582.71	27.59
582.904	27.6
583.099	27.52
583.293	27.63
583.487	27.75
583.681	27.86
583.875	27.53
584.07	27.49
584.264	27.32
584.458	27.19
584.652	27.22
584.846	27.41
585.04	27.5
585.234	27.52
585.428	27.33
585.623	27.19
585.817	27.08
586.011	27.63
586.205	27.52
586.399	27.5
586.593	27.5
586.787	27.44
586.981	27.3
587.174	27.34
587.368	27.32
587.562	27.17
587.756	27.23
587.95	27.69
588.144	27.66
588.338	27.7
588.532	27.61
588.725	27.59
588.919	27.61
589.113	27.63
589.307	27.66
589.501	27.67
589.694	28.02
589.888	28
590.082	27.67
590.275	27.59
590.469	27.74
590.663	27.77
590.856	27.61
591.05	27.63
591.244	27.66
591.437	27.62
591.631	27.85
591.824	27.69
592.018	27.83
592.212	27.87
592.405	28.14
592.599	28.06
592.792	28.29
592.986	28.39
593.179	28.55
593.372	28.52
593.566	28.72
593.759	28.34
593.953	28.38
594.146	28.42
594.339	28.53
594.533	28.41
594.726	28.24
594.92	28.13
595.113	28.25
595.306	28.12
595.499	28.26
595.693	28.22
595.886	28.45
596.079	28.45
596.272	28.27
596.466	28.45
596.659	28.55
596.852	28.75
597.045	28.74
597.238	28.82
597.431	28.97
597.624	29.13
597.818	29.12
598.011	29.18
598.204	29.23
598.397	29.42
598.59	29.37
598.783	29.36
598.976	29.38
599.169	29.55
599.362	29.47
599.555	29.4
599.748	29.24
599.941	29.08
600.134	28.81
600.326	28.76
600.519	28.63
600.712	28.59
600.905	28.48
601.098	28.48
601.291	28.43
601.483	28.46
601.676	28.52
601.869	28.41
602.062	28.58
602.255	28.9
602.447	29.06
602.64	29.12
602.833	28.85
603.025	28.78
603.218	28.47
603.411	28.51
603.603	28.57
603.796	28.44
603.989	28.57
604.181	28.32
604.374	28.32
604.566	28.23
604.759	28.25
604.951	28.48
605.144	28.52
605.336	28.55
605.529	28.39
605.721	28.47
605.914	28.65
606.106	28.65
606.299	28.83
606.491	28.77
606.683	28.73
606.876	28.71
607.068	28.57
607.26	28.6
607.453	28.89
607.645	28.93
607.837	28.86
608.03	28.6
608.222	28.46
608.414	28.64
608.606	28.61
608.799	28.65
608.991	28.57
609.183	28.6
609.375	28.72
609.567	28.68
609.759	28.92
609.952	28.78
610.144	28.94
610.336	29.08
610.528	28.97
610.72	29.01
610.912	28.89
611.104	28.86
611.296	28.69
611.488	28.63
611.68	28.4
611.872	27.97
612.064	27.91
612.256	27.8
612.448	27.68
612.64	27.7
612.832	27.6
613.023	27.94
613.215	28.18
613.407	28.3
613.599	28.35
613.791	28.61
613.983	29.17
614.174	29.28
614.366	29.49
614.558	29.58
614.75	29.63
614.941	29.55
615.133	29.24
615.325	29.32
615.516	29.62
615.708	29.8
615.9	30.05
616.091	29.98
616.283	30.36
616.475	30.32
616.666	30.33
616.858	30.14
617.049	30.35
617.241	30.62
617.432	30.43
617.624	30.12
617.815	29.71
618.007	29.51
618.198	29.19
618.39	29.09
618.581	28.91
618.773	28.85
618.964	28.82
619.155	28.59
619.347	28.38
619.538	28.56
619.729	28.92
619.921	29.16
620.112	29.18
620.303	29.22
620.494	29.19
620.686	29.29
620.877	29.37
621.068	29.56
621.259	29.86
621.451	29.73
621.642	29.45
621.833	29.36
622.024	29.23
622.215	29.22
622.406	29.25
622.597	29.12
622.788	29.16
622.98	28.96
623.171	29.07
623.362	28.99
623.553	29.4
623.744	29.6
623.935	29.52
624.126	29.58
624.317	29.52
624.508	29.33
624.698	29.2
624.889	28.98
625.08	29.1
625.271	28.93
625.462	29.04
625.653	28.52
625.844	28.75
626.034	28.56
626.225	28.8
626.416	28.65
626.607	28.66
626.798	28.72
626.988	28.73
627.179	28.56
627.37	28.48
627.56	28.31
627.751	28.55
627.942	28.33
628.132	28.31
628.323	28.13
628.514	28.19
628.704	28.68
628.895	28.83
629.085	28.96
629.276	29.12
629.466	29.12
629.657	29.52
629.847	29.66
630.038	29.69
630.228	29.84
630.419	30.05
630.609	30.28
630.8	29.94
630.99	29.7
631.181	29.72
631.371	29.67
631.561	29.65
631.752	29.27
631.942	29.32
632.132	29.48
632.323	29.42
632.513	29.26
632.703	29.12
632.893	29.42
633.084	29.65
633.274	29.58
633.464	29.56
633.654	29.72
633.844	29.61
634.034	29.59
634.225	29.42
634.415	29.29
634.605	29.13
634.795	29.11
634.985	28.84
635.175	28.74
635.365	28.88
635.555	29.12
635.745	29.01
635.935	29.25
636.125	29.06
636.315	29.03
636.505	29.32
636.695	29.6
636.885	29.53
637.075	29.7
637.265	29.91
637.455	29.74
637.644	29.57
637.834	29.78
638.024	29.43
638.214	29.54
638.404	29.08
638.593	28.84
638.783	29.02
638.973	28.79
639.163	28.97
639.352	28.42
639.542	28.78
639.732	28.62
639.921	28.38
640.111	28.65
640.301	28.92
640.49	29.14
640.68	29.28
640.87	28.87
641.059	29.26
641.249	28.85
641.438	29.31
641.628	29.26
641.817	29.21
642.007	29.36
642.196	29.63
642.386	29.72
642.575	30.05
642.764	30.12
642.954	29.99
643.143	30.06
643.333	30.03
643.522	29.74
643.711	29.28
643.901	29.42
644.09	29.4
644.279	29.39
644.469	29.08
644.658	28.9
644.847	28.66
645.036	28.73
645.226	28.58
645.415	28.57
645.604	28.89
645.793	29
645.982	28.95
646.171	29.13
646.361	29.17
646.55	29.24
646.739	29.52
646.928	29.97
647.117	29.97
647.306	29.87
647.495	29.59
647.684	29.21
647.873	29.23
648.062	29.31
648.251	29.3
648.44	29.23
648.629	29.31
648.818	28.89
649.007	28.86
649.196	29.17
649.384	29.47
649.573	30
649.762	30.21
649.951	30.64
650.14	30.31
650.328	30.12
650.517	29.93
650.706	29.61
650.895	30.14
651.083	30.21
651.272	30.08
651.461	30.06
651.65	30.22
651.838	30.17
652.027	29.67
652.216	30.39
652.404	30.3
652.593	30.3
652.781	30.4
652.97	30.09
653.158	29.97
653.347	30.17
653.535	30.03
653.724	29.59
653.912	29.65
654.101	29.82
654.289	29.45
654.478	29.46
654.666	29.41
654.855	29.66
655.043	29.45
655.231	29.66
655.42	29.39
655.608	29.4
655.796	29.72
655.985	29.68
656.173	29.61
656.361	29.7
656.55	29.95
656.738	30.09
656.926	29.71
657.114	29.74
657.302	29.36
657.491	29.43
657.679	29.29
657.867	29.13
658.055	28.98
658.243	29.64
658.431	29.83
658.619	29.61
658.807	29.39
658.996	29.53
659.184	29.63
659.372	29.51
659.56	29.48
659.748	29.54
659.936	29.53
660.124	29.78
660.311	29.25
660.499	29.18
660.687	29.46
660.875	29.87
661.063	29.58
661.251	29.35
661.439	29.68
661.627	29.86
661.814	29.82
662.002	29.73
662.19	30.06
662.378	29.86
662.565	29.68
662.753	29.08
662.941	28.86
663.129	29.28
663.316	29.94
663.504	29.69
663.692	29.79
663.879	30.09
664.067	30.1
664.254	29.35
664.442	29.76
664.63	29.78
664.817	30.1
665.005	30.3
665.192	30.43
665.38	29.91
665.567	29.9
665.755	29.4
665.942	28.68
666.13	29.21
666.317	29.58
666.504	29.33
666.692	29.64
666.879	29.9
667.067	29.14
667.254	28.73
667.441	29.53
667.629	29.73
667.816	30.28
668.003	30.79
668.19	30.78
668.378	30.25
668.565	30.68
668.752	30.2
668.939	30.14
669.127	30.37
669.314	30.8
669.501	30.48
669.688	30.57
669.875	30.28
670.062	30.28
670.249	29.94
670.436	30.58
670.623	30.3
670.81	30.52
670.997	30.72
671.184	30.62
671.371	30.55
671.558	30.19
671.745	30.24
671.932	30.21
672.119	30.55
672.306	30.46
672.493	29.67
672.68	29.99
672.867	30.35
673.054	29.65
673.24	29.96
673.427	30.03
673.614	30.04
673.801	29.71
673.988	29.61
674.174	29.68
674.361	29.93
674.548	30.57
674.734	30.14
674.921	29.9
675.108	30.35
675.294	30.52
675.481	30.38
675.668	30.41
675.854	30.23
676.041	30.22
676.227	29.82
676.414	29.68
676.601	29.59
676.787	29.44
676.974	29.56
677.16	29.73
677.347	29.22
677.533	29.41
677.719	29.92
677.906	30.78
678.092	30.65
678.279	30.68
678.465	30.73
678.651	30.65
678.838	30.99
679.024	30.37
679.21	30.31
679.397	30.77
679.583	30.31
679.769	29.69
679.955	28.86
680.142	28.93
680.328	29.26
680.514	29.04
680.7	28.97
680.886	28.65
681.073	28.55
681.259	28.07
681.445	27.97
681.631	28.16
681.817	28.72
682.003	29.13
682.189	29.42
682.375	29.06
682.561	29.32
682.747	29.74
682.933	29.88
683.119	30.46
683.305	30.91
683.491	30.68
683.677	30.88
683.863	30.74
684.049	30.59
684.235	30.51
684.42	30.8
684.606	30.66
684.792	30.63
684.978	30.38
685.164	30.19
685.349	30.27
685.535	30.71
685.721	30.73
685.907	31.06
686.092	31.47
686.278	31.12
686.464	30.98
686.649	30.75
686.835	30.4
687.021	30.66
687.206	30.55
687.392	30.29
687.577	30.41
687.763	30.06
687.948	29.14
688.134	28.78
688.319	29.12
688.505	29.1
688.69	29.06
688.876	29.52
689.061	29.72
689.247	29.88
689.432	29.99
689.618	29.1
689.803	29.59
689.988	29.75
690.174	30.17
690.359	29.87
690.544	29.51
690.73	29.8
690.915	29.89
691.1	29.56
691.285	29.83
691.471	29.93
691.656	30.76
691.841	30.3
692.026	30.33
692.211	30.18
692.396	30.54
692.582	30.96
692.767	31.55
692.952	30.84
693.137	31.2
693.322	31.18
693.507	31.27
693.692	31.31
693.877	31.46
694.062	32.01
694.247	32.02
694.432	31.36
694.617	31.53
694.802	31.03
694.987	31.62
695.172	31.19
695.357	31.3
695.541	31.12
695.726	31.01
695.911	31.16
696.096	31.17
696.281	31.31
696.466	31.5
696.65	31.25
696.835	31.21
697.02	31.51
697.204	31.92
697.389	31.32
697.574	31.26
697.759	30.9
697.943	30.34
698.128	30.55
698.312	30.37
698.497	30.29
698.682	29.95
698.866	29.83
699.051	29.63
699.235	29.47
699.42	29.43
699.604	29.45
699.789	29.83
699.973	30.31
700.158	29.84
700.342	29.83
700.527	29.87
700.711	30.61
700.895	30.22
701.08	30.22
701.264	30.26
701.448	30.8
701.633	30.66
701.817	30.19
702.001	29.72
702.186	29.6
702.37	29.93
702.554	30.12
702.738	29.67
702.923	30.7
703.107	29.84
703.291	29.77
703.475	29.49
703.659	29.8
703.843	29.98
704.027	30.69
704.212	30.92
704.396	29.9
704.58	30.61
704.764	30.15
704.948	29.33
705.132	29.95
705.316	29.61
705.5	29.4
705.684	29.54
705.868	30.13
706.052	29.49
706.235	28.96
706.419	29.61
706.603	29.03
706.787	29.15
706.971	30.02
707.155	29.92
707.339	30.86
707.522	30.72
707.706	30.82
707.89	30.26
708.074	31.01
708.257	31.49
708.441	31.18
708.625	31.44
708.808	32.08
708.992	31.77
709.176	31.78
709.359	30.95
709.543	31.02
709.727	30.88
709.91	30.79
710.094	30.2
710.277	29.62
710.461	29.5
710.644	29.48
710.828	28.85
711.011	29.25
711.195	28.91
711.378	28.81
711.562	28.58
711.745	27.97
711.928	27.99
712.112	27.91
712.295	28.61
712.478	29.34
712.662	29.37
712.845	29.48
713.028	29.63
713.212	29.86
713.395	30.69
713.578	30.97
713.761	31.85
713.945	31.83
714.128	31.89
714.311	31.78
714.494	31.32
714.677	31.19
714.86	31.28
715.043	31.43
715.227	31.76
715.41	31.69
715.593	32.26
715.776	31.6
715.959	32.2
716.142	32.11
716.325	31.6
716.508	31.67
716.691	31.27
716.874	31.11
717.057	30.43
717.239	29.49
717.422	29.64
717.605	29.27
717.788	29.15
717.971	28.38
718.154	29.39
718.337	29.19
718.519	28.2
718.702	28.54
718.885	28.68
719.068	28.78
719.25	29.94
719.433	29.71
719.616	29.11
719.798	29.37
719.981	29.77
720.164	29.78
720.346	30.81
720.529	31.27
720.712	31.31
720.894	31.79
721.077	31.25
721.259	30.98
721.442	30.86
721.624	31.49
721.807	31.59
721.989	30.54
722.172	29.53
722.354	29.53
722.537	31.06
722.719	30.28
722.901	29.91
723.084	30.11
723.266	29.9
723.448	29.06
723.631	28.81
723.813	29.46
723.995	30.17
724.178	30.43
724.36	29.7
724.542	28.33
724.724	29.9
724.907	29.74
725.089	29.67
725.271	29.61
725.453	30.21
725.635	29.97
725.817	29.4
725.999	29.01
726.181	29.81
726.364	30.73
726.546	30.97
726.728	30.4
726.91	30.31
727.092	30.54
727.274	30.36
727.456	30.48
727.638	31.28
727.819	31.5
728.001	32.01
728.183	31.34
728.365	30.84
728.547	31.19
728.729	31.34
728.911	32.35
729.093	32.33
729.274	32.94
729.456	32.07
729.638	31.58
729.82	31.1
730.001	30.7
730.183	30.88
730.365	31.59
730.546	32.11
730.728	32.35
730.91	32.02
731.091	31.03
731.273	31.3
731.455	32.43
731.636	32.48
731.818	32.75
731.999	32.66
732.181	31.91
732.362	31.92
732.544	31.45
732.725	30.59
732.907	30.3
733.088	30.94
733.27	30.16
733.451	29.49
733.633	30.67
733.814	30.41
733.995	30.81
734.177	31.29
734.358	31.82
734.539	30.9
734.721	31.09
734.902	31.69
735.083	31.77
735.264	31.42
735.446	31.88
735.627	30.17
735.808	29.53
735.989	28.69
736.17	28.13
736.351	27.17
736.533	28.74
736.714	27.62
736.895	26.09
737.076	27.25
737.257	28.52
737.438	28.25
737.619	28.59
737.8	29.18
737.981	29.27
738.162	29.36
738.343	29.29
738.524	27.71
738.705	28.9
738.886	29.86
739.067	28.2
739.247	26.87
739.428	27.43
739.609	27.58
739.79	28.36
739.971	28.41
740.151	27.83
740.332	27.63
740.513	28.24
740.694	29.19
740.874	29.25
741.055	30.73
741.236	31.8
741.417	31.62
741.597	30.41
741.778	31.08
741.958	32.63
742.139	34.35
742.32	33.52
742.5	33.98
742.681	33.02
742.861	31.8
743.042	32.03
743.222	31.93
743.403	32.02
743.583	33.03
743.764	33.17
743.944	32.38
744.124	32.88
744.305	33.79
744.485	34.93
744.666	33.23
744.846	34.23
745.026	34.51
745.207	35.03
745.387	33.82
745.567	34.19
745.747	33.54
745.928	33.95
746.108	33.21
746.288	32.46
746.468	30.83
746.648	32.49
746.829	32.32
747.009	31.55
747.189	30.22
747.369	31.28
747.549	30.51
747.729	30.31
747.909	29.12
748.089	29.13
748.269	30.05
748.449	29.3
748.629	29.62
748.809	29.91
748.989	30.25
749.169	31.22
749.349	31.12
749.529	32.45
749.709	32.48
749.889	34.75
750.068	34.05
750.248	34.7
750.428	35.51
750.608	35.66
750.788	35.75
750.967	35.49
751.147	34.94
751.327	35.63
751.507	34.69
751.686	35.05
751.866	34.46
752.046	35.38
752.225	34.73
752.405	33.72
752.585	32.92
752.764	32.25
752.944	30.91
753.123	32.21
753.303	31.17
753.482	32.04
753.662	31.14
753.841	30.67
754.021	30.35
754.2	30.06
754.38	30.52
754.559	31.26
754.739	31.68
754.918	32.82
755.097	31.76
755.277	31.06
755.456	30.29
755.635	30.27
755.815	29.47
755.994	28.92
756.173	29.2
756.352	30.03
756.532	29.83
756.711	30.32
756.89	29.49
757.069	29.01
757.248	29.73
757.427	30.36
757.607	29.91
757.786	30.79
757.965	31.19
758.144	30.58
758.323	30.74
758.502	30.66
758.681	30.71
758.86	31.26
759.039	31.04
759.218	31.4
759.397	31.38
759.576	31.84
759.755	32.3
759.934	31.87
760.113	32.33
760.291	32.37
760.47	32.24
760.649	32.4
760.828	32.27
761.007	31.66
761.186	31.58
761.364	30.57
761.543	31.1
761.722	30.18
761.901	30.91
762.079	31.1
762.258	31.17
762.437	32.28
762.615	31
762.794	30.41
762.972	31.61
763.151	30.78
763.33	31.44
763.508	31.33
763.687	31.15
763.865	30.83
764.044	30.2
764.222	30.2
764.401	30.4
764.579	30.89
764.758	31.05
764.936	30.31
765.114	30.33
765.293	30.17
765.471	29.23
765.65	29.26
765.828	29.95
766.006	30.53
766.184	30.78
766.363	28.83
766.541	28.65
766.719	29.41
766.898	28.85
767.076	29.74
767.254	29.18
767.432	29.94
767.61	30.85
767.788	28.63
767.967	29.35
768.145	29
768.323	29.23
768.501	30.93
768.679	31.26
768.857	30.89
769.035	32.65
769.213	32.29
769.391	33.04
769.569	31.14
769.747	33.42
769.925	31.75
770.103	31.76
770.281	34.22
770.459	33.88
770.636	33.54
770.814	35.46
770.992	31.62
771.17	34.04
771.348	33.25
771.525	34.05
771.703	33.36
771.881	33.81
772.059	32.53
772.236	32.1
772.414	30.48
772.592	29.75
772.769	31.78
772.947	33.95
773.125	33.63
773.302	34.55
773.48	36.52
773.657	37.34
773.835	38.21
774.013	39.06
774.19	37.79
774.368	37.68
774.545	38.65
774.723	37.82
774.9	37.92
775.077	37.16
775.255	36.48
775.432	33.11
775.61	33.89
775.787	33.23
775.964	34.42
776.142	32.34
776.319	31.51
776.496	31.85
776.674	30.65
776.851	29.33
777.028	29.38
777.205	29.8
777.382	31.24
777.56	28.47
777.737	30.08
777.914	29.43
778.091	30.96
778.268	31.84
778.445	30.46
778.622	30.01
778.8	31.83
778.977	32.03
779.154	30.78
779.331	32.05
779.508	33.9
779.685	33.7
779.862	35.21
780.038	34.7
780.215	35.03
780.392	35.3
780.569	36.05
780.746	35.27
780.923	35.35
781.1	36.79
781.277	36.71
781.453	38.24
781.63	37.05
781.807	35.22
781.984	37.35
782.16	39.14
782.337	38.53
782.514	38.94
782.691	38.07
782.867	38.51
783.044	37.71
783.221	36.39
783.397	34.55
783.574	38.87
783.75	38.94
783.927	39.14
784.103	38.77
784.28	38.39
784.456	36.14
784.633	34.72
784.809	33.87
784.986	34.41
785.162	34.48
785.339	32.56
785.515	30.55
785.692	27.19
785.868	23.71
786.044	22.73
786.221	23.04
786.397	27.1
786.573	27.39
786.749	25.36
786.926	25.17
787.102	25.83
787.278	26.87
787.454	23.9
787.631	27.67
787.807	31.07
787.983	32.29
788.159	36.53
788.335	35.57
788.511	36.51
788.687	35.84
788.863	36.83
789.039	36.23
789.216	36.92
789.392	38.6
789.568	37.95
789.744	35.82
789.919	35.74
790.095	32.16
790.271	30.7
790.447	30.64
790.623	33.68
790.799	35.38
790.975	39.38
791.151	37.03
791.327	35.58
791.502	35.75
791.678	36.62
791.854	35.48
792.03	37.25
792.205	39.48
792.381	40.92
792.557	39
792.733	35.91
792.908	34.69
793.084	37.79
793.259	38.18
793.435	39.1
793.611	39.49
793.786	37.61
793.962	34.95
794.137	33.37
794.313	31.46
794.488	31.63
794.664	34.4
794.839	31.77
795.015	30.62
795.19	32.73
795.366	30.41
795.541	29.33
795.716	29.51
795.892	28.63
796.067	30.24
796.242	29.63
796.418	30.03
796.593	26.04
796.768	27.44
796.944	29.3
797.119	26.88
797.294	29.13
797.469	31.3
797.644	31.83
797.82	34.82
797.995	31.62
798.17	31.69
798.345	31.97
798.52	31.66
798.695	29.75
798.87	25.57
799.045	30.43
799.22	27.37
799.395	25.62
799.57	23.74
799.745	22.82
799.92	26.71
800.095	26.8
800.27	27.9
800.445	29.86
800.62	29.18
800.795	31.9
800.97	28.84
801.145	30.19
801.319	31.05
801.494	33.38
801.669	32.58
801.844	31.67
802.018	31.78
802.193	31.13
802.368	33.69
802.543	36.91
802.717	32.47
802.892	32.43
803.067	34.08
803.241	33.53
803.416	32.5
803.59	38.33
803.765	40.19
803.94	41.08
804.114	40.92
804.289	40.24
804.463	39.92
804.638	46.18
804.812	46.53
804.986	46.02
805.161	43.16
805.335	45.21
805.51	43.24
805.684	44.04
805.858	45.35
806.033	45.65
806.207	45.41
806.381	44.56
806.556	44.25
806.73	44.57
806.904	45.19
807.078	50.55
807.253	46.56
807.427	44.34
807.601	39.83
807.775	40.99
807.949	40.96
808.123	42.08
808.298	43.52
808.472	39.32
808.646	37.17
808.82	36.65
808.994	35.36
809.168	38.26
809.342	36.56
809.516	35.23
809.69	30.96
809.864	34.57
810.038	32.35
810.212	28.13
810.385	31.56
810.559	33.63
810.733	34.24
810.907	35.96
811.081	33.9
811.255	33.98
811.428	38.48
811.602	37.92
811.776	37.17
811.95	36.98
812.123	46.4
812.297	45.8
812.471	44.97
812.644	40.76
812.818	43.19
812.992	48.22
813.165	48.17
813.339	40.56
813.512	45.43
813.686	43.34
813.86	43.83
814.033	37.48
814.207	34.49
814.38	35.29
814.554	36.74
814.727	32.39
814.9	29.65
815.074	30.15
815.247	35.22
815.421	30.29
815.594	32.87
815.767	30.87
815.941	30.3
816.114	33.25
816.287	29.68
816.46	31.43
816.634	33.44
816.807	33.46
816.98	34.41
817.153	35.14
817.327	37.31
817.5	33.19
817.673	33.57
817.846	32.63
818.019	33.73
818.192	38.37
818.365	38.7
818.538	37.1
818.711	36.54
818.884	39.5
819.057	40.67
819.23	38.58
819.403	39.9
819.576	42.68
819.749	45.52
819.922	37.48
820.095	35.58
820.268	30.93
820.441	30.99
820.614	33.11
820.786	32.25
820.959	32.27
821.132	32.11
821.305	31.33
821.477	31.39
821.65	32.37
821.823	35.32
821.996	35.58
822.168	35.53
822.341	35.65
822.514	34.54
822.686	34.34
822.859	34.34
823.031	34.96
823.204	35.17
823.376	35.14
823.549	34.7
823.722	33.81
823.894	32.39
824.067	32.34
824.239	31.84
824.411	32.51
824.584	31.66
824.756	31.62
824.929	30.5
825.101	30.23
825.273	30.88
825.446	30.47
825.618	29.94
825.79	31.19
825.963	31.96
826.135	32.23
826.307	32.83
826.479	33.83
826.652	32.06
826.824	32.18
826.996	33.41
827.168	32.64
827.34	31.2
827.512	31.64
827.684	31.4
827.856	30.85
828.029	31.43
828.201	31.03
828.373	30.59
828.545	32.48
828.717	33.62
828.889	32.01
829.061	32.1
829.232	33.76
829.404	33.41
829.576	34.53
829.748	35.6
829.92	32.59
830.092	31.42
830.264	32.05
830.436	29.43
830.607	28.82
830.779	28.46
830.951	30.01
831.123	29.04
831.294	32.84
831.466	34
831.638	33.76
831.809	37.2
831.981	38.46
832.153	38.65
832.324	37.33
832.496	42.2
832.667	43.3
832.839	40.35
833.011	42.38
833.182	41.46
833.354	39.37
833.525	38.42
833.697	38.13
833.868	37.88
834.039	37.85
834.211	40.33
834.382	37.07
834.554	35.89
834.725	34.46
834.896	32.93
835.068	34.85
835.239	38.1
835.41	38.05
835.581	35.67
835.753	35.01
835.924	31.61
836.095	32.32
836.266	32.23
836.438	34.76
836.609	36.95
836.78	39.77
836.951	39.58
837.122	36.6
837.293	36.19
837.464	45.54
837.635	45.79
837.806	47.26
837.977	47.89
838.148	46.06
838.319	45.91
838.49	45.75
838.661	39.34
838.832	32.51
839.003	29.63
839.174	30.23
839.345	15.97
839.516	12.52
839.687	17.26
839.857	16
840.028	21.68
840.199	26.41
840.37	27.89
840.54	34.61
840.711	38.01
840.882	37.47
841.053	35.99
841.223	36.41
841.394	40.11
841.564	45.4
841.735	42.18
841.906	40.11
842.076	34.7
842.247	35.64
842.417	35.78
842.588	28.17
842.758	35.87
842.929	38.2
843.099	46.5
843.27	46.38
843.44	37.87
843.611	38
843.781	43.44
843.951	42.09
844.122	45.34
844.292	40.61
844.462	50.3
844.633	38.58
844.803	36.73
844.973	24.66
845.144	28.13
845.314	31.68
845.484	31.43
845.654	32.86
845.824	25.06
845.995	14.01
846.165	10.43
846.335	3.71
846.505	20.87
846.675	35.02
846.845	35.01
847.015	31.84
847.185	41.66
847.355	48.24
847.525	42.3
847.695	65.19
847.865	68.51
848.035	82.39
848.205	76.77
848.375	75.03
848.545	60.78
848.715	71.97
848.884	63.21
849.054	64.42
849.224	68.57
849.394	73.16
849.564	68.61
849.733	80.77
849.903	84.03
850.073	57.06
850.243	48.08
850.412	59.44
850.582	58.39
850.752	54.7
850.921	56.09
851.091	62.72
851.26	48.6
851.43	53.73
851.599	41.86
851.769	25.36
851.939	31.52
852.108	33.72
852.278	21.51
852.447	33.31
852.616	31.18
852.786	32.83
852.955	26.14
853.125	56.77
853.294	44.05
853.463	48.45
853.633	76.98
853.802	62.39
853.971	63.96
854.141	84.98
854.31	77.85
854.479	73.87
854.648	81.21
854.818	72.28
854.987	54.78
855.156	59.89
855.325	75.39
855.494	81.1
855.663	83.2
855.832	95.36
856.001	70.6
856.171	73.52
856.34	76.73
856.509	71.84
856.678	79.92
856.847	89.6
857.016	88.98
857.185	67.27
857.353	82.39
857.522	95.89
857.691	81.55
857.86	116.51
858.029	84.03
858.198	105.62
858.367	96.55
858.535	93.58
858.704	89.44
858.873	113.61
859.042	136.69
859.21	117.28
859.379	81.03
859.548	72.17
859.717	66.08
859.885	70.04
860.054	68.62
860.222	67.56
860.391	58.68
860.56	51.89
860.728	46.93
860.897	56.52
861.065	49.99
861.234	56.07
861.402	54.82
861.571	56.1
861.739	64.67
861.908	61.8
862.076	61.65
862.244	53.85
862.413	67.64
862.581	61.24
862.749	48.37
862.918	59.98
863.086	54.93
863.254	64.49
863.423	66.91
863.591	39.85
863.759	36.13
863.927	35.28
864.096	54.82
864.264	56.7
864.432	77.31
864.6	88.06
864.768	63.46
864.936	78.61
865.104	86.12
865.272	113.44
865.44	130.01
865.608	96.06
865.776	91.1
865.944	84.85
866.112	67.46
866.28	59.4
866.448	24.64
866.616	37.93
866.784	42.15
866.952	42.89
867.12	21.15
867.288	8.08
867.455	33.44
867.623	35.25
867.791	47.04
867.959	60.81
868.127	65.22
868.294	84.04
868.462	87.31
868.63	72.75
868.797	67
868.965	62.17
869.133	76.05
869.3	70.95
869.468	73.78
869.636	57.97
869.803	48.6
869.971	45.01
870.138	36.82
870.306	31.94
870.473	33.77
870.641	28.69
870.808	35.23
870.975	42.28
871.143	28.91
871.31	36.07
871.478	48.77
871.645	48.03
871.812	55.14
871.98	51.63
872.147	54.29
872.314	68.68
872.482	76
872.649	89.4
872.816	67.63
872.983	76.75
873.15	79.62
873.318	76.42
873.485	88.59
873.652	65.7
873.819	75.42
873.986	67.07
874.153	53.6
874.32	45.87
874.487	38.6
874.654	49.08
874.821	41.86
874.988	31.5
875.155	36.01
875.322	36.09
875.489	47.1
875.656	51.29
875.823	56.05
875.99	46.14
876.157	49.64
876.324	50.88
876.49	49.07
876.657	46.62
876.824	44.8
876.991	45.7
877.157	42.64
877.324	39.71
877.491	41.12
877.658	36.14
877.824	44.69
877.991	58.89
878.157	60.77
878.324	62.8
878.491	74.4
878.657	74.11
878.824	79.51
878.99	103.17
879.157	108.74
879.323	115.09
879.49	131.87
879.656	133.85
879.823	102.72
879.989	107.8
880.156	151.8
880.322	125.53
880.488	137.12
880.655	99.33
880.821	58.77
880.987	59
881.154	55.96
881.32	48.52
881.486	48.83
881.652	39.58
881.819	38.81
881.985	32.19
882.151	38.38
882.317	31.84
882.483	31.18
882.649	32.1
882.816	32
882.982	30.04
883.148	27.42
883.314	30.56
883.48	30.15
883.646	28.65
883.812	30.61
883.978	29.24
884.144	33.79
884.31	32.63
884.476	31.08
884.642	30.08
884.807	33.25
884.973	36.18
885.139	37.04
885.305	38.28
885.471	40.37
885.637	43.31
885.802	46.75
885.968	44.83
886.134	49.21
886.3	52.87
886.465	57.24
886.631	57.88
886.797	56.51
886.962	59.09
887.128	62.67
887.293	59.01
887.459	56.79
887.625	56.1
887.79	65.75
887.956	59.35
888.121	61.39
888.287	58.24
888.452	61.13
888.618	66.52
888.783	58.88
