Data from 2938032_Reflection_2.txt Node
Date: Sun Jul 12 14:58:34 EDT 2015
User: robert
Spectrometer: USB4E03001
Autoset integration time: false
Trigger mode: 4
Integration Time (sec): 1.000000E-1
Scans to average: 10
Electric dark correction enabled: true
Nonlinearity correction enabled: false
Boxcar width: 5
Stray light correction enabled: false
XAxis mode: Wavelengths
Stop averaging: false
Number of Pixels in Spectrum: 3648
>>>>>Begin Spectral Data<<<<<
177.566	259.72
177.785	-42.59
178.005	-833.57
178.225	597.93
178.445	254.68
178.665	298.75
178.885	-53.65
179.105	26.01
179.324	38.58
179.544	115.58
179.764	-5.29
179.984	240.33
180.204	-7.83
180.423	4.78
180.643	-149.63
180.863	-12245.71
181.083	-158.63
181.302	-32.3
181.522	21.97
181.742	0.96
181.961	-508.99
182.181	-85.91
182.401	1.46
182.621	-51.38
182.84	-56.99
183.06	-23.55
183.279	-18.59
183.499	-76.09
183.719	-71.75
183.938	-101.94
184.158	-62.65
184.377	-32.76
184.597	-46.93
184.816	-117.49
185.036	-117.72
185.256	-71.01
185.475	-61.96
185.695	-89.85
185.914	-60.73
186.134	-75.55
186.353	-54.75
186.572	-32.79
186.792	-34.07
187.011	-13.68
187.231	5.38
187.45	3.7
187.67	-40.27
187.889	-217.98
188.108	-111.13
188.328	-80.62
188.547	-18.19
188.766	-111.72
188.986	-194.59
189.205	-180.73
189.424	-958.45
189.644	-509.35
189.863	-2355.76
190.082	-510.33
190.302	-47.74
190.521	-207.45
190.74	-380.88
190.959	-306.96
191.178	-175.46
191.398	375.61
191.617	-1314.4
191.836	-1389.3
192.055	326.23
192.274	-130.3
192.494	-66.22
192.713	-149.1
192.932	-50.44
193.151	-22.05
193.37	-75.97
193.589	-86.57
193.808	-39.55
194.027	-42.43
194.246	-31.02
194.465	-13.22
194.685	48.99
194.904	22.97
195.123	26.56
195.342	32.75
195.561	36.55
195.78	11.61
195.999	24.9
196.218	-32.83
196.436	-114.71
196.655	-4.5
196.874	-20.05
197.093	-78.18
197.312	-163.65
197.531	-137.42
197.75	-66.11
197.969	-46.51
198.188	-44.66
198.407	-29.94
198.625	-6.85
198.844	48.29
199.063	22.79
199.282	-12.6
199.501	-38.14
199.719	-35.26
199.938	-44.62
200.157	-55.59
200.376	-84.69
200.594	-49.37
200.813	-39.53
201.032	-34.44
201.251	-75.13
201.469	-81.01
201.688	-111.32
201.907	-90.69
202.125	-80.71
202.344	-28.31
202.563	-83.73
202.781	-120.85
203	-88.49
203.218	-196.99
203.437	9937.21
203.656	-99.53
203.874	-133.62
204.093	-72.13
204.311	-58.18
204.53	-60.16
204.748	-74.78
204.967	-2.35
205.185	-15.53
205.404	-20.51
205.622	20.79
205.841	32.74
206.059	-58.7
206.278	-15.18
206.496	-20.11
206.715	-13.12
206.933	10.38
207.151	-4.57
207.37	-12.46
207.588	-1.53
207.806	-3.79
208.025	-5.74
208.243	8.74
208.461	4.71
208.68	13.05
208.898	17.11
209.116	19.05
209.335	1.08
209.553	-11.91
209.771	-8.89
209.989	2.13
210.208	-18.34
210.426	-26.68
210.644	-76.73
210.862	-21.29
211.081	-45.36
211.299	-155.08
211.517	-180.78
211.735	-202.78
211.953	-208.37
212.171	-139.19
212.39	-212.82
212.608	-112.87
212.826	-103.47
213.044	-114.03
213.262	-164.02
213.48	-229.16
213.698	-56.51
213.916	-55.58
214.134	-12.94
214.352	4.16
214.57	0.21
214.788	10.4
215.006	-8.34
215.224	-0.52
215.442	20.21
215.66	15.98
215.878	10.87
216.096	-2.81
216.314	5.25
216.532	12.76
216.75	-0.75
216.968	-8.37
217.185	3.93
217.403	8.16
217.621	8.01
217.839	14.84
218.057	27.17
218.275	31.18
218.492	33.29
218.71	54.37
218.928	49.37
219.146	68.55
219.363	114.31
219.581	96.34
219.799	60.89
220.017	74.05
220.234	58.89
220.452	53.42
220.67	65.28
220.887	55.14
221.105	44.03
221.323	47.95
221.54	38.14
221.758	26.53
221.976	45.95
222.193	56.79
222.411	62.32
222.629	64.02
222.846	58.94
223.064	45.15
223.281	41.02
223.499	39.22
223.716	31.18
223.934	44.87
224.151	57.83
224.369	38.39
224.586	38.67
224.804	22.3
225.021	22.01
225.239	35.66
225.456	21.27
225.674	20.86
225.891	-0.17
226.108	5.01
226.326	-12.18
226.543	-19.95
226.76	-14.35
226.978	-21.21
227.195	-7.42
227.413	-12.47
227.63	-8.08
227.847	-0.32
228.064	3.7
228.282	7.28
228.499	6.08
228.716	9.79
228.934	9.43
229.151	7.09
229.368	11.13
229.585	9.1
229.802	10.6
230.02	10.61
230.237	10.84
230.454	11.52
230.671	9.64
230.888	9.94
231.105	8.65
231.323	7.1
231.54	9.53
231.757	4.8
231.974	4.62
232.191	4.68
232.408	0.28
232.625	-0.79
232.842	-2.31
233.059	4.89
233.276	3.99
233.493	-0.12
233.71	2.06
233.927	1.16
234.144	4.11
234.361	4.79
234.578	4.19
234.795	2.8
235.012	-3.21
235.229	-4.1
235.446	-6.76
235.663	-4.03
235.879	2.23
236.096	3.7
236.313	4.53
236.53	2.57
236.747	-0.92
236.964	-5.27
237.181	3.56
237.397	9.53
237.614	7.64
237.831	10.14
238.048	9.78
238.264	7.84
238.481	7.63
238.698	7.05
238.915	6.04
239.131	10.17
239.348	7.07
239.565	5.06
239.781	5.24
239.998	5.6
240.215	4.04
240.431	1.12
240.648	0.73
240.865	-3.33
241.081	0.74
241.298	4.59
241.514	4.17
241.731	6.48
241.947	5.2
242.164	6.18
242.38	7.06
242.597	6.85
242.814	9.06
243.03	10.57
243.246	12.24
243.463	11.76
243.679	11.4
243.896	11.38
244.112	12.17
244.329	14.53
244.545	13.76
244.762	13.87
244.978	13.99
245.194	11.73
245.411	10.91
245.627	11.29
245.843	10.13
246.06	9.2
246.276	9.62
246.492	8.8
246.709	7.21
246.925	7.21
247.141	8.08
247.357	8.67
247.574	8.58
247.79	8.72
248.006	10.15
248.222	10.87
248.439	10.79
248.655	10.41
248.871	10.29
249.087	10.87
249.303	11.9
249.519	9.89
249.736	9.87
249.952	10.14
250.168	10.09
250.384	7.16
250.6	6.76
250.816	6.32
251.032	7.03
251.248	8.67
251.464	9.36
251.68	6.62
251.896	7.3
252.112	6.61
252.328	6.75
252.544	6.12
252.76	4.4
252.976	3.37
253.192	3.45
253.408	2.68
253.624	2.42
253.84	-0.72
254.056	0.12
254.272	1.9
254.487	3.54
254.703	3.9
254.919	1.7
255.135	5.2
255.351	5.45
255.567	5.78
255.782	5.3
255.998	3.61
256.214	3.36
256.43	5.06
256.646	1.85
256.861	-0.94
257.077	-2.8
257.293	-1.67
257.508	-1.34
257.724	-1.08
257.94	-0.29
258.155	2.34
258.371	4.18
258.587	5.63
258.802	5.06
259.018	6.54
259.234	7.12
259.449	7.52
259.665	7.85
259.88	7.74
260.096	7.73
260.312	7.98
260.527	7.77
260.743	7.74
260.958	6.6
261.174	6.17
261.389	5.94
261.605	6.15
261.82	5.56
262.036	5.31
262.251	4.84
262.466	4.17
262.682	4.82
262.897	3.69
263.113	2.68
263.328	4.58
263.543	7.41
263.759	7.49
263.974	8.07
264.189	8.89
264.405	9.83
264.62	10.2
264.835	11.33
265.051	10.47
265.266	11.88
265.481	13.04
265.696	13.92
265.912	12.17
266.127	10.43
266.342	9.51
266.557	10.06
266.773	6.26
266.988	6.32
267.203	5.09
267.418	4.9
267.633	3.79
267.848	2.77
268.064	2.77
268.279	1.63
268.494	2.38
268.709	1.67
268.924	2.1
269.139	4.43
269.354	4.99
269.569	5.6
269.784	4.44
269.999	4.22
270.214	5.37
270.429	6.52
270.644	6.85
270.859	7.94
271.074	8.93
271.289	7.98
271.504	8.53
271.719	8.07
271.934	9.32
272.149	9.89
272.363	9.99
272.578	9.87
272.793	9.28
273.008	9.46
273.223	8.59
273.438	7.57
273.653	7.33
273.867	5.47
274.082	5.71
274.297	4.81
274.512	5.61
274.726	5.57
274.941	4.51
275.156	4.44
275.371	4.42
275.585	4.05
275.8	3.88
276.015	4.16
276.229	6.71
276.444	7.38
276.659	5.93
276.873	5.42
277.088	5.54
277.302	5.65
277.517	5.37
277.732	6.21
277.946	6.55
278.161	6.96
278.375	8.11
278.59	7.67
278.804	5.93
279.019	6.33
279.233	5.71
279.448	5.18
279.662	3.76
279.877	4.06
280.091	2.59
280.306	3.8
280.52	2.88
280.735	2.17
280.949	1.54
281.163	2.37
281.378	4.15
281.592	4.56
281.806	5.07
282.021	6.37
282.235	5.53
282.449	7.17
282.664	6.25
282.878	7.6
283.092	7.18
283.307	7.5
283.521	6.71
283.735	6.1
283.949	5.01
284.164	4.37
284.378	4.74
284.592	5.9
284.806	5.46
285.02	7.19
285.234	6.37
285.449	6.14
285.663	6.87
285.877	6.66
286.091	7.34
286.305	8.82
286.519	9.18
286.733	8.61
286.947	7.76
287.161	7.77
287.375	6.32
287.589	6.92
287.803	7.64
288.017	6.88
288.231	6.27
288.445	5.6
288.659	5.04
288.873	4.93
289.087	5.34
289.301	5.09
289.515	5.29
289.729	6.17
289.943	7.62
290.157	7.74
290.371	7.81
290.584	8.55
290.798	9.12
291.012	9.45
291.226	10.08
291.44	10.38
291.654	10.46
291.867	9.47
292.081	8.66
292.295	7.44
292.509	7.5
292.722	7.88
292.936	9.01
293.15	7.72
293.364	5.88
293.577	5.8
293.791	5.3
294.005	6.29
294.218	7.07
294.432	7.55
294.645	7.72
294.859	7.43
295.073	7.8
295.286	7.86
295.5	7.03
295.713	7.52
295.927	7.82
296.14	8.51
296.354	7.79
296.568	6.96
296.781	7.6
296.994	7.77
297.208	7.74
297.421	7.6
297.635	7.9
297.848	8.49
298.062	8.57
298.275	7.68
298.489	7.71
298.702	9.01
298.915	9.73
299.129	8.5
299.342	8.06
299.555	8.83
299.769	7.61
299.982	5.98
300.195	6.08
300.409	5.6
300.622	5.99
300.835	6.35
301.048	5.81
301.262	6.2
301.475	6.23
301.688	6.22
301.901	5.94
302.115	6.6
302.328	6.65
302.541	6.67
302.754	7.01
302.967	8.42
303.18	6.58
303.393	5.65
303.607	4.18
303.82	5.11
304.033	4.3
304.246	3.95
304.459	4.73
304.672	4.94
304.885	5.18
305.098	6.66
305.311	4.97
305.524	5.35
305.737	5.85
305.95	7.37
306.163	6.89
306.376	7.09
306.589	7.44
306.802	6.39
307.015	5.4
307.228	6.12
307.44	3.75
307.653	4.07
307.866	4.48
308.079	4.57
308.292	4.06
308.505	5.26
308.718	7.07
308.93	6.73
309.143	7.5
309.356	8.61
309.569	8.05
309.781	7.5
309.994	8.32
310.207	9.04
310.42	9.32
310.632	9.75
310.845	9.67
311.058	9.38
311.27	9.48
311.483	9.61
311.696	10.78
311.908	9.93
312.121	10.75
312.333	9.74
312.546	9.2
312.759	9.02
312.971	8.33
313.184	8
313.396	7.48
313.609	7.7
313.821	7.29
314.034	5.69
314.246	6.95
314.459	8.44
314.671	8.83
314.884	8.56
315.096	9.62
315.309	10.42
315.521	9.91
315.733	9.91
315.946	8.65
316.158	7.83
316.371	7.97
316.583	7.32
316.795	7.67
317.008	7.79
317.22	8.12
317.432	6.52
317.644	7.03
317.857	6.93
318.069	5.77
318.281	6.39
318.494	6.74
318.706	8.92
318.918	9.1
319.13	7.9
319.342	7.07
319.555	6.13
319.767	6
319.979	4.49
320.191	5.73
320.403	8.58
320.615	8.67
320.827	10.18
321.039	7.61
321.252	8.17
321.464	8.32
321.676	10.08
321.888	10.69
322.1	12.57
322.312	12.83
322.524	11.57
322.736	7.96
322.948	8.04
323.16	7.15
323.372	8.7
323.584	7.36
323.796	7.54
324.007	6.55
324.219	7.23
324.431	5.21
324.643	5.01
324.855	5.09
325.067	6.69
325.279	7.7
325.491	8.57
325.702	7.03
325.914	8.05
326.126	8.18
326.338	9.49
326.55	8.79
326.761	9.97
326.973	10.63
327.185	11.59
327.396	12.24
327.608	10.91
327.82	10.68
328.032	10.74
328.243	10.62
328.455	9.74
328.666	8.25
328.878	8.47
329.09	8.24
329.301	6.77
329.513	6.91
329.725	7.49
329.936	7.81
330.148	7.64
330.359	8.66
330.571	8.69
330.782	9.34
330.994	10.91
331.205	11.7
331.417	11.89
331.628	13.47
331.84	13.23
332.051	12.03
332.262	12.61
332.474	13.39
332.685	12.19
332.897	12.13
333.108	12.93
333.319	12.71
333.531	11.93
333.742	12.09
333.953	12.32
334.165	12
334.376	11.47
334.587	10.75
334.799	10.4
335.01	9.93
335.221	11.12
335.432	10.46
335.644	9.59
335.855	10.04
336.066	10.81
336.277	10.13
336.488	11.11
336.7	12.22
336.911	12.67
337.122	12.52
337.333	14.55
337.544	13.33
337.755	13.19
337.966	13.66
338.177	13.22
338.388	12.89
338.599	12.96
338.811	12.84
339.022	12.97
339.233	13.15
339.444	12.72
339.655	11.81
339.866	12.27
340.076	13
340.287	13.84
340.498	14.67
340.709	15.07
340.92	15.57
341.131	14.95
341.342	15
341.553	15.63
341.764	16.04
341.975	15.31
342.185	15.2
342.396	15.16
342.607	14.53
342.818	14.7
343.029	14.27
343.239	13.56
343.45	13.08
343.661	12.69
343.872	11.16
344.082	11.29
344.293	12.32
344.504	12.61
344.714	11.17
344.925	11.5
345.136	9.76
345.346	9.44
345.557	9.23
345.768	8.34
345.978	8
346.189	9.34
346.399	8.53
346.61	8.81
346.821	8
347.031	8.66
347.242	6.49
347.452	8.56
347.663	8.13
347.873	9.44
348.084	10.16
348.294	11.06
348.504	10.35
348.715	10.89
348.925	10.64
349.136	10.81
349.346	10.45
349.557	12.1
349.767	11.21
349.977	11.3
350.188	10.72
350.398	11.42
350.608	10.93
350.819	10.56
351.029	10.86
351.239	10.81
351.449	10.87
351.66	11.88
351.87	11.86
352.08	11.73
352.29	11.21
352.501	10.89
352.711	9.84
352.921	9.47
353.131	9.05
353.341	8.97
353.552	9.24
353.762	10.33
353.972	10.4
354.182	11.06
354.392	12.15
354.602	12.79
354.812	12.15
355.022	13.17
355.232	13.09
355.442	13.72
355.652	13.79
355.862	12.48
356.072	12.18
356.282	12.15
356.492	12.02
356.702	10.81
356.912	11.04
357.122	12.39
357.332	12.73
357.542	12.87
357.752	12.64
357.962	11.51
358.171	12.82
358.381	12.55
358.591	12.86
358.801	12.78
359.011	13.6
359.221	13.99
359.43	13.93
359.64	12.78
359.85	12.92
360.06	13.5
360.269	14.67
360.479	14.4
360.689	14.55
360.899	13.87
361.108	13.25
361.318	12.91
361.528	12.82
361.737	11.65
361.947	12.24
362.156	12.04
362.366	11.59
362.576	11.1
362.785	11.18
362.995	11.05
363.204	10.93
363.414	11.24
363.623	11.44
363.833	10.86
364.042	11.14
364.252	10.65
364.461	9.84
364.671	10.03
364.88	9.51
365.09	9.26
365.299	9.32
365.509	8.8
365.718	8.1
365.927	7.08
366.137	7.19
366.346	7.98
366.555	8.39
366.765	8.62
366.974	7.84
367.183	8.27
367.393	7.63
367.602	7.25
367.811	7.77
368.021	8.69
368.23	9.53
368.439	9.08
368.648	8.93
368.857	8.84
369.067	8.86
369.276	9.42
369.485	9.27
369.694	9.16
369.903	9.98
370.112	9.96
370.321	10.03
370.531	9.24
370.74	8.91
370.949	8.64
371.158	8.85
371.367	9.95
371.576	9.71
371.785	10.36
371.994	10.63
372.203	10.16
372.412	10.4
372.621	10.72
372.83	10.91
373.039	11.95
373.248	11.91
373.457	11.55
373.666	11.3
373.874	11.74
374.083	11.16
374.292	11.12
374.501	10.75
374.71	10.34
374.919	9.68
375.128	9.56
375.336	9.01
375.545	9.39
375.754	8.74
375.963	8.6
376.171	8.79
376.38	8.55
376.589	8.74
376.798	9.37
377.006	9.32
377.215	9.52
377.424	9.91
377.632	9.94
377.841	9.52
378.05	10.27
378.258	10.14
378.467	10.19
378.675	10.43
378.884	10.59
379.093	9.83
379.301	9.83
379.51	9.27
379.718	9.04
379.927	8.59
380.135	8.7
380.344	7.85
380.552	8.17
380.761	7.47
380.969	7.44
381.177	7.04
381.386	7.62
381.594	8
381.803	8.63
382.011	8.13
382.219	8.73
382.428	8.73
382.636	9.41
382.845	9.05
383.053	8.85
383.261	8.59
383.469	8.69
383.678	8.33
383.886	8.08
384.094	7.57
384.302	8.23
384.511	8.24
384.719	8.3
384.927	8.12
385.135	8.31
385.343	8.44
385.552	8.74
385.76	8.44
385.968	8.22
386.176	8.31
386.384	8.18
386.592	7.67
386.8	7.32
387.008	6.8
387.216	6.74
387.424	5.85
387.633	5.81
387.841	5.78
388.049	6.24
388.257	6.24
388.465	5.93
388.672	6.03
388.88	6.67
389.088	6.67
389.296	6.97
389.504	7.25
389.712	7.74
389.92	7.85
390.128	7.62
390.336	7.06
390.544	7.03
390.751	7.09
390.959	7.24
391.167	6.96
391.375	7.14
391.583	7.06
391.79	6.84
391.998	7.01
392.206	6.99
392.414	7.38
392.621	7.35
392.829	7.43
393.037	7.47
393.244	7.2
393.452	7.18
393.66	7.24
393.867	7.14
394.075	7.27
394.283	7.3
394.49	6.84
394.698	6.32
394.905	6.45
395.113	6.39
395.32	6.26
395.528	6.7
395.735	6.69
395.943	6.68
396.15	6.78
396.358	6.47
396.565	6.39
396.773	7.14
396.98	7.3
397.188	7.45
397.395	7.37
397.602	7.33
397.81	6.86
398.017	6.91
398.225	6.79
398.432	7.06
398.639	7.27
398.847	7
399.054	6.57
399.261	6.88
399.468	6.75
399.676	6.89
399.883	7.12
400.09	7.05
400.297	7.05
400.505	7.2
400.712	6.61
400.919	6.5
401.126	6.54
401.333	6.44
401.54	5.83
401.748	5.81
401.955	5.73
402.162	5.45
402.369	5.67
402.576	5.69
402.783	5.53
402.99	5.68
403.197	5.51
403.404	5.41
403.611	5.52
403.818	5.63
404.025	5.59
404.232	5.39
404.439	5.73
404.646	5.6
404.853	5.47
405.06	5.15
405.267	5.16
405.474	5.36
405.681	5.74
405.887	5.5
406.094	5.7
406.301	5.58
406.508	5.8
406.715	5.42
406.922	5.67
407.128	5.72
407.335	6.04
407.542	6
407.749	5.79
407.955	5.61
408.162	5.73
408.369	5.47
408.575	5.45
408.782	5.09
408.989	5.24
409.195	5.1
409.402	4.88
409.609	4.75
409.815	5.04
410.022	5.25
410.228	5.26
410.435	5.36
410.642	5.65
410.848	5.84
411.055	6.26
411.261	6.5
411.468	6.49
411.674	6.61
411.881	6.68
412.087	6.75
412.294	6.94
412.5	6.97
412.706	7.23
412.913	7.06
413.119	7.13
413.326	7.04
413.532	7.06
413.738	7.24
413.945	6.98
414.151	7.22
414.357	7.02
414.564	6.67
414.77	6.68
414.976	6.58
415.182	6.46
415.389	6.39
415.595	6.36
415.801	5.92
416.007	5.73
416.214	5.84
416.42	5.6
416.626	5.64
416.832	5.72
417.038	5.67
417.244	5.61
417.45	5.92
417.657	5.93
417.863	5.89
418.069	5.89
418.275	5.96
418.481	6.13
418.687	6.13
418.893	6.25
419.099	6.25
419.305	6.45
419.511	6.48
419.717	6.43
419.923	6.42
420.129	6.42
420.335	6.4
420.541	6.34
420.746	6.25
420.952	6.19
421.158	6.04
421.364	6.14
421.57	5.97
421.776	5.9
421.982	5.92
422.187	5.78
422.393	5.75
422.599	5.94
422.805	6.08
423.01	6.18
423.216	6.24
423.422	6.08
423.628	5.95
423.833	5.85
424.039	5.79
424.245	5.62
424.45	5.63
424.656	5.69
424.862	5.66
425.067	5.54
425.273	5.5
425.478	5.35
425.684	5.49
425.889	5.39
426.095	5.34
426.301	5.35
426.506	5.43
426.712	5.28
426.917	5.31
427.123	5.27
427.328	5.19
427.533	4.95
427.739	5.11
427.944	5.05
428.15	4.92
428.355	4.99
428.561	4.97
428.766	4.97
428.971	5.35
429.177	5.22
429.382	5.04
429.587	5.14
429.793	5.23
429.998	5.13
430.203	5.18
430.408	5.33
430.614	5.27
430.819	5.29
431.024	4.93
431.229	4.61
431.434	4.48
431.64	4.61
431.845	4.48
432.05	4.56
432.255	4.66
432.46	4.6
432.665	4.84
432.87	5.06
433.076	5.05
433.281	5.31
433.486	5.35
433.691	5.55
433.896	5.72
434.101	5.8
434.306	5.81
434.511	5.85
434.716	5.88
434.921	5.67
435.126	5.7
435.331	5.71
435.535	5.52
435.74	5.57
435.945	5.58
436.15	5.13
436.355	5.05
436.56	4.96
436.765	5.04
436.97	5.14
437.174	5.04
437.379	4.85
437.584	4.99
437.789	5.02
437.993	5.31
438.198	5.11
438.403	5.51
438.608	5.41
438.812	5.33
439.017	5.12
439.222	5.17
439.426	5.19
439.631	5.14
439.836	5.11
440.04	5.27
440.245	5.21
440.45	5.23
440.654	5.15
440.859	5.19
441.063	5.28
441.268	5.44
441.472	5.47
441.677	5.69
441.881	5.62
442.086	5.59
442.29	5.48
442.495	5.25
442.699	5.4
442.904	5.36
443.108	5.66
443.312	5.8
443.517	5.8
443.721	5.53
443.925	5.47
444.13	5.7
444.334	5.6
444.538	5.74
444.743	5.76
444.947	5.69
445.151	5.75
445.356	5.58
445.56	5.56
445.764	5.53
445.968	5.68
446.173	5.57
446.377	5.49
446.581	5.55
446.785	5.56
446.989	5.58
447.193	5.59
447.398	5.44
447.602	5.45
447.806	5.51
448.01	5.45
448.214	5.2
448.418	5.18
448.622	5.06
448.826	4.96
449.03	4.86
449.234	4.99
449.438	4.9
449.642	4.92
449.846	4.93
450.05	4.69
450.254	4.64
450.458	4.96
450.662	4.83
450.866	5.13
451.069	5.1
451.273	5.03
451.477	4.97
451.681	4.98
451.885	4.85
452.089	4.58
452.292	4.45
452.496	4.49
452.7	4.35
452.904	4.56
453.107	4.37
453.311	4.53
453.515	4.73
453.719	4.71
453.922	4.75
454.126	4.87
454.33	5.18
454.533	5.43
454.737	5.44
454.94	5.55
455.144	5.7
455.348	5.72
455.551	5.85
455.755	5.76
455.958	5.72
456.162	5.53
456.365	5.41
456.569	5.27
456.772	5.32
456.976	5.43
457.179	5.41
457.383	5.19
457.586	5.23
457.79	5.11
457.993	5.12
458.196	5.09
458.4	5.11
458.603	5.32
458.807	5.34
459.01	5.3
459.213	5.26
459.417	5.21
459.62	5.23
459.823	5.21
460.026	5.14
460.23	5.12
460.433	5.19
460.636	5.24
460.839	5.25
461.042	5.25
461.246	5.25
461.449	5.23
461.652	5.2
461.855	5.19
462.058	5.12
462.261	5.19
462.464	5.23
462.668	5.22
462.871	5.27
463.074	5.14
463.277	5.13
463.48	5.07
463.683	5.05
463.886	5.17
464.089	5.28
464.292	5.1
464.495	5.11
464.698	5.02
464.901	5.08
465.104	4.9
465.306	4.94
465.509	4.83
465.712	4.71
465.915	4.73
466.118	4.77
466.321	4.52
466.524	4.8
466.726	4.74
466.929	4.6
467.132	4.44
467.335	4.58
467.538	4.68
467.74	4.79
467.943	4.98
468.146	4.86
468.348	4.79
468.551	4.86
468.754	4.87
468.956	4.84
469.159	5.05
469.362	5.22
469.564	5.16
469.767	5
469.969	5.1
470.172	5.05
470.375	5.16
470.577	5.26
470.78	5.34
470.982	5.21
471.185	5.34
471.387	5.2
471.59	4.89
471.792	4.89
471.995	4.8
472.197	4.63
472.399	4.63
472.602	4.62
472.804	4.42
473.007	4.4
473.209	4.37
473.411	4.3
473.614	4.39
473.816	4.55
474.018	4.72
474.22	4.83
474.423	4.88
474.625	5
474.827	5.04
475.03	5.2
475.232	5.3
475.434	5.53
475.636	5.27
475.838	5.29
476.04	5.24
476.243	5.25
476.445	5.16
476.647	5.15
476.849	5.02
477.051	4.99
477.253	5.03
477.455	4.9
477.657	4.82
477.859	5.15
478.061	5.12
478.263	5.18
478.465	5.13
478.667	5.1
478.869	5.17
479.071	5.35
479.273	5.33
479.475	5.09
479.677	5.25
479.879	5.2
480.081	5.22
480.283	5.25
480.485	5.19
480.686	5.19
480.888	5.24
481.09	5.12
481.292	4.96
481.494	5.04
481.695	5.17
481.897	5.13
482.099	5.24
482.301	5.2
482.502	5.18
482.704	5.28
482.906	5.14
483.107	5.13
483.309	5.12
483.511	5.12
483.712	5.05
483.914	4.97
484.115	4.91
484.317	4.86
484.519	4.82
484.72	4.79
484.922	4.79
485.123	4.85
485.325	4.83
485.526	4.81
485.728	4.83
485.929	4.87
486.131	4.94
486.332	5.03
486.534	5.06
486.735	5.1
486.936	5.1
487.138	5.08
487.339	5.04
487.541	5.03
487.742	5.06
487.943	5.03
488.144	5.04
488.346	5.06
488.547	5
488.748	4.86
488.95	4.8
489.151	4.81
489.352	4.68
489.553	4.76
489.755	4.93
489.956	4.93
490.157	4.92
490.358	4.88
490.559	4.84
490.76	4.94
490.961	5.12
491.163	5.2
491.364	5.13
491.565	5.22
491.766	5.14
491.967	5.08
492.168	5.02
492.369	4.92
492.57	4.94
492.771	4.98
492.972	4.88
493.173	4.8
493.374	4.71
493.575	4.8
493.776	4.72
493.976	4.69
494.177	4.6
494.378	4.77
494.579	4.87
494.78	4.81
494.981	4.89
495.182	4.87
495.382	4.88
495.583	4.98
495.784	5
495.985	5.01
496.185	5.08
496.386	5.06
496.587	5.01
496.788	4.98
496.988	5.1
497.189	5.02
497.39	5.13
497.59	5.09
497.791	5.01
497.992	4.93
498.192	4.93
498.393	5
498.593	4.95
498.794	4.8
498.994	4.89
499.195	4.83
499.395	4.68
499.596	4.73
499.796	4.82
499.997	4.74
500.197	4.86
500.398	5.01
500.598	4.84
500.799	4.84
500.999	5
501.199	4.95
501.4	4.98
501.6	5.07
501.801	5.06
502.001	5.03
502.201	5.22
502.402	5.21
502.602	5.26
502.802	5.33
503.002	5.4
503.203	5.35
503.403	5.42
503.603	5.42
503.803	5.42
504.003	5.41
504.204	5.51
504.404	5.36
504.604	5.25
504.804	4.84
505.004	4.79
505.204	4.92
505.404	5.05
505.604	5.09
505.804	5.22
506.005	5.21
506.205	5.17
506.405	5.17
506.605	5.36
506.805	5.39
507.005	5.56
507.204	5.47
507.404	5.37
507.604	5.4
507.804	5.18
508.004	5.13
508.204	5.24
508.404	5.22
508.604	5.08
508.804	4.95
509.003	5.03
509.203	4.99
509.403	5.07
509.603	5.09
509.803	5.05
510.002	5.15
510.202	5
510.402	5.07
510.602	4.92
510.801	4.92
511.001	4.99
511.201	4.92
511.4	4.94
511.6	5.01
511.8	4.98
511.999	4.75
512.199	4.76
512.398	4.77
512.598	4.56
512.797	4.7
512.997	4.73
513.197	4.68
513.396	4.69
513.596	4.84
513.795	4.92
513.994	4.96
514.194	5.08
514.393	5.04
514.593	5.05
514.792	5.09
514.992	5.25
515.191	5.25
515.39	5.31
515.59	5.28
515.789	5.31
515.988	5.17
516.188	5.04
516.387	5.1
516.586	5.18
516.786	5.36
516.985	5.42
517.184	5.35
517.383	5.38
517.582	5.47
517.782	5.48
517.981	5.26
518.18	5.33
518.379	5.43
518.578	5.45
518.777	5.45
518.976	5.33
519.176	5.34
519.375	5.34
519.574	5.42
519.773	5.33
519.972	5.42
520.171	5.59
520.37	5.52
520.569	5.55
520.768	5.65
520.967	5.65
521.166	5.58
521.365	5.53
521.564	5.42
521.762	5.4
521.961	5.38
522.16	5.3
522.359	5.27
522.558	5.37
522.757	5.3
522.956	5.06
523.154	5.16
523.353	5.32
523.552	5.28
523.751	5.46
523.949	5.48
524.148	5.51
524.347	5.64
524.546	5.65
524.744	5.59
524.943	5.56
525.142	5.63
525.34	5.66
525.539	5.67
525.737	5.73
525.936	5.69
526.135	5.7
526.333	5.76
526.532	5.62
526.73	5.57
526.929	5.56
527.127	5.6
527.326	5.67
527.524	5.59
527.723	5.59
527.921	5.66
528.12	5.7
528.318	5.64
528.516	5.66
528.715	5.67
528.913	5.71
529.112	5.79
529.31	5.83
529.508	5.88
529.707	5.89
529.905	5.88
530.103	5.85
530.301	5.82
530.5	5.86
530.698	5.77
530.896	5.87
531.094	5.92
531.293	5.89
531.491	5.89
531.689	6.01
531.887	6.03
532.085	6.08
532.283	6.09
532.481	6.09
532.68	6.08
532.878	6.13
533.076	6.16
533.274	6.14
533.472	6.18
533.67	6.14
533.868	5.95
534.066	5.96
534.264	5.94
534.462	5.95
534.66	5.94
534.858	6.04
535.056	6.17
535.253	6.23
535.451	6.31
535.649	6.24
535.847	6.35
536.045	6.37
536.243	6.46
536.441	6.51
536.638	6.55
536.836	6.67
537.034	6.56
537.232	6.43
537.43	6.39
537.627	6.38
537.825	6.46
538.023	6.43
538.22	6.57
538.418	6.48
538.616	6.42
538.813	6.5
539.011	6.43
539.209	6.62
539.406	6.69
539.604	6.74
539.801	6.63
539.999	6.59
540.196	6.67
540.394	6.62
540.591	6.6
540.789	6.69
540.986	6.67
541.184	6.76
541.381	6.72
541.579	6.68
541.776	6.64
541.974	6.69
542.171	6.68
542.368	6.64
542.566	6.72
542.763	6.81
542.96	6.8
543.158	6.8
543.355	6.73
543.552	6.76
543.75	6.84
543.947	6.92
544.144	6.9
544.341	7.06
544.539	7.09
544.736	6.98
544.933	6.99
545.13	7.16
545.327	7.17
545.524	7.32
545.722	7.43
545.919	7.6
546.116	7.59
546.313	7.78
546.51	7.78
546.707	7.86
546.904	7.99
547.101	8.03
547.298	7.96
547.495	8.06
547.692	7.94
547.889	7.93
548.086	7.78
548.283	7.82
548.48	7.91
548.677	7.85
548.874	7.79
549.07	7.71
549.267	7.83
549.464	7.88
549.661	7.73
549.858	7.84
550.055	7.81
550.251	7.86
550.448	7.73
550.645	7.76
550.842	7.76
551.038	7.93
551.235	8.03
551.432	7.93
551.628	8
551.825	8.17
552.022	8.23
552.218	8.33
552.415	8.33
552.612	8.54
552.808	8.52
553.005	8.65
553.201	8.73
553.398	8.76
553.594	8.9
553.791	8.78
553.987	8.82
554.184	8.71
554.38	8.69
554.577	8.94
554.773	9.01
554.97	8.88
555.166	9.07
555.362	9.12
555.559	9.09
555.755	9.11
555.952	9.19
556.148	9.33
556.344	9.49
556.541	9.38
556.737	9.36
556.933	9.39
557.129	9.43
557.326	9.42
557.522	9.45
557.718	9.62
557.914	9.5
558.11	9.58
558.307	9.54
558.503	9.57
558.699	9.85
558.895	9.94
559.091	9.98
559.287	10.17
559.483	10.23
559.679	10.19
559.876	10.28
560.072	10.48
560.268	10.52
560.464	10.6
560.66	10.71
560.856	10.74
561.052	10.79
561.247	10.9
561.443	11
561.639	11.03
561.835	11.17
562.031	11.29
562.227	11.19
562.423	11.42
562.619	11.65
562.815	11.7
563.01	11.8
563.206	11.88
563.402	11.96
563.598	11.99
563.793	12.1
563.989	12.09
564.185	12.09
564.381	12.4
564.576	12.44
564.772	12.37
564.968	12.54
565.163	12.67
565.359	12.71
565.555	12.73
565.75	12.76
565.946	12.69
566.141	12.82
566.337	13.02
566.532	12.89
566.728	12.89
566.923	12.95
567.119	12.89
567.314	12.85
567.51	12.89
567.705	12.86
567.901	12.78
568.096	12.85
568.292	12.71
568.487	12.54
568.682	12.7
568.878	12.69
569.073	12.64
569.268	12.74
569.464	12.92
569.659	12.86
569.854	12.82
570.05	12.98
570.245	13.38
570.44	13.53
570.635	13.61
570.831	13.75
571.026	13.81
571.221	13.95
571.416	14.02
571.611	13.96
571.806	14.12
572.002	14.21
572.197	14.3
572.392	13.95
572.587	13.99
572.782	14.15
572.977	14.15
573.172	14.32
573.367	14.38
573.562	14.38
573.757	14.52
573.952	14.49
574.147	14.8
574.342	14.82
574.537	15.03
574.732	15.04
574.927	15.17
575.121	15.14
575.316	15.14
575.511	15.09
575.706	15.22
575.901	15.29
576.096	15.33
576.29	15.16
576.485	15.24
576.68	15.42
576.875	15.57
577.069	15.33
577.264	15.26
577.459	15.39
577.654	15.23
577.848	15.14
578.043	15.18
578.238	15.03
578.432	15.11
578.627	15.23
578.821	15.07
579.016	15.17
579.21	15.26
579.405	15.61
579.6	15.55
579.794	15.81
579.989	15.81
580.183	15.58
580.378	16.03
580.572	16.07
580.766	16.26
580.961	16.22
581.155	16.07
581.35	16.09
581.544	16.14
581.738	16.24
581.933	16.5
582.127	16.67
582.321	16.95
582.516	17.09
582.71	17.02
582.904	16.64
583.099	16.8
583.293	16.92
583.487	16.79
583.681	16.85
583.875	16.51
584.07	16.68
584.264	16.82
584.458	16.91
584.652	16.66
584.846	16.71
585.04	16.7
585.234	16.69
585.428	16.56
585.623	16.84
585.817	16.42
586.011	16.75
586.205	16.72
586.399	16.45
586.593	16.21
586.787	16.46
586.981	16.32
587.174	16.48
587.368	16.33
587.562	16.65
587.756	16.68
587.95	16.8
588.144	16.92
588.338	16.9
588.532	17.09
588.725	17.38
588.919	17.32
589.113	17.59
589.307	17.6
589.501	17.54
589.694	17.4
589.888	17.35
590.082	17.66
590.275	17.59
590.469	17.52
590.663	17.48
590.856	17.41
591.05	17.13
591.244	17.07
591.437	17.11
591.631	16.99
591.824	17.07
592.018	17.02
592.212	17.07
592.405	16.8
592.599	16.72
592.792	16.79
592.986	16.55
593.179	16.9
593.372	16.94
593.566	17.09
593.759	17.39
593.953	17.26
594.146	17.31
594.339	16.95
594.533	17.2
594.726	17.25
594.92	17.23
595.113	17.22
595.306	17.17
595.499	17.25
595.693	17.21
595.886	17.52
596.079	17.53
596.272	17.57
596.466	17.7
596.659	17.66
596.852	17.45
597.045	17.61
597.238	17.95
597.431	17.96
597.624	17.98
597.818	17.89
598.011	17.64
598.204	17.72
598.397	17.8
598.59	17.85
598.783	18.01
598.976	18.37
599.169	18.47
599.362	18.35
599.555	18.23
599.748	18.2
599.941	18.45
600.134	18.73
600.326	18.77
600.519	18.69
600.712	18.61
600.905	18.48
601.098	18.4
601.291	18.34
601.483	18.31
601.676	18.57
601.869	18.79
602.062	18.58
602.255	18.26
602.447	18.19
602.64	18.35
602.833	18.5
603.025	18.62
603.218	18.75
603.411	18.47
603.603	18.52
603.796	18.46
603.989	18.22
604.181	18.31
604.374	18.73
604.566	18.87
604.759	18.86
604.951	18.92
605.144	18.84
605.336	18.88
605.529	19.09
605.721	19.05
605.914	18.94
606.106	19.09
606.299	19.23
606.491	18.87
606.683	18.87
606.876	18.87
607.068	18.63
607.26	18.68
607.453	18.54
607.645	18.42
607.837	18.65
608.03	18.8
608.222	18.78
608.414	18.45
608.606	18.47
608.799	18.37
608.991	18.34
609.183	18.45
609.375	18.52
609.567	18.37
609.759	18.32
609.952	18.02
610.144	17.77
610.336	17.72
610.528	17.94
610.72	18.14
610.912	18.21
611.104	18.18
611.296	18.13
611.488	18.17
611.68	18.44
611.872	18.73
612.064	18.83
612.256	19.3
612.448	18.95
612.64	18.97
612.832	18.68
613.023	18.77
613.215	18.83
613.407	18.77
613.599	18.47
613.791	18.5
613.983	18.18
614.174	18.44
614.366	18.38
614.558	18.67
614.75	18.43
614.941	18.17
615.133	18.33
615.325	18.39
615.516	18.5
615.708	18.68
615.9	18.5
616.091	18.52
616.283	18.25
616.475	17.97
616.666	18.35
616.858	18.48
617.049	18.89
617.241	18.71
617.432	18.56
617.624	18.41
617.815	18.35
618.007	18.6
618.198	18.9
618.39	19.01
618.581	19.16
618.773	18.97
618.964	18.98
619.155	19.02
619.347	18.95
619.538	18.99
619.729	19.52
619.921	19.34
620.112	19.13
620.303	18.93
620.494	19.18
620.686	19.15
620.877	19.18
621.068	19.13
621.259	19.12
621.451	19.02
621.642	18.84
621.833	18.45
622.024	18.68
622.215	18.51
622.406	18.47
622.597	18.41
622.788	18.41
622.98	18.5
623.171	18.23
623.362	18.12
623.553	17.93
623.744	18.33
623.935	18.58
624.126	18.83
624.317	19.07
624.508	18.93
624.698	18.55
624.889	18.46
625.08	18.15
625.271	18.41
625.462	18.43
625.653	18.91
625.844	18.66
626.034	18.21
626.225	18.24
626.416	18.25
626.607	18.37
626.798	18.76
626.988	18.71
627.179	18.96
627.37	19.25
627.56	19.23
627.751	19.04
627.942	19.06
628.132	19.27
628.323	19.1
628.514	18.94
628.704	18.84
628.895	18.72
629.085	18.9
629.276	18.92
629.466	18.84
629.657	18.89
629.847	18.95
630.038	18.83
630.228	19
630.419	18.75
630.609	18.88
630.8	18.81
630.99	18.8
631.181	18.5
631.371	18.81
631.561	18.61
631.752	18.46
631.942	18.63
632.132	18.73
632.323	18.64
632.513	18.94
632.703	18.91
632.893	19.36
633.084	19.3
633.274	19.67
633.464	19.17
633.654	19.16
633.844	19.27
634.034	18.83
634.225	18.8
634.415	19.17
634.605	19.21
634.795	19.19
634.985	18.72
635.175	18.8
635.365	18.59
635.555	18.89
635.745	18.99
635.935	18.82
636.125	19.12
636.315	19.29
636.505	18.95
636.695	18.84
636.885	18.81
637.075	19.12
637.265	19.16
637.455	19.18
637.644	18.95
637.834	19.12
638.024	19.42
638.214	19.7
638.404	19.82
638.593	19.92
638.783	19.84
638.973	20.17
639.163	20.11
639.352	19.94
639.542	19.97
639.732	19.98
639.921	19.62
640.111	19.32
640.301	19.25
640.49	19.23
640.68	19.32
640.87	19.38
641.059	19.07
641.249	19.37
641.438	19.5
641.628	19.39
641.817	18.94
642.007	19.5
642.196	20.04
642.386	19.9
642.575	19.53
642.764	19.65
642.954	19.86
643.143	19.91
643.333	19.93
643.522	19.91
643.711	20.3
643.901	21.07
644.09	20.5
644.279	20.44
644.469	20.02
644.658	20.55
644.847	20.07
645.036	20.4
645.226	20.41
645.415	19.65
645.604	19.35
645.793	18.95
645.982	18.75
646.171	18.82
646.361	18.29
646.55	18.66
646.739	18.32
646.928	18.47
647.117	18.26
647.306	18.26
647.495	19.14
647.684	19.22
647.873	19.26
648.062	19.12
648.251	19.17
648.44	19.52
648.629	19.11
648.818	18.92
649.007	18.74
649.196	18.57
649.384	18.14
649.573	17.68
649.762	17.59
649.951	17.86
650.14	17.58
650.328	17.87
650.517	17.44
650.706	17.63
650.895	18.02
651.083	18.04
651.272	18.13
651.461	18.17
651.65	18.5
651.838	19.17
652.027	18.84
652.216	19.16
652.404	18.82
652.593	18.72
652.781	18.92
652.97	18.93
653.158	19.05
653.347	18.96
653.535	19.04
653.724	18.6
653.912	18.24
654.101	18.29
654.289	18.6
654.478	19.08
654.666	19.67
654.855	19.84
655.043	19.86
655.231	19.86
655.42	20.24
655.608	20.33
655.796	20.76
655.985	20.6
656.173	21.04
656.361	20.76
656.55	20.29
656.738	19.96
656.926	19.66
657.114	19.06
657.302	18.95
657.491	18.45
657.679	18.81
657.867	18.72
658.055	18.94
658.243	18.56
658.431	18.59
658.619	18.75
658.807	18.98
658.996	19.12
659.184	19.49
659.372	19.79
659.56	20.05
659.748	19.81
659.936	19.49
660.124	19.19
660.311	19.38
660.499	18.98
660.687	18.87
660.875	18.65
661.063	18.65
661.251	18.67
661.439	18.32
661.627	17.84
661.814	18.12
662.002	18.76
662.19	18.84
662.378	18.74
662.565	19.07
662.753	19.11
662.941	19.61
663.129	19.58
663.316	19.48
663.504	20.07
663.692	20.15
663.879	19.98
664.067	19.58
664.254	19.66
664.442	19.49
664.63	19.64
664.817	19.37
665.005	18.48
665.192	18.26
665.38	18.61
665.567	17.96
665.755	17.79
665.942	17.85
666.13	17.86
666.317	18.02
666.504	18.31
666.692	18.05
666.879	18.22
667.067	18.62
667.254	18.82
667.441	18.39
667.629	18.76
667.816	19.4
668.003	20.13
668.19	20.11
668.378	19.99
668.565	20.33
668.752	20.25
668.939	20.46
669.127	20.5
669.314	20.07
669.501	20.44
669.688	20.63
669.875	20.45
670.062	19.5
670.249	19.5
670.436	19.82
670.623	19.28
670.81	19.74
670.997	19.6
671.184	19.88
671.371	20.21
671.558	20.36
671.745	19.96
671.932	20.16
672.119	20.38
672.306	20.63
672.493	20.48
672.68	20.42
672.867	19.99
673.054	19.91
673.24	19.52
673.427	19.92
673.614	19
673.801	18.78
673.988	18.24
674.174	18.2
674.361	17.77
674.548	17.8
674.734	18.23
674.921	18.26
675.108	18.5
675.294	18.66
675.481	18.5
675.668	19.29
675.854	19.64
676.041	19.9
676.227	20.13
676.414	20.08
676.601	20.08
676.787	19.77
676.974	20.21
677.16	20.37
677.347	20.66
677.533	20.9
677.719	20.6
677.906	20.33
678.092	20.09
678.279	20.17
678.465	20.19
678.651	20.04
678.838	19.91
679.024	20.06
679.21	19.82
679.397	19.21
679.583	19.01
679.769	19.42
679.955	19.26
680.142	19.37
680.328	19.17
680.514	19.28
680.7	19.35
680.886	19.59
681.073	19.31
681.259	19.19
681.445	19.66
681.631	19.76
681.817	19.34
682.003	19.36
682.189	19.81
682.375	19.77
682.561	20
682.747	20.14
682.933	20.01
683.119	20.09
683.305	20.32
683.491	20.37
683.677	20.29
683.863	20.3
684.049	20.71
684.235	20.43
684.42	20.49
684.606	20.29
684.792	19.63
684.978	19.25
685.164	19.22
685.349	19.1
685.535	18.86
685.721	18.48
685.907	18.6
686.092	18.37
686.278	18.33
686.464	18.08
686.649	18.12
686.835	18.2
687.021	18.48
687.206	17.81
687.392	18.06
687.577	18.36
687.763	18.33
687.948	18.23
688.134	18.57
688.319	18.57
688.505	18.7
688.69	18.82
688.876	18.88
689.061	19.04
689.247	19.97
689.432	19.73
689.618	19.2
689.803	19.5
689.988	19.84
690.174	19.87
690.359	19.78
690.544	19.61
690.73	19.65
690.915	19.75
691.1	19.72
691.285	19.03
691.471	18.98
691.656	19.28
691.841	19.24
692.026	18.87
692.211	18.8
692.396	19.1
692.582	19.17
692.767	18.91
692.952	19.08
693.137	19.63
693.322	20.22
693.507	20.38
693.692	20.55
693.877	20.71
694.062	20.69
694.247	20.39
694.432	19.96
694.617	20.12
694.802	20.72
694.987	20.48
695.172	19.55
695.357	19.63
695.541	19.52
695.726	19.39
695.911	19.53
696.096	19.49
696.281	19.5
696.466	19.21
696.65	19.49
696.835	19.07
697.02	19.48
697.204	18.92
697.389	18.81
697.574	18.98
697.759	19.12
697.943	18.67
698.128	18.97
698.312	19.07
698.497	19.05
698.682	18.78
698.866	18.87
699.051	18.88
699.235	20.34
699.42	20.46
699.604	20.15
699.789	19.76
699.973	19.83
700.158	19.77
700.342	19.89
700.527	20.09
700.711	20.3
700.895	20.05
701.08	19.96
701.264	18.58
701.448	18.56
701.633	18.8
701.817	18.98
702.001	18.5
702.186	18.33
702.37	17.84
702.554	18.25
702.738	18.65
702.923	18.46
703.107	18.76
703.291	19.72
703.475	19.03
703.659	19.09
703.843	19.48
704.027	20.37
704.212	20.49
704.396	20.36
704.58	20.22
704.764	19.36
704.948	19.83
705.132	19.38
705.316	18.8
705.5	19.24
705.684	18.87
705.868	18.97
706.052	19.26
706.235	19.47
706.419	19.87
706.603	19.91
706.787	20.06
706.971	19.66
707.155	19.41
707.339	19.78
707.522	19.92
707.706	20.05
707.89	19.57
708.074	19.83
708.257	19.52
708.441	20.11
708.625	19.62
708.808	20.43
708.992	20.95
709.176	21.26
709.359	20.95
709.543	20.52
709.727	20.37
709.91	20.31
710.094	19.92
710.277	19.56
710.461	19.08
710.644	19.81
710.828	19.46
711.011	19.23
711.195	19.04
711.378	20.07
711.562	20.73
711.745	20.94
711.928	21.57
712.112	21.01
712.295	21.84
712.478	21.95
712.662	21.82
712.845	21.19
713.028	21.56
713.212	22.02
713.395	20.56
713.578	19.98
713.761	20.4
713.945	19.57
714.128	19.81
714.311	19.47
714.494	19.23
714.677	19.81
714.86	20.19
715.043	20.17
715.227	19.59
715.41	20.15
715.593	20.59
715.776	20.31
715.959	20.06
716.142	20.35
716.325	20.09
716.508	20
716.691	19.03
716.874	18.95
717.057	18.62
717.239	19.46
717.422	19.32
717.605	19.12
717.788	19.23
717.971	19.47
718.154	19.33
718.337	19.42
718.519	19.43
718.702	19.88
718.885	19.83
719.068	19.95
719.25	19.63
719.433	19.33
719.616	19.38
719.798	19.21
719.981	19.18
720.164	19.15
720.346	19.58
720.529	20.31
720.712	19.58
720.894	18.94
721.077	18.64
721.259	18.69
721.442	19.11
721.624	18.6
721.807	18.77
721.989	19.12
722.172	19.35
722.354	18.2
722.537	16.93
722.719	17.58
722.901	18.8
723.084	19.66
723.266	19.97
723.448	19.94
723.631	20.73
723.813	20.94
723.995	20.68
724.178	20.73
724.36	21.27
724.542	21.61
724.724	21.32
724.907	20.94
725.089	20.8
725.271	20.11
725.453	20.75
725.635	19.63
725.817	19.41
725.999	19.54
726.181	19.56
726.364	20.33
726.546	21.1
726.728	21.34
726.91	22.23
727.092	22.72
727.274	23
727.456	22.03
727.638	22.51
727.819	22.04
728.001	22.73
728.183	21.8
728.365	21.03
728.547	20.63
728.729	20.41
728.911	19.17
729.093	18.16
729.274	18.42
729.456	18.86
729.638	18.49
729.82	18.64
730.001	18.8
730.183	18.93
730.365	19.24
730.546	19.62
730.728	20.56
730.91	20.85
731.091	20.52
731.273	19.3
731.455	18.95
731.636	20.15
731.818	19.86
731.999	19.84
732.181	20.56
732.362	20.62
732.544	20.06
732.725	19.01
732.907	19.3
733.088	20.95
733.27	21.28
733.451	21.83
733.633	20.92
733.814	21.77
733.995	22
734.177	21.74
734.358	20.88
734.539	21.48
734.721	21.71
734.902	21.24
735.083	19.45
735.264	19.95
735.446	19.84
735.627	20.09
735.808	19.08
735.989	18.19
736.17	19.24
736.351	20.48
736.533	21.36
736.714	21.65
736.895	21.28
737.076	22.06
737.257	21.57
737.438	22.68
737.619	22.75
737.8	23.9
737.981	24.2
738.162	22.86
738.343	21.55
738.524	19.52
738.705	19.02
738.886	19.9
739.067	19.59
739.247	19.91
739.428	18.89
739.609	18.56
739.79	17.86
739.971	17.72
740.151	17.27
740.332	18.92
740.513	19.42
740.694	19.38
740.874	20.35
741.055	20.4
741.236	19.93
741.417	19.25
741.597	20.05
741.778	20.54
741.958	20.39
742.139	20.69
742.32	19.99
742.5	20.67
742.681	21.77
742.861	20.15
743.042	20.44
743.222	20.35
743.403	21.63
743.583	21.45
743.764	21.27
743.944	21.57
744.124	22.65
744.305	23.13
744.485	22.63
744.666	22.17
744.846	23.07
745.026	23.56
745.207	23.89
745.387	21.8
745.567	21.65
745.747	21.77
745.928	21.63
746.108	21.11
746.288	19.84
746.468	20.22
746.648	20.79
746.829	20
747.009	20.42
747.189	21.12
747.369	22.55
747.549	22.07
747.729	22.75
747.909	22.55
748.089	22.09
748.269	23.13
748.449	22.63
748.629	21.71
748.809	22.44
748.989	21.89
749.169	21.91
749.349	22.49
749.529	23.56
749.709	23.09
749.889	24.43
750.068	24.54
750.248	24.71
750.428	25.04
750.608	24.17
750.788	23.55
750.967	23.21
751.147	22.55
751.327	21.17
751.507	19.74
751.686	19.18
751.866	18.31
752.046	19.38
752.225	19.22
752.405	18.47
752.585	19.51
752.764	19.85
752.944	19.33
753.123	19.84
753.303	21.21
753.482	21.05
753.662	20.93
753.841	20.77
754.021	20.65
754.2	19.6
754.38	19.78
754.559	18.54
754.739	17.96
754.918	17.12
755.097	17.57
755.277	15.59
755.456	15.48
755.635	15.64
755.815	15.89
755.994	15.55
756.173	15.85
756.352	16.08
756.532	17.39
756.711	18.53
756.89	19.76
757.069	19.86
757.248	20.83
757.427	22.04
757.607	22.53
757.786	22.94
757.965	22.03
758.144	23.28
758.323	23.02
758.502	22.79
758.681	22.59
758.86	22.11
759.039	20.33
759.218	21.98
759.397	22.28
759.576	21.99
759.755	21.34
759.934	21.45
760.113	19.92
760.291	20.79
760.47	20.27
760.649	19.49
760.828	20.32
761.007	22.1
761.186	20.74
761.364	20.26
761.543	19.06
761.722	18.37
761.901	18.65
762.079	20.25
762.258	19.11
762.437	19.98
762.615	20.05
762.794	19.21
762.972	18.47
763.151	17.83
763.33	18.23
763.508	18.55
763.687	18.27
763.865	18.64
764.044	17.15
764.222	18.12
764.401	17.69
764.579	18.23
764.758	17.89
764.936	18.69
765.114	19.93
765.293	18.81
765.471	19.26
765.65	20.57
765.828	20.18
766.006	21.71
766.184	20.8
766.363	21.36
766.541	20.3
766.719	20.82
766.898	18.96
767.076	17.68
767.254	18.06
767.432	19
767.61	18.49
767.788	19.21
767.967	18.75
768.145	20.23
768.323	19.36
768.501	19.66
768.679	19.39
768.857	21.25
769.035	20.73
769.213	21.78
769.391	21.45
769.569	21.37
769.747	19.42
769.925	19.81
770.103	17.85
770.281	19.72
770.459	20.43
770.636	19.83
770.814	19.14
770.992	20.7
771.17	21.21
771.348	21.4
771.525	21.83
771.703	24.93
771.881	24.57
772.059	26.5
772.236	25.1
772.414	26.36
772.592	28.89
772.769	30.34
772.947	27.94
773.125	28.43
773.302	29.32
773.48	30.98
773.657	27.9
773.835	26.85
774.013	25.16
774.19	25.6
774.368	25.32
774.545	24.57
774.723	24.36
774.9	27.23
775.077	24.94
775.255	24.7
775.432	20.53
775.61	22.21
775.787	23.91
775.964	24.41
776.142	23.48
776.319	23.09
776.496	21.34
776.674	20.54
776.851	20.74
777.028	22.24
777.205	19.85
777.382	21.87
777.56	21.9
777.737	21.88
777.914	21.4
778.091	22.11
778.268	23.43
778.445	25.13
778.622	23.67
778.8	21.17
778.977	19.42
779.154	20.47
779.331	19.86
779.508	19.73
779.685	18.97
779.862	21.2
780.038	20.49
780.215	18.79
780.392	15.57
780.569	18.03
780.746	20.22
780.923	20.51
781.1	20.86
781.277	22.44
781.453	19.68
781.63	18.14
781.807	16
781.984	15.04
782.16	14.47
782.337	17.78
782.514	15.07
782.691	13.7
782.867	12.8
783.044	14.13
783.221	11.85
783.397	15.49
783.574	17.36
783.75	17.78
783.927	20.34
784.103	20.79
784.28	19.18
784.456	21.44
784.633	23.39
784.809	23.88
784.986	20.1
785.162	21.11
785.339	22.44
785.515	22.74
785.692	24.86
785.868	25.32
786.044	24.54
786.221	26.14
786.397	24.83
786.573	24.86
786.749	22.3
786.926	25.06
787.102	25.95
787.278	23.4
787.454	21.64
787.631	19.12
787.807	16.68
787.983	17.74
788.159	16.72
788.335	16.72
788.511	16.01
788.687	18.69
788.863	15.34
789.039	16.59
789.216	20.69
789.392	21.32
789.568	21.81
789.744	24.35
789.919	25.17
790.095	26.49
790.271	26.61
790.447	26.98
790.623	27.36
790.799	29.97
790.975	28.85
791.151	25.81
791.327	26.16
791.502	27.64
791.678	24.33
791.854	22.45
792.03	22.26
792.205	23.53
792.381	22.82
792.557	22.06
792.733	24.53
792.908	25.18
793.084	25.77
793.259	27.4
793.435	25.97
793.611	28.15
793.786	28.25
793.962	28.24
794.137	26.99
794.313	27.53
794.488	27.22
794.664	25.01
794.839	25.75
795.015	23.31
795.19	20.97
795.366	23.11
795.541	24.82
795.716	23.79
795.892	22.4
796.067	20.89
796.242	18.12
796.418	17.63
796.593	17.51
796.768	17.05
796.944	17.5
797.119	18.94
797.294	17.11
797.469	13.42
797.644	14.22
797.82	10.98
797.995	14.22
798.17	17.46
798.345	19.58
798.52	18.22
798.695	17.85
798.87	18.7
799.045	16.68
799.22	16.77
799.395	15.87
799.57	17.05
799.745	20.69
799.92	19.72
800.095	17.08
800.27	14.08
800.445	16.23
800.62	17.57
800.795	17.46
800.97	12.29
801.145	9.02
801.319	13.46
801.494	12.35
801.669	15.45
801.844	15.12
802.018	15.04
802.193	15.92
802.368	12.99
802.543	11.01
802.717	14.58
802.892	21.16
803.067	21.63
803.241	19.25
803.416	18.31
803.59	18.03
803.765	17.16
803.94	18.82
804.114	17.65
804.289	18.4
804.463	16.2
804.638	13.44
804.812	13.12
804.986	16.2
805.161	22.27
805.335	23.31
805.51	21.85
805.684	23.99
805.858	25.61
806.033	27.53
806.207	28.69
806.381	30.37
806.556	30.02
806.73	31.85
806.904	31.19
807.078	26.98
807.253	27.52
807.427	24.46
807.601	25.12
807.775	22.02
807.949	27.11
808.123	26.7
808.298	29.97
808.472	31.34
808.646	28
808.82	27.7
808.994	28.13
809.168	27.04
809.342	30.11
809.516	30.15
809.69	30.6
809.864	27.28
810.038	24.94
810.212	21.81
810.385	19.34
810.559	22.59
810.733	19.47
810.907	16.8
811.081	12.31
811.255	11.87
811.428	9.64
811.602	12.53
811.776	9.75
811.95	7.93
812.123	8.52
812.297	10.83
812.471	10.71
812.644	10.88
812.818	13.64
812.992	16.24
813.165	15.17
813.339	15.67
813.512	12.31
813.686	7.33
813.86	11.27
814.033	7.46
814.207	4.96
814.38	5.79
814.554	11.13
814.727	9.11
814.9	12.02
815.074	14.2
815.247	13.7
815.421	13.35
815.594	20.66
815.767	22.01
815.941	28.15
816.114	30.55
816.287	25.76
816.46	24.26
816.634	23.54
816.807	20.7
816.98	17.19
817.153	19.36
817.327	22.54
817.5	19.34
817.673	20.88
817.846	20.49
818.019	20.13
818.192	19.2
818.365	16.08
818.538	13.74
818.711	17.98
818.884	19.5
819.057	18.26
819.23	17.31
819.403	20.23
819.576	14.8
819.749	11.78
819.922	6.85
820.095	11.18
820.268	14.04
820.441	17.6
820.614	16.19
820.786	17.95
820.959	17.21
821.132	18.05
821.305	15.72
821.477	17.35
821.65	17.79
821.823	19.52
821.996	19.66
822.168	19.57
822.341	19
822.514	19.38
822.686	19.2
822.859	19.49
823.031	19.09
823.204	20.17
823.376	20.07
823.549	20.9
823.722	21.62
823.894	22.36
824.067	21.52
824.239	21.49
824.411	22.05
824.584	20.97
824.756	21.17
824.929	21.17
825.101	20.19
825.273	21.08
825.446	20.18
825.618	19.14
825.79	17.04
825.963	17.68
826.135	17.14
826.307	17.65
826.479	18.32
826.652	18.4
826.824	19.4
826.996	19.55
827.168	17.97
827.34	18.09
827.512	17.99
827.684	17.92
827.856	18.21
828.029	18.96
828.201	17.51
828.373	19.25
828.545	19.03
828.717	21.06
828.889	22.17
829.061	21.99
829.232	21.92
829.404	23.41
829.576	24.71
829.748	24.8
829.92	23.82
830.092	22.19
830.264	20.89
830.436	19.63
830.607	16.45
830.779	17.99
830.951	22.05
831.123	21.41
831.294	18.05
831.466	16.58
831.638	19.4
831.809	20.55
831.981	23.99
832.153	24.3
832.324	22.59
832.496	21.24
832.667	15.69
832.839	13.08
833.011	13.88
833.182	17.64
833.354	17.7
833.525	16.13
833.697	17.41
833.868	13.58
834.039	12.63
834.211	17.46
834.382	20.65
834.554	22.14
834.725	22.59
834.896	22.75
835.068	18.2
835.239	15.75
835.41	17.04
835.581	18.74
835.753	20.82
835.924	21.78
836.095	22.29
836.266	20.37
836.438	19.82
836.609	19.83
836.78	17.29
836.951	21.24
837.122	25.69
837.293	24.29
837.464	17.33
837.635	18.44
837.806	18.19
837.977	17.73
838.148	15.39
838.319	13.07
838.49	12.57
838.661	14.98
838.832	13.47
839.003	15.8
839.174	15.88
839.345	24.88
839.516	30.64
839.687	30.27
839.857	30.21
840.028	25.43
840.199	31.84
840.37	34.73
840.54	35.35
840.711	35.94
840.882	35.42
841.053	32.2
841.223	23.8
841.394	16.23
841.564	12.76
841.735	11.35
841.906	24.04
842.076	22.44
842.247	20.05
842.417	12.12
842.588	12.13
842.758	9.62
842.929	14.45
843.099	18.53
843.27	23.47
843.44	26.23
843.611	17.33
843.781	8.86
843.951	9.57
844.122	11.4
844.292	23.98
844.462	25.76
844.633	15.85
844.803	18.8
844.973	24.95
845.144	19.45
845.314	24.52
845.484	29.54
845.654	31.76
845.824	28.17
845.995	30.06
846.165	17.28
846.335	17.63
846.505	30.09
846.675	36
846.845	32.31
847.015	28.16
847.185	23.27
847.355	24.63
847.525	17.39
847.695	21.87
847.865	22.01
848.035	27.44
848.205	34.53
848.375	26.62
848.545	18.34
848.715	16.39
848.884	25.8
849.054	32.93
849.224	57.49
849.394	72.67
849.564	72.72
849.733	57.61
849.903	55.85
850.073	41.67
850.243	52.96
850.412	44.77
850.582	39.57
850.752	41.95
850.921	49.74
851.091	43.32
851.26	32.98
851.43	24
851.599	29.89
851.769	26.16
851.939	21.97
852.108	12.93
852.278	15.92
852.447	13.24
852.616	16.41
852.786	-0.15
852.955	-3.12
853.125	3.24
853.294	18.53
853.463	23.36
853.633	28.01
853.802	24.87
853.971	32.56
854.141	24.88
854.31	30.75
854.479	18.11
854.648	19.37
854.818	15.08
854.987	13.79
855.156	-1.66
855.325	-0.92
855.494	3.3
855.663	6
855.832	3.24
856.001	0.74
856.171	-11.24
856.34	-8.45
856.509	-8.51
856.678	-15.25
856.847	-11.69
857.016	-11.59
857.185	-11.03
857.353	-8.76
857.522	-1.56
857.691	-2.75
857.86	6.98
858.029	7.22
858.198	16.79
858.367	5.42
858.535	25.29
858.704	26.75
858.873	33.43
859.042	23.92
859.21	32.98
859.379	41.14
859.548	36.98
859.717	39.89
859.885	54.89
860.054	60.89
860.222	62.12
860.391	53.51
860.56	46.41
860.728	44
860.897	54.16
861.065	45.73
861.234	38.37
861.402	34.99
861.571	28.32
861.739	21.71
861.908	4.11
862.076	6.59
862.244	12.72
862.413	15.36
862.581	12.06
862.749	10.95
862.918	9.73
863.086	15.1
863.254	15.25
863.423	13.27
863.591	2.96
863.759	13.63
863.927	12.5
864.096	5.62
864.264	-7.5
864.432	-11.1
864.6	-34.6
864.768	-42.73
864.936	-53.63
865.104	-39.47
865.272	-23.44
865.44	-16.95
865.608	-8.09
865.776	-13.94
865.944	-15.72
866.112	19.85
866.28	23.31
866.448	29.19
866.616	35.25
866.784	45.18
866.952	48.86
867.12	43.79
867.288	48.09
867.455	37.35
867.623	33.19
867.791	38.01
867.959	29.39
868.127	30.66
868.294	26.35
868.462	20
868.63	22.6
868.797	21.89
868.965	27.6
869.133	22.88
869.3	32.87
869.468	43.68
869.636	41.91
869.803	41.34
869.971	41.65
870.138	61.61
870.306	84.07
870.473	79.13
870.641	86.06
870.808	86.13
870.975	80.65
871.143	62.43
871.31	57.15
871.478	53.26
871.645	73.02
871.812	69.11
871.98	53.3
872.147	49.27
872.314	46.56
872.482	44.25
872.649	32.02
872.816	32.96
872.983	46.79
873.15	48.3
873.318	41.79
873.485	35.53
873.652	32.99
873.819	34.33
873.986	33.59
874.153	29.72
874.32	39.13
874.487	73.4
874.654	89.15
874.821	83.69
874.988	85.4
875.155	79.74
875.322	72.04
875.489	79.29
875.656	80.29
875.823	56.72
875.99	59.25
876.157	55.97
876.324	29.62
876.49	8.73
876.657	1.55
876.824	-2.65
876.991	7.22
877.157	9.38
877.324	14.18
877.491	4.6
877.658	18.09
877.824	11.42
877.991	8.4
878.157	15.37
878.324	27.99
878.491	28.54
878.657	55.37
878.824	70.31
878.99	76.87
879.157	68.56
879.323	59.5
879.49	43.77
879.656	51.73
879.823	51.64
879.989	69.89
880.156	64.98
880.322	80.31
880.488	39.72
880.655	23.79
880.821	0.41
880.987	8.5
881.154	10.76
881.32	19.66
881.486	12.89
881.652	16.23
881.819	18.9
881.985	19.31
882.151	20.83
882.317	22.64
882.483	24.69
882.649	28.37
882.816	29.89
882.982	30.03
883.148	26.45
883.314	25.19
883.48	23.81
883.646	19.35
883.812	21.53
883.978	20.67
884.144	20.08
884.31	19.73
884.476	17.5
884.642	15.08
884.807	13.57
884.973	15.17
885.139	13.82
885.305	11.99
885.471	13.4
885.637	11.23
885.802	8.79
885.968	6.3
886.134	8.37
886.3	7.82
886.465	8.41
886.631	11.62
886.797	5.57
886.962	11.77
887.128	13.48
887.293	12.88
887.459	9.53
887.625	12.75
887.79	15.04
887.956	6.4
888.121	11.19
888.287	6.41
888.452	3.3
888.618	10.94
888.783	-3.63
