Data from 2938044_Reflection_2.txt Node
Date: Sun Jul 12 14:30:40 EDT 2015
User: robert
Spectrometer: USB4E03001
Autoset integration time: false
Trigger mode: 4
Integration Time (sec): 1.000000E-1
Scans to average: 10
Electric dark correction enabled: true
Nonlinearity correction enabled: false
Boxcar width: 5
Stray light correction enabled: false
XAxis mode: Wavelengths
Stop averaging: false
Number of Pixels in Spectrum: 3648
>>>>>Begin Spectral Data<<<<<
177.566	109.16
177.785	-280.76
178.005	29.75
178.225	87.63
178.445	157.33
178.665	26.47
178.885	83.94
179.105	851.61
179.324	-112.21
179.544	34.32
179.764	218.12
179.984	104.2
180.204	4.89
180.423	62.21
180.643	60.25
180.863	77.29
181.083	80.92
181.302	-2866.67
181.522	121.43
181.742	144.71
181.961	108.58
182.181	350.44
182.401	88.52
182.621	206.94
182.84	351
183.06	-4.7
183.279	-294.48
183.499	-245.6
183.719	-44.74
183.938	-43.45
184.158	-89.33
184.377	-73.35
184.597	-34.7
184.816	13.11
185.036	39.97
185.256	29.46
185.475	-112.68
185.695	33.68
185.914	54.1
186.134	58.52
186.353	-22.98
186.572	23.33
186.792	5.02
187.011	-9.74
187.231	-30.2
187.45	-158.19
187.67	-59.42
187.889	20.16
188.108	-48.83
188.328	-166.79
188.547	-202.94
188.766	-118.24
188.986	-288.88
189.205	-41.56
189.424	-44.94
189.644	-16.96
189.863	-4.31
190.082	-8.03
190.302	-4.92
190.521	-1.27
190.74	11.26
190.959	30.99
191.178	38.27
191.398	27.64
191.617	-8.91
191.836	4.53
192.055	30.74
192.274	108.58
192.494	102.94
192.713	857.71
192.932	257.34
193.151	-227.27
193.37	-107.35
193.589	113.3
193.808	-409.89
194.027	467.94
194.246	162.58
194.465	125.08
194.685	126.24
194.904	134.89
195.123	121.04
195.342	83.87
195.561	83.83
195.78	63.58
195.999	1.65
196.218	-26.93
196.436	-70.73
196.655	144.59
196.874	147.83
197.093	72.16
197.312	153.47
197.531	-30.38
197.75	116.39
197.969	-243.24
198.188	-614.6
198.407	-147.71
198.625	-23.97
198.844	-43.6
199.063	-16.87
199.282	-50.22
199.501	-33.53
199.719	23.87
199.938	38.76
200.157	50.76
200.376	58.02
200.594	34.41
200.813	32.18
201.032	29.42
201.251	63.78
201.469	17.76
201.688	67.36
201.907	38.08
202.125	2.91
202.344	-17.44
202.563	-55.1
202.781	-63.71
203	-5.38
203.218	-30.82
203.437	-9.46
203.656	-34.99
203.874	-38.8
204.093	-441.15
204.311	-283.48
204.53	-120.24
204.748	-666.01
204.967	-46.77
205.185	12.36
205.404	315.62
205.622	236.59
205.841	232.94
206.059	394.56
206.278	532.01
206.496	326.5
206.715	207.54
206.933	274.71
207.151	163.49
207.37	559.25
207.588	-151.48
207.806	106.42
208.025	72.35
208.243	68.86
208.461	3.73
208.68	36.55
208.898	58.64
209.116	47.25
209.335	63.74
209.553	87.2
209.771	92.51
209.989	97.22
210.208	94.37
210.426	81.67
210.644	62.43
210.862	60.68
211.081	50.57
211.299	30.89
211.517	51.71
211.735	53.63
211.953	38.69
212.171	21.03
212.39	-7.36
212.608	39.62
212.826	-25.51
213.044	29.06
213.262	3318.18
213.48	-797.01
213.698	163.99
213.916	142.7
214.134	75.04
214.352	45.01
214.57	44.16
214.788	50.71
215.006	25.66
215.224	47.62
215.442	49.38
215.66	58.92
215.878	53.42
216.096	55
216.314	71.08
216.532	101.31
216.75	127.87
216.968	114.44
217.185	101.38
217.403	132.45
217.621	105.79
217.839	91.64
218.057	73.64
218.275	68.98
218.492	66.38
218.71	47.05
218.928	28.12
219.146	16.25
219.363	9.36
219.581	15.24
219.799	-7.84
220.017	-1.49
220.234	-4.25
220.452	31.51
220.67	25.15
220.887	32.71
221.105	1.21
221.323	13.99
221.54	3.72
221.758	-1.26
221.976	1.81
222.193	37.23
222.411	26.36
222.629	26.64
222.846	-4.17
223.064	10.36
223.281	-5.85
223.499	14.5
223.716	-15
223.934	-33.91
224.151	-8.23
224.369	4.14
224.586	21.75
224.804	21.52
225.021	17.65
225.239	21.8
225.456	24.24
225.674	20.31
225.891	17.92
226.108	26.52
226.326	22.87
226.543	16.08
226.76	11.6
226.978	0.8
227.195	4.82
227.413	5.07
227.63	12.43
227.847	11.63
228.064	15.66
228.282	15.01
228.499	16.34
228.716	19.23
228.934	18.24
229.151	14.41
229.368	14.95
229.585	12.19
229.802	10.1
230.02	7.23
230.237	6.33
230.454	5.36
230.671	5.23
230.888	2.68
231.105	0.07
231.323	-1.04
231.54	1.23
231.757	-2.23
231.974	3.27
232.191	7.23
232.408	10.77
232.625	7.24
232.842	9.39
233.059	10.31
233.276	9.82
233.493	10.24
233.71	11.14
233.927	13.84
234.144	17.55
234.361	11.55
234.578	13.4
234.795	11.38
235.012	15.33
235.229	13.98
235.446	9.83
235.663	9.12
235.879	10.1
236.096	14.5
236.313	11.17
236.53	17.48
236.747	25.22
236.964	20.3
237.181	21.25
237.397	19.9
237.614	22.12
237.831	24.69
238.048	24.1
238.264	24.78
238.481	20.58
238.698	20.52
238.915	18.33
239.131	15.26
239.348	17.95
239.565	21.35
239.781	23.34
239.998	21.16
240.215	19.45
240.431	18.73
240.648	16.97
240.865	17.01
241.081	17.11
241.298	14.66
241.514	11.81
241.731	12.65
241.947	12
242.164	10.44
242.38	10.59
242.597	10.76
242.814	11.45
243.03	11.68
243.246	11.3
243.463	10.81
243.679	11.77
243.896	11.99
244.112	10.36
244.329	8.08
244.545	9.06
244.762	8.98
244.978	11.03
245.194	12.57
245.411	10.79
245.627	12.15
245.843	12.81
246.06	11.21
246.276	12
246.492	11.16
246.709	11.33
246.925	11.2
247.141	10.64
247.357	10.53
247.574	10.17
247.79	10.21
248.006	9.49
248.222	9.69
248.439	9.63
248.655	9.43
248.871	9.66
249.087	10.8
249.303	9.9
249.519	10.77
249.736	9.59
249.952	8.97
250.168	9.99
250.384	9.8
250.6	8.53
250.816	10
251.032	11.72
251.248	12.36
251.464	9.49
251.68	10.92
251.896	10.77
252.112	11.48
252.328	11.42
252.544	11.56
252.76	13.1
252.976	11.85
253.192	10.87
253.408	8.5
253.624	10.03
253.84	11.45
254.056	11.04
254.272	9.37
254.487	11.01
254.703	11.33
254.919	12.69
255.135	10.92
255.351	13.7
255.567	14.2
255.782	14.71
255.998	13.1
256.214	14.01
256.43	14.96
256.646	18.2
256.861	17.81
257.077	18.02
257.293	14.87
257.508	13.93
257.724	11.98
257.94	13.34
258.155	11.72
258.371	10.83
258.587	10.59
258.802	10.32
259.018	8.38
259.234	7.72
259.449	7.65
259.665	8.17
259.88	8.33
260.096	8.44
260.312	7.64
260.527	8.21
260.743	8.21
260.958	7.79
261.174	7.12
261.389	7.72
261.605	7.08
261.82	6.87
262.036	6.98
262.251	6.63
262.466	7.23
262.682	8.24
262.897	8.23
263.113	7.66
263.328	7.33
263.543	7.21
263.759	8.28
263.974	9.2
264.189	8.74
264.405	6.88
264.62	6.96
264.835	7
265.051	4.89
265.266	5.91
265.481	7.78
265.696	7.78
265.912	8.31
266.127	6.83
266.342	5.61
266.557	6.72
266.773	8.1
266.988	7.72
267.203	7.07
267.418	8.65
267.633	8.7
267.848	8.64
268.064	8.81
268.279	7.69
268.494	8.49
268.709	9.84
268.924	8.07
269.139	7.49
269.354	8.11
269.569	8.06
269.784	6.96
269.999	6.81
270.214	6.53
270.429	6.14
270.644	8.01
270.859	7.73
271.074	8.93
271.289	9.05
271.504	9.05
271.719	8.53
271.934	7.33
272.149	7.47
272.363	7.42
272.578	7.05
272.793	7.56
273.008	7.02
273.223	6.91
273.438	5.72
273.653	6.09
273.867	6.94
274.082	6.94
274.297	8.35
274.512	8.69
274.726	9.28
274.941	8.9
275.156	8.92
275.371	9.51
275.585	10.18
275.8	8.54
276.015	8.57
276.229	8.21
276.444	7
276.659	6.73
276.873	6.01
277.088	4.67
277.302	5.76
277.517	5.22
277.732	4.1
277.946	4.6
278.161	5.7
278.375	5.96
278.59	6.7
278.804	7.64
279.019	7.83
279.233	9.49
279.448	9.23
279.662	8.39
279.877	8.24
280.091	7.36
280.306	5.79
280.52	6.41
280.735	5.55
280.949	3.65
281.163	4.37
281.378	5.34
281.592	4.34
281.806	4.77
282.021	4.31
282.235	4.46
282.449	6.01
282.664	6.51
282.878	6.55
283.092	7.36
283.307	7.95
283.521	8.56
283.735	8.76
283.949	8.84
284.164	9.04
284.378	9.7
284.592	9.86
284.806	9.43
285.02	9.34
285.234	9.5
285.449	8.68
285.663	9.09
285.877	8.84
286.091	8.38
286.305	8.77
286.519	8.8
286.733	8.86
286.947	9.06
287.161	9.11
287.375	8.54
287.589	7.6
287.803	8.92
288.017	9.73
288.231	9.57
288.445	10.05
288.659	9.97
288.873	10.53
289.087	9.88
289.301	10.27
289.515	10.98
289.729	11.68
289.943	12.67
290.157	12.46
290.371	10.38
290.584	11.69
290.798	11.39
291.012	12.1
291.226	12.18
291.44	12.92
291.654	12.22
291.867	12.59
292.081	12.25
292.295	11.62
292.509	11.22
292.722	13.32
292.936	11.95
293.15	10.99
293.364	8.89
293.577	8.16
293.791	8.11
294.005	9.56
294.218	9.38
294.432	9.86
294.645	11.2
294.859	11.9
295.073	11.8
295.286	11.23
295.5	12.28
295.713	12.59
295.927	12.03
296.14	11.36
296.354	10.8
296.568	10.62
296.781	11.25
296.994	11.69
297.208	10.89
297.421	11.07
297.635	11.13
297.848	10.52
298.062	11.25
298.275	11.58
298.489	12.22
298.702	11.18
298.915	11.18
299.129	10.71
299.342	8.65
299.555	9.56
299.769	9.16
299.982	10.47
300.195	10.99
300.409	10.1
300.622	11.55
300.835	10.52
301.048	13.11
301.262	11.66
301.475	12.82
301.688	13.52
301.901	13.19
302.115	14.14
302.328	12.66
302.541	13.2
302.754	12.92
302.967	11.86
303.18	12.59
303.393	11.07
303.607	12.36
303.82	10.82
304.033	12.8
304.246	12.86
304.459	12.44
304.672	13.08
304.885	12.89
305.098	13.07
305.311	12.89
305.524	13.15
305.737	12.26
305.95	13.45
306.163	13.86
306.376	12.16
306.589	12.54
306.802	12
307.015	10.06
307.228	8.57
307.44	9.79
307.653	10.52
307.866	10.67
308.079	12.35
308.292	11.46
308.505	10.95
308.718	11.55
308.93	11.57
309.143	11.33
309.356	14.03
309.569	15.1
309.781	14.84
309.994	14.32
310.207	14.04
310.42	13.62
310.632	13.76
310.845	14.06
311.058	13.59
311.27	13.52
311.483	13.56
311.696	11.97
311.908	11.54
312.121	10.05
312.333	10.09
312.546	10.26
312.759	9.87
312.971	8.78
313.184	9.07
313.396	9.46
313.609	7.92
313.821	7.7
314.034	8.57
314.246	9.52
314.459	10.81
314.671	10.59
314.884	10.44
315.096	12.24
315.309	12.3
315.521	12.34
315.733	12.51
315.946	15.07
316.158	15.71
316.371	14.52
316.583	13.3
316.795	14.01
317.008	14.63
317.22	14.35
317.432	12.6
317.644	13.76
317.857	13.78
318.069	13.39
318.281	13.8
318.494	14.3
318.706	16.14
318.918	16.14
319.13	16.01
319.342	15.47
319.555	15.45
319.767	14.63
319.979	13.06
320.191	13.55
320.403	13.13
320.615	11.58
320.827	11.77
321.039	10.55
321.252	11.11
321.464	10.39
321.676	11.27
321.888	11.35
322.1	12.86
322.312	15.29
322.524	15.23
322.736	15.42
322.948	16.05
323.16	14.89
323.372	15.02
323.584	13.96
323.796	13.56
324.007	12.62
324.219	12.5
324.431	12.91
324.643	11.54
324.855	11.26
325.067	11.08
325.279	10.3
325.491	10.38
325.702	10.77
325.914	11.64
326.126	12.12
326.338	11.55
326.55	11.31
326.761	10.18
326.973	10.15
327.185	10.22
327.396	10.53
327.608	10.9
327.82	10.63
328.032	10.22
328.243	9.72
328.455	9.69
328.666	10.99
328.878	13.1
329.09	13.71
329.301	13.54
329.513	11.55
329.725	11.8
329.936	11.03
330.148	12.73
330.359	14.28
330.571	15.16
330.782	14.35
330.994	13.14
331.205	11.4
331.417	10.65
331.628	12.24
331.84	13.74
332.051	13.74
332.262	13.42
332.474	12.44
332.685	10.87
332.897	10.44
333.108	10.99
333.319	11.54
333.531	11.75
333.742	11.64
333.953	10.6
334.165	10.65
334.376	10.42
334.587	11.37
334.799	11.61
335.01	13.42
335.221	13.35
335.432	13.6
335.644	13.45
335.855	13.55
336.066	14.04
336.277	13.55
336.488	13.41
336.7	13.38
336.911	13.38
337.122	14.03
337.333	11.6
337.544	11.01
337.755	10.7
337.966	11.08
338.177	11.09
338.388	11.35
338.599	11.78
338.811	11.99
339.022	12.35
339.233	11.82
339.444	9.7
339.655	10.41
339.866	10.43
340.076	9.81
340.287	10.49
340.498	9.67
340.709	8.8
340.92	8.23
341.131	7.85
341.342	7.54
341.553	7.9
341.764	8.15
341.975	8.3
342.185	9.07
342.396	9.84
342.607	8.9
342.818	9.18
343.029	11.28
343.239	12.41
343.45	12.6
343.661	12.04
343.872	12.36
344.082	12.94
344.293	13.67
344.504	14.16
344.714	13.1
344.925	13.29
345.136	13.79
345.346	12.46
345.557	11.44
345.768	10.63
345.978	11.44
346.189	10.96
346.399	11.2
346.61	11.27
346.821	10.13
347.031	11.13
347.242	11.69
347.452	12.13
347.663	11.57
347.873	11.93
348.084	12.7
348.294	12.62
348.504	12.88
348.715	12.44
348.925	11.95
349.136	12.56
349.346	12.7
349.557	13.09
349.767	12.78
349.977	13.01
350.188	12.4
350.398	12.51
350.608	11.91
350.819	11.92
351.029	13.07
351.239	13.73
351.449	13.14
351.66	12.51
351.87	11.52
352.08	10.59
352.29	10.97
352.501	11.89
352.711	11.73
352.921	12.33
353.131	11.37
353.341	10.5
353.552	9.38
353.762	9.71
353.972	10.49
354.182	9.93
354.392	10.45
354.602	10.21
354.812	9.85
355.022	10.59
355.232	10.9
355.442	10.69
355.652	11.12
355.862	10.95
356.072	11.25
356.282	10.85
356.492	10.54
356.702	10.07
356.912	10.28
357.122	9.79
357.332	8.78
357.542	8.06
357.752	8.95
357.962	8.42
358.171	9.2
358.381	8.49
358.591	8.87
358.801	9.76
359.011	9.79
359.221	9.64
359.43	9.82
359.64	9.86
359.85	9.79
360.06	9.63
360.269	9.23
360.479	9.25
360.689	9.41
360.899	8.65
361.108	8.73
361.318	8.66
361.528	8.21
361.737	8.08
361.947	8.08
362.156	8.13
362.366	8.06
362.576	8.39
362.785	7.58
362.995	7.51
363.204	7.52
363.414	7.85
363.623	8.16
363.833	8.64
364.042	9.16
364.252	10
364.461	10.21
364.671	9.67
364.88	8.94
365.09	9.49
365.299	9.33
365.509	9.54
365.718	8.21
365.927	7.51
366.137	7.3
366.346	6.93
366.555	6.23
366.765	5.44
366.974	6.3
367.183	7.04
367.393	7.67
367.602	7.82
367.811	7.45
368.021	8.03
368.23	8.87
368.439	8.78
368.648	8.65
368.857	8.66
369.067	8.69
369.276	8.48
369.485	8.31
369.694	6.98
369.903	6.93
370.112	7.63
370.321	7.29
370.531	7.08
370.74	6.82
370.949	6.76
371.158	6.75
371.367	7.08
371.576	6.83
371.785	6.25
371.994	6.82
372.203	7.02
372.412	7.17
372.621	6.96
372.83	7.17
373.039	7.41
373.248	6.77
373.457	6.36
373.666	6.08
373.874	5.6
374.083	5.95
374.292	5.76
374.501	5.37
374.71	4.71
374.919	5.32
375.128	4.95
375.336	4.67
375.545	5.65
375.754	5.7
375.963	5.75
376.171	6.18
376.38	6.33
376.589	6.77
376.798	7.58
377.006	7.82
377.215	7.87
377.424	8.35
377.632	8.68
377.841	8.59
378.05	8.83
378.258	8.63
378.467	9.45
378.675	9.06
378.884	8.53
379.093	8.01
379.301	7.76
379.51	7.59
379.718	7.23
379.927	7.07
380.135	6.85
380.344	6.39
380.552	6.27
380.761	5.54
380.969	5.48
381.177	5.31
381.386	4.96
381.594	5.29
381.803	5.07
382.011	5.22
382.219	5
382.428	5.15
382.636	5.71
382.845	6.07
383.053	5.97
383.261	6.58
383.469	6.72
383.678	6.92
383.886	6.68
384.094	7.08
384.302	6.93
384.511	7.08
384.719	7.11
384.927	6.98
385.135	7.24
385.343	7.05
385.552	6.88
385.76	6.7
385.968	7.16
386.176	7.24
386.384	6.94
386.592	6.95
386.8	6.69
387.008	6.64
387.216	6.75
387.424	6.86
387.633	7.01
387.841	6.61
388.049	7.09
388.257	6.78
388.465	6.76
388.672	6.57
388.88	6.17
389.088	6.19
389.296	5.96
389.504	5.81
389.712	6.27
389.92	6.68
390.128	6.96
390.336	6.6
390.544	6.34
390.751	6.38
390.959	6.04
391.167	5.94
391.375	6.24
391.583	6.39
391.79	6.41
391.998	5.72
392.206	5.31
392.414	5.01
392.621	5.17
392.829	5.44
393.037	5.07
393.244	5.61
393.452	5.63
393.66	5.61
393.867	5.43
394.075	5.2
394.283	5.28
394.49	5.18
394.698	5.4
394.905	5.04
395.113	4.88
395.32	5.11
395.528	4.88
395.735	5.43
395.943	5.19
396.15	5.58
396.358	5.21
396.565	4.82
396.773	5.16
396.98	5.28
397.188	5.2
397.395	5.49
397.602	5.22
397.81	5.47
398.017	5.02
398.225	5.17
398.432	5.17
398.639	5.69
398.847	5.82
399.054	5.68
399.261	5.47
399.468	5.94
399.676	5.5
399.883	5.53
400.09	5.34
400.297	5.2
400.505	5.32
400.712	5.02
400.919	4.97
401.126	5.12
401.333	4.99
401.54	5.23
401.748	4.77
401.955	4.71
402.162	4.65
402.369	4.83
402.576	4.92
402.783	4.61
402.99	4.4
403.197	4.33
403.404	4.32
403.611	4.16
403.818	4.03
404.025	4.25
404.232	4.26
404.439	4.44
404.646	4.22
404.853	4.2
405.06	4.32
405.267	4.37
405.474	4.42
405.681	4.21
405.887	4.44
406.094	4.76
406.301	4.56
406.508	4.52
406.715	4.47
406.922	4.35
407.128	4.47
407.335	4.36
407.542	4.52
407.749	4.33
407.955	4.38
408.162	4.36
408.369	4.18
408.575	4.61
408.782	4.38
408.989	4.3
409.195	4.3
409.402	4.22
409.609	4.26
409.815	4.38
410.022	4.64
410.228	4.83
410.435	4.6
410.642	4.63
410.848	4.6
411.055	4.74
411.261	4.58
411.468	4.73
411.674	4.69
411.881	4.54
412.087	4.07
412.294	3.65
412.5	3.47
412.706	3.52
412.913	3.08
413.119	2.93
413.326	2.78
413.532	2.94
413.738	2.89
413.945	2.72
414.151	2.85
414.357	2.9
414.564	3.07
414.77	2.99
414.976	2.77
415.182	3.28
415.389	3.06
415.595	3.37
415.801	3.44
416.007	3.4
416.214	3.64
416.42	3.63
416.626	3.73
416.832	3.93
417.038	3.86
417.244	4.22
417.45	3.98
417.657	4.14
417.863	4.22
418.069	4.09
418.275	4.01
418.481	4.01
418.687	3.91
418.893	4
419.099	3.94
419.305	4.24
419.511	4.16
419.717	4.08
419.923	4.01
420.129	4.05
420.335	4.1
420.541	4.11
420.746	4.13
420.952	4.13
421.158	4.23
421.364	4.2
421.57	4.05
421.776	4.11
421.982	4.1
422.187	4.16
422.393	4.11
422.599	4.17
422.805	4.19
423.01	4.28
423.216	4.23
423.422	4.09
423.628	4.04
423.833	3.95
424.039	3.87
424.245	3.84
424.45	3.84
424.656	3.77
424.862	3.74
425.067	3.74
425.273	3.68
425.478	3.73
425.684	3.59
425.889	3.66
426.095	3.76
426.301	3.67
426.506	3.71
426.712	3.69
426.917	3.61
427.123	3.51
427.328	3.43
427.533	3.18
427.739	3.43
427.944	3.67
428.15	3.69
428.355	3.29
428.561	3.34
428.766	3.08
428.971	2.97
429.177	3.05
429.382	3.05
429.587	3
429.793	3.2
429.998	3.04
430.203	2.97
430.408	2.97
430.614	3.45
430.819	3.51
431.024	3.82
431.229	3.74
431.434	3.82
431.64	3.86
431.845	4.02
432.05	4.07
432.255	4.13
432.46	4.14
432.665	4.12
432.87	4.34
433.076	4.56
433.281	4.47
433.486	4.49
433.691	4.39
433.896	4.25
434.101	4.11
434.306	4.1
434.511	4.01
434.716	4.02
434.921	4.06
435.126	3.64
435.331	3.48
435.535	3.56
435.74	3.38
435.945	3.44
436.15	3.69
436.355	3.82
436.56	3.64
436.765	3.39
436.97	3.33
437.174	3.18
437.379	3.29
437.584	3.18
437.789	3.21
437.993	3.52
438.198	3.39
438.403	3.24
438.608	3.28
438.812	3.43
439.017	3.57
439.222	3.64
439.426	3.55
439.631	3.57
439.836	3.54
440.04	3.53
440.245	3.45
440.45	3.44
440.654	3.59
440.859	3.54
441.063	3.55
441.268	3.67
441.472	3.57
441.677	3.67
441.881	3.55
442.086	3.49
442.29	3.46
442.495	3.32
442.699	3.4
442.904	3.11
443.108	3.03
443.312	2.97
443.517	2.86
443.721	2.83
443.925	2.68
444.13	2.81
444.334	2.85
444.538	2.94
444.743	3.11
444.947	3.18
445.151	3.28
445.356	3.33
445.56	3.28
445.764	3.3
445.968	3.44
446.173	3.6
446.377	3.76
446.581	3.81
446.785	3.72
446.989	3.57
447.193	3.53
447.398	3.56
447.602	3.63
447.806	3.62
448.01	3.65
448.214	3.63
448.418	3.55
448.622	3.48
448.826	3.39
449.03	3.52
449.234	3.7
449.438	3.72
449.642	3.82
449.846	3.7
450.05	3.69
450.254	3.61
450.458	3.55
450.662	3.49
450.866	3.31
451.069	3.52
451.273	3.34
451.477	3.23
451.681	3.41
451.885	3.35
452.089	3.37
452.292	3.41
452.496	3.21
452.7	3.22
452.904	3.41
453.107	3.47
453.311	3.56
453.515	3.45
453.719	3.44
453.922	3.39
454.126	3.26
454.33	3.41
454.533	3.44
454.737	3.76
454.94	3.83
455.144	3.61
455.348	3.6
455.551	3.5
455.755	3.77
455.958	3.73
456.162	3.74
456.365	3.75
456.569	3.56
456.772	3.66
456.976	3.57
457.179	3.3
457.383	3.43
457.586	3.41
457.79	3.34
457.993	3.23
458.196	3.25
458.4	3.3
458.603	3.44
458.807	3.57
459.01	3.44
459.213	3.51
459.417	3.65
459.62	3.7
459.823	3.73
460.026	3.63
460.23	3.61
460.433	3.62
460.636	3.6
460.839	3.6
461.042	3.58
461.246	3.59
461.449	3.61
461.652	3.5
461.855	3.51
462.058	3.36
462.261	3.58
462.464	3.66
462.668	3.6
462.871	3.4
463.074	3.36
463.277	3.23
463.48	3.42
463.683	3.74
463.886	3.76
464.089	3.75
464.292	4.13
464.495	4.22
464.698	4.22
464.901	4.33
465.104	4.5
465.306	4.58
465.509	4.57
465.712	4.51
465.915	4.01
466.118	4.06
466.321	3.98
466.524	3.98
466.726	3.95
466.929	3.92
467.132	4.05
467.335	3.93
467.538	3.81
467.74	3.87
467.943	3.67
468.146	3.89
468.348	3.96
468.551	3.94
468.754	3.67
468.956	3.23
469.159	3.27
469.362	3.3
469.564	3.35
469.767	3.32
469.969	3.29
470.172	3.45
470.375	3.46
470.577	3.6
470.78	3.58
470.982	3.54
471.185	3.72
471.387	3.78
471.59	3.71
471.792	3.67
471.995	3.8
472.197	3.59
472.399	3.65
472.602	3.59
472.804	3.61
473.007	3.69
473.209	3.62
473.411	3.65
473.614	3.64
473.816	3.56
474.018	3.6
474.22	3.53
474.423	3.64
474.625	3.33
474.827	3.39
475.03	3.24
475.232	3.25
475.434	3.34
475.636	3.22
475.838	3.06
476.04	3
476.243	2.9
476.445	2.84
476.647	2.93
476.849	3
477.051	2.84
477.253	2.87
477.455	2.94
477.657	3.07
477.859	3.2
478.061	3.32
478.263	3.51
478.465	3.54
478.667	3.65
478.869	3.74
479.071	3.85
479.273	3.85
479.475	3.83
479.677	3.7
479.879	3.68
480.081	3.72
480.283	3.72
480.485	3.53
480.686	3.5
480.888	3.47
481.09	3.42
481.292	3.4
481.494	3.42
481.695	3.25
481.897	3.24
482.099	3.25
482.301	3.28
482.502	3.17
482.704	3.17
482.906	3.18
483.107	3.21
483.309	3.17
483.511	3.15
483.712	3.18
483.914	3.26
484.115	3.27
484.317	3.21
484.519	3.15
484.72	3.16
484.922	3.18
485.123	3.21
485.325	3.22
485.526	3.3
485.728	3.3
485.929	3.26
486.131	3.2
486.332	3.21
486.534	3.22
486.735	3.29
486.936	3.32
487.138	3.34
487.339	3.34
487.541	3.31
487.742	3.23
487.943	3.22
488.144	3.31
488.346	3.38
488.547	3.36
488.748	3.39
488.95	3.39
489.151	3.37
489.352	3.31
489.553	3.28
489.755	3.27
489.956	3.34
490.157	3.34
490.358	3.24
490.559	3.21
490.76	3.2
490.961	3.18
491.163	3.13
491.364	3.21
491.565	3.24
491.766	3.27
491.967	3.26
492.168	3.18
492.369	3.24
492.57	3.21
492.771	3.22
492.972	3.25
493.173	3.29
493.374	3.35
493.575	3.31
493.776	3.4
493.976	3.5
494.177	3.49
494.378	3.64
494.579	3.6
494.78	3.62
494.981	3.58
495.182	3.53
495.382	3.51
495.583	3.42
495.784	3.35
495.985	3.34
496.185	3.08
496.386	3.17
496.587	3.05
496.788	3.05
496.988	3.21
497.189	3.14
497.39	3.14
497.59	3.24
497.791	3.3
497.992	3.42
498.192	3.26
498.393	3.29
498.593	3.19
498.794	3.29
498.994	3.39
499.195	3.42
499.395	3.4
499.596	3.44
499.796	3.42
499.997	3.42
500.197	3.43
500.398	3.6
500.598	3.59
500.799	3.71
500.999	3.61
501.199	3.49
501.4	3.46
501.6	3.56
501.801	3.69
502.001	3.56
502.201	3.57
502.402	3.52
502.602	3.4
502.802	3.33
503.002	3.27
503.203	3.15
503.403	3.22
503.603	3.07
503.803	3.06
504.003	2.87
504.204	2.87
504.404	2.95
504.604	2.97
504.804	3.01
505.004	3.17
505.204	3.12
505.404	3.29
505.604	3.28
505.804	3.35
506.005	3.33
506.205	3.29
506.405	3.35
506.605	3.31
506.805	3.27
507.005	3.25
507.204	3.44
507.404	3.42
507.604	3.4
507.804	3.52
508.004	3.49
508.204	3.46
508.404	3.54
508.604	3.52
508.804	3.49
509.003	3.39
509.203	3.31
509.403	3.25
509.603	3.32
509.803	3.27
510.002	3.15
510.202	3.18
510.402	3.27
510.602	3.26
510.801	3.28
511.001	3.14
511.201	3.13
511.4	3.3
511.6	3.38
511.8	3.45
511.999	3.59
512.199	3.58
512.398	3.47
512.598	3.39
512.797	3.41
512.997	3.45
513.197	3.63
513.396	3.66
513.596	3.6
513.795	3.5
513.994	3.62
514.194	3.45
514.393	3.66
514.593	3.73
514.792	3.77
514.992	3.76
515.191	3.61
515.39	3.46
515.59	3.63
515.789	3.57
515.988	3.48
516.188	3.39
516.387	3.49
516.586	3.41
516.786	3.55
516.985	3.71
517.184	3.63
517.383	3.82
517.582	3.89
517.782	3.73
517.981	3.72
518.18	3.67
518.379	3.67
518.578	3.62
518.777	3.64
518.976	3.62
519.176	3.52
519.375	3.62
519.574	3.54
519.773	3.6
519.972	3.66
520.171	3.74
520.37	3.81
520.569	3.74
520.768	3.86
520.967	3.8
521.166	3.84
521.365	3.86
521.564	3.77
521.762	3.85
521.961	3.79
522.16	3.82
522.359	3.89
522.558	3.99
522.757	3.96
522.956	3.8
523.154	3.84
523.353	3.89
523.552	3.84
523.751	3.95
523.949	3.94
524.148	3.8
524.347	3.86
524.546	3.76
524.744	3.66
524.943	3.82
525.142	3.83
525.34	3.83
525.539	3.79
525.737	3.82
525.936	3.85
526.135	3.78
526.333	3.91
526.532	3.87
526.73	3.92
526.929	3.98
527.127	3.85
527.326	3.96
527.524	3.96
527.723	3.93
527.921	3.95
528.12	3.97
528.318	4.05
528.516	4.06
528.715	4.07
528.913	4.07
529.112	4.04
529.31	4.06
529.508	4.04
529.707	4.03
529.905	4.06
530.103	4.07
530.301	4.05
530.5	3.99
530.698	3.9
530.896	3.99
531.094	4.01
531.293	3.97
531.491	4.08
531.689	4.06
531.887	4.04
532.085	4.03
532.283	4
532.481	4.01
532.68	4.09
532.878	4.16
533.076	4.04
533.274	4.01
533.472	4.1
533.67	4.1
533.868	4.1
534.066	4.09
534.264	4.07
534.462	4.14
534.66	4.16
534.858	4.09
535.056	4.15
535.253	4.22
535.451	4.34
535.649	4.42
535.847	4.42
536.045	4.49
536.243	4.5
536.441	4.55
536.638	4.48
536.836	4.47
537.034	4.63
537.232	4.6
537.43	4.57
537.627	4.57
537.825	4.57
538.023	4.57
538.22	4.58
538.418	4.49
538.616	4.55
538.813	4.64
539.011	4.71
539.209	4.53
539.406	4.6
539.604	4.82
539.801	4.77
539.999	4.71
540.196	4.73
540.394	4.76
540.591	4.93
540.789	4.93
540.986	4.88
541.184	4.85
541.381	4.9
541.579	4.9
541.776	4.78
541.974	4.77
542.171	4.79
542.368	4.82
542.566	4.77
542.763	4.79
542.96	4.87
543.158	5.01
543.355	5.02
543.552	4.96
543.75	4.91
543.947	4.98
544.144	5.11
544.341	5.14
544.539	5.16
544.736	5.22
544.933	5.29
545.13	5.17
545.327	5.07
545.524	5.02
545.722	5.28
545.919	5.44
546.116	5.43
546.313	5.42
546.51	5.49
546.707	5.58
546.904	5.68
547.101	5.6
547.298	5.66
547.495	5.71
547.692	5.76
547.889	5.83
548.086	5.78
548.283	5.94
548.48	5.87
548.677	5.79
548.874	5.51
549.07	5.65
549.267	5.61
549.464	5.66
549.661	5.75
549.858	5.91
550.055	5.89
550.251	5.91
550.448	5.86
550.645	6
550.842	6.07
551.038	6.29
551.235	5.95
551.432	6.17
551.628	6.06
551.825	6.03
552.022	5.97
552.218	6.05
552.415	6.12
552.612	6.15
552.808	6.1
553.005	6.31
553.201	6.35
553.398	6.66
553.594	6.51
553.791	6.73
553.987	6.86
554.184	6.8
554.38	6.62
554.577	6.62
554.773	6.62
554.97	6.61
555.166	6.33
555.362	6.42
555.559	6.37
555.755	6.36
555.952	6.41
556.148	6.18
556.344	6.52
556.541	6.49
556.737	6.52
556.933	6.64
557.129	6.88
557.326	6.89
557.522	6.83
557.718	6.85
557.914	7.08
558.11	6.95
558.307	7.18
558.503	6.95
558.699	7.13
558.895	7.09
559.091	7.04
559.287	6.83
559.483	7.07
559.679	7.22
559.876	7.21
560.072	7.4
560.268	7.56
560.464	7.6
560.66	7.79
560.856	7.77
561.052	7.9
561.247	8.18
561.443	8.47
561.639	8.34
561.835	8.08
562.031	8.09
562.227	7.89
562.423	7.77
562.619	7.96
562.815	7.88
563.01	7.88
563.206	7.84
563.402	7.65
563.598	7.53
563.793	7.74
563.989	7.87
564.185	8.15
564.381	8.47
564.576	8.64
564.772	8.67
564.968	8.77
565.163	8.8
565.359	9.09
565.555	9.37
565.75	9.59
565.946	9.61
566.141	9.78
566.337	9.59
566.532	9.57
566.728	9.47
566.923	9.39
567.119	9.29
567.314	9.38
567.51	9.16
567.705	9.02
567.901	8.91
568.096	8.87
568.292	8.94
568.487	9.15
568.682	8.98
568.878	9.23
569.073	9.19
569.268	9.56
569.464	9.58
569.659	9.76
569.854	9.62
570.05	9.7
570.245	9.8
570.44	9.76
570.635	9.54
570.831	9.65
571.026	9.49
571.221	9.57
571.416	9.32
571.611	9.46
571.806	9.33
572.002	9.4
572.197	9.23
572.392	9.3
572.587	9.33
572.782	9.37
572.977	9.46
573.172	9.54
573.367	9.52
573.562	9.56
573.757	9.5
573.952	9.46
574.147	9.69
574.342	9.8
574.537	9.69
574.732	9.68
574.927	9.76
575.121	9.59
575.316	9.65
575.511	9.67
575.706	9.77
575.901	9.69
576.096	9.77
576.29	9.89
576.485	9.97
576.68	10.13
576.875	10.19
577.069	10.45
577.264	10.62
577.459	10.63
577.654	10.47
577.848	10.43
578.043	10.54
578.238	10.83
578.432	10.5
578.627	10.25
578.821	10.42
579.016	10.49
579.21	10.3
579.405	10.34
579.6	10.41
579.794	10.51
579.989	10.73
580.183	10.42
580.378	10.25
580.572	10.49
580.766	10.71
580.961	10.5
581.155	10.27
581.35	10.24
581.544	10.27
581.738	10.25
581.933	10.34
582.127	10.16
582.321	10.73
582.516	11
582.71	10.94
582.904	10.99
583.099	10.96
583.293	10.84
583.487	11.1
583.681	11.09
583.875	11.13
584.07	11.19
584.264	11.13
584.458	10.78
584.652	10.57
584.846	10.64
585.04	10.52
585.234	10.57
585.428	11.08
585.623	10.64
585.817	10.61
586.011	10.67
586.205	10.68
586.399	10.79
586.593	10.9
586.787	10.96
586.981	10.75
587.174	11.04
587.368	10.99
587.562	10.76
587.756	10.98
587.95	10.9
588.144	10.93
588.338	10.76
588.532	10.79
588.725	11.06
588.919	10.9
589.113	10.87
589.307	10.67
589.501	10.88
589.694	10.94
589.888	11.16
590.082	11.48
590.275	11.4
590.469	11.72
590.663	11.77
590.856	11.56
591.05	11.7
591.244	11.87
591.437	11.81
591.631	11.7
591.824	11.92
592.018	11.83
592.212	11.55
592.405	11.55
592.599	11.48
592.792	11.46
592.986	11.66
593.179	11.85
593.372	11.77
593.566	11.85
593.759	11.56
593.953	11.35
594.146	11.19
594.339	11.12
594.533	11.1
594.726	10.98
594.92	11.1
595.113	10.87
595.306	10.69
595.499	10.78
595.693	11.01
595.886	11.22
596.079	11.13
596.272	11.24
596.466	11.37
596.659	11.52
596.852	11.71
597.045	11.6
597.238	11.78
597.431	11.72
597.624	11.74
597.818	11.6
598.011	11.4
598.204	11.41
598.397	11.35
598.59	11.46
598.783	11.28
598.976	11.31
599.169	11.43
599.362	11.38
599.555	11.36
599.748	11.43
599.941	11.48
600.134	11.9
600.326	12.04
600.519	12.22
600.712	12.05
600.905	12.17
601.098	12.04
601.291	11.98
601.483	12.01
601.676	12.09
601.869	11.92
602.062	12.01
602.255	11.92
602.447	11.71
602.64	11.77
602.833	12.02
603.025	11.8
603.218	11.94
603.411	11.97
603.603	11.82
603.796	11.9
603.989	11.97
604.181	12.04
604.374	12.03
604.566	12
604.759	11.85
604.951	11.7
605.144	11.82
605.336	11.89
605.529	11.86
605.721	11.93
605.914	11.89
606.106	11.83
606.299	11.74
606.491	11.68
606.683	11.93
606.876	12.04
607.068	11.95
607.26	12.1
607.453	11.73
607.645	11.65
607.837	11.96
608.03	12.13
608.222	12.12
608.414	11.94
608.606	11.94
608.799	11.75
608.991	11.85
609.183	11.97
609.375	12.04
609.567	12.25
609.759	12.55
609.952	12.3
610.144	12.38
610.336	12.51
610.528	12.6
610.72	12.69
610.912	12.99
611.104	12.95
611.296	12.8
611.488	12.57
611.68	12.72
611.872	12.39
612.064	12.54
612.256	12.37
612.448	12.38
612.64	12.48
612.832	12.51
613.023	12.36
613.215	12.07
613.407	12.39
613.599	12.36
613.791	12.12
613.983	12.23
614.174	12.06
614.366	12.08
614.558	11.99
614.75	12.22
614.941	11.83
615.133	11.53
615.325	11.69
615.516	11.54
615.708	11.64
615.9	11.77
616.091	12
616.283	11.59
616.475	11.53
616.666	11.64
616.858	11.47
617.049	11.8
617.241	12.12
617.432	11.99
617.624	12.01
617.815	12.17
618.007	11.86
618.198	11.67
618.39	12.41
618.581	12.12
618.773	12.13
618.964	11.93
619.155	11.9
619.347	11.87
619.538	12.42
619.729	12.42
619.921	12.04
620.112	12.05
620.303	11.98
620.494	11.83
620.686	12.06
620.877	11.9
621.068	12.04
621.259	12.09
621.451	12.06
621.642	11.61
621.833	11.52
622.024	11.96
622.215	12.16
622.406	12.26
622.597	12.24
622.788	12.13
622.98	12.12
623.171	12.14
623.362	12.1
623.553	12.1
623.744	12.5
623.935	12.71
624.126	12.62
624.317	12.64
624.508	12.62
624.698	12.5
624.889	12.71
625.08	12.76
625.271	12.77
625.462	12.83
625.653	12.97
625.844	12.68
626.034	12.45
626.225	12.42
626.416	12.17
626.607	12.02
626.798	11.96
626.988	12.02
627.179	12.11
627.37	11.81
627.56	11.83
627.751	11.72
627.942	11.92
628.132	12.13
628.323	11.97
628.514	12.27
628.704	12.53
628.895	12.72
629.085	12.61
629.276	12.37
629.466	12.58
629.657	12.46
629.847	12.52
630.038	12.35
630.228	12.33
630.419	12.51
630.609	12.46
630.8	12.08
630.99	11.69
631.181	11.5
631.371	11.67
631.561	11.78
631.752	12.18
631.942	12.04
632.132	12.17
632.323	12.15
632.513	12.04
632.703	12.12
632.893	12.38
633.084	12.81
633.274	12.95
633.464	13.03
633.654	12.98
633.844	12.94
634.034	12.88
634.225	12.67
634.415	12.54
634.605	12.78
634.795	12.61
634.985	12.55
635.175	12.36
635.365	12.37
635.555	12.4
635.745	12.59
635.935	12.29
636.125	12.25
636.315	12.55
636.505	12.78
636.695	12.58
636.885	12.69
637.075	12.7
637.265	12.93
637.455	13.22
637.644	13.08
637.834	12.96
638.024	13.06
638.214	13.08
638.404	12.72
638.593	12.54
638.783	12.53
638.973	12.46
639.163	13.02
639.352	13.01
639.542	12.9
639.732	12.96
639.921	12.69
640.111	12.72
640.301	12.8
640.49	13.1
640.68	13.13
640.87	13.13
641.059	13.47
641.249	12.99
641.438	13.25
641.628	13.12
641.817	13.32
642.007	13.19
642.196	13.21
642.386	13.45
642.575	13.07
642.764	13.24
642.954	13.04
643.143	12.69
643.333	12.58
643.522	12.28
643.711	12.34
643.901	12.17
644.09	12.38
644.279	12.57
644.469	12.44
644.658	12.88
644.847	12.96
645.036	13.23
645.226	13.37
645.415	13.53
645.604	13.22
645.793	13.04
645.982	12.85
646.171	12.96
646.361	12.76
646.55	12.81
646.739	12.58
646.928	12.42
647.117	12.21
647.306	11.89
647.495	11.77
647.684	11.8
647.873	11.92
648.062	12.11
648.251	11.74
648.44	11.84
648.629	12.15
648.818	12.09
649.007	11.87
649.196	11.57
649.384	11.85
649.573	11.92
649.762	11.92
649.951	11.73
650.14	11.9
650.328	12.35
650.517	12.24
650.706	11.82
650.895	12.09
651.083	12.57
651.272	13.04
651.461	13.01
651.65	12.77
651.838	12.93
652.027	13.06
652.216	12.89
652.404	13.06
652.593	13.37
652.781	13.06
652.97	12.66
653.158	12.19
653.347	12.09
653.535	11.9
653.724	12.09
653.912	12.15
654.101	12.03
654.289	11.69
654.478	11.57
654.666	11.11
654.855	11.41
655.043	11.97
655.231	12.28
655.42	12
655.608	12.03
655.796	12.19
655.985	11.78
656.173	11.63
656.361	11.68
656.55	11.99
656.738	11.93
656.926	11.62
657.114	11.44
657.302	11.4
657.491	11.75
657.679	11.89
657.867	12.01
658.055	12.1
658.243	12.49
658.431	12.82
658.619	12.61
658.807	12.74
658.996	13.19
659.184	13.17
659.372	12.9
659.56	12.46
659.748	12.52
659.936	12.55
660.124	12.94
660.311	13.07
660.499	13.16
660.687	13.02
660.875	13.13
661.063	13.2
661.251	13.3
661.439	13.85
661.627	14.85
661.814	15.03
662.002	14.9
662.19	14.25
662.378	14.05
662.565	13.97
662.753	14.21
662.941	14.23
663.129	14.14
663.316	13.92
663.504	13.43
663.692	12.72
663.879	12.38
664.067	12.05
664.254	12.68
664.442	12.4
664.63	12.29
664.817	12.25
665.005	12.39
665.192	12.46
665.38	12.88
665.567	12.71
665.755	12.18
665.942	12.9
666.13	13.42
666.317	13.33
666.504	13.7
666.692	13.77
666.879	13.73
667.067	14.01
667.254	14.04
667.441	13.87
667.629	14.45
667.816	15.22
668.003	14.67
668.19	14.87
668.378	15.13
668.565	14.91
668.752	14.8
668.939	14.69
669.127	14.54
669.314	14.19
669.501	13.86
669.688	13.53
669.875	13.43
670.062	13.35
670.249	13.11
670.436	12.84
670.623	13.04
670.81	13.47
670.997	13.26
671.184	12.88
671.371	13.26
671.558	13.41
671.745	13.51
671.932	13.96
672.119	14.25
672.306	13.95
672.493	13.95
672.68	13.97
672.867	13.68
673.054	13.57
673.24	14.26
673.427	14.35
673.614	14.27
673.801	14.52
673.988	14.6
674.174	13.87
674.361	14.38
674.548	14.51
674.734	14.07
674.921	14.09
675.108	13.98
675.294	13.45
675.481	13.28
675.668	13.53
675.854	13.68
676.041	12.73
676.227	12.99
676.414	12.46
676.601	12.53
676.787	13.1
676.974	13.34
677.16	13.57
677.347	13.76
677.533	14.2
677.719	13.7
677.906	13.21
678.092	13.83
678.279	13.95
678.465	14.19
678.651	14.22
678.838	14
679.024	13.87
679.21	13.77
679.397	14.16
679.583	13.6
679.769	13.71
679.955	14
680.142	13.65
680.328	13.74
680.514	13.45
680.7	13.35
680.886	13.48
681.073	13.41
681.259	14.01
681.445	13.34
681.631	13.22
681.817	13.42
682.003	13.66
682.189	13.59
682.375	13.6
682.561	14.03
682.747	13.95
682.933	13.79
683.119	14.05
683.305	13.72
683.491	13.7
683.677	13.86
683.863	13.95
684.049	13.4
684.235	14.04
684.42	14.29
684.606	14.1
684.792	14.02
684.978	13.64
685.164	13.26
685.349	13.11
685.535	13.9
685.721	14.19
685.907	14.47
686.092	14.33
686.278	13.58
686.464	13.25
686.649	13.27
686.835	13
687.021	13
687.206	13.03
687.392	13.16
687.577	12.68
687.763	12.56
687.948	12.43
688.134	13.27
688.319	13.86
688.505	14.05
688.69	13.92
688.876	14.71
689.061	15.59
689.247	15.41
689.432	15.01
689.618	14.43
689.803	14.86
689.988	15.07
690.174	14.3
690.359	13.83
690.544	13.65
690.73	13.29
690.915	12.79
691.1	12.15
691.285	12.92
691.471	13.34
691.656	14.33
691.841	13.67
692.026	13.44
692.211	13.72
692.396	14.36
692.582	14.84
692.767	15.53
692.952	15.42
693.137	15.43
693.322	14.7
693.507	14.38
693.692	13.36
693.877	13.84
694.062	13.62
694.247	13.46
694.432	13.52
694.617	13.12
694.802	13.49
694.987	13.47
695.172	13.82
695.357	14.29
695.541	14.14
695.726	14.68
695.911	14.12
696.096	14.14
696.281	14.25
696.466	13.42
696.65	13.93
696.835	13
697.02	12.95
697.204	13.02
697.389	13.24
697.574	13.62
697.759	14
697.943	14.22
698.128	14.25
698.312	14.31
698.497	14.68
698.682	14.49
698.866	14.69
699.051	14.56
699.235	14.2
699.42	13.6
699.604	13.43
699.789	13.02
699.973	12.55
700.158	12.55
700.342	12.31
700.527	12.3
700.711	12.55
700.895	13.17
701.08	13.61
701.264	14.07
701.448	14.55
701.633	14.72
701.817	14.88
702.001	15.43
702.186	15.16
702.37	15.2
702.554	15.47
702.738	14.51
702.923	13.89
703.107	14.17
703.291	14.16
703.475	14.43
703.659	14.61
703.843	14.84
704.027	15.57
704.212	15.83
704.396	15.83
704.58	15.76
704.764	16.14
704.948	16.45
705.132	16.6
705.316	15.7
705.5	15.22
705.684	14.93
705.868	14.77
706.052	14.59
706.235	14.58
706.419	14.92
706.603	14.69
706.787	15.35
706.971	14.59
707.155	14.47
707.339	15.36
707.522	15.86
707.706	16.06
707.89	15.88
708.074	15.49
708.257	15.03
708.441	14.68
708.625	14.24
708.808	13.83
708.992	14.64
709.176	14.07
709.359	13.66
709.543	13.51
709.727	14.63
709.91	15.06
710.094	16.02
710.277	16.8
710.461	17.05
710.644	17.15
710.828	16.3
711.011	15.53
711.195	15.17
711.378	15.87
711.562	15.35
711.745	13.6
711.928	13.06
712.112	12.17
712.295	11.52
712.478	11.48
712.662	11.8
712.845	12.64
713.028	13.45
713.212	13.74
713.395	12.35
713.578	12.76
713.761	13.69
713.945	14.24
714.128	14.33
714.311	14.75
714.494	14.6
714.677	15.34
714.86	15.64
715.043	15.73
715.227	16.2
715.41	17.35
715.593	17.67
715.776	17.32
715.959	16.46
716.142	16.28
716.325	15.78
716.508	15.94
716.691	15.08
716.874	15.15
717.057	14.6
717.239	14.97
717.422	15.26
717.605	14.63
717.788	14.5
717.971	15.5
718.154	15.62
718.337	15.3
718.519	14.92
718.702	14.78
718.885	13.69
719.068	13.41
719.25	12.4
719.433	12.19
719.616	12.57
719.798	12.1
719.981	11.3
720.164	12.29
720.346	13.31
720.529	14.54
720.712	14.74
720.894	15.14
721.077	15
721.259	15.6
721.442	15.66
721.624	15.48
721.807	17.07
721.989	17.91
722.172	16.5
722.354	16.51
722.537	15.81
722.719	16.32
722.901	17.33
723.084	17.28
723.266	16.98
723.448	16.15
723.631	15.85
723.813	15.01
723.995	14.03
724.178	13.85
724.36	14.05
724.542	13.89
724.724	13.7
724.907	12.39
725.089	13.71
725.271	13.81
725.453	14.37
725.635	15.22
725.817	15.31
725.999	16.6
726.181	17.57
726.364	16.45
726.546	16.1
726.728	15.55
726.91	16.78
727.092	16.38
727.274	17.09
727.456	16.94
727.638	15.45
727.819	15.02
728.001	14.84
728.183	14.56
728.365	15.69
728.547	15.58
728.729	15.56
728.911	14.22
729.093	14.01
729.274	13.55
729.456	12.62
729.638	14.25
729.82	13.94
730.001	13.64
730.183	13.58
730.365	13.57
730.546	13.79
730.728	13.54
730.91	14.22
731.091	13.38
731.273	12.81
731.455	14.19
731.636	13.57
731.818	14.04
731.999	12.62
732.181	11.75
732.362	11.35
732.544	12.22
732.725	13.18
732.907	13.68
733.088	14.56
733.27	15.25
733.451	14.77
733.633	14.7
733.814	14.77
733.995	16.56
734.177	17.18
734.358	17.22
734.539	15.97
734.721	14.79
734.902	13.81
735.083	14.15
735.264	14.11
735.446	13.69
735.627	13.8
735.808	13.1
735.989	11.56
736.17	12.08
736.351	12.26
736.533	12.73
736.714	13.55
736.895	13.4
737.076	13.19
737.257	12.57
737.438	13.67
737.619	13.97
737.8	15.15
737.981	16.07
738.162	16.28
738.343	16.76
738.524	18
738.705	17.15
738.886	16.74
739.067	16.77
739.247	16.88
739.428	16.46
739.609	16.03
739.79	16.22
739.971	16.97
740.151	14.79
740.332	13.48
740.513	11.63
740.694	12.92
740.874	14.62
741.055	14.6
741.236	14.53
741.417	12.33
741.597	12.29
741.778	11.64
741.958	10.16
742.139	11.33
742.32	13.5
742.5	15.39
742.681	14.42
742.861	14.63
743.042	13.86
743.222	14.8
743.403	17.84
743.583	17.08
743.764	17.34
743.944	18.03
744.124	19.83
744.305	19.13
744.485	18.34
744.666	19.02
744.846	18.16
745.026	18.73
745.207	18.03
745.387	17.5
745.567	18.52
745.747	18.64
745.928	18.35
746.108	17.58
746.288	17.33
746.468	15.9
746.648	15.44
746.829	15.53
747.009	15.71
747.189	14.93
747.369	14.95
747.549	15.35
747.729	15.31
747.909	15.66
748.089	14.31
748.269	13.29
748.449	14.97
748.629	15.27
748.809	14.27
748.989	15.19
749.169	15.19
749.349	15.66
749.529	13.93
749.709	12.96
749.889	12.65
750.068	13.73
750.248	13.81
750.428	12.45
750.608	12.91
750.788	13.43
750.967	11.23
751.147	11.75
751.327	10.29
751.507	11.41
751.686	11.68
751.866	12.33
752.046	11.17
752.225	10.98
752.405	12.46
752.585	12.82
752.764	12.9
752.944	14.59
753.123	14.61
753.303	15.51
753.482	15.49
753.662	15.33
753.841	15.63
754.021	17.54
754.2	18.71
754.38	18.64
754.559	18.16
754.739	18.7
754.918	18.52
755.097	18.79
755.277	18.78
755.456	18.92
755.635	18.83
755.815	18.73
755.994	18.34
756.173	17.71
756.352	17.51
756.532	17.95
756.711	17.17
756.89	17.38
757.069	18.09
757.248	17.13
757.427	16.8
757.607	16.96
757.786	17.42
757.965	17.41
758.144	17.49
758.323	17.66
758.502	17.26
758.681	17.97
758.86	17.72
759.039	16.17
759.218	16.32
759.397	17.84
759.576	19.39
759.755	17.68
759.934	17.03
760.113	16.57
760.291	15
760.47	15.23
760.649	15.34
760.828	14.9
761.007	16.17
761.186	16.86
761.364	14.88
761.543	14.42
761.722	15.74
761.901	16.75
762.079	17.63
762.258	18.05
762.437	17.41
762.615	17.35
762.794	16.51
762.972	15.98
763.151	15.09
763.33	15.67
763.508	13.99
763.687	13.53
763.865	13.2
764.044	12.55
764.222	12.86
764.401	13.2
764.579	12.82
764.758	13.05
764.936	13.39
765.114	14.54
765.293	14.73
765.471	15.92
765.65	15.5
765.828	15.25
766.006	15.6
766.184	16.87
766.363	16.32
766.541	16.56
766.719	17.15
766.898	16.1
767.076	14.52
767.254	14.35
767.432	15.09
767.61	17.56
767.788	16.68
767.967	17.13
768.145	13.59
768.323	13.73
768.501	13.09
768.679	14.08
768.857	14.03
769.035	11.76
769.213	10.51
769.391	11.56
769.569	8.51
769.747	8.82
769.925	7.75
770.103	10.2
770.281	11.52
770.459	12.97
770.636	11.91
770.814	12.52
770.992	16.7
771.17	17.53
771.348	16.64
771.525	17.07
771.703	17.44
771.881	17.46
772.059	18.56
772.236	17.43
772.414	15.49
772.592	13.84
772.769	14.41
772.947	13.13
773.125	13.38
773.302	13.44
773.48	13.52
773.657	13.57
773.835	14.61
774.013	14.04
774.19	14.33
774.368	12.83
774.545	14.63
774.723	13.81
774.9	14.32
775.077	13.6
775.255	11.5
775.432	13.32
775.61	12.53
775.787	11.12
775.964	12.51
776.142	13.84
776.319	16.23
776.496	14.23
776.674	15.37
776.851	15.66
777.028	16.15
777.205	14.04
777.382	12.6
777.56	13.49
777.737	13.6
777.914	8.91
778.091	8.88
778.268	10.14
778.445	11.14
778.622	9.79
778.8	11.79
778.977	12.28
779.154	16.84
779.331	16.96
779.508	18.71
779.685	21.12
779.862	24.63
780.038	23.27
780.215	22.45
780.392	21.91
780.569	22.84
780.746	20.31
780.923	20.19
781.1	20.15
781.277	19.87
781.453	16.39
781.63	13.67
781.807	11.35
781.984	11.18
782.16	10.33
782.337	11.8
782.514	11.34
782.691	11.61
782.867	11.29
783.044	7.51
783.221	8.1
783.397	11.83
783.574	13.15
783.75	13.64
783.927	14.2
784.103	14.94
784.28	13.93
784.456	11.96
784.633	13.05
784.809	12
784.986	14.17
785.162	12.09
785.339	11.48
785.515	13.18
785.692	13.34
785.868	13.74
786.044	13.54
786.221	15.32
786.397	18.34
786.573	17.67
786.749	20.27
786.926	23.05
787.102	24.29
787.278	22.75
787.454	20.06
787.631	18.94
787.807	17.87
787.983	17.53
788.159	16.17
788.335	17.03
788.511	18.12
788.687	17.09
788.863	16.88
789.039	16.6
789.216	16.52
789.392	17.2
789.568	18.18
789.744	18.37
789.919	18.15
790.095	18.11
790.271	16.34
790.447	15.03
790.623	15.85
790.799	11.43
790.975	12.27
791.151	13.96
791.327	12.99
791.502	13.48
791.678	14.76
791.854	16.62
792.03	19.4
792.205	17.33
792.381	18.34
792.557	17.56
792.733	19.71
792.908	18.4
793.084	16.76
793.259	16.19
793.435	15.29
793.611	14.15
793.786	14.68
793.962	14.17
794.137	15.31
794.313	13.95
794.488	14.28
794.664	15.14
794.839	15.22
795.015	14.37
795.19	18.61
795.366	19.47
795.541	20.43
795.716	19.36
795.892	17.51
796.067	19.93
796.242	21.15
796.418	21.35
796.593	18.66
796.768	16.53
796.944	17.69
797.119	16.83
797.294	15.65
797.469	12.66
797.644	14.44
797.82	15.93
797.995	15.48
798.17	12.89
798.345	12.05
798.52	13.26
798.695	17.31
798.87	17.51
799.045	15.83
799.22	15.9
799.395	19.41
799.57	14.72
799.745	12.99
799.92	12.2
800.095	13.46
800.27	10.45
800.445	10.09
800.62	8.57
800.795	7.74
800.97	6.65
801.145	7.75
801.319	4.53
801.494	7.51
801.669	8.12
801.844	5.98
802.018	9.27
802.193	12.44
802.368	12.18
802.543	11.61
802.717	12.47
802.892	13.03
803.067	11.25
803.241	13.94
803.416	12.03
803.59	11.62
803.765	15.95
803.94	13.54
804.114	13.87
804.289	11.71
804.463	12.19
804.638	9.94
804.812	10.33
804.986	10.86
805.161	7.99
805.335	8.05
805.51	8.64
805.684	7.67
805.858	6.42
806.033	4.45
806.207	7.09
806.381	7.27
806.556	8.17
806.73	6.89
806.904	6.21
807.078	6.91
807.253	8.21
807.427	7.78
807.601	9.74
807.775	6.78
807.949	8.38
808.123	8.73
808.298	11.79
808.472	13.67
808.646	16.18
808.82	18.02
808.994	18.9
809.168	16.38
809.342	15.2
809.516	12.16
809.69	16.12
809.864	16.28
810.038	22.01
810.212	19.94
810.385	22.82
810.559	21.76
810.733	21.5
810.907	22.47
811.081	27.04
811.255	28.8
811.428	27.82
811.602	29.7
811.776	30.57
811.95	26.59
812.123	25.05
812.297	25.79
812.471	25.53
812.644	26.35
812.818	27.26
812.992	25.41
813.165	26.7
813.339	27.08
813.512	28.12
813.686	25.41
813.86	22.4
814.033	24.43
814.207	22.76
814.38	26.76
814.554	24.64
814.727	23.97
814.9	22.93
815.074	18.58
815.247	16.65
815.421	8.84
815.594	9.24
815.767	11.45
815.941	8.27
816.114	6.13
816.287	-0.06
816.46	5.97
816.634	9.51
816.807	9.83
816.98	14.96
817.153	14.27
817.327	17.26
817.5	21.38
817.673	15.52
817.846	20.19
818.019	23.54
818.192	25.7
818.365	21.1
818.538	18.24
818.711	19.55
818.884	20.41
819.057	21.82
819.23	18.07
819.403	16.4
819.576	21.3
819.749	19.06
819.922	14.38
820.095	13.32
820.268	16.5
820.441	15.51
820.614	15.26
820.786	13.2
820.959	15.61
821.132	17.76
821.305	17.12
821.477	17.17
821.65	16.33
821.823	17.51
821.996	17.43
822.168	16.49
822.341	17.26
822.514	18.19
822.686	19.09
822.859	18.9
823.031	18.83
823.204	18.79
823.376	18.33
823.549	18.95
823.722	18.37
823.894	18.68
824.067	17.78
824.239	16.57
824.411	16.25
824.584	15.44
824.756	14.56
824.929	14.23
825.101	14.07
825.273	14.72
825.446	14.53
825.618	16.01
825.79	15.64
825.963	17.57
826.135	18.35
826.307	19.2
826.479	19.48
826.652	20.05
826.824	20.54
826.996	21.16
827.168	19.82
827.34	18.41
827.512	16.64
827.684	16.04
827.856	17.04
828.029	17.52
828.201	14.8
828.373	14.65
828.545	15.04
828.717	14.74
828.889	14.21
829.061	12.96
829.232	15.45
829.404	14.65
829.576	16.36
829.748	14.66
829.92	13.99
830.092	16.27
830.264	13.71
830.436	11.6
830.607	13.48
830.779	13.16
830.951	16.01
831.123	14.05
831.294	19.68
831.466	19.6
831.638	20.01
831.809	20.34
831.981	18.56
832.153	18.83
832.324	19.45
832.496	18.14
832.667	15.41
832.839	15.8
833.011	17.98
833.182	16.6
833.354	18.26
833.525	14.97
833.697	14.86
833.868	15.72
834.039	18.09
834.211	19.91
834.382	19.4
834.554	23.29
834.725	20.5
834.896	19.9
835.068	18.01
835.239	16.39
835.41	17.53
835.581	18.37
835.753	18.63
835.924	17.33
836.095	14.19
836.266	12.04
836.438	10.2
836.609	12.79
836.78	12.11
836.951	12.21
837.122	11.84
837.293	14.46
837.464	16.28
837.635	14.92
837.806	18.99
837.977	21.04
838.148	23.86
838.319	25.13
838.49	27.4
838.661	24.56
838.832	27.4
839.003	25.95
839.174	25.66
839.345	23.39
839.516	28.77
839.687	28.85
839.857	27.94
840.028	21.76
840.199	20.4
840.37	18.07
840.54	19.98
840.711	20.02
840.882	21.79
841.053	20.76
841.223	21.7
841.394	18.76
841.564	12.57
841.735	14.22
841.906	23.51
842.076	24.93
842.247	26.13
842.417	28.73
842.588	28.05
842.758	22.23
842.929	17.75
843.099	17.58
843.27	15.8
843.44	22.44
843.611	25.92
843.781	27.2
843.951	27.07
844.122	25.28
844.292	24.19
844.462	18.32
844.633	23.36
844.803	23.26
844.973	16.53
845.144	16.5
845.314	9.83
845.484	11.94
845.654	3.21
845.824	-4.82
845.995	-3.6
846.165	-5.73
846.335	1.42
846.505	10.08
846.675	18.38
846.845	22.39
847.015	29.48
847.185	34.83
847.355	22.47
847.525	33.89
847.695	36.6
847.865	37.35
848.035	40.62
848.205	39.35
848.375	39.88
848.545	39.67
848.715	44.08
848.884	44.65
849.054	47.37
849.224	55.54
849.394	52.09
849.564	57.07
849.733	58.54
849.903	60.28
850.073	64.86
850.243	69.23
850.412	72.48
850.582	66.08
850.752	50.4
850.921	40.21
851.091	41.02
851.26	46.1
851.43	39.15
851.599	23.95
851.769	27.83
851.939	22.46
852.108	23.17
852.278	9.87
852.447	16.9
852.616	24.86
852.786	26
852.955	21.72
853.125	20.02
853.294	24.06
853.463	34.73
853.633	36.93
853.802	27.83
853.971	26.25
854.141	52.33
854.31	41.68
854.479	45.91
854.648	48.38
854.818	41.69
854.987	32.05
855.156	24.21
855.325	19.97
855.494	26.06
855.663	40.91
855.832	40.61
856.001	30.61
856.171	26.84
856.34	36.91
856.509	37.27
856.678	51.05
856.847	49.13
857.016	47.07
857.185	47.34
857.353	34.43
857.522	23.55
857.691	19.57
857.86	8.84
858.029	8.76
858.198	-17.08
858.367	-13.32
858.535	-23.58
858.704	-15.62
858.873	-34.27
859.042	-38.24
859.21	-24.49
859.379	-16.73
859.548	-6.47
859.717	11.33
859.885	27.18
860.054	35.89
860.222	26.62
860.391	9.89
860.56	17.39
860.728	28.3
860.897	30.53
861.065	29.88
861.234	32.59
861.402	28.47
861.571	36.93
861.739	27.29
861.908	29.79
862.076	34.93
862.244	50.24
862.413	43.41
862.581	50.11
862.749	54.27
862.918	51.38
863.086	47.61
863.254	50.58
863.423	34.38
863.591	39.08
863.759	33.38
863.927	22.77
864.096	29.04
864.264	42.81
864.432	44.26
864.6	35.35
864.768	35.2
864.936	35.24
865.104	30.25
865.272	35.88
865.44	44.37
865.608	49.92
865.776	55.01
865.944	43.18
866.112	40.78
866.28	40.7
866.448	43.08
866.616	42.91
866.784	37.74
866.952	31.58
867.12	35.47
867.288	23.81
867.455	30.28
867.623	29.14
867.791	49.24
867.959	50.49
868.127	58.68
868.294	60.06
868.462	52.73
868.63	40.51
868.797	67.84
868.965	60.39
869.133	41.13
869.3	14.8
869.468	10.82
869.636	-35.5
869.803	-21.12
869.971	-42.17
870.138	-26.93
870.306	-41.53
870.473	-32.2
870.641	-43.42
870.808	-45.84
870.975	-19.69
871.143	5.12
871.31	-11.41
871.478	-18.55
871.645	4.77
871.812	14.33
871.98	1.57
872.147	13.12
872.314	16.63
872.482	28.19
872.649	13.55
872.816	-1.29
872.983	-5.12
873.15	17.1
873.318	28.39
873.485	25.25
873.652	25.31
873.819	22.24
873.986	32.09
874.153	39.42
874.32	28.63
874.487	35.67
874.654	50.38
874.821	38.64
874.988	38.34
875.155	38.96
875.322	18.85
875.489	20.01
875.656	23.32
875.823	18.8
875.99	18.02
876.157	14.56
876.324	21.62
876.49	6.02
876.657	34.85
876.824	18.92
876.991	8.25
877.157	26.33
877.324	30.71
877.491	39.77
877.658	27.81
877.824	33.07
877.991	46.07
878.157	39.22
878.324	36.22
878.491	19.05
878.657	29.24
878.824	41.46
878.99	33.79
879.157	25.6
879.323	17.75
879.49	31.26
879.656	27.65
879.823	28.69
879.989	32.75
880.156	35.54
880.322	35.58
880.488	44.79
880.655	28.87
880.821	37.93
880.987	41.69
881.154	40.55
881.32	33.47
881.486	22.05
881.652	16.14
881.819	18.63
881.985	19.68
882.151	18.41
882.317	16.1
882.483	20.85
882.649	14.14
882.816	11.68
882.982	9.3
883.148	12.69
883.314	17.22
883.48	14.42
883.646	13.68
883.812	12.43
883.978	13.04
884.144	12.55
884.31	7.83
884.476	8.83
884.642	7.85
884.807	11.52
884.973	6.27
885.139	3.72
885.305	7.71
885.471	7.33
885.637	11.82
885.802	12.41
885.968	12.49
886.134	13.26
886.3	13.35
886.465	19.42
886.631	16.19
886.797	21.75
886.962	23.51
887.128	20.6
887.293	19.79
887.459	16.32
887.625	14.58
887.79	17.4
887.956	18
888.121	24.3
888.287	9.37
888.452	13.48
888.618	1.5
888.783	-5.32
