Data from 2938096_Reflection_1.txt Node
Date: Sat Jul 11 19:00:46 EDT 2015
User: robert
Spectrometer: USB4E03001
Autoset integration time: false
Trigger mode: 4
Integration Time (sec): 1.000000E-1
Scans to average: 10
Electric dark correction enabled: true
Nonlinearity correction enabled: false
Boxcar width: 5
Stray light correction enabled: false
XAxis mode: Wavelengths
Stop averaging: false
Number of Pixels in Spectrum: 3648
>>>>>Begin Spectral Data<<<<<
177.566	258.71
177.785	398.11
178.005	1143.7
178.225	376.77
178.445	233.49
178.665	175.44
178.885	-546.27
179.105	44.09
179.324	94.93
179.544	175.22
179.764	222.4
179.984	395.87
180.204	315.83
180.423	299.48
180.643	288.53
180.863	246.77
181.083	206.74
181.302	198.41
181.522	309.91
181.742	126.89
181.961	82.69
182.181	240.56
182.401	-6959.26
182.621	8.11
182.84	-83.14
183.06	-543.73
183.279	12.47
183.499	-34.62
183.719	46.18
183.938	53.94
184.158	57.06
184.377	45.35
184.597	60.62
184.816	53.86
185.036	-8.92
185.256	49.27
185.475	42.19
185.695	5.83
185.914	-17.7
186.134	-97.1
186.353	-161.89
186.572	-33850
186.792	-526.21
187.011	-111.23
187.231	-31.69
187.45	53.72
187.67	21.41
187.889	17.41
188.108	61.56
188.328	43.2
188.547	43.75
188.766	28.68
188.986	40.37
189.205	45.32
189.424	27.94
189.644	21.62
189.863	-42.62
190.082	-20.27
190.302	-89.2
190.521	-25.88
190.74	-119.7
190.959	-97.9
191.178	-941.86
191.398	503.93
191.617	115.4
191.836	71.6
192.055	31.84
192.274	8.87
192.494	18.57
192.713	-24.15
192.932	-4.77
193.151	-43.62
193.37	-116.53
193.589	-111.18
193.808	-163.37
194.027	-38.28
194.246	-63.15
194.465	-107.84
194.685	390.54
194.904	56.96
195.123	-407.67
195.342	724.09
195.561	-2284.15
195.78	183.55
195.999	-719.96
196.218	489.32
196.436	72.76
196.655	200.98
196.874	165.61
197.093	88.99
197.312	39.18
197.531	-229.38
197.75	-901.55
197.969	559.16
198.188	105.95
198.407	-92.62
198.625	-42.35
198.844	53.11
199.063	62.49
199.282	129.71
199.501	122.94
199.719	105.83
199.938	146.54
200.157	136.68
200.376	154.91
200.594	96.91
200.813	105.16
201.032	234.77
201.251	858.51
201.469	-335.61
201.688	-220.85
201.907	-152.22
202.125	-173.21
202.344	-205.89
202.563	-275.97
202.781	-241.45
203	-91
203.218	-75.22
203.437	-219.98
203.656	-245.53
203.874	647.91
204.093	182.8
204.311	329.35
204.53	384.54
204.748	254.08
204.967	397.11
205.185	-388.24
205.404	419.89
205.622	229.04
205.841	499.94
206.059	253.6
206.278	259.86
206.496	-2170.8
206.715	304.24
206.933	91.55
207.151	141.73
207.37	142.56
207.588	175.53
207.806	189.97
208.025	-59.51
208.243	-220.46
208.461	-147.23
208.68	-277.32
208.898	-1958.6
209.116	369.43
209.335	734.4
209.553	-411.73
209.771	-105.4
209.989	120.45
210.208	90.88
210.426	-33.61
210.644	-49.29
210.862	-136.15
211.081	1362.98
211.299	2667.05
211.517	279.42
211.735	210.27
211.953	201.01
212.171	160.74
212.39	133.19
212.608	176.44
212.826	91.71
213.044	88.32
213.262	73.7
213.48	70.65
213.698	30.32
213.916	-43.75
214.134	-143.78
214.352	-68.77
214.57	-47.99
214.788	-32.68
215.006	-12.6
215.224	-69.84
215.442	-154.49
215.66	-186.51
215.878	-280.46
216.096	-337.52
216.314	-113.78
216.532	-11.29
216.75	-41.53
216.968	26.07
217.185	-29.09
217.403	-67.41
217.621	-111.06
217.839	-3.52
218.057	25.21
218.275	30.27
218.492	18.86
218.71	10.33
218.928	6.66
219.146	34.06
219.363	-3.48
219.581	-7.65
219.799	-36.57
220.017	36.41
220.234	20.53
220.452	49.96
220.67	68.4
220.887	62.08
221.105	42.69
221.323	13.31
221.54	-4.35
221.758	0.47
221.976	0.19
222.193	-14.64
222.411	-33.78
222.629	-34.55
222.846	-39.54
223.064	-37.28
223.281	-32.4
223.499	-30.62
223.716	-20.61
223.934	-0.23
224.151	-14.13
224.369	-23.6
224.586	-6.48
224.804	-4.94
225.021	-12.96
225.239	-22.77
225.456	-50.99
225.674	-25.64
225.891	-38.75
226.108	-40.36
226.326	-33
226.543	-38.19
226.76	-32.95
226.978	-25.31
227.195	-12.21
227.413	-11.13
227.63	-5.51
227.847	-4.46
228.064	-6.18
228.282	-1.43
228.499	0.31
228.716	-0.28
228.934	1.88
229.151	2.56
229.368	-0.38
229.585	-0.37
229.802	-1.56
230.02	0.41
230.237	3.11
230.454	1.45
230.671	1.82
230.888	-2.54
231.105	-3.22
231.323	-0.58
231.54	1.54
231.757	5.98
231.974	4.78
232.191	5.27
232.408	-0.75
232.625	-7.32
232.842	-14.94
233.059	-18.1
233.276	-21.42
233.493	-17.22
233.71	-15.77
233.927	-14.71
234.144	-16.14
234.361	-24.85
234.578	-18.66
234.795	-23.39
235.012	-9.4
235.229	2.31
235.446	-1.01
235.663	-3.8
235.879	-4.74
236.096	-15.55
236.313	-18.05
236.53	-17.2
236.747	-6.19
236.964	-12.3
237.181	-7.47
237.397	-9.94
237.614	-12.16
237.831	-6.57
238.048	4.25
238.264	5.76
238.481	12.97
238.698	4.99
238.915	1.87
239.131	1
239.348	1.28
239.565	-2.7
239.781	-4.1
239.998	-0.97
240.215	0.82
240.431	3.69
240.648	6.86
240.865	8.91
241.081	10.66
241.298	12.43
241.514	11.62
241.731	13.03
241.947	15.27
242.164	15.5
242.38	15
242.597	14.32
242.814	15.03
243.03	12.46
243.246	10.92
243.463	13.51
243.679	12.96
243.896	14.23
244.112	13.32
244.329	13.26
244.545	11.71
244.762	11.99
244.978	13.56
245.194	10.51
245.411	9.1
245.627	8.09
245.843	7.3
246.06	7.34
246.276	7.55
246.492	8.5
246.709	8.32
246.925	9.36
247.141	9.19
247.357	8.6
247.574	9.07
247.79	9.09
248.006	9.16
248.222	9.46
248.439	10.15
248.655	9.54
248.871	10.62
249.087	9.59
249.303	8.91
249.519	8.39
249.736	8.95
249.952	10.29
250.168	10.75
250.384	11
250.6	6.64
250.816	5.72
251.032	4.57
251.248	-0.11
251.464	1.55
251.68	2.2
251.896	1.56
252.112	1.2
252.328	-2.13
252.544	-1.7
252.76	-2.29
252.976	-1.12
253.192	-2.35
253.408	-1.75
253.624	0.14
253.84	-1.41
254.056	0.8
254.272	2.65
254.487	1.27
254.703	0.24
254.919	0.06
255.135	-0.48
255.351	-0.59
255.567	2.18
255.782	1.38
255.998	-0.01
256.214	4.5
256.43	2.09
256.646	0.66
256.861	2.77
257.077	7.44
257.293	9.31
257.508	10.05
257.724	9.73
257.94	8.86
258.155	7.12
258.371	6.8
258.587	5.21
258.802	6.4
259.018	6.13
259.234	5.32
259.449	4.24
259.665	4.39
259.88	4.89
260.096	5.87
260.312	6.16
260.527	7.07
260.743	6.87
260.958	6.47
261.174	5.93
261.389	5.42
261.605	5.27
261.82	5.95
262.036	4.05
262.251	3.82
262.466	1.72
262.682	-0.2
262.897	-1.04
263.113	0.5
263.328	1.8
263.543	2.44
263.759	5.99
263.974	8.22
264.189	6.73
264.405	8.54
264.62	8.65
264.835	8.78
265.051	10.13
265.266	11.01
265.481	8.39
265.696	9.87
265.912	9.16
266.127	7.02
266.342	5.38
266.557	6.73
266.773	6.9
266.988	5.27
267.203	7.24
267.418	7.17
267.633	5.26
267.848	6.14
268.064	5.59
268.279	4.21
268.494	3.26
268.709	2.11
268.924	0.54
269.139	1.16
269.354	0.16
269.569	0.53
269.784	-0.76
269.999	1.42
270.214	0.5
270.429	-0.79
270.644	2.21
270.859	2.05
271.074	3.35
271.289	3.79
271.504	3.73
271.719	5.37
271.934	4.49
272.149	6.15
272.363	6
272.578	6.66
272.793	7.12
273.008	5.9
273.223	6.07
273.438	6.24
273.653	7.11
273.867	6.55
274.082	7.01
274.297	6.62
274.512	6.94
274.726	7.22
274.941	6.8
275.156	6.21
275.371	5.56
275.585	7.03
275.8	7.1
276.015	6.96
276.229	7.24
276.444	6.71
276.659	6.58
276.873	5.51
277.088	6.25
277.302	7.32
277.517	6.54
277.732	6.87
277.946	5.6
278.161	4.71
278.375	1.93
278.59	2.83
278.804	1.95
279.019	3.17
279.233	2.95
279.448	0.98
279.662	1.03
279.877	1.73
280.091	2.2
280.306	3.8
280.52	4.85
280.735	6.36
280.949	5.47
281.163	6.56
281.378	5.97
281.592	5.6
281.806	5.77
282.021	4.87
282.235	4.29
282.449	4.5
282.664	4.32
282.878	4.3
283.092	5.02
283.307	5.7
283.521	5.4
283.735	4.93
283.949	5.61
284.164	6.18
284.378	5.68
284.592	6.88
284.806	6.72
285.02	5.96
285.234	6.14
285.449	7.02
285.663	6.55
285.877	6.55
286.091	6.74
286.305	7.49
286.519	7.53
286.733	9.51
286.947	9.12
287.161	9.51
287.375	9.94
287.589	10.19
287.803	9.45
288.017	9.93
288.231	10.78
288.445	10.53
288.659	8.77
288.873	8.37
289.087	8.21
289.301	8.1
289.515	7.53
289.729	6.6
289.943	6.11
290.157	4.95
290.371	5.69
290.584	3.67
290.798	5.12
291.012	4.73
291.226	4.98
291.44	4.85
291.654	5.65
291.867	5.73
292.081	5.12
292.295	4.39
292.509	6.62
292.722	5.57
292.936	7.53
293.15	4.47
293.364	5.45
293.577	4.2
293.791	3.12
294.005	3.27
294.218	4.56
294.432	6.58
294.645	7.96
294.859	6.98
295.073	8.04
295.286	7.6
295.5	9.01
295.713	10.09
295.927	11.41
296.14	10.89
296.354	10.76
296.568	10.58
296.781	10.23
296.994	10.96
297.208	10.68
297.421	9.76
297.635	9.95
297.848	9.99
298.062	9.53
298.275	9.35
298.489	9.9
298.702	9.32
298.915	8.25
299.129	8.07
299.342	6.96
299.555	6.73
299.769	6.7
299.982	7.54
300.195	7.71
300.409	7.5
300.622	7.54
300.835	8.19
301.048	9.17
301.262	10.16
301.475	11.24
301.688	12.08
301.901	12.5
302.115	13.68
302.328	12.13
302.541	12.03
302.754	13.51
302.967	12.62
303.18	10.32
303.393	11.24
303.607	11.45
303.82	9.82
304.033	9.68
304.246	8.5
304.459	8.14
304.672	8.19
304.885	8.74
305.098	6.12
305.311	6.98
305.524	8.29
305.737	5.67
305.95	4.6
306.163	4.86
306.376	5
306.589	6.91
306.802	7.29
307.015	6.42
307.228	5.7
307.44	7.15
307.653	6.82
307.866	7.95
308.079	8.96
308.292	9.55
308.505	10.44
308.718	8.06
308.93	6.43
309.143	6.17
309.356	9.47
309.569	9.66
309.781	9.61
309.994	8.2
310.207	8.66
310.42	8.83
310.632	8.84
310.845	8.2
311.058	9.72
311.27	9.8
311.483	10.17
311.696	9.42
311.908	10.18
312.121	10.63
312.333	12.47
312.546	11.89
312.759	12.02
312.971	11.47
313.184	13.23
313.396	13.07
313.609	14.07
313.821	13.07
314.034	12.9
314.246	11.83
314.459	12.27
314.671	13.01
314.884	12.31
315.096	12.75
315.309	12.35
315.521	11.29
315.733	10.54
315.946	11.53
316.158	12.86
316.371	11.97
316.583	11.95
316.795	10.59
317.008	9.54
317.22	10.03
317.432	10.11
317.644	12.33
317.857	12.8
318.069	14.5
318.281	14.3
318.494	12.74
318.706	13.42
318.918	14.04
319.13	14.03
319.342	13.87
319.555	13.68
319.767	15.24
319.979	13.71
320.191	13.97
320.403	12.44
320.615	11.24
320.827	12.44
321.039	11.68
321.252	11.47
321.464	12.59
321.676	12
321.888	13.23
322.1	11.51
322.312	10.79
322.524	10.08
322.736	10.71
322.948	9.91
323.16	9.45
323.372	10.69
323.584	10.52
323.796	10.27
324.007	8.91
324.219	7.35
324.431	7.65
324.643	9.05
324.855	9.6
325.067	9.78
325.279	10.25
325.491	10.37
325.702	9.43
325.914	9.97
326.126	9.33
326.338	10.27
326.55	10.83
326.761	9.81
326.973	10.56
327.185	9.71
327.396	9.73
327.608	10.91
327.82	10.63
328.032	10.78
328.243	11.13
328.455	11.66
328.666	12.15
328.878	12.67
329.09	13.75
329.301	13.06
329.513	13.59
329.725	14.65
329.936	14.07
330.148	14.54
330.359	15.99
330.571	16.76
330.782	16.09
330.994	16.46
331.205	15.89
331.417	15.42
331.628	15.6
331.84	15.93
332.051	13.84
332.262	13.09
332.474	12.29
332.685	12.58
332.897	10.4
333.108	11.53
333.319	12.43
333.531	12.75
333.742	14.42
333.953	13.85
334.165	14.39
334.376	14.79
334.587	14.4
334.799	14.05
335.01	13.22
335.221	14.48
335.432	14.2
335.644	12.94
335.855	12.64
336.066	10.81
336.277	11.37
336.488	10.52
336.7	10.82
336.911	12.14
337.122	12.62
337.333	12.2
337.544	11.09
337.755	12.33
337.966	13.39
338.177	14.29
338.388	15.17
338.599	14.19
338.811	13.46
339.022	13.42
339.233	13.05
339.444	12.93
339.655	12.18
339.866	12.44
340.076	10.72
340.287	9.99
340.498	9.81
340.709	9.29
340.92	10.81
341.131	12.34
341.342	13.21
341.553	13.48
341.764	15.11
341.975	15.62
342.185	16.19
342.396	16.56
342.607	17.24
342.818	17.48
343.029	17.88
343.239	18.05
343.45	17.19
343.661	15.96
343.872	16.65
344.082	15.89
344.293	16.04
344.504	15.57
344.714	14.62
344.925	14.55
345.136	14.31
345.346	14.69
345.557	13.49
345.768	13.4
345.978	13.86
346.189	12.39
346.399	12
346.61	11.72
346.821	12.44
347.031	12.91
347.242	11.4
347.452	11.5
347.663	11.01
347.873	10.83
348.084	10.44
348.294	9.58
348.504	9.96
348.715	9.16
348.925	9.51
349.136	9.21
349.346	10.51
349.557	10.93
349.767	9.83
349.977	9.08
350.188	9.55
350.398	10.71
350.608	12.9
350.819	13.7
351.029	15.93
351.239	16.2
351.449	16.37
351.66	15.4
351.87	17.28
352.08	16.86
352.29	17.65
352.501	18.67
352.711	19.15
352.921	17.66
353.131	17.29
353.341	16.3
353.552	16.16
353.762	16.12
353.972	15.77
354.182	14.99
354.392	16.11
354.602	15.55
354.812	15.55
355.022	14.64
355.232	15.42
355.442	15.06
355.652	14.07
355.862	13.83
356.072	13.67
356.282	13.79
356.492	13.37
356.702	12.73
356.912	13.11
357.122	11.94
357.332	11.97
357.542	11.11
357.752	11.71
357.962	11.92
358.171	11.67
358.381	12.36
358.591	12.76
358.801	12.62
359.011	13.28
359.221	12.99
359.43	13.19
359.64	12.83
359.85	13.24
360.06	13.11
360.269	13.36
360.479	13.89
360.689	13.4
360.899	12.94
361.108	12.69
361.318	12.19
361.528	12.1
361.737	12.51
361.947	12.58
362.156	12.57
362.366	12.11
362.576	11.81
362.785	11.54
362.995	11.7
363.204	12.18
363.414	11.56
363.623	12.03
363.833	11.72
364.042	10.89
364.252	11.7
364.461	12.28
364.671	12.56
364.88	13.57
365.09	13.11
365.299	12.7
365.509	12.68
365.718	13.63
365.927	12.97
366.137	12.96
366.346	13.13
366.555	12.27
366.765	10.79
366.974	10.54
367.183	9.96
367.393	9.69
367.602	9.62
367.811	9.12
368.021	8.69
368.23	9.27
368.439	9.83
368.648	9.64
368.857	10.03
369.067	10.18
369.276	10.59
369.485	10.21
369.694	10.48
369.903	10.12
370.112	10.26
370.321	10.56
370.531	9.89
370.74	10.12
370.949	10.82
371.158	10.73
371.367	10.93
371.576	10.55
371.785	10.31
371.994	9.78
372.203	9.55
372.412	9.38
372.621	9.09
372.83	9.28
373.039	9.26
373.248	8.83
373.457	8.51
373.666	8.53
373.874	8.18
374.083	7.85
374.292	9.31
374.501	10.09
374.71	10.36
374.919	10.76
375.128	10.61
375.336	10.78
375.545	10.64
375.754	10.78
375.963	10.77
376.171	10.73
376.38	11.16
376.589	10.42
376.798	10.48
377.006	9.42
377.215	8.54
377.424	8.62
377.632	7.71
377.841	8.09
378.05	7.66
378.258	7.47
378.467	8
378.675	7.78
378.884	7.62
379.093	6.55
379.301	7.5
379.51	8.23
379.718	7.88
379.927	8.01
380.135	7.75
380.344	8.37
380.552	8.99
380.761	8.58
380.969	8.53
381.177	8.23
381.386	8.85
381.594	8.84
381.803	8.9
382.011	9.48
382.219	9.16
382.428	8.89
382.636	8.17
382.845	7.35
383.053	7.27
383.261	7.52
383.469	8.23
383.678	8
383.886	8.19
384.094	8.36
384.302	8.37
384.511	8.2
384.719	8.45
384.927	8.69
385.135	8.56
385.343	8.72
385.552	8.46
385.76	8.23
385.968	8.1
386.176	7.71
386.384	7.4
386.592	7.09
386.8	7.37
387.008	7.08
387.216	6.24
387.424	6.88
387.633	6.92
387.841	6.59
388.049	6.29
388.257	6.02
388.465	6.16
388.672	5.94
388.88	5.67
389.088	5.98
389.296	5.75
389.504	6.32
389.712	6.08
389.92	5.61
390.128	5.97
390.336	5.96
390.544	6.22
390.751	5.34
390.959	5.27
391.167	5.47
391.375	5.3
391.583	5.57
391.79	5.69
391.998	5.17
392.206	5.34
392.414	5.21
392.621	5.43
392.829	5.6
393.037	5.94
393.244	5.98
393.452	6.09
393.66	6.02
393.867	5.85
394.075	5.7
394.283	5.94
394.49	6.07
394.698	6.08
394.905	5.65
395.113	5.33
395.32	5.33
395.528	5.23
395.735	4.59
395.943	4.57
396.15	4.41
396.358	4.71
396.565	5.01
396.773	4.9
396.98	4.93
397.188	5.07
397.395	5.1
397.602	5.19
397.81	5.31
398.017	5.5
398.225	5.29
398.432	5.43
398.639	5.09
398.847	4.69
399.054	4.71
399.261	4.6
399.468	4.57
399.676	4.82
399.883	4.79
400.09	4.7
400.297	4.95
400.505	4.98
400.712	4.77
400.919	4.75
401.126	4.58
401.333	4.34
401.54	4.21
401.748	4.38
401.955	4.07
402.162	4.04
402.369	4.1
402.576	4.1
402.783	3.82
402.99	3.95
403.197	4.03
403.404	4.1
403.611	4.06
403.818	4.07
404.025	3.99
404.232	4.11
404.439	4.18
404.646	4.05
404.853	4.11
405.06	4.47
405.267	4.52
405.474	4.06
405.681	4.15
405.887	4.16
406.094	4.23
406.301	4.29
406.508	4.24
406.715	4.17
406.922	4.37
407.128	4.38
407.335	4.35
407.542	4.39
407.749	4.77
407.955	4.57
408.162	4.74
408.369	4.77
408.575	4.53
408.782	4.22
408.989	4.34
409.195	4.18
409.402	3.86
409.609	3.86
409.815	3.72
410.022	3.44
410.228	3.66
410.435	3.71
410.642	3.77
410.848	3.78
411.055	4.21
411.261	3.89
411.468	3.66
411.674	3.71
411.881	3.71
412.087	3.77
412.294	3.81
412.5	3.75
412.706	3.66
412.913	3.46
413.119	3.49
413.326	3.13
413.532	3.53
413.738	3.76
413.945	3.91
414.151	3.9
414.357	3.78
414.564	3.97
414.77	3.87
414.976	3.89
415.182	4.13
415.389	4.32
415.595	4.52
415.801	4.33
416.007	4.58
416.214	4.42
416.42	4.45
416.626	4.38
416.832	4.37
417.038	4.55
417.244	4.55
417.45	4.33
417.657	4.11
417.863	4.1
418.069	4.21
418.275	3.95
418.481	3.91
418.687	3.85
418.893	4.16
419.099	4.04
419.305	3.97
419.511	3.87
419.717	4.03
419.923	4.07
420.129	4
420.335	3.91
420.541	4.01
420.746	4.17
420.952	4.16
421.158	3.89
421.364	3.97
421.57	4.06
421.776	4.14
421.982	4
422.187	4.09
422.393	4.06
422.599	4.05
422.805	4.02
423.01	3.93
423.216	3.94
423.422	4
423.628	3.94
423.833	3.86
424.039	3.84
424.245	3.87
424.45	3.72
424.656	3.89
424.862	3.83
425.067	3.85
425.273	3.93
425.478	3.92
425.684	3.97
425.889	4.01
426.095	4
426.301	4.02
426.506	4.02
426.712	4.09
426.917	3.87
427.123	3.96
427.328	3.9
427.533	3.84
427.739	3.67
427.944	3.62
428.15	3.59
428.355	3.33
428.561	3.39
428.766	3.38
428.971	3.25
429.177	3.59
429.382	3.41
429.587	3.35
429.793	3.14
429.998	3.33
430.203	3.46
430.408	3.42
430.614	3.53
430.819	3.48
431.024	3.41
431.229	3.62
431.434	3.41
431.64	3.64
431.845	3.76
432.05	3.77
432.255	3.73
432.46	3.49
432.665	3.45
432.87	3.69
433.076	3.69
433.281	3.66
433.486	3.71
433.691	3.53
433.896	3.54
434.101	3.35
434.306	3.28
434.511	3
434.716	3.12
434.921	3.32
435.126	3.01
435.331	2.69
435.535	2.84
435.74	2.66
435.945	2.99
436.15	2.93
436.355	3.08
436.56	3.24
436.765	3.38
436.97	3.28
437.174	3.1
437.379	3.2
437.584	3.36
437.789	3.27
437.993	3.3
438.198	3.06
438.403	2.95
438.608	2.91
438.812	2.95
439.017	3.19
439.222	3.26
439.426	3.35
439.631	3.35
439.836	3.41
440.04	3.38
440.245	3.44
440.45	3.33
440.654	3.37
440.859	3.38
441.063	3.33
441.268	3.18
441.472	3.17
441.677	3.07
441.881	3.17
442.086	3.09
442.29	3.05
442.495	3.1
442.699	3.18
442.904	3.29
443.108	3.24
443.312	3.34
443.517	3.35
443.721	3.36
443.925	3.27
444.13	3.14
444.334	3.06
444.538	3.14
444.743	3.1
444.947	3.06
445.151	2.96
445.356	2.88
445.56	2.83
445.764	2.87
445.968	2.77
446.173	2.85
446.377	3
446.581	3.07
446.785	3.06
446.989	2.95
447.193	3.05
447.398	3.04
447.602	3.06
447.806	3.05
448.01	3.11
448.214	3.18
448.418	3.21
448.622	2.94
448.826	2.96
449.03	2.81
449.234	3.01
449.438	2.92
449.642	3.05
449.846	3.1
450.05	3.17
450.254	2.92
450.458	2.89
450.662	2.84
450.866	2.95
451.069	3.06
451.273	3.16
451.477	2.88
451.681	2.86
451.885	2.69
452.089	2.8
452.292	2.59
452.496	2.84
452.7	2.91
452.904	2.98
453.107	3.11
453.311	2.88
453.515	2.96
453.719	2.93
453.922	3
454.126	2.9
454.33	2.82
454.533	3.11
454.737	3.11
454.94	3.17
455.144	3.1
455.348	3
455.551	3.2
455.755	3.24
455.958	3.43
456.162	3.48
456.365	3.66
456.569	3.73
456.772	3.47
456.976	3.15
457.179	3.13
457.383	3.07
457.586	3.11
457.79	2.9
457.993	2.77
458.196	2.76
458.4	2.69
458.603	2.68
458.807	2.67
459.01	2.81
459.213	3.06
459.417	3.08
459.62	3.07
459.823	2.98
460.026	3.07
460.23	3.15
460.433	3.13
460.636	3.2
460.839	3.09
461.042	3.03
461.246	3.08
461.449	3.04
461.652	3.02
461.855	3.11
462.058	3.1
462.261	2.88
462.464	2.8
462.668	2.73
462.871	2.59
463.074	2.75
463.277	2.68
463.48	2.57
463.683	2.54
463.886	2.31
464.089	2.29
464.292	2.49
464.495	2.74
464.698	2.63
464.901	2.9
465.104	3.04
465.306	2.95
465.509	3.15
465.712	3.22
465.915	3.21
466.118	3.47
466.321	3.46
466.524	3.55
466.726	3.6
466.929	3.67
467.132	3.5
467.335	3.52
467.538	3.44
467.74	3.16
467.943	3.21
468.146	3.23
468.348	3.06
468.551	3
468.754	2.78
468.956	2.53
469.159	2.48
469.362	2.3
469.564	2.09
469.767	2.24
469.969	2.27
470.172	1.96
470.375	1.85
470.577	1.95
470.78	2.11
470.982	2.13
471.185	2.44
471.387	2.56
471.59	2.65
471.792	2.94
471.995	2.84
472.197	2.9
472.399	3.1
472.602	3.23
472.804	3.2
473.007	3.24
473.209	3.19
473.411	3.06
473.614	2.85
473.816	2.95
474.018	2.83
474.22	2.69
474.423	2.76
474.625	2.76
474.827	2.58
475.03	2.46
475.232	2.32
475.434	2.49
475.636	2.56
475.838	2.58
476.04	2.58
476.243	2.43
476.445	2.68
476.647	2.55
476.849	2.61
477.051	2.63
477.253	2.74
477.455	2.73
477.657	2.75
477.859	2.71
478.061	2.9
478.263	2.87
478.465	3.03
478.667	3.1
478.869	3.26
479.071	3.11
479.273	3.16
479.475	3.24
479.677	3.27
479.879	3.35
480.081	3.43
480.283	3.28
480.485	3.38
480.686	3.41
480.888	3.25
481.09	3.12
481.292	3.18
481.494	3.16
481.695	3.04
481.897	3.1
482.099	3.08
482.301	3.1
482.502	3.23
482.704	3.24
482.906	3.17
483.107	3.2
483.309	3.22
483.511	3.22
483.712	3.25
483.914	3.27
484.115	3.25
484.317	3.19
484.519	3.21
484.72	3.2
484.922	3.17
485.123	3.16
485.325	3.13
485.526	3.18
485.728	3.18
485.929	3.19
486.131	3.19
486.332	3.16
486.534	3.18
486.735	3.09
486.936	3.04
487.138	3.02
487.339	3.06
487.541	3.12
487.742	3.09
487.943	3.1
488.144	3.06
488.346	3.1
488.547	3.14
488.748	3.17
488.95	3.19
489.151	3.28
489.352	3.26
489.553	3.23
489.755	3.21
489.956	3.12
490.157	3.08
490.358	3.09
490.559	2.98
490.76	3.02
490.961	3.05
491.163	3.05
491.364	2.92
491.565	2.96
491.766	3
491.967	2.94
492.168	2.95
492.369	2.97
492.57	2.93
492.771	2.97
492.972	2.79
493.173	2.73
493.374	2.79
493.575	2.83
493.776	2.8
493.976	2.76
494.177	2.84
494.378	2.85
494.579	2.82
494.78	2.96
494.981	3
495.182	3.21
495.382	3.29
495.583	3.2
495.784	3.3
495.985	3.3
496.185	3.37
496.386	3.29
496.587	3.31
496.788	3.25
496.988	3.1
497.189	3.01
497.39	3.02
497.59	3.02
497.791	3.15
497.992	3.18
498.192	3.27
498.393	3.07
498.593	3.15
498.794	3.14
498.994	3.09
499.195	3.09
499.395	3.31
499.596	3.36
499.796	3.25
499.997	3.01
500.197	2.91
500.398	2.89
500.598	3.07
500.799	3.1
500.999	3.29
501.199	3.53
501.4	3.62
501.6	3.5
501.801	3.57
502.001	3.59
502.201	3.77
502.402	3.64
502.602	3.59
502.802	3.56
503.002	3.5
503.203	3.38
503.403	3.34
503.603	3.28
503.803	3.34
504.003	3.31
504.204	3.44
504.404	3.44
504.604	3.53
504.804	3.59
505.004	3.65
505.204	3.7
505.404	3.77
505.604	3.7
505.804	3.79
506.005	3.61
506.205	3.53
506.405	3.41
506.605	3.27
506.805	3.2
507.005	3.14
507.204	3.05
507.404	3.01
507.604	2.99
507.804	3.08
508.004	2.96
508.204	3.03
508.404	3.13
508.604	3.14
508.804	3.37
509.003	3.61
509.203	3.67
509.403	3.86
509.603	4.07
509.803	4.08
510.002	4.17
510.202	4.27
510.402	4.41
510.602	4.32
510.801	4.45
511.001	4.46
511.201	4.28
511.4	4.36
511.6	4.3
511.8	4.12
511.999	4.15
512.199	4.13
512.398	4.2
512.598	4.16
512.797	4.27
512.997	4.25
513.197	4.09
513.396	4.18
513.596	4.05
513.795	4.2
513.994	4.37
514.194	4.35
514.393	4.28
514.593	4.38
514.792	4.4
514.992	4.41
515.191	4.43
515.39	4.49
515.59	4.44
515.789	4.55
515.988	4.35
516.188	4.33
516.387	4.33
516.586	4.42
516.786	4.4
516.985	4.27
517.184	4.26
517.383	4.15
517.582	4.36
517.782	4.42
517.981	4.55
518.18	4.63
518.379	4.72
518.578	4.76
518.777	4.68
518.976	4.62
519.176	4.71
519.375	4.68
519.574	4.76
519.773	4.55
519.972	4.55
520.171	4.31
520.37	4.35
520.569	4.33
520.768	4.31
520.967	4.45
521.166	4.45
521.365	4.49
521.564	4.62
521.762	4.6
521.961	4.72
522.16	4.75
522.359	4.84
522.558	4.73
522.757	4.57
522.956	4.49
523.154	4.35
523.353	4.42
523.552	4.43
523.751	4.35
523.949	4.4
524.148	4.43
524.347	4.56
524.546	4.7
524.744	4.85
524.943	4.97
525.142	4.96
525.34	5.23
525.539	5.27
525.737	5.25
525.936	5.27
526.135	5.29
526.333	5.37
526.532	5.24
526.73	5.21
526.929	5.19
527.127	5.2
527.326	5.27
527.524	5.14
527.723	5.13
527.921	5.15
528.12	5.24
528.318	5.27
528.516	5.28
528.715	5.3
528.913	5.39
529.112	5.36
529.31	5.36
529.508	5.4
529.707	5.47
529.905	5.44
530.103	5.46
530.301	5.45
530.5	5.4
530.698	5.4
530.896	5.5
531.094	5.43
531.293	5.53
531.491	5.6
531.689	5.61
531.887	5.55
532.085	5.62
532.283	5.66
532.481	5.69
532.68	5.82
532.878	5.86
533.076	5.81
533.274	5.78
533.472	5.7
533.67	5.67
533.868	5.72
534.066	5.81
534.264	5.78
534.462	5.85
534.66	5.76
534.858	5.68
535.056	5.73
535.253	5.79
535.451	5.94
535.649	6.08
535.847	6.11
536.045	6.11
536.243	6
536.441	6.11
536.638	6.09
536.836	6.27
537.034	6.34
537.232	6.21
537.43	6.35
537.627	6.3
537.825	6.4
538.023	6.53
538.22	6.54
538.418	6.71
538.616	6.73
538.813	6.86
539.011	6.77
539.209	6.87
539.406	7.1
539.604	7.05
539.801	7.19
539.999	7.06
540.196	7.01
540.394	7.06
540.591	7.07
540.789	7.12
540.986	7.09
541.184	7.14
541.381	7.14
541.579	7.13
541.776	7.17
541.974	7.15
542.171	7.22
542.368	7.29
542.566	7.35
542.763	7.42
542.96	7.52
543.158	7.65
543.355	7.83
543.552	7.87
543.75	7.91
543.947	7.96
544.144	7.98
544.341	8.11
544.539	8.11
544.736	8.07
544.933	8.12
545.13	8.15
545.327	8.15
545.524	8.03
545.722	8.08
545.919	8.08
546.116	8.11
546.313	8.26
546.51	8.22
546.707	8.21
546.904	8.28
547.101	8.26
547.298	8.29
547.495	8.36
547.692	8.48
547.889	8.48
548.086	8.56
548.283	8.74
548.48	8.65
548.677	8.58
548.874	8.67
549.07	8.74
549.267	8.94
549.464	8.74
549.661	8.57
549.858	8.42
550.055	8.47
550.251	8.58
550.448	8.28
550.645	8.31
550.842	8.41
551.038	8.55
551.235	8.35
551.432	8.19
551.628	8.52
551.825	8.83
552.022	9.11
552.218	9.04
552.415	8.97
552.612	9.02
552.808	9.05
553.005	9.19
553.201	9.25
553.398	9.56
553.594	9.61
553.791	9.61
553.987	9.49
554.184	9.28
554.38	9.29
554.577	9.35
554.773	9.38
554.97	9.62
555.166	9.68
555.362	9.64
555.559	9.61
555.755	9.6
555.952	9.68
556.148	9.8
556.344	9.86
556.541	10.15
556.737	10.08
556.933	10.33
557.129	10.16
557.326	10.16
557.522	10.14
557.718	10.21
557.914	10.28
558.11	10.33
558.307	10.28
558.503	10.44
558.699	10.43
558.895	10.45
559.091	10.56
559.287	10.54
559.483	10.56
559.679	10.65
559.876	10.76
560.072	10.81
560.268	10.78
560.464	10.96
560.66	11.15
560.856	11.24
561.052	11.44
561.247	11.33
561.443	11.48
561.639	11.62
561.835	11.77
562.031	11.81
562.227	11.8
562.423	11.7
562.619	11.84
562.815	11.76
563.01	11.62
563.206	11.68
563.402	11.89
563.598	11.97
563.793	11.88
563.989	11.84
564.185	11.95
564.381	12.24
564.576	12.36
564.772	12.23
564.968	12.23
565.163	12.36
565.359	12.28
565.555	12.3
565.75	12.27
565.946	12.43
566.141	12.32
566.337	12.32
566.532	12.3
566.728	12.18
566.923	12.31
567.119	12.27
567.314	12.41
567.51	12.64
567.705	12.43
567.901	12.4
568.096	12.31
568.292	12.48
568.487	12.48
568.682	12.35
568.878	12.56
569.073	12.52
569.268	12.71
569.464	12.49
569.659	12.39
569.854	12.37
570.05	12.56
570.245	12.74
570.44	12.68
570.635	12.62
570.831	12.54
571.026	12.36
571.221	12.24
571.416	12.03
571.611	12.27
571.806	12.23
572.002	12.42
572.197	12.28
572.392	12.29
572.587	12.26
572.782	12.4
572.977	12.66
573.172	12.89
573.367	13
573.562	13.15
573.757	13.08
573.952	13.21
574.147	13.24
574.342	13.35
574.537	13.31
574.732	13.35
574.927	13.25
575.121	13.14
575.316	13.06
575.511	13.11
575.706	13.27
575.901	13.23
576.096	13.11
576.29	13.13
576.485	13.04
576.68	13.16
576.875	13.18
577.069	13.28
577.264	13.13
577.459	13.18
577.654	13.05
577.848	12.94
578.043	13.07
578.238	13.11
578.432	13.01
578.627	13.12
578.821	12.92
579.016	13.01
579.21	12.77
579.405	13.09
579.6	13.02
579.794	13.2
579.989	13.2
580.183	13.13
580.378	13.02
580.572	13.2
580.766	13.12
580.961	13.31
581.155	13.25
581.35	13.46
581.544	13.2
581.738	13.3
581.933	13.11
582.127	13.09
582.321	12.88
582.516	13.15
582.71	12.94
582.904	12.86
583.099	12.82
583.293	12.94
583.487	12.97
583.681	13.21
583.875	13.18
584.07	13.13
584.264	13.15
584.458	13.36
584.652	13.21
584.846	13.31
585.04	13.65
585.234	13.5
585.428	13.41
585.623	13.22
585.817	13.25
586.011	13.16
586.205	13.31
586.399	13.34
586.593	13.53
586.787	13.81
586.981	13.69
587.174	13.49
587.368	13.76
587.562	13.69
587.756	13.82
587.95	13.83
588.144	14.06
588.338	14.09
588.532	14.02
588.725	13.66
588.919	13.6
589.113	13.65
589.307	13.63
589.501	13.43
589.694	13.74
589.888	13.6
590.082	13.59
590.275	13.58
590.469	13.6
590.663	13.65
590.856	13.84
591.05	13.8
591.244	14.1
591.437	14.11
591.631	14.1
591.824	13.95
592.018	14.03
592.212	13.72
592.405	13.48
592.599	13.5
592.792	13.62
592.986	13.79
593.179	13.71
593.372	13.63
593.566	13.52
593.759	13.85
593.953	13.6
594.146	13.67
594.339	13.96
594.533	14.12
594.726	14.22
594.92	14.02
595.113	14.1
595.306	14.13
595.499	13.89
595.693	13.93
595.886	13.82
596.079	14.15
596.272	14.49
596.466	14.49
596.659	14.36
596.852	14.2
597.045	14.1
597.238	13.88
597.431	13.9
597.624	14.04
597.818	14.18
598.011	14.12
598.204	13.93
598.397	13.58
598.59	13.42
598.783	13.34
598.976	13.36
599.169	13.54
599.362	13.66
599.555	13.59
599.748	13.7
599.941	13.7
600.134	13.43
600.326	13.34
600.519	13.5
600.712	13.42
600.905	13.56
601.098	13.69
601.291	13.76
601.483	14.01
601.676	14.12
601.869	14.16
602.062	14.23
602.255	14.55
602.447	14.64
602.64	14.46
602.833	14.59
603.025	14.63
603.218	14.65
603.411	14.69
603.603	14.51
603.796	14.37
603.989	14.26
604.181	14.21
604.374	14.05
604.566	14.03
604.759	14.24
604.951	14.24
605.144	14.26
605.336	14.33
605.529	14.34
605.721	14.26
605.914	14.19
606.106	14.25
606.299	14.27
606.491	14.42
606.683	14.59
606.876	14.57
607.068	14.7
607.26	14.47
607.453	14.18
607.645	13.98
607.837	13.94
608.03	14.09
608.222	14.04
608.414	14.02
608.606	14.15
608.799	14.17
608.991	14.24
609.183	14.03
609.375	14.23
609.567	14.13
609.759	14.21
609.952	14.35
610.144	14.25
610.336	14.13
610.528	14.03
610.72	13.86
610.912	13.61
611.104	13.34
611.296	13.34
611.488	13.45
611.68	13.61
611.872	13.5
612.064	13.37
612.256	13.21
612.448	13.37
612.64	13.46
612.832	13.12
613.023	13.27
613.215	13.37
613.407	13.44
613.599	13.42
613.791	13.56
613.983	13.65
614.174	13.57
614.366	13.84
614.558	13.52
614.75	13.62
614.941	13.8
615.133	13.74
615.325	13.65
615.516	13.76
615.708	13.57
615.9	13.6
616.091	13.45
616.283	13.67
616.475	13.62
616.666	13.97
616.858	13.93
617.049	13.73
617.241	14.02
617.432	13.98
617.624	13.97
617.815	13.96
618.007	13.89
618.198	14.15
618.39	13.82
618.581	14.18
618.773	14.2
618.964	14.19
619.155	14.54
619.347	14.49
619.538	14.69
619.729	14.53
619.921	14.52
620.112	14.56
620.303	14.58
620.494	14.92
620.686	15.04
620.877	14.91
621.068	15.08
621.259	15.28
621.451	15.12
621.642	14.81
621.833	14.76
622.024	15.15
622.215	15.16
622.406	15.1
622.597	14.88
622.788	14.62
622.98	14.44
623.171	14.08
623.362	13.85
623.553	13.53
623.744	13.71
623.935	13.89
624.126	13.2
624.317	12.93
624.508	13.04
624.698	12.91
624.889	12.89
625.08	13.35
625.271	13.3
625.462	13.16
625.653	13.3
625.844	13.5
626.034	13.52
626.225	13.8
626.416	13.98
626.607	13.99
626.798	14.41
626.988	14.61
627.179	14.71
627.37	15.07
627.56	15.05
627.751	15.21
627.942	15.27
628.132	15.13
628.323	15.09
628.514	15.26
628.704	15.19
628.895	15.01
629.085	14.82
629.276	14.34
629.466	14.17
629.657	14.38
629.847	14.39
630.038	14.15
630.228	14.48
630.419	14.44
630.609	14.22
630.8	14.06
630.99	14.28
631.181	14.11
631.371	14.3
631.561	14.12
631.752	14.05
631.942	13.93
632.132	13.89
632.323	13.86
632.513	13.86
632.703	13.95
632.893	13.84
633.084	13.74
633.274	13.81
633.464	13.8
633.654	14.11
633.844	14.21
634.034	14.51
634.225	14.77
634.415	14.66
634.605	14.82
634.795	14.96
634.985	15.07
635.175	15.2
635.365	15.49
635.555	15.49
635.745	15.71
635.935	15.79
636.125	15.53
636.315	15.33
636.505	15.12
636.695	15.23
636.885	14.97
637.075	15.24
637.265	14.81
637.455	14.75
637.644	14.68
637.834	14.22
638.024	14.07
638.214	13.95
638.404	13.86
638.593	14.31
638.783	13.93
638.973	13.98
639.163	13.58
639.352	13.85
639.542	13.7
639.732	13.67
639.921	14.01
640.111	13.91
640.301	14.46
640.49	14.73
640.68	14.48
640.87	14.87
641.059	14.92
641.249	14.99
641.438	15.08
641.628	15.3
641.817	15.49
642.007	15.17
642.196	15.69
642.386	15.4
642.575	15.08
642.764	15.39
642.954	14.98
643.143	15.03
643.333	15.11
643.522	15.05
643.711	15.04
643.901	15.42
644.09	15.61
644.279	15.18
644.469	14.88
644.658	15.59
644.847	15.17
645.036	15.5
645.226	15.93
645.415	15.87
645.604	15.74
645.793	15.54
645.982	15.23
646.171	15.09
646.361	15.42
646.55	16.23
646.739	15.88
646.928	15.95
647.117	16.32
647.306	15.68
647.495	15.91
647.684	15.78
647.873	15.47
648.062	15.31
648.251	15.25
648.44	15.39
648.629	14.64
648.818	14.57
649.007	14.74
649.196	14.58
649.384	15.17
649.573	15.06
649.762	15
649.951	15.44
650.14	15.67
650.328	15.59
650.517	15.05
650.706	15.23
650.895	15.04
651.083	15.16
651.272	14.8
651.461	14.63
651.65	14.72
651.838	14.78
652.027	14.8
652.216	14.64
652.404	14.91
652.593	15.16
652.781	14.92
652.97	15.1
653.158	14.6
653.347	14.55
653.535	13.93
653.724	13.98
653.912	14.29
654.101	13.75
654.289	13.59
654.478	13.57
654.666	13.5
654.855	13.84
655.043	13.76
655.231	13.67
655.42	13.81
655.608	13.99
655.796	14.28
655.985	14.34
656.173	14.46
656.361	14.69
656.55	14.83
656.738	14.7
656.926	14.76
657.114	14.93
657.302	15.65
657.491	15.61
657.679	15.81
657.867	15.82
658.055	15.39
658.243	15.36
658.431	15.17
658.619	15.02
658.807	15.12
658.996	15.1
659.184	15.07
659.372	14.73
659.56	14.78
659.748	14.86
659.936	14.62
660.124	14.53
660.311	14.79
660.499	14.96
660.687	14.6
660.875	14.68
661.063	14.66
661.251	14.85
661.439	14.98
661.627	14.84
661.814	14.49
662.002	14.81
662.19	15.02
662.378	14.86
662.565	14.86
662.753	15.14
662.941	15.05
663.129	14.84
663.316	14.6
663.504	14.56
663.692	14.64
663.879	14.78
664.067	14.21
664.254	14.07
664.442	14.29
664.63	14.56
664.817	14.63
665.005	14.65
665.192	14.71
665.38	14.91
665.567	14.66
665.755	15.2
665.942	15.38
666.13	15.81
666.317	15.75
666.504	15.82
666.692	15.74
666.879	15.75
667.067	15.97
667.254	16.06
667.441	15.58
667.629	15.81
667.816	15.61
668.003	15.75
668.19	15.43
668.378	15.68
668.565	15.55
668.752	15.11
668.939	15.14
669.127	15.22
669.314	15.12
669.501	15.06
669.688	15.24
669.875	15.03
670.062	14.7
670.249	14.98
670.436	15.23
670.623	15.51
670.81	16.14
670.997	16
671.184	15.76
671.371	16.45
671.558	16.8
671.745	16.64
671.932	16.87
672.119	16.95
672.306	16.85
672.493	16.49
672.68	15.99
672.867	15.47
673.054	16.03
673.24	15.95
673.427	15.75
673.614	15.54
673.801	15.42
673.988	15.46
674.174	15.59
674.361	15.18
674.548	15.66
674.734	15.88
674.921	15.86
675.108	15.18
675.294	15.11
675.481	14.69
675.668	15.01
675.854	14.91
676.041	15
676.227	14.96
676.414	15.33
676.601	14.84
676.787	14.34
676.974	14.5
677.16	14.64
677.347	14.64
677.533	14.68
677.719	14.32
677.906	14.79
678.092	14.56
678.279	14.53
678.465	14.67
678.651	14.85
678.838	15.09
679.024	15.21
679.21	14.99
679.397	14.82
679.583	15.13
679.769	15.43
679.955	15.1
680.142	15.35
680.328	15.2
680.514	14.95
680.7	14.97
680.886	15.19
681.073	15.08
681.259	15.39
681.445	15.19
681.631	14.9
681.817	14.95
682.003	14.96
682.189	14.45
682.375	14.5
682.561	14.65
682.747	14.3
682.933	14.32
683.119	14.23
683.305	14.12
683.491	14.45
683.677	14.43
683.863	13.89
684.049	13.76
684.235	14.2
684.42	14.14
684.606	14.49
684.792	14.64
684.978	14.52
685.164	14.52
685.349	14.75
685.535	15.6
685.721	15.67
685.907	15.92
686.092	16.01
686.278	15.47
686.464	15.82
686.649	15.37
686.835	15.93
687.021	15.94
687.206	16.31
687.392	16.38
687.577	15.41
687.763	15.26
687.948	15.27
688.134	15.28
688.319	15.36
688.505	15.65
688.69	15.27
688.876	15.02
689.061	14.97
689.247	14.57
689.432	14.37
689.618	14.87
689.803	14.95
689.988	15.37
690.174	15.87
690.359	15.95
690.544	15.66
690.73	16
690.915	16.15
691.1	16.43
691.285	16.88
691.471	16.29
691.656	15.53
691.841	15.33
692.026	15.1
692.211	14.64
692.396	14.98
692.582	14.37
692.767	14.35
692.952	14.21
693.137	13.53
693.322	12.92
693.507	13.67
693.692	14.15
693.877	14.44
694.062	14.48
694.247	14.83
694.432	15.46
694.617	15.79
694.802	15.79
694.987	16.06
695.172	16.34
695.357	17.06
695.541	17.36
695.726	17.5
695.911	17.46
696.096	17.08
696.281	17.31
696.466	16.55
696.65	16.85
696.835	17.14
697.02	16.93
697.204	16.84
697.389	16.89
697.574	16.76
697.759	16.54
697.943	16.51
698.128	16.46
698.312	15.99
698.497	16.02
698.682	15.65
698.866	15.22
699.051	15.27
699.235	15.44
699.42	15.16
699.604	15.13
699.789	15.29
699.973	15.57
700.158	15.63
700.342	15.79
700.527	16.13
700.711	16.56
700.895	16.85
701.08	16.87
701.264	16.36
701.448	16.2
701.633	16.24
701.817	16.22
702.001	15.66
702.186	16.03
702.37	16.12
702.554	15.1
702.738	15.19
702.923	15.05
703.107	15.35
703.291	15.97
703.475	15.5
703.659	14.67
703.843	14.43
704.027	15
704.212	15.09
704.396	15.53
704.58	15.95
704.764	15.74
704.948	15.9
705.132	15.17
705.316	15.37
705.5	16.17
705.684	16.94
705.868	16.86
706.052	16.21
706.235	15.2
706.419	14.46
706.603	14.17
706.787	14.43
706.971	14.69
707.155	14.21
707.339	14.38
707.522	14.29
707.706	13.71
707.89	13.5
708.074	13.99
708.257	13.88
708.441	14.05
708.625	14.72
708.808	14.49
708.992	14.35
709.176	14.93
709.359	14.96
709.543	14.63
709.727	15.77
709.91	16.54
710.094	16.32
710.277	17.24
710.461	17.01
710.644	16.65
710.828	16.16
711.011	16.55
711.195	16.87
711.378	16.35
711.562	16.29
711.745	15.07
711.928	14.56
712.112	15.11
712.295	14.71
712.478	15.02
712.662	14.83
712.845	15.17
713.028	14.54
713.212	14.09
713.395	14.3
713.578	14.56
713.761	14.42
713.945	14.47
714.128	14.23
714.311	14.82
714.494	14.81
714.677	14.78
714.86	15.25
715.043	15.09
715.227	15.25
715.41	15.34
715.593	15.67
715.776	16.51
715.959	17.36
716.142	16.95
716.325	16.19
716.508	16.49
716.691	16.65
716.874	16.77
717.057	17.26
717.239	17.01
717.422	17.46
717.605	16.78
717.788	17.41
717.971	17.54
718.154	16.87
718.337	17.47
718.519	17.12
718.702	17.2
718.885	16.54
719.068	16.43
719.25	16.69
719.433	15.15
719.616	15.73
719.798	14.29
719.981	13.09
720.164	14.43
720.346	14.4
720.529	14.98
720.712	15.59
720.894	15.86
721.077	15.28
721.259	14.98
721.442	16.02
721.624	16.45
721.807	16.4
721.989	16.76
722.172	16.22
722.354	17.07
722.537	16.04
722.719	14.96
722.901	14.22
723.084	15.24
723.266	15.61
723.448	15.3
723.631	15.32
723.813	15.35
723.995	15.05
724.178	15.34
724.36	13.9
724.542	13.9
724.724	14.37
724.907	14.48
725.089	14.71
725.271	14.79
725.453	15.24
725.635	14.31
725.817	14.38
725.999	15.02
726.181	14.74
726.364	15.07
726.546	15.39
726.728	16.03
726.91	17.13
727.092	16.88
727.274	17.7
727.456	17.99
727.638	18.53
727.819	18.85
728.001	18.79
728.183	18.63
728.365	18.9
728.547	18.87
728.729	19.25
728.911	19.66
729.093	19.61
729.274	18.65
729.456	18.25
729.638	18.13
729.82	17.88
730.001	16.74
730.183	17.7
730.365	17.09
730.546	16.5
730.728	15.63
730.91	15.15
731.091	15.05
731.273	15.69
731.455	14.51
731.636	14.23
731.818	13.93
731.999	14.39
732.181	14.09
732.362	15.33
732.544	16.32
732.725	16.26
732.907	15.13
733.088	15.33
733.27	14.9
733.451	15.46
733.633	15.38
733.814	16.67
733.995	16.68
734.177	16.28
734.358	14.76
734.539	14.87
734.721	15.33
734.902	16.4
735.083	15.78
735.264	15.64
735.446	15.45
735.627	16.5
735.808	14.85
735.989	15.36
736.17	15.11
736.351	16.58
736.533	15.52
736.714	14.91
736.895	14.21
737.076	13.96
737.257	15.6
737.438	16.73
737.619	15.22
737.8	15.81
737.981	14.53
738.162	14.58
738.343	13.95
738.524	14.55
738.705	14.74
738.886	14.82
739.067	16.99
739.247	15.04
739.428	14.55
739.609	16.02
739.79	15.75
739.971	17.68
740.151	17.8
740.332	17.99
740.513	17.85
740.694	18.97
740.874	19.83
741.055	18.24
741.236	18.35
741.417	18.29
741.597	18.21
741.778	18.15
741.958	16.75
742.139	17.17
742.32	17
742.5	16.58
742.681	15.03
742.861	14.78
743.042	14.95
743.222	14.93
743.403	14.73
743.583	13.56
743.764	14.15
743.944	14.64
744.124	14.9
744.305	14.92
744.485	15.88
744.666	16.02
744.846	15.15
745.026	14.79
745.207	14.67
745.387	15.53
745.567	15.68
745.747	15.63
745.928	16.36
746.108	16.55
746.288	15.9
746.468	15.37
746.648	14.48
746.829	14.87
747.009	15.09
747.189	14.79
747.369	14.62
747.549	14.38
747.729	14.01
747.909	14.18
748.089	13.2
748.269	14.38
748.449	13.9
748.629	15.28
748.809	14.67
748.989	14.26
749.169	15.23
749.349	16.08
749.529	16.64
749.709	17.94
749.889	17.15
750.068	17.67
750.248	17.41
750.428	18.45
750.608	18.98
750.788	20.74
750.967	21.14
751.147	21.85
751.327	21.99
751.507	22.06
751.686	20.92
751.866	20.53
752.046	20.63
752.225	18.85
752.405	18.19
752.585	17.79
752.764	15.95
752.944	16.63
753.123	16.18
753.303	15.28
753.482	14.77
753.662	15.19
753.841	15.35
754.021	15.22
754.2	15.82
754.38	15.23
754.559	15.22
754.739	15.96
754.918	15.69
755.097	15.17
755.277	15.31
755.456	15.38
755.635	15.15
755.815	15.5
755.994	14.64
756.173	15.67
756.352	16.83
756.532	17.03
756.711	17.68
756.89	17.86
757.069	17.34
757.248	17.21
757.427	16.67
757.607	17.89
757.786	18.17
757.965	18.87
758.144	18.35
758.323	17.73
758.502	17.13
758.681	16.34
758.86	14.56
759.039	15.62
759.218	15.73
759.397	16.21
759.576	15.64
759.755	14.29
759.934	15.08
760.113	15.14
760.291	15.6
760.47	16.79
760.649	15.77
760.828	16.55
761.007	16.2
761.186	15.86
761.364	16.89
761.543	16.31
761.722	17.4
761.901	15.92
762.079	15.39
762.258	15.8
762.437	15.94
762.615	16.5
762.794	15.95
762.972	15.59
763.151	15.19
763.33	14.4
763.508	15.14
763.687	15.45
763.865	16.99
764.044	16.93
764.222	16.33
764.401	15.37
764.579	15.32
764.758	16.85
764.936	17.42
765.114	18.39
765.293	19.44
765.471	17.9
765.65	18.66
765.828	17.6
766.006	18.67
766.184	19.14
766.363	18.92
766.541	19.41
766.719	17.36
766.898	16.76
767.076	16.2
767.254	15.32
767.432	17.05
767.61	16.29
767.788	15.39
767.967	14.17
768.145	13
768.323	12.9
768.501	12.53
768.679	12.15
768.857	11.29
769.035	11.25
769.213	11.3
769.391	10.27
769.569	8.13
769.747	10.08
769.925	10.05
770.103	10.6
770.281	11.23
770.459	11.59
770.636	12.83
770.814	13.94
770.992	13.57
771.17	14.26
771.348	14.17
771.525	15.47
771.703	12.03
771.881	13.69
772.059	14.12
772.236	15.25
772.414	16.29
772.592	16.21
772.769	16.08
772.947	15.6
773.125	15.74
773.302	14.97
773.48	14.06
773.657	16.04
773.835	16.46
774.013	16.69
774.19	16.25
774.368	14.42
774.545	14.6
774.723	12
774.9	10.92
775.077	7.57
775.255	7.84
775.432	9.73
775.61	11.78
775.787	7.68
775.964	7.22
776.142	6.23
776.319	5.51
776.496	6.88
776.674	9.57
776.851	10.36
777.028	13.58
777.205	12.98
777.382	10.25
777.56	9.34
777.737	10.01
777.914	11.11
778.091	8.54
778.268	9.95
778.445	9.17
778.622	9.48
778.8	12.74
778.977	11.58
779.154	15.58
779.331	18.4
779.508	14.53
779.685	16.76
779.862	16.58
780.038	17.97
780.215	17.55
780.392	17.34
780.569	17.12
780.746	13.97
780.923	13.83
781.1	9.43
781.277	6.68
781.453	12.53
781.63	12.16
781.807	10.33
781.984	11.74
782.16	14.04
782.337	14.1
782.514	15.61
782.691	16.44
782.867	18.14
783.044	21.61
783.221	21.8
783.397	16.64
783.574	16.56
783.75	19.76
783.927	19.07
784.103	17.39
784.28	17.65
784.456	18.41
784.633	17.89
784.809	17.39
784.986	16.49
785.162	15.04
785.339	16.01
785.515	16.45
785.692	13.87
785.868	12.77
786.044	13.49
786.221	13.76
786.397	8.19
786.573	8.08
786.749	6.73
786.926	7.45
787.102	8.93
787.278	10.69
787.454	8.3
787.631	10.25
787.807	12.26
787.983	10.42
788.159	10.76
788.335	14.38
788.511	17.42
788.687	18.57
788.863	18.19
789.039	18.35
789.216	18.44
789.392	20.33
789.568	19.77
789.744	20.39
789.919	21.3
790.095	19.62
790.271	20.56
790.447	17.47
790.623	16.68
790.799	17.34
790.975	14.57
791.151	16.66
791.327	17.37
791.502	16.92
791.678	15.71
791.854	17.26
792.03	19.42
792.205	17.97
792.381	19.18
792.557	20.54
792.733	17.91
792.908	21.59
793.084	21.19
793.259	21.9
793.435	20.89
793.611	17.97
793.786	18.27
793.962	15.41
794.137	13.3
794.313	12.12
794.488	7.26
794.664	6.82
794.839	5.85
795.015	3.1
795.19	2.01
795.366	2.86
795.541	5.08
795.716	2.6
795.892	6.46
796.067	7.88
796.242	6.53
796.418	10.64
796.593	15.8
796.768	16.8
796.944	19.45
797.119	19.06
797.294	19.88
797.469	21.05
797.644	22.06
797.82	20.46
797.995	21.25
798.17	24.07
798.345	24.21
798.52	21.8
798.695	18.82
798.87	16.29
799.045	16.97
799.22	13.19
799.395	11.72
799.57	12.39
799.745	10.89
799.92	9.59
800.095	11.72
800.27	11.08
800.445	12.3
800.62	16.18
800.795	15.36
800.97	15.59
801.145	18.12
801.319	17.34
801.494	17.39
801.669	19.49
801.844	18.12
802.018	17.4
802.193	16.86
802.368	12.61
802.543	10.38
802.717	13.01
802.892	10.13
803.067	11.1
803.241	10.66
803.416	11.47
803.59	9.98
803.765	11.35
803.94	7.76
804.114	6.43
804.289	11.11
804.463	11.74
804.638	5.6
804.812	3.11
804.986	3.52
805.161	4.69
805.335	4.95
805.51	5.27
805.684	0.14
805.858	4.51
806.033	3.03
806.207	-2.69
806.381	-1.01
806.556	1.87
806.73	2.51
806.904	1.54
807.078	1.83
807.253	1.57
807.427	4.5
807.601	9.85
807.775	6.88
807.949	10.57
808.123	11.16
808.298	8.9
808.472	8.37
808.646	14.66
808.82	13.62
808.994	15.71
809.168	12.74
809.342	8.71
809.516	9.16
809.69	9.49
809.864	8.46
810.038	11.96
810.212	10.56
810.385	10.03
810.559	10.04
810.733	15.93
810.907	14.32
811.081	13.27
811.255	17.05
811.428	16.8
811.602	15.6
811.776	14.11
811.95	14.6
812.123	18.31
812.297	19.64
812.471	18.76
812.644	8.09
812.818	10.48
812.992	8.96
813.165	7.7
813.339	9.51
813.512	9.43
813.686	12.05
813.86	9.76
814.033	6.86
814.207	10.12
814.38	8.31
814.554	14.67
814.727	14.93
814.9	16.85
815.074	14.12
815.247	13.27
815.421	12.27
815.594	11.91
815.767	11.51
815.941	14.73
816.114	11.84
816.287	16.83
816.46	13.26
816.634	14.61
816.807	12.74
816.98	16.34
817.153	18.24
817.327	22.25
817.5	25.23
817.673	27.87
817.846	29.16
818.019	33.69
818.192	33.93
818.365	36.41
818.538	34.88
818.711	41.06
818.884	38.07
819.057	32.74
819.23	27.35
819.403	23.17
819.576	21.92
819.749	19.91
819.922	14.72
820.095	13.19
820.268	15.53
820.441	16.45
820.614	14.77
820.786	14.56
820.959	15.63
821.132	17.1
821.305	19.44
821.477	19.19
821.65	18.73
821.823	19.64
821.996	19.38
822.168	18.4
822.341	16.99
822.514	17.04
822.686	16.95
822.859	17.11
823.031	16.86
823.204	16.27
823.376	16.89
823.549	16.95
823.722	16.82
823.894	16.72
824.067	16.43
824.239	17.08
824.411	16.79
824.584	16.49
824.756	16.72
824.929	17.11
825.101	17.39
825.273	15.96
825.446	16.39
825.618	14.44
825.79	15.05
825.963	15.72
826.135	15.15
826.307	15.11
826.479	15.26
826.652	15.02
826.824	16.09
826.996	15.21
827.168	16.14
827.34	14.91
827.512	17.18
827.684	15.61
827.856	15.01
828.029	15.51
828.201	15.36
828.373	17.17
828.545	16.3
828.717	15.01
828.889	13.83
829.061	12.88
829.232	11.8
829.404	10.66
829.576	9.46
829.748	7.22
829.92	6.01
830.092	5.71
830.264	3.39
830.436	3.47
830.607	2.05
830.779	2.22
830.951	3.2
831.123	6.92
831.294	7.58
831.466	7.58
831.638	11.69
831.809	14.07
831.981	12.28
832.153	12.8
832.324	11.53
832.496	14.09
832.667	13.37
832.839	9.36
833.011	9.49
833.182	10.24
833.354	15.23
833.525	15.78
833.697	11.46
833.868	12.99
834.039	12.55
834.211	15.94
834.382	14.86
834.554	15.99
834.725	17.75
834.896	15.72
835.068	14
835.239	12.39
835.41	11.74
835.581	12.03
835.753	13
835.924	11.81
836.095	10.26
836.266	12.65
836.438	11.39
836.609	11.88
836.78	14.94
836.951	14.13
837.122	13.83
837.293	14.63
837.464	20.08
837.635	17.97
837.806	18.12
837.977	21.13
838.148	20.09
838.319	22.55
838.49	22.21
838.661	16.17
838.832	20.54
839.003	23.15
839.174	22.21
839.345	17.02
839.516	17.09
839.687	21.15
839.857	16.36
840.028	11.51
840.199	14.4
840.37	19.57
840.54	26.57
840.711	20.42
840.882	21.81
841.053	23.07
841.223	23.63
841.394	23.85
841.564	20.45
841.735	23.92
841.906	25.72
842.076	23.59
842.247	8.95
842.417	3.09
842.588	8.68
842.758	5.34
842.929	1.93
843.099	-2.16
843.27	-7.94
843.44	-11.21
843.611	-22.06
843.781	-27.91
843.951	-42.04
844.122	-24.6
844.292	-18.84
844.462	-21.62
844.633	-35.98
844.803	-31.44
844.973	-22.97
845.144	-3.43
845.314	0.61
845.484	0.48
845.654	-2.85
845.824	-1.03
845.995	-3.13
846.165	-11.48
846.335	-38.76
846.505	-20.2
846.675	-29.38
846.845	-28.62
847.015	-52.58
847.185	-68.36
847.355	-82.94
847.525	-55.49
847.695	-44.32
847.865	-55.22
848.035	-60.71
848.205	-26.22
848.375	-43.6
848.545	-71.19
848.715	-51.56
848.884	-42.21
849.054	-67.62
849.224	-57.82
849.394	-56.93
849.564	-47.27
849.733	-55
849.903	-38.35
850.073	-57.68
850.243	-33.93
850.412	-14.04
850.582	-22.72
850.752	-54.02
850.921	-18.59
851.091	-26.06
851.26	-33.71
851.43	-40.07
851.599	-28.73
851.769	-28.46
851.939	-14.5
852.108	-17.01
852.278	-34.8
852.447	-79.97
852.616	-25.86
852.786	-17.36
852.955	-17.71
853.125	-12.05
853.294	-22.17
853.463	-70.95
853.633	-33.69
853.802	-19.7
853.971	-13.84
854.141	-18.25
854.31	17.06
854.479	12.12
854.648	15
854.818	11.37
854.987	0.12
855.156	2.35
855.325	20.08
855.494	21.25
855.663	24.03
855.832	10.3
856.001	34.17
856.171	15.33
856.34	10.2
856.509	-10.21
856.678	4.4
856.847	6.3
857.016	8.01
857.185	6.43
857.353	1.22
857.522	-15.51
857.691	6.04
857.86	-5.52
858.029	-20.13
858.198	-15.76
858.367	-0.56
858.535	-18.25
858.704	0.06
858.873	-1.7
859.042	10.31
859.21	5.82
859.379	13.74
859.548	-13.53
859.717	-26.67
859.885	-25.69
860.054	-20.39
860.222	-18.6
860.391	-35.25
860.56	-52.79
860.728	-45.97
860.897	-65.91
861.065	-58.35
861.234	-38.98
861.402	-15.42
861.571	-9.1
861.739	6.42
861.908	17.5
862.076	11.38
862.244	28.08
862.413	23.06
862.581	1.64
862.749	-42.9
862.918	-23.38
863.086	-34.4
863.254	-71.36
863.423	-65.1
863.591	-76.97
863.759	-178.03
863.927	-160.35
864.096	-165.35
864.264	-82.33
864.432	-29.43
864.6	-5.24
864.768	-12.63
864.936	-36.3
865.104	-12.29
865.272	-12.38
865.44	3.37
865.608	10.43
865.776	12.27
865.944	15.4
866.112	-3.64
866.28	-8.83
866.448	-14.66
866.616	4.47
866.784	21.57
866.952	32.48
867.12	31.18
867.288	28.44
867.455	-17.01
867.623	-18.68
867.791	-13.11
867.959	11.72
868.127	19.66
868.294	-1.49
868.462	-17.88
868.63	-6.22
868.797	-29.92
868.965	-33.98
869.133	-31.92
869.3	-3.31
869.468	6.45
869.636	-1.89
869.803	-19.25
869.971	-41.5
870.138	-22.99
870.306	-38.65
870.473	-62.54
870.641	-45.78
870.808	-18.04
870.975	-32.48
871.143	-25.48
871.31	-39.51
871.478	-35.65
871.645	-12.39
871.812	-9.71
871.98	4.31
872.147	2.82
872.314	14.2
872.482	18.27
872.649	9.17
872.816	9.39
872.983	-5.32
873.15	0.73
873.318	22.8
873.485	20
873.652	33.62
873.819	31.83
873.986	49.49
874.153	42.15
874.32	21.29
874.487	19.81
874.654	35.94
874.821	45.36
874.988	39.97
875.155	26.16
875.322	23.41
875.489	10.79
875.656	10.7
875.823	-3
875.99	-16.67
876.157	1.88
876.324	12.37
876.49	7.96
876.657	-2.01
876.824	-49.49
876.991	-47.29
877.157	-40.27
877.324	-27.81
877.491	-44.37
877.658	-3.8
877.824	-8.98
877.991	2.98
878.157	-14.22
878.324	-19
878.491	-8.79
878.657	8.68
878.824	5.47
878.99	2.79
879.157	7.27
879.323	6.37
879.49	0.13
879.656	-0.15
879.823	-6.07
879.989	11.08
880.156	-6.98
880.322	-21.03
880.488	-15.96
880.655	2.57
880.821	-10.73
880.987	-12.18
881.154	-16.08
881.32	-30.34
881.486	-31.98
881.652	-21.63
881.819	-19.54
881.985	-8.15
882.151	-0.14
882.317	4.83
882.483	2.31
882.649	6.31
882.816	5.06
882.982	8.44
883.148	16.04
883.314	19.1
883.48	19.36
883.646	19.92
883.812	20.92
883.978	19.94
884.144	18.47
884.31	20.22
884.476	19.58
884.642	21.36
884.807	22.56
884.973	19.16
885.139	16.36
885.305	17.31
885.471	19.74
885.637	18.29
885.802	15.6
885.968	12.9
886.134	8.51
886.3	12.76
886.465	10.81
886.631	8.06
886.797	4.75
886.962	8.01
887.128	3.97
887.293	-5.19
887.459	2.74
887.625	1.81
887.79	3.25
887.956	6.54
888.121	-3.3
888.287	-4.56
888.452	-3
888.618	2.27
888.783	7.4
