Data from 2938025_Reflection_2.txt Node
Date: Sun Jul 12 15:17:08 EDT 2015
User: robert
Spectrometer: USB4E03001
Autoset integration time: false
Trigger mode: 4
Integration Time (sec): 1.000000E-1
Scans to average: 10
Electric dark correction enabled: true
Nonlinearity correction enabled: false
Boxcar width: 5
Stray light correction enabled: false
XAxis mode: Wavelengths
Stop averaging: false
Number of Pixels in Spectrum: 3648
>>>>>Begin Spectral Data<<<<<
177.566	-73.53
177.785	-41.83
178.005	-106.58
178.225	-108.28
178.445	-54.75
178.665	-73.54
178.885	-1414.02
179.105	34.74
179.324	-30.87
179.544	-13.49
179.764	-336.09
179.984	-28.2
180.204	-26.42
180.423	-4.37
180.643	-0.76
180.863	7.15
181.083	4.34
181.302	15.19
181.522	38.01
181.742	46.3
181.961	32.91
182.181	25.6
182.401	34.68
182.621	36.05
182.84	19.01
183.06	38.88
183.279	47.19
183.499	41.29
183.719	53.73
183.938	52.26
184.158	67.97
184.377	183.34
184.597	587.03
184.816	-5175.58
185.036	2177.01
185.256	-2214.63
185.475	-257.03
185.695	507.16
185.914	207.86
186.134	305.72
186.353	188.68
186.572	209.81
186.792	159.84
187.011	135.22
187.231	92.64
187.45	105.14
187.67	119.92
187.889	126.27
188.108	152.68
188.328	307.85
188.547	-1278.79
188.766	-2.3
188.986	-59.89
189.205	-13.58
189.424	-60.75
189.644	-53.27
189.863	3.69
190.082	24.82
190.302	19.29
190.521	20.8
190.74	30.18
190.959	46.82
191.178	56.54
191.398	74.68
191.617	91.69
191.836	90.8
192.055	44.03
192.274	56.56
192.494	73.56
192.713	80.47
192.932	68.83
193.151	61.34
193.37	101.1
193.589	-134.23
193.808	51.85
194.027	27.67
194.246	74.22
194.465	144.95
194.685	89.05
194.904	85.77
195.123	60.48
195.342	29.62
195.561	-39.49
195.78	11.01
195.999	76.11
196.218	94.17
196.436	2147.95
196.655	-2890
196.874	-171.59
197.093	103.53
197.312	59.26
197.531	31.47
197.75	-6.88
197.969	4.48
198.188	29.22
198.407	-13.39
198.625	48.63
198.844	35.62
199.063	89.06
199.282	-1.42
199.501	-245.04
199.719	-89.01
199.938	-100.74
200.157	-82.66
200.376	6.46
200.594	16.17
200.813	-34.19
201.032	21.07
201.251	-4.38
201.469	-7.22
201.688	-80.04
201.907	6.75
202.125	46.65
202.344	32.38
202.563	-54.13
202.781	-30.46
203	-64.89
203.218	-527.04
203.437	-324.2
203.656	-1577.81
203.874	411.68
204.093	318.84
204.311	240.95
204.53	205.95
204.748	9.32
204.967	1898.33
205.185	1794.64
205.404	211.54
205.622	257.16
205.841	-316.26
206.059	-1503.47
206.278	541.22
206.496	478.76
206.715	1812.81
206.933	-183.04
207.151	-91.12
207.37	-98.51
207.588	-43.8
207.806	5.12
208.025	-0.96
208.243	1.02
208.461	51.82
208.68	73.88
208.898	86.83
209.116	146.79
209.335	237.63
209.553	191.38
209.771	1741.11
209.989	677.22
210.208	755.04
210.426	474.76
210.644	551.08
210.862	212.12
211.081	-434.55
211.299	-367.72
211.517	-18.02
211.735	69.75
211.953	89.88
212.171	70.71
212.39	41.32
212.608	35.55
212.826	46.42
213.044	16.53
213.262	18.05
213.48	33.13
213.698	16.66
213.916	-13.77
214.134	-37.7
214.352	18.1
214.57	-82.36
214.788	59.96
215.006	-11.14
215.224	31.95
215.442	-165.31
215.66	81.6
215.878	164.23
216.096	588.94
216.314	64.35
216.532	71.95
216.75	49.9
216.968	25.01
217.185	-36.37
217.403	8.14
217.621	10.44
217.839	69.06
218.057	94.11
218.275	100.98
218.492	25.02
218.71	69.48
218.928	26.52
219.146	-27.52
219.363	14.23
219.581	72.17
219.799	67
220.017	170.27
220.234	81.56
220.452	119.83
220.67	-384.92
220.887	-283.04
221.105	23.63
221.323	241.82
221.54	142.62
221.758	52.23
221.976	-2.28
222.193	-13.22
222.411	17.79
222.629	-7.34
222.846	12.23
223.064	13.94
223.281	31.55
223.499	30.85
223.716	49.54
223.934	49.48
224.151	57.15
224.369	48.19
224.586	50.33
224.804	17.13
225.021	15.44
225.239	32.37
225.456	47.17
225.674	47.62
225.891	46.73
226.108	40.1
226.326	35.19
226.543	25.17
226.76	29.53
226.978	24.49
227.195	23.87
227.413	29.95
227.63	16.74
227.847	13.92
228.064	12.98
228.282	14.41
228.499	15.51
228.716	12.88
228.934	16.82
229.151	18.08
229.368	18
229.585	20.56
229.802	18.93
230.02	19.72
230.237	17.37
230.454	15.98
230.671	18.23
230.888	16.87
231.105	16.62
231.323	19.89
231.54	21.41
231.757	20.89
231.974	23.86
232.191	26.77
232.408	25.67
232.625	30.42
232.842	35.12
233.059	28.79
233.276	30
233.493	37.11
233.71	31.18
233.927	29.53
234.144	31.65
234.361	26.15
234.578	20.03
234.795	20.8
235.012	16.69
235.229	9.61
235.446	10.35
235.663	10.06
235.879	4.98
236.096	2.67
236.313	3.68
236.53	0.83
236.747	2.31
236.964	7.67
237.181	14.83
237.397	14.74
237.614	9.68
237.831	7.79
238.048	7.16
238.264	7.76
238.481	12.11
238.698	7.08
238.915	7.52
239.131	9.62
239.348	2.47
239.565	3.18
239.781	3.16
239.998	7.55
240.215	10.34
240.431	10.53
240.648	9.63
240.865	8.7
241.081	11.51
241.298	14.94
241.514	15.02
241.731	16.66
241.947	15
242.164	17.01
242.38	16.79
242.597	17.24
242.814	16.97
243.03	17.48
243.246	17.64
243.463	16.84
243.679	16.46
243.896	16.23
244.112	15.87
244.329	15.91
244.545	15.54
244.762	17.06
244.978	18.22
245.194	18.21
245.411	15.43
245.627	15.75
245.843	15.9
246.06	14.45
246.276	13.46
246.492	13.95
246.709	13.6
246.925	13.72
247.141	13.34
247.357	12.65
247.574	12.82
247.79	13.72
248.006	13.3
248.222	13.03
248.439	12.84
248.655	12.6
248.871	11.84
249.087	11.89
249.303	11.08
249.519	11.21
249.736	10.99
249.952	9.82
250.168	9.26
250.384	9.48
250.6	8.79
250.816	10.93
251.032	12.15
251.248	13.27
251.464	12.25
251.68	12.41
251.896	10.74
252.112	9.75
252.328	10.08
252.544	9.75
252.76	7.67
252.976	6.48
253.192	3.97
253.408	2.66
253.624	1.32
253.84	2.08
254.056	1.72
254.272	4.33
254.487	4.96
254.703	5.19
254.919	3.43
255.135	7.8
255.351	9.07
255.567	9.42
255.782	10.57
255.998	12.87
256.214	11.71
256.43	9.7
256.646	6.93
256.861	6.97
257.077	6.34
257.293	8.89
257.508	8.01
257.724	8.23
257.94	8.76
258.155	8.1
258.371	5.84
258.587	6.18
258.802	7.61
259.018	8.68
259.234	8.87
259.449	8.83
259.665	9.23
259.88	9.44
260.096	9.04
260.312	8.23
260.527	8.61
260.743	9.21
260.958	9.16
261.174	8.86
261.389	8.07
261.605	7.7
261.82	8.58
262.036	6.94
262.251	6
262.466	5.52
262.682	6.07
262.897	5.51
263.113	4.35
263.328	4.35
263.543	2.76
263.759	2.89
263.974	2.04
264.189	-0.01
264.405	1.62
264.62	1.04
264.835	-0.39
265.051	-1.04
265.266	-2.61
265.481	-1.53
265.696	0.45
265.912	3.04
266.127	3.27
266.342	5
266.557	6.07
266.773	5.43
266.988	6.04
267.203	8.45
267.418	9.07
267.633	8.72
267.848	9.04
268.064	8.65
268.279	7.98
268.494	7.91
268.709	8.62
268.924	7.46
269.139	7.11
269.354	7.7
269.569	8.15
269.784	7.56
269.999	9.37
270.214	8.79
270.429	8.53
270.644	7.04
270.859	7.16
271.074	6.34
271.289	6.91
271.504	6.72
271.719	6.43
271.934	6.15
272.149	6.92
272.363	7.37
272.578	8.09
272.793	7.33
273.008	8.41
273.223	8.58
273.438	8.47
273.653	7.79
273.867	7.91
274.082	7.94
274.297	6.98
274.512	7
274.726	6.34
274.941	4.93
275.156	4.19
275.371	4.93
275.585	4.95
275.8	3.81
276.015	4.75
276.229	5.14
276.444	4.92
276.659	5.03
276.873	5.15
277.088	7.63
277.302	9.16
277.517	10.57
277.732	10.22
277.946	10.34
278.161	11.08
278.375	11.71
278.59	11.38
278.804	11.2
279.019	11.35
279.233	10.03
279.448	6.01
279.662	4.15
279.877	3.96
280.091	3.2
280.306	3.36
280.52	5.81
280.735	4.4
280.949	4.92
281.163	5.39
281.378	5.78
281.592	6.42
281.806	7.2
282.021	8.17
282.235	7.86
282.449	9.7
282.664	9.74
282.878	7.96
283.092	8.97
283.307	8.42
283.521	6.82
283.735	6.01
283.949	7.3
284.164	7.95
284.378	6.32
284.592	6.26
284.806	5.78
285.02	5.97
285.234	5.91
285.449	4.98
285.663	4.49
285.877	5.73
286.091	6.71
286.305	6
286.519	5.42
286.733	6.29
286.947	6.41
287.161	5.93
287.375	6.12
287.589	6.11
287.803	7.06
288.017	8.14
288.231	8.62
288.445	8.21
288.659	7.48
288.873	7.57
289.087	8.17
289.301	8.63
289.515	9.07
289.729	8.72
289.943	9.31
290.157	9.71
290.371	9.76
290.584	9.52
290.798	8.62
291.012	7.86
291.226	8.18
291.44	8.14
291.654	7.68
291.867	7.96
292.081	7.12
292.295	6.06
292.509	5.01
292.722	4.86
292.936	4.37
293.15	5.1
293.364	5.41
293.577	7.25
293.791	6.95
294.005	8.23
294.218	5.99
294.432	6.65
294.645	6.34
294.859	6.12
295.073	5.92
295.286	6.53
295.5	7.36
295.713	8.56
295.927	8.18
296.14	7.9
296.354	6.25
296.568	7.06
296.781	7.21
296.994	6.78
297.208	7.24
297.421	7.6
297.635	7.7
297.848	6.89
298.062	6.99
298.275	6.37
298.489	6.27
298.702	7.21
298.915	7.39
299.129	7.98
299.342	9.17
299.555	10.33
299.769	9.75
299.982	8.99
300.195	10.46
300.409	11.36
300.622	11.76
300.835	11.7
301.048	11.25
301.262	10.97
301.475	9.72
301.688	10.32
301.901	8.75
302.115	9.53
302.328	9.79
302.541	8.3
302.754	8.25
302.967	7.77
303.18	8.34
303.393	9.21
303.607	10.56
303.82	10.94
304.033	9.86
304.246	10.16
304.459	9.77
304.672	8.68
304.885	8.87
305.098	7.05
305.311	7.14
305.524	7.33
305.737	6.94
305.95	5.75
306.163	7.37
306.376	6.91
306.589	6.79
306.802	7.65
307.015	9.78
307.228	10.82
307.44	10.74
307.653	11.31
307.866	12.04
308.079	13.63
308.292	13.29
308.505	10.67
308.718	12.52
308.93	11.56
309.143	10.38
309.356	8.77
309.569	8.49
309.781	10
309.994	8.16
310.207	8.32
310.42	6.42
310.632	6.14
310.845	7.49
311.058	7.4
311.27	7.79
311.483	8.05
311.696	9.43
311.908	10.22
312.121	10.24
312.333	11.11
312.546	10.61
312.759	11.36
312.971	12.32
313.184	13.24
313.396	13.84
313.609	14.08
313.821	13.97
314.034	12.95
314.246	11.18
314.459	11.38
314.671	11.01
314.884	10.8
315.096	10.31
315.309	10.65
315.521	8.75
315.733	6.58
315.946	8.36
316.158	8.7
316.371	8.56
316.583	9.83
316.795	7.46
317.008	7.22
317.22	8.01
317.432	7.8
317.644	7.22
317.857	8.88
318.069	8.95
318.281	7.43
318.494	6.03
318.706	6.8
318.918	7.85
319.13	8.58
319.342	9.11
319.555	7.85
319.767	8.95
319.979	10.04
320.191	8.91
320.403	10.9
320.615	10.93
320.827	12.75
321.039	13.12
321.252	11.85
321.464	13.08
321.676	12.84
321.888	13.79
322.1	14.07
322.312	13.2
322.524	13.91
322.736	13.05
322.948	13.55
323.16	14.43
323.372	14.57
323.584	14.2
323.796	13.42
324.007	14.03
324.219	14.38
324.431	14.4
324.643	15
324.855	14.42
325.067	13.78
325.279	13.5
325.491	12.81
325.702	11.73
325.914	12.21
326.126	12.42
326.338	12.12
326.55	10.81
326.761	10.22
326.973	9.74
327.185	10.04
327.396	10.71
327.608	11.85
327.82	11.88
328.032	12.97
328.243	12.72
328.455	12.56
328.666	13.57
328.878	14.13
329.09	13.34
329.301	14.67
329.513	14.62
329.725	14.78
329.936	14.25
330.148	13.82
330.359	13.38
330.571	13.72
330.782	13.43
330.994	11.27
331.205	11.75
331.417	11.94
331.628	9.79
331.84	9.9
332.051	10.29
332.262	11.02
332.474	10.95
332.685	10.18
332.897	10.75
333.108	10.97
333.319	12.38
333.531	12.52
333.742	12.53
333.953	13.37
334.165	13.26
334.376	11.79
334.587	10.42
334.799	11.47
335.01	13.54
335.221	12.31
335.432	11.19
335.644	10.27
335.855	9.51
336.066	10
336.277	9.27
336.488	9.18
336.7	9.88
336.911	9.54
337.122	8.54
337.333	7.56
337.544	7.01
337.755	8.45
337.966	8.62
338.177	9.7
338.388	10.28
338.599	11.47
338.811	11.32
339.022	11.35
339.233	11.16
339.444	11.9
339.655	10.55
339.866	12.15
340.076	12.29
340.287	12.39
340.498	12.79
340.709	12.35
340.92	10.95
341.131	11.84
341.342	11.32
341.553	12.28
341.764	12.23
341.975	12.34
342.185	10.93
342.396	10.69
342.607	10.32
342.818	10.71
343.029	9.75
343.239	9.58
343.45	8.94
343.661	9.45
343.872	9.24
344.082	8.64
344.293	9.41
344.504	10.41
344.714	10.1
344.925	9.88
345.136	8.94
345.346	10.71
345.557	11.53
345.768	9.92
345.978	9.64
346.189	9.66
346.399	10.12
346.61	10.55
346.821	10.4
347.031	11.41
347.242	11.84
347.452	11.35
347.663	9.95
347.873	10.02
348.084	11.69
348.294	12.49
348.504	12.57
348.715	12.81
348.925	12.37
349.136	11.89
349.346	11.12
349.557	10.56
349.767	10.81
349.977	11.74
350.188	12.05
350.398	12.49
350.608	12.49
350.819	11.17
351.029	11.72
351.239	11.78
351.449	12.06
351.66	11.04
351.87	10.83
352.08	9.34
352.29	9.08
352.501	8.57
352.711	8.36
352.921	7.41
353.131	7.92
353.341	6.82
353.552	6.68
353.762	6.51
353.972	7.22
354.182	8.56
354.392	8.93
354.602	8.9
354.812	8.08
355.022	8.77
355.232	9.44
355.442	10.35
355.652	10.12
355.862	10.32
356.072	10.09
356.282	9.91
356.492	10.23
356.702	10.83
356.912	10.82
357.122	11.85
357.332	11.43
357.542	11.28
357.752	11.77
357.962	11.38
358.171	11.16
358.381	11.71
358.591	12.58
358.801	12.46
359.011	12.57
359.221	12.3
359.43	11.32
359.64	10.81
359.85	10.11
360.06	9.31
360.269	9.32
360.479	9.25
360.689	9.11
360.899	7.98
361.108	7.46
361.318	6.77
361.528	7.12
361.737	7.55
361.947	7.51
362.156	7.87
362.366	8.27
362.576	8.38
362.785	8.35
362.995	8.29
363.204	8.31
363.414	8.18
363.623	8.94
363.833	8.2
364.042	8.47
364.252	8.93
364.461	8.85
364.671	8.11
364.88	8.17
365.09	8.61
365.299	8.71
365.509	9.66
365.718	10.48
365.927	11.02
366.137	11.49
366.346	11.03
366.555	10.24
366.765	10.06
366.974	10.14
367.183	10.27
367.393	9.78
367.602	9.52
367.811	8.51
368.021	7.47
368.23	6.48
368.439	6.21
368.648	6.22
368.857	6.62
369.067	7.05
369.276	7.85
369.485	8.37
369.694	9.11
369.903	8.87
370.112	9.37
370.321	9.88
370.531	9.44
370.74	9.51
370.949	9.24
371.158	8.94
371.367	8.71
371.576	7.83
371.785	6.98
371.994	6.72
372.203	6.92
372.412	7.37
372.621	7.47
372.83	7.55
373.039	7.49
373.248	7.14
373.457	7.6
373.666	7.23
373.874	7.45
374.083	7.94
374.292	7.77
374.501	8.08
374.71	7.33
374.919	7.03
375.128	8.38
375.336	8.31
375.545	9.47
375.754	9.4
375.963	9.56
376.171	9.72
376.38	10.44
376.589	10.71
376.798	10.33
377.006	10.58
377.215	10.58
377.424	9.78
377.632	10.41
377.841	9.41
378.05	9.45
378.258	9.59
378.467	9.44
378.675	8.62
378.884	8.35
379.093	8.14
379.301	7.92
379.51	8.27
379.718	8.41
379.927	7.62
380.135	7.58
380.344	6.93
380.552	7.3
380.761	7.14
380.969	6.64
381.177	6.18
381.386	6.42
381.594	6.57
381.803	5.9
382.011	5.67
382.219	5.57
382.428	5.7
382.636	5.9
382.845	5.11
383.053	4.92
383.261	5.31
383.469	5.23
383.678	5.48
383.886	5.64
384.094	6.13
384.302	5.84
384.511	6.41
384.719	6.43
384.927	6.61
385.135	7.37
385.343	7.49
385.552	7.22
385.76	7.26
385.968	7.02
386.176	6.68
386.384	6.06
386.592	6.42
386.8	6.15
387.008	6.26
387.216	6.31
387.424	6
387.633	5.78
387.841	5.86
388.049	6.25
388.257	6.51
388.465	6.64
388.672	7.1
388.88	6.43
389.088	5.99
389.296	5.56
389.504	5.36
389.712	5.19
389.92	5.48
390.128	5.52
390.336	4.98
390.544	4.33
390.751	4.07
390.959	4.08
391.167	4.61
391.375	4.74
391.583	5.19
391.79	4.94
391.998	5.05
392.206	5.04
392.414	5.35
392.621	5.42
392.829	5.9
393.037	6.4
393.244	6.29
393.452	6.11
393.66	6.29
393.867	6.6
394.075	6.92
394.283	6.79
394.49	6.75
394.698	6.62
394.905	6.42
395.113	6.35
395.32	5.76
395.528	5.76
395.735	6.03
395.943	5.82
396.15	5.33
396.358	4.89
396.565	5.24
396.773	5.36
396.98	5
397.188	5.88
397.395	5.86
397.602	6.34
397.81	6.46
398.017	6.3
398.225	6.63
398.432	6.42
398.639	6.8
398.847	6.81
399.054	6.77
399.261	6.95
399.468	6.54
399.676	6.48
399.883	6.16
400.09	5.95
400.297	5.85
400.505	5.97
400.712	6.32
400.919	6.21
401.126	6.05
401.333	5.76
401.54	5.9
401.748	5.8
401.955	5.69
402.162	5.94
402.369	6.25
402.576	6.29
402.783	6.22
402.99	5.91
403.197	6.07
403.404	5.82
403.611	5.54
403.818	5.34
404.025	5.29
404.232	5.39
404.439	5
404.646	4.73
404.853	5.04
405.06	4.89
405.267	5.06
405.474	4.99
405.681	5.16
405.887	5.48
406.094	5.55
406.301	5.78
406.508	5.51
406.715	5.71
406.922	5.63
407.128	5.3
407.335	5.12
407.542	5.2
407.749	5.17
407.955	5.08
408.162	4.9
408.369	5.02
408.575	5.22
408.782	5.25
408.989	5.35
409.195	5.47
409.402	5.54
409.609	5.65
409.815	5.58
410.022	5.48
410.228	5.46
410.435	5.95
410.642	5.62
410.848	5.15
411.055	5.27
411.261	5.53
411.468	5.41
411.674	5.08
411.881	5.08
412.087	5.25
412.294	5.09
412.5	5
412.706	4.7
412.913	5.01
413.119	4.99
413.326	5.32
413.532	5.02
413.738	4.87
413.945	4.96
414.151	5.11
414.357	4.94
414.564	5.3
414.77	5.44
414.976	5.49
415.182	5.27
415.389	5.38
415.595	5.19
415.801	4.96
416.007	5.11
416.214	5.22
416.42	5.22
416.626	5.05
416.832	5.1
417.038	5.07
417.244	5
417.45	5.1
417.657	4.94
417.863	5.16
418.069	5.18
418.275	5.24
418.481	5.17
418.687	4.84
418.893	4.78
419.099	4.6
419.305	4.54
419.511	4.51
419.717	4.48
419.923	4.51
420.129	4.13
420.335	4.22
420.541	4.13
420.746	4.1
420.952	4.32
421.158	4.3
421.364	4.26
421.57	4.3
421.776	4.39
421.982	4.38
422.187	4.34
422.393	4.3
422.599	4.3
422.805	4.29
423.01	4.37
423.216	4.3
423.422	4.29
423.628	4.31
423.833	4.28
424.039	4.22
424.245	4.23
424.45	4.32
424.656	4.44
424.862	4.31
425.067	4.3
425.273	4.22
425.478	4.21
425.684	4.17
425.889	4.21
426.095	4.09
426.301	4.08
426.506	4.11
426.712	4.07
426.917	4.24
427.123	4.66
427.328	4.85
427.533	4.86
427.739	4.85
427.944	5.1
428.15	4.82
428.355	5.01
428.561	4.96
428.766	4.89
428.971	4.98
429.177	4.89
429.382	4.66
429.587	4.54
429.793	4.39
429.998	4.44
430.203	4.46
430.408	4.84
430.614	4.68
430.819	4.72
431.024	4.65
431.229	4.53
431.434	4.49
431.64	4.36
431.845	4.44
432.05	4.72
432.255	4.72
432.46	4.65
432.665	4.5
432.87	4.59
433.076	4.62
433.281	4.7
433.486	4.61
433.691	4.49
433.896	4.47
434.101	4.5
434.306	4.48
434.511	4.26
434.716	4.12
434.921	4.24
435.126	4.15
435.331	4.24
435.535	4.31
435.74	4.38
435.945	4.44
436.15	4.31
436.355	4.33
436.56	4.23
436.765	4.45
436.97	4.55
437.174	4.49
437.379	4.71
437.584	4.54
437.789	4.45
437.993	4.52
438.198	4.69
438.403	4.83
438.608	4.67
438.812	4.74
439.017	4.68
439.222	4.96
439.426	4.9
439.631	4.76
439.836	4.62
440.04	4.54
440.245	4.37
440.45	4.29
440.654	4.2
440.859	4.36
441.063	4.36
441.268	4.41
441.472	4.14
441.677	4.3
441.881	4.23
442.086	4.34
442.29	4.42
442.495	4.53
442.699	4.55
442.904	4.58
443.108	4.31
443.312	4.3
443.517	4.3
443.721	4.37
443.925	4.19
444.13	4.16
444.334	4.09
444.538	4.01
444.743	3.89
444.947	3.88
445.151	3.96
445.356	4.03
445.56	4.03
445.764	3.92
445.968	3.94
446.173	3.98
446.377	4.16
446.581	4.25
446.785	4.24
446.989	4.33
447.193	4.35
447.398	4.35
447.602	4.36
447.806	4.4
448.01	4.47
448.214	4.39
448.418	4.32
448.622	4.14
448.826	4.1
449.03	4.35
449.234	4.41
449.438	4.51
449.642	4.65
449.846	4.54
450.05	4.31
450.254	4.4
450.458	4.66
450.662	4.78
450.866	4.96
451.069	5.02
451.273	4.67
451.477	4.69
451.681	4.43
451.885	4.09
452.089	4.3
452.292	4.6
452.496	4.6
452.7	4.37
452.904	4.38
453.107	4.45
453.311	4.32
453.515	4.32
453.719	4.11
453.922	4.22
454.126	4.19
454.33	4.35
454.533	4.07
454.737	3.99
454.94	4.12
455.144	4
455.348	3.79
455.551	3.6
455.755	3.67
455.958	3.89
456.162	3.64
456.365	3.73
456.569	3.61
456.772	3.58
456.976	3.69
457.179	3.6
457.383	3.77
457.586	3.98
457.79	4.13
457.993	4.02
458.196	3.93
458.4	4.21
458.603	4.11
458.807	3.94
459.01	4
459.213	3.84
459.417	3.88
459.62	3.87
459.823	3.78
460.026	3.93
460.23	4.04
460.433	4.14
460.636	4.01
460.839	4.22
461.042	4.3
461.246	4.31
461.449	4.37
461.652	4.42
461.855	4.24
462.058	4.2
462.261	4.04
462.464	4.07
462.668	4.02
462.871	4
463.074	3.85
463.277	3.9
463.48	4.08
463.683	3.93
463.886	3.9
464.089	4.05
464.292	4.23
464.495	4.27
464.698	4.01
464.901	3.74
465.104	3.77
465.306	3.81
465.509	3.76
465.712	3.61
465.915	3.61
466.118	3.71
466.321	3.47
466.524	3.33
466.726	3.38
466.929	3.61
467.132	3.78
467.335	3.89
467.538	4.03
467.74	3.98
467.943	4.16
468.146	4.09
468.348	3.95
468.551	4.06
468.754	3.99
468.956	4.06
469.159	3.99
469.362	4.08
469.564	4.02
469.767	3.76
469.969	3.78
470.172	3.63
470.375	3.86
470.577	3.9
470.78	4.04
470.982	3.99
471.185	3.72
471.387	3.73
471.59	3.61
471.792	3.67
471.995	3.79
472.197	3.53
472.399	3.52
472.602	3.57
472.804	3.47
473.007	3.34
473.209	3.62
473.411	3.82
473.614	3.87
473.816	3.91
474.018	3.92
474.22	4.07
474.423	4.35
474.625	4.45
474.827	4.34
475.03	4.4
475.232	4.41
475.434	4.27
475.636	4.16
475.838	4.07
476.04	4.07
476.243	4.11
476.445	3.91
476.647	3.82
476.849	3.82
477.051	3.92
477.253	3.98
477.455	4.28
477.657	4.34
477.859	4.41
478.061	4.45
478.263	4.31
478.465	4.26
478.667	4.59
478.869	4.81
479.071	4.73
479.273	4.5
479.475	4.64
479.677	4.35
479.879	4.14
480.081	4.16
480.283	4.19
480.485	4.27
480.686	4.34
480.888	4.2
481.09	4.1
481.292	4.03
481.494	4.1
481.695	3.94
481.897	3.98
482.099	4.02
482.301	3.99
482.502	3.98
482.704	4
482.906	3.93
483.107	3.9
483.309	3.92
483.511	4
483.712	4.04
483.914	4.06
484.115	4.04
484.317	4.04
484.519	4.05
484.72	4.01
484.922	4.06
485.123	4.06
485.325	4
485.526	3.97
485.728	3.91
485.929	3.94
486.131	3.95
486.332	4.02
486.534	4.07
486.735	4.08
486.936	4.14
487.138	4.1
487.339	4.09
487.541	4.18
487.742	4.15
487.943	4.17
488.144	4.11
488.346	4.09
488.547	4.05
488.748	3.98
488.95	3.94
489.151	3.91
489.352	3.94
489.553	3.96
489.755	3.93
489.956	3.95
490.157	3.96
490.358	3.96
490.559	3.93
490.76	3.94
490.961	3.99
491.163	4.05
491.364	4.03
491.565	3.99
491.766	3.99
491.967	3.96
492.168	3.96
492.369	3.93
492.57	3.96
492.771	4.02
492.972	4.06
493.173	4.08
493.374	4.02
493.575	4.03
493.776	4.02
493.976	4.01
494.177	3.98
494.378	4
494.579	3.81
494.78	3.82
494.981	3.72
495.182	3.72
495.382	3.77
495.583	3.86
495.784	3.82
495.985	3.97
496.185	4.03
496.386	4.11
496.587	4.21
496.788	4.45
496.988	4.28
497.189	4.21
497.39	4.12
497.59	4.15
497.791	4.07
497.992	4.21
498.192	4.13
498.393	3.88
498.593	3.86
498.794	3.98
498.994	4.05
499.195	4.07
499.395	4.05
499.596	4.04
499.796	4.03
499.997	3.95
500.197	3.78
500.398	3.8
500.598	4.09
500.799	4.03
500.999	3.89
501.199	3.75
501.4	3.73
501.6	3.91
501.801	3.81
502.001	3.9
502.201	3.91
502.402	4.19
502.602	4.08
502.802	4.13
503.002	4.3
503.203	4.34
503.403	4.15
503.603	4.27
503.803	4.29
504.003	4.43
504.204	4.3
504.404	4.36
504.604	4.08
504.804	4.23
505.004	4.18
505.204	4.01
505.404	3.83
505.604	3.93
505.804	4.09
506.005	3.96
506.205	4.17
506.405	4.37
506.605	4.48
506.805	4.63
507.005	4.55
507.204	4.56
507.404	4.67
507.604	4.69
507.804	4.83
508.004	4.71
508.204	4.7
508.404	4.43
508.604	4.3
508.804	4.24
509.003	4.28
509.203	4.32
509.403	4.28
509.603	4.25
509.803	4.17
510.002	4.22
510.202	4.31
510.402	4.36
510.602	4.42
510.801	4.36
511.001	4.45
511.201	4.42
511.4	4.51
511.6	4.59
511.8	4.63
511.999	4.86
512.199	4.76
512.398	4.73
512.598	4.91
512.797	4.98
512.997	5.1
513.197	5.1
513.396	5.21
513.596	5.07
513.795	5.07
513.994	4.92
514.194	4.88
514.393	4.86
514.593	4.81
514.792	4.57
514.992	4.6
515.191	4.58
515.39	4.58
515.59	4.42
515.789	4.58
515.988	4.5
516.188	4.6
516.387	4.63
516.586	4.53
516.786	4.52
516.985	4.59
517.184	4.59
517.383	4.56
517.582	4.46
517.782	4.56
517.981	4.49
518.18	4.59
518.379	4.68
518.578	4.63
518.777	4.84
518.976	4.89
519.176	5.02
519.375	4.98
519.574	4.99
519.773	5.04
519.972	4.9
520.171	4.93
520.37	4.91
520.569	4.8
520.768	4.84
520.967	4.78
521.166	4.67
521.365	4.56
521.564	4.59
521.762	4.59
521.961	4.59
522.16	4.75
522.359	4.73
522.558	4.83
522.757	4.83
522.956	4.79
523.154	4.84
523.353	4.99
523.552	4.93
523.751	4.83
523.949	4.85
524.148	4.91
524.347	4.84
524.546	4.92
524.744	4.9
524.943	5
525.142	5.13
525.34	5.08
525.539	5.08
525.737	5.1
525.936	5.11
526.135	5.2
526.333	5.23
526.532	5.24
526.73	5.08
526.929	5.06
527.127	5.08
527.326	4.94
527.524	4.98
527.723	4.94
527.921	5.03
528.12	5.12
528.318	5.13
528.516	5.11
528.715	5.19
528.913	5.28
529.112	5.27
529.31	5.16
529.508	5.21
529.707	5.22
529.905	5.27
530.103	5.23
530.301	5.18
530.5	5.15
530.698	5.21
530.896	5.18
531.094	5.19
531.293	5.28
531.491	5.4
531.689	5.43
531.887	5.46
532.085	5.47
532.283	5.41
532.481	5.53
532.68	5.6
532.878	5.63
533.076	5.65
533.274	5.61
533.472	5.48
533.67	5.54
533.868	5.6
534.066	5.52
534.264	5.51
534.462	5.62
534.66	5.58
534.858	5.54
535.056	5.5
535.253	5.43
535.451	5.43
535.649	5.55
535.847	5.48
536.045	5.53
536.243	5.62
536.441	5.8
536.638	5.83
536.836	5.86
537.034	5.91
537.232	5.86
537.43	5.82
537.627	5.9
537.825	5.99
538.023	6.09
538.22	6.01
538.418	6.02
538.616	6.04
538.813	6.07
539.011	6.13
539.209	6.1
539.406	6.23
539.604	6.5
539.801	6.57
539.999	6.53
540.196	6.54
540.394	6.55
540.591	6.58
540.789	6.52
540.986	6.58
541.184	6.49
541.381	6.55
541.579	6.53
541.776	6.5
541.974	6.42
542.171	6.44
542.368	6.43
542.566	6.54
542.763	6.58
542.96	6.6
543.158	6.56
543.355	6.57
543.552	6.6
543.75	6.64
543.947	6.54
544.144	6.64
544.341	6.66
544.539	6.72
544.736	6.6
544.933	6.64
545.13	6.6
545.327	6.56
545.524	6.8
545.722	6.72
545.919	6.72
546.116	6.84
546.313	7.03
546.51	7.07
546.707	7.12
546.904	7.22
547.101	7.23
547.298	7.4
547.495	7.43
547.692	7.47
547.889	7.54
548.086	7.7
548.283	7.73
548.48	7.58
548.677	7.6
548.874	7.55
549.07	7.58
549.267	7.65
549.464	7.68
549.661	7.82
549.858	7.81
550.055	7.9
550.251	7.75
550.448	7.77
550.645	7.7
550.842	7.72
551.038	8.08
551.235	8.04
551.432	8.17
551.628	8.18
551.825	8.27
552.022	8.23
552.218	8.31
552.415	8.47
552.612	8.48
552.808	8.8
553.005	9.01
553.201	8.9
553.398	9.03
553.594	8.94
553.791	8.87
553.987	8.82
554.184	8.85
554.38	8.69
554.577	8.71
554.773	8.78
554.97	8.51
555.166	8.41
555.362	8.32
555.559	8.25
555.755	8.41
555.952	8.48
556.148	8.46
556.344	8.66
556.541	9.01
556.737	9.1
556.933	9.22
557.129	9.3
557.326	9.43
557.522	9.51
557.718	9.49
557.914	9.42
558.11	9.37
558.307	9.57
558.503	9.53
558.699	9.34
558.895	9.23
559.091	9.33
559.287	9.34
559.483	9.24
559.679	9.23
559.876	9.45
560.072	9.48
560.268	9.6
560.464	9.69
560.66	9.71
560.856	9.84
561.052	10.17
561.247	10.17
561.443	10.16
561.639	10.38
561.835	10.75
562.031	10.78
562.227	10.8
562.423	11.05
562.619	10.95
562.815	11.22
563.01	11.09
563.206	10.84
563.402	10.69
563.598	10.9
563.793	10.9
563.989	10.9
564.185	10.87
564.381	10.83
564.576	10.78
564.772	10.86
564.968	10.78
565.163	10.85
565.359	11.06
565.555	11.25
565.75	11.47
565.946	11.53
566.141	11.57
566.337	11.6
566.532	11.61
566.728	11.66
566.923	11.57
567.119	11.59
567.314	11.8
567.51	11.74
567.705	11.91
567.901	11.83
568.096	11.66
568.292	11.6
568.487	11.75
568.682	11.95
568.878	12
569.073	12.21
569.268	12.24
569.464	12.16
569.659	12.1
569.854	11.91
570.05	12.08
570.245	12.37
570.44	12.44
570.635	12.59
570.831	12.58
571.026	12.53
571.221	12.72
571.416	12.62
571.611	12.69
571.806	12.81
572.002	13.01
572.197	12.91
572.392	12.89
572.587	12.76
572.782	12.62
572.977	12.67
573.172	12.84
573.367	12.89
573.562	13.12
573.757	13.06
573.952	13.14
574.147	13.22
574.342	13.38
574.537	13.37
574.732	13.49
574.927	13.77
575.121	13.84
575.316	13.81
575.511	13.71
575.706	13.63
575.901	13.81
576.096	13.82
576.29	13.82
576.485	13.79
576.68	14.04
576.875	14.15
577.069	14.07
577.264	14.1
577.459	14.11
577.654	14.12
577.848	14.27
578.043	14.49
578.238	14.67
578.432	14.62
578.627	14.65
578.821	14.32
579.016	14.16
579.21	14.12
579.405	14.22
579.6	14.39
579.794	14.54
579.989	14.47
580.183	13.7
580.378	13.62
580.572	13.81
580.766	13.6
580.961	13.81
581.155	14.13
581.35	13.93
581.544	13.99
581.738	13.87
581.933	13.84
582.127	13.99
582.321	14.27
582.516	14.42
582.71	14.13
582.904	14.17
583.099	14.06
583.293	13.93
583.487	14.02
583.681	13.96
583.875	13.95
584.07	13.92
584.264	13.77
584.458	13.94
584.652	13.66
584.846	14.08
585.04	14.27
585.234	14.22
585.428	14.23
585.623	14.47
585.817	14.2
586.011	14.05
586.205	13.65
586.399	13.88
586.593	13.97
586.787	14.09
586.981	14.07
587.174	13.86
587.368	14.33
587.562	14.47
587.756	14.34
587.95	14.37
588.144	14.66
588.338	15.29
588.532	15.07
588.725	15.11
588.919	15.22
589.113	14.96
589.307	15.26
589.501	14.97
589.694	14.61
589.888	14.57
590.082	14.79
590.275	14.5
590.469	14.28
590.663	14.29
590.856	14.45
591.05	14.59
591.244	14.83
591.437	14.89
591.631	14.82
591.824	15.25
592.018	15.13
592.212	14.97
592.405	15.44
592.599	15.38
592.792	15.33
592.986	15.13
593.179	15.04
593.372	14.91
593.566	14.82
593.759	14.95
593.953	15.09
594.146	15.17
594.339	15.41
594.533	14.97
594.726	15.12
594.92	15.36
595.113	15.59
595.306	15.45
595.499	15.45
595.693	15.53
595.886	15.5
596.079	15.46
596.272	15.51
596.466	15.49
596.659	15.61
596.852	15.6
597.045	15.44
597.238	15.34
597.431	15.62
597.624	15.61
597.818	15.49
598.011	15.73
598.204	15.58
598.397	15.68
598.59	15.51
598.783	15.79
598.976	15.68
599.169	15.88
599.362	15.91
599.555	15.7
599.748	15.76
599.941	15.88
600.134	15.7
600.326	15.72
600.519	15.71
600.712	15.94
600.905	15.96
601.098	16.22
601.291	16.33
601.483	16.47
601.676	16.35
601.869	16.41
602.062	16.24
602.255	16.25
602.447	16.25
602.64	16.32
602.833	16.27
603.025	16.16
603.218	15.86
603.411	15.83
603.603	15.68
603.796	15.92
603.989	15.83
604.181	16.1
604.374	16.06
604.566	16.16
604.759	15.91
604.951	16.02
605.144	15.73
605.336	15.9
605.529	15.84
605.721	15.88
605.914	15.68
606.106	15.63
606.299	15.61
606.491	15.37
606.683	15.46
606.876	15.56
607.068	15.29
607.26	15.84
607.453	15.89
607.645	15.96
607.837	15.98
608.03	16.08
608.222	16.2
608.414	16
608.606	16.44
608.799	16.29
608.991	16.48
609.183	16.46
609.375	16.23
609.567	16.17
609.759	16.12
609.952	15.96
610.144	15.89
610.336	15.86
610.528	15.86
610.72	15.73
610.912	15.6
611.104	15.48
611.296	15.66
611.488	15.45
611.68	15.37
611.872	15.23
612.064	15.57
612.256	15.4
612.448	15.42
612.64	15.36
612.832	15.3
613.023	15.27
613.215	15.44
613.407	15.57
613.599	15.89
613.791	15.98
613.983	16.1
614.174	15.67
614.366	15.71
614.558	15.46
614.75	15.6
614.941	15.65
615.133	15.66
615.325	15.55
615.516	15.22
615.708	15.21
615.9	15.06
616.091	15.11
616.283	15.37
616.475	15.91
616.666	16.23
616.858	16.12
617.049	15.94
617.241	16.03
617.432	15.93
617.624	16.12
617.815	15.96
618.007	15.95
618.198	15.95
618.39	15.85
618.581	15.62
618.773	15.69
618.964	15.73
619.155	15.86
619.347	16.02
619.538	16.14
619.729	16.16
619.921	16.17
620.112	16.24
620.303	16.31
620.494	16.26
620.686	16.27
620.877	16.13
621.068	15.97
621.259	16.17
621.451	16.13
621.642	16.16
621.833	16.15
622.024	16.16
622.215	16.04
622.406	15.93
622.597	16.1
622.788	16.29
622.98	16.44
623.171	16.82
623.362	16.52
623.553	16.06
623.744	16.14
623.935	16.2
624.126	16.58
624.317	16.86
624.508	16.73
624.698	16.73
624.889	16.49
625.08	16.51
625.271	16.41
625.462	16.83
625.653	17.23
625.844	17.27
626.034	17.54
626.225	17.33
626.416	17.35
626.607	17.68
626.798	17.74
626.988	17.59
627.179	17.64
627.37	17.59
627.56	17.61
627.751	17.58
627.942	17.4
628.132	16.93
628.323	16.69
628.514	16.4
628.704	16.37
628.895	16.48
629.085	16.58
629.276	16.49
629.466	16.72
629.657	16.58
629.847	16.52
630.038	16.38
630.228	16.83
630.419	17.56
630.609	17.88
630.8	17.82
630.99	17.44
631.181	17.76
631.371	17.65
631.561	17.35
631.752	17.17
631.942	17.59
632.132	17.79
632.323	17.72
632.513	17.34
632.703	17.61
632.893	17.46
633.084	17.68
633.274	17.33
633.464	17.37
633.654	17.49
633.844	17.51
634.034	17.33
634.225	17.22
634.415	17.09
634.605	17.16
634.795	16.59
634.985	16.89
635.175	16.92
635.365	17.26
635.555	17.59
635.745	17.65
635.935	17.61
636.125	17.6
636.315	18
636.505	18.03
636.695	17.88
636.885	18.34
637.075	18.13
637.265	18.03
637.455	18.04
637.644	17.81
637.834	17.57
638.024	17.37
638.214	17.41
638.404	17.4
638.593	17.12
638.783	17.37
638.973	16.98
639.163	16.94
639.352	17.22
639.542	16.81
639.732	16.41
639.921	16.28
640.111	16.88
640.301	16.58
640.49	16.44
640.68	16.47
640.87	16.39
641.059	16.72
641.249	16.75
641.438	16.56
641.628	16.79
641.817	17.26
642.007	17.87
642.196	17.46
642.386	17.43
642.575	17.2
642.764	17.81
642.954	17.48
643.143	17.51
643.333	17.75
643.522	17.88
643.711	17.92
643.901	17.73
644.09	17.53
644.279	17.77
644.469	17.93
644.658	18.2
644.847	17.63
645.036	17.63
645.226	17.57
645.415	17.51
645.604	17.4
645.793	17.25
645.982	17.51
646.171	17.27
646.361	17.24
646.55	17.43
646.739	17.39
646.928	17.63
647.117	17.55
647.306	17.25
647.495	16.73
647.684	16.75
647.873	16.86
648.062	16.43
648.251	16.7
648.44	16.82
648.629	16.48
648.818	16.03
649.007	15.96
649.196	16.29
649.384	16.47
649.573	17.14
649.762	16.9
649.951	17.1
650.14	16.99
650.328	17.03
650.517	16.7
650.706	16.86
650.895	17.05
651.083	16.72
651.272	16.49
651.461	16.65
651.65	16.77
651.838	17.06
652.027	16.63
652.216	17.18
652.404	16.78
652.593	16.91
652.781	17.03
652.97	17.43
653.158	17.54
653.347	17.59
653.535	17.61
653.724	17.38
653.912	17.49
654.101	17.84
654.289	17.64
654.478	17.78
654.666	17.85
654.855	17.88
655.043	17.55
655.231	17.83
655.42	17.91
655.608	18.09
655.796	17.69
655.985	17.17
656.173	16.91
656.361	17.09
656.55	17.39
656.738	17.48
656.926	17.24
657.114	17.21
657.302	17.51
657.491	17.17
657.679	17.03
657.867	17.24
658.055	17.49
658.243	17.7
658.431	17.48
658.619	17.34
658.807	17.15
658.996	17.56
659.184	17.65
659.372	17.48
659.56	17.85
659.748	17.8
659.936	17.81
660.124	18.06
660.311	18.05
660.499	17.89
660.687	18.13
660.875	18.53
661.063	18.5
661.251	18.69
661.439	18.65
661.627	18.75
661.814	18.61
662.002	18.67
662.19	19
662.378	19.05
662.565	19.52
662.753	19.55
662.941	20.05
663.129	19.9
663.316	19.79
663.504	20.27
663.692	20.09
663.879	19.99
664.067	20.19
664.254	19.75
664.442	19.33
664.63	19.3
664.817	19.19
665.005	18.27
665.192	18.19
665.38	18.25
665.567	17.59
665.755	17.72
665.942	17.87
666.13	17.96
666.317	17.59
666.504	17.93
666.692	17.71
666.879	17.87
667.067	17.67
667.254	18.35
667.441	18.05
667.629	18.13
667.816	18.2
668.003	18.87
668.19	18.95
668.378	19.29
668.565	19.15
668.752	19.33
668.939	18.87
669.127	19.31
669.314	18.54
669.501	19.21
669.688	19.71
669.875	19.84
670.062	19.28
670.249	19.16
670.436	19.04
670.623	19.52
670.81	19.24
670.997	19.32
671.184	19.17
671.371	19.8
671.558	19.19
671.745	18.86
671.932	19.03
672.119	18.85
672.306	18.91
672.493	18.87
672.68	18.77
672.867	19.22
673.054	19.77
673.24	20.21
673.427	19.68
673.614	20.06
673.801	20.08
673.988	19.29
674.174	19.55
674.361	19.61
674.548	19.44
674.734	19.47
674.921	19.3
675.108	19.22
675.294	18.97
675.481	18.84
675.668	18.66
675.854	18.77
676.041	19.1
676.227	18.87
676.414	18.32
676.601	18.44
676.787	18.12
676.974	18.64
677.16	18.38
677.347	18.22
677.533	17.91
677.719	18.18
677.906	17.91
678.092	17.62
678.279	17.34
678.465	16.86
678.651	16.88
678.838	17.43
679.024	17.23
679.21	17.22
679.397	17.03
679.583	17.63
679.769	17.77
679.955	18.02
680.142	18.49
680.328	18.83
680.514	19.21
680.7	19.5
680.886	19.39
681.073	19.6
681.259	19.98
681.445	20.07
681.631	20.1
681.817	19.49
682.003	19.11
682.189	19.09
682.375	18.96
682.561	19.11
682.747	19.2
682.933	18.98
683.119	18.18
683.305	18.13
683.491	18.49
683.677	18.4
683.863	18.88
684.049	19.24
684.235	19.22
684.42	19.79
684.606	19.78
684.792	19.66
684.978	19.43
685.164	19.7
685.349	19.25
685.535	18.99
685.721	19.04
685.907	18.91
686.092	19.2
686.278	18.5
686.464	17.85
686.649	18.02
686.835	17.32
687.021	17.7
687.206	17.4
687.392	17.43
687.577	17.4
687.763	17.05
687.948	17.43
688.134	16.95
688.319	17.53
688.505	18.08
688.69	18.04
688.876	18.56
689.061	18.48
689.247	19.01
689.432	18.6
689.618	18.78
689.803	19.08
689.988	18.65
690.174	19.27
690.359	19.14
690.544	18.86
690.73	18.97
690.915	18.99
691.1	18.76
691.285	18.21
691.471	19.12
691.656	19.16
691.841	18.96
692.026	19.47
692.211	18.88
692.396	18.71
692.582	18.81
692.767	18.85
692.952	18.78
693.137	19.18
693.322	19.89
693.507	19.73
693.692	19.64
693.877	19.6
694.062	19.2
694.247	19.49
694.432	19.95
694.617	20.3
694.802	19.71
694.987	19.55
695.172	19.07
695.357	18.63
695.541	18.64
695.726	19.06
695.911	19.04
696.096	19.39
696.281	19.07
696.466	18.86
696.65	18.69
696.835	19.01
697.02	19.25
697.204	19.3
697.389	19.91
697.574	19.63
697.759	19.47
697.943	19.43
698.128	19.06
698.312	19.02
698.497	19.47
698.682	19.4
698.866	19.37
699.051	19.52
699.235	19.31
699.42	19.13
699.604	19.39
699.789	19.02
699.973	19.41
700.158	19.52
700.342	20.16
700.527	20.03
700.711	19.79
700.895	20.03
701.08	19.68
701.264	20.23
701.448	20.45
701.633	20.18
701.817	20.34
702.001	19.98
702.186	20.54
702.37	20.17
702.554	19.48
702.738	19.92
702.923	19.94
703.107	19.69
703.291	19.4
703.475	19.21
703.659	19.31
703.843	20.17
704.027	20.84
704.212	19.89
704.396	19.74
704.58	19.88
704.764	20.04
704.948	19.79
705.132	19.85
705.316	20.22
705.5	20.18
705.684	19.81
705.868	19.14
706.052	18.92
706.235	20.05
706.419	19.75
706.603	19.36
706.787	18.83
706.971	18.59
707.155	18.69
707.339	18.83
707.522	18.51
707.706	18.78
707.89	18.96
708.074	18.58
708.257	17.82
708.441	18.22
708.625	19.02
708.808	19.52
708.992	19.61
709.176	20.24
709.359	20.16
709.543	20.09
709.727	20.43
709.91	20.36
710.094	21.07
710.277	20.45
710.461	20.23
710.644	20.1
710.828	20.18
711.011	20.35
711.195	19.45
711.378	19.03
711.562	19.38
711.745	18.94
711.928	18.79
712.112	18.22
712.295	18.38
712.478	18.42
712.662	18.54
712.845	18.18
713.028	18.3
713.212	18.77
713.395	18.59
713.578	17.92
713.761	18.25
713.945	18.91
714.128	18.43
714.311	19.09
714.494	19.73
714.677	19.68
714.86	20.18
715.043	20.35
715.227	20.2
715.41	20.8
715.593	22.04
715.776	21.6
715.959	20.86
716.142	21.29
716.325	21.09
716.508	20.9
716.691	21.19
716.874	20.57
717.057	19.92
717.239	20.77
717.422	20.85
717.605	19.68
717.788	20.05
717.971	20.51
718.154	21.01
718.337	21.93
718.519	21.95
718.702	22
718.885	22.23
719.068	22.32
719.25	21.85
719.433	21.16
719.616	22.11
719.798	22.21
719.981	22.43
720.164	21.22
720.346	20.58
720.529	19.82
720.712	19.71
720.894	19.78
721.077	19.66
721.259	19.05
721.442	19.06
721.624	18.09
721.807	17.82
721.989	17.06
722.172	18.18
722.354	17.94
722.537	17.58
722.719	18.99
722.901	17.98
723.084	17.95
723.266	18.64
723.448	20
723.631	19.89
723.813	20.18
723.995	20.93
724.178	21.29
724.36	21.52
724.542	21.76
724.724	19.59
724.907	19.85
725.089	21.04
725.271	20.54
725.453	19.07
725.635	19.44
725.817	19.5
725.999	18.75
726.181	19.03
726.364	18.93
726.546	19.08
726.728	20
726.91	20.44
727.092	19.97
727.274	19.6
727.456	20.13
727.638	20.13
727.819	20.58
728.001	20.15
728.183	18.92
728.365	18.7
728.547	18.83
728.729	18.39
728.911	19.52
729.093	20.13
729.274	20.81
729.456	20.79
729.638	20.22
729.82	20.1
730.001	20.39
730.183	21.02
730.365	20.43
730.546	21.02
730.728	20.92
730.91	19.72
731.091	19.32
731.273	18.97
731.455	18.5
731.636	19.04
731.818	18.65
731.999	19.87
732.181	19.48
732.362	19.86
732.544	19.17
732.725	19.34
732.907	19.93
733.088	19.7
733.27	19.87
733.451	20.36
733.633	20.52
733.814	20.78
733.995	18.95
734.177	19.15
734.358	19.38
734.539	19.79
734.721	20.36
734.902	19.63
735.083	19.48
735.264	19.89
735.446	18.86
735.627	19.22
735.808	18.44
735.989	19.95
736.17	18.96
736.351	19.33
736.533	19.46
736.714	19.78
736.895	19.96
737.076	20.31
737.257	21.33
737.438	22.25
737.619	23.17
737.8	22.54
737.981	23.05
738.162	24.81
738.343	24.5
738.524	24.31
738.705	24.91
738.886	26.38
739.067	25.77
739.247	23.59
739.428	24
739.609	22.64
739.79	24.39
739.971	23.61
740.151	22.87
740.332	23.15
740.513	22.87
740.694	21.21
740.874	19.33
741.055	19.35
741.236	19.79
741.417	18.51
741.597	18.43
741.778	17.77
741.958	16.6
742.139	14.82
742.32	13.88
742.5	13.94
742.681	12.48
742.861	13.36
743.042	14.19
743.222	14.22
743.403	15.19
743.583	15.29
743.764	14.26
743.944	15.21
744.124	17.46
744.305	18.04
744.485	17.75
744.666	18.85
744.846	19.59
745.026	18.27
745.207	19.13
745.387	19.59
745.567	19.16
745.747	18.75
745.928	18.65
746.108	18.93
746.288	20.17
746.468	20.61
746.648	19.58
746.829	18.25
747.009	20.84
747.189	20.89
747.369	21.27
747.549	21.32
747.729	22
747.909	22.33
748.089	23.84
748.269	22.2
748.449	23.4
748.629	25.46
748.809	24.69
748.989	23.37
749.169	23.83
749.349	22.84
749.529	23.83
749.709	23.96
749.889	23.25
750.068	22.06
750.248	22.75
750.428	20.44
750.608	19.56
750.788	21.53
750.967	21.3
751.147	18.81
751.327	19.39
751.507	18.24
751.686	20.1
751.866	21.47
752.046	20.54
752.225	20.53
752.405	21.33
752.585	20.64
752.764	18.99
752.944	19.35
753.123	21.16
753.303	21.07
753.482	21.12
753.662	19.65
753.841	17.86
754.021	18.57
754.2	19.15
754.38	20.27
754.559	20.72
754.739	21.04
754.918	22.38
755.097	21.47
755.277	22.26
755.456	21.41
755.635	22.18
755.815	22.46
755.994	23.09
756.173	22.29
756.352	21.65
756.532	22.06
756.711	21.5
756.89	19.29
757.069	21.1
757.248	21.34
757.427	23.93
757.607	24.47
757.786	25.96
757.965	24.54
758.144	24.04
758.323	21.42
758.502	21.24
758.681	22.3
758.86	22.8
759.039	22.37
759.218	22.16
759.397	20.47
759.576	18.45
759.755	17.06
759.934	17.7
760.113	18.6
760.291	20.81
760.47	20.53
760.649	19.78
760.828	19.79
761.007	18.58
761.186	17.28
761.364	18.4
761.543	18.61
761.722	19
761.901	19.48
762.079	20.51
762.258	21.22
762.437	22.68
762.615	24.38
762.794	23.88
762.972	25.31
763.151	26.6
763.33	25.87
763.508	25.85
763.687	25.6
763.865	24.65
764.044	23.68
764.222	23.4
764.401	21.63
764.579	20.38
764.758	20.32
764.936	19.18
765.114	18.42
765.293	18.62
765.471	18.61
765.65	19.71
765.828	20
766.006	19.73
766.184	19.46
766.363	21.62
766.541	21.46
766.719	21.82
766.898	22.07
767.076	21.85
767.254	22.84
767.432	22.24
767.61	22.21
767.788	21.65
767.967	20.63
768.145	22.08
768.323	18.5
768.501	20.06
768.679	22.24
768.857	22.11
769.035	21.06
769.213	21.2
769.391	21.13
769.569	20.11
769.747	20.1
769.925	17.91
770.103	17.37
770.281	18.53
770.459	18.83
770.636	17.7
770.814	17.25
770.992	18.72
771.17	15.73
771.348	16.07
771.525	16.43
771.703	16.15
771.881	19.5
772.059	17.48
772.236	18.91
772.414	17.26
772.592	17.81
772.769	15.55
772.947	14.5
773.125	17.31
773.302	18.82
773.48	18.36
773.657	19.7
773.835	20.35
774.013	22.11
774.19	19.62
774.368	19.93
774.545	17.62
774.723	22.31
774.9	21
775.077	19.49
775.255	19.6
775.432	19.58
775.61	22.37
775.787	20.96
775.964	18.51
776.142	20.18
776.319	21.27
776.496	21.21
776.674	19.29
776.851	22.43
777.028	22.41
777.205	20.44
777.382	21.26
777.56	15.81
777.737	15.49
777.914	16.54
778.091	20
778.268	19.71
778.445	19.58
778.622	18.76
778.8	16.72
778.977	17.37
779.154	18.93
779.331	17.41
779.508	20.29
779.685	20.37
779.862	18.99
780.038	18.28
780.215	20.34
780.392	20.37
780.569	21.32
780.746	23.11
780.923	22.27
781.1	22.36
781.277	22.19
781.453	22.51
781.63	25.36
781.807	27.65
781.984	25.53
782.16	24.29
782.337	24.38
782.514	23.96
782.691	24.38
782.867	22.45
783.044	25.36
783.221	25.8
783.397	24.22
783.574	23.79
783.75	22.68
783.927	21.95
784.103	21.64
784.28	21.69
784.456	21.08
784.633	20.87
784.809	23.21
784.986	21.46
785.162	23.23
785.339	22.44
785.515	22.69
785.692	19.85
785.868	19.52
786.044	19.67
786.221	21.41
786.397	26.44
786.573	25.78
786.749	25.53
786.926	27.61
787.102	28.57
787.278	31.71
787.454	31.27
787.631	32.16
787.807	30.46
787.983	29.09
788.159	29.48
788.335	27.34
788.511	25.21
788.687	24.32
788.863	24.17
789.039	22.11
789.216	19.5
789.392	17.33
789.568	20.47
789.744	24.27
789.919	25.2
790.095	23.76
790.271	23.25
790.447	25.75
790.623	28.29
790.799	25.48
790.975	26.88
791.151	29.21
791.327	32.24
791.502	33.5
791.678	33.19
791.854	31.34
792.03	31.75
792.205	30.57
792.381	30.47
792.557	26.94
792.733	25.98
792.908	23.9
793.084	22.49
793.259	20.98
793.435	16.58
793.611	17
793.786	17.97
793.962	18.22
794.137	19.16
794.313	17.13
794.488	20.67
794.664	20.09
794.839	23.66
795.015	23.26
795.19	22.57
795.366	23.02
795.541	20.98
795.716	22.67
795.892	23.83
796.067	25.62
796.242	26.58
796.418	27.4
796.593	26.52
796.768	25.16
796.944	25.42
797.119	26.85
797.294	27.41
797.469	28.55
797.644	27.25
797.82	26.85
797.995	23.1
798.17	23.01
798.345	19.25
798.52	17.96
798.695	18.13
798.87	15.23
799.045	15.19
799.22	15.55
799.395	16.45
799.57	19.63
799.745	16.94
799.92	19.74
800.095	17.88
800.27	19.12
800.445	21.07
800.62	19.01
800.795	22.41
800.97	21.17
801.145	23.23
801.319	21.67
801.494	18.79
801.669	18.63
801.844	16.73
802.018	17.73
802.193	18.46
802.368	20.16
802.543	21.9
802.717	20.24
802.892	18.43
803.067	16.79
803.241	19.99
803.416	18.63
803.59	19.72
803.765	18.96
803.94	16.69
804.114	17.53
804.289	16.6
804.463	12
804.638	14.57
804.812	13.51
804.986	11.84
805.161	6.75
805.335	13.74
805.51	11.8
805.684	12.29
805.858	17.64
806.033	15.92
806.207	14.84
806.381	17.16
806.556	19.96
806.73	22.49
806.904	24.25
807.078	29.19
807.253	25.92
807.427	27.52
807.601	30.64
807.775	29.36
807.949	30.51
808.123	34.19
808.298	33.09
808.472	25.83
808.646	24.17
808.82	23.32
808.994	16.34
809.168	15.06
809.342	16.04
809.516	16.1
809.69	14.12
809.864	12.94
810.038	10.27
810.212	17.91
810.385	24.71
810.559	25.93
810.733	26.95
810.907	29.77
811.081	30.72
811.255	28.43
811.428	26.69
811.602	27.85
811.776	29.78
811.95	33.26
812.123	32.08
812.297	27.82
812.471	26.69
812.644	27.91
812.818	25.59
812.992	24.5
813.165	24.94
813.339	24.22
813.512	22.65
813.686	21.13
813.86	18.27
814.033	16.58
814.207	16.72
814.38	14.27
814.554	12.64
814.727	16.09
814.9	9.78
815.074	13.94
815.247	11.76
815.421	18.73
815.594	20.29
815.767	17.22
815.941	19.55
816.114	17.51
816.287	20.88
816.46	19.4
816.634	18.62
816.807	19.96
816.98	17.89
817.153	17.66
817.327	9.21
817.5	12.24
817.673	15.33
817.846	15.33
818.019	16.53
818.192	15.21
818.365	17.43
818.538	16.33
818.711	17.71
818.884	17.64
819.057	20.86
819.23	22.25
819.403	17.48
819.576	17.72
819.749	15.18
819.922	15.75
820.095	18.08
820.268	18.46
820.441	18.32
820.614	19.47
820.786	21.44
820.959	21.42
821.132	22.87
821.305	25.15
821.477	25.43
821.65	25.83
821.823	26.57
821.996	25.92
822.168	25.63
822.341	26.51
822.514	26.34
822.686	26.15
822.859	25.57
823.031	25.9
823.204	25.32
823.376	24.27
823.549	22.85
823.722	21.78
823.894	23.88
824.067	23.35
824.239	22.83
824.411	22.53
824.584	22.29
824.756	22.53
824.929	22.75
825.101	22.32
825.273	23.5
825.446	25.64
825.618	25.79
825.79	22.24
825.963	22.91
826.135	23.39
826.307	23.7
826.479	24.09
826.652	24.19
826.824	24.49
826.996	24.3
827.168	23.76
827.34	24.54
827.512	24.32
827.684	25.42
827.856	25.37
828.029	23.24
828.201	22.62
828.373	23.51
828.545	23.73
828.717	20.87
828.889	22.2
829.061	22.98
829.232	20.75
829.404	23.46
829.576	22.72
829.748	22.48
829.92	25.57
830.092	27.67
830.264	24.82
830.436	22.97
830.607	25.59
830.779	24.11
830.951	26.69
831.123	28.36
831.294	26.97
831.466	27.15
831.638	26.85
831.809	26.51
831.981	22.21
832.153	20.71
832.324	18.3
832.496	18.98
832.667	16.62
832.839	11.35
833.011	9.96
833.182	9.78
833.354	10.09
833.525	9.15
833.697	8.07
833.868	15
834.039	18.92
834.211	21.44
834.382	21.24
834.554	24.56
834.725	26.12
834.896	25.99
835.068	26.26
835.239	28.67
835.41	29.74
835.581	28.66
835.753	27.1
835.924	24.71
836.095	25.79
836.266	25.68
836.438	25.57
836.609	24.77
836.78	27.67
836.951	29.55
837.122	22.85
837.293	23.04
837.464	24.4
837.635	21.16
837.806	24.78
837.977	18.83
838.148	24
838.319	14.91
838.49	15.46
838.661	16.07
838.832	5
839.003	9.05
839.174	15.89
839.345	9.6
839.516	14.56
839.687	11.17
839.857	16.95
840.028	10.67
840.199	18.2
840.37	14.98
840.54	15.1
840.711	25.83
840.882	28.78
841.053	18.97
841.223	26
841.394	27.31
841.564	22.37
841.735	25.55
841.906	29.37
842.076	26.83
842.247	27.64
842.417	30.34
842.588	19.9
842.758	7.85
842.929	27.85
843.099	27.35
843.27	23.86
843.44	43.29
843.611	44.31
843.781	32.42
843.951	29.15
844.122	39.11
844.292	30.53
844.462	40.11
844.633	48.68
844.803	39.21
844.973	40.92
845.144	46.75
845.314	50.54
845.484	50.14
845.654	50.89
845.824	62.37
845.995	54.77
846.165	56.34
846.335	45.02
846.505	46.6
846.675	43.22
846.845	41.25
847.015	33.48
847.185	21.57
847.355	13.55
847.525	15.78
847.695	16.67
847.865	9.29
848.035	-5.22
848.205	-2.02
848.375	-3.47
848.545	8.63
848.715	15.18
848.884	22.41
849.054	21.94
849.224	22.28
849.394	8.42
849.564	17.68
849.733	24.45
849.903	28.12
850.073	37.16
850.243	36.35
850.412	43.82
850.582	36.03
850.752	32.64
850.921	43.38
851.091	48.4
851.26	85.25
851.43	29.27
851.599	54.17
851.769	100
851.939	48.33
852.108	21.64
852.278	-21.28
852.447	-8.79
852.616	-11.44
852.786	-1.28
852.955	-6.75
853.125	-19
853.294	-15.04
853.463	-41.46
853.633	-24.74
853.802	-7.56
853.971	-11.04
854.141	0.61
854.31	14.49
854.479	11.3
854.648	15.36
854.818	31.28
854.987	44.27
855.156	47.91
855.325	78.62
855.494	75.25
855.663	71.98
855.832	63.5
856.001	60.37
856.171	43.14
856.34	43.72
856.509	36.84
856.678	25.64
856.847	27.44
857.016	40.19
857.185	20.43
857.353	19.77
857.522	16.37
857.691	24.41
857.86	12.91
858.029	27.07
858.198	33.28
858.367	31.46
858.535	36.72
858.704	31.33
858.873	27.21
859.042	38.92
859.21	39.21
859.379	46.04
859.548	13.46
859.717	23.82
859.885	-5.81
860.054	3.29
860.222	16.95
860.391	25.04
860.56	45.18
860.728	38.95
860.897	37.67
861.065	45.05
861.234	24.06
861.402	25.51
861.571	27.02
861.739	23.49
861.908	19.13
862.076	29.2
862.244	23.35
862.413	-1.73
862.581	-0.42
862.749	-18.85
862.918	-41.15
863.086	-21.17
863.254	-22.96
863.423	-30.1
863.591	-48.21
863.759	-43.18
863.927	-107.83
864.096	-105.24
864.264	-95
864.432	-54.49
864.6	-36.94
864.768	-16.7
864.936	-1.58
865.104	13.03
865.272	15.98
865.44	26.59
865.608	28.32
865.776	45.23
865.944	42.64
866.112	43.67
866.28	35.05
866.448	35.51
866.616	39.01
866.784	47.09
866.952	42.94
867.12	37.95
867.288	36.01
867.455	23.38
867.623	18.59
867.791	19.37
867.959	15.85
868.127	10.02
868.294	-13.95
868.462	-39.23
868.63	-113.62
868.797	-64.65
868.965	-67.45
869.133	-61.22
869.3	-56.48
869.468	-30.1
869.636	-20.08
869.803	-35.96
869.971	-23.31
870.138	4.36
870.306	7.81
870.473	19.69
870.641	25.73
870.808	28.24
870.975	16.84
871.143	24.13
871.31	10.11
871.478	7.64
871.645	24.45
871.812	28.51
871.98	30.57
872.147	59.99
872.314	64.39
872.482	74.25
872.649	74.93
872.816	70.89
872.983	114.27
873.15	129.6
873.318	189.41
873.485	154.08
873.652	118.54
873.819	75.57
873.986	50.22
874.153	47.58
874.32	46.82
874.487	46.21
874.654	23.52
874.821	22.91
874.988	14.85
875.155	16.45
875.322	7.72
875.489	-1.48
875.656	-0.7
875.823	15.49
875.99	12
876.157	-29.52
876.324	-45.21
876.49	-21.57
876.657	-41.59
876.824	-55.47
876.991	-59.31
877.157	-63.48
877.324	-37.35
877.491	-23.99
877.658	-74.78
877.824	-55.62
877.991	-41.62
878.157	-13.05
878.324	-25.01
878.491	-9.26
878.657	25.94
878.824	-13.28
878.99	-2.57
879.157	3.67
879.323	21.79
879.49	31.78
879.656	1.75
879.823	9.18
879.989	3.74
880.156	8.18
880.322	17.75
880.488	19.62
880.655	23.31
880.821	20.73
880.987	19.51
881.154	10.21
881.32	10.64
881.486	28.26
881.652	25.73
881.819	30.31
881.985	26.86
882.151	28.07
882.317	19.63
882.483	27.9
882.649	27.39
882.816	24.59
882.982	27.42
883.148	27.9
883.314	26.3
883.48	28.66
883.646	28.96
883.812	30.35
883.978	27.34
884.144	31.74
884.31	27.04
884.476	28.98
884.642	26.59
884.807	28.41
884.973	27.42
885.139	23.82
885.305	22.64
885.471	21.74
885.637	26.15
885.802	28.91
885.968	25.12
886.134	24.96
886.3	25.63
886.465	32.86
886.631	24.41
886.797	21.35
886.962	25.06
887.128	30.63
887.293	27.77
887.459	17.03
887.625	13.76
887.79	5.84
887.956	6.21
888.121	-2.95
888.287	-8.97
888.452	-2.91
888.618	8.02
888.783	12.4
