Data from 2938045_Reflection_3.txt Node
Date: Sun Jul 12 14:28:41 EDT 2015
User: robert
Spectrometer: USB4E03001
Autoset integration time: false
Trigger mode: 4
Integration Time (sec): 1.000000E-1
Scans to average: 10
Electric dark correction enabled: true
Nonlinearity correction enabled: false
Boxcar width: 5
Stray light correction enabled: false
XAxis mode: Wavelengths
Stop averaging: false
Number of Pixels in Spectrum: 3648
>>>>>Begin Spectral Data<<<<<
177.566	-17.38
177.785	391.33
178.005	209.82
178.225	199.45
178.445	298.49
178.665	-112.87
178.885	7.2
179.105	401.61
179.324	-74.48
179.544	-33.2
179.764	-87.66
179.984	-133.09
180.204	371.89
180.423	309.96
180.643	142
180.863	146.49
181.083	818.37
181.302	-23900
181.522	155.7
181.742	98.7
181.961	42.82
182.181	-64.54
182.401	-105.74
182.621	295.53
182.84	676.26
183.06	-56.82
183.279	120.9
183.499	67.15
183.719	18.05
183.938	-21.84
184.158	6.75
184.377	18.57
184.597	63.5
184.816	23.46
185.036	26.11
185.256	19.3
185.475	-96.34
185.695	-54.47
185.914	-58.72
186.134	-30.23
186.353	-137.91
186.572	-67.44
186.792	-150.14
187.011	-249.75
187.231	-229.82
187.45	-625.5
187.67	-650.72
187.889	-293.52
188.108	-240.16
188.328	-417.14
188.547	-371.5
188.766	-176.75
188.986	-258.77
189.205	-23.82
189.424	20.3
189.644	52.59
189.863	64.15
190.082	70.64
190.302	74.94
190.521	55.17
190.74	66.93
190.959	44.26
191.178	12.44
191.398	7.83
191.617	-10.49
191.836	-38.67
192.055	-250.95
192.274	210.85
192.494	151.61
192.713	1533.04
192.932	289.94
193.151	-157.62
193.37	-42.91
193.589	167.36
193.808	-347.6
194.027	275.4
194.246	97.39
194.465	78.79
194.685	69.91
194.904	83.6
195.123	61.96
195.342	-5.05
195.561	2.12
195.78	-27.09
195.999	-93.43
196.218	-124.31
196.436	-596.24
196.655	595.75
196.874	308.45
197.093	219.73
197.312	343.22
197.531	-431.32
197.75	-174.4
197.969	-3146.85
198.188	-1875.91
198.407	-822.88
198.625	-124.22
198.844	-2.07
199.063	45.34
199.282	68.72
199.501	75.97
199.719	81.91
199.938	169.33
200.157	201.3
200.376	249.98
200.594	195.83
200.813	169.55
201.032	205.39
201.251	171.7
201.469	115.75
201.688	79.89
201.907	29.53
202.125	5.25
202.344	9.37
202.563	-41.36
202.781	-12.62
203	39.12
203.218	0.12
203.437	22.86
203.656	-7.48
203.874	-37.59
204.093	-393.58
204.311	-115.23
204.53	-13.15
204.748	-648.69
204.967	-58.46
205.185	-55.9
205.404	13678.12
205.622	-265.44
205.841	-179.92
206.059	-102.38
206.278	-100.21
206.496	25.37
206.715	60.91
206.933	109.19
207.151	91.96
207.37	303.28
207.588	-478.06
207.806	421.12
208.025	143.33
208.243	148.88
208.461	106.84
208.68	97.72
208.898	94.6
209.116	62.32
209.335	73.33
209.553	35.08
209.771	22.38
209.989	18.39
210.208	8.75
210.426	-20.63
210.644	-17.81
210.862	-5.43
211.081	-10.38
211.299	-43.5
211.517	-6.31
211.735	-7.1
211.953	-7.86
212.171	21.88
212.39	42.82
212.608	179.55
212.826	694.49
213.044	-235.52
213.262	8245.45
213.48	-1677.11
213.698	201.85
213.916	194.1
214.134	169.09
214.352	88.28
214.57	62.77
214.788	32.09
215.006	0.69
215.224	1.24
215.442	16.97
215.66	10.97
215.878	-1.5
216.096	-31.02
216.314	-27.18
216.532	-22.89
216.75	-4.68
216.968	11.16
217.185	29.04
217.403	23.98
217.621	30.57
217.839	19.5
218.057	16.25
218.275	-6.02
218.492	4.77
218.71	-13.02
218.928	-27.39
219.146	-49.74
219.363	-48.14
219.581	-40.79
219.799	-32.78
220.017	-48.8
220.234	-122.49
220.452	-43.65
220.67	-38.3
220.887	-61.88
221.105	-92.19
221.323	-72.35
221.54	-68.34
221.758	-117.74
221.976	-127.33
222.193	-60.84
222.411	-63.68
222.629	-28.97
222.846	-91.28
223.064	-95.21
223.281	-46.72
223.499	-13.89
223.716	-30.71
223.934	-35.48
224.151	-9.3
224.369	15.1
224.586	13.79
224.804	38.97
225.021	37.45
225.239	52.92
225.456	54.43
225.674	48.26
225.891	30.05
226.108	30.18
226.326	33.91
226.543	36.45
226.76	23.76
226.978	19.13
227.195	16.28
227.413	8.06
227.63	10.32
227.847	13.34
228.064	8.56
228.282	6.79
228.499	10.32
228.716	9.37
228.934	7.27
229.151	5.13
229.368	5.23
229.585	3.66
229.802	2.93
230.02	1.5
230.237	-0.41
230.454	1.24
230.671	2.95
230.888	1.21
231.105	-1.57
231.323	-4.19
231.54	-1.86
231.757	-6.55
231.974	-4.45
232.191	1.44
232.408	0.83
232.625	-1.44
232.842	0.5
233.059	2.08
233.276	2.11
233.493	3.58
233.71	5.56
233.927	9.26
234.144	17.03
234.361	12.4
234.578	9.53
234.795	12.14
235.012	9.33
235.229	7.81
235.446	5.42
235.663	5.07
235.879	6.69
236.096	11.66
236.313	2.03
236.53	-0.33
236.747	8.16
236.964	9.39
237.181	5.17
237.397	8.25
237.614	9.57
237.831	8.27
238.048	7.86
238.264	7.6
238.481	-0.27
238.698	9.77
238.915	12.56
239.131	6.29
239.348	7.97
239.565	13.26
239.781	16.46
239.998	16.1
240.215	14.28
240.431	11.92
240.648	9.87
240.865	11.29
241.081	8.04
241.298	6.73
241.514	5.94
241.731	5.08
241.947	5.13
242.164	4.33
242.38	4.28
242.597	5.91
242.814	7.19
243.03	7.04
243.246	7
243.463	7.43
243.679	9.64
243.896	11.01
244.112	11.28
244.329	8.46
244.545	9.34
244.762	8.21
244.978	8.22
245.194	9.02
245.411	9.27
245.627	10.95
245.843	11.06
246.06	5.76
246.276	5.76
246.492	6.33
246.709	6.9
246.925	6.28
247.141	6.89
247.357	6.62
247.574	5.76
247.79	5.16
248.006	4.89
248.222	4.83
248.439	5.78
248.655	5.88
248.871	5.09
249.087	5.94
249.303	5.45
249.519	4.46
249.736	3.1
249.952	2.77
250.168	3.77
250.384	2.04
250.6	2.32
250.816	2.49
251.032	2.22
251.248	2.57
251.464	2.88
251.68	5.2
251.896	5.57
252.112	8.16
252.328	8.4
252.544	8.91
252.76	11.12
252.976	9.86
253.192	10.79
253.408	9.71
253.624	11.02
253.84	10.21
254.056	6.33
254.272	6.56
254.487	7.37
254.703	9.03
254.919	7.41
255.135	4.48
255.351	5.89
255.567	6
255.782	6.68
255.998	3.09
256.214	2.41
256.43	3.6
256.646	3.81
256.861	4.25
257.077	3.26
257.293	4.77
257.508	4.92
257.724	2.91
257.94	3.27
258.155	2.91
258.371	2.94
258.587	3.95
258.802	5.45
259.018	4.11
259.234	3.83
259.449	3.86
259.665	3.39
259.88	3.59
260.096	3.73
260.312	3.57
260.527	4.44
260.743	4.98
260.958	4.9
261.174	4.22
261.389	5.1
261.605	3.37
261.82	3.52
262.036	4.26
262.251	4.22
262.466	5.17
262.682	4.25
262.897	2.76
263.113	2.9
263.328	2.17
263.543	1.8
263.759	3.08
263.974	4.1
264.189	1.55
264.405	-0.81
264.62	-0.65
264.835	-1.15
265.051	-1.24
265.266	0.51
265.481	1.1
265.696	0.74
265.912	0.68
266.127	-0.81
266.342	0.08
266.557	2.22
266.773	2.98
266.988	1.74
267.203	3.13
267.418	4.96
267.633	4.26
267.848	3.28
268.064	2.9
268.279	3.35
268.494	4.54
268.709	5.04
268.924	4.44
269.139	5.25
269.354	5.68
269.569	4.36
269.784	2.96
269.999	3.17
270.214	3.02
270.429	4.34
270.644	5.77
270.859	4.52
271.074	5.46
271.289	5.18
271.504	4.54
271.719	4.37
271.934	3.48
272.149	4.04
272.363	4.15
272.578	3.05
272.793	2.49
273.008	2.19
273.223	2.2
273.438	1.12
273.653	1.14
273.867	1.43
274.082	2.18
274.297	2.33
274.512	2.05
274.726	1.37
274.941	2.55
275.156	2.3
275.371	1.94
275.585	3.11
275.8	3.09
276.015	2.91
276.229	2.44
276.444	0.71
276.659	0.2
276.873	0.29
277.088	0.31
277.302	0.68
277.517	0.09
277.732	-0.15
277.946	0.99
278.161	0.71
278.375	0.42
278.59	0.58
278.804	1.55
279.019	2.74
279.233	3.59
279.448	4.76
279.662	5.87
279.877	6.78
280.091	8.22
280.306	6.1
280.52	5.42
280.735	6.16
280.949	5.96
281.163	6.01
281.378	6.54
281.592	5.57
281.806	5.23
282.021	4.05
282.235	3.82
282.449	3.59
282.664	4.28
282.878	5.63
283.092	5.59
283.307	5.67
283.521	6.55
283.735	6.74
283.949	6.81
284.164	6.69
284.378	6.87
284.592	7.63
284.806	6.54
285.02	6.54
285.234	7.04
285.449	6.8
285.663	6.85
285.877	6.92
286.091	7.26
286.305	7.13
286.519	7.21
286.733	7.86
286.947	7.7
287.161	8.23
287.375	8.68
287.589	7.84
287.803	8.69
288.017	9.02
288.231	8.56
288.445	9.05
288.659	8.58
288.873	8.55
289.087	7.52
289.301	6.58
289.515	6.46
289.729	6.88
289.943	7.21
290.157	6.32
290.371	5.46
290.584	6.14
290.798	5.7
291.012	7.42
291.226	6.98
291.44	7.61
291.654	7.89
291.867	8.26
292.081	7.29
292.295	6.08
292.509	6.33
292.722	8.3
292.936	7.4
293.15	7.45
293.364	4.98
293.577	6.25
293.791	7.91
294.005	8.45
294.218	8.33
294.432	8.6
294.645	9.15
294.859	10.05
295.073	9.18
295.286	8.51
295.5	8.62
295.713	9.07
295.927	8.2
296.14	5.81
296.354	6.53
296.568	6.35
296.781	6.75
296.994	7.49
297.208	6.8
297.421	7.26
297.635	7.83
297.848	7.4
298.062	8.02
298.275	8.54
298.489	10.33
298.702	8.8
298.915	8.7
299.129	8.18
299.342	6.81
299.555	6.73
299.769	6.98
299.982	7.84
300.195	7.93
300.409	8.37
300.622	8.94
300.835	7.11
301.048	8.58
301.262	8.73
301.475	8.51
301.688	9.11
301.901	10.28
302.115	10.2
302.328	10.36
302.541	11.03
302.754	10.51
302.967	9.17
303.18	10.18
303.393	10.12
303.607	9.55
303.82	9.49
304.033	10.52
304.246	10.04
304.459	9.82
304.672	8.91
304.885	8.33
305.098	8.69
305.311	8.82
305.524	8.84
305.737	7.89
305.95	8
306.163	8.47
306.376	8.85
306.589	8.13
306.802	7.57
307.015	5.81
307.228	4.68
307.44	4.77
307.653	6.96
307.866	7.51
308.079	8.86
308.292	9.89
308.505	9.22
308.718	8.99
308.93	9.04
309.143	7.62
309.356	9.78
309.569	10.2
309.781	10.39
309.994	9.34
310.207	8.85
310.42	9.05
310.632	9.23
310.845	9.9
311.058	10.4
311.27	10.64
311.483	11.9
311.696	11.2
311.908	11.58
312.121	10.51
312.333	10.65
312.546	10.84
312.759	9.9
312.971	9.88
313.184	10.61
313.396	7.9
313.609	8.04
313.821	8.62
314.034	8.75
314.246	8.53
314.459	10.23
314.671	10.67
314.884	10.48
315.096	11.67
315.309	11.46
315.521	9.91
315.733	10.42
315.946	10.78
316.158	10.87
316.371	10.26
316.583	10.05
316.795	9.63
317.008	8.69
317.22	9.29
317.432	8.32
317.644	7.61
317.857	8.69
318.069	10.66
318.281	12.42
318.494	12
318.706	13.69
318.918	13.83
319.13	13.48
319.342	13.45
319.555	13.81
319.767	13.73
319.979	14.69
320.191	16.73
320.403	15.27
320.615	13.58
320.827	13.12
321.039	12.38
321.252	12.38
321.464	12.75
321.676	13.84
321.888	11.7
322.1	11.68
322.312	11.08
322.524	8.93
322.736	10.42
322.948	9.75
323.16	9.81
323.372	10.19
323.584	10.46
323.796	9.96
324.007	9.38
324.219	10.62
324.431	11.26
324.643	10.77
324.855	11.62
325.067	11.72
325.279	12.06
325.491	12.62
325.702	12.29
325.914	13.03
326.126	14.06
326.338	14.41
326.55	14.37
326.761	15.27
326.973	16.68
327.185	16.28
327.396	17.36
327.608	17.05
327.82	17.57
328.032	18.26
328.243	17.49
328.455	16.36
328.666	16.9
328.878	17.64
329.09	16.82
329.301	16.45
329.513	15.17
329.725	14.19
329.936	14.06
330.148	14.74
330.359	16.04
330.571	16.42
330.782	17.45
330.994	16.6
331.205	15.78
331.417	16.32
331.628	17.52
331.84	19.48
332.051	20.01
332.262	20.57
332.474	20.15
332.685	19.74
332.897	20.88
333.108	21.07
333.319	22.33
333.531	22.71
333.742	23.08
333.953	21.96
334.165	21.56
334.376	23.6
334.587	23.68
334.799	23.64
335.01	23.66
335.221	23.44
335.432	23.51
335.644	23.35
335.855	24.16
336.066	24.41
336.277	24.61
336.488	24.59
336.7	23.36
336.911	24.41
337.122	25.49
337.333	24.58
337.544	25.17
337.755	25.02
337.966	24.94
338.177	25.07
338.388	25.15
338.599	26.48
338.811	26.76
339.022	26.15
339.233	26
339.444	24.25
339.655	24.62
339.866	22.83
340.076	23.04
340.287	23.38
340.498	22.64
340.709	22.34
340.92	22.05
341.131	23.05
341.342	23.8
341.553	24.13
341.764	24.89
341.975	25.82
342.185	27.25
342.396	27.71
342.607	27.19
342.818	27.45
343.029	28.48
343.239	28.97
343.45	27.88
343.661	26.89
343.872	26.3
344.082	25.74
344.293	25.29
344.504	25.21
344.714	23.81
344.925	23.46
345.136	24.05
345.346	23.39
345.557	22.85
345.768	23.9
345.978	24.79
346.189	25.1
346.399	26.39
346.61	26.95
346.821	27.4
347.031	28.31
347.242	29.04
347.452	29.16
347.663	28.91
347.873	28.8
348.084	27.1
348.294	27.11
348.504	27.37
348.715	26.77
348.925	26.07
349.136	25.83
349.346	26.41
349.557	25.69
349.767	25.11
349.977	25.66
350.188	25.79
350.398	27.32
350.608	27.44
350.819	27.42
351.029	27.37
351.239	28.19
351.449	27.34
351.66	27.28
351.87	27.9
352.08	27.08
352.29	26.36
352.501	26.49
352.711	25.73
352.921	25.37
353.131	25.17
353.341	25.93
353.552	25.45
353.762	26.61
353.972	26.03
354.182	26.59
354.392	27.94
354.602	28.81
354.812	28.6
355.022	28.07
355.232	28.34
355.442	27.81
355.652	27.61
355.862	27.25
356.072	27.3
356.282	27.53
356.492	27.09
356.702	26.3
356.912	25.56
357.122	25.65
357.332	26.48
357.542	26.46
357.752	27.26
357.962	26.69
358.171	27.06
358.381	26.45
358.591	27.02
358.801	27.4
359.011	27.6
359.221	28.39
359.43	27.91
359.64	27.73
359.85	27.4
360.06	27.53
360.269	27.69
360.479	28.71
360.689	28.57
360.899	28.06
361.108	28.13
361.318	28.48
361.528	28.36
361.737	28.45
361.947	28.55
362.156	28.58
362.366	28.11
362.576	28.66
362.785	27.59
362.995	27.34
363.204	27.25
363.414	27.55
363.623	27.61
363.833	27.37
364.042	28.3
364.252	29.03
364.461	28.63
364.671	28.68
364.88	28.16
365.09	28.85
365.299	29.6
365.509	30.04
365.718	29.15
365.927	28.53
366.137	28.72
366.346	28.22
366.555	27.75
366.765	28.16
366.974	28.76
367.183	28.77
367.393	28.02
367.602	27.87
367.811	27.59
368.021	27.89
368.23	28.42
368.439	27.78
368.648	27.45
368.857	27.34
369.067	27.31
369.276	26.95
369.485	27.17
369.694	26.92
369.903	27.19
370.112	27.4
370.321	27.46
370.531	27.31
370.74	27.3
370.949	27.51
371.158	26.95
371.367	26.92
371.576	27.02
371.785	26.52
371.994	26.93
372.203	26.05
372.412	25.5
372.621	24.63
372.83	24.51
373.039	25.1
373.248	24.18
373.457	23.83
373.666	23.95
373.874	23.17
374.083	23.13
374.292	22.89
374.501	23.8
374.71	23.83
374.919	24.77
375.128	24.84
375.336	24.23
375.545	24.88
375.754	25.21
375.963	24.94
376.171	24.97
376.38	25.11
376.589	25.39
376.798	25.27
377.006	25.76
377.215	25.43
377.424	25.95
377.632	26.39
377.841	26.35
378.05	26.12
378.258	25.74
378.467	26.47
378.675	26.67
378.884	26.47
379.093	26.34
379.301	26.04
379.51	26.04
379.718	25.83
379.927	25.57
380.135	25.53
380.344	25.5
380.552	25.74
380.761	25.66
380.969	25.18
381.177	25.01
381.386	24.61
381.594	24.92
381.803	24.2
382.011	23.66
382.219	23.49
382.428	23.73
382.636	23.97
382.845	23.82
383.053	23.43
383.261	23.88
383.469	23.97
383.678	24
383.886	23.67
384.094	24.39
384.302	24.42
384.511	24.47
384.719	24.1
384.927	23.84
385.135	23.92
385.343	23.65
385.552	23.58
385.76	23.52
385.968	23.9
386.176	23.97
386.384	23.66
386.592	23.55
386.8	23.57
387.008	24.17
387.216	24.25
387.424	24.08
387.633	24.08
387.841	23.49
388.049	23.58
388.257	23.14
388.465	23.14
388.672	22.95
388.88	22.72
389.088	22.48
389.296	22.03
389.504	22.11
389.712	22.38
389.92	22.63
390.128	22.7
390.336	22.57
390.544	22.89
390.751	22.92
390.959	22.92
391.167	23.06
391.375	22.94
391.583	22.8
391.79	23.17
391.998	23.18
392.206	23.06
392.414	23.14
392.621	22.98
392.829	22.8
393.037	22.73
393.244	22.93
393.452	23.31
393.66	23.36
393.867	23.42
394.075	23
394.283	22.83
394.49	22.91
394.698	22.78
394.905	22.71
395.113	22.88
395.32	23.01
395.528	22.83
395.735	22.86
395.943	22.93
396.15	23.09
396.358	22.98
396.565	23.22
396.773	23.38
396.98	23.36
397.188	23.82
397.395	23.75
397.602	23.48
397.81	23.87
398.017	23.34
398.225	23.52
398.432	23.38
398.639	23.39
398.847	23.45
399.054	23.1
399.261	23.12
399.468	22.98
399.676	22.78
399.883	22.77
400.09	22.64
400.297	22.75
400.505	23.11
400.712	23.1
400.919	23.24
401.126	23.25
401.333	23.63
401.54	23.91
401.748	23.78
401.955	23.78
402.162	23.88
402.369	24.18
402.576	24.44
402.783	23.94
402.99	23.79
403.197	23.93
403.404	23.82
403.611	23.77
403.818	23.85
404.025	23.88
404.232	24.19
404.439	24.05
404.646	23.75
404.853	23.49
405.06	23.79
405.267	24.01
405.474	24.12
405.681	23.89
405.887	23.86
406.094	23.97
406.301	24.1
406.508	23.89
406.715	24.12
406.922	23.86
407.128	24.1
407.335	24.1
407.542	24
407.749	23.61
407.955	23.95
408.162	23.84
408.369	23.97
408.575	23.96
408.782	23.83
408.989	23.72
409.195	23.96
409.402	23.63
409.609	23.53
409.815	23.79
410.022	24.07
410.228	23.93
410.435	23.95
410.642	23.66
410.848	23.73
411.055	23.68
411.261	23.42
411.468	23.37
411.674	23.44
411.881	23.28
412.087	22.69
412.294	22.44
412.5	22.45
412.706	22.41
412.913	22.26
413.119	21.82
413.326	22.04
413.532	22.4
413.738	22.22
413.945	22.3
414.151	22.39
414.357	22.6
414.564	22.56
414.77	22.58
414.976	22.48
415.182	22.97
415.389	22.96
415.595	22.91
415.801	22.9
416.007	23.05
416.214	22.95
416.42	23.21
416.626	23.07
416.832	23.13
417.038	22.95
417.244	22.82
417.45	22.63
417.657	22.82
417.863	22.77
418.069	22.59
418.275	22.53
418.481	22.48
418.687	22.36
418.893	22.64
419.099	22.7
419.305	22.9
419.511	22.89
419.717	22.81
419.923	22.72
420.129	22.65
420.335	22.66
420.541	22.62
420.746	22.62
420.952	22.4
421.158	22.42
421.364	22.33
421.57	22.1
421.776	22.19
421.982	22.23
422.187	22.32
422.393	22.39
422.599	22.4
422.805	22.3
423.01	22.31
423.216	22.39
423.422	22.28
423.628	22.25
423.833	22.24
424.039	22.15
424.245	22
424.45	21.86
424.656	21.74
424.862	21.66
425.067	21.73
425.273	21.69
425.478	21.66
425.684	21.48
425.889	21.45
426.095	21.52
426.301	21.39
426.506	21.33
426.712	21.36
426.917	21.29
427.123	21.18
427.328	21.19
427.533	21.27
427.739	21.21
427.944	21.28
428.15	21.29
428.355	21.12
428.561	21.24
428.766	21.2
428.971	21.04
429.177	21.17
429.382	21.25
429.587	21.11
429.793	21.05
429.998	21.07
430.203	21.05
430.408	20.97
430.614	21.13
430.819	21.12
431.024	21.1
431.229	21.01
431.434	20.98
431.64	20.92
431.845	21.05
432.05	20.93
432.255	21.03
432.46	21.05
432.665	21.12
432.87	21.34
433.076	21.53
433.281	21.54
433.486	21.67
433.691	21.49
433.896	21.41
434.101	21.53
434.306	21.71
434.511	21.72
434.716	21.91
434.921	21.9
435.126	21.63
435.331	21.55
435.535	21.69
435.74	21.68
435.945	21.75
436.15	21.96
436.355	21.85
436.56	21.75
436.765	21.78
436.97	21.62
437.174	21.47
437.379	21.61
437.584	21.54
437.789	21.45
437.993	21.4
438.198	21.6
438.403	21.47
438.608	21.38
438.812	21.42
439.017	21.31
439.222	21.31
439.426	21.45
439.631	21.41
439.836	21.29
440.04	21.3
440.245	21.32
440.45	21.23
440.654	21.33
440.859	21.39
441.063	21.24
441.268	21.33
441.472	21.24
441.677	21.22
441.881	21.1
442.086	21.15
442.29	21.04
442.495	20.83
442.699	20.77
442.904	20.5
443.108	20.39
443.312	20.61
443.517	20.47
443.721	20.39
443.925	20.39
444.13	20.31
444.334	20.38
444.538	20.43
444.743	20.61
444.947	20.61
445.151	20.68
445.356	20.67
445.56	20.6
445.764	20.59
445.968	20.77
446.173	20.69
446.377	20.86
446.581	20.82
446.785	20.73
446.989	20.64
447.193	20.73
447.398	20.74
447.602	20.67
447.806	20.61
448.01	20.61
448.214	20.55
448.418	20.48
448.622	20.39
448.826	20.31
449.03	20.46
449.234	20.6
449.438	20.64
449.642	20.78
449.846	20.99
450.05	20.92
450.254	20.93
450.458	20.83
450.662	21.02
450.866	21.1
451.069	21.18
451.273	21.17
451.477	21.11
451.681	21.07
451.885	21.08
452.089	21
452.292	21.15
452.496	21.12
452.7	21.17
452.904	21.08
453.107	21.03
453.311	21.1
453.515	20.99
453.719	20.93
453.922	20.98
454.126	20.98
454.33	20.84
454.533	20.74
454.737	20.74
454.94	20.77
455.144	20.65
455.348	20.55
455.551	20.58
455.755	20.67
455.958	20.75
456.162	20.7
456.365	20.46
456.569	20.46
456.772	20.5
456.976	20.52
457.179	20.44
457.383	20.5
457.586	20.49
457.79	20.54
457.993	20.42
458.196	20.34
458.4	20.26
458.603	20.42
458.807	20.49
459.01	20.35
459.213	20.38
459.417	20.41
459.62	20.55
459.823	20.6
460.026	20.55
460.23	20.6
460.433	20.6
460.636	20.7
460.839	20.78
461.042	20.74
461.246	20.8
461.449	20.8
461.652	20.76
461.855	20.77
462.058	20.72
462.261	20.68
462.464	20.72
462.668	20.83
462.871	20.58
463.074	20.42
463.277	20.61
463.48	20.87
463.683	21.11
463.886	21.03
464.089	21.06
464.292	21.24
464.495	21.49
464.698	21.61
464.901	21.42
465.104	21.42
465.306	21.62
465.509	21.32
465.712	21.18
465.915	20.97
466.118	21.08
466.321	21.01
466.524	20.97
466.726	20.76
466.929	20.79
467.132	20.99
467.335	21.09
467.538	20.98
467.74	21.29
467.943	21.46
468.146	21.59
468.348	21.66
468.551	21.59
468.754	21.48
468.956	21.5
469.159	21.52
469.362	21.71
469.564	22.02
469.767	22.24
469.969	22.25
470.172	22.32
470.375	22.2
470.577	22.28
470.78	22.47
470.982	22.62
471.185	22.56
471.387	22.48
471.59	22.42
471.792	22.23
471.995	22.09
472.197	21.79
472.399	21.54
472.602	21.59
472.804	21.66
473.007	21.48
473.209	21.42
473.411	21.5
473.614	21.52
473.816	21.43
474.018	21.53
474.22	21.59
474.423	21.61
474.625	21.7
474.827	21.68
475.03	21.61
475.232	21.78
475.434	21.9
475.636	21.87
475.838	21.74
476.04	22.03
476.243	21.91
476.445	21.79
476.647	22.1
476.849	21.99
477.051	21.89
477.253	22
477.455	22.02
477.657	21.98
477.859	22.13
478.061	22.2
478.263	21.94
478.465	21.95
478.667	22.11
478.869	22.07
479.071	22.04
479.273	22.08
479.475	21.99
479.677	21.83
479.879	21.73
480.081	21.66
480.283	21.84
480.485	21.7
480.686	21.66
480.888	21.52
481.09	21.55
481.292	21.57
481.494	21.56
481.695	21.39
481.897	21.46
482.099	21.44
482.301	21.51
482.502	21.31
482.704	21.33
482.906	21.16
483.107	21.14
483.309	21.09
483.511	21.09
483.712	21.11
483.914	21.14
484.115	21.15
484.317	21.09
484.519	20.98
484.72	21.02
484.922	21.05
485.123	21.14
485.325	21.15
485.526	21.2
485.728	21.21
485.929	21.19
486.131	21.14
486.332	21.15
486.534	21.2
486.735	21.29
486.936	21.26
487.138	21.17
487.339	21.25
487.541	21.28
487.742	21.19
487.943	21.14
488.144	21.18
488.346	21.31
488.547	21.23
488.748	21.26
488.95	21.24
489.151	21.21
489.352	21.24
489.553	21.14
489.755	21.19
489.956	21.21
490.157	21.26
490.358	21.3
490.559	21.23
490.76	21.32
490.961	21.33
491.163	21.38
491.364	21.44
491.565	21.49
491.766	21.51
491.967	21.46
492.168	21.55
492.369	21.59
492.57	21.45
492.771	21.51
492.972	21.49
493.173	21.45
493.374	21.43
493.575	21.42
493.776	21.54
493.976	21.68
494.177	21.75
494.378	21.93
494.579	21.96
494.78	22.03
494.981	21.94
495.182	21.91
495.382	22.17
495.583	22.27
495.784	22.29
495.985	22.22
496.185	22.17
496.386	22.22
496.587	22.02
496.788	22.1
496.988	22.33
497.189	22.42
497.39	22.49
497.59	22.48
497.791	22.39
497.992	22.53
498.192	22.67
498.393	22.73
498.593	22.69
498.794	22.75
498.994	22.82
499.195	22.82
499.395	22.78
499.596	22.93
499.796	22.83
499.997	22.93
500.197	23.06
500.398	22.98
500.598	23.02
500.799	23.02
500.999	23.08
501.199	23.1
501.4	23.14
501.6	23.39
501.801	23.39
502.001	23.54
502.201	23.53
502.402	23.56
502.602	23.71
502.802	23.82
503.002	23.96
503.203	24.01
503.403	24.11
503.603	24.1
503.803	24.13
504.003	24.07
504.204	24.07
504.404	24.23
504.604	24.27
504.804	24.28
505.004	24.26
505.204	24.26
505.404	24.32
505.604	24.35
505.804	24.36
506.005	24.16
506.205	24.27
506.405	24.34
506.605	24.45
506.805	24.4
507.005	24.33
507.204	24.38
507.404	24.6
507.604	24.79
507.804	24.8
508.004	24.94
508.204	25.09
508.404	25.14
508.604	25.25
508.804	25.31
509.003	25.38
509.203	25.54
509.403	25.67
509.603	25.65
509.803	25.47
510.002	25.62
510.202	25.69
510.402	25.82
510.602	25.91
510.801	25.88
511.001	25.85
511.201	25.86
511.4	25.97
511.6	26
511.8	26.04
511.999	26.27
512.199	26.27
512.398	26.32
512.598	26.37
512.797	26.56
512.997	26.76
513.197	26.83
513.396	27.02
513.596	27.04
513.795	26.94
513.994	27.12
514.194	27.08
514.393	27.27
514.593	27.31
514.792	27.45
514.992	27.41
515.191	27.34
515.39	27.32
515.59	27.21
515.789	27.26
515.988	27.36
516.188	27.33
516.387	27.46
516.586	27.35
516.786	27.4
516.985	27.42
517.184	27.34
517.383	27.53
517.582	27.61
517.782	27.59
517.981	27.53
518.18	27.57
518.379	27.58
518.578	27.66
518.777	27.79
518.976	27.97
519.176	28.02
519.375	28.16
519.574	28.15
519.773	28.19
519.972	28.3
520.171	28.46
520.37	28.63
520.569	28.77
520.768	28.88
520.967	28.94
521.166	28.95
521.365	28.96
521.564	29.01
521.762	29.13
521.961	29.28
522.16	29.38
522.359	29.45
522.558	29.51
522.757	29.54
522.956	29.33
523.154	29.26
523.353	29.17
523.552	29.22
523.751	29.22
523.949	29.22
524.148	29.01
524.347	29.08
524.546	29.09
524.744	28.99
524.943	29.03
525.142	29.12
525.34	29.15
525.539	29.15
525.737	29.06
525.936	29.09
526.135	29.11
526.333	29.25
526.532	29.18
526.73	29.15
526.929	29.16
527.127	28.91
527.326	28.88
527.524	28.93
527.723	28.96
527.921	28.94
528.12	28.92
528.318	28.86
528.516	28.84
528.715	28.82
528.913	28.79
529.112	28.8
529.31	28.92
529.508	28.93
529.707	28.92
529.905	28.94
530.103	28.94
530.301	28.96
530.5	29.04
530.698	29.06
530.896	29.1
531.094	29.17
531.293	29.17
531.491	29.22
531.689	29.22
531.887	29.22
532.085	29.16
532.283	29.31
532.481	29.23
532.68	29.2
532.878	29.2
533.076	29.27
533.274	29.25
533.472	29.26
533.67	29.33
533.868	29.39
534.066	29.34
534.264	29.34
534.462	29.32
534.66	29.45
534.858	29.55
535.056	29.71
535.253	29.68
535.451	29.74
535.649	29.83
535.847	29.73
536.045	29.66
536.243	29.76
536.441	29.83
536.638	29.84
536.836	29.94
537.034	29.91
537.232	29.84
537.43	29.86
537.627	29.97
537.825	29.88
538.023	29.86
538.22	30
538.418	29.98
538.616	30.01
538.813	30.13
539.011	29.96
539.209	29.87
539.406	29.93
539.604	30.06
539.801	29.92
539.999	30.02
540.196	30.08
540.394	30.15
540.591	30.13
540.789	30.12
540.986	30.04
541.184	29.98
541.381	29.9
541.579	29.88
541.776	29.81
541.974	29.89
542.171	29.89
542.368	29.92
542.566	29.71
542.763	29.69
542.96	29.67
543.158	29.71
543.355	29.78
543.552	29.83
543.75	29.77
543.947	29.84
544.144	29.83
544.341	29.75
544.539	29.72
544.736	29.83
544.933	29.9
545.13	29.93
545.327	29.94
545.524	29.88
545.722	30.05
545.919	30.12
546.116	30
546.313	30
546.51	30.08
546.707	30.25
546.904	30.42
547.101	30.42
547.298	30.46
547.495	30.46
547.692	30.49
547.889	30.66
548.086	30.73
548.283	30.99
548.48	30.81
548.677	30.83
548.874	30.7
549.07	30.76
549.267	30.95
549.464	31.07
549.661	31.02
549.858	31.34
550.055	31.26
550.251	31.21
550.448	30.96
550.645	31.23
550.842	31.31
551.038	31.3
551.235	31.2
551.432	31.03
551.628	31.02
551.825	31.08
552.022	30.98
552.218	30.89
552.415	31.02
552.612	31.2
552.808	31.16
553.005	31.25
553.201	31.24
553.398	31.19
553.594	31.19
553.791	31.26
553.987	31.44
554.184	31.33
554.38	31.25
554.577	31.13
554.773	31
554.97	31.15
555.166	31.01
555.362	31
555.559	31.09
555.755	31.18
555.952	31.16
556.148	30.83
556.344	31.19
556.541	31.36
556.737	31.57
556.933	31.51
557.129	31.56
557.326	31.41
557.522	31.42
557.718	31.23
557.914	31.22
558.11	31.19
558.307	31.24
558.503	30.9
558.699	30.95
558.895	30.71
559.091	30.9
559.287	30.72
559.483	31.08
559.679	31.24
559.876	31.52
560.072	31.6
560.268	31.85
560.464	32.06
560.66	32.24
560.856	32.09
561.052	32.16
561.247	32.12
561.443	32.27
561.639	32.28
561.835	31.97
562.031	31.99
562.227	32.03
562.423	31.61
562.619	31.42
562.815	31.42
563.01	31.54
563.206	31.73
563.402	31.86
563.598	31.6
563.793	31.44
563.989	31.74
564.185	31.78
564.381	31.87
564.576	32.18
564.772	32.33
564.968	32.14
565.163	32.14
565.359	32.02
565.555	31.93
565.75	32.11
565.946	32.04
566.141	32.22
566.337	32.03
566.532	31.79
566.728	31.74
566.923	31.7
567.119	31.86
567.314	31.86
567.51	32.11
567.705	32.05
567.901	32.11
568.096	32.24
568.292	32.04
568.487	32.23
568.682	32.42
568.878	32.62
569.073	32.76
569.268	32.77
569.464	32.72
569.659	32.63
569.854	32.8
570.05	32.71
570.245	32.82
570.44	32.76
570.635	32.56
570.831	32.66
571.026	32.35
571.221	32.37
571.416	32.14
571.611	32
571.806	31.63
572.002	31.5
572.197	31.4
572.392	31.35
572.587	31.38
572.782	31.43
572.977	31.21
573.172	31.37
573.367	31.39
573.562	31.44
573.757	31.73
573.952	31.93
574.147	32.01
574.342	32.18
574.537	32.1
574.732	32.08
574.927	32.11
575.121	32.17
575.316	31.98
575.511	31.86
575.706	32.2
575.901	32.07
576.096	31.99
576.29	32.08
576.485	32.06
576.68	32.15
576.875	32.2
577.069	32.38
577.264	32.44
577.459	32.56
577.654	32.35
577.848	32.11
578.043	32.19
578.238	32.36
578.432	32.32
578.627	32.2
578.821	32.47
579.016	32.42
579.21	32.4
579.405	32.22
579.6	32.34
579.794	32.64
579.989	32.72
580.183	32.3
580.378	32.29
580.572	32.36
580.766	32.54
580.961	32.36
581.155	32.46
581.35	32.17
581.544	32.38
581.738	32.43
581.933	32.32
582.127	32.47
582.321	32.92
582.516	32.98
582.71	33.02
582.904	32.87
583.099	32.89
583.293	32.87
583.487	33.18
583.681	33.25
583.875	33.34
584.07	33.61
584.264	33.41
584.458	33.33
584.652	33.37
584.846	33.52
585.04	33.79
585.234	33.9
585.428	34.18
585.623	33.94
585.817	33.94
586.011	33.63
586.205	33.48
586.399	33.48
586.593	33.39
586.787	33.34
586.981	33.09
587.174	33.02
587.368	33.04
587.562	32.84
587.756	33.02
587.95	32.88
588.144	32.91
588.338	32.84
588.532	32.76
588.725	32.93
588.919	33.02
589.113	32.78
589.307	32.75
589.501	32.55
589.694	32.66
589.888	32.7
590.082	32.95
590.275	33.08
590.469	33.38
590.663	33.56
590.856	33.59
591.05	33.77
591.244	34.05
591.437	34.1
591.631	34.1
591.824	34.27
592.018	34.27
592.212	34.12
592.405	34.29
592.599	34.07
592.792	33.92
592.986	34.23
593.179	33.82
593.372	33.73
593.566	33.8
593.759	33.9
593.953	33.47
594.146	33.68
594.339	33.68
594.533	33.66
594.726	33.65
594.92	33.84
595.113	33.58
595.306	33.88
595.499	34.03
595.693	33.93
595.886	33.98
596.079	34.17
596.272	33.95
596.466	34.11
596.659	33.94
596.852	34.18
597.045	34.12
597.238	34.02
597.431	33.93
597.624	33.98
597.818	33.91
598.011	34.06
598.204	34.01
598.397	34.08
598.59	34.05
598.783	34.01
598.976	34.04
599.169	34.14
599.362	34.32
599.555	34.4
599.748	34.4
599.941	34.85
600.134	34.56
600.326	34.64
600.519	34.7
600.712	34.9
600.905	35.19
601.098	34.96
601.291	34.82
601.483	34.69
601.676	34.71
601.869	34.87
602.062	34.66
602.255	34.86
602.447	35.06
602.64	35.13
602.833	34.78
603.025	34.51
603.218	34.59
603.411	34.69
603.603	34.8
603.796	34.63
603.989	34.32
604.181	34.54
604.374	34.63
604.566	34.41
604.759	34.32
604.951	34.48
605.144	34.81
605.336	34.78
605.529	34.78
605.721	34.88
605.914	35.18
606.106	35.17
606.299	35.06
606.491	34.89
606.683	35.18
606.876	35.24
607.068	35.14
607.26	35.01
607.453	34.92
607.645	34.81
607.837	34.92
608.03	34.9
608.222	34.99
608.414	34.93
608.606	34.83
608.799	34.7
608.991	34.85
609.183	34.86
609.375	34.78
609.567	35.07
609.759	35.21
609.952	35.09
610.144	35.15
610.336	35.22
610.528	35.29
610.72	35.3
610.912	35.29
611.104	35.07
611.296	35.19
611.488	35.15
611.68	35.16
611.872	35.04
612.064	35.14
612.256	35.1
612.448	35.14
612.64	34.98
612.832	35.27
613.023	35.3
613.215	35.22
613.407	35.36
613.599	35.45
613.791	35.24
613.983	35.43
614.174	35.44
614.366	35.33
614.558	35.37
614.75	35.7
614.941	35.67
615.133	35.31
615.325	35.8
615.516	35.88
615.708	36.05
615.9	36.08
616.091	36.09
616.283	36.06
616.475	36.01
616.666	36.22
616.858	36.2
617.049	36.04
617.241	36.39
617.432	36.37
617.624	36.22
617.815	36.11
618.007	36.04
618.198	36.32
618.39	36.31
618.581	36.2
618.773	36.12
618.964	36.01
619.155	36.01
619.347	36.2
619.538	36.26
619.729	36.3
619.921	36.16
620.112	36.2
620.303	35.84
620.494	35.88
620.686	35.97
620.877	36.07
621.068	36.26
621.259	36.52
621.451	36.22
621.642	36.19
621.833	36.05
622.024	36.19
622.215	36.24
622.406	36.39
622.597	36.26
622.788	36.33
622.98	36.14
623.171	35.97
623.362	35.62
623.553	36
623.744	36.26
623.935	36.26
624.126	36.42
624.317	36.53
624.508	36.92
624.698	36.7
624.889	36.61
625.08	36.72
625.271	36.47
625.462	36.29
625.653	36.18
625.844	35.63
626.034	35.92
626.225	35.78
626.416	35.88
626.607	35.31
626.798	35.54
626.988	35.66
627.179	35.44
627.37	35.5
627.56	35.77
627.751	35.67
627.942	35.57
628.132	35.18
628.323	35.02
628.514	35.02
628.704	35.19
628.895	35.02
629.085	34.68
629.276	34.75
629.466	34.8
629.657	34.79
629.847	34.74
630.038	34.97
630.228	35.24
630.419	35.36
630.609	35.13
630.8	35.07
630.99	35.19
631.181	35.19
631.371	35.16
631.561	35.32
631.752	35.52
631.942	35.6
632.132	36.09
632.323	35.81
632.513	36.02
632.703	36.06
632.893	36.14
633.084	36.41
633.274	36.46
633.464	36.61
633.654	36.57
633.844	36.5
634.034	36.53
634.225	36.22
634.415	36.17
634.605	36.19
634.795	36.43
634.985	36.31
635.175	36.38
635.365	36.4
635.555	36.59
635.745	36.31
635.935	36.06
636.125	35.95
636.315	35.96
636.505	36.01
636.695	35.97
636.885	35.71
637.075	35.95
637.265	35.76
637.455	36.26
637.644	35.85
637.834	36.02
638.024	36.28
638.214	36.71
638.404	36.53
638.593	36.58
638.783	36.63
638.973	36.9
639.163	36.73
639.352	36.74
639.542	36.54
639.732	36.66
639.921	36.66
640.111	36.44
640.301	36.15
640.49	36.47
640.68	36.76
640.87	36.64
641.059	36.3
641.249	36.25
641.438	36.36
641.628	36.19
641.817	36.37
642.007	36.16
642.196	36.21
642.386	36.22
642.575	35.66
642.764	35.36
642.954	35.35
643.143	35.48
643.333	35.21
643.522	34.84
643.711	34.82
643.901	34.49
644.09	34.82
644.279	34.74
644.469	34.74
644.658	35.25
644.847	35.18
645.036	35.41
645.226	35.47
645.415	35.59
645.604	35.82
645.793	35.86
645.982	36.23
646.171	36.22
646.361	36.29
646.55	36.38
646.739	36.29
646.928	36.33
647.117	35.92
647.306	35.85
647.495	36.24
647.684	36.11
647.873	35.81
648.062	35.5
648.251	35.2
648.44	35.73
648.629	35.68
648.818	35.51
649.007	35.63
649.196	35.42
649.384	35.05
649.573	34.81
649.762	34.72
649.951	35.17
650.14	35.88
650.328	36.22
650.517	35.75
650.706	35.16
650.895	35.26
651.083	35.54
651.272	35.6
651.461	35.76
651.65	35.83
651.838	35.89
652.027	35.79
652.216	35.34
652.404	35.48
652.593	35.72
652.781	36.12
652.97	36.61
653.158	36.35
653.347	36.56
653.535	36.63
653.724	36.58
653.912	36.8
654.101	36.66
654.289	36.07
654.478	36.04
654.666	36
654.855	35.92
655.043	35.54
655.231	35.63
655.42	35.71
655.608	35.97
655.796	36.36
655.985	36.02
656.173	36.22
656.361	36.44
656.55	36.37
656.738	36.28
656.926	36.1
657.114	35.82
657.302	35.88
657.491	36.01
657.679	35.76
657.867	35.55
658.055	35.7
658.243	35.68
658.431	35.85
658.619	35.84
658.807	35.89
658.996	35.88
659.184	36.05
659.372	35.74
659.56	35.51
659.748	35.24
659.936	35.45
660.124	35.55
660.311	35.61
660.499	36.06
660.687	35.83
660.875	35.82
661.063	36.23
661.251	35.98
661.439	36.13
661.627	36.15
661.814	36.39
662.002	36.07
662.19	35.78
662.378	35.35
662.565	35.01
662.753	35.25
662.941	34.97
663.129	34.79
663.316	34.7
663.504	34.91
663.692	35.18
663.879	35.01
664.067	35.38
664.254	35.36
664.442	35.4
664.63	35.33
664.817	35.08
665.005	35.4
665.192	35.65
665.38	36.49
665.567	36.13
665.755	36.05
665.942	36.65
666.13	36.59
666.317	37.09
666.504	37.28
666.692	37.13
666.879	37.45
667.067	37.31
667.254	37.17
667.441	37.13
667.629	37.26
667.816	37.41
668.003	37.42
668.19	37.19
668.378	37.27
668.565	37.34
668.752	37.84
668.939	37.95
669.127	37.99
669.314	38.18
669.501	37.74
669.688	37.52
669.875	37.45
670.062	37.03
670.249	36.98
670.436	37.01
670.623	37.13
670.81	36.62
670.997	36.06
671.184	35.67
671.371	35.59
671.558	35.24
671.745	35.65
671.932	35.77
672.119	35.59
672.306	35.51
672.493	34.93
672.68	34.88
672.867	35.02
673.054	35.7
673.24	35.95
673.427	35.7
673.614	35.64
673.801	35.65
673.988	35.67
674.174	35.69
674.361	35.87
674.548	36.06
674.734	35.7
674.921	35.56
675.108	34.83
675.294	34.8
675.481	35.1
675.668	35.63
675.854	35.96
676.041	35.46
676.227	35.45
676.414	35.34
676.601	35.31
676.787	35.6
676.974	35.54
677.16	35.86
677.347	36.35
677.533	36.56
677.719	36.47
677.906	36.33
678.092	36.36
678.279	36.66
678.465	36.96
678.651	36.81
678.838	37.11
679.024	37.32
679.21	37.2
679.397	37.34
679.583	36.97
679.769	37.01
679.955	36.54
680.142	36.56
680.328	36.18
680.514	36.04
680.7	36
680.886	35.69
681.073	35.5
681.259	35.53
681.445	34.97
681.631	34.81
681.817	34.63
682.003	35.44
682.189	35.41
682.375	36.04
682.561	36
682.747	36.08
682.933	36.16
683.119	36.18
683.305	36.62
683.491	36.65
683.677	36.67
683.863	36.79
684.049	35.81
684.235	35.63
684.42	35.53
684.606	35.34
684.792	35.54
684.978	35.43
685.164	35.59
685.349	35.03
685.535	35.59
685.721	35.78
685.907	35.81
686.092	36.1
686.278	36.33
686.464	36.04
686.649	36.2
686.835	36.17
687.021	35.96
687.206	35.57
687.392	35.66
687.577	35.21
687.763	35.21
687.948	35.13
688.134	35.35
688.319	35.68
688.505	35.69
688.69	35.74
688.876	36.03
689.061	36.62
689.247	36.75
689.432	36.51
689.618	36.49
689.803	36.96
689.988	36.7
690.174	36.52
690.359	36.49
690.544	36.18
690.73	35.77
690.915	35.58
691.1	34.61
691.285	35.18
691.471	35.2
691.656	35.6
691.841	35.16
692.026	35.65
692.211	36.2
692.396	35.98
692.582	36.79
692.767	37.12
692.952	36.2
693.137	37
693.322	36.76
693.507	37.15
693.692	36.54
693.877	36.64
694.062	36.8
694.247	36.19
694.432	36.75
694.617	36.56
694.802	37.06
694.987	37.73
695.172	37.89
695.357	37.69
695.541	37.73
695.726	37.69
695.911	37.52
696.096	36.98
696.281	36.85
696.466	35.73
696.65	36.33
696.835	35.48
697.02	35.65
697.204	35.37
697.389	35.7
697.574	35.26
697.759	35.32
697.943	34.95
698.128	34.99
698.312	35.47
698.497	35.83
698.682	35.24
698.866	35.3
699.051	34.93
699.235	34.83
699.42	34.27
699.604	34.8
699.789	34.74
699.973	34.94
700.158	35.16
700.342	34.57
700.527	34.63
700.711	34.9
700.895	35.08
701.08	35.29
701.264	35.5
701.448	36.12
701.633	35.91
701.817	36.49
702.001	36.84
702.186	36.65
702.37	37.13
702.554	37.29
702.738	37.03
702.923	37.19
703.107	37.19
703.291	37.56
703.475	37.47
703.659	37.27
703.843	37.22
704.027	36.65
704.212	36.78
704.396	36.4
704.58	35.89
704.764	35.39
704.948	35.62
705.132	36.32
705.316	35.45
705.5	35.21
705.684	35.2
705.868	34.52
706.052	34.85
706.235	34.93
706.419	35.65
706.603	35.54
706.787	35.93
706.971	35.21
707.155	34.81
707.339	35.51
707.522	36.09
707.706	35.55
707.89	36.33
708.074	35.75
708.257	35.78
708.441	34.56
708.625	34.65
708.808	34.52
708.992	34.89
709.176	35.26
709.359	34.69
709.543	34.38
709.727	35.68
709.91	35.55
710.094	36.5
710.277	36.15
710.461	37.49
710.644	37.87
710.828	37.78
711.011	37.52
711.195	37.23
711.378	37.11
711.562	36.5
711.745	35.67
711.928	36.11
712.112	35.54
712.295	35.87
712.478	35.35
712.662	34.99
712.845	35.51
713.028	35.97
713.212	35.91
713.395	35.91
713.578	36.92
713.761	36.94
713.945	36.58
714.128	36.67
714.311	36.53
714.494	36.29
714.677	36.95
714.86	37.23
715.043	36.92
715.227	37.04
715.41	37.71
715.593	37.83
715.776	37.8
715.959	37.36
716.142	37.63
716.325	37.21
716.508	37.47
716.691	37.34
716.874	37.06
717.057	37.58
717.239	37.47
717.422	37.61
717.605	36.76
717.788	36.81
717.971	37.62
718.154	37.79
718.337	37.51
718.519	37.23
718.702	36.86
718.885	36.17
719.068	35.3
719.25	35.01
719.433	34.88
719.616	35.16
719.798	34.69
719.981	34.04
720.164	34.09
720.346	34.14
720.529	35.66
720.712	36.15
720.894	35.88
721.077	36.14
721.259	36.45
721.442	35.81
721.624	35.73
721.807	35.85
721.989	35.99
722.172	35.05
722.354	36.1
722.537	34.39
722.719	34.36
722.901	35.38
723.084	35.45
723.266	35.23
723.448	34.66
723.631	34.56
723.813	35.23
723.995	35.24
724.178	35.81
724.36	36.3
724.542	36.82
724.724	35.1
724.907	35.5
725.089	36.09
725.271	36.56
725.453	38.33
725.635	38.34
725.817	38.72
725.999	38.29
726.181	37.65
726.364	37.47
726.546	37.4
726.728	38.55
726.91	38.56
727.092	37.6
727.274	37.98
727.456	36.52
727.638	35.83
727.819	34.44
728.001	34.02
728.183	34.4
728.365	33.92
728.547	32.91
728.729	32.89
728.911	31.08
729.093	31.19
729.274	31.01
729.456	30.93
729.638	31.45
729.82	32.23
730.001	32.86
730.183	32.97
730.365	32.49
730.546	33.21
730.728	32.48
730.91	33.06
731.091	33.26
731.273	32.76
731.455	34.03
731.636	34.6
731.818	34.97
731.999	34.17
732.181	33.78
732.362	33.67
732.544	34.07
732.725	35.53
732.907	35.56
733.088	35.15
733.27	35.45
733.451	34.62
733.633	34.82
733.814	34.91
733.995	35.15
734.177	34.84
734.358	36.17
734.539	35.22
734.721	33.85
734.902	34.41
735.083	35.07
735.264	34.13
735.446	34.11
735.627	33.31
735.808	32.28
735.989	31.89
736.17	32.68
736.351	31.65
736.533	32.32
736.714	32.96
736.895	32.79
737.076	33.38
737.257	33.44
737.438	34.12
737.619	33.26
737.8	34.06
737.981	34.81
738.162	34.89
738.343	35.81
738.524	36.58
738.705	35.32
738.886	35.03
739.067	34.5
739.247	34.97
739.428	34.95
739.609	36.23
739.79	36.28
739.971	36.47
740.151	35
740.332	32.58
740.513	31.27
740.694	31.73
740.874	32.52
741.055	32.7
741.236	31.94
741.417	30.55
741.597	29.81
741.778	29.44
741.958	28.96
742.139	29.61
742.32	32.05
742.5	32.41
742.681	33.55
742.861	33.75
743.042	34.04
743.222	34.62
743.403	36.36
743.583	36.49
743.764	36.84
743.944	37.5
744.124	37.24
744.305	35.72
744.485	35.41
744.666	35.65
744.846	34.23
745.026	33.28
745.207	33.8
745.387	32.77
745.567	32.21
745.747	30.8
745.928	30.35
746.108	31.3
746.288	32.34
746.468	32.58
746.648	31.32
746.829	31.89
747.009	31.55
747.189	31.22
747.369	32.47
747.549	32.59
747.729	33.93
747.909	33.36
748.089	32.77
748.269	32.67
748.449	33.47
748.629	33.65
748.809	33.22
748.989	34.23
749.169	33.33
749.349	32.45
749.529	33.24
749.709	32.51
749.889	33.26
750.068	33.89
750.248	32.75
750.428	31.81
750.608	32.32
750.788	31.72
750.967	31.1
751.147	33.28
751.327	33.02
751.507	33.5
751.686	34.39
751.866	33.86
752.046	33.72
752.225	34.53
752.405	35.06
752.585	35.18
752.764	36.24
752.944	36.85
753.123	35.31
753.303	35.74
753.482	35.56
753.662	34.92
753.841	35.96
754.021	36.52
754.2	36.55
754.38	36.18
754.559	36.09
754.739	37.07
754.918	37.35
755.097	37.99
755.277	36.87
755.456	38.39
755.635	38.47
755.815	37.34
755.994	36.48
756.173	36.47
756.352	37.27
756.532	37.19
756.711	36.92
756.89	35.53
757.069	34.8
757.248	35.76
757.427	33.18
757.607	33.46
757.786	32.8
757.965	33.39
758.144	32.83
758.323	32.44
758.502	32.8
758.681	31.62
758.86	32.02
759.039	32.55
759.218	32.71
759.397	32.3
759.576	32.3
759.755	32.61
759.934	31.99
760.113	31.71
760.291	31.53
760.47	31.29
760.649	32.25
760.828	32.52
761.007	31.84
761.186	31.34
761.364	32.38
761.543	32.5
761.722	33.44
761.901	33.72
762.079	33.83
762.258	33.97
762.437	34.02
762.615	33.01
762.794	32.09
762.972	32.79
763.151	33.09
763.33	32.94
763.508	32.63
763.687	32.16
763.865	32.66
764.044	32.24
764.222	32.15
764.401	32.02
764.579	31.72
764.758	31.7
764.936	31.54
765.114	31.51
765.293	31.5
765.471	31.49
765.65	31.27
765.828	30.59
766.006	31.15
766.184	29.89
766.363	30.87
766.541	31.59
766.719	32.92
766.898	31.97
767.076	31.71
767.254	30.92
767.432	30.27
767.61	31.66
767.788	31.78
767.967	32.77
768.145	34.25
768.323	31.66
768.501	31.46
768.679	30.83
768.857	30.79
769.035	29.75
769.213	30.75
769.391	33.21
769.569	31.32
769.747	31.44
769.925	31.01
770.103	30.86
770.281	33.01
770.459	31.74
770.636	31.93
770.814	32.44
770.992	34.42
771.17	35.78
771.348	33.42
771.525	34.14
771.703	33.67
771.881	32.03
772.059	32.93
772.236	32.27
772.414	34.94
772.592	34.13
772.769	34.74
772.947	34.03
773.125	31.9
773.302	33.1
773.48	33.73
773.657	33.69
773.835	36.44
774.013	36.94
774.19	36.7
774.368	34.75
774.545	36.69
774.723	37.41
774.9	37.54
775.077	39.6
775.255	37.32
775.432	37.85
775.61	39.85
775.787	36.51
775.964	34.85
776.142	35.17
776.319	36.17
776.496	35.33
776.674	34.93
776.851	33.81
777.028	32.77
777.205	33.5
777.382	31.73
777.56	32.25
777.737	32.73
777.914	32.7
778.091	31.03
778.268	31.99
778.445	32.54
778.622	32.17
778.8	34.96
778.977	34.29
779.154	35.86
779.331	37.19
779.508	35.44
779.685	38.25
779.862	39.61
780.038	40.84
780.215	41.68
780.392	39.47
780.569	38.93
780.746	38.2
780.923	38.72
781.1	37.27
781.277	36.67
781.453	35.48
781.63	31.45
781.807	30.71
781.984	29.55
782.16	27.36
782.337	29.74
782.514	28.83
782.691	26.4
782.867	26.49
783.044	26.55
783.221	26.87
783.397	28.96
783.574	33.36
783.75	33.96
783.927	34.75
784.103	35.43
784.28	34.32
784.456	35.67
784.633	36.99
784.809	37.32
784.986	39.21
785.162	35.77
785.339	35.08
785.515	35.48
785.692	34.12
785.868	35.88
786.044	35.71
786.221	36.59
786.397	36.77
786.573	36.26
786.749	33.43
786.926	34.39
787.102	36.35
787.278	34.93
787.454	32.8
787.631	31.21
787.807	30.31
787.983	29.73
788.159	28.16
788.335	31.31
788.511	29.99
788.687	30.78
788.863	28.32
789.039	28.53
789.216	31.33
789.392	29.84
789.568	30.74
789.744	29.12
789.919	29.41
790.095	30.21
790.271	27.63
790.447	28.31
790.623	27.9
790.799	28.48
790.975	30.51
791.151	26.99
791.327	29.46
791.502	29.19
791.678	29.07
791.854	31.38
792.03	31.6
792.205	28.22
792.381	29.16
792.557	30.09
792.733	29.69
792.908	28.11
793.084	28.61
793.259	28.38
793.435	28.42
793.611	29.69
793.786	28.77
793.962	26.2
794.137	28.53
794.313	31.08
794.488	30.28
794.664	29.26
794.839	29.77
795.015	30.91
795.19	33.11
795.366	33.61
795.541	33.8
795.716	32.68
795.892	32.58
796.067	32.05
796.242	29.16
796.418	27.79
796.593	26.73
796.768	23.99
796.944	22.49
797.119	20.97
797.294	21.73
797.469	20.96
797.644	21.4
797.82	23.63
797.995	23.64
798.17	23.91
798.345	25.08
798.52	27.14
798.695	28.74
798.87	30.84
799.045	28.57
799.22	27.02
799.395	28.94
799.57	26.53
799.745	26.15
799.92	27.38
800.095	25.26
800.27	24.95
800.445	22.19
800.62	23.01
800.795	20.23
800.97	22.71
801.145	24.39
801.319	20.61
801.494	22.26
801.669	22.75
801.844	20.69
802.018	24.06
802.193	23.78
802.368	28.36
802.543	27.54
802.717	32.08
802.892	28.33
803.067	30.15
803.241	32.62
803.416	32.93
803.59	31.08
803.765	33.75
803.94	34.76
804.114	35.36
804.289	34.93
804.463	34.54
804.638	32.37
804.812	32.9
804.986	30.61
805.161	30.4
805.335	27.1
805.51	29.12
805.684	26.3
805.858	22.39
806.033	22.6
806.207	19.77
806.381	20.34
806.556	20.74
806.73	21.4
806.904	19.5
807.078	16.63
807.253	17.14
807.427	15.78
807.601	21.55
807.775	21.99
807.949	23.41
808.123	23.36
808.298	25.13
808.472	25.55
808.646	25.38
808.82	28.71
808.994	32.35
809.168	32.11
809.342	30.94
809.516	25.08
809.69	26.06
809.864	25.2
810.038	29.06
810.212	29.37
810.385	28.85
810.559	30.52
810.733	27.23
810.907	25.76
811.081	31.85
811.255	32.49
811.428	32.82
811.602	31.49
811.776	35.14
811.95	35.79
812.123	33.02
812.297	33.63
812.471	32.06
812.644	34.37
812.818	33.72
812.992	31.97
813.165	32.05
813.339	29.61
813.512	34.33
813.686	28.54
813.86	26.74
814.033	30.99
814.207	30.97
814.38	34.44
814.554	28.24
814.727	29.96
814.9	31.36
815.074	28.54
815.247	28.69
815.421	27.31
815.594	24.58
815.767	20.75
815.941	18.71
816.114	16.72
816.287	18.72
816.46	26.77
816.634	25.74
816.807	24.03
816.98	25.84
817.153	31.19
817.327	26.66
817.5	30.83
817.673	30.12
817.846	29.51
818.019	29.66
818.192	21.78
818.365	17.15
818.538	16.01
818.711	13.12
818.884	16.35
819.057	13.63
819.23	15.35
819.403	14.76
819.576	17.93
819.749	17.87
819.922	20.13
820.095	23.73
820.268	28.13
820.441	29.2
820.614	30.74
820.786	29.77
820.959	31.73
821.132	33.03
821.305	32.1
821.477	33.22
821.65	31.85
821.823	31.23
821.996	30.11
822.168	29.83
822.341	30.29
822.514	31.41
822.686	32.04
822.859	31.9
823.031	31.96
823.204	32.42
823.376	31.24
823.549	32.19
823.722	32
823.894	32.06
824.067	31.96
824.239	31.51
824.411	30.65
824.584	30.03
824.756	29.48
824.929	28.08
825.101	28.26
825.273	28.46
825.446	28.15
825.618	29.08
825.79	29.6
825.963	30.46
826.135	31.67
826.307	32.62
826.479	32.04
826.652	31.99
826.824	32.7
826.996	32.07
827.168	32.24
827.34	32.21
827.512	29.74
827.684	27.89
827.856	27.07
828.029	27.22
828.201	24.61
828.373	25.93
828.545	26.28
828.717	25.88
828.889	26.36
829.061	24.56
829.232	23.4
829.404	23.8
829.576	25.7
829.748	24.01
829.92	21.86
830.092	23.28
830.264	20.69
830.436	18.53
830.607	16.51
830.779	14.05
830.951	16.07
831.123	14.43
831.294	13.73
831.466	13.77
831.638	15.58
831.809	16.52
831.981	14.97
832.153	15.45
832.324	16.62
832.496	19.2
832.667	17.02
832.839	18.49
833.011	20.79
833.182	26.08
833.354	27.39
833.525	27.9
833.697	26.12
833.868	28.42
834.039	30.65
834.211	31.49
834.382	31.22
834.554	34.05
834.725	33.27
834.896	34.35
835.068	30.79
835.239	29.91
835.41	29.76
835.581	30.02
835.753	29.21
835.924	25.81
836.095	26.31
836.266	23.37
836.438	22.51
836.609	20.82
836.78	18.22
836.951	22.17
837.122	21.16
837.293	20.02
837.464	20.9
837.635	21.9
837.806	26.95
837.977	23.61
838.148	27.64
838.319	31.96
838.49	35.07
838.661	37.69
838.832	37.02
839.003	39.53
839.174	42.78
839.345	43.2
839.516	41.85
839.687	42.38
839.857	45.7
840.028	46.47
840.199	41.72
840.37	40.58
840.54	39.51
840.711	36.48
840.882	34.49
841.053	32.58
841.223	30.19
841.394	29.88
841.564	21.84
841.735	19.59
841.906	22.35
842.076	28.71
842.247	27.1
842.417	23.94
842.588	27.81
842.758	25.92
842.929	19.7
843.099	24.73
843.27	28.15
843.44	30.76
843.611	35.82
843.781	32.36
843.951	16.25
844.122	21.38
844.292	20.25
844.462	16.59
844.633	21.65
844.803	31.2
844.973	27.78
845.144	29.25
845.314	32.28
845.484	23.66
845.654	16.97
845.824	30.41
845.995	17.23
846.165	24.59
846.335	21.59
846.505	32.52
846.675	34.36
846.845	35.95
847.015	36.2
847.185	45.29
847.355	42.93
847.525	52.42
847.695	51.2
847.865	59.38
848.035	58.27
848.205	58.97
848.375	54.94
848.545	51.42
848.715	56.01
848.884	58.42
849.054	49.75
849.224	53.34
849.394	50.97
849.564	44.52
849.733	50.33
849.903	56.64
850.073	52.11
850.243	48.84
850.412	43.05
850.582	33.69
850.752	27.39
850.921	31.77
851.091	19.27
851.26	24.68
851.43	26.59
851.599	14.64
851.769	6.73
851.939	17.24
852.108	18.89
852.278	19.2
852.447	20.4
852.616	22.57
852.786	20.53
852.955	29.41
853.125	29.42
853.294	42.72
853.463	46.28
853.633	50.71
853.802	51.62
853.971	50.28
854.141	52.25
854.31	57.13
854.479	53.12
854.648	59.37
854.818	48.84
854.987	35.52
855.156	38.01
855.325	36.22
855.494	43.95
855.663	40.26
855.832	41.78
856.001	36.48
856.171	22.3
856.34	23.83
856.509	29.44
856.678	29.55
856.847	28.4
857.016	14.77
857.185	14.79
857.353	-1.71
857.522	8.99
857.691	6.44
857.86	2.65
858.029	-0.5
858.198	-9.62
858.367	-21.21
858.535	-8.26
858.704	7.4
858.873	8.01
859.042	8.48
859.21	12.57
859.379	-1.85
859.548	-8.85
859.717	4.57
859.885	23.1
860.054	31.5
860.222	24.73
860.391	18.3
860.56	25.3
860.728	27.48
860.897	28.11
861.065	27.29
861.234	32.54
861.402	31.06
861.571	31.12
861.739	31.35
861.908	35.44
862.076	40.32
862.244	43.45
862.413	33.36
862.581	29.28
862.749	29.17
862.918	35.72
863.086	28.25
863.254	40.15
863.423	35.05
863.591	36.68
863.759	31.64
863.927	26.99
864.096	31.05
864.264	47.18
864.432	49.61
864.6	50.03
864.768	44.96
864.936	44.18
865.104	32.92
865.272	45.18
865.44	41.13
865.608	40.52
865.776	47.25
865.944	39.52
866.112	35.27
866.28	42.71
866.448	40.55
866.616	28.27
866.784	28.99
866.952	39.49
867.12	35.4
867.288	32.84
867.455	40.9
867.623	27.9
867.791	20.92
867.959	9.49
868.127	-11.39
868.294	-11.04
868.462	14.65
868.63	17.39
868.797	37.07
868.965	24.13
869.133	26.87
869.3	7.43
869.468	25.51
869.636	31.64
869.803	38.59
869.971	35.47
870.138	34.65
870.306	24.36
870.473	41.33
870.641	3.22
870.808	10.08
870.975	-0.44
871.143	5.79
871.31	9.7
871.478	11.78
871.645	39.84
871.812	32.93
871.98	22.23
872.147	18.19
872.314	0.67
872.482	11.37
872.649	-8.56
872.816	-7.02
872.983	-10.5
873.15	-5.9
873.318	-3.01
873.485	-11.4
873.652	10.14
873.819	24.52
873.986	22.07
874.153	27.41
874.32	17.66
874.487	34.56
874.654	38.69
874.821	32.86
874.988	29.52
875.155	23.73
875.322	12.86
875.489	0.52
875.656	-21.99
875.823	-11.37
875.99	14.31
876.157	22.22
876.324	17.27
876.49	9.31
876.657	24.69
876.824	19.79
876.991	20.35
877.157	35.18
877.324	30.19
877.491	31.54
877.658	18.29
877.824	12
877.991	23.01
878.157	23.42
878.324	28.89
878.491	30.43
878.657	38.09
878.824	30.75
878.99	20.26
879.157	18.39
879.323	10.79
879.49	23.24
879.656	20.65
879.823	17.8
879.989	23.87
880.156	26.6
880.322	12.03
880.488	19.4
880.655	22.51
880.821	45.56
880.987	52.13
881.154	54.89
881.32	45.66
881.486	46.14
881.652	41.22
881.819	40.11
881.985	37.06
882.151	35
882.317	29.71
882.483	33.61
882.649	24.58
882.816	19.09
882.982	20.24
883.148	25.55
883.314	23.65
883.48	20.53
883.646	19.33
883.812	19.17
883.978	20.88
884.144	21.47
884.31	18.69
884.476	22.46
884.642	23.93
884.807	23.17
884.973	17.57
885.139	17.47
885.305	22.16
885.471	22.82
885.637	23.38
885.802	22.67
885.968	20.49
886.134	20.42
886.3	16.33
886.465	15.97
886.631	18.44
886.797	22.59
886.962	21.71
887.128	17.07
887.293	12.69
887.459	12.81
887.625	14
887.79	13.04
887.956	4.93
888.121	2.08
888.287	0.06
888.452	-19.95
888.618	-37.4
888.783	-30.73
