Data from 2938111_Reflection_1.txt Node
Date: Sat Jul 11 18:25:22 EDT 2015
User: robert
Spectrometer: USB4E03001
Autoset integration time: false
Trigger mode: 4
Integration Time (sec): 1.000000E-1
Scans to average: 10
Electric dark correction enabled: true
Nonlinearity correction enabled: false
Boxcar width: 5
Stray light correction enabled: false
XAxis mode: Wavelengths
Stop averaging: false
Number of Pixels in Spectrum: 3648
>>>>>Begin Spectral Data<<<<<
177.566	63.48
177.785	198.12
178.005	-483.17
178.225	-104.32
178.445	-170.09
178.665	593.55
178.885	-327.39
179.105	-133.33
179.324	-48.14
179.544	-30.68
179.764	-499.66
179.984	-22.31
180.204	-256.99
180.423	-13.66
180.643	14.34
180.863	-19.23
181.083	-23.09
181.302	-6.4
181.522	-21.65
181.742	-103.59
181.961	-1030.32
182.181	383.67
182.401	316.72
182.621	163.65
182.84	166.86
183.06	253.75
183.279	135.15
183.499	108.75
183.719	66.69
183.938	122.82
184.158	-8.05
184.377	3.13
184.597	-137.29
184.816	-39.9
185.036	65.95
185.256	153.54
185.475	97.49
185.695	80.98
185.914	50.23
186.134	147.06
186.353	286.61
186.572	935.6
186.792	-457.08
187.011	-262.39
187.231	-101.74
187.45	-17.44
187.67	8.35
187.889	81.21
188.108	50.25
188.328	36.8
188.547	112.81
188.766	167.78
188.986	-715.33
189.205	-142.35
189.424	9.31
189.644	22.9
189.863	-0.06
190.082	-17.5
190.302	29.83
190.521	-41
190.74	-25.19
190.959	-29.33
191.178	2219.05
191.398	896.07
191.617	-112.34
191.836	-96.44
192.055	-80.19
192.274	-228.2
192.494	103.77
192.713	181.66
192.932	165.4
193.151	5306.38
193.37	-58980
193.589	176.25
193.808	78.58
194.027	51.14
194.246	53.25
194.465	51.12
194.685	50.3
194.904	12.23
195.123	-103.01
195.342	1.98
195.561	21.76
195.78	36.81
195.999	29.92
196.218	26
196.436	-8.46
196.655	-19.49
196.874	13.17
197.093	36.24
197.312	61.11
197.531	55.23
197.75	50.24
197.969	100.09
198.188	43.96
198.407	68.02
198.625	102.53
198.844	177.26
199.063	332.6
199.282	-1644.04
199.501	4.77
199.719	-1516.44
199.938	-26.86
200.157	36.53
200.376	2.18
200.594	-60.52
200.813	-332.77
201.032	-96.52
201.251	-31.69
201.469	-20.51
201.688	5.88
201.907	17.18
202.125	16.54
202.344	10.14
202.563	22.71
202.781	15.02
203	28.68
203.218	-23.68
203.437	-23.7
203.656	-261.46
203.874	-296.18
204.093	-152.97
204.311	-122.48
204.53	-66.14
204.748	-55.57
204.967	4.86
205.185	14.03
205.404	23.26
205.622	58
205.841	139.12
206.059	129.53
206.278	94.4
206.496	65.88
206.715	85.63
206.933	73.5
207.151	105.52
207.37	272.62
207.588	328.99
207.806	271.11
208.025	517.43
208.243	-428.94
208.461	-575.42
208.68	-506.22
208.898	1246.54
209.116	714.75
209.335	219.73
209.553	-145.52
209.771	-231.66
209.989	157.73
210.208	379.37
210.426	-1416
210.644	-249.87
210.862	-265.61
211.081	-41.1
211.299	-135.55
211.517	-91.53
211.735	-254.89
211.953	-272.42
212.171	-161.54
212.39	-61.02
212.608	-67.22
212.826	-22.04
213.044	0.06
213.262	24.93
213.48	-22.16
213.698	49.17
213.916	71.63
214.134	88.63
214.352	106.62
214.57	144.83
214.788	364.53
215.006	3222.02
215.224	5861.11
215.442	69.94
215.66	1003.28
215.878	78.57
216.096	160.33
216.314	5.79
216.532	-442.86
216.75	-37.11
216.968	265.06
217.185	395.45
217.403	150.5
217.621	78.42
217.839	100.33
218.057	47.89
218.275	-500.53
218.492	43.3
218.71	-26.18
218.928	23.61
219.146	10.87
219.363	28.5
219.581	42.08
219.799	3.65
220.017	8.03
220.234	23.76
220.452	12.69
220.67	10.73
220.887	16.18
221.105	29.59
221.323	26.2
221.54	13.29
221.758	20.54
221.976	12.36
222.193	36.53
222.411	30.73
222.629	31.49
222.846	32.58
223.064	40.02
223.281	35.36
223.499	34.26
223.716	41.71
223.934	47.25
224.151	48.63
224.369	60.09
224.586	41.74
224.804	32.81
225.021	6.11
225.239	-4.91
225.456	-3.55
225.674	8.4
225.891	11.48
226.108	21.14
226.326	19.34
226.543	8.42
226.76	5.4
226.978	6.78
227.195	18.54
227.413	33.56
227.63	26.09
227.847	23.82
228.064	11.44
228.282	9.14
228.499	4.77
228.716	8.03
228.934	12.96
229.151	15.77
229.368	18.32
229.585	15.79
229.802	14.37
230.02	20.7
230.237	22.23
230.454	27.85
230.671	29.42
230.888	27.08
231.105	27.15
231.323	25.77
231.54	23.93
231.757	21.68
231.974	21.43
232.191	21.45
232.408	15.6
232.625	19.71
232.842	21.87
233.059	24.18
233.276	30.92
233.493	29.74
233.71	27.9
233.927	31.61
234.144	30.64
234.361	37.56
234.578	36.14
234.795	39.23
235.012	33.84
235.229	27.39
235.446	25.71
235.663	25.17
235.879	32.69
236.096	33.75
236.313	33.38
236.53	33.66
236.747	27.48
236.964	39.76
237.181	34.98
237.397	31.71
237.614	30.99
237.831	29.26
238.048	26.2
238.264	12.02
238.481	11.71
238.698	8.54
238.915	11.91
239.131	19.1
239.348	13.94
239.565	14.13
239.781	20.47
239.998	20.51
240.215	20.56
240.431	22.31
240.648	23.93
240.865	24.57
241.081	27.72
241.298	27.66
241.514	25.62
241.731	22.43
241.947	23.76
242.164	22.31
242.38	23.03
242.597	20.15
242.814	18.66
243.03	18.83
243.246	16.38
243.463	14.17
243.679	14.54
243.896	12.87
244.112	16.82
244.329	13.16
244.545	13.8
244.762	11.73
244.978	13.61
245.194	14.79
245.411	14.93
245.627	17.49
245.843	17.29
246.06	16.69
246.276	16.33
246.492	14.05
246.709	14.91
246.925	14.36
247.141	14.6
247.357	14.94
247.574	14.76
247.79	15.58
248.006	14.6
248.222	14.95
248.439	15.73
248.655	14
248.871	13.22
249.087	13.91
249.303	14.22
249.519	13.29
249.736	13.08
249.952	12.94
250.168	11.56
250.384	10.46
250.6	9.87
250.816	7.45
251.032	11.03
251.248	11.36
251.464	10.79
251.68	10.94
251.896	11.74
252.112	12.02
252.328	12.84
252.544	12.21
252.76	13.74
252.976	12.95
253.192	14.06
253.408	13.72
253.624	14.29
253.84	14.95
254.056	13.63
254.272	16.43
254.487	16.36
254.703	15.85
254.919	17.63
255.135	17.65
255.351	17.33
255.567	18.77
255.782	17.58
255.998	17.16
256.214	16.25
256.43	14.22
256.646	11.9
256.861	11.88
257.077	11.19
257.293	8.85
257.508	8.84
257.724	8.83
257.94	7.27
258.155	9.91
258.371	11.02
258.587	11.01
258.802	11.62
259.018	11.89
259.234	12.44
259.449	12.53
259.665	12.89
259.88	12.91
260.096	13.29
260.312	12.4
260.527	12.92
260.743	12.78
260.958	12.99
261.174	12.82
261.389	13.01
261.605	12.62
261.82	13.49
262.036	14.14
262.251	15.2
262.466	14.63
262.682	15.85
262.897	14.75
263.113	14.46
263.328	12.49
263.543	14.6
263.759	14.61
263.974	13.58
264.189	13.41
264.405	12.21
264.62	11.27
264.835	11.43
265.051	14.6
265.266	14.03
265.481	12.99
265.696	14.61
265.912	13.19
266.127	11.2
266.342	12.62
266.557	12.31
266.773	11.43
266.988	11.54
267.203	11.48
267.418	10.54
267.633	11.97
267.848	12.6
268.064	11.76
268.279	13.11
268.494	14.79
268.709	13.89
268.924	11.98
269.139	13.72
269.354	13.38
269.569	13.41
269.784	12.56
269.999	13.33
270.214	11.53
270.429	12.22
270.644	11.48
270.859	11.04
271.074	11.14
271.289	11.88
271.504	11.12
271.719	10.15
271.934	10.82
272.149	9.37
272.363	8.17
272.578	10.32
272.793	10.58
273.008	10.24
273.223	9.39
273.438	9.94
273.653	9.18
273.867	8.31
274.082	9.6
274.297	10.67
274.512	11.95
274.726	11.4
274.941	11.26
275.156	10.47
275.371	11.19
275.585	10.94
275.8	10.52
276.015	13.15
276.229	13.58
276.444	10.94
276.659	9.56
276.873	8.56
277.088	10.84
277.302	11.38
277.517	11.21
277.732	10.95
277.946	12.79
278.161	13.95
278.375	10.94
278.59	12.48
278.804	15.22
279.019	14.04
279.233	15.27
279.448	12.78
279.662	13.02
279.877	13.16
280.091	14.49
280.306	15.69
280.52	15.08
280.735	15.81
280.949	16.92
281.163	17.09
281.378	19.04
281.592	18.79
281.806	19.74
282.021	18.28
282.235	20.05
282.449	20.17
282.664	19.17
282.878	19.71
283.092	21.42
283.307	20.49
283.521	19.28
283.735	18.04
283.949	18.09
284.164	16.31
284.378	16.81
284.592	14.35
284.806	13.19
285.02	12.33
285.234	11.35
285.449	10.41
285.663	9.61
285.877	9.63
286.091	10.53
286.305	9.77
286.519	11.69
286.733	11.63
286.947	12.58
287.161	12.85
287.375	13.35
287.589	13.61
287.803	12.81
288.017	12.31
288.231	10.78
288.445	9.56
288.659	9.46
288.873	7.8
289.087	7.4
289.301	8.87
289.515	7.73
289.729	9.04
289.943	8.4
290.157	10.92
290.371	10.71
290.584	11.34
290.798	12.48
291.012	11.05
291.226	13.12
291.44	11.97
291.654	11.12
291.867	11.16
292.081	10.84
292.295	10.52
292.509	9.58
292.722	10.83
292.936	11.95
293.15	10.64
293.364	13.75
293.577	12.26
293.791	12.82
294.005	12.9
294.218	14.24
294.432	13.09
294.645	13.75
294.859	14.81
295.073	14.35
295.286	14.43
295.5	14.31
295.713	14.21
295.927	15.37
296.14	16.62
296.354	16.66
296.568	15.85
296.781	15.79
296.994	16.35
297.208	14.88
297.421	14.64
297.635	13.89
297.848	13.94
298.062	14.82
298.275	15.51
298.489	13.68
298.702	12.22
298.915	12.8
299.129	12.94
299.342	12.57
299.555	14.49
299.769	14.3
299.982	15.93
300.195	17.05
300.409	13.38
300.622	11.44
300.835	12.68
301.048	14.37
301.262	14.98
301.475	15.21
301.688	14.81
301.901	12.81
302.115	12.98
302.328	12.92
302.541	13.11
302.754	14.71
302.967	15.37
303.18	16.65
303.393	15.61
303.607	15.76
303.82	17.9
304.033	19.42
304.246	19.68
304.459	20.36
304.672	20.19
304.885	17.88
305.098	18.72
305.311	17.29
305.524	17.35
305.737	18.33
305.95	18.68
306.163	15.44
306.376	14.59
306.589	13.73
306.802	12.84
307.015	11.29
307.228	13.08
307.44	11.78
307.653	11.56
307.866	10.17
308.079	9.75
308.292	9.31
308.505	10.79
308.718	9.87
308.93	9.91
309.143	10.42
309.356	13.63
309.569	12.58
309.781	12.96
309.994	14.09
310.207	14.28
310.42	14.24
310.632	13.92
310.845	14.31
311.058	13.87
311.27	14.23
311.483	14.97
311.696	13.87
311.908	15.08
312.121	15.4
312.333	16.98
312.546	18.71
312.759	19.64
312.971	20.04
313.184	20.29
313.396	22.43
313.609	22.04
313.821	20.97
314.034	21.22
314.246	19.6
314.459	20.57
314.671	19.04
314.884	18.43
315.096	19.04
315.309	18.85
315.521	18.58
315.733	18.03
315.946	17.86
316.158	19.72
316.371	20.37
316.583	22.11
316.795	19.65
317.008	16.95
317.22	14.65
317.432	12.32
317.644	13.56
317.857	10.02
318.069	9.13
318.281	10.08
318.494	9.15
318.706	7.9
318.918	5.53
319.13	7.49
319.342	10.05
319.555	10.49
319.767	10.2
319.979	7.65
320.191	11.08
320.403	11
320.615	12.28
320.827	10.49
321.039	9.71
321.252	11.07
321.464	10.52
321.676	10.24
321.888	9.65
322.1	10.83
322.312	11.78
322.524	10.02
322.736	10.48
322.948	9.54
323.16	11.84
323.372	12.47
323.584	12.97
323.796	11.46
324.007	10.66
324.219	10.32
324.431	10.33
324.643	10.43
324.855	11.84
325.067	11.32
325.279	10.96
325.491	11.01
325.702	10.53
325.914	9.74
326.126	11.96
326.338	10.24
326.55	11.75
326.761	12.05
326.973	11.56
327.185	11.38
327.396	11.56
327.608	11.85
327.82	11.97
328.032	12.34
328.243	12.77
328.455	11.27
328.666	12.61
328.878	13.35
329.09	13.17
329.301	13.39
329.513	12.33
329.725	13.64
329.936	13.6
330.148	12.8
330.359	13.13
330.571	12.29
330.782	14.9
330.994	16.75
331.205	16.44
331.417	17.81
331.628	18.55
331.84	19.66
332.051	18.57
332.262	18.63
332.474	19.59
332.685	19.43
332.897	21.45
333.108	19.03
333.319	18.79
333.531	18.89
333.742	17.57
333.953	17.61
334.165	17.7
334.376	17.88
334.587	18.82
334.799	19.01
335.01	19.32
335.221	18.36
335.432	18.74
335.644	17.78
335.855	14.59
336.066	14.16
336.277	15
336.488	14.75
336.7	13.86
336.911	11.56
337.122	9.88
337.333	9.65
337.544	9.27
337.755	10.25
337.966	11.27
338.177	13.76
338.388	14.84
338.599	13.21
338.811	13.66
339.022	14.8
339.233	14.51
339.444	14.55
339.655	12.71
339.866	13.26
340.076	11.37
340.287	9.95
340.498	10.3
340.709	9.17
340.92	8.56
341.131	7.97
341.342	7.69
341.553	7.69
341.764	6.89
341.975	7.84
342.185	8.06
342.396	9.87
342.607	10.29
342.818	10.55
343.029	10.65
343.239	11.77
343.45	11.72
343.661	11.82
343.872	12.73
344.082	13.79
344.293	14.39
344.504	14.21
344.714	13.95
344.925	15.3
345.136	14.82
345.346	13.77
345.557	13.32
345.768	14.47
345.978	15.51
346.189	16.15
346.399	15.95
346.61	16.93
346.821	16.92
347.031	17.55
347.242	16.02
347.452	15.59
347.663	16.61
347.873	17.74
348.084	17.33
348.294	15.72
348.504	15.67
348.715	16.07
348.925	15.15
349.136	14.43
349.346	14.22
349.557	15.45
349.767	17.24
349.977	17.67
350.188	16.27
350.398	15.66
350.608	16.82
350.819	16.41
351.029	14.3
351.239	14.05
351.449	14.81
351.66	13.2
351.87	12.02
352.08	10.11
352.29	11.04
352.501	12.59
352.711	13.4
352.921	11.88
353.131	11.85
353.341	13.15
353.552	14.54
353.762	12.71
353.972	12.17
354.182	14.2
354.392	14.73
354.602	13.01
354.812	12.28
355.022	12.6
355.232	14.54
355.442	13.76
355.652	14.27
355.862	12.47
356.072	14.17
356.282	14.93
356.492	13.97
356.702	12.94
356.912	14.14
357.122	13.51
357.332	12.15
357.542	10.52
357.752	12.12
357.962	11.91
358.171	12.27
358.381	12.19
358.591	13.68
358.801	12.56
359.011	13.35
359.221	13.04
359.43	13.83
359.64	14.37
359.85	14.67
360.06	14.94
360.269	15.04
360.479	14.23
360.689	13.41
360.899	12.28
361.108	12.31
361.318	12.5
361.528	11.32
361.737	10.9
361.947	10.45
362.156	9.8
362.366	8.59
362.576	8.19
362.785	9.05
362.995	9.26
363.204	8.74
363.414	9.06
363.623	8.74
363.833	9.75
364.042	8.84
364.252	9.66
364.461	9.87
364.671	10.25
364.88	10.01
365.09	9.96
365.299	10.89
365.509	10.76
365.718	10.7
365.927	10.43
366.137	10.55
366.346	11.82
366.555	10.83
366.765	11.49
366.974	11.94
367.183	11.04
367.393	11.32
367.602	9.67
367.811	11.13
368.021	10.9
368.23	10.83
368.439	10.79
368.648	10.51
368.857	12.32
369.067	11.59
369.276	11.32
369.485	12.81
369.694	11.74
369.903	12.35
370.112	10.98
370.321	11.28
370.531	10.84
370.74	10.95
370.949	10.39
371.158	9.26
371.367	9.79
371.576	9.09
371.785	8.69
371.994	8.98
372.203	9.38
372.412	9.28
372.621	9.35
372.83	10.25
373.039	10.06
373.248	10.14
373.457	9.83
373.666	9.56
373.874	10.6
374.083	10.97
374.292	11
374.501	10.43
374.71	9.36
374.919	9.53
375.128	9.1
375.336	9.03
375.545	8.23
375.754	8.77
375.963	8.11
376.171	7.48
376.38	6.42
376.589	6.13
376.798	6.61
377.006	7.97
377.215	7.74
377.424	8.08
377.632	8.14
377.841	8.91
378.05	8.07
378.258	8.95
378.467	8.93
378.675	10.26
378.884	10.34
379.093	9.73
379.301	9.63
379.51	9.1
379.718	8.86
379.927	8.44
380.135	8.44
380.344	8.74
380.552	8.4
380.761	8.26
380.969	7.95
381.177	8.3
381.386	8.41
381.594	8.37
381.803	8.64
382.011	8.6
382.219	8.28
382.428	7.99
382.636	8.01
382.845	7.15
383.053	6.86
383.261	6.64
383.469	6.33
383.678	5.85
383.886	5.43
384.094	5.33
384.302	4.95
384.511	5.2
384.719	4.14
384.927	3.87
385.135	4.65
385.343	4.81
385.552	4.38
385.76	4.61
385.968	4.61
386.176	5.31
386.384	5.45
386.592	5.57
386.8	5.93
387.008	6.52
387.216	6.54
387.424	6.27
387.633	6.29
387.841	6.34
388.049	6.21
388.257	6.82
388.465	6.14
388.672	5.81
388.88	5.5
389.088	5.57
389.296	5.96
389.504	5.85
389.712	5.63
389.92	5.45
390.128	5.32
390.336	5.11
390.544	4.75
390.751	5.11
390.959	5.1
391.167	5.33
391.375	4.79
391.583	4.77
391.79	4.85
391.998	4.81
392.206	5.07
392.414	5.22
392.621	5.59
392.829	5.49
393.037	4.97
393.244	4.85
393.452	4.65
393.66	4.61
393.867	4.39
394.075	4.04
394.283	4.2
394.49	4.01
394.698	3.86
394.905	3.37
395.113	3.52
395.32	3.85
395.528	4.12
395.735	4.19
395.943	4.51
396.15	4.69
396.358	5.2
396.565	5.27
396.773	5.23
396.98	5.32
397.188	5.68
397.395	5.29
397.602	5.02
397.81	4.9
398.017	5.19
398.225	4.99
398.432	4.71
398.639	4.49
398.847	4.41
399.054	4.31
399.261	3.88
399.468	3.45
399.676	3.9
399.883	3.59
400.09	3.45
400.297	3.36
400.505	3.46
400.712	3.8
400.919	3.93
401.126	3.85
401.333	4.14
401.54	4.52
401.748	4.64
401.955	4.25
402.162	4.85
402.369	4.96
402.576	4.77
402.783	4.51
402.99	4.57
403.197	4.67
403.404	4.81
403.611	4.55
403.818	4.39
404.025	4.45
404.232	4.48
404.439	4.41
404.646	4.22
404.853	4.41
405.06	4.43
405.267	3.87
405.474	3.88
405.681	3.74
405.887	3.77
406.094	3.97
406.301	3.86
406.508	3.62
406.715	3.51
406.922	3.82
407.128	3.68
407.335	3.74
407.542	4.13
407.749	4.04
407.955	4.04
408.162	3.95
408.369	3.84
408.575	3.77
408.782	3.97
408.989	4.2
409.195	4.05
409.402	3.76
409.609	3.57
409.815	3.63
410.022	3.54
410.228	3.74
410.435	4.01
410.642	4.11
410.848	4.27
411.055	4.35
411.261	4.32
411.468	4.42
411.674	4.48
411.881	4.68
412.087	4.55
412.294	4.4
412.5	4.22
412.706	3.86
412.913	3.83
413.119	3.93
413.326	3.83
413.532	3.71
413.738	3.74
413.945	4.05
414.151	3.73
414.357	3.58
414.564	3.42
414.77	3.21
414.976	3.15
415.182	3.23
415.389	2.84
415.595	2.82
415.801	2.64
416.007	2.66
416.214	2.37
416.42	2.57
416.626	2.48
416.832	2.74
417.038	2.83
417.244	3.02
417.45	2.9
417.657	3.06
417.863	3.2
418.069	3.24
418.275	3.06
418.481	3.08
418.687	3.09
418.893	3.34
419.099	3.21
419.305	3.13
419.511	3.23
419.717	3.11
419.923	3.05
420.129	3.01
420.335	2.89
420.541	2.98
420.746	3
420.952	3.09
421.158	3.04
421.364	3.07
421.57	3.12
421.776	2.9
421.982	2.95
422.187	3
422.393	3.03
422.599	3.21
422.805	3.12
423.01	3.13
423.216	2.93
423.422	2.92
423.628	2.88
423.833	2.84
424.039	2.94
424.245	3.02
424.45	2.92
424.656	2.91
424.862	2.96
425.067	3.11
425.273	3.03
425.478	3.31
425.684	3.37
425.889	3.47
426.095	3.55
426.301	3.59
426.506	3.58
426.712	3.64
426.917	3.65
427.123	3.38
427.328	3.27
427.533	3.38
427.739	3.1
427.944	3.27
428.15	2.94
428.355	3.05
428.561	3.17
428.766	3.02
428.971	2.84
429.177	2.83
429.382	2.93
429.587	2.89
429.793	2.73
429.998	2.65
430.203	2.3
430.408	2.5
430.614	2.18
430.819	2.09
431.024	1.94
431.229	2.48
431.434	2.54
431.64	2.8
431.845	2.73
432.05	3.06
432.255	3.12
432.46	3.21
432.665	3.22
432.87	3.33
433.076	3.15
433.281	3.35
433.486	3.07
433.691	3.06
433.896	2.94
434.101	3.05
434.306	3
434.511	2.9
434.716	2.86
434.921	2.9
435.126	2.84
435.331	2.89
435.535	2.75
435.74	2.78
435.945	2.45
436.15	2.46
436.355	2.46
436.56	2.2
436.765	2.42
436.97	2.6
437.174	2.53
437.379	2.47
437.584	2.34
437.789	2.57
437.993	2.47
438.198	2.74
438.403	2.62
438.608	2.54
438.812	2.71
439.017	2.59
439.222	2.25
439.426	2.44
439.631	2.4
439.836	2.33
440.04	2.25
440.245	2.3
440.45	2.32
440.654	2.5
440.859	2.57
441.063	2.51
441.268	2.39
441.472	2.49
441.677	2.46
441.881	2.64
442.086	2.98
442.29	2.9
442.495	2.91
442.699	2.78
442.904	2.48
443.108	2.46
443.312	2.44
443.517	2.55
443.721	2.63
443.925	2.56
444.13	2.52
444.334	2.36
444.538	2.46
444.743	2.56
444.947	2.63
445.151	2.75
445.356	2.73
445.56	2.75
445.764	2.75
445.968	2.71
446.173	2.86
446.377	2.92
446.581	2.98
446.785	2.92
446.989	2.87
447.193	2.91
447.398	2.93
447.602	2.87
447.806	2.99
448.01	3
448.214	3.18
448.418	3.03
448.622	3.03
448.826	3.06
449.03	3.08
449.234	3.16
449.438	3.21
449.642	3.19
449.846	3.34
450.05	3.29
450.254	3.47
450.458	3.3
450.662	3.29
450.866	3.03
451.069	2.87
451.273	2.97
451.477	3.03
451.681	2.94
451.885	2.95
452.089	2.93
452.292	3.05
452.496	2.87
452.7	2.98
452.904	2.89
453.107	3.23
453.311	3.26
453.515	3.28
453.719	3.18
453.922	3.11
454.126	2.96
454.33	3.06
454.533	2.78
454.737	2.74
454.94	2.74
455.144	2.72
455.348	2.73
455.551	2.88
455.755	2.79
455.958	2.85
456.162	2.81
456.365	3
456.569	2.88
456.772	3.01
456.976	3.23
457.179	2.96
457.383	3.2
457.586	3.05
457.79	3
457.993	3.11
458.196	3.07
458.4	3.23
458.603	3.19
458.807	3.26
459.01	3.12
459.213	2.99
459.417	3.04
459.62	2.96
459.823	2.87
460.026	2.79
460.23	2.74
460.433	2.65
460.636	2.5
460.839	2.55
461.042	2.35
461.246	2.38
461.449	2.4
461.652	2.39
461.855	2.38
462.058	2.38
462.261	2.4
462.464	2.45
462.668	2.48
462.871	2.72
463.074	2.57
463.277	2.65
463.48	2.82
463.683	2.79
463.886	2.82
464.089	2.89
464.292	2.82
464.495	2.75
464.698	2.6
464.901	2.7
465.104	2.47
465.306	2.6
465.509	2.69
465.712	2.63
465.915	2.6
466.118	2.36
466.321	2.26
466.524	2.41
466.726	2.57
466.929	2.71
467.132	2.55
467.335	2.64
467.538	2.57
467.74	2.54
467.943	2.46
468.146	2.65
468.348	2.83
468.551	2.73
468.754	2.54
468.956	2.37
469.159	2.15
469.362	2.34
469.564	2.36
469.767	2.3
469.969	2.34
470.172	2.32
470.375	2.2
470.577	2.17
470.78	2.26
470.982	2.6
471.185	2.58
471.387	2.9
471.59	2.62
471.792	2.67
471.995	2.73
472.197	2.73
472.399	2.8
472.602	2.88
472.804	2.95
473.007	2.94
473.209	2.74
473.411	2.87
473.614	2.73
473.816	2.87
474.018	2.91
474.22	2.94
474.423	2.88
474.625	2.86
474.827	2.69
475.03	2.54
475.232	2.39
475.434	2.38
475.636	2.49
475.838	2.39
476.04	2.37
476.243	2.19
476.445	2.18
476.647	2.25
476.849	2.34
477.051	2.51
477.253	2.73
477.455	2.81
477.657	3.01
477.859	2.88
478.061	3.01
478.263	2.96
478.465	3.09
478.667	2.93
478.869	2.94
479.071	2.85
479.273	2.6
479.475	2.6
479.677	2.58
479.879	2.33
480.081	2.48
480.283	2.39
480.485	2.4
480.686	2.18
480.888	2.3
481.09	2.21
481.292	2.16
481.494	2.22
481.695	2.2
481.897	2.28
482.099	2.52
482.301	2.4
482.502	2.36
482.704	2.44
482.906	2.55
483.107	2.58
483.309	2.65
483.511	2.67
483.712	2.71
483.914	2.68
484.115	2.66
484.317	2.63
484.519	2.62
484.72	2.64
484.922	2.64
485.123	2.65
485.325	2.66
485.526	2.64
485.728	2.68
485.929	2.68
486.131	2.76
486.332	2.83
486.534	2.73
486.735	2.7
486.936	2.74
487.138	2.72
487.339	2.65
487.541	2.56
487.742	2.51
487.943	2.42
488.144	2.34
488.346	2.27
488.547	2.23
488.748	2.26
488.95	2.31
489.151	2.3
489.352	2.23
489.553	2.34
489.755	2.42
489.956	2.43
490.157	2.48
490.358	2.56
490.559	2.67
490.76	2.52
490.961	2.56
491.163	2.46
491.364	2.42
491.565	2.49
491.766	2.44
491.967	2.35
492.168	2.41
492.369	2.44
492.57	2.43
492.771	2.37
492.972	2.5
493.173	2.46
493.374	2.57
493.575	2.58
493.776	2.6
493.976	2.61
494.177	2.76
494.378	2.65
494.579	2.64
494.78	2.62
494.981	2.68
495.182	2.57
495.382	2.65
495.583	2.62
495.784	2.54
495.985	2.41
496.185	2.47
496.386	2.54
496.587	2.64
496.788	2.6
496.988	2.66
497.189	2.58
497.39	2.5
497.59	2.38
497.791	2.41
497.992	2.63
498.192	2.84
498.393	2.76
498.593	2.66
498.794	2.54
498.994	2.4
499.195	2.3
499.395	2.38
499.596	2.38
499.796	2.38
499.997	2.42
500.197	2.18
500.398	2.2
500.598	2.39
500.799	2.47
500.999	2.63
501.199	2.82
501.4	2.81
501.6	2.8
501.801	2.98
502.001	3.17
502.201	2.95
502.402	3.16
502.602	3.11
502.802	3.11
503.002	3.1
503.203	3.12
503.403	3.31
503.603	3.38
503.803	3.4
504.003	3.41
504.204	3.35
504.404	3.36
504.604	3.33
504.804	3.22
505.004	3.08
505.204	3.06
505.404	2.92
505.604	2.66
505.804	2.64
506.005	2.47
506.205	2.42
506.405	2.51
506.605	2.55
506.805	2.62
507.005	2.77
507.204	2.61
507.404	2.6
507.604	2.76
507.804	2.88
508.004	2.84
508.204	2.99
508.404	3.02
508.604	2.91
508.804	3.14
509.003	2.99
509.203	2.84
509.403	2.93
509.603	3.09
509.803	3.04
510.002	3.01
510.202	3.11
510.402	3.23
510.602	3.25
510.801	3.18
511.001	3.07
511.201	3.06
511.4	3.18
511.6	3.18
511.8	3.07
511.999	3.17
512.199	3.18
512.398	3.1
512.598	2.93
512.797	2.8
512.997	2.87
513.197	2.93
513.396	2.95
513.596	2.95
513.795	2.9
513.994	2.87
514.194	2.75
514.393	2.83
514.593	2.89
514.792	2.86
514.992	3.11
515.191	3.1
515.39	3.1
515.59	3.24
515.789	3.14
515.988	3.11
516.188	3.18
516.387	3.29
516.586	3
516.786	2.89
516.985	3.09
517.184	2.86
517.383	2.86
517.582	2.76
517.782	2.7
517.981	2.74
518.18	2.84
518.379	2.8
518.578	2.75
518.777	2.93
518.976	2.94
519.176	2.7
519.375	2.75
519.574	2.8
519.773	2.75
519.972	2.69
520.171	2.71
520.37	2.71
520.569	2.65
520.768	2.75
520.967	2.69
521.166	2.75
521.365	3.01
521.564	3.15
521.762	3.1
521.961	3.29
522.16	3.43
522.359	3.45
522.558	3.59
522.757	3.58
522.956	3.35
523.154	3.26
523.353	3.3
523.552	3.14
523.751	2.96
523.949	2.96
524.148	2.9
524.347	2.88
524.546	2.94
524.744	2.77
524.943	2.78
525.142	2.81
525.34	2.89
525.539	2.99
525.737	3.02
525.936	3.05
526.135	3.09
526.333	3.14
526.532	3.1
526.73	3.08
526.929	3.12
527.127	3.09
527.326	3.11
527.524	3.15
527.723	3.03
527.921	3.06
528.12	3.11
528.318	3.13
528.516	3.1
528.715	3.11
528.913	3.09
529.112	3.14
529.31	3.18
529.508	3.19
529.707	3.19
529.905	3.21
530.103	3.24
530.301	3.23
530.5	3.25
530.698	3.27
530.896	3.33
531.094	3.3
531.293	3.26
531.491	3.24
531.689	3.26
531.887	3.26
532.085	3.4
532.283	3.37
532.481	3.39
532.68	3.35
532.878	3.31
533.076	3.27
533.274	3.37
533.472	3.38
533.67	3.44
533.868	3.55
534.066	3.6
534.264	3.56
534.462	3.62
534.66	3.64
534.858	3.7
535.056	3.76
535.253	3.79
535.451	3.76
535.649	3.83
535.847	3.88
536.045	3.72
536.243	3.7
536.441	3.76
536.638	3.71
536.836	3.73
537.034	3.61
537.232	3.67
537.43	3.71
537.627	3.74
537.825	3.75
538.023	3.73
538.22	3.8
538.418	3.79
538.616	3.87
538.813	3.91
539.011	3.87
539.209	4.04
539.406	3.96
539.604	3.84
539.801	3.84
539.999	3.77
540.196	3.87
540.394	4.02
540.591	4.01
540.789	3.92
540.986	4.01
541.184	4.02
541.381	4.01
541.579	4.05
541.776	4.17
541.974	4.22
542.171	4.25
542.368	4.19
542.566	4.13
542.763	4.17
542.96	4.23
543.158	4.26
543.355	4.28
543.552	4.27
543.75	4.38
543.947	4.41
544.144	4.33
544.341	4.41
544.539	4.48
544.736	4.44
544.933	4.5
545.13	4.52
545.327	4.36
545.524	4.48
545.722	4.65
545.919	4.49
546.116	4.51
546.313	4.73
546.51	4.76
546.707	4.79
546.904	4.86
547.101	4.89
547.298	4.88
547.495	5.02
547.692	5.15
547.889	5.22
548.086	5.49
548.283	5.32
548.48	5.35
548.677	5.35
548.874	5.4
549.07	5.54
549.267	5.58
549.464	5.69
549.661	5.62
549.858	5.46
550.055	5.3
550.251	5.17
550.448	5.35
550.645	5.21
550.842	5.39
551.038	5.51
551.235	5.4
551.432	5.41
551.628	5.46
551.825	5.7
552.022	5.84
552.218	5.95
552.415	5.96
552.612	6.1
552.808	6.26
553.005	6.26
553.201	6.14
553.398	6.39
553.594	6.51
553.791	6.44
553.987	6.33
554.184	6.27
554.38	6.27
554.577	6.24
554.773	6.21
554.97	6.07
555.166	5.98
555.362	6.03
555.559	6.03
555.755	6.04
555.952	6.18
556.148	6.3
556.344	6.5
556.541	6.47
556.737	6.79
556.933	6.81
557.129	7.12
557.326	7.11
557.522	7.28
557.718	7.04
557.914	7.11
558.11	7.08
558.307	7.06
558.503	6.92
558.699	6.96
558.895	6.68
559.091	6.66
559.287	6.71
559.483	6.88
559.679	6.65
559.876	6.95
560.072	6.9
560.268	7.09
560.464	7.19
560.66	7.17
560.856	7.31
561.052	7.8
561.247	7.88
561.443	7.87
561.639	7.89
561.835	8.08
562.031	7.97
562.227	8.08
562.423	8.03
562.619	8.18
562.815	8.34
563.01	8.27
563.206	8.09
563.402	8.19
563.598	8.18
563.793	8.1
563.989	8.18
564.185	8.32
564.381	8.17
564.576	8.19
564.772	8.01
564.968	8.04
565.163	8.21
565.359	8.04
565.555	8.05
565.75	8.16
565.946	8.4
566.141	8.49
566.337	8.46
566.532	8.82
566.728	9.06
566.923	9.26
567.119	9.29
567.314	9.36
567.51	9.54
567.705	9.66
567.901	9.71
568.096	9.73
568.292	9.72
568.487	9.8
568.682	9.41
568.878	9.28
569.073	9.21
569.268	9.33
569.464	9.48
569.659	9.56
569.854	9.4
570.05	9.3
570.245	9.36
570.44	9.51
570.635	9.56
570.831	9.77
571.026	9.9
571.221	9.89
571.416	10.03
571.611	9.94
571.806	9.83
572.002	9.97
572.197	10.18
572.392	10.28
572.587	10.32
572.782	10.54
572.977	10.53
573.172	10.3
573.367	10.58
573.562	10.56
573.757	10.49
573.952	10.61
574.147	10.5
574.342	10.47
574.537	10.43
574.732	10.37
574.927	9.99
575.121	10.09
575.316	10.34
575.511	10.1
575.706	10.01
575.901	10.17
576.096	10.31
576.29	10.43
576.485	10.31
576.68	10.28
576.875	10.34
577.069	10.52
577.264	10.66
577.459	10.55
577.654	10.57
577.848	10.58
578.043	10.54
578.238	10.6
578.432	10.83
578.627	11.09
578.821	11.18
579.016	11.08
579.21	11.2
579.405	11.29
579.6	11.35
579.794	11.52
579.989	11.58
580.183	11.41
580.378	11.53
580.572	11.36
580.766	11.4
580.961	11.5
581.155	11.61
581.35	11.54
581.544	11.29
581.738	11.46
581.933	11.35
582.127	11.5
582.321	11.81
582.516	11.8
582.71	11.76
582.904	11.55
583.099	11.37
583.293	11.75
583.487	11.73
583.681	11.64
583.875	11.73
584.07	11.83
584.264	11.58
584.458	11.28
584.652	11.38
584.846	11.32
585.04	11.35
585.234	11.18
585.428	10.86
585.623	11
585.817	11.21
586.011	11.28
586.205	11.09
586.399	11.28
586.593	11.55
586.787	11.45
586.981	11.59
587.174	11.46
587.368	11.58
587.562	11.78
587.756	11.72
587.95	11.7
588.144	11.39
588.338	11.7
588.532	11.59
588.725	11.63
588.919	11.27
589.113	11.26
589.307	11.53
589.501	11.42
589.694	11.36
589.888	11.22
590.082	11.34
590.275	11.39
590.469	11.57
590.663	11.54
590.856	11.57
591.05	11.76
591.244	11.86
591.437	11.66
591.631	11.78
591.824	11.66
592.018	11.9
592.212	12.09
592.405	12.2
592.599	12.14
592.792	12.42
592.986	12.18
593.179	12.25
593.372	12.37
593.566	12.35
593.759	12.51
593.953	12.5
594.146	12.45
594.339	12.17
594.533	12.05
594.726	11.74
594.92	11.81
595.113	11.89
595.306	11.78
595.499	11.85
595.693	12.08
595.886	12.04
596.079	12.09
596.272	12.26
596.466	12.41
596.659	12.54
596.852	12.62
597.045	12.36
597.238	12.55
597.431	12.68
597.624	12.57
597.818	12.54
598.011	12.24
598.204	12.17
598.397	12.04
598.59	11.84
598.783	11.74
598.976	11.73
599.169	11.67
599.362	11.75
599.555	11.56
599.748	11.44
599.941	11.38
600.134	11.7
600.326	11.57
600.519	11.63
600.712	11.56
600.905	11.72
601.098	11.78
601.291	11.86
601.483	11.6
601.676	11.61
601.869	11.74
602.062	11.64
602.255	11.83
602.447	11.9
602.64	11.81
602.833	11.85
603.025	11.75
603.218	11.7
603.411	11.64
603.603	11.74
603.796	11.74
603.989	11.66
604.181	11.63
604.374	11.46
604.566	11.66
604.759	11.83
604.951	11.93
605.144	11.85
605.336	12.02
605.529	12.3
605.721	12.29
605.914	12.41
606.106	12.42
606.299	12.62
606.491	12.66
606.683	12.6
606.876	12.32
607.068	12.13
607.26	12.53
607.453	12.44
607.645	12.18
607.837	12.09
608.03	12.17
608.222	11.96
608.414	12.03
608.606	12.2
608.799	12.01
608.991	11.99
609.183	12.19
609.375	11.9
609.567	11.75
609.759	11.72
609.952	11.8
610.144	11.6
610.336	11.54
610.528	11.23
610.72	11.08
610.912	10.97
611.104	10.87
611.296	10.6
611.488	10.51
611.68	10.5
611.872	10.43
612.064	10.27
612.256	10.38
612.448	10.6
612.64	10.71
612.832	10.39
613.023	10.7
613.215	10.87
613.407	11.06
613.599	11.21
613.791	11.49
613.983	11.7
614.174	11.59
614.366	11.45
614.558	11.92
614.75	12.01
614.941	12.42
615.133	12.25
615.325	12.47
615.516	12.26
615.708	12.34
615.9	12.01
616.091	11.73
616.283	11.81
616.475	12.21
616.666	11.88
616.858	12.1
617.049	12.52
617.241	13.05
617.432	12.58
617.624	12.91
617.815	13.01
618.007	12.95
618.198	13.49
618.39	13.83
618.581	13.7
618.773	13.51
618.964	12.9
619.155	12.2
619.347	11.77
619.538	12.28
619.729	12.33
619.921	12.26
620.112	12.45
620.303	12.17
620.494	12.01
620.686	11.93
620.877	12.06
621.068	12.43
621.259	12.63
621.451	12.54
621.642	12.36
621.833	12.53
622.024	12.59
622.215	12.54
622.406	12.39
622.597	12.34
622.788	12.45
622.98	12.5
623.171	12.54
623.362	12.63
623.553	12.99
623.744	12.84
623.935	12.56
624.126	12.35
624.317	12.27
624.508	12.4
624.698	12.37
624.889	12.33
625.08	12.5
625.271	12.52
625.462	12.69
625.653	12.37
625.844	12.52
626.034	12.45
626.225	12.49
626.416	12.62
626.607	12.63
626.798	12.59
626.988	12.29
627.179	12.08
627.37	12.2
627.56	12.11
627.751	12.16
627.942	12.15
628.132	12.39
628.323	12.42
628.514	12.12
628.704	12.17
628.895	12.27
629.085	12.41
629.276	12.41
629.466	12.34
629.657	12.15
629.847	12.26
630.038	12.19
630.228	12.15
630.419	12.08
630.609	12.41
630.8	12.31
630.99	12.34
631.181	12.35
631.371	12.62
631.561	12.45
631.752	12.57
631.942	12.53
632.132	12.31
632.323	12.2
632.513	12.22
632.703	12.38
632.893	12.17
633.084	12.3
633.274	12.47
633.464	12.27
633.654	12.5
633.844	12.58
634.034	12.81
634.225	13.06
634.415	13.2
634.605	13.28
634.795	13.37
634.985	13.9
635.175	13.63
635.365	13.49
635.555	13.44
635.745	13.25
635.935	13.26
636.125	13.02
636.315	12.95
636.505	12.71
636.695	12.53
636.885	11.9
637.075	11.73
637.265	12.17
637.455	12.11
637.644	12.54
637.834	12.72
638.024	12.68
638.214	12.44
638.404	12.79
638.593	13.1
638.783	13.04
638.973	13.4
639.163	13.56
639.352	13.2
639.542	13.02
639.732	12.52
639.921	12.85
640.111	12.78
640.301	12.67
640.49	12.74
640.68	12.72
640.87	12.73
641.059	12.7
641.249	11.8
641.438	11.51
641.628	11.87
641.817	11.86
642.007	11.64
642.196	11.94
642.386	12.27
642.575	11.98
642.764	11.63
642.954	11.79
643.143	11.68
643.333	12.13
643.522	12.24
643.711	12.62
643.901	12.99
644.09	12.94
644.279	12.69
644.469	12.97
644.658	12.77
644.847	12.73
645.036	13.13
645.226	13.59
645.415	13.57
645.604	13.82
645.793	13.3
645.982	13
646.171	13.15
646.361	13.31
646.55	13.37
646.739	13.61
646.928	13.91
647.117	13.63
647.306	13.61
647.495	14.1
647.684	14.21
647.873	14.76
648.062	14.78
648.251	14.77
648.44	14.2
648.629	13.99
648.818	13.86
649.007	13.64
649.196	13.84
649.384	13.46
649.573	12.89
649.762	12.89
649.951	12.76
650.14	12.87
650.328	12.8
650.517	12.79
650.706	12.44
650.895	12.62
651.083	12.7
651.272	12.38
651.461	12.37
651.65	12.59
651.838	12.4
652.027	11.94
652.216	11.87
652.404	11.71
652.593	12.31
652.781	12.65
652.97	12.69
653.158	12.91
653.347	13.09
653.535	13.37
653.724	13.57
653.912	13.68
654.101	14.19
654.289	14.21
654.478	14.12
654.666	13.84
654.855	13.77
655.043	13.64
655.231	13.6
655.42	13.27
655.608	13.27
655.796	13.06
655.985	13.15
656.173	13.05
656.361	12.83
656.55	13.23
656.738	13.3
656.926	13.52
657.114	13.44
657.302	13.36
657.491	13.15
657.679	13.12
657.867	13.11
658.055	13.22
658.243	13.09
658.431	13.2
658.619	12.89
658.807	13.05
658.996	12.69
659.184	12.63
659.372	12.8
659.56	13.21
659.748	13.07
659.936	13.27
660.124	13.06
660.311	13.21
660.499	13.28
660.687	13.46
660.875	13.33
661.063	13.17
661.251	13.15
661.439	12.7
661.627	12.76
661.814	12.56
662.002	12.68
662.19	13.01
662.378	12.54
662.565	12.75
662.753	12.84
662.941	13.19
663.129	13.65
663.316	13.96
663.504	14.25
663.692	14.18
663.879	14.68
664.067	14.65
664.254	14.29
664.442	14.58
664.63	14.56
664.817	14.29
665.005	14.09
665.192	13.87
665.38	13.94
665.567	13.92
665.755	13.69
665.942	13.45
666.13	12.56
666.317	13.05
666.504	12.53
666.692	12.18
666.879	12.12
667.067	11.79
667.254	11.76
667.441	11.61
667.629	11.54
667.816	11.77
668.003	12.08
668.19	12.63
668.378	12.08
668.565	12.66
668.752	12.84
668.939	12.72
669.127	12.88
669.314	13.13
669.501	13.07
669.688	13.07
669.875	12.9
670.062	12.83
670.249	12.38
670.436	12.61
670.623	12.38
670.81	12.44
670.997	12.88
671.184	12.62
671.371	12.56
671.558	12.58
671.745	12.29
671.932	12.47
672.119	12.48
672.306	13.01
672.493	12.63
672.68	13.15
672.867	13.13
673.054	12.63
673.24	12.95
673.427	13.2
673.614	13.26
673.801	13.83
673.988	13.59
674.174	13.52
674.361	13.11
674.548	13.4
674.734	13.11
674.921	12.76
675.108	13.1
675.294	12.98
675.481	12.57
675.668	12.64
675.854	12.13
676.041	12.46
676.227	12.57
676.414	13.02
676.601	12.88
676.787	12.73
676.974	12.74
677.16	12.29
677.347	12.61
677.533	13
677.719	13.02
677.906	13.31
678.092	13.32
678.279	12.99
678.465	12.44
678.651	12.53
678.838	12.49
679.024	12.93
679.21	13.4
679.397	13.32
679.583	13.63
679.769	13.4
679.955	13.67
680.142	13.64
680.328	13.54
680.514	13.58
680.7	13.92
680.886	14.07
681.073	14.04
681.259	13.68
681.445	13.86
681.631	13.37
681.817	13.46
682.003	13.48
682.189	13.4
682.375	13.71
682.561	14.17
682.747	13.75
682.933	13.63
683.119	13.89
683.305	14.19
683.491	13.97
683.677	13.82
683.863	14.02
684.049	13.88
684.235	13.83
684.42	13.82
684.606	13.89
684.792	13.92
684.978	13.98
685.164	13.51
685.349	13.29
685.535	13.17
685.721	13.23
685.907	13.18
686.092	13.05
686.278	13.18
686.464	13.25
686.649	13.11
686.835	13.55
687.021	13.67
687.206	13.23
687.392	13.22
687.577	12.74
687.763	12.79
687.948	13.03
688.134	13.15
688.319	13.14
688.505	13.32
688.69	13.22
688.876	13.01
689.061	12.62
689.247	13.24
689.432	13.24
689.618	14.22
689.803	14.11
689.988	13.97
690.174	13.4
690.359	13.34
690.544	12.9
690.73	13.19
690.915	12.79
691.1	13.45
691.285	13.1
691.471	13.48
691.656	12.57
691.841	12.59
692.026	12.35
692.211	12.2
692.396	12
692.582	12.43
692.767	12.21
692.952	12.47
693.137	12.09
693.322	12.66
693.507	12.8
693.692	13.8
693.877	14.03
694.062	13.87
694.247	14.2
694.432	14.93
694.617	14.61
694.802	14.95
694.987	14.91
695.172	15.14
695.357	14.74
695.541	14.34
695.726	13.75
695.911	13.71
696.096	13.84
696.281	14.19
696.466	13.9
696.65	13.6
696.835	13.45
697.02	13.93
697.204	14.05
697.389	14.2
697.574	13.98
697.759	14.11
697.943	14.33
698.128	14.37
698.312	14.08
698.497	13.81
698.682	14.15
698.866	14.31
699.051	14.26
699.235	14.26
699.42	14.19
699.604	14.49
699.789	14.13
699.973	13.99
700.158	14.15
700.342	14.31
700.527	14.65
700.711	14.24
700.895	14.29
701.08	13.95
701.264	13.71
701.448	13.58
701.633	13.13
701.817	13.89
702.001	14.03
702.186	13.3
702.37	13.77
702.554	13.68
702.738	14.36
702.923	14.62
703.107	14.59
703.291	14.09
703.475	14.24
703.659	14.61
703.843	14.37
704.027	14.51
704.212	15.04
704.396	14.75
704.58	14.89
704.764	14.1
704.948	13.39
705.132	14.01
705.316	15.01
705.5	14.85
705.684	14.35
705.868	14.78
706.052	14.14
706.235	14.66
706.419	14.04
706.603	14.03
706.787	15.06
706.971	14.85
707.155	14.53
707.339	13.71
707.522	13.63
707.706	14.01
707.89	13.63
708.074	13.58
708.257	13.04
708.441	13.45
708.625	13.16
708.808	12.52
708.992	12.65
709.176	13.27
709.359	13.59
709.543	14.11
709.727	14.53
709.91	13.83
710.094	13.46
710.277	13.38
710.461	13.82
710.644	13.06
710.828	12.73
711.011	12.49
711.195	11.46
711.378	11.67
711.562	11.64
711.745	11.19
711.928	12.02
712.112	12.67
712.295	12.92
712.478	12.17
712.662	13.98
712.845	14.1
713.028	14.52
713.212	15.13
713.395	15.46
713.578	15.5
713.761	15.68
713.945	16.04
714.128	16.17
714.311	16.43
714.494	16.82
714.677	15.89
714.86	16.27
715.043	16.32
715.227	16.5
715.41	16.15
715.593	16.6
715.776	16.68
715.959	16.33
716.142	16.15
716.325	16.05
716.508	15.49
716.691	14.94
716.874	14.88
717.057	14.7
717.239	14.37
717.422	14.64
717.605	14.52
717.788	14.35
717.971	14.47
718.154	15.09
718.337	14.16
718.519	14.2
718.702	15.28
718.885	15.68
719.068	16.09
719.25	16.37
719.433	15.79
719.616	14.64
719.798	14.95
719.981	14.36
720.164	14.33
720.346	14.63
720.529	14.79
720.712	13.99
720.894	13.62
721.077	13.16
721.259	12.72
721.442	12.42
721.624	13.12
721.807	13.02
721.989	13.89
722.172	13.42
722.354	14.21
722.537	15.56
722.719	15.44
722.901	17.24
723.084	17.99
723.266	18.85
723.448	18.71
723.631	18.7
723.813	18.83
723.995	19.03
724.178	18.82
724.36	19.08
724.542	18.82
724.724	19.55
724.907	17.85
725.089	17.03
725.271	15.83
725.453	16.15
725.635	15.94
725.817	15.72
725.999	14.17
726.181	14.1
726.364	13.45
726.546	13.78
726.728	14.39
726.91	14.36
727.092	14.16
727.274	14.62
727.456	14.88
727.638	15.75
727.819	15.7
728.001	16.75
728.183	16.76
728.365	17.33
728.547	16.49
728.729	15.16
728.911	15.27
729.093	15.34
729.274	14.76
729.456	15.11
729.638	13.93
729.82	13.48
730.001	13.42
730.183	13.71
730.365	12.72
730.546	13.11
730.728	13.91
730.91	13.69
731.091	13.69
731.273	13.67
731.455	13.88
731.636	14.1
731.818	14.74
731.999	14.86
732.181	13.89
732.362	14.52
732.544	14.79
732.725	14.56
732.907	14.28
733.088	14.5
733.27	14.52
733.451	13.65
733.633	13.92
733.814	13.24
733.995	12.22
734.177	13.71
734.358	14.11
734.539	13.58
734.721	13.77
734.902	13.57
735.083	13.97
735.264	13.32
735.446	12.45
735.627	11.39
735.808	11.95
735.989	12.5
736.17	11.8
736.351	11.07
736.533	11.76
736.714	11.31
736.895	12.11
737.076	11.61
737.257	13.56
737.438	15.28
737.619	17.61
737.8	18.17
737.981	17.64
738.162	17.4
738.343	18.03
738.524	17.82
738.705	17.85
738.886	17.34
739.067	17.39
739.247	16.89
739.428	16.91
739.609	15.5
739.79	15.74
739.971	16.86
740.151	16.6
740.332	15.08
740.513	14.88
740.694	15.03
740.874	15.21
741.055	14.14
741.236	13.35
741.417	13.53
741.597	13.16
741.778	12.6
741.958	12.29
742.139	11.91
742.32	12.4
742.5	12.17
742.681	11.95
742.861	11.99
743.042	12.02
743.222	12.94
743.403	12.14
743.583	12.39
743.764	12.32
743.944	11.42
744.124	11.26
744.305	11.8
744.485	11.88
744.666	11.08
744.846	11.05
745.026	12.8
745.207	12.55
745.387	12.71
745.567	13.34
745.747	13.2
745.928	13.58
746.108	14.39
746.288	14.4
746.468	14.75
746.648	15.71
746.829	16.62
747.009	16.53
747.189	16.25
747.369	16.14
747.549	16.13
747.729	15.77
747.909	15.72
748.089	15.46
748.269	16.14
748.449	15.94
748.629	16.02
748.809	15.7
748.989	15.39
749.169	15.45
749.349	15.97
749.529	15.11
749.709	14.9
749.889	15.62
750.068	16.29
750.248	14.84
750.428	14.52
750.608	14.25
750.788	14.65
750.967	14.77
751.147	14.89
751.327	15.29
751.507	15.36
751.686	15.86
751.866	15.11
752.046	14.78
752.225	15.89
752.405	16.01
752.585	16.19
752.764	14.6
752.944	14.46
753.123	13.67
753.303	13.45
753.482	14.52
753.662	14.85
753.841	14.9
754.021	15.24
754.2	14.29
754.38	13.45
754.559	14.7
754.739	15.89
754.918	16.51
755.097	18.06
755.277	18
755.456	17.63
755.635	16.35
755.815	15.52
755.994	16.44
756.173	16.49
756.352	17.12
756.532	15.33
756.711	14.68
756.89	13.39
757.069	11.93
757.248	10.97
757.427	10.58
757.607	12.21
757.786	13.32
757.965	12.6
758.144	13.41
758.323	12.76
758.502	12.91
758.681	13.3
758.86	14.08
759.039	15.77
759.218	16.13
759.397	15.98
759.576	14.36
759.755	14.71
759.934	14.7
760.113	14.7
760.291	14.68
760.47	16.42
760.649	15.6
760.828	15.89
761.007	14.73
761.186	15.92
761.364	15.3
761.543	16.39
761.722	16.49
761.901	16.27
762.079	15.05
762.258	14.92
762.437	13.4
762.615	14.42
762.794	13.26
762.972	14.04
763.151	13.11
763.33	14.06
763.508	13.76
763.687	13.4
763.865	12.55
764.044	13.14
764.222	13.85
764.401	14.61
764.579	13.99
764.758	14.89
764.936	14.53
765.114	15.31
765.293	15.58
765.471	16.47
765.65	16.88
765.828	17.8
766.006	17.77
766.184	17.95
766.363	18.32
766.541	18.38
766.719	18.19
766.898	18.58
767.076	17.76
767.254	17.53
767.432	16.27
767.61	14.57
767.788	14.09
767.967	15.21
768.145	15.25
768.323	14.15
768.501	14.35
768.679	13.43
768.857	13.25
769.035	14.08
769.213	13.23
769.391	14.47
769.569	14.05
769.747	14.58
769.925	13.84
770.103	13.48
770.281	15.35
770.459	15.36
770.636	16.49
770.814	16.22
770.992	14.59
771.17	14.87
771.348	15.04
771.525	17.04
771.703	16.35
771.881	16.45
772.059	16.43
772.236	14.61
772.414	14.83
772.592	16.78
772.769	17.73
772.947	20.31
773.125	21.37
773.302	19.81
773.48	21.7
773.657	24.58
773.835	25.89
774.013	27.03
774.19	27.67
774.368	29.1
774.545	27.25
774.723	24.86
774.9	23.08
775.077	22.93
775.255	23.86
775.432	23.15
775.61	21.27
775.787	20.03
775.964	19.45
776.142	18.64
776.319	16.83
776.496	16.07
776.674	15.69
776.851	16.39
777.028	18.18
777.205	17.11
777.382	15.95
777.56	15.05
777.737	16.09
777.914	13.47
778.091	15.03
778.268	15.32
778.445	16.26
778.622	18.83
778.8	19.04
778.977	17.32
779.154	17.14
779.331	16.36
779.508	17.12
779.685	14.28
779.862	18.13
780.038	17.21
780.215	16.86
780.392	17.36
780.569	16.05
780.746	15.83
780.923	16.89
781.1	17.71
781.277	19.17
781.453	20.79
781.63	22.92
781.807	20.87
781.984	21.47
782.16	22.55
782.337	24.39
782.514	26.3
782.691	25.83
782.867	25.24
783.044	23.83
783.221	22.97
783.397	23.92
783.574	24.44
783.75	23.5
783.927	21.34
784.103	19.56
784.28	18.36
784.456	18.64
784.633	20.23
784.809	19.06
784.986	19.62
785.162	20.36
785.339	19.08
785.515	17.02
785.692	19.17
785.868	21.76
786.044	22.48
786.221	20.17
786.397	17.93
786.573	15.55
786.749	17.97
786.926	19.76
787.102	17.86
787.278	15.78
787.454	15.81
787.631	15.65
787.807	12.87
787.983	12.72
788.159	13.14
788.335	12.05
788.511	12.21
788.687	10.84
788.863	9.88
789.039	11.19
789.216	13.07
789.392	14.08
789.568	14.16
789.744	17.81
789.919	19.51
790.095	20.28
790.271	20.88
790.447	22.34
790.623	21.63
790.799	21.85
790.975	23.84
791.151	21.91
791.327	21.46
791.502	20.88
791.678	18.24
791.854	17.14
792.03	19.59
792.205	21.65
792.381	21.44
792.557	23.04
792.733	24.15
792.908	20.05
793.084	19.41
793.259	21.58
793.435	19.48
793.611	20.55
793.786	19.5
793.962	16.89
794.137	15.12
794.313	14.69
794.488	9.59
794.664	9.39
794.839	9.26
795.015	10.77
795.19	9.68
795.366	12.29
795.541	12.34
795.716	12.07
795.892	12.56
796.067	12.93
796.242	11.05
796.418	14.38
796.593	13.96
796.768	14.9
796.944	17.63
797.119	17.46
797.294	16.24
797.469	16.13
797.644	17.7
797.82	16.72
797.995	18.89
798.17	21.28
798.345	21.42
798.52	20.73
798.695	21.09
798.87	19.06
799.045	18.91
799.22	18.69
799.395	17.99
799.57	17.77
799.745	18.33
799.92	17.06
800.095	15.71
800.27	16.62
800.445	17.55
800.62	17.25
800.795	15.74
800.97	17.08
801.145	19.21
801.319	20.47
801.494	17.76
801.669	19.56
801.844	18.97
802.018	17.53
802.193	15.48
802.368	13.49
802.543	14.7
802.717	17.94
802.892	15.07
803.067	13.2
803.241	13.75
803.416	14.59
803.59	13.21
803.765	10.57
803.94	16.85
804.114	22.84
804.289	25.22
804.463	25.47
804.638	20.93
804.812	23.08
804.986	24.34
805.161	23.71
805.335	26.5
805.51	28.17
805.684	30.04
805.858	28.27
806.033	26.05
806.207	24.62
806.381	22.51
806.556	23.22
806.73	21.27
806.904	21.32
807.078	19.49
807.253	20.03
807.427	17.53
807.601	16.56
807.775	16.28
807.949	14.65
808.123	15.55
808.298	18.47
808.472	16.44
808.646	16.53
808.82	18.94
808.994	20.95
809.168	16.94
809.342	14.88
809.516	13.83
809.69	16.05
809.864	14.64
810.038	10.92
810.212	6.89
810.385	10.64
810.559	13.74
810.733	12.06
810.907	12.53
811.081	11.05
811.255	12.22
811.428	17.84
811.602	13.72
811.776	17.87
811.95	22.2
812.123	24.25
812.297	25.57
812.471	25.29
812.644	28.1
812.818	27.4
812.992	27.3
813.165	29.79
813.339	28.95
813.512	27.81
813.686	27.02
813.86	19.41
814.033	19.96
814.207	14.01
814.38	12.49
814.554	9.02
814.727	10.51
814.9	10.15
815.074	13.96
815.247	9.51
815.421	15.22
815.594	15.51
815.767	20.46
815.941	21.26
816.114	23.36
816.287	26.04
816.46	27.59
816.634	24.56
816.807	30.18
816.98	27.75
817.153	28.57
817.327	29.46
817.5	27.64
817.673	25.98
817.846	25.77
818.019	28.67
818.192	27.28
818.365	23.5
818.538	28.47
818.711	25.26
818.884	20.74
819.057	22.65
819.23	22.02
819.403	22.57
819.576	24.96
819.749	23.8
819.922	24.58
820.095	23.58
820.268	23.87
820.441	19.13
820.614	19.9
820.786	20.83
820.959	20.83
821.132	18.86
821.305	18.19
821.477	18.1
821.65	17.82
821.823	16.52
821.996	17.18
822.168	17.46
822.341	17.97
822.514	18.19
822.686	19.13
822.859	18.8
823.031	19.19
823.204	19.44
823.376	19.77
823.549	20.59
823.722	20.98
823.894	21.32
824.067	21.21
824.239	22.19
824.411	22.01
824.584	21.7
824.756	21.41
824.929	20.99
825.101	22.07
825.273	21
825.446	19.86
825.618	20.25
825.79	19.52
825.963	19.32
826.135	18.21
826.307	18.6
826.479	18.25
826.652	19.05
826.824	20.11
826.996	18.97
827.168	18.93
827.34	18.75
827.512	17.57
827.684	17.13
827.856	18.2
828.029	19.46
828.201	18.19
828.373	17.51
828.545	16.78
828.717	16.06
828.889	16.3
829.061	17.6
829.232	18.45
829.404	18.12
829.576	19.7
829.748	17.72
829.92	15.47
830.092	16.86
830.264	17.35
830.436	17.92
830.607	18.18
830.779	17.15
830.951	15.49
831.123	12.66
831.294	13.52
831.466	13.2
831.638	16.23
831.809	17.66
831.981	17.01
832.153	19.03
832.324	18.6
832.496	14.63
832.667	11.15
832.839	14.33
833.011	16.56
833.182	19.03
833.354	16.01
833.525	16.97
833.697	14.99
833.868	13.83
834.039	16.24
834.211	15.95
834.382	21.11
834.554	24.84
834.725	23.68
834.896	26.4
835.068	25
835.239	24.01
835.41	21.99
835.581	23.16
835.753	23.79
835.924	22.1
836.095	23.12
836.266	22.42
836.438	19.18
836.609	17.01
836.78	15.49
836.951	15.85
837.122	19.94
837.293	22.43
837.464	22.2
837.635	25.18
837.806	19.74
837.977	22.67
838.148	20.63
838.319	23.12
838.49	26.09
838.661	22.7
838.832	25.9
839.003	22.54
839.174	15.72
839.345	24
839.516	19.17
839.687	27.58
839.857	24.32
840.028	27.83
840.199	22.38
840.37	24.44
840.54	25.82
840.711	23.15
840.882	25.37
841.053	28.18
841.223	16.96
841.394	21.32
841.564	14.81
841.735	15.89
841.906	11.48
842.076	22.24
842.247	23.23
842.417	21.9
842.588	23.56
842.758	27.77
842.929	33.43
843.099	32.81
843.27	32.58
843.44	36.72
843.611	33.27
843.781	30.8
843.951	21.39
844.122	17.06
844.292	22.72
844.462	18.67
844.633	16.16
844.803	6.17
844.973	13.09
845.144	1.64
845.314	3.82
845.484	19.16
845.654	26.24
845.824	27.05
845.995	25.99
846.165	19.35
846.335	15.86
846.505	10.66
846.675	10.95
846.845	2.94
847.015	15.7
847.185	10.75
847.355	-1.76
847.525	-0.02
847.695	-11.06
847.865	2.14
848.035	17.72
848.205	36.84
848.375	40.55
848.545	43.59
848.715	45.99
848.884	30.07
849.054	35.81
849.224	44.06
849.394	42.15
849.564	52.49
849.733	48.98
849.903	49.68
850.073	46.37
850.243	47.01
850.412	49.23
850.582	61.5
850.752	55.99
850.921	54.22
851.091	58.27
851.26	48.7
851.43	46.11
851.599	40.36
851.769	19.05
851.939	4.39
852.108	2.49
852.278	1.62
852.447	-13.8
852.616	-1.25
852.786	1.31
852.955	4.33
853.125	-1.02
853.294	-4.56
853.463	5.98
853.633	24.48
853.802	25.42
853.971	29.42
854.141	29.31
854.31	38.69
854.479	38.39
854.648	33
854.818	35.68
854.987	40.87
855.156	46.34
855.325	45.6
855.494	35.54
855.663	45.07
855.832	52.09
856.001	54.47
856.171	56.29
856.34	64.57
856.509	76.36
856.678	56.74
856.847	55.39
857.016	43.49
857.185	40.54
857.353	44.95
857.522	46.28
857.691	27.56
857.86	15.23
858.029	-12.58
858.198	-10.57
858.367	-15.7
858.535	0.74
858.704	9.25
858.873	21.23
859.042	30.84
859.21	31.12
859.379	24.28
859.548	27.95
859.717	27.74
859.885	36.31
860.054	46.32
860.222	29.12
860.391	30.18
860.56	14.87
860.728	10.8
860.897	8.81
861.065	11.32
861.234	21.42
861.402	23.75
861.571	27.81
861.739	30.65
861.908	23.59
862.076	29.98
862.244	38.6
862.413	59.27
862.581	74.19
862.749	74.56
862.918	68.25
863.086	60.54
863.254	43.42
863.423	42.47
863.591	37.89
863.759	27.45
863.927	29.41
864.096	35.71
864.264	36.5
864.432	21.34
864.6	7.92
864.768	15.8
864.936	-1.55
865.104	17.39
865.272	12.87
865.44	4.51
865.608	21.57
865.776	32.31
865.944	5.18
866.112	0.64
866.28	5.52
866.448	8.8
866.616	10.17
866.784	15.82
866.952	16.25
867.12	23.89
867.288	40.95
867.455	23.97
867.623	8.23
867.791	23.01
867.959	23.46
868.127	28.84
868.294	34.18
868.462	21.02
868.63	34.1
868.797	28.73
868.965	31.03
869.133	26.98
869.3	37.75
869.468	41.08
869.636	47.58
869.803	45.25
869.971	42.54
870.138	41.95
870.306	65.63
870.473	53.13
870.641	65.26
870.808	63.81
870.975	54.63
871.143	46.48
871.31	44.57
871.478	24.99
871.645	34.3
871.812	26.39
871.98	21.02
872.147	-16.04
872.314	24.17
872.482	-3.54
872.649	-46.36
872.816	-49.42
872.983	-17.5
873.15	-16.06
873.318	-5.41
873.485	-24.95
873.652	20.13
873.819	36.03
873.986	44.37
874.153	12
874.32	33.23
874.487	50.66
874.654	43.48
874.821	56.99
874.988	78.83
875.155	70.74
875.322	42.69
875.489	1.15
875.656	-61.73
875.823	-30.12
875.99	-22.49
876.157	-43.34
876.324	-35.19
876.49	6.71
876.657	8.93
876.824	-2.41
876.991	10.81
877.157	33.23
877.324	41.62
877.491	41.25
877.658	36.11
877.824	37.64
877.991	42.66
878.157	47.5
878.324	26.83
878.491	25.66
878.657	22.91
878.824	17.97
878.99	-34.82
879.157	20.16
879.323	23.51
879.49	36.02
879.656	35.3
879.823	24.13
879.989	5.32
880.156	7.86
880.322	-6.49
880.488	-9.64
880.655	-10.2
880.821	1.57
880.987	-10
881.154	3.24
881.32	14.34
881.486	8.07
881.652	12.66
881.819	20.63
881.985	19.77
882.151	20.92
882.317	24.85
882.483	26.59
882.649	23.29
882.816	23.74
882.982	26.54
883.148	25.89
883.314	25.6
883.48	26.32
883.646	26.22
883.812	27.9
883.978	25.54
884.144	27.29
884.31	29.67
884.476	30.29
884.642	27.32
884.807	25.26
884.973	22.7
885.139	23.95
885.305	24.87
885.471	22.84
885.637	20.01
885.802	23.33
885.968	20.19
886.134	17.5
886.3	21.35
886.465	22.36
886.631	20.41
886.797	25.84
886.962	26.54
887.128	25.96
887.293	24.31
887.459	26.68
887.625	28.22
887.79	24.49
887.956	25.26
888.121	20.5
888.287	27.06
888.452	28.62
888.618	12.7
888.783	9.64
