Data from 2938118_Reflection_1.txt Node
Date: Sat Jul 11 18:00:48 EDT 2015
User: robert
Spectrometer: USB4E03001
Autoset integration time: false
Trigger mode: 4
Integration Time (sec): 1.000000E-1
Scans to average: 10
Electric dark correction enabled: true
Nonlinearity correction enabled: false
Boxcar width: 5
Stray light correction enabled: false
XAxis mode: Wavelengths
Stop averaging: false
Number of Pixels in Spectrum: 3648
>>>>>Begin Spectral Data<<<<<
177.566	831.94
177.785	-133.2
178.005	71.83
178.225	50.69
178.445	23.65
178.665	158.86
178.885	132
179.105	98.78
179.324	84.86
179.544	84.24
179.764	101.49
179.984	82.21
180.204	60.52
180.423	-36.24
180.643	-305.37
180.863	562.11
181.083	-220.59
181.302	-44.24
181.522	30.86
181.742	6.53
181.961	46.15
182.181	19.37
182.401	29.05
182.621	142.1
182.84	284.62
183.06	142.97
183.279	139.25
183.499	129.49
183.719	73
183.938	73.82
184.158	98.56
184.377	92.4
184.597	112.65
184.816	109.62
185.036	106.03
185.256	113.54
185.475	132.53
185.695	136.57
185.914	153.23
186.134	162.89
186.353	173.94
186.572	136.91
186.792	154.23
187.011	198.79
187.231	213.21
187.45	169.99
187.67	151.02
187.889	152.12
188.108	162
188.328	152.65
188.547	171.54
188.766	178.69
188.986	220.05
189.205	240.45
189.424	239.64
189.644	256.4
189.863	371.69
190.082	1821.39
190.302	507.41
190.521	512.54
190.74	472.08
190.959	-2747.67
191.178	-1129.66
191.398	871.37
191.617	304.35
191.836	294.56
192.055	338.48
192.274	199.36
192.494	123.82
192.713	298.76
192.932	184.41
193.151	-4048.45
193.37	-804.14
193.589	-259.38
193.808	-1261.62
194.027	-899.81
194.246	595.2
194.465	15910.17
194.685	1818.02
194.904	-4091.4
195.123	943.92
195.342	-1393.78
195.561	926.56
195.78	378.9
195.999	391.95
196.218	804.31
196.436	688.34
196.655	609.2
196.874	237.9
197.093	219.77
197.312	160.76
197.531	171.63
197.75	136.26
197.969	136.94
198.188	142.04
198.407	133.14
198.625	144.55
198.844	145.53
199.063	119.92
199.282	218.47
199.501	185.47
199.719	341.09
199.938	139.77
200.157	133.36
200.376	-325.74
200.594	151.71
200.813	114.3
201.032	117.76
201.251	100.11
201.469	110.02
201.688	75.27
201.907	88.66
202.125	66.21
202.344	89.11
202.563	130.05
202.781	99.59
203	78.9
203.218	61.45
203.437	0.32
203.656	23.39
203.874	30.3
204.093	32.87
204.311	49.51
204.53	69.82
204.748	70.86
204.967	53.36
205.185	68.41
205.404	51.39
205.622	81.22
205.841	101.25
206.059	118.36
206.278	112.12
206.496	112.69
206.715	131.85
206.933	112.06
207.151	229.08
207.37	455.75
207.588	579.95
207.806	445.26
208.025	668.56
208.243	438.41
208.461	347.17
208.68	-147.94
208.898	582.3
209.116	311.51
209.335	329.82
209.553	629.71
209.771	282.38
209.989	698.16
210.208	-1300.33
210.426	-479.75
210.644	-729.56
210.862	196.92
211.081	226.74
211.299	185.92
211.517	289.25
211.735	270.65
211.953	114.67
212.171	108.17
212.39	123.41
212.608	113.4
212.826	130.03
213.044	111.35
213.262	130.33
213.48	113.69
213.698	109.32
213.916	100.62
214.134	81.78
214.352	100.2
214.57	110.17
214.788	105.32
215.006	110.66
215.224	82.66
215.442	72.98
215.66	63.72
215.878	62.47
216.096	74.6
216.314	75.96
216.532	94.86
216.75	95.54
216.968	106.58
217.185	92.27
217.403	73.27
217.621	114.72
217.839	155.91
218.057	128.21
218.275	146.69
218.492	119.6
218.71	100.99
218.928	136.46
219.146	96.85
219.363	84.28
219.581	96.25
219.799	-72.17
220.017	-1904.12
220.234	-3.78
220.452	59.54
220.67	68.85
220.887	203.98
221.105	453.3
221.323	150.6
221.54	136.44
221.758	136.61
221.976	124.24
222.193	103.68
222.411	66
222.629	62.9
222.846	72.27
223.064	74.96
223.281	70.69
223.499	67.74
223.716	65.17
223.934	66.53
224.151	64.71
224.369	68.9
224.586	71.81
224.804	85.66
225.021	91.51
225.239	87.19
225.456	70.33
225.674	75.58
225.891	72.11
226.108	72.49
226.326	63.52
226.543	50.9
226.76	46.6
226.978	46.54
227.195	37.3
227.413	36
227.63	35.59
227.847	42.72
228.064	35.83
228.282	30.75
228.499	33.05
228.716	30.51
228.934	32.65
229.151	34.71
229.368	32.57
229.585	34.55
229.802	33.75
230.02	31.82
230.237	31.07
230.454	33.87
230.671	30.46
230.888	24.29
231.105	26.09
231.323	24.6
231.54	19.05
231.757	20.99
231.974	21.32
232.191	20.85
232.408	18.94
232.625	22.93
232.842	24.98
233.059	32.52
233.276	37.38
233.493	40.68
233.71	38.79
233.927	40.5
234.144	38.16
234.361	42.42
234.578	42.39
234.795	42.38
235.012	32.53
235.229	26.06
235.446	27.2
235.663	26.29
235.879	27.13
236.096	28.06
236.313	31.64
236.53	31.73
236.747	31.55
236.964	33.18
237.181	35.25
237.397	38.59
237.614	41.94
237.831	31.73
238.048	37.22
238.264	28.05
238.481	26.08
238.698	23.29
238.915	18.1
239.131	14.56
239.348	12.97
239.565	14.11
239.781	16.64
239.998	21.09
240.215	27.96
240.431	28.12
240.648	24.76
240.865	23.69
241.081	24.15
241.298	25.94
241.514	22.63
241.731	23.05
241.947	20.26
242.164	18.72
242.38	16.29
242.597	15.92
242.814	15.89
243.03	19.07
243.246	20.38
243.463	20.74
243.679	20.58
243.896	22.2
244.112	21.06
244.329	22.23
244.545	25.3
244.762	26.52
244.978	27.94
245.194	26.72
245.411	26.21
245.627	25.72
245.843	23.84
246.06	22.66
246.276	21.62
246.492	23.07
246.709	21.51
246.925	20.45
247.141	18.53
247.357	16.75
247.574	17.02
247.79	17.47
248.006	17.36
248.222	17.33
248.439	17.75
248.655	17.07
248.871	14.37
249.087	14.97
249.303	13.94
249.519	15.14
249.736	15.37
249.952	13.97
250.168	12.97
250.384	12.72
250.6	13.33
250.816	11.68
251.032	14.13
251.248	17.45
251.464	20.22
251.68	19.16
251.896	19.51
252.112	18.74
252.328	18.08
252.544	16.9
252.76	17.21
252.976	17.53
253.192	18.48
253.408	18.01
253.624	17.11
253.84	15.04
254.056	18.43
254.272	20.56
254.487	20.46
254.703	22.68
254.919	20.82
255.135	19.43
255.351	21.31
255.567	21.48
255.782	23.36
255.998	25.88
256.214	25.3
256.43	22.23
256.646	20.14
256.861	22.57
257.077	23.32
257.293	25.54
257.508	24.72
257.724	20.59
257.94	17.49
258.155	16.27
258.371	15.38
258.587	13.71
258.802	13.78
259.018	12.16
259.234	10.24
259.449	8.3
259.665	7.88
259.88	8.49
260.096	8.75
260.312	9.35
260.527	9.14
260.743	9.14
260.958	9.82
261.174	8.26
261.389	9.09
261.605	10.47
261.82	11.75
262.036	11.92
262.251	10.8
262.466	9.99
262.682	11.01
262.897	10.83
263.113	10.11
263.328	9.47
263.543	13.27
263.759	13.13
263.974	14.65
264.189	15.19
264.405	14.35
264.62	16.88
264.835	16.6
265.051	16.32
265.266	17.49
265.481	15.02
265.696	16.05
265.912	16.84
266.127	15.45
266.342	11.93
266.557	10.8
266.773	11.18
266.988	8.61
267.203	9.9
267.418	9.31
267.633	8.89
267.848	11.24
268.064	11.95
268.279	10.68
268.494	11.45
268.709	12.37
268.924	12.25
269.139	12.22
269.354	14.55
269.569	14.27
269.784	14.01
269.999	12.3
270.214	10.2
270.429	9.15
270.644	9.95
270.859	11.01
271.074	9.83
271.289	9.55
271.504	9.95
271.719	8.85
271.934	9.35
272.149	8.57
272.363	9.96
272.578	9.85
272.793	9.82
273.008	9.68
273.223	7.74
273.438	8.68
273.653	8.94
273.867	9.33
274.082	10.96
274.297	10.99
274.512	12.83
274.726	12.13
274.941	13.43
275.156	15.16
275.371	16.07
275.585	19.14
275.8	19.77
276.015	20.11
276.229	19.77
276.444	18.1
276.659	17.31
276.873	16.01
277.088	16.75
277.302	17.95
277.517	15.42
277.732	12.71
277.946	9.8
278.161	9.99
278.375	10.96
278.59	11.62
278.804	12.38
279.019	11.98
279.233	13.06
279.448	12.01
279.662	11.12
279.877	11.9
280.091	11.61
280.306	13.03
280.52	12.75
280.735	10.34
280.949	8.32
281.163	7.69
281.378	9.34
281.592	9.99
281.806	11.51
282.021	12.44
282.235	11.92
282.449	13.31
282.664	11.91
282.878	11.48
283.092	13.04
283.307	14.19
283.521	13.75
283.735	12.96
283.949	11.4
284.164	9.63
284.378	8.04
284.592	7.46
284.806	7.6
285.02	8.71
285.234	9.68
285.449	8.73
285.663	8.86
285.877	9.85
286.091	10.11
286.305	10.66
286.519	11.58
286.733	11.82
286.947	12.28
287.161	12.21
287.375	12.05
287.589	10.47
287.803	12.27
288.017	12.01
288.231	12.71
288.445	12.39
288.659	13.71
288.873	13.96
289.087	15.5
289.301	15.77
289.515	15.64
289.729	15.3
289.943	16.22
290.157	16.15
290.371	17.88
290.584	17.16
290.798	16.84
291.012	16.27
291.226	16
291.44	16.04
291.654	15.53
291.867	15.13
292.081	16.69
292.295	16.76
292.509	16.7
292.722	13.56
292.936	12.45
293.15	12.96
293.364	14.26
293.577	15.96
293.791	17.18
294.005	17.15
294.218	16.54
294.432	14.36
294.645	14.58
294.859	14.31
295.073	14.94
295.286	16.63
295.5	17.24
295.713	16.43
295.927	14.87
296.14	13.41
296.354	13.38
296.568	14.41
296.781	16.25
296.994	15.05
297.208	14.95
297.421	15.86
297.635	14.95
297.848	14.13
298.062	13.53
298.275	13.43
298.489	12.93
298.702	13.6
298.915	13.97
299.129	12.33
299.342	13.45
299.555	13.11
299.769	13.65
299.982	15.11
300.195	15.9
300.409	16.12
300.622	16.47
300.835	17.54
301.048	16.42
301.262	15.56
301.475	15.96
301.688	16.78
301.901	17.82
302.115	17.27
302.328	16.49
302.541	17.24
302.754	18.13
302.967	19.21
303.18	18.3
303.393	19.67
303.607	20.71
303.82	20.82
304.033	19.31
304.246	19.36
304.459	19.24
304.672	18.56
304.885	17.57
305.098	16.94
305.311	14.71
305.524	13.84
305.737	13.3
305.95	12.56
306.163	11.9
306.376	11.64
306.589	9.3
306.802	8.25
307.015	8.37
307.228	7.9
307.44	8.28
307.653	11.43
307.866	12.94
308.079	14.96
308.292	13.3
308.505	13.15
308.718	13.22
308.93	14.03
309.143	14.53
309.356	13.88
309.569	14.41
309.781	14.11
309.994	13.5
310.207	14.07
310.42	11.52
310.632	12.15
310.845	12.17
311.058	13.53
311.27	13.36
311.483	13.28
311.696	12.92
311.908	13.34
312.121	12.36
312.333	12.09
312.546	11.67
312.759	12.59
312.971	12.94
313.184	14.27
313.396	12.83
313.609	13.86
313.821	14.75
314.034	16.07
314.246	15.94
314.459	17.69
314.671	16.78
314.884	15.25
315.096	15.38
315.309	15.29
315.521	14.63
315.733	16.32
315.946	15.94
316.158	14.3
316.371	13.51
316.583	13.24
316.795	12.6
317.008	13.9
317.22	15.17
317.432	15.45
317.644	15.68
317.857	14.78
318.069	14.93
318.281	15.27
318.494	16.64
318.706	18.2
318.918	18.93
319.13	18.16
319.342	18.1
319.555	16.86
319.767	16.35
319.979	16.5
320.191	16.98
320.403	15.71
320.615	16.75
320.827	16.79
321.039	16.4
321.252	15.34
321.464	16.19
321.676	15.8
321.888	16.52
322.1	17.48
322.312	17.13
322.524	17.15
322.736	16.08
322.948	14.23
323.16	14.47
323.372	13.23
323.584	13.31
323.796	14.7
324.007	13.89
324.219	14.45
324.431	14.79
324.643	14.21
324.855	14.24
325.067	15.47
325.279	15.9
325.491	15.2
325.702	16.48
325.914	16.5
326.126	14.73
326.338	14.51
326.55	14.35
326.761	14.11
326.973	15.65
327.185	14.84
327.396	14.03
327.608	13.93
327.82	14.44
328.032	14.25
328.243	14.02
328.455	14.79
328.666	14.09
328.878	13.25
329.09	12.29
329.301	9.98
329.513	11.41
329.725	10.99
329.936	11.86
330.148	13.02
330.359	10.81
330.571	11.04
330.782	10.92
330.994	14.22
331.205	14.32
331.417	13.94
331.628	15.44
331.84	14.59
332.051	16.35
332.262	17.19
332.474	15.91
332.685	17.5
332.897	16.66
333.108	15.13
333.319	14.65
333.531	16.03
333.742	16.98
333.953	17.02
334.165	17.91
334.376	17.98
334.587	16.58
334.799	16.35
335.01	16.19
335.221	16.85
335.432	17.9
335.644	16.55
335.855	15.98
336.066	16.2
336.277	15.81
336.488	15.39
336.7	14.58
336.911	15.36
337.122	15.64
337.333	16.73
337.544	16.74
337.755	17.38
337.966	17.5
338.177	16.8
338.388	16.48
338.599	17.03
338.811	15.62
339.022	15.74
339.233	15.69
339.444	15.7
339.655	15.13
339.866	15.04
340.076	14.75
340.287	16.08
340.498	16.89
340.709	17.5
340.92	17.86
341.131	19.67
341.342	19.42
341.553	19.56
341.764	19.84
341.975	19.67
342.185	19.91
342.396	20
342.607	19.44
342.818	19.82
343.029	19.06
343.239	18.46
343.45	18.26
343.661	18.78
343.872	18.19
344.082	17.8
344.293	17.72
344.504	17.51
344.714	17.1
344.925	16.7
345.136	16.39
345.346	16.86
345.557	16.72
345.768	16.1
345.978	16.61
346.189	17.36
346.399	17.43
346.61	18.17
346.821	18
347.031	17.84
347.242	18.74
347.452	17.51
347.663	16.91
347.873	17.45
348.084	18.14
348.294	17.28
348.504	16.24
348.715	17.18
348.925	16.81
349.136	16.09
349.346	16.09
349.557	14.09
349.767	15.31
349.977	14.96
350.188	13.5
350.398	14.23
350.608	14.1
350.819	13.56
351.029	11.99
351.239	12.01
351.449	12.71
351.66	12.94
351.87	13.86
352.08	14.57
352.29	14.06
352.501	15.42
352.711	14.45
352.921	14.66
353.131	14.65
353.341	15.56
353.552	15.62
353.762	14.85
353.972	15.27
354.182	14.7
354.392	13.11
354.602	13.93
354.812	13.85
355.022	12.6
355.232	11.5
355.442	13.32
355.652	13.76
355.862	12.93
356.072	13.61
356.282	12.26
356.492	13.07
356.702	13.13
356.912	13.1
357.122	13.08
357.332	14.96
357.542	15.4
357.752	13.85
357.962	12.86
358.171	12.69
358.381	13.97
358.591	14.52
358.801	14.28
359.011	15.35
359.221	15.79
359.43	14.38
359.64	13.77
359.85	13.17
360.06	13.61
360.269	13.38
360.479	13.53
360.689	12.6
360.899	12.66
361.108	12.46
361.318	12.83
361.528	12.96
361.737	13.31
361.947	13
362.156	13.33
362.366	13.38
362.576	13.25
362.785	13.18
362.995	13.1
363.204	12.5
363.414	12.18
363.623	11.26
363.833	10.78
364.042	11.4
364.252	11.97
364.461	11.84
364.671	12
364.88	12.91
365.09	12.24
365.299	12.8
365.509	13.9
365.718	14.01
365.927	14.35
366.137	14.6
366.346	14.36
366.555	13.57
366.765	13.23
366.974	12.43
367.183	11.87
367.393	13.11
367.602	13.34
367.811	12.51
368.021	12.59
368.23	11.93
368.439	11.57
368.648	12.14
368.857	12.44
369.067	12.72
369.276	11.9
369.485	12.21
369.694	12.56
369.903	11.72
370.112	11.99
370.321	12.58
370.531	12.61
370.74	12.55
370.949	12.31
371.158	12.24
371.367	12.53
371.576	14.22
371.785	13.5
371.994	12.68
372.203	12.99
372.412	12.91
372.621	12.42
372.83	12.11
373.039	12.14
373.248	11.48
373.457	11.57
373.666	11.71
373.874	11
374.083	11.22
374.292	11.22
374.501	10.71
374.71	10.58
374.919	10.67
375.128	10.52
375.336	10.68
375.545	10.74
375.754	10.21
375.963	9.62
376.171	9.75
376.38	10.15
376.589	9.92
376.798	9.26
377.006	9.41
377.215	9.1
377.424	9.25
377.632	9.71
377.841	9.55
378.05	9.89
378.258	9.37
378.467	9.33
378.675	8.65
378.884	8.46
379.093	9.22
379.301	9.52
379.51	9.53
379.718	9.46
379.927	8.81
380.135	8.97
380.344	8.99
380.552	10
380.761	9.76
380.969	10.06
381.177	10.46
381.386	9.94
381.594	8.98
381.803	8.97
382.011	9.4
382.219	9.37
382.428	10.11
382.636	9.95
382.845	9.39
383.053	9.58
383.261	9.09
383.469	8.57
383.678	8.85
383.886	9.23
384.094	9.79
384.302	9.66
384.511	9.99
384.719	9.28
384.927	8.39
385.135	8.41
385.343	8.25
385.552	9.07
385.76	9.2
385.968	9.54
386.176	9.54
386.384	8.87
386.592	8.18
386.8	8.29
387.008	8.29
387.216	8.91
387.424	8.8
387.633	8.65
387.841	8.42
388.049	8.49
388.257	7.94
388.465	7.9
388.672	7.96
388.88	8.66
389.088	7.96
389.296	7.63
389.504	7.63
389.712	7.71
389.92	7.26
390.128	6.79
390.336	6.74
390.544	6.54
390.751	6.34
390.959	6.12
391.167	6.13
391.375	6.31
391.583	6.63
391.79	6.15
391.998	6.28
392.206	6.62
392.414	6.35
392.621	5.92
392.829	5.99
393.037	6.31
393.244	6.49
393.452	5.6
393.66	5.86
393.867	5.44
394.075	5.57
394.283	5.39
394.49	5.21
394.698	5.72
394.905	5.88
395.113	6.03
395.32	6.03
395.528	6.1
395.735	6.48
395.943	6.19
396.15	6.57
396.358	6.84
396.565	6.64
396.773	6.98
396.98	6.94
397.188	6.71
397.395	6.25
397.602	5.99
397.81	5.73
398.017	5.87
398.225	5.97
398.432	6.13
398.639	6.09
398.847	6.28
399.054	5.89
399.261	5.75
399.468	5.83
399.676	6.33
399.883	6.12
400.09	6.01
400.297	6.08
400.505	5.62
400.712	5.17
400.919	5.31
401.126	5.27
401.333	5.16
401.54	5.06
401.748	5.15
401.955	4.58
402.162	4.96
402.369	5.13
402.576	4.91
402.783	5.06
402.99	5.34
403.197	4.76
403.404	4.69
403.611	4.93
403.818	5.09
404.025	4.91
404.232	5.27
404.439	5.05
404.646	4.82
404.853	4.84
405.06	4.96
405.267	4.68
405.474	5.17
405.681	5.1
405.887	4.95
406.094	4.75
406.301	5.1
406.508	4.77
406.715	4.77
406.922	5.19
407.128	5.17
407.335	4.98
407.542	5.21
407.749	4.95
407.955	5.48
408.162	5.57
408.369	5.71
408.575	5.6
408.782	5.8
408.989	5.88
409.195	5.77
409.402	5.89
409.609	5.82
409.815	5.55
410.022	5.73
410.228	5.5
410.435	5.65
410.642	5.59
410.848	5.79
411.055	5.88
411.261	5.85
411.468	6.05
411.674	5.94
411.881	5.92
412.087	6.1
412.294	5.88
412.5	5.68
412.706	5.5
412.913	5.52
413.119	5.53
413.326	5.21
413.532	5.13
413.738	4.92
413.945	5.03
414.151	5.05
414.357	4.97
414.564	4.98
414.77	5.08
414.976	5.4
415.182	5.37
415.389	5.44
415.595	5.74
415.801	5.67
416.007	5.64
416.214	5.47
416.42	5.4
416.626	5.35
416.832	5.54
417.038	5.22
417.244	5.05
417.45	5.11
417.657	4.7
417.863	4.65
418.069	4.89
418.275	4.96
418.481	4.91
418.687	4.9
418.893	4.68
419.099	4.55
419.305	4.7
419.511	4.65
419.717	4.57
419.923	4.8
420.129	4.55
420.335	4.42
420.541	4.27
420.746	4.4
420.952	4.41
421.158	4.48
421.364	4.36
421.57	4.36
421.776	4.35
421.982	4.32
422.187	4.27
422.393	4.36
422.599	4.24
422.805	4.16
423.01	4.1
423.216	4.09
423.422	4.14
423.628	4.37
423.833	4.32
424.039	4.29
424.245	4.42
424.45	4.33
424.656	4.26
424.862	4.33
425.067	4.45
425.273	4.36
425.478	4.32
425.684	4.44
425.889	4.46
426.095	4.39
426.301	4.41
426.506	4.23
426.712	4.3
426.917	4.64
427.123	4.61
427.328	4.6
427.533	4.73
427.739	4.89
427.944	5.06
428.15	4.82
428.355	4.72
428.561	4.65
428.766	4.6
428.971	4.82
429.177	4.79
429.382	4.79
429.587	4.82
429.793	4.81
429.998	4.81
430.203	4.4
430.408	4.36
430.614	4.92
430.819	4.95
431.024	5.09
431.229	4.92
431.434	4.67
431.64	4.82
431.845	4.8
432.05	4.87
432.255	4.75
432.46	4.81
432.665	5.01
432.87	4.65
433.076	4.71
433.281	4.51
433.486	4.43
433.691	4.38
433.896	4.25
434.101	4.22
434.306	3.98
434.511	4.06
434.716	3.9
434.921	3.81
435.126	3.93
435.331	3.77
435.535	3.85
435.74	3.86
435.945	4.04
436.15	4.08
436.355	4.04
436.56	4.2
436.765	4.24
436.97	4.41
437.174	4.47
437.379	4.53
437.584	4.63
437.789	4.75
437.993	4.79
438.198	4.89
438.403	4.74
438.608	4.77
438.812	4.77
439.017	4.59
439.222	4.56
439.426	4.32
439.631	4.08
439.836	3.91
440.04	3.76
440.245	3.74
440.45	3.43
440.654	3.5
440.859	3.41
441.063	3.4
441.268	3.43
441.472	3.38
441.677	3.58
441.881	3.61
442.086	3.54
442.29	3.69
442.495	3.55
442.699	3.67
442.904	3.77
443.108	3.92
443.312	3.9
443.517	3.96
443.721	4.04
443.925	3.94
444.13	4.15
444.334	4.11
444.538	4.01
444.743	4.19
444.947	4.13
445.151	3.97
445.356	3.9
445.56	4.04
445.764	4.04
445.968	4.12
446.173	4.01
446.377	3.96
446.581	4.12
446.785	4.05
446.989	3.89
447.193	4.03
447.398	4.1
447.602	4.02
447.806	3.93
448.01	4.04
448.214	4.05
448.418	4.22
448.622	4.37
448.826	4.48
449.03	4.59
449.234	4.69
449.438	4.51
449.642	4.44
449.846	4.49
450.05	4.59
450.254	4.51
450.458	4.37
450.662	4.34
450.866	4.2
451.069	4.28
451.273	4.29
451.477	4.23
451.681	4.22
451.885	4.27
452.089	4.32
452.292	4.14
452.496	4.25
452.7	4.28
452.904	4.13
453.107	3.95
453.311	3.67
453.515	3.56
453.719	3.63
453.922	3.89
454.126	3.9
454.33	4.06
454.533	4.08
454.737	3.88
454.94	3.95
455.144	4.24
455.348	4.3
455.551	4.33
455.755	4.48
455.958	4.74
456.162	4.67
456.365	4.69
456.569	4.49
456.772	4.58
456.976	4.82
457.179	4.71
457.383	4.61
457.586	4.42
457.79	4.47
457.993	4.4
458.196	4.17
458.4	4.12
458.603	4.08
458.807	4.07
459.01	4.02
459.213	3.81
459.417	3.92
459.62	3.85
459.823	4.11
460.026	4.1
460.23	4.1
460.433	4.18
460.636	4.3
460.839	4.19
461.042	4.27
461.246	4.26
461.449	4.27
461.652	4.18
461.855	4.22
462.058	4.18
462.261	4.26
462.464	4.23
462.668	4.08
462.871	3.81
463.074	4.15
463.277	4.03
463.48	4.01
463.683	4.25
463.886	4.29
464.089	4.2
464.292	4.17
464.495	4.06
464.698	4.13
464.901	4.27
465.104	4.3
465.306	4.18
465.509	4.29
465.712	4.26
465.915	4.1
466.118	4.12
466.321	4.28
466.524	4.18
466.726	4.2
466.929	4.33
467.132	4.13
467.335	4.23
467.538	4.12
467.74	4
467.943	3.78
468.146	3.69
468.348	3.6
468.551	3.68
468.754	3.72
468.956	3.68
469.159	3.43
469.362	3.72
469.564	3.81
469.767	3.87
469.969	4.11
470.172	4.46
470.375	4.54
470.577	4.67
470.78	4.46
470.982	4.27
471.185	4.49
471.387	4.66
471.59	4.41
471.792	4.31
471.995	4.35
472.197	3.97
472.399	3.86
472.602	3.88
472.804	3.88
473.007	3.85
473.209	4.02
473.411	3.86
473.614	3.68
473.816	3.81
474.018	3.82
474.22	3.78
474.423	3.87
474.625	3.98
474.827	3.93
475.03	3.75
475.232	3.76
475.434	3.82
475.636	3.89
475.838	3.9
476.04	3.91
476.243	3.98
476.445	3.9
476.647	3.98
476.849	3.94
477.051	4.05
477.253	4.12
477.455	4.21
477.657	4.09
477.859	4.04
478.061	4.18
478.263	4.25
478.465	4.09
478.667	4.21
478.869	4.25
479.071	4.31
479.273	4.07
479.475	4
479.677	4.07
479.879	4.01
480.081	4
480.283	3.92
480.485	3.86
480.686	4.04
480.888	3.87
481.09	3.79
481.292	3.64
481.494	3.79
481.695	3.75
481.897	3.7
482.099	3.73
482.301	3.77
482.502	3.79
482.704	3.66
482.906	3.56
483.107	3.58
483.309	3.61
483.511	3.58
483.712	3.49
483.914	3.58
484.115	3.57
484.317	3.58
484.519	3.49
484.72	3.45
484.922	3.45
485.123	3.42
485.325	3.44
485.526	3.47
485.728	3.56
485.929	3.58
486.131	3.47
486.332	3.41
486.534	3.34
486.735	3.43
486.936	3.43
487.138	3.46
487.339	3.49
487.541	3.47
487.742	3.45
487.943	3.36
488.144	3.46
488.346	3.59
488.547	3.54
488.748	3.62
488.95	3.57
489.151	3.66
489.352	3.71
489.553	3.72
489.755	3.7
489.956	3.75
490.157	3.76
490.358	3.72
490.559	3.6
490.76	3.71
490.961	3.56
491.163	3.65
491.364	3.59
491.565	3.45
491.766	3.53
491.967	3.61
492.168	3.61
492.369	3.65
492.57	3.64
492.771	3.57
492.972	3.49
493.173	3.61
493.374	3.56
493.575	3.67
493.776	3.92
493.976	3.99
494.177	4.06
494.378	3.98
494.579	4.09
494.78	4.09
494.981	4.3
495.182	4.42
495.382	4.63
495.583	4.62
495.784	4.41
495.985	4.24
496.185	4.21
496.386	4.02
496.587	4.12
496.788	4
496.988	4.11
497.189	4.02
497.39	4.02
497.59	3.92
497.791	3.87
497.992	4.03
498.192	4.17
498.393	4.14
498.593	4.31
498.794	4.25
498.994	4.19
499.195	4.07
499.395	4.23
499.596	4.2
499.796	4.16
499.997	4.21
500.197	4.15
500.398	4.13
500.598	4.01
500.799	4.02
500.999	3.96
501.199	3.94
501.4	3.98
501.6	3.95
501.801	4.17
502.001	4.06
502.201	4.13
502.402	4.02
502.602	4.03
502.802	4.11
503.002	3.99
503.203	4.03
503.403	4.19
503.603	4.27
503.803	4.33
504.003	4.16
504.204	4.28
504.404	4.4
504.604	4.68
504.804	4.71
505.004	4.63
505.204	4.72
505.404	4.74
505.604	4.73
505.804	4.56
506.005	4.53
506.205	4.64
506.405	4.62
506.605	4.5
506.805	4.41
507.005	4.37
507.204	4.4
507.404	4.38
507.604	4.23
507.804	4.27
508.004	4.43
508.204	4.34
508.404	4.27
508.604	4.34
508.804	4.36
509.003	4.25
509.203	4.31
509.403	4.22
509.603	4.08
509.803	4.2
510.002	4.21
510.202	4.29
510.402	4.34
510.602	4.26
510.801	4.15
511.001	4.07
511.201	4.1
511.4	4.04
511.6	4.03
511.8	4.14
511.999	4.2
512.199	4.08
512.398	4.02
512.598	4.01
512.797	4.09
512.997	4.22
513.197	4.3
513.396	4.33
513.596	4.37
513.795	4.47
513.994	4.47
514.194	4.5
514.393	4.69
514.593	4.63
514.792	4.74
514.992	4.63
515.191	4.63
515.39	4.64
515.59	4.7
515.789	4.59
515.988	4.74
516.188	4.67
516.387	4.5
516.586	4.38
516.786	4.37
516.985	4.22
517.184	4.37
517.383	4.36
517.582	4.43
517.782	4.3
517.981	4.43
518.18	4.3
518.379	4.49
518.578	4.53
518.777	4.59
518.976	4.66
519.176	4.66
519.375	4.65
519.574	4.56
519.773	4.52
519.972	4.65
520.171	4.57
520.37	4.61
520.569	4.54
520.768	4.63
520.967	4.7
521.166	4.8
521.365	5.01
521.564	5.14
521.762	5.26
521.961	5.31
522.16	5.25
522.359	5.22
522.558	5.09
522.757	5.11
522.956	5.15
523.154	5.06
523.353	4.9
523.552	4.77
523.751	4.69
523.949	4.75
524.148	4.68
524.347	4.86
524.546	4.95
524.744	5.12
524.943	5.05
525.142	4.93
525.34	4.97
525.539	5.01
525.737	5.04
525.936	4.97
526.135	4.85
526.333	4.94
526.532	4.84
526.73	4.79
526.929	4.8
527.127	4.78
527.326	4.91
527.524	4.99
527.723	5.04
527.921	5.05
528.12	5.11
528.318	5.19
528.516	5.15
528.715	5.15
528.913	5.19
529.112	5.17
529.31	5.24
529.508	5.22
529.707	5.18
529.905	5.13
530.103	5.1
530.301	5.12
530.5	5.13
530.698	5.14
530.896	5.24
531.094	5.32
531.293	5.41
531.491	5.46
531.689	5.53
531.887	5.52
532.085	5.59
532.283	5.62
532.481	5.61
532.68	5.65
532.878	5.67
533.076	5.68
533.274	5.7
533.472	5.61
533.67	5.58
533.868	5.55
534.066	5.63
534.264	5.66
534.462	5.67
534.66	5.75
534.858	5.79
535.056	5.87
535.253	5.79
535.451	5.77
535.649	5.92
535.847	5.99
536.045	6.04
536.243	6.02
536.441	6.01
536.638	6.14
536.836	6.06
537.034	6.05
537.232	6.07
537.43	6.16
537.627	6.04
537.825	5.95
538.023	5.97
538.22	6.06
538.418	6.05
538.616	6.14
538.813	6.1
539.011	6.17
539.209	6.17
539.406	6.25
539.604	6.46
539.801	6.73
539.999	6.89
540.196	6.81
540.394	6.8
540.591	6.88
540.789	6.85
540.986	6.9
541.184	6.88
541.381	6.97
541.579	6.97
541.776	6.93
541.974	6.89
542.171	6.89
542.368	6.98
542.566	6.97
542.763	6.91
542.96	7.04
543.158	7.03
543.355	7.04
543.552	7.03
543.75	7.08
543.947	7.05
544.144	7.09
544.341	7.09
544.539	7.19
544.736	7.21
544.933	7.28
545.13	7.23
545.327	7.32
545.524	7.51
545.722	7.48
545.919	7.39
546.116	7.6
546.313	7.72
546.51	7.8
546.707	7.83
546.904	7.87
547.101	8.03
547.298	8.01
547.495	8.08
547.692	8.02
547.889	8.17
548.086	8.24
548.283	8.15
548.48	8.2
548.677	8.25
548.874	8.29
549.07	8.43
549.267	8.34
549.464	8.5
549.661	8.42
549.858	8.63
550.055	8.57
550.251	8.81
550.448	8.95
550.645	8.85
550.842	8.87
551.038	8.79
551.235	8.85
551.432	8.98
551.628	9.07
551.825	9.14
552.022	9.02
552.218	9.2
552.415	9.06
552.612	8.87
552.808	9.02
553.005	9.08
553.201	9.09
553.398	9.08
553.594	9.2
553.791	9.25
553.987	9.55
554.184	9.64
554.38	9.71
554.577	10
554.773	10.35
554.97	10.25
555.166	10.22
555.362	10.22
555.559	10.35
555.755	10.45
555.952	10.51
556.148	10.31
556.344	10.49
556.541	10.44
556.737	10.47
556.933	10.47
557.129	10.74
557.326	11.01
557.522	10.92
557.718	10.98
557.914	11.05
558.11	11.11
558.307	11.26
558.503	11.45
558.699	11.66
558.895	11.52
559.091	11.47
559.287	11.6
559.483	11.54
559.679	11.88
559.876	11.94
560.072	11.94
560.268	12.05
560.464	12.11
560.66	12.07
560.856	11.97
561.052	12.14
561.247	12.15
561.443	12.09
561.639	12.25
561.835	12.5
562.031	12.61
562.227	12.72
562.423	12.49
562.619	12.71
562.815	12.76
563.01	12.66
563.206	12.66
563.402	12.93
563.598	12.93
563.793	12.99
563.989	12.98
564.185	12.98
564.381	12.96
564.576	12.96
564.772	12.7
564.968	12.63
565.163	12.83
565.359	12.84
565.555	12.57
565.75	12.69
565.946	12.64
566.141	12.57
566.337	12.66
566.532	12.6
566.728	12.89
566.923	12.91
567.119	13.11
567.314	13.2
567.51	13.24
567.705	13.3
567.901	13.23
568.096	13.29
568.292	13.18
568.487	13.05
568.682	13.17
568.878	13.08
569.073	13.15
569.268	13.11
569.464	13.09
569.659	13.17
569.854	13.19
570.05	13.45
570.245	13.34
570.44	13.63
570.635	13.7
570.831	13.66
571.026	13.87
571.221	13.98
571.416	13.87
571.611	13.91
571.806	13.94
572.002	14
572.197	13.75
572.392	13.9
572.587	13.79
572.782	13.82
572.977	13.75
573.172	13.67
573.367	13.74
573.562	13.98
573.757	13.9
573.952	13.86
574.147	13.99
574.342	14.15
574.537	14.29
574.732	14.41
574.927	14.4
575.121	14.57
575.316	14.44
575.511	14.55
575.706	14.41
575.901	14.59
576.096	14.52
576.29	14.47
576.485	14.4
576.68	14.46
576.875	14.28
577.069	14.3
577.264	14.49
577.459	14.65
577.654	14.51
577.848	14.66
578.043	14.45
578.238	14.45
578.432	14.39
578.627	14.78
578.821	14.7
579.016	15.04
579.21	15.18
579.405	15.11
579.6	15.06
579.794	15.01
579.989	15.11
580.183	14.99
580.378	15.39
580.572	15.56
580.766	15.64
580.961	15.58
581.155	15.61
581.35	15.68
581.544	15.5
581.738	15.58
581.933	15.74
582.127	15.83
582.321	16.11
582.516	16.15
582.71	16.28
582.904	16.05
583.099	15.96
583.293	15.81
583.487	15.76
583.681	16.12
583.875	16.32
584.07	16.4
584.264	16.31
584.458	16.69
584.652	16.6
584.846	16.5
585.04	16.6
585.234	16.84
585.428	16.85
585.623	16.77
585.817	16.47
586.011	16.45
586.205	16.44
586.399	16.44
586.593	16.12
586.787	16.22
586.981	16.28
587.174	16.28
587.368	16.22
587.562	16.2
587.756	16.24
587.95	16.22
588.144	16.29
588.338	16.25
588.532	16.2
588.725	16.22
588.919	16.53
589.113	16.57
589.307	16.54
589.501	16.45
589.694	16.61
589.888	16.68
590.082	16.79
590.275	16.81
590.469	16.95
590.663	17
590.856	16.94
591.05	16.67
591.244	16.91
591.437	17.19
591.631	17.48
591.824	17.48
592.018	17.53
592.212	17.64
592.405	17.56
592.599	17.38
592.792	17.24
592.986	17.45
593.179	17.32
593.372	17.19
593.566	17.11
593.759	16.96
593.953	17.15
594.146	17.07
594.339	17.09
594.533	17.07
594.726	16.92
594.92	16.96
595.113	16.94
595.306	16.76
595.499	16.73
595.693	16.43
595.886	16.46
596.079	16.44
596.272	16.57
596.466	16.45
596.659	16.53
596.852	16.71
597.045	16.78
597.238	16.85
597.431	17.02
597.624	17.03
597.818	17.13
598.011	17.22
598.204	17.12
598.397	17.06
598.59	17.11
598.783	17.03
598.976	16.94
599.169	17.1
599.362	16.91
599.555	17.05
599.748	17.17
599.941	17.12
600.134	17.08
600.326	16.98
600.519	17.07
600.712	16.92
600.905	17.2
601.098	17.25
601.291	17.07
601.483	17.03
601.676	16.78
601.869	16.86
602.062	16.77
602.255	16.64
602.447	16.77
602.64	16.82
602.833	17.12
603.025	17
603.218	17.22
603.411	17.36
603.603	17.53
603.796	17.63
603.989	17.45
604.181	17.43
604.374	17.46
604.566	17.58
604.759	17.56
604.951	17.52
605.144	17.44
605.336	17.18
605.529	17.09
605.721	17.19
605.914	17.17
606.106	17.16
606.299	17.44
606.491	17.37
606.683	17.23
606.876	17.15
607.068	17.11
607.26	17.07
607.453	17.43
607.645	17.51
607.837	17.33
608.03	17.54
608.222	17.54
608.414	17.46
608.606	17.69
608.799	17.96
608.991	17.96
609.183	17.91
609.375	18.4
609.567	18.16
609.759	18.2
609.952	18.46
610.144	18.22
610.336	18.39
610.528	18.55
610.72	18.6
610.912	18.34
611.104	18.73
611.296	18.94
611.488	18.73
611.68	18.97
611.872	18.85
612.064	18.45
612.256	18.43
612.448	18.31
612.64	18.35
612.832	18.27
613.023	18.29
613.215	18.11
613.407	18.2
613.599	17.99
613.791	17.92
613.983	17.88
614.174	18.3
614.366	18.7
614.558	18.35
614.75	18.26
614.941	18.3
615.133	18.3
615.325	17.98
615.516	17.95
615.708	17.99
615.9	18.21
616.091	18.16
616.283	17.94
616.475	17.9
616.666	18.42
616.858	18.4
617.049	18.14
617.241	18.05
617.432	18
617.624	17.84
617.815	17.76
618.007	17.41
618.198	17.47
618.39	17.66
618.581	17.27
618.773	17.33
618.964	17.09
619.155	17.36
619.347	17.46
619.538	17.8
619.729	17.9
619.921	17.85
620.112	17.76
620.303	17.67
620.494	17.37
620.686	17.45
620.877	17.4
621.068	17.55
621.259	17.76
621.451	17.72
621.642	17.29
621.833	17.37
622.024	17.4
622.215	18.02
622.406	18.35
622.597	18.5
622.788	18.75
622.98	18.65
623.171	18.79
623.362	18.65
623.553	18.8
623.744	18.93
623.935	19.1
624.126	19.37
624.317	18.68
624.508	18.51
624.698	18.32
624.889	18.27
625.08	17.98
625.271	17.82
625.462	17.53
625.653	17.29
625.844	17.44
626.034	17.05
626.225	16.97
626.416	16.88
626.607	16.82
626.798	17.14
626.988	17.16
627.179	17.47
627.37	17.4
627.56	17.71
627.751	17.87
627.942	18.21
628.132	18.51
628.323	18.75
628.514	19.26
628.704	19.48
628.895	19.15
629.085	19.22
629.276	18.94
629.466	18.97
629.657	18.76
629.847	19.01
630.038	18.61
630.228	18.55
630.419	18.23
630.609	18.38
630.8	18.11
630.99	18.29
631.181	18.23
631.371	18.62
631.561	18.59
631.752	18.57
631.942	18.3
632.132	18.35
632.323	18.31
632.513	18.37
632.703	17.93
632.893	18.06
633.084	18.01
633.274	17.74
633.464	17.59
633.654	17.74
633.844	17.84
634.034	17.93
634.225	17.98
634.415	17.78
634.605	17.35
634.795	17.32
634.985	17.33
635.175	17.4
635.365	17.51
635.555	17.41
635.745	17.49
635.935	17.68
636.125	17.47
636.315	17.37
636.505	17.14
636.695	17.45
636.885	17.69
637.075	17.88
637.265	18.12
637.455	18.2
637.644	18.4
637.834	18.6
638.024	18.27
638.214	18.75
638.404	18.94
638.593	19.26
638.783	19.16
638.973	18.96
639.163	18.73
639.352	18.44
639.542	18.48
639.732	18.4
639.921	17.88
640.111	17.81
640.301	17.27
640.49	17.33
640.68	17.57
640.87	17.64
641.059	17.79
641.249	18.06
641.438	18.09
641.628	18.33
641.817	18.54
642.007	18.96
642.196	19.04
642.386	19.35
642.575	19.25
642.764	19.05
642.954	19.05
643.143	18.96
643.333	18.89
643.522	19.19
643.711	19.1
643.901	19
644.09	18.92
644.279	19.21
644.469	18.73
644.658	19.04
644.847	19.12
645.036	19.25
645.226	19.54
645.415	19.27
645.604	18.94
645.793	18.6
645.982	18.21
646.171	18.01
646.361	17.92
646.55	18.34
646.739	17.77
646.928	17.52
647.117	17.31
647.306	17.17
647.495	17.24
647.684	17.67
647.873	17.93
648.062	18.03
648.251	18.65
648.44	18.9
648.629	18.65
648.818	18.46
649.007	18.92
649.196	18.8
649.384	18.91
649.573	19.13
649.762	19.26
649.951	19.26
650.14	19.29
650.328	18.76
650.517	18.1
650.706	18.24
650.895	18.89
651.083	18.67
651.272	19.52
651.461	19.72
651.65	19.55
651.838	19.04
652.027	19.05
652.216	19.12
652.404	19.22
652.593	19.3
652.781	19.09
652.97	18.46
653.158	18.6
653.347	17.88
653.535	17.66
653.724	17.36
653.912	17.45
654.101	17.36
654.289	17.45
654.478	17.94
654.666	18.11
654.855	18.64
655.043	19.1
655.231	18.67
655.42	18.83
655.608	18.87
655.796	19.54
655.985	19.38
656.173	19.19
656.361	19.49
656.55	18.92
656.738	19.35
656.926	19.15
657.114	19.04
657.302	18.74
657.491	18.88
657.679	18.55
657.867	18.12
658.055	18.31
658.243	18.63
658.431	18.51
658.619	18.55
658.807	18.31
658.996	18.43
659.184	18.53
659.372	18.96
659.56	18.89
659.748	18.82
659.936	19.05
660.124	19.01
660.311	19.11
660.499	18.84
660.687	19.13
660.875	19.15
661.063	19.36
661.251	19.15
661.439	19.3
661.627	19.59
661.814	20.02
662.002	19.7
662.19	19.98
662.378	19.73
662.565	19.88
662.753	19.73
662.941	19.73
663.129	19.65
663.316	20.1
663.504	20.01
663.692	19.77
663.879	19.62
664.067	19.89
664.254	19.65
664.442	19.81
664.63	19.82
664.817	20.09
665.005	20.31
665.192	20.3
665.38	20.12
665.567	20.15
665.755	20.09
665.942	19.82
666.13	20.06
666.317	20.16
666.504	19.79
666.692	19.96
666.879	19.67
667.067	19.9
667.254	19.99
667.441	20.06
667.629	20.26
667.816	20.08
668.003	20.45
668.19	20.28
668.378	20.15
668.565	20.61
668.752	21.03
668.939	20.61
669.127	20.44
669.314	20.24
669.501	20.13
669.688	20.1
669.875	20.95
670.062	21.14
670.249	20.91
670.436	21.04
670.623	20.87
670.81	20.31
670.997	20.57
671.184	20.54
671.371	20.13
671.558	19.97
671.745	19.76
671.932	18.93
672.119	18.57
672.306	19.13
672.493	19.05
672.68	19.09
672.867	19.04
673.054	19.46
673.24	18.82
673.427	19.51
673.614	19.84
673.801	20.29
673.988	20.38
674.174	20.62
674.361	20.35
674.548	20.39
674.734	20.21
674.921	20.04
675.108	19.75
675.294	19.79
675.481	19.6
675.668	19.26
675.854	19
676.041	19.06
676.227	18.52
676.414	18.15
676.601	18.34
676.787	18.57
676.974	18.64
677.16	18.53
677.347	19.12
677.533	19.27
677.719	19.29
677.906	18.83
678.092	19.19
678.279	19.77
678.465	20.28
678.651	19.38
678.838	19.46
679.024	20.16
679.21	20.5
679.397	20.24
679.583	19.8
679.769	19.69
679.955	19.7
680.142	19.34
680.328	19.32
680.514	18.99
680.7	19.91
680.886	19.96
681.073	19.57
681.259	19.24
681.445	18.96
681.631	18.98
681.817	18.79
682.003	19.02
682.189	19.28
682.375	19.22
682.561	19.71
682.747	19.41
682.933	19.12
683.119	19.03
683.305	19.38
683.491	19.92
683.677	20.4
683.863	21.24
684.049	21.33
684.235	21.43
684.42	21.58
684.606	21.31
684.792	21.76
684.978	21.94
685.164	22.27
685.349	21.95
685.535	21.43
685.721	21.04
685.907	20.42
686.092	20.74
686.278	20.35
686.464	20.25
686.649	20.41
686.835	20.07
687.021	20.15
687.206	19.59
687.392	20.12
687.577	21.12
687.763	20.52
687.948	21.02
688.134	20.58
688.319	20.67
688.505	20.54
688.69	20.36
688.876	20.28
689.061	20
689.247	20.34
689.432	19.5
689.618	18.89
689.803	19.55
689.988	19.92
690.174	20.26
690.359	19.91
690.544	19.74
690.73	20.39
690.915	20.51
691.1	20.46
691.285	20.39
691.471	20.75
691.656	20.77
691.841	20.45
692.026	19.59
692.211	19.32
692.396	19.79
692.582	19.65
692.767	18.71
692.952	18.47
693.137	18.83
693.322	19.13
693.507	19.4
693.692	19.48
693.877	19.62
694.062	20.34
694.247	20.32
694.432	19.99
694.617	20.34
694.802	20.05
694.987	19.86
695.172	20.27
695.357	19.75
695.541	19.35
695.726	19.57
695.911	19.97
696.096	19.37
696.281	19.7
696.466	19.74
696.65	19.69
696.835	19.98
697.02	20.59
697.204	20.66
697.389	20.08
697.574	20.28
697.759	20.14
697.943	20.13
698.128	20.32
698.312	20.19
698.497	20.35
698.682	20.43
698.866	20.47
699.051	20.43
699.235	20.04
699.42	20.55
699.604	20.53
699.789	20.46
699.973	20.6
700.158	20.51
700.342	20.46
700.527	20.77
700.711	20.44
700.895	20.32
701.08	20.16
701.264	19.99
701.448	20.1
701.633	20.31
701.817	20.17
702.001	20
702.186	19.72
702.37	19.67
702.554	19.16
702.738	19.35
702.923	19.99
703.107	19.43
703.291	19.56
703.475	18.92
703.659	18.78
703.843	19.22
704.027	19.44
704.212	19.85
704.396	20.87
704.58	21.07
704.764	21.55
704.948	21.21
705.132	21.09
705.316	22
705.5	23.21
705.684	23.31
705.868	23.68
706.052	23.89
706.235	24.57
706.419	23.96
706.603	24.15
706.787	24.13
706.971	23.93
707.155	24.17
707.339	23.86
707.522	23.41
707.706	23.49
707.89	22.57
708.074	22.63
708.257	21.6
708.441	21.78
708.625	21.37
708.808	21.64
708.992	22.55
709.176	22.92
709.359	22.49
709.543	22.25
709.727	22.21
709.91	22.21
710.094	22.13
710.277	22.31
710.461	21.82
710.644	22.25
710.828	21.62
711.011	20.89
711.195	20.92
711.378	21.12
711.562	21.2
711.745	21.19
711.928	21
712.112	21.16
712.295	21.16
712.478	21.37
712.662	20.96
712.845	21.21
713.028	21.66
713.212	21.65
713.395	22.27
713.578	22.4
713.761	22.36
713.945	23.36
714.128	22.72
714.311	22.58
714.494	22.62
714.677	23.01
714.86	22.65
715.043	22.46
715.227	22.93
715.41	21.84
715.593	22.12
715.776	21.97
715.959	21.66
716.142	21.12
716.325	21.35
716.508	21.17
716.691	21
716.874	22.15
717.057	22.05
717.239	21.47
717.422	21.23
717.605	21.33
717.788	21.7
717.971	22.26
718.154	22.85
718.337	22.63
718.519	22.87
718.702	23.51
718.885	22.71
719.068	22.92
719.25	22.71
719.433	23.44
719.616	22.93
719.798	23.34
719.981	22.33
720.164	22.76
720.346	23.66
720.529	23.78
720.712	23.47
720.894	22.97
721.077	22.48
721.259	23.2
721.442	23.19
721.624	22.73
721.807	21.46
721.989	21.7
722.172	21.15
722.354	21.75
722.537	21.21
722.719	20.79
722.901	22.29
723.084	22.75
723.266	21.73
723.448	20.88
723.631	22.24
723.813	23.24
723.995	22.54
724.178	23.27
724.36	23.3
724.542	24.16
724.724	24.08
724.907	22.84
725.089	24.01
725.271	24.04
725.453	24.5
725.635	23.37
725.817	22.94
725.999	23.41
726.181	23.77
726.364	22.2
726.546	21.03
726.728	21.16
726.91	22.46
727.092	20.97
727.274	21.97
727.456	22.1
727.638	22.42
727.819	21.91
728.001	22.35
728.183	20.71
728.365	21.19
728.547	21.62
728.729	22.39
728.911	21.73
729.093	21.3
729.274	21.22
729.456	21
729.638	20.57
729.82	21.47
730.001	21.1
730.183	22.51
730.365	23.66
730.546	23.39
730.728	23.29
730.91	23.58
731.091	24.15
731.273	24.49
731.455	24.48
731.636	25.29
731.818	25.2
731.999	25.52
732.181	25.74
732.362	24.32
732.544	24.48
732.725	24.07
732.907	23.11
733.088	23.51
733.27	23.2
733.451	23.6
733.633	22.7
733.814	22.81
733.995	22.85
734.177	23.07
734.358	23.55
734.539	24.09
734.721	23.98
734.902	23.91
735.083	24.12
735.264	23.95
735.446	23.79
735.627	24.98
735.808	24.4
735.989	24.17
736.17	23.27
736.351	22.71
736.533	23.79
736.714	24.1
736.895	25.05
737.076	24.75
737.257	24.24
737.438	24.49
737.619	25.16
737.8	25.42
737.981	26.41
738.162	26.57
738.343	26.55
738.524	25.83
738.705	25.24
738.886	24.74
739.067	23.71
739.247	24.03
739.428	22.97
739.609	22.35
739.79	20.98
739.971	20.02
740.151	19.47
740.332	19.64
740.513	18.67
740.694	18.45
740.874	18.44
741.055	19.87
741.236	20.78
741.417	23.22
741.597	20.95
741.778	21.39
741.958	21.43
742.139	21.75
742.32	21.39
742.5	22.05
742.681	22.47
742.861	21.42
743.042	20.27
743.222	18.7
743.403	17.71
743.583	20.16
743.764	20.79
743.944	20.53
744.124	19.99
744.305	20.15
744.485	20.29
744.666	21.32
744.846	23.07
745.026	24.48
745.207	25.58
745.387	25.78
745.567	25.7
745.747	27.15
745.928	26.12
746.108	26.71
746.288	28.22
746.468	28.4
746.648	27.21
746.829	28.09
747.009	28.12
747.189	28.34
747.369	28.74
747.549	29.18
747.729	28.27
747.909	29.13
748.089	29.58
748.269	29.01
748.449	28.59
748.629	29.18
748.809	27.3
748.989	25.8
749.169	25.4
749.349	25.68
749.529	25.74
749.709	25.94
749.889	25.14
750.068	24.55
750.248	24.82
750.428	24.64
750.608	24.47
750.788	25.84
750.967	27.08
751.147	26.57
751.327	25.76
751.507	24.75
751.686	23.5
751.866	24.33
752.046	24.16
752.225	23.63
752.405	23.4
752.585	23.68
752.764	23.12
752.944	22.06
753.123	23.31
753.303	22.3
753.482	22.88
753.662	24.53
753.841	24.43
754.021	24.32
754.2	23.64
754.38	24.37
754.559	25.02
754.739	24.3
754.918	23.7
755.097	22.5
755.277	22.31
755.456	22.33
755.635	21.79
755.815	21.87
755.994	20.56
756.173	20.98
756.352	20.47
756.532	19.34
756.711	20.06
756.89	22.2
757.069	23.22
757.248	24.28
757.427	23.93
757.607	24.34
757.786	23.4
757.965	25.66
758.144	26.09
758.323	24.83
758.502	25.84
758.681	26.02
758.86	23.79
759.039	23.63
759.218	23.62
759.397	23.59
759.576	21.18
759.755	20.7
759.934	20.32
760.113	20.07
760.291	20.93
760.47	19.93
760.649	20.75
760.828	22.23
761.007	21.56
761.186	20.87
761.364	21.35
761.543	22.7
761.722	23.26
761.901	22.51
762.079	22.75
762.258	22.57
762.437	22.31
762.615	21.68
762.794	22.54
762.972	23.14
763.151	22.59
763.33	21.56
763.508	21.4
763.687	22.05
763.865	22.6
764.044	23.11
764.222	24.63
764.401	24.87
764.579	24.41
764.758	22.7
764.936	22.11
765.114	23.32
765.293	23.77
765.471	24.74
765.65	25
765.828	24.59
766.006	23.71
766.184	22.85
766.363	22.18
766.541	23.06
766.719	23.45
766.898	24.85
767.076	23.65
767.254	24.09
767.432	23.26
767.61	23.87
767.788	24.06
767.967	23.85
768.145	22.62
768.323	22.34
768.501	21.92
768.679	22.93
768.857	21.96
769.035	23.21
769.213	23.11
769.391	22.56
769.569	21.68
769.747	22.61
769.925	24.18
770.103	22.86
770.281	24.67
770.459	23.91
770.636	23.77
770.814	22.82
770.992	23.28
771.17	23.11
771.348	25.95
771.525	24.55
771.703	22.86
771.881	20.64
772.059	23.36
772.236	23.04
772.414	23.31
772.592	23.89
772.769	24.46
772.947	23.28
773.125	21.91
773.302	21.96
773.48	23.88
773.657	24.41
773.835	27.19
774.013	25.36
774.19	26.58
774.368	24.71
774.545	24.39
774.723	24.95
774.9	26.09
775.077	27.09
775.255	25.52
775.432	25.28
775.61	27.68
775.787	25.5
775.964	26.04
776.142	24.46
776.319	28.26
776.496	28.89
776.674	29.19
776.851	28.85
777.028	30.76
777.205	32.35
777.382	32.1
777.56	30.82
777.737	31.71
777.914	33.94
778.091	34
778.268	32.68
778.445	33.12
778.622	32.17
778.8	30.43
778.977	29.7
779.154	29
779.331	28.74
779.508	27.6
779.685	27.09
779.862	26.9
780.038	26.33
780.215	26.56
780.392	25.8
780.569	25.71
780.746	26.99
780.923	27.15
781.1	28.41
781.277	29.87
781.453	30.11
781.63	29.44
781.807	27.15
781.984	27.92
782.16	26.72
782.337	26.8
782.514	27.98
782.691	28.07
782.867	29.38
783.044	27.56
783.221	26.18
783.397	30.3
783.574	34.28
783.75	35.72
783.927	36.17
784.103	38.65
784.28	39.91
784.456	39.33
784.633	40.79
784.809	38.83
784.986	39.28
785.162	38.45
785.339	35.85
785.515	32.65
785.692	31.41
785.868	30.29
786.044	27.34
786.221	27.88
786.397	26.35
786.573	25.83
786.749	26.31
786.926	26.57
787.102	28.26
787.278	27.48
787.454	30.38
787.631	31.97
787.807	29.72
787.983	30.22
788.159	27.62
788.335	26.94
788.511	23.94
788.687	24.8
788.863	25.65
789.039	25.63
789.216	27.69
789.392	25.08
789.568	23.39
789.744	25.25
789.919	26.04
790.095	26.12
790.271	27.67
790.447	31.25
790.623	30.15
790.799	26
790.975	24.82
791.151	22.13
791.327	22.33
791.502	22.67
791.678	25.26
791.854	27.39
792.03	31.19
792.205	29.83
792.381	26.67
792.557	29.29
792.733	33.21
792.908	34.43
793.084	35.37
793.259	35.66
793.435	36.01
793.611	33.72
793.786	31.89
793.962	27.58
794.137	28.43
794.313	30.7
794.488	29.92
794.664	29.2
794.839	29.41
795.015	28.7
795.19	27.55
795.366	28.11
795.541	30.38
795.716	28.71
795.892	27.62
796.067	30.61
796.242	32.47
796.418	31.36
796.593	31.96
796.768	34.59
796.944	35.45
797.119	35.58
797.294	34.77
797.469	33.6
797.644	35.04
797.82	36.16
797.995	33.03
798.17	31.96
798.345	31.68
798.52	31.66
798.695	30.06
798.87	29.5
799.045	29.32
799.22	31.98
799.395	32.71
799.57	32.03
799.745	34.12
799.92	35.18
800.095	33.93
800.27	36.49
800.445	37.99
800.62	37.13
800.795	34.53
800.97	35.8
801.145	35.97
801.319	34.91
801.494	36.54
801.669	36.35
801.844	35.63
802.018	35.36
802.193	33.69
802.368	29.29
802.543	27.65
802.717	32.82
802.892	30.39
803.067	27.69
803.241	28.33
803.416	26.46
803.59	25.41
803.765	25.26
803.94	21.75
804.114	22.73
804.289	27.25
804.463	29.11
804.638	27.79
804.812	30.03
804.986	28.59
805.161	27.48
805.335	27.27
805.51	31.39
805.684	31.13
805.858	36.47
806.033	32.95
806.207	31.81
806.381	30.91
806.556	31.39
806.73	26.94
806.904	27.72
807.078	25.92
807.253	26.96
807.427	23.05
807.601	23.77
807.775	18.46
807.949	22.61
808.123	21.96
808.298	22.66
808.472	20.24
808.646	24.71
808.82	23.74
808.994	26.31
809.168	26.75
809.342	24.77
809.516	27.89
809.69	30.55
809.864	29.08
810.038	28.88
810.212	27.48
810.385	27.74
810.559	29.62
810.733	32.54
810.907	33.44
811.081	30.39
811.255	32.47
811.428	32.62
811.602	36.02
811.776	37.27
811.95	37.69
812.123	38.35
812.297	33.63
812.471	32.48
812.644	34.12
812.818	32.72
812.992	33.69
813.165	31.97
813.339	28.7
813.512	23.66
813.686	23.54
813.86	21.62
814.033	22.65
814.207	32.65
814.38	32.7
814.554	33.62
814.727	34.61
814.9	35.85
815.074	38.34
815.247	38.38
815.421	42.37
815.594	39.26
815.767	42.04
815.941	45.26
816.114	46.66
816.287	50.91
816.46	44.79
816.634	43.61
816.807	46.77
816.98	47.9
817.153	49.95
817.327	47.16
817.5	51.06
817.673	50.43
817.846	48.4
818.019	42.93
818.192	34.64
818.365	36.72
818.538	35.12
818.711	34.69
818.884	30.57
819.057	28.33
819.23	29.02
819.403	28.45
819.576	26.07
819.749	25.6
819.922	23.64
820.095	28.71
820.268	30.66
820.441	32.58
820.614	30
820.786	31.68
820.959	29.08
821.132	29.5
821.305	28.77
821.477	29.31
821.65	28.27
821.823	28.31
821.996	27.29
822.168	25.65
822.341	25.03
822.514	24.66
822.686	24.33
822.859	24.61
823.031	24.08
823.204	23.79
823.376	23.34
823.549	22.72
823.722	23.04
823.894	22.5
824.067	23.44
824.239	23.14
824.411	23.17
824.584	23.28
824.756	24.36
824.929	23.44
825.101	24.58
825.273	25
825.446	25.78
825.618	25.97
825.79	26.35
825.963	26.56
826.135	26.47
826.307	28.65
826.479	28.24
826.652	26.32
826.824	27.09
826.996	26.46
827.168	27.06
827.34	27.46
827.512	26.27
827.684	27.32
827.856	26.37
828.029	27.09
828.201	25.39
828.373	23.47
828.545	23.96
828.717	24.26
828.889	24.58
829.061	24.12
829.232	23.69
829.404	24.41
829.576	22.36
829.748	20.15
829.92	20.7
830.092	20.77
830.264	27.08
830.436	30.29
830.607	30.32
830.779	28.88
830.951	30.29
831.123	30.71
831.294	29.19
831.466	29.97
831.638	37.09
831.809	36.35
831.981	37.5
832.153	32.97
832.324	32.26
832.496	36.52
832.667	39
832.839	38.39
833.011	41.06
833.182	42.22
833.354	41.44
833.525	39.7
833.697	38.35
833.868	35.84
834.039	37.2
834.211	36.55
834.382	34.43
834.554	35.91
834.725	34.75
834.896	30.41
835.068	31
835.239	29.52
835.41	30.37
835.581	32.25
835.753	35.23
835.924	32.03
836.095	30.41
836.266	29.65
836.438	25.81
836.609	25.57
836.78	29.67
836.951	32.73
837.122	34.38
837.293	33.46
837.464	31.3
837.635	26.95
837.806	29.71
837.977	33.35
838.148	37.98
838.319	40.63
838.49	39.83
838.661	44.41
838.832	40.75
839.003	39.84
839.174	39.28
839.345	36.87
839.516	42.39
839.687	45.11
839.857	41.02
840.028	35.28
840.199	34.22
840.37	36.84
840.54	28.63
840.711	25.87
840.882	25.86
841.053	26.7
841.223	33.68
841.394	32.08
841.564	29.78
841.735	30.83
841.906	28.11
842.076	29.5
842.247	29.31
842.417	32.08
842.588	32.62
842.758	27.28
842.929	24.79
843.099	27.27
843.27	28.17
843.44	32.99
843.611	29.51
843.781	34.9
843.951	34.8
844.122	36.15
844.292	36.25
844.462	44
844.633	57.79
844.803	54.96
844.973	39.16
845.144	41.34
845.314	32.31
845.484	41.53
845.654	39.63
845.824	39.5
845.995	35.6
846.165	25.1
846.335	28.52
846.505	28.98
846.675	41.3
846.845	65.49
847.015	75.34
847.185	87.84
847.355	73.06
847.525	77.9
847.695	72.44
847.865	82.28
848.035	84.02
848.205	83.29
848.375	94.04
848.545	81.15
848.715	80.14
848.884	71.93
849.054	66.95
849.224	80.59
849.394	84.7
849.564	77.9
849.733	68.32
849.903	76.39
850.073	79.23
850.243	68.96
850.412	92.06
850.582	89.73
850.752	91.37
850.921	87.99
851.091	90.3
851.26	74.82
851.43	87.67
851.599	84.13
851.769	76.8
851.939	72.06
852.108	67.7
852.278	64.29
852.447	65.89
852.616	71.93
852.786	78.24
852.955	71.47
853.125	67
853.294	57.48
853.463	65.03
853.633	60.64
853.802	65.74
853.971	74.9
854.141	72.8
854.31	64.97
854.479	76.77
854.648	84.02
854.818	80.92
854.987	95.53
855.156	98.33
855.325	94.49
855.494	95.65
855.663	83.04
855.832	69.42
856.001	77.73
856.171	81.06
856.34	71.44
856.509	63.68
856.678	66.33
856.847	53.12
857.016	53.19
857.185	47.21
857.353	49.13
857.522	59.03
857.691	61.18
857.86	60.01
858.029	49.66
858.198	33.29
858.367	38.36
858.535	35.16
858.704	44.26
858.873	63.46
859.042	62.47
859.21	71.16
859.379	74.94
859.548	83.33
859.717	68.05
859.885	69.22
860.054	78.71
860.222	76.17
860.391	78.29
860.56	83.44
860.728	57.42
860.897	71.32
861.065	62
861.234	53.26
861.402	41.19
861.571	53.6
861.739	43.11
861.908	53.36
862.076	49.86
862.244	48.06
862.413	50.28
862.581	62.01
862.749	61.19
862.918	64.03
863.086	70.29
863.254	78.47
863.423	73.82
863.591	81.86
863.759	75.84
863.927	73.71
864.096	77.55
864.264	71.29
864.432	53.75
864.6	47.79
864.768	54.77
864.936	52.41
865.104	47.84
865.272	54.53
865.44	62.7
865.608	72.44
865.776	79.16
865.944	89.02
866.112	90.43
866.28	114.75
866.448	104.58
866.616	104.79
866.784	119.87
866.952	89.1
867.12	79.42
867.288	64.99
867.455	67.97
867.623	66.04
867.791	43.27
867.959	58.56
868.127	48.6
868.294	55.55
868.462	46.91
868.63	34.54
868.797	49.04
868.965	46.25
869.133	43.55
869.3	39.13
869.468	52.45
869.636	56.69
869.803	46.05
869.971	54.08
870.138	67.38
870.306	76.25
870.473	80.71
870.641	64.93
870.808	78.52
870.975	86
871.143	85.75
871.31	82.58
871.478	83.92
871.645	93.46
871.812	92.27
871.98	77.67
872.147	78.78
872.314	68.7
872.482	63.39
872.649	46.82
872.816	43.92
872.983	40.12
873.15	37.95
873.318	34.46
873.485	24.96
873.652	17.6
873.819	17.11
873.986	18.84
874.153	30.14
874.32	37.31
874.487	42.31
874.654	35.68
874.821	37.4
874.988	42.39
875.155	44.72
875.322	26.47
875.489	44.6
875.656	38.53
875.823	41.46
875.99	38.21
876.157	31.72
876.324	35.81
876.49	33.64
876.657	27.43
876.824	20.87
876.991	29.26
877.157	35.05
877.324	36.13
877.491	38.45
877.658	28.91
877.824	23.67
877.991	29.88
878.157	31.42
878.324	37.51
878.491	54.95
878.657	57.7
878.824	54.17
878.99	54.83
879.157	37.35
879.323	35.56
879.49	40.77
879.656	46.04
879.823	46.24
879.989	45.78
880.156	41.87
880.322	26.85
880.488	26.09
880.655	26.85
880.821	35.91
880.987	44.52
881.154	47.47
881.32	46.29
881.486	45.24
881.652	47.05
881.819	41.82
881.985	45.2
882.151	47.01
882.317	46.56
882.483	44.66
882.649	43.35
882.816	43.68
882.982	41.43
883.148	41.9
883.314	40.58
883.48	38.15
883.646	39.48
883.812	38.71
883.978	40.09
884.144	38.76
884.31	39.51
884.476	38.82
884.642	37.33
884.807	41.5
884.973	39.53
885.139	41.63
885.305	41.41
885.471	41.13
885.637	39.87
885.802	40.84
885.968	42.46
886.134	43.6
886.3	44.43
886.465	46.63
886.631	47.68
886.797	49.59
886.962	49.97
887.128	50.5
887.293	49.75
887.459	55.6
887.625	53.68
887.79	53.13
887.956	49.06
888.121	51.97
888.287	50.56
888.452	38.97
888.618	46.06
888.783	47.95
