Data from 2938098_Reflection_2.txt Node
Date: Sat Jul 11 18:53:03 EDT 2015
User: robert
Spectrometer: USB4E03001
Autoset integration time: false
Trigger mode: 4
Integration Time (sec): 1.000000E-1
Scans to average: 10
Electric dark correction enabled: true
Nonlinearity correction enabled: false
Boxcar width: 5
Stray light correction enabled: false
XAxis mode: Wavelengths
Stop averaging: false
Number of Pixels in Spectrum: 3648
>>>>>Begin Spectral Data<<<<<
177.566	390.1
177.785	575
178.005	1300.8
178.225	401.01
178.445	202.6
178.665	109.27
178.885	141.39
179.105	166.72
179.324	187.67
179.544	306.04
179.764	377.81
179.984	427.27
180.204	324.58
180.423	283.34
180.643	295.7
180.863	211.55
181.083	182.44
181.302	196.54
181.522	349.34
181.742	197.47
181.961	181.41
182.181	434.02
182.401	-17829.63
182.621	-107.36
182.84	-79.81
183.06	-622.76
183.279	-103.19
183.499	-87.58
183.719	1.35
183.938	19.18
184.158	23.41
184.377	21.8
184.597	29.53
184.816	28.15
185.036	-43.89
185.256	-36.88
185.475	9.5
185.695	17.72
185.914	-31.08
186.134	1.64
186.353	-201.56
186.572	-39028.57
186.792	-540.95
187.011	-245.09
187.231	-171.08
187.45	-73.38
187.67	-90.45
187.889	-218.36
188.108	-642.94
188.328	-179.3
188.547	-239.06
188.766	-118.14
188.986	-122.9
189.205	-138.51
189.424	-76.43
189.644	-69.4
189.863	-143.82
190.082	-152.72
190.302	-148.7
190.521	-96.56
190.74	-144.97
190.959	-64.47
191.178	-968.37
191.398	591.35
191.617	215.21
191.836	45.48
192.055	51.71
192.274	17.8
192.494	20.34
192.713	45.78
192.932	23.86
193.151	37.18
193.37	65.69
193.589	29.67
193.808	45.68
194.027	49.66
194.246	113.37
194.465	43.43
194.685	-240.41
194.904	-3427.85
195.123	-358.73
195.342	1242.73
195.561	-2538.25
195.78	200.91
195.999	-919
196.218	566.22
196.436	224.99
196.655	468.55
196.874	290.1
197.093	253.59
197.312	303.51
197.531	1463.2
197.75	3016.28
197.969	-347.82
198.188	-131.62
198.407	631.48
198.625	580.21
198.844	585.61
199.063	243.24
199.282	370.92
199.501	262.09
199.719	219.81
199.938	261.13
200.157	252.04
200.376	275.23
200.594	234.03
200.813	272.77
201.032	543.81
201.251	1301.95
201.469	-628.35
201.688	-461.39
201.907	-340.84
202.125	-352.36
202.344	-381.94
202.563	-393.96
202.781	-368.82
203	-135.49
203.218	-146
203.437	-396.97
203.656	-532.59
203.874	1217.92
204.093	301.17
204.311	371.53
204.53	406.87
204.748	284.07
204.967	937.57
205.185	-691.38
205.404	362.87
205.622	156.76
205.841	342.18
206.059	232.09
206.278	248.68
206.496	-1500.73
206.715	438.93
206.933	313.45
207.151	246.17
207.37	247.5
207.588	511.49
207.806	1223.11
208.025	-331.44
208.243	-672.41
208.461	-336.09
208.68	-488.47
208.898	-6030.57
209.116	1044.11
209.335	1750.38
209.553	-1730.49
209.771	-847.9
209.989	220.38
210.208	349.1
210.426	113.1
210.644	131.24
210.862	191.02
211.081	-851.92
211.299	-977.78
211.517	-96.65
211.735	-128.99
211.953	-116.76
212.171	-125.1
212.39	-38.09
212.608	-96.2
212.826	-44.68
213.044	-34.79
213.262	-73.48
213.48	-115.9
213.698	-172.62
213.916	-265.36
214.134	-414.11
214.352	-279.82
214.57	-276.95
214.788	-276.21
215.006	-160.24
215.224	-223.17
215.442	-376.68
215.66	-461.12
215.878	-505.68
216.096	-614.15
216.314	-318.13
216.532	-160.05
216.75	-194.29
216.968	-82
217.185	-192.08
217.403	-338.83
217.621	-381.97
217.839	-167.62
218.057	-51.73
218.275	-43.17
218.492	-45.85
218.71	-44.65
218.928	-70.69
219.146	-115.98
219.363	-161.45
219.581	-156.25
219.799	-126.94
220.017	-50.39
220.234	-31.48
220.452	-45.24
220.67	-23.25
220.887	-31.46
221.105	-28.46
221.323	9.04
221.54	6.06
221.758	5.01
221.976	10.19
222.193	-17.15
222.411	-30.38
222.629	-60.2
222.846	-89.8
223.064	-66.9
223.281	-40.62
223.499	-45
223.716	-61.61
223.934	-50.63
224.151	-59.36
224.369	-47.54
224.586	-8.23
224.804	-10.99
225.021	-0.49
225.239	8.61
225.456	-16.75
225.674	-6.85
225.891	-16.84
226.108	-17.95
226.326	-9.67
226.543	-22.11
226.76	-16.08
226.978	-14.99
227.195	-12.69
227.413	-22
227.63	-15.77
227.847	-13.46
228.064	-10.76
228.282	-6.34
228.499	-3.05
228.716	-3.74
228.934	-0.98
229.151	-3.17
229.368	-5.21
229.585	-2.82
229.802	-0.21
230.02	-0.76
230.237	2.4
230.454	-0.66
230.671	-1.05
230.888	-3.19
231.105	-5.11
231.323	-3.88
231.54	-4.5
231.757	-5.97
231.974	-6.22
232.191	-7.68
232.408	-9.67
232.625	-16.78
232.842	-17.98
233.059	-14.12
233.276	-18.89
233.493	-11.01
233.71	-11.17
233.927	-10.51
234.144	-12.26
234.361	-15.71
234.578	-10.26
234.795	-14
235.012	-11.15
235.229	-7.5
235.446	-12.32
235.663	-18.13
235.879	-19.16
236.096	-21.78
236.313	-20.87
236.53	-12.7
236.747	-14.6
236.964	-19.14
237.181	-18.6
237.397	-19.08
237.614	-20.12
237.831	-20.62
238.048	-9.13
238.264	-9.98
238.481	-7.87
238.698	-13.16
238.915	-11.85
239.131	-10.6
239.348	-8.16
239.565	-8.7
239.781	-8
239.998	-4.76
240.215	-4.02
240.431	-4.62
240.648	-2.18
240.865	1.07
241.081	3.87
241.298	2.98
241.514	5.15
241.731	6.77
241.947	9.5
242.164	11.3
242.38	9.72
242.597	11.31
242.814	12.2
243.03	11.24
243.246	9.03
243.463	9.3
243.679	9
243.896	8.98
244.112	6.32
244.329	6.02
244.545	4.3
244.762	6.03
244.978	3.02
245.194	4.01
245.411	1.92
245.627	2.11
245.843	3.04
246.06	5.61
246.276	6.2
246.492	8.18
246.709	7.87
246.925	8.13
247.141	7.13
247.357	7.69
247.574	7.7
247.79	7.25
248.006	7.46
248.222	7.4
248.439	7.71
248.655	7.26
248.871	5.68
249.087	3.88
249.303	2.49
249.519	1.42
249.736	0.97
249.952	1.56
250.168	3.95
250.384	4.5
250.6	1.88
250.816	-1.09
251.032	-3.57
251.248	-2.19
251.464	-0.42
251.68	1.11
251.896	2.5
252.112	2.16
252.328	-0.98
252.544	-0.77
252.76	0.16
252.976	1.84
253.192	-0.48
253.408	0.59
253.624	0.66
253.84	-2.5
254.056	1.44
254.272	0.86
254.487	1.68
254.703	-0.91
254.919	-1.02
255.135	-3.57
255.351	-6.55
255.567	-3.75
255.782	-3.52
255.998	-4.36
256.214	3
256.43	-1.31
256.646	0.29
256.861	1.44
257.077	5.63
257.293	3.3
257.508	5.02
257.724	6.34
257.94	7.15
258.155	4.46
258.371	4.76
258.587	3.15
258.802	3.91
259.018	3.74
259.234	2.56
259.449	2.6
259.665	2.7
259.88	2.62
260.096	2.43
260.312	2.76
260.527	4.52
260.743	4.73
260.958	3.56
261.174	3.43
261.389	3.4
261.605	3.5
261.82	2.9
262.036	1.81
262.251	1.25
262.466	0.64
262.682	-1.75
262.897	-3.85
263.113	-4.45
263.328	-3.23
263.543	-2.8
263.759	-1.73
263.974	-0.1
264.189	-0.05
264.405	2.03
264.62	1.56
264.835	1.15
265.051	1.64
265.266	1.69
265.481	1.76
265.696	4.1
265.912	2.49
266.127	1.5
266.342	1.18
266.557	2.26
266.773	2.36
266.988	1.77
267.203	3.4
267.418	4.22
267.633	3.71
267.848	3.02
268.064	1.4
268.279	2
268.494	0.59
268.709	-1.26
268.924	-2.85
269.139	-3.88
269.354	-3.31
269.569	-3.22
269.784	-3.47
269.999	-1.53
270.214	-0.63
270.429	0.02
270.644	0.53
270.859	0.77
271.074	2.57
271.289	3.37
271.504	4.76
271.719	4.95
271.934	5.19
272.149	4.77
272.363	4.46
272.578	4.36
272.793	3.94
273.008	3.08
273.223	3.61
273.438	2.32
273.653	3.58
273.867	2.83
274.082	2.37
274.297	3.07
274.512	3.42
274.726	2.54
274.941	1.07
275.156	0.15
275.371	0.66
275.585	1.81
275.8	2.02
276.015	0.68
276.229	-0.01
276.444	1.8
276.659	-1.1
276.873	-0.67
277.088	-0.76
277.302	1.01
277.517	1.34
277.732	-0.06
277.946	-2.29
278.161	-2.33
278.375	-5.43
278.59	-3.55
278.804	-4.9
279.019	-2.38
279.233	-1.99
279.448	-3
279.662	-1.72
279.877	-1.05
280.091	0.01
280.306	1.98
280.52	2.81
280.735	5.71
280.949	5.02
281.163	3.97
281.378	3.56
281.592	2.7
281.806	3.62
282.021	2.45
282.235	2.68
282.449	2.87
282.664	3.4
282.878	4.96
283.092	4.87
283.307	6.05
283.521	7.34
283.735	6.99
283.949	7.01
284.164	6.05
284.378	6.63
284.592	5.66
284.806	5.3
285.02	3.92
285.234	3.67
285.449	3.69
285.663	3.42
285.877	3.56
286.091	3.13
286.305	4.07
286.519	5.42
286.733	5.39
286.947	7.09
287.161	7.95
287.375	7.48
287.589	6.25
287.803	8.11
288.017	8.52
288.231	7.66
288.445	8.37
288.659	7.4
288.873	6.35
289.087	5.8
289.301	4.98
289.515	3.86
289.729	3.66
289.943	4.21
290.157	1.46
290.371	1.91
290.584	0.38
290.798	0.51
291.012	-0.06
291.226	0.69
291.44	1.73
291.654	1.16
291.867	1.12
292.081	0.94
292.295	0.56
292.509	0.43
292.722	-1.22
292.936	1.34
293.15	0.44
293.364	1.4
293.577	1.27
293.791	-0.14
294.005	0.69
294.218	1.57
294.432	4.35
294.645	4.43
294.859	4.72
295.073	4.34
295.286	3.6
295.5	3.31
295.713	4.58
295.927	4.67
296.14	4.86
296.354	5.56
296.568	5.21
296.781	4.15
296.994	5.1
297.208	4.73
297.421	4.61
297.635	5.16
297.848	5.13
298.062	4.64
298.275	4.98
298.489	5.52
298.702	4.58
298.915	3.97
299.129	3.28
299.342	1.85
299.555	2.1
299.769	3
299.982	2.95
300.195	2.4
300.409	2
300.622	0.99
300.835	1.84
301.048	2.94
301.262	2.44
301.475	3.42
301.688	4.94
301.901	5.06
302.115	5.59
302.328	4.52
302.541	6.48
302.754	7.34
302.967	7.52
303.18	5.04
303.393	5.57
303.607	7.51
303.82	6.65
304.033	4.79
304.246	4.79
304.459	3.11
304.672	3.5
304.885	3.19
305.098	1.99
305.311	3.38
305.524	3
305.737	0.75
305.95	-0.18
306.163	1.37
306.376	3.19
306.589	2.67
306.802	3.95
307.015	3.12
307.228	3.15
307.44	3.26
307.653	1
307.866	3.13
308.079	4.98
308.292	6.73
308.505	5.96
308.718	4.05
308.93	3.69
309.143	2.89
309.356	3.78
309.569	3.36
309.781	4.28
309.994	4.32
310.207	4.99
310.42	4.94
310.632	4.14
310.845	4.24
311.058	3.45
311.27	4.66
311.483	6.03
311.696	6.72
311.908	8.19
312.121	6.66
312.333	7.56
312.546	6.74
312.759	6.56
312.971	6.22
313.184	5.88
313.396	6.34
313.609	6.09
313.821	3.6
314.034	3.59
314.246	1.38
314.459	3.71
314.671	4.14
314.884	3.11
315.096	3.14
315.309	2.43
315.521	2.57
315.733	4.08
315.946	4.88
316.158	6.88
316.371	6.21
316.583	6.43
316.795	4.96
317.008	4.93
317.22	6.36
317.432	5.34
317.644	6.19
317.857	6.25
318.069	7.25
318.281	6.98
318.494	6
318.706	6.78
318.918	8.01
319.13	9.26
319.342	9.18
319.555	8.02
319.767	9.22
319.979	9.67
320.191	11.32
320.403	9.67
320.615	7.3
320.827	7.71
321.039	7.26
321.252	5.77
321.464	4.72
321.676	4.36
321.888	5.35
322.1	5.55
322.312	3.12
322.524	2.29
322.736	1.66
322.948	2.42
323.16	2.65
323.372	2.12
323.584	1.4
323.796	0.39
324.007	0.84
324.219	-0.1
324.431	-0.71
324.643	0.4
324.855	-0.05
325.067	0.82
325.279	1.56
325.491	1.26
325.702	1.06
325.914	3.74
326.126	3.77
326.338	1.47
326.55	2.41
326.761	1.77
326.973	2.42
327.185	2.48
327.396	3.54
327.608	4.74
327.82	4.98
328.032	5.7
328.243	4.71
328.455	5.24
328.666	6.73
328.878	6.6
329.09	7.66
329.301	6.12
329.513	7.25
329.725	6.71
329.936	5.69
330.148	7.44
330.359	8.05
330.571	7.9
330.782	7.54
330.994	8.48
331.205	8.27
331.417	6.95
331.628	8.47
331.84	7.31
332.051	4.44
332.262	4.32
332.474	2.71
332.685	3.09
332.897	1.48
333.108	2.13
333.319	2.07
333.531	2.39
333.742	4.98
333.953	4.07
334.165	6.59
334.376	8.78
334.587	7.3
334.799	7.61
335.01	6.44
335.221	7.88
335.432	8.81
335.644	9.06
335.855	7.74
336.066	5.94
336.277	7.37
336.488	5.16
336.7	5.46
336.911	8.47
337.122	8.18
337.333	9.02
337.544	8.68
337.755	8.5
337.966	8.49
338.177	9.36
338.388	10.1
338.599	9.12
338.811	6.67
339.022	5.77
339.233	3.85
339.444	3.84
339.655	1.82
339.866	2.13
340.076	1.15
340.287	0.05
340.498	0.99
340.709	0.12
340.92	-0.38
341.131	3.52
341.342	4.84
341.553	5.79
341.764	5.29
341.975	6
342.185	4.64
342.396	4.83
342.607	6.01
342.818	4.69
343.029	5.05
343.239	6.33
343.45	5.18
343.661	4.06
343.872	5.53
344.082	7.33
344.293	8.31
344.504	8.8
344.714	8.16
344.925	8
345.136	9.68
345.346	9.65
345.557	9.04
345.768	9.15
345.978	10.72
346.189	7.87
346.399	7.09
346.61	6.66
346.821	6.9
347.031	7.04
347.242	5.68
347.452	4.85
347.663	4.83
347.873	5.17
348.084	5.94
348.294	4.32
348.504	4.93
348.715	3.43
348.925	3.7
349.136	4.54
349.346	4.85
349.557	5.99
349.767	5.88
349.977	4.58
350.188	5.02
350.398	4.83
350.608	6.64
350.819	7.18
351.029	8.97
351.239	9.24
351.449	9.33
351.66	10.31
351.87	11.33
352.08	10.58
352.29	11.7
352.501	11.06
352.711	11.3
352.921	9.56
353.131	9.8
353.341	9.28
353.552	8.79
353.762	8.05
353.972	7.33
354.182	6.31
354.392	7.06
354.602	7.53
354.812	8.47
355.022	7.8
355.232	8.43
355.442	7.27
355.652	7.18
355.862	6.88
356.072	7.65
356.282	7.33
356.492	7.43
356.702	7.58
356.912	7.12
357.122	6.42
357.332	6.21
357.542	6.61
357.752	7.34
357.962	6.85
358.171	6.57
358.381	6.09
358.591	6.75
358.801	6.99
359.011	7.11
359.221	7.49
359.43	7.06
359.64	6.92
359.85	6.01
360.06	5.44
360.269	6.08
360.479	5.93
360.689	6.33
360.899	5.99
361.108	5.4
361.318	4.7
361.528	4.42
361.737	5.17
361.947	5.35
362.156	5.52
362.366	6.37
362.576	6.15
362.785	6.37
362.995	5.86
363.204	6.39
363.414	5.79
363.623	6.17
363.833	5.74
364.042	5.09
364.252	5.46
364.461	5.47
364.671	4.92
364.88	5.28
365.09	6.15
365.299	6.3
365.509	6.26
365.718	7.11
365.927	7.24
366.137	7.53
366.346	7.51
366.555	6.38
366.765	5.56
366.974	5.41
367.183	5.37
367.393	4.74
367.602	4.48
367.811	3.61
368.021	2.97
368.23	2.99
368.439	3.46
368.648	3.35
368.857	4.37
369.067	4.96
369.276	4.81
369.485	3.47
369.694	3.56
369.903	3.07
370.112	3.26
370.321	4.14
370.531	3.82
370.74	3.71
370.949	4.14
371.158	3.71
371.367	3.88
371.576	4.08
371.785	4.24
371.994	4
372.203	4.37
372.412	4.19
372.621	3.76
372.83	4.7
373.039	4.98
373.248	5.25
373.457	4.93
373.666	5.08
373.874	4.83
374.083	5.24
374.292	5.55
374.501	6.25
374.71	6.52
374.919	7.12
375.128	6.13
375.336	6.09
375.545	5.36
375.754	6.1
375.963	5.75
376.171	6.07
376.38	6.66
376.589	6.04
376.798	5.89
377.006	5.37
377.215	4.73
377.424	4.74
377.632	3.82
377.841	4.41
378.05	3.85
378.258	4.06
378.467	3.9
378.675	3.39
378.884	3.88
379.093	3.41
379.301	3.92
379.51	4.19
379.718	3.89
379.927	4.51
380.135	3.7
380.344	3.91
380.552	3.96
380.761	3.82
380.969	3.94
381.177	3.37
381.386	3.73
381.594	3.9
381.803	3.85
382.011	4.54
382.219	4.12
382.428	4.34
382.636	3.83
382.845	3.02
383.053	3.39
383.261	3.42
383.469	3.54
383.678	3.22
383.886	2.68
384.094	2.88
384.302	2.89
384.511	2.8
384.719	3.04
384.927	3.59
385.135	3.65
385.343	3.57
385.552	3.09
385.76	3.43
385.968	3.56
386.176	3.59
386.384	3.5
386.592	3.25
386.8	3.27
387.008	3.5
387.216	3.18
387.424	3.54
387.633	3.53
387.841	3.51
388.049	3.37
388.257	3.33
388.465	3.25
388.672	3.11
388.88	3.17
389.088	3.89
389.296	3.12
389.504	2.89
389.712	3.44
389.92	2.59
390.128	2.63
390.336	2.83
390.544	3.18
390.751	3.13
390.959	3.06
391.167	3.16
391.375	2.57
391.583	2.72
391.79	3.07
391.998	2.6
392.206	3.41
392.414	3.74
392.621	3.91
392.829	3.66
393.037	4.02
393.244	4.09
393.452	4
393.66	3.91
393.867	4.08
394.075	4.01
394.283	3.86
394.49	3.74
394.698	3.7
394.905	3.24
395.113	3.06
395.32	3.17
395.528	3.18
395.735	2.67
395.943	2.7
396.15	2.34
396.358	2.64
396.565	2.59
396.773	2.26
396.98	2.21
397.188	2.55
397.395	2.83
397.602	2.55
397.81	2.66
398.017	3.13
398.225	3.58
398.432	3.9
398.639	3.53
398.847	3.88
399.054	4.29
399.261	4.05
399.468	4.01
399.676	3.83
399.883	3.58
400.09	3.25
400.297	3.33
400.505	2.89
400.712	2.57
400.919	2.67
401.126	2.28
401.333	1.8
401.54	1.72
401.748	1.74
401.955	1.44
402.162	1.72
402.369	1.98
402.576	1.95
402.783	2.11
402.99	2.2
403.197	2.14
403.404	2.31
403.611	2.61
403.818	2.49
404.025	2.38
404.232	2.7
404.439	2.53
404.646	2.66
404.853	2.61
405.06	2.7
405.267	2.96
405.474	2.75
405.681	2.71
405.887	2.46
406.094	2.72
406.301	2.66
406.508	2.7
406.715	2.81
406.922	2.69
407.128	2.69
407.335	2.43
407.542	2.3
407.749	2.69
407.955	2.97
408.162	2.93
408.369	3.37
408.575	3.17
408.782	3.01
408.989	3.09
409.195	2.85
409.402	2.63
409.609	2.81
409.815	2.73
410.022	2.31
410.228	1.8
410.435	1.8
410.642	1.61
410.848	1.89
411.055	2.1
411.261	1.79
411.468	1.5
411.674	1.55
411.881	1.61
412.087	1.68
412.294	1.67
412.5	1.84
412.706	2.05
412.913	1.83
413.119	1.37
413.326	1
413.532	1.23
413.738	1.6
413.945	1.7
414.151	1.59
414.357	1.61
414.564	1.64
414.77	1.61
414.976	1.42
415.182	1.34
415.389	1.72
415.595	1.92
415.801	1.86
416.007	2.19
416.214	2.16
416.42	2.23
416.626	2.06
416.832	2.28
417.038	2.33
417.244	2.6
417.45	2.78
417.657	2.68
417.863	2.74
418.069	2.95
418.275	2.73
418.481	2.62
418.687	2.55
418.893	2.85
419.099	2.76
419.305	2.72
419.511	2.52
419.717	2.5
419.923	2.47
420.129	2.45
420.335	2.22
420.541	2.29
420.746	2.33
420.952	2.35
421.158	2.33
421.364	2.34
421.57	2.44
421.776	2.57
421.982	2.39
422.187	2.57
422.393	2.52
422.599	2.65
422.805	2.56
423.01	2.65
423.216	2.69
423.422	2.61
423.628	2.62
423.833	2.57
424.039	2.49
424.245	2.64
424.45	2.54
424.656	2.62
424.862	2.59
425.067	2.65
425.273	2.63
425.478	2.58
425.684	2.55
425.889	2.65
426.095	2.62
426.301	2.71
426.506	2.65
426.712	2.61
426.917	2.5
427.123	2.39
427.328	2.35
427.533	2.32
427.739	2.13
427.944	2.17
428.15	2.16
428.355	2.02
428.561	1.91
428.766	1.86
428.971	1.77
429.177	1.82
429.382	1.79
429.587	1.84
429.793	1.65
429.998	1.93
430.203	1.97
430.408	1.74
430.614	1.83
430.819	2.05
431.024	2.05
431.229	2.21
431.434	2
431.64	2.16
431.845	2.27
432.05	2.32
432.255	2.13
432.46	1.9
432.665	2.07
432.87	2.22
433.076	2.03
433.281	2.07
433.486	2.02
433.691	2.02
433.896	2.05
434.101	2
434.306	2.05
434.511	2.12
434.716	2.23
434.921	2.31
435.126	2.17
435.331	2.19
435.535	2.2
435.74	2.2
435.945	2.46
436.15	2.29
436.355	2.42
436.56	2.5
436.765	2.62
436.97	2.55
437.174	2.26
437.379	2.39
437.584	2.44
437.789	2.47
437.993	2.25
438.198	2.26
438.403	2.48
438.608	2.44
438.812	2.13
439.017	2.14
439.222	2.19
439.426	2.41
439.631	2.3
439.836	2.42
440.04	2.49
440.245	2.59
440.45	2.34
440.654	2.25
440.859	2.13
441.063	2.31
441.268	2.25
441.472	2.21
441.677	2.12
441.881	2.18
442.086	2.12
442.29	2.04
442.495	2.18
442.699	2.41
442.904	2.5
443.108	2.43
443.312	2.28
443.517	2.19
443.721	2.39
443.925	2.34
444.13	2.34
444.334	2.24
444.538	2.28
444.743	2.2
444.947	1.99
445.151	2.05
445.356	2.06
445.56	2.18
445.764	2.14
445.968	1.95
446.173	1.92
446.377	2.02
446.581	1.95
446.785	1.98
446.989	1.86
447.193	2.01
447.398	1.78
447.602	1.79
447.806	1.83
448.01	1.9
448.214	1.93
448.418	2.03
448.622	1.72
448.826	1.67
449.03	1.6
449.234	1.79
449.438	1.61
449.642	1.63
449.846	1.46
450.05	1.37
450.254	1.37
450.458	1.33
450.662	1.34
450.866	1.53
451.069	1.78
451.273	1.85
451.477	1.69
451.681	1.71
451.885	1.82
452.089	1.99
452.292	1.99
452.496	2.06
452.7	2.12
452.904	2.03
453.107	2.09
453.311	1.93
453.515	1.73
453.719	1.77
453.922	1.72
454.126	1.66
454.33	1.53
454.533	1.65
454.737	1.67
454.94	1.73
455.144	1.63
455.348	1.74
455.551	1.77
455.755	2.01
455.958	1.96
456.162	2.08
456.365	2.11
456.569	2.32
456.772	2.19
456.976	1.98
457.179	2.11
457.383	2.02
457.586	1.99
457.79	2.01
457.993	1.74
458.196	1.96
458.4	1.96
458.603	1.95
458.807	1.87
459.01	2.03
459.213	2.16
459.417	2.2
459.62	2.28
459.823	2.12
460.026	2.22
460.23	2.47
460.433	2.4
460.636	2.56
460.839	2.64
461.042	2.66
461.246	2.54
461.449	2.58
461.652	2.52
461.855	2.57
462.058	2.64
462.261	2.41
462.464	2.24
462.668	2.19
462.871	2.01
463.074	1.96
463.277	1.85
463.48	1.96
463.683	1.85
463.886	1.72
464.089	1.69
464.292	1.65
464.495	1.73
464.698	1.51
464.901	1.67
465.104	1.64
465.306	1.49
465.509	1.69
465.712	1.52
465.915	1.63
466.118	1.66
466.321	1.63
466.524	1.84
466.726	1.97
466.929	1.92
467.132	1.71
467.335	1.7
467.538	1.68
467.74	1.53
467.943	1.57
468.146	1.45
468.348	1.51
468.551	1.4
468.754	1.19
468.956	1.06
469.159	1.18
469.362	1.07
469.564	0.91
469.767	1.07
469.969	0.93
470.172	0.89
470.375	0.85
470.577	0.77
470.78	1.07
470.982	1.09
471.185	1.28
471.387	1.4
471.59	1.55
471.792	1.82
471.995	1.82
472.197	1.95
472.399	1.94
472.602	2.12
472.804	2.18
473.007	2.23
473.209	2.31
473.411	2.2
473.614	2.07
473.816	2.18
474.018	2.07
474.22	1.78
474.423	1.93
474.625	2.08
474.827	1.87
475.03	1.78
475.232	1.59
475.434	1.66
475.636	1.69
475.838	1.77
476.04	1.72
476.243	1.87
476.445	2.12
476.647	1.97
476.849	1.88
477.051	1.87
477.253	1.83
477.455	1.82
477.657	1.79
477.859	1.76
478.061	1.91
478.263	1.93
478.465	1.7
478.667	1.71
478.869	1.8
479.071	1.85
479.273	1.9
479.475	1.98
479.677	2.01
479.879	2.08
480.081	2.18
480.283	2.09
480.485	2.08
480.686	2.09
480.888	2.13
481.09	2.03
481.292	2
481.494	2.05
481.695	2
481.897	2
482.099	1.9
482.301	1.92
482.502	2.01
482.704	2.01
482.906	2.13
483.107	2.09
483.309	2.11
483.511	2.13
483.712	2.19
483.914	2.21
484.115	2.23
484.317	2.25
484.519	2.2
484.72	2.14
484.922	2.19
485.123	2.15
485.325	2.15
485.526	2.19
485.728	2.19
485.929	2.18
486.131	2.21
486.332	2.21
486.534	2.24
486.735	2.27
486.936	2.32
487.138	2.26
487.339	2.25
487.541	2.28
487.742	2.26
487.943	2.29
488.144	2.2
488.346	2.22
488.547	2.15
488.748	2.15
488.95	2.19
489.151	2.23
489.352	2.18
489.553	2.15
489.755	2.21
489.956	2.14
490.157	2.12
490.358	2.24
490.559	2.11
490.76	2.19
490.961	2.25
491.163	2.31
491.364	2.24
491.565	2.28
491.766	2.3
491.967	2.21
492.168	2.22
492.369	2.21
492.57	2.18
492.771	2.33
492.972	2.27
493.173	2.2
493.374	2.15
493.575	2.13
493.776	2.1
493.976	2.08
494.177	2.19
494.378	2.23
494.579	2.16
494.78	2.14
494.981	1.94
495.182	2.09
495.382	2.17
495.583	2.09
495.784	2.2
495.985	2.21
496.185	2.21
496.386	2.11
496.587	2.07
496.788	2.08
496.988	1.99
497.189	2.02
497.39	1.84
497.59	1.63
497.791	1.68
497.992	1.65
498.192	1.74
498.393	1.69
498.593	1.73
498.794	1.85
498.994	1.88
499.195	1.84
499.395	1.97
499.596	2.05
499.796	2.28
499.997	2.08
500.197	2.02
500.398	1.95
500.598	2.02
500.799	2.07
500.999	1.99
501.199	2.01
501.4	2.28
501.6	2.26
501.801	2.26
502.001	2.27
502.201	2.4
502.402	2.26
502.602	2.2
502.802	2.26
503.002	2.26
503.203	2.34
503.403	2.14
503.603	2.05
503.803	1.97
504.003	2.09
504.204	2.15
504.404	2.29
504.604	2.45
504.804	2.48
505.004	2.39
505.204	2.34
505.404	2.44
505.604	2.57
505.804	2.54
506.005	2.48
506.205	2.55
506.405	2.31
506.605	2.23
506.805	2.17
507.005	2.24
507.204	2.29
507.404	2.28
507.604	2.17
507.804	2.31
508.004	2.17
508.204	2.24
508.404	2.15
508.604	2.24
508.804	2.27
509.003	2.4
509.203	2.41
509.403	2.5
509.603	2.57
509.803	2.55
510.002	2.51
510.202	2.69
510.402	2.74
510.602	2.64
510.801	2.6
511.001	2.57
511.201	2.45
511.4	2.49
511.6	2.42
511.8	2.42
511.999	2.53
512.199	2.52
512.398	2.42
512.598	2.4
512.797	2.44
512.997	2.53
513.197	2.38
513.396	2.46
513.596	2.27
513.795	2.38
513.994	2.43
514.194	2.46
514.393	2.37
514.593	2.47
514.792	2.54
514.992	2.63
515.191	2.71
515.39	2.84
515.59	2.73
515.789	2.98
515.988	2.9
516.188	2.77
516.387	2.68
516.586	2.82
516.786	2.75
516.985	2.66
517.184	2.68
517.383	2.51
517.582	2.72
517.782	2.9
517.981	2.92
518.18	2.95
518.379	3.04
518.578	3.04
518.777	3.04
518.976	3.03
519.176	3.06
519.375	3.06
519.574	3.25
519.773	3.01
519.972	2.99
520.171	2.87
520.37	2.88
520.569	3.04
520.768	3.03
520.967	3.04
521.166	3.07
521.365	3.03
521.564	3.11
521.762	2.96
521.961	3.21
522.16	3.12
522.359	3.13
522.558	3.12
522.757	2.92
522.956	2.88
523.154	2.81
523.353	2.91
523.552	3.02
523.751	2.89
523.949	2.88
524.148	2.67
524.347	2.72
524.546	2.72
524.744	2.79
524.943	2.86
525.142	2.82
525.34	2.93
525.539	2.96
525.737	2.89
525.936	2.87
526.135	2.97
526.333	3.12
526.532	3.18
526.73	3.15
526.929	3.13
527.127	3.14
527.326	3.26
527.524	3.24
527.723	3.25
527.921	3.31
528.12	3.38
528.318	3.46
528.516	3.45
528.715	3.41
528.913	3.53
529.112	3.56
529.31	3.53
529.508	3.51
529.707	3.55
529.905	3.56
530.103	3.58
530.301	3.58
530.5	3.48
530.698	3.46
530.896	3.5
531.094	3.46
531.293	3.42
531.491	3.46
531.689	3.44
531.887	3.36
532.085	3.36
532.283	3.38
532.481	3.39
532.68	3.47
532.878	3.52
533.076	3.59
533.274	3.55
533.472	3.51
533.67	3.56
533.868	3.61
534.066	3.75
534.264	3.66
534.462	3.71
534.66	3.72
534.858	3.67
535.056	3.75
535.253	3.74
535.451	3.82
535.649	4.05
535.847	4.05
536.045	4.09
536.243	4
536.441	4.16
536.638	4.11
536.836	4.2
537.034	4.18
537.232	4.05
537.43	4.12
537.627	4.06
537.825	3.99
538.023	3.99
538.22	4.08
538.418	4.15
538.616	4.16
538.813	4.25
539.011	4.17
539.209	4.37
539.406	4.51
539.604	4.43
539.801	4.59
539.999	4.54
540.196	4.7
540.394	4.62
540.591	4.59
540.789	4.65
540.986	4.63
541.184	4.69
541.381	4.67
541.579	4.67
541.776	4.77
541.974	4.76
542.171	4.75
542.368	4.69
542.566	4.69
542.763	4.7
542.96	4.69
543.158	4.76
543.355	4.79
543.552	4.74
543.75	4.8
543.947	4.72
544.144	4.72
544.341	4.82
544.539	4.83
544.736	4.81
544.933	4.88
545.13	4.82
545.327	4.73
545.524	4.64
545.722	4.8
545.919	4.74
546.116	4.84
546.313	4.88
546.51	4.88
546.707	4.92
546.904	5.06
547.101	5.01
547.298	5.17
547.495	5.19
547.692	5.21
547.889	5.05
548.086	5.11
548.283	5.14
548.48	4.98
548.677	5.03
548.874	5.01
549.07	4.85
549.267	5.15
549.464	5.01
549.661	5
549.858	5.05
550.055	5.15
550.251	5.26
550.448	5.12
550.645	5.18
550.842	5.09
551.038	5.2
551.235	5.28
551.432	5.08
551.628	5.26
551.825	5.47
552.022	5.57
552.218	5.63
552.415	5.48
552.612	5.43
552.808	5.67
553.005	5.86
553.201	5.9
553.398	6.01
553.594	5.97
553.791	5.98
553.987	5.88
554.184	6
554.38	5.89
554.577	5.93
554.773	5.96
554.97	5.93
555.166	5.83
555.362	5.85
555.559	5.76
555.755	5.9
555.952	5.93
556.148	5.98
556.344	5.9
556.541	6.03
556.737	6.1
556.933	6.36
557.129	6.24
557.326	6.41
557.522	6.48
557.718	6.8
557.914	6.76
558.11	6.79
558.307	6.87
558.503	6.93
558.699	7.17
558.895	7.24
559.091	7.22
559.287	7.47
559.483	7.55
559.679	7.59
559.876	7.61
560.072	7.81
560.268	7.79
560.464	7.88
560.66	8.05
560.856	8.1
561.052	8.19
561.247	8.34
561.443	8.47
561.639	8.56
561.835	8.64
562.031	8.47
562.227	8.51
562.423	8.69
562.619	8.78
562.815	8.65
563.01	8.65
563.206	8.7
563.402	8.58
563.598	8.57
563.793	8.47
563.989	8.52
564.185	8.83
564.381	8.88
564.576	8.98
564.772	9.04
564.968	9.01
565.163	8.95
565.359	8.87
565.555	9.06
565.75	9.12
565.946	9.32
566.141	9.47
566.337	9.44
566.532	9.38
566.728	9.32
566.923	9.32
567.119	9.42
567.314	9.59
567.51	9.87
567.705	9.86
567.901	9.7
568.096	9.62
568.292	9.77
568.487	9.77
568.682	9.7
568.878	9.7
569.073	9.82
569.268	10.02
569.464	9.95
569.659	9.9
569.854	9.98
570.05	10.31
570.245	10.38
570.44	10.22
570.635	10.13
570.831	10.25
571.026	10.51
571.221	10.24
571.416	10.06
571.611	10.28
571.806	10.18
572.002	10.19
572.197	10.03
572.392	10.17
572.587	10.01
572.782	10.26
572.977	10.43
573.172	10.42
573.367	10.69
573.562	10.85
573.757	10.75
573.952	10.92
574.147	11.05
574.342	11.1
574.537	11.03
574.732	11.14
574.927	11.05
575.121	10.98
575.316	10.98
575.511	11.06
575.706	11.3
575.901	11.36
576.096	11.46
576.29	11.54
576.485	11.47
576.68	11.57
576.875	11.77
577.069	12.09
577.264	12.06
577.459	12.19
577.654	11.99
577.848	11.8
578.043	11.8
578.238	11.91
578.432	11.74
578.627	11.82
578.821	11.7
579.016	11.6
579.21	11.04
579.405	11.31
579.6	10.94
579.794	11.11
579.989	11.25
580.183	11.32
580.378	11.15
580.572	11.08
580.766	11.23
580.961	11.23
581.155	11.21
581.35	11.59
581.544	11.53
581.738	12
581.933	11.97
582.127	11.89
582.321	11.79
582.516	11.83
582.71	11.73
582.904	12
583.099	12.23
583.293	12.57
583.487	12.4
583.681	12.32
583.875	11.71
584.07	11.7
584.264	11.81
584.458	11.9
584.652	11.89
584.846	12.22
585.04	12.14
585.234	12.04
585.428	11.84
585.623	11.91
585.817	12.05
586.011	12.43
586.205	12.61
586.399	12.58
586.593	12.76
586.787	12.98
586.981	13.04
587.174	12.98
587.368	13.21
587.562	13.16
587.756	13.37
587.95	13.68
588.144	13.79
588.338	13.86
588.532	13.75
588.725	13.69
588.919	13.79
589.113	13.63
589.307	13.7
589.501	13.41
589.694	13.73
589.888	13.57
590.082	13.51
590.275	13.4
590.469	13.4
590.663	13.74
590.856	13.76
591.05	13.78
591.244	13.91
591.437	13.93
591.631	14.09
591.824	13.86
592.018	13.96
592.212	13.5
592.405	13.33
592.599	13.12
592.792	12.88
592.986	12.95
593.179	12.5
593.372	12.39
593.566	12.36
593.759	12.38
593.953	12.23
594.146	12.14
594.339	12.38
594.533	12.49
594.726	12.71
594.92	13
595.113	13.03
595.306	13.49
595.499	13.71
595.693	13.83
595.886	13.81
596.079	14.31
596.272	14.62
596.466	14.74
596.659	14.73
596.852	14.77
597.045	14.5
597.238	14.35
597.431	14.03
597.624	14
597.818	13.82
598.011	13.85
598.204	13.62
598.397	13.23
598.59	13.12
598.783	13.07
598.976	12.91
599.169	13.03
599.362	13.04
599.555	13.28
599.748	13.22
599.941	13.53
600.134	13.2
600.326	13
600.519	13.32
600.712	13.22
600.905	13.42
601.098	13.56
601.291	13.58
601.483	13.95
601.676	14
601.869	14.08
602.062	13.84
602.255	14.21
602.447	14.3
602.64	14.16
602.833	14.06
603.025	14.07
603.218	14.09
603.411	14.22
603.603	13.93
603.796	13.78
603.989	13.64
604.181	13.78
604.374	13.62
604.566	13.75
604.759	13.77
604.951	13.99
605.144	13.97
605.336	13.93
605.529	13.79
605.721	14.03
605.914	14.11
606.106	14.31
606.299	14.17
606.491	14.18
606.683	14.1
606.876	14.31
607.068	14.33
607.26	14.13
607.453	13.96
607.645	13.83
607.837	13.67
608.03	13.69
608.222	13.82
608.414	13.81
608.606	14.06
608.799	13.98
608.991	13.82
609.183	13.65
609.375	13.8
609.567	13.81
609.759	14
609.952	14.15
610.144	14.21
610.336	13.98
610.528	13.99
610.72	13.81
610.912	13.79
611.104	13.84
611.296	13.88
611.488	14.12
611.68	14.17
611.872	14.31
612.064	14.12
612.256	14.04
612.448	14.36
612.64	14.37
612.832	14.24
613.023	14.63
613.215	14.55
613.407	14.56
613.599	14.37
613.791	14.37
613.983	13.96
614.174	14.1
614.366	14.17
614.558	13.77
614.75	14
614.941	14.2
615.133	13.98
615.325	14.09
615.516	14.43
615.708	14.34
615.9	14.28
616.091	14.29
616.283	14.25
616.475	14.23
616.666	14.38
616.858	14.26
617.049	14.1
617.241	14.32
617.432	14.46
617.624	14.17
617.815	14.51
618.007	14.56
618.198	14.82
618.39	14.62
618.581	15.06
618.773	14.99
618.964	14.84
619.155	15.1
619.347	14.99
619.538	15.01
619.729	15.29
619.921	15.06
620.112	15.2
620.303	15.02
620.494	15.24
620.686	15.12
620.877	15.14
621.068	15.37
621.259	15.56
621.451	15.36
621.642	15.01
621.833	14.89
622.024	15.14
622.215	15.05
622.406	15.16
622.597	15.1
622.788	14.7
622.98	14.69
623.171	14.8
623.362	14.59
623.553	14.6
623.744	14.58
623.935	14.49
624.126	13.91
624.317	14.23
624.508	14.21
624.698	14.33
624.889	14.5
625.08	14.71
625.271	14.44
625.462	14.41
625.653	14.34
625.844	14.5
626.034	14.58
626.225	14.79
626.416	14.52
626.607	14.76
626.798	14.6
626.988	14.65
627.179	14.72
627.37	14.91
627.56	14.72
627.751	14.94
627.942	14.69
628.132	14.43
628.323	14.53
628.514	15.01
628.704	15.12
628.895	15.21
629.085	15.22
629.276	14.87
629.466	14.82
629.657	15.22
629.847	14.94
630.038	15.08
630.228	15.35
630.419	15.4
630.609	14.73
630.8	14.31
630.99	14.35
631.181	14.16
631.371	14.43
631.561	14.32
631.752	14
631.942	14.03
632.132	14.01
632.323	14.27
632.513	14.22
632.703	14.49
632.893	14.86
633.084	14.83
633.274	14.79
633.464	14.74
633.654	14.7
633.844	14.61
634.034	14.81
634.225	14.96
634.415	14.74
634.605	14.88
634.795	15.24
634.985	15.04
635.175	15.23
635.365	15.38
635.555	15.43
635.745	15.66
635.935	16
636.125	15.97
636.315	16.04
636.505	15.84
636.695	15.59
636.885	15.29
637.075	15.41
637.265	15.15
637.455	15.44
637.644	15.25
637.834	14.93
638.024	14.58
638.214	14.51
638.404	14.4
638.593	14.82
638.783	14.64
638.973	14.69
639.163	14.49
639.352	14.8
639.542	14.3
639.732	14.57
639.921	15.15
640.111	15.59
640.301	15.79
640.49	16.04
640.68	15.89
640.87	16.35
641.059	16.48
641.249	16.46
641.438	15.95
641.628	15.82
641.817	15.71
642.007	15.28
642.196	15.26
642.386	15
642.575	14.58
642.764	14.53
642.954	14.33
643.143	14.18
643.333	14.15
643.522	14.05
643.711	14.53
643.901	14.64
644.09	14.9
644.279	14.56
644.469	14.71
644.658	15.13
644.847	15.07
645.036	15.58
645.226	15.65
645.415	15.62
645.604	16.16
645.793	15.59
645.982	15.55
646.171	15.43
646.361	15.7
646.55	15.94
646.739	15.79
646.928	15.86
647.117	15.57
647.306	15.17
647.495	15.2
647.684	14.87
647.873	14.85
648.062	14.71
648.251	14.76
648.44	14.72
648.629	14.62
648.818	14.91
649.007	15.26
649.196	15.42
649.384	16.18
649.573	16.32
649.762	16.3
649.951	16.63
650.14	16.33
650.328	16.34
650.517	16.12
650.706	16.22
650.895	16.18
651.083	15.81
651.272	15.33
651.461	15.14
651.65	15.22
651.838	15.1
652.027	15.43
652.216	16.03
652.404	15.96
652.593	16.26
652.781	16.12
652.97	16.17
653.158	16.11
653.347	16.21
653.535	15.5
653.724	15.39
653.912	15.83
654.101	15.48
654.289	15.1
654.478	14.99
654.666	14.69
654.855	14.98
655.043	14.46
655.231	14.04
655.42	13.73
655.608	14.28
655.796	14.21
655.985	14.45
656.173	14.46
656.361	14.47
656.55	14.86
656.738	15.05
656.926	14.59
657.114	14.58
657.302	15.08
657.491	15.67
657.679	15.29
657.867	15.15
658.055	14.32
658.243	14.25
658.431	14.31
658.619	14.2
658.807	14.26
658.996	14.46
659.184	14.83
659.372	14.83
659.56	14.64
659.748	15.08
659.936	15.36
660.124	15.69
660.311	15.9
660.499	16
660.687	15.94
660.875	15.82
661.063	15.93
661.251	15.77
661.439	15.84
661.627	16.1
661.814	15.9
662.002	15.96
662.19	15.9
662.378	15.88
662.565	15.74
662.753	15.83
662.941	15.9
663.129	15.3
663.316	15.08
663.504	15.04
663.692	14.9
663.879	14.89
664.067	14.5
664.254	14.13
664.442	14.35
664.63	14.31
664.817	14.15
665.005	14.39
665.192	14.78
665.38	14.89
665.567	14.75
665.755	14.99
665.942	14.71
666.13	15.11
666.317	15.5
666.504	15.21
666.692	15.57
666.879	15.64
667.067	15.62
667.254	15.48
667.441	15.3
667.629	15.34
667.816	15.16
668.003	15.59
668.19	15.49
668.378	15.75
668.565	15.63
668.752	15.47
668.939	15.73
669.127	15.17
669.314	15.19
669.501	15.24
669.688	15.51
669.875	14.96
670.062	14.78
670.249	14.63
670.436	14.9
670.623	15.2
670.81	14.89
670.997	14.36
671.184	14.97
671.371	14.87
671.558	15.52
671.745	15.15
671.932	15.88
672.119	16.2
672.306	16.18
672.493	16.02
672.68	15.78
672.867	15.98
673.054	16.84
673.24	16.8
673.427	17.54
673.614	17.22
673.801	17.33
673.988	17.03
674.174	16.89
674.361	16.81
674.548	16.94
674.734	16.79
674.921	16.95
675.108	16.02
675.294	15.4
675.481	14.78
675.668	14.42
675.854	14.37
676.041	14.37
676.227	14.47
676.414	15.02
676.601	14.44
676.787	14.73
676.974	14.58
677.16	15.11
677.347	15.83
677.533	15.66
677.719	16.01
677.906	16.22
678.092	16.15
678.279	15.53
678.465	15.29
678.651	15.45
678.838	15.26
679.024	15.32
679.21	15.2
679.397	14.76
679.583	15.54
679.769	15.5
679.955	15.24
680.142	15.59
680.328	15.87
680.514	15.72
680.7	15.98
680.886	16.46
681.073	16.53
681.259	16.86
681.445	16.86
681.631	16.38
681.817	16.31
682.003	16.18
682.189	16.03
682.375	16.46
682.561	16.74
682.747	16.31
682.933	16.24
683.119	16.49
683.305	16.04
683.491	15.91
683.677	15.88
683.863	15.94
684.049	16.19
684.235	16.3
684.42	15.89
684.606	15.74
684.792	16.22
684.978	15.7
685.164	15.31
685.349	15.5
685.535	16.19
685.721	16.26
685.907	16.34
686.092	16.59
686.278	16.26
686.464	16.2
686.649	16.05
686.835	15.98
687.021	16.24
687.206	16.33
687.392	16.32
687.577	15.94
687.763	15.88
687.948	15.75
688.134	15.61
688.319	15.9
688.505	15.63
688.69	15.31
688.876	15.66
689.061	15.69
689.247	15.34
689.432	15.03
689.618	15.39
689.803	15.48
689.988	15.65
690.174	15.95
690.359	15.49
690.544	16.31
690.73	16.58
690.915	16.36
691.1	16.13
691.285	16.39
691.471	16.23
691.656	15.57
691.841	15.61
692.026	15.79
692.211	15.66
692.396	15.72
692.582	14.92
692.767	15.03
692.952	14.37
693.137	14.33
693.322	14.56
693.507	14.69
693.692	14.93
693.877	14.77
694.062	14.11
694.247	13.93
694.432	14.56
694.617	14.67
694.802	14.96
694.987	15.19
695.172	15.02
695.357	15.3
695.541	16.01
695.726	16.03
695.911	16.18
696.096	16.29
696.281	16.67
696.466	16.05
696.65	16.55
696.835	16.45
697.02	16.93
697.204	17.2
697.389	16.91
697.574	16.74
697.759	17.03
697.943	17.03
698.128	17.03
698.312	16.77
698.497	17.17
698.682	16.69
698.866	16.64
699.051	16.45
699.235	16.4
699.42	16.47
699.604	16.48
699.789	16.65
699.973	16.42
700.158	16.8
700.342	16.52
700.527	16.43
700.711	16.81
700.895	17
701.08	17.51
701.264	16.97
701.448	16.51
701.633	15.94
701.817	15.23
702.001	15.27
702.186	14.91
702.37	15.1
702.554	14.64
702.738	14.66
702.923	14.43
703.107	14.01
703.291	15.2
703.475	14.56
703.659	14.24
703.843	14.17
704.027	14.28
704.212	14.31
704.396	14.92
704.58	15.17
704.764	15.27
704.948	15.55
705.132	14.96
705.316	14.58
705.5	15.83
705.684	16.26
705.868	17.02
706.052	17.87
706.235	17.81
706.419	17.44
706.603	17.26
706.787	17.22
706.971	17.25
707.155	16.91
707.339	17.43
707.522	17.94
707.706	17.94
707.89	17.79
708.074	17.11
708.257	17.09
708.441	17.66
708.625	18.46
708.808	18.51
708.992	18.8
709.176	19.28
709.359	19.26
709.543	18.43
709.727	18.67
709.91	18.56
710.094	18.48
710.277	18.63
710.461	17.86
710.644	17.51
710.828	17.74
711.011	17.15
711.195	17.75
711.378	17.37
711.562	16.86
711.745	16.54
711.928	16.37
712.112	16.71
712.295	16.66
712.478	17.04
712.662	16.69
712.845	16.07
713.028	16.35
713.212	16.17
713.395	16.45
713.578	17.4
713.761	17.5
713.945	17.46
714.128	17.05
714.311	17.1
714.494	17.1
714.677	17.18
714.86	17.44
715.043	16.83
715.227	16.85
715.41	15.87
715.593	15.54
715.776	15.79
715.959	16.25
716.142	16.69
716.325	16.26
716.508	15.8
716.691	15.82
716.874	15.93
717.057	16.31
717.239	15.73
717.422	15.73
717.605	15.8
717.788	16.33
717.971	16.4
718.154	15.45
718.337	15.81
718.519	15.95
718.702	15.92
718.885	15.27
719.068	14.15
719.25	13.45
719.433	14.58
719.616	14.46
719.798	13.46
719.981	12.22
720.164	12.72
720.346	12.95
720.529	13.89
720.712	13.9
720.894	14.58
721.077	14.94
721.259	15.93
721.442	15.55
721.624	16.06
721.807	16.82
721.989	17.67
722.172	18.01
722.354	17.9
722.537	16.79
722.719	16.08
722.901	15.51
723.084	16.72
723.266	16.43
723.448	15.96
723.631	15.08
723.813	14.28
723.995	14.01
724.178	13.53
724.36	12.29
724.542	12.21
724.724	12.07
724.907	12.08
725.089	12.3
725.271	12.17
725.453	13.19
725.635	12.73
725.817	13.48
725.999	14.13
726.181	14.68
726.364	15.1
726.546	15.15
726.728	16.41
726.91	17.86
727.092	17.12
727.274	17.76
727.456	17.42
727.638	18.42
727.819	17.93
728.001	17.41
728.183	17.1
728.365	17.83
728.547	18.2
728.729	17.98
728.911	17.22
729.093	16.81
729.274	16.09
729.456	15.92
729.638	15.87
729.82	15.79
730.001	15.12
730.183	15.57
730.365	14.95
730.546	14.17
730.728	14.48
730.91	13.93
731.091	14.44
731.273	15.79
731.455	15.14
731.636	14.1
731.818	14.14
731.999	15.56
732.181	15.27
732.362	15.47
732.544	16.12
732.725	15.08
732.907	14.9
733.088	15.09
733.27	14.34
733.451	14.97
733.633	15.56
733.814	16.23
733.995	15.52
734.177	14.98
734.358	14.43
734.539	14.69
734.721	14.7
734.902	15.1
735.083	14.8
735.264	14.34
735.446	14.74
735.627	14.46
735.808	14.49
735.989	15.77
736.17	15.25
736.351	16.26
736.533	16.08
736.714	16.96
736.895	16.94
737.076	16.77
737.257	17.45
737.438	16.38
737.619	16.69
737.8	15.28
737.981	13.16
738.162	13.38
738.343	13.35
738.524	12.84
738.705	12.26
738.886	12.19
739.067	12.54
739.247	10.89
739.428	10.82
739.609	11.72
739.79	11.17
739.971	12.34
740.151	13.54
740.332	12.81
740.513	13.31
740.694	14.85
740.874	15.87
741.055	16.32
741.236	17.58
741.417	18.41
741.597	17.91
741.778	18.89
741.958	18.91
742.139	19.13
742.32	19.05
742.5	18.81
742.681	16.6
742.861	16.48
743.042	15.8
743.222	15.58
743.403	16.2
743.583	15.93
743.764	15.56
743.944	14.59
744.124	14.23
744.305	15.08
744.485	15.78
744.666	16.22
744.846	14.97
745.026	13.96
745.207	13.65
745.387	12.66
745.567	12.87
745.747	13.08
745.928	14.54
746.108	15.3
746.288	15.87
746.468	16.15
746.648	16.21
746.829	15.67
747.009	17.58
747.189	18.52
747.369	17.82
747.549	17.24
747.729	18.56
747.909	18.1
748.089	16.96
748.269	16.89
748.449	16
748.629	17.74
748.809	17.34
748.989	16.59
749.169	16.51
749.349	17.22
749.529	17.84
749.709	16.32
749.889	15.61
750.068	15.13
750.248	14.46
750.428	15
750.608	14.86
750.788	16.19
750.967	15.9
751.147	16.22
751.327	16.75
751.507	15.84
751.686	16.63
751.866	16.02
752.046	16.63
752.225	15.78
752.405	15.57
752.585	14.47
752.764	14.5
752.944	15.3
753.123	15.2
753.303	15.15
753.482	15.36
753.662	14.91
753.841	16.1
754.021	16.7
754.2	18.04
754.38	16.81
754.559	16.88
754.739	16.83
754.918	17.18
755.097	16.06
755.277	16.32
755.456	17.01
755.635	18.18
755.815	17.32
755.994	16.3
756.173	16.01
756.352	17.22
756.532	16.68
756.711	17.89
756.89	17.58
757.069	16.44
757.248	15.94
757.427	15.17
757.607	14.76
757.786	14.34
757.965	16.18
758.144	15.47
758.323	15.1
758.502	14.84
758.681	13.34
758.86	13.19
759.039	15.53
759.218	15.06
759.397	14.88
759.576	14.6
759.755	16.12
759.934	15.07
760.113	15.03
760.291	15.55
760.47	15.24
760.649	15.43
760.828	15.04
761.007	14.43
761.186	15.11
761.364	16.07
761.543	16.69
761.722	16.41
761.901	16.19
762.079	16.17
762.258	15.54
762.437	16.49
762.615	15.65
762.794	15.77
762.972	15.76
763.151	15.3
763.33	15.56
763.508	15.96
763.687	16.03
763.865	16.72
764.044	16.83
764.222	17.36
764.401	17.19
764.579	17.79
764.758	17.87
764.936	18.37
765.114	18.18
765.293	18.37
765.471	16.7
765.65	17.34
765.828	16.39
766.006	16.5
766.184	15.94
766.363	15.96
766.541	15.86
766.719	14.64
766.898	12.85
767.076	13.1
767.254	11.67
767.432	13.19
767.61	13.05
767.788	13.07
767.967	13.03
768.145	13.2
768.323	14.04
768.501	14.09
768.679	13.61
768.857	15.1
769.035	15.32
769.213	15.85
769.391	14.86
769.569	12.4
769.747	10.75
769.925	9.38
770.103	10.65
770.281	10.33
770.459	11.01
770.636	14.01
770.814	13.46
770.992	13.73
771.17	15.19
771.348	14.75
771.525	14.98
771.703	17.5
771.881	19.75
772.059	17.78
772.236	17.97
772.414	18.24
772.592	15.96
772.769	15.5
772.947	15.95
773.125	15.3
773.302	14.72
773.48	16.39
773.657	14.86
773.835	12.95
774.013	13.97
774.19	13.26
774.368	11.5
774.545	11.67
774.723	12.42
774.9	10.75
775.077	7.71
775.255	8.66
775.432	10.8
775.61	13.4
775.787	12
775.964	11.31
776.142	10.74
776.319	10.44
776.496	12.93
776.674	11.46
776.851	14.18
777.028	17.11
777.205	17.88
777.382	13.35
777.56	10.85
777.737	12.8
777.914	12.13
778.091	9.61
778.268	10.56
778.445	9.92
778.622	9.24
778.8	7.9
778.977	7.3
779.154	7.06
779.331	8.35
779.508	7.5
779.685	10.32
779.862	11.57
780.038	14.56
780.215	14.48
780.392	15
780.569	17.8
780.746	17.85
780.923	15.61
781.1	14.45
781.277	14.37
781.453	16.85
781.63	14.42
781.807	15.53
781.984	14.46
782.16	15.08
782.337	13.32
782.514	9.9
782.691	8.81
782.867	13.3
783.044	16.24
783.221	16.73
783.397	15.24
783.574	16.01
783.75	14.32
783.927	16.55
784.103	17.39
784.28	18.17
784.456	22.06
784.633	22.52
784.809	21
784.986	19.32
785.162	18.06
785.339	18.39
785.515	19.17
785.692	18.07
785.868	14.81
786.044	13.68
786.221	13.3
786.397	10.51
786.573	11.77
786.749	12.46
786.926	11.94
787.102	12.87
787.278	13.44
787.454	10
787.631	10.38
787.807	10.63
787.983	9.61
788.159	8.93
788.335	8.33
788.511	8.52
788.687	8.54
788.863	9.68
789.039	9.55
789.216	8.7
789.392	9.8
789.568	10.64
789.744	11.46
789.919	13.73
790.095	16.6
790.271	19.5
790.447	18.3
790.623	16.73
790.799	14.45
790.975	13.41
791.151	12.77
791.327	13.21
791.502	12.24
791.678	12.5
791.854	10.59
792.03	10.15
792.205	7.28
792.381	8.04
792.557	7.9
792.733	6.38
792.908	7.84
793.084	10.89
793.259	11.97
793.435	13.11
793.611	10.33
793.786	10.01
793.962	6.57
794.137	7.2
794.313	6.32
794.488	5.39
794.664	9.56
794.839	9.41
795.015	7.49
795.19	8.55
795.366	7.81
795.541	9.89
795.716	9.63
795.892	10.6
796.067	11.94
796.242	12.7
796.418	13.29
796.593	11.64
796.768	13.03
796.944	14.01
797.119	12.16
797.294	11.89
797.469	12.12
797.644	12.25
797.82	12.71
797.995	10.41
798.17	9.01
798.345	13.01
798.52	13.39
798.695	10.01
798.87	9.9
799.045	10.76
799.22	12.79
799.395	13.82
799.57	13.42
799.745	12.9
799.92	13.21
800.095	16.41
800.27	13.23
800.445	15.15
800.62	17.31
800.795	14.5
800.97	10.41
801.145	9.59
801.319	8.84
801.494	7.63
801.669	6.54
801.844	8.38
802.018	7.43
802.193	7.88
802.368	0.16
802.543	-1.27
802.717	0.76
802.892	6.78
803.067	5.06
803.241	0.86
803.416	4.63
803.59	3.63
803.765	2.61
803.94	2.65
804.114	-0.42
804.289	5.65
804.463	9.18
804.638	8.54
804.812	3.12
804.986	7.26
805.161	9.85
805.335	8.76
805.51	9.57
805.684	7.47
805.858	9.27
806.033	7.9
806.207	5.73
806.381	5.26
806.556	4.57
806.73	1.54
806.904	-0.19
807.078	2.36
807.253	3.82
807.427	9.68
807.601	10.48
807.775	6.98
807.949	13.02
808.123	13.26
808.298	10.34
808.472	11.63
808.646	18.24
808.82	13.86
808.994	7.72
809.168	2.55
809.342	-5.21
809.516	-2.32
809.69	-2.29
809.864	-6.99
810.038	-4.43
810.212	-6.37
810.385	-8.91
810.559	-3.81
810.733	0.89
810.907	6.31
811.081	8.53
811.255	15.42
811.428	15.12
811.602	16.7
811.776	18.01
811.95	19.89
812.123	23.65
812.297	21.17
812.471	15.28
812.644	11.25
812.818	8.29
812.992	3.73
813.165	1.44
813.339	4.89
813.512	3.83
813.686	5.04
813.86	3.26
814.033	4.37
814.207	10.4
814.38	8.43
814.554	12.47
814.727	17.14
814.9	21.02
815.074	19.03
815.247	15.11
815.421	17.25
815.594	17.82
815.767	17.05
815.941	18.49
816.114	17.49
816.287	21.37
816.46	19.61
816.634	15.73
816.807	16.31
816.98	20.73
817.153	24.92
817.327	25.13
817.5	25.24
817.673	22.9
817.846	17.09
818.019	17.83
818.192	17.87
818.365	18.14
818.538	17.37
818.711	15.32
818.884	11.4
819.057	12.97
819.23	8.97
819.403	5.71
819.576	10.22
819.749	9.04
819.922	10.73
820.095	10.7
820.268	9.94
820.441	13.24
820.614	13.98
820.786	12.42
820.959	10.79
821.132	13.35
821.305	14.95
821.477	14.37
821.65	17.28
821.823	17.1
821.996	17.62
822.168	18.17
822.341	17.27
822.514	18.56
822.686	18.99
822.859	19.22
823.031	18.43
823.204	18.16
823.376	18.53
823.549	18.41
823.722	18.51
823.894	17.87
824.067	18.09
824.239	18.74
824.411	17.76
824.584	18.01
824.756	17.71
824.929	18.16
825.101	18.22
825.273	18.1
825.446	17.09
825.618	15.65
825.79	16.26
825.963	16.55
826.135	15.47
826.307	16.28
826.479	17.05
826.652	15
826.824	16.83
826.996	17.62
827.168	17.2
827.34	17.5
827.512	19.21
827.684	18.27
827.856	17.86
828.029	18.13
828.201	16.82
828.373	16.97
828.545	17.79
828.717	16.91
828.889	16.38
829.061	16.05
829.232	15.94
829.404	15.21
829.576	14.21
829.748	10.55
829.92	10.64
830.092	9.52
830.264	4.61
830.436	4.78
830.607	2.57
830.779	-0.48
830.951	0.35
831.123	1.65
831.294	-0.31
831.466	-0.52
831.638	1.52
831.809	-1.36
831.981	-2.19
832.153	1.92
832.324	1.61
832.496	2.77
832.667	4.07
832.839	1.85
833.011	2.37
833.182	6.14
833.354	7.32
833.525	10.43
833.697	10.61
833.868	10.49
834.039	11.67
834.211	13.6
834.382	12.58
834.554	12.88
834.725	13.2
834.896	12.43
835.068	10.6
835.239	13.93
835.41	13.51
835.581	14.01
835.753	17.62
835.924	15.12
836.095	13.69
836.266	13.5
836.438	13.84
836.609	12.01
836.78	13.16
836.951	12.21
837.122	10.95
837.293	10.67
837.464	14.42
837.635	14.3
837.806	12.08
837.977	15
838.148	16.21
838.319	15.91
838.49	16.78
838.661	8.73
838.832	10.7
839.003	7.57
839.174	9.3
839.345	6.21
839.516	2.4
839.687	4.79
839.857	-1.35
840.028	-3.34
840.199	2.64
840.37	7.68
840.54	17.75
840.711	11.98
840.882	15.51
841.053	15.51
841.223	10.42
841.394	9.82
841.564	15.88
841.735	20.84
841.906	26.06
842.076	24.37
842.247	16.57
842.417	9.69
842.588	12.66
842.758	4.23
842.929	-1.82
843.099	-5.83
843.27	-13.11
843.44	-17.93
843.611	-28.27
843.781	-48.58
843.951	-74.76
844.122	-59.8
844.292	-46.6
844.462	-52.27
844.633	-53.44
844.803	-48.69
844.973	-32.54
845.144	-19.02
845.314	-31.21
845.484	-34.61
845.654	-30.89
845.824	-26.14
845.995	-40.27
846.165	-55.91
846.335	-55.62
846.505	-42.61
846.675	-44.88
846.845	-61.25
847.015	-91.93
847.185	-99.23
847.355	-104.07
847.525	-91.98
847.695	-79.53
847.865	-89.75
848.035	-103.05
848.205	-92.06
848.375	-122.1
848.545	-133.21
848.715	-89.78
848.884	-57.87
849.054	-75.78
849.224	-75.16
849.394	-78.82
849.564	-74.46
849.733	-75.92
849.903	-53.94
850.073	-43.74
850.243	-11.14
850.412	-7.84
850.582	-29.8
850.752	-61.29
850.921	-24.25
851.091	-20.16
851.26	-28.14
851.43	-35.21
851.599	-44.23
851.769	-67.72
851.939	-72.03
852.108	-97.85
852.278	-159.55
852.447	-179.91
852.616	-144.73
852.786	-148.55
852.955	-146.57
853.125	-160.36
853.294	-131.52
853.463	-146.62
853.633	-56.65
853.802	-41.37
853.971	-37.58
854.141	-10
854.31	4.6
854.479	5.26
854.648	-3.54
854.818	-0.18
854.987	8.47
855.156	15.07
855.325	17.76
855.494	7.65
855.663	6.06
855.832	-5.36
856.001	-11.05
856.171	-6.32
856.34	-12.03
856.509	-8.53
856.678	-4.99
856.847	-19.56
857.016	-35.82
857.185	-43.92
857.353	-39.75
857.522	-68.38
857.691	-47.9
857.86	-49.81
858.029	-89.71
858.198	-96.38
858.367	-135.76
858.535	-145.2
858.704	-81.41
858.873	-87.25
859.042	-46.06
859.21	-29.52
859.379	-1.29
859.548	-25.18
859.717	-31.77
859.885	-31.5
860.054	-15.36
860.222	-7.47
860.391	-13.96
860.56	-38.35
860.728	-23.26
860.897	-36.4
861.065	-69.33
861.234	-73.75
861.402	-35.95
861.571	-47.63
861.739	-27.25
861.908	-15.88
862.076	-12.04
862.244	-13.08
862.413	-1.68
862.581	-37.13
862.749	-92.32
862.918	-35.44
863.086	-17.79
863.254	-68.25
863.423	-46.51
863.591	-58.09
863.759	-143.64
863.927	-171.64
864.096	-164.22
864.264	-123.4
864.432	-47.13
864.6	-26.16
864.768	-31.63
864.936	-59.33
865.104	-4.11
865.272	-0.88
865.44	-0.84
865.608	-1.21
865.776	9.5
865.944	8.75
866.112	1.75
866.28	-17.28
866.448	-12.56
866.616	-14.67
866.784	-17.94
866.952	-42.34
867.12	-91.88
867.288	-57.52
867.455	-97.23
867.623	-73.84
867.791	-47.63
867.959	-24.28
868.127	-12.01
868.294	-30.72
868.462	-57.37
868.63	-32.18
868.797	-47.62
868.965	-41.52
869.133	-49.71
869.3	-9.9
869.468	-12.15
869.636	-30.48
869.803	-38.83
869.971	-51.02
870.138	-20.68
870.306	-33.22
870.473	-27.62
870.641	-0.22
870.808	22.41
870.975	34.57
871.143	40.48
871.31	19.45
871.478	20.44
871.645	21.63
871.812	42.37
871.98	40.08
872.147	33.02
872.314	28.52
872.482	21.01
872.649	10.76
872.816	-9.96
872.983	-32.95
873.15	-14.89
873.318	-2.45
873.485	-12.55
873.652	-22.14
873.819	-61.71
873.986	-59.54
874.153	-53.35
874.32	-69.69
874.487	-69.06
874.654	-41.75
874.821	-15.1
874.988	-14.83
875.155	-27.43
875.322	-20.42
875.489	-26.84
875.656	-16.23
875.823	-23.74
875.99	-51.23
876.157	-20.03
876.324	-17.1
876.49	-21.43
876.657	-57.44
876.824	-141.6
876.991	-101.49
877.157	-88.44
877.324	-52.81
877.491	-70.1
877.658	-13.94
877.824	3.52
877.991	-0.92
878.157	-8.53
878.324	-22.23
878.491	13.99
878.657	27.6
878.824	11
878.99	15.07
879.157	7.86
879.323	3.7
879.49	-19.79
879.656	-33.42
879.823	-41.05
879.989	-32.26
880.156	-27.47
880.322	-38.1
880.488	-43.23
880.655	-35.63
880.821	-77.48
880.987	-64.13
881.154	-41.58
881.32	-37.05
881.486	-33.36
881.652	-20.03
881.819	-8.68
881.985	-1.44
882.151	-0.78
882.317	1.4
882.483	4.52
882.649	13.4
882.816	13.13
882.982	12.32
883.148	12.98
883.314	16.26
883.48	18.45
883.646	16.12
883.812	15.4
883.978	15.51
884.144	16.85
884.31	17.53
884.476	14.85
884.642	12.74
884.807	13.45
884.973	12.78
885.139	12.5
885.305	11.1
885.471	15.01
885.637	14.02
885.802	14.41
885.968	12.25
886.134	7.95
886.3	11.27
886.465	10.12
886.631	10.82
886.797	9.34
886.962	10.97
887.128	7.57
887.293	-4.21
887.459	6.08
887.625	3.14
887.79	1.27
887.956	7.69
888.121	1.61
888.287	5.95
888.452	4.2
888.618	12.92
888.783	11
