Data from 2938123_Reflection_2.txt Node
Date: Sat Jul 11 17:38:34 EDT 2015
User: robert
Spectrometer: USB4E03001
Autoset integration time: false
Trigger mode: 4
Integration Time (sec): 1.000000E-1
Scans to average: 10
Electric dark correction enabled: true
Nonlinearity correction enabled: false
Boxcar width: 5
Stray light correction enabled: false
XAxis mode: Wavelengths
Stop averaging: false
Number of Pixels in Spectrum: 3648
>>>>>Begin Spectral Data<<<<<
177.566	1082.41
177.785	-230.1
178.005	-137.28
178.225	-44.28
178.445	9.9
178.665	106.65
178.885	126.31
179.105	130.31
179.324	104.35
179.544	88.24
179.764	82.68
179.984	146.58
180.204	207.38
180.423	224.28
180.643	641.25
180.863	-698.62
181.083	122.37
181.302	186.67
181.522	163.93
181.742	177.41
181.961	224.81
182.181	192.86
182.401	301.81
182.621	903.3
182.84	495
183.06	248.23
183.279	173.4
183.499	215.51
183.719	159.28
183.938	151.32
184.158	223.59
184.377	146.02
184.597	158.13
184.816	133.41
185.036	126.36
185.256	151.07
185.475	148.02
185.695	144.67
185.914	135.99
186.134	134.27
186.353	171.45
186.572	125.7
186.792	171.56
187.011	246.45
187.231	262.83
187.45	207.51
187.67	191.77
187.889	195.62
188.108	218.55
188.328	209.31
188.547	228.39
188.766	187.43
188.986	228.83
189.205	238.51
189.424	193.5
189.644	195.56
189.863	299.19
190.082	1437.24
190.302	347.64
190.521	362.14
190.74	412.58
190.959	-2647.67
191.178	-1523.95
191.398	1063.73
191.617	430.12
191.836	417.55
192.055	617.23
192.274	530.81
192.494	356.68
192.713	1866.43
192.932	1117.99
193.151	-11011.34
193.37	-2198.39
193.589	-502.9
193.808	-2345.68
194.027	-1788.4
194.246	1115.82
194.465	21827.12
194.685	2425.12
194.904	-4694.98
195.123	893.28
195.342	-1141.92
195.561	735.93
195.78	248.99
195.999	220.25
196.218	521.64
196.436	369.87
196.655	325.91
196.874	159.68
197.093	111.64
197.312	86.58
197.531	111.67
197.75	105.64
197.969	111.73
198.188	124.15
198.407	155.51
198.625	156.66
198.844	161.88
199.063	136.68
199.282	234.29
199.501	298.06
199.719	475.8
199.938	224.35
200.157	380.99
200.376	-2041.91
200.594	349.04
200.813	170.44
201.032	134.12
201.251	109.49
201.469	169.29
201.688	112.42
201.907	124.84
202.125	112.37
202.344	210.61
202.563	214.96
202.781	258.3
203	223.14
203.218	199.34
203.437	250.38
203.656	293.66
203.874	202.19
204.093	146.67
204.311	121.53
204.53	148.98
204.748	125.52
204.967	109.61
205.185	101.53
205.404	104.65
205.622	102.2
205.841	111.58
206.059	114.54
206.278	130.34
206.496	177.87
206.715	216.98
206.933	231.78
207.151	356.81
207.37	579
207.588	804.28
207.806	504.79
208.025	983.74
208.243	733.65
208.461	782.39
208.68	-453.99
208.898	898.8
209.116	466.09
209.335	431.64
209.553	1085.98
209.771	661.25
209.989	2162.09
210.208	-3259.02
210.426	-1412.9
210.644	-1483.19
210.862	314.77
211.081	266.87
211.299	213.47
211.517	392.71
211.735	412.91
211.953	156.9
212.171	158.71
212.39	143.45
212.608	139.76
212.826	136.13
213.044	140.18
213.262	156.39
213.48	144.42
213.698	151.27
213.916	134.09
214.134	126.58
214.352	146.33
214.57	146.75
214.788	125.26
215.006	115.36
215.224	90.4
215.442	93.15
215.66	101.78
215.878	100.01
216.096	123.99
216.314	121.74
216.532	119.57
216.75	104.79
216.968	86.4
217.185	98.22
217.403	117.85
217.621	188.61
217.839	198.59
218.057	152.95
218.275	172.19
218.492	164.03
218.71	150.4
218.928	161.7
219.146	190.5
219.363	218.28
219.581	396.88
219.799	-585.34
220.017	-6374.23
220.234	-164.07
220.452	-15.94
220.67	-134.61
220.887	223.41
221.105	273.93
221.323	154.61
221.54	122.75
221.758	118.27
221.976	88.3
222.193	79.66
222.411	58.05
222.629	57.45
222.846	66.36
223.064	67.02
223.281	71.69
223.499	73.8
223.716	72.85
223.934	59.73
224.151	50.67
224.369	52.78
224.586	64.74
224.804	57.52
225.021	53.43
225.239	43.1
225.456	31.33
225.674	20.97
225.891	24.5
226.108	25.98
226.326	37.65
226.543	29.6
226.76	30.91
226.978	23.8
227.195	32.6
227.413	41.27
227.63	43.62
227.847	44.65
228.064	45.85
228.282	40.42
228.499	37.58
228.716	32.87
228.934	35.6
229.151	36.96
229.368	36.73
229.585	35.27
229.802	33.64
230.02	32.48
230.237	30.5
230.454	29.64
230.671	27.86
230.888	24.91
231.105	29.14
231.323	25.23
231.54	21.89
231.757	23.23
231.974	23.22
232.191	22.51
232.408	21.02
232.625	26.74
232.842	29.93
233.059	35.49
233.276	37.4
233.493	37.35
233.71	41.12
233.927	38.12
234.144	33.64
234.361	31.83
234.578	32.59
234.795	32.85
235.012	28.71
235.229	21.88
235.446	22.67
235.663	26.13
235.879	23.78
236.096	19.28
236.313	21.77
236.53	24.76
236.747	26.13
236.964	28.02
237.181	26.94
237.397	29.07
237.614	35.63
237.831	31.44
238.048	32.95
238.264	34.45
238.481	40.57
238.698	37.12
238.915	30.55
239.131	30.09
239.348	24.98
239.565	26.01
239.781	28.14
239.998	31.45
240.215	35.05
240.431	34.99
240.648	32.18
240.865	30.44
241.081	32.47
241.298	33.24
241.514	32.24
241.731	31.77
241.947	29.6
242.164	26.47
242.38	23.13
242.597	20.09
242.814	19.7
243.03	19.63
243.246	19.32
243.463	18.93
243.679	18.63
243.896	17.99
244.112	19.3
244.329	20.13
244.545	20.14
244.762	21.02
244.978	21.54
245.194	21.48
245.411	19.7
245.627	19.48
245.843	17.47
246.06	16.47
246.276	16.53
246.492	15.81
246.709	14.6
246.925	15.71
247.141	15.12
247.357	14.67
247.574	13.81
247.79	14.2
248.006	14.5
248.222	14.52
248.439	14.73
248.655	14.76
248.871	14.19
249.087	14.07
249.303	13.56
249.519	13.62
249.736	12.67
249.952	13
250.168	11.45
250.384	10.41
250.6	11.58
250.816	9.45
251.032	10.05
251.248	10.96
251.464	13.54
251.68	12.58
251.896	12.11
252.112	13.5
252.328	12.09
252.544	14.02
252.76	15.21
252.976	15.8
253.192	18.98
253.408	18.86
253.624	18.8
253.84	17.63
254.056	18.19
254.272	19.75
254.487	21.41
254.703	22.5
254.919	21.88
255.135	20.06
255.351	21.78
255.567	21.39
255.782	22.41
255.998	22.81
256.214	23.9
256.43	24.31
256.646	23.18
256.861	20.88
257.077	18.61
257.293	18.91
257.508	16.11
257.724	13.02
257.94	10.79
258.155	10.87
258.371	13.9
258.587	12.45
258.802	10.45
259.018	9.66
259.234	10.37
259.449	10.19
259.665	9.13
259.88	9.78
260.096	9.85
260.312	9.52
260.527	9.76
260.743	8.78
260.958	9.48
261.174	9.81
261.389	9.6
261.605	8.86
261.82	9.58
262.036	10.39
262.251	10.76
262.466	10.57
262.682	12.82
262.897	11.51
263.113	11.9
263.328	11.32
263.543	14.01
263.759	16.27
263.974	17.58
264.189	15.76
264.405	14.36
264.62	13.7
264.835	12.96
265.051	12.6
265.266	13.8
265.481	10.45
265.696	10.57
265.912	11.07
266.127	10.38
266.342	9.65
266.557	10.87
266.773	12.56
266.988	12.93
267.203	12.95
267.418	11.95
267.633	11.14
267.848	11.54
268.064	11.42
268.279	10.57
268.494	12.35
268.709	12.15
268.924	12.18
269.139	12.25
269.354	13.63
269.569	13.98
269.784	14.9
269.999	13.86
270.214	13.38
270.429	13.52
270.644	14.2
270.859	14.82
271.074	13.94
271.289	13
271.504	12.2
271.719	11.39
271.934	11.53
272.149	10.93
272.363	11.71
272.578	11.94
272.793	11.67
273.008	10.28
273.223	8.29
273.438	9.45
273.653	11.14
273.867	10.89
274.082	10.32
274.297	10.67
274.512	11.39
274.726	10.54
274.941	10
275.156	11.77
275.371	12.25
275.585	13.15
275.8	12.84
276.015	13.19
276.229	13.54
276.444	12.79
276.659	12.5
276.873	11.85
277.088	14.73
277.302	17.76
277.517	16.09
277.732	14.28
277.946	13.13
278.161	14.65
278.375	14.79
278.59	17.4
278.804	20.28
279.019	20.08
279.233	22.31
279.448	19.54
279.662	20.23
279.877	19.73
280.091	21.65
280.306	23.1
280.52	21.72
280.735	21.1
280.949	18.94
281.163	17.39
281.378	18.45
281.592	18.12
281.806	17.96
282.021	16.26
282.235	16.4
282.449	14.25
282.664	13.8
282.878	14.81
283.092	14.32
283.307	15.62
283.521	14.1
283.735	13.15
283.949	11.98
284.164	11.37
284.378	11.72
284.592	11.25
284.806	12.45
285.02	11.45
285.234	9.4
285.449	8.75
285.663	7.38
285.877	8.59
286.091	8.89
286.305	8.27
286.519	8.35
286.733	7.69
286.947	8.72
287.161	9.16
287.375	8.88
287.589	10.09
287.803	12.14
288.017	13.38
288.231	13.3
288.445	12.48
288.659	13.51
288.873	15.11
289.087	15.1
289.301	14.45
289.515	15.04
289.729	17
289.943	15.75
290.157	14.71
290.371	14.56
290.584	14.45
290.798	14.89
291.012	14.96
291.226	13.62
291.44	14.72
291.654	13.45
291.867	13.56
292.081	12.14
292.295	13.29
292.509	13.15
292.722	10.72
292.936	10.51
293.15	11.52
293.364	12.95
293.577	13.33
293.791	13.11
294.005	14.35
294.218	12.5
294.432	11.77
294.645	12.3
294.859	11.68
295.073	12.02
295.286	13.17
295.5	10.9
295.713	9.09
295.927	8.73
296.14	7.98
296.354	8.2
296.568	9.96
296.781	11.42
296.994	10.11
297.208	11.32
297.421	12.17
297.635	11.51
297.848	12.72
298.062	13.16
298.275	14.04
298.489	14.12
298.702	14.52
298.915	14.16
299.129	12.69
299.342	13.82
299.555	12.88
299.769	14.94
299.982	15.71
300.195	15.45
300.409	15.71
300.622	16.14
300.835	16
301.048	16.24
301.262	15.94
301.475	17.31
301.688	17.4
301.901	18.02
302.115	15.73
302.328	15.87
302.541	16.22
302.754	15.8
302.967	16.52
303.18	16.38
303.393	16.64
303.607	16.39
303.82	14.98
304.033	14.8
304.246	15.7
304.459	16.42
304.672	15.96
304.885	16.32
305.098	15.7
305.311	13.16
305.524	13.64
305.737	13.72
305.95	14.44
306.163	13.97
306.376	12.92
306.589	10.78
306.802	9.51
307.015	8.45
307.228	6.88
307.44	8.13
307.653	10.13
307.866	12.07
308.079	13.13
308.292	12.04
308.505	13.35
308.718	14.7
308.93	15.29
309.143	16.42
309.356	16.39
309.569	16.85
309.781	16.88
309.994	15.81
310.207	14.72
310.42	12.12
310.632	11.26
310.845	10.34
311.058	10.34
311.27	10.09
311.483	9.85
311.696	10.55
311.908	11.47
312.121	10.69
312.333	11.93
312.546	11.16
312.759	12.76
312.971	13.06
313.184	13.76
313.396	13.33
313.609	14.12
313.821	13.3
314.034	12.69
314.246	11.79
314.459	11.99
314.671	11.55
314.884	11.91
315.096	11.22
315.309	11.96
315.521	11.5
315.733	13.22
315.946	12.85
316.158	12.38
316.371	12.34
316.583	13.86
316.795	13.3
317.008	13.05
317.22	13.4
317.432	14.81
317.644	15.67
317.857	17.54
318.069	17.54
318.281	18.84
318.494	20.38
318.706	20.69
318.918	19.68
319.13	19.81
319.342	20.69
319.555	20
319.767	18.81
319.979	17.86
320.191	15.35
320.403	13.05
320.615	11.73
320.827	11.18
321.039	11.1
321.252	11.51
321.464	13.43
321.676	12.58
321.888	13.05
322.1	13.41
322.312	13.52
322.524	14.22
322.736	14.26
322.948	14.43
323.16	15.39
323.372	14.94
323.584	13.34
323.796	11.92
324.007	11.22
324.219	11.18
324.431	10.51
324.643	11.08
324.855	11.61
325.067	12.21
325.279	12.76
325.491	11.9
325.702	13.32
325.914	14.33
326.126	14.25
326.338	13.42
326.55	13.7
326.761	14.81
326.973	14.83
327.185	15.3
327.396	15.2
327.608	14.24
327.82	15.47
328.032	14.28
328.243	14.31
328.455	15.39
328.666	16.63
328.878	14.46
329.09	13.4
329.301	11.62
329.513	12.36
329.725	12.9
329.936	11.74
330.148	11.28
330.359	10.18
330.571	8.69
330.782	6.62
330.994	6.68
331.205	8.59
331.417	10.77
331.628	11.8
331.84	10.09
332.051	10.13
332.262	12.16
332.474	12.26
332.685	14.21
332.897	15.65
333.108	15.45
333.319	15.37
333.531	15.93
333.742	15.28
333.953	15.1
334.165	15.22
334.376	15.95
334.587	15.88
334.799	15.45
335.01	14.43
335.221	13.84
335.432	14.06
335.644	14.14
335.855	13.75
336.066	13.43
336.277	12.34
336.488	13.43
336.7	12.55
336.911	11.88
337.122	12.08
337.333	13.61
337.544	14.11
337.755	14.35
337.966	13.35
338.177	13.39
338.388	12.01
338.599	13.96
338.811	12.29
339.022	12.2
339.233	12.08
339.444	12.75
339.655	10.54
339.866	9.36
340.076	9.14
340.287	10.38
340.498	10.55
340.709	10.48
340.92	9.94
341.131	9.63
341.342	10.28
341.553	12.01
341.764	12.13
341.975	13.3
342.185	14.55
342.396	15.61
342.607	15.4
342.818	15.96
343.029	16
343.239	16.04
343.45	17.76
343.661	17.28
343.872	15.88
344.082	14.82
344.293	15.18
344.504	13.56
344.714	12.51
344.925	12.34
345.136	12.68
345.346	13.66
345.557	14.14
345.768	12.97
345.978	13.13
346.189	13.71
346.399	13.7
346.61	13.5
346.821	13.98
347.031	14.28
347.242	14.77
347.452	13.38
347.663	13.02
347.873	12.75
348.084	12.74
348.294	11.88
348.504	11.75
348.715	12.02
348.925	12.43
349.136	12.53
349.346	12.73
349.557	11.57
349.767	12.42
349.977	11.52
350.188	10.41
350.398	10.92
350.608	10.29
350.819	8.7
351.029	8
351.239	7.11
351.449	7.59
351.66	8.09
351.87	7.94
352.08	8.24
352.29	8.79
352.501	10.81
352.711	11.02
352.921	10.94
353.131	11.42
353.341	11.99
353.552	11.18
353.762	10.15
353.972	10.99
354.182	11.46
354.392	10.4
354.602	10.8
354.812	8.73
355.022	7.95
355.232	8.79
355.442	10.44
355.652	10.78
355.862	11.97
356.072	11.71
356.282	9.23
356.492	8.98
356.702	9.2
356.912	8.57
357.122	9.06
357.332	10.24
357.542	9.64
357.752	8.15
357.962	7.73
358.171	6.5
358.381	8.1
358.591	9.16
358.801	9.03
359.011	9.7
359.221	9.5
359.43	9.21
359.64	8.2
359.85	8.15
360.06	8.21
360.269	7.86
360.479	7.95
360.689	7.21
360.899	7.11
361.108	6.8
361.318	7.21
361.528	7.66
361.737	7.45
361.947	7.47
362.156	7.67
362.366	8.03
362.576	8.02
362.785	8.46
362.995	8.63
363.204	8.25
363.414	8.18
363.623	6.95
363.833	7.2
364.042	7.4
364.252	7.15
364.461	7.4
364.671	7.38
364.88	8.04
365.09	8.33
365.299	8.57
365.509	9.73
365.718	10.45
365.927	11.09
366.137	10.65
366.346	10.54
366.555	11.02
366.765	10.7
366.974	9.46
367.183	9.43
367.393	9.4
367.602	9.4
367.811	8.39
368.021	8.42
368.23	7.97
368.439	9.16
368.648	9.91
368.857	10.05
369.067	10.66
369.276	11.02
369.485	10.87
369.694	10.8
369.903	10.01
370.112	10.55
370.321	11.11
370.531	10.66
370.74	9.95
370.949	9.87
371.158	9.67
371.367	8.83
371.576	9.41
371.785	9.18
371.994	8.34
372.203	9.13
372.412	8.81
372.621	8.6
372.83	9.1
373.039	8.77
373.248	8.24
373.457	8.66
373.666	8.88
373.874	8.98
374.083	9.03
374.292	10.22
374.501	9.14
374.71	9.23
374.919	9.06
375.128	8.63
375.336	9.12
375.545	9.56
375.754	8.78
375.963	8.26
376.171	8.5
376.38	8.62
376.589	7.98
376.798	7.92
377.006	7.54
377.215	6.99
377.424	6.94
377.632	7
377.841	6.86
378.05	7.27
378.258	7.66
378.467	7.21
378.675	6.62
378.884	6.33
379.093	6.55
379.301	6.54
379.51	6.81
379.718	7.12
379.927	6.81
380.135	6.39
380.344	6.51
380.552	6.69
380.761	6.66
380.969	7
381.177	7.64
381.386	8.17
381.594	8.21
381.803	7.83
382.011	7.65
382.219	7.67
382.428	8.27
382.636	7.76
382.845	7.55
383.053	7.34
383.261	6.98
383.469	6.33
383.678	6.1
383.886	6.25
384.094	6.79
384.302	6.93
384.511	7.12
384.719	6.89
384.927	6.36
385.135	6.18
385.343	6.18
385.552	6.55
385.76	6.95
385.968	6.95
386.176	7.02
386.384	6.72
386.592	6.28
386.8	5.89
387.008	5.38
387.216	5.9
387.424	6.19
387.633	5.9
387.841	5.95
388.049	5.17
388.257	4.79
388.465	4.5
388.672	4.21
388.88	4.72
389.088	4.25
389.296	4.26
389.504	4.16
389.712	3.92
389.92	4.36
390.128	4.06
390.336	4.91
390.544	4.68
390.751	4.53
390.959	4.34
391.167	4.11
391.375	4.54
391.583	4.49
391.79	4.67
391.998	4.85
392.206	4.95
392.414	4.72
392.621	4.14
392.829	4.5
393.037	4.87
393.244	5.38
393.452	5.07
393.66	5.32
393.867	5.35
394.075	4.81
394.283	4.81
394.49	4.42
394.698	4.54
394.905	4.67
395.113	4.69
395.32	4.64
395.528	4.63
395.735	4.76
395.943	4.35
396.15	4.47
396.358	4.85
396.565	4.67
396.773	4.9
396.98	4.95
397.188	4.98
397.395	4.36
397.602	4.15
397.81	3.95
398.017	4.06
398.225	4.08
398.432	4.44
398.639	4.1
398.847	3.78
399.054	3.46
399.261	3.52
399.468	3.11
399.676	3.46
399.883	3.36
400.09	3.39
400.297	3.04
400.505	2.74
400.712	2.47
400.919	2.68
401.126	3.33
401.333	3.83
401.54	3.74
401.748	4.41
401.955	4.4
402.162	4.64
402.369	4.32
402.576	4.63
402.783	4.82
402.99	5.09
403.197	4.89
403.404	4.29
403.611	3.98
403.818	4.1
404.025	3.74
404.232	3.84
404.439	3.98
404.646	4.14
404.853	4.26
405.06	4.37
405.267	3.88
405.474	4
405.681	4.19
405.887	4.39
406.094	4.24
406.301	4.32
406.508	4.15
406.715	3.77
406.922	3.8
407.128	3.53
407.335	3.34
407.542	3.44
407.749	3.55
407.955	3.71
408.162	3.71
408.369	3.69
408.575	3.76
408.782	3.67
408.989	3.47
409.195	3.53
409.402	3.81
409.609	3.96
409.815	4.01
410.022	4.08
410.228	4.01
410.435	4.04
410.642	4
410.848	4.12
411.055	4.55
411.261	5.03
411.468	4.94
411.674	4.63
411.881	4.29
412.087	4.28
412.294	4.06
412.5	4.37
412.706	4.33
412.913	4.19
413.119	4.15
413.326	3.63
413.532	3.25
413.738	3.41
413.945	3.61
414.151	3.97
414.357	3.87
414.564	3.82
414.77	3.42
414.976	3.61
415.182	3.65
415.389	3.79
415.595	4.26
415.801	4.24
416.007	4.16
416.214	4
416.42	3.93
416.626	4.09
416.832	4.31
417.038	4.23
417.244	3.99
417.45	4
417.657	3.71
417.863	3.48
418.069	3.65
418.275	3.78
418.481	3.55
418.687	3.44
418.893	3.22
419.099	2.96
419.305	2.9
419.511	2.78
419.717	2.67
419.923	2.76
420.129	2.58
420.335	2.49
420.541	2.45
420.746	2.73
420.952	2.7
421.158	2.68
421.364	2.65
421.57	2.75
421.776	2.91
421.982	3.07
422.187	3.01
422.393	3.2
422.599	3.17
422.805	3.07
423.01	2.99
423.216	2.89
423.422	2.98
423.628	3.14
423.833	3.04
424.039	2.92
424.245	3.02
424.45	3.07
424.656	2.96
424.862	3.06
425.067	3.16
425.273	3.12
425.478	3.3
425.684	3.34
425.889	3.25
426.095	3.35
426.301	3.34
426.506	3.14
426.712	3.22
426.917	3.52
427.123	3.38
427.328	3.36
427.533	3.43
427.739	3.33
427.944	3.26
428.15	3.29
428.355	3.05
428.561	3
428.766	3.1
428.971	2.95
429.177	2.72
429.382	2.84
429.587	2.67
429.793	2.58
429.998	2.62
430.203	2.45
430.408	2.3
430.614	2.68
430.819	2.82
431.024	2.95
431.229	3.01
431.434	2.96
431.64	2.85
431.845	2.88
432.05	3.11
432.255	3.14
432.46	3.32
432.665	3.48
432.87	3.26
433.076	3.21
433.281	3.07
433.486	2.95
433.691	3.04
433.896	3.12
434.101	3
434.306	2.81
434.511	2.73
434.716	2.67
434.921	2.81
435.126	2.95
435.331	2.94
435.535	3
435.74	3.05
435.945	2.94
436.15	3.05
436.355	3.1
436.56	3.12
436.765	3.14
436.97	3.3
437.174	3.21
437.379	3.35
437.584	3.34
437.789	3.37
437.993	3.54
438.198	3.67
438.403	3.33
438.608	3.48
438.812	3.4
439.017	3.39
439.222	3.3
439.426	3.24
439.631	2.93
439.836	2.76
440.04	2.6
440.245	2.58
440.45	2.35
440.654	2.51
440.859	2.27
441.063	2.34
441.268	2.31
441.472	2.25
441.677	2.31
441.881	2.31
442.086	2.48
442.29	2.54
442.495	2.4
442.699	2.44
442.904	2.44
443.108	2.81
443.312	2.91
443.517	2.83
443.721	2.87
443.925	2.77
444.13	3.05
444.334	2.8
444.538	2.71
444.743	2.73
444.947	2.92
445.151	2.8
445.356	2.58
445.56	2.63
445.764	2.67
445.968	2.75
446.173	2.75
446.377	2.68
446.581	2.91
446.785	2.79
446.989	2.74
447.193	2.61
447.398	2.66
447.602	2.63
447.806	2.56
448.01	2.73
448.214	2.62
448.418	2.64
448.622	2.61
448.826	2.48
449.03	2.7
449.234	2.73
449.438	2.74
449.642	2.67
449.846	2.8
450.05	2.8
450.254	2.66
450.458	2.66
450.662	2.7
450.866	2.73
451.069	3
451.273	2.85
451.477	2.7
451.681	2.67
451.885	2.77
452.089	2.59
452.292	2.45
452.496	2.46
452.7	2.52
452.904	2.43
453.107	2.34
453.311	1.93
453.515	1.96
453.719	2.2
453.922	2.33
454.126	2.24
454.33	2.4
454.533	2.5
454.737	2.4
454.94	2.41
455.144	2.53
455.348	2.53
455.551	2.71
455.755	2.82
455.958	2.91
456.162	2.88
456.365	2.99
456.569	2.85
456.772	2.75
456.976	3.04
457.179	3.01
457.383	2.88
457.586	2.75
457.79	2.59
457.993	2.63
458.196	2.4
458.4	2.43
458.603	2.37
458.807	2.44
459.01	2.59
459.213	2.46
459.417	2.52
459.62	2.58
459.823	2.75
460.026	2.83
460.23	2.85
460.433	2.95
460.636	3.04
460.839	2.93
461.042	2.97
461.246	2.9
461.449	2.89
461.652	2.77
461.855	2.66
462.058	2.67
462.261	2.79
462.464	2.71
462.668	2.71
462.871	2.53
463.074	2.94
463.277	2.77
463.48	2.81
463.683	2.91
463.886	2.88
464.089	3.09
464.292	2.92
464.495	2.78
464.698	2.66
464.901	2.61
465.104	2.56
465.306	2.43
465.509	2.56
465.712	2.53
465.915	2.46
466.118	2.43
466.321	2.51
466.524	2.37
466.726	2.43
466.929	2.73
467.132	2.61
467.335	2.8
467.538	2.75
467.74	2.77
467.943	2.53
468.146	2.56
468.348	2.77
468.551	2.74
468.754	2.86
468.956	2.76
469.159	2.63
469.362	2.71
469.564	2.86
469.767	2.91
469.969	2.87
470.172	3.19
470.375	3.15
470.577	3.02
470.78	2.89
470.982	2.76
471.185	2.82
471.387	2.79
471.59	2.74
471.792	2.28
471.995	2.33
472.197	2.36
472.399	2.25
472.602	2.14
472.804	2.24
473.007	2.25
473.209	2.45
473.411	2.56
473.614	2.43
473.816	2.62
474.018	2.89
474.22	2.76
474.423	2.69
474.625	2.73
474.827	2.71
475.03	2.56
475.232	2.61
475.434	2.58
475.636	2.52
475.838	2.66
476.04	2.58
476.243	2.49
476.445	2.67
476.647	2.73
476.849	2.6
477.051	2.7
477.253	2.77
477.455	2.6
477.657	2.51
477.859	2.42
478.061	2.43
478.263	2.41
478.465	2.28
478.667	2.23
478.869	2.18
479.071	2.25
479.273	2.09
479.475	1.99
479.677	2.15
479.879	2.06
480.081	2.19
480.283	2.18
480.485	2.19
480.686	2.3
480.888	2.23
481.09	2.22
481.292	2.14
481.494	2.33
481.695	2.36
481.897	2.38
482.099	2.6
482.301	2.52
482.502	2.46
482.704	2.37
482.906	2.38
483.107	2.33
483.309	2.35
483.511	2.4
483.712	2.35
483.914	2.38
484.115	2.35
484.317	2.32
484.519	2.31
484.72	2.33
484.922	2.36
485.123	2.33
485.325	2.4
485.526	2.38
485.728	2.39
485.929	2.34
486.131	2.24
486.332	2.24
486.534	2.19
486.735	2.23
486.936	2.17
487.138	2.17
487.339	2.17
487.541	2.16
487.742	2.19
487.943	2.15
488.144	2.24
488.346	2.35
488.547	2.36
488.748	2.41
488.95	2.43
489.151	2.48
489.352	2.52
489.553	2.56
489.755	2.55
489.956	2.62
490.157	2.66
490.358	2.63
490.559	2.59
490.76	2.64
490.961	2.51
491.163	2.48
491.364	2.48
491.565	2.43
491.766	2.45
491.967	2.45
492.168	2.43
492.369	2.39
492.57	2.35
492.771	2.26
492.972	2.27
493.173	2.33
493.374	2.32
493.575	2.34
493.776	2.6
493.976	2.64
494.177	2.6
494.378	2.46
494.579	2.55
494.78	2.72
494.981	2.84
495.182	2.73
495.382	2.78
495.583	2.8
495.784	2.75
495.985	2.46
496.185	2.55
496.386	2.49
496.587	2.75
496.788	2.68
496.988	2.74
497.189	2.73
497.39	2.79
497.59	2.83
497.791	2.96
497.992	3.01
498.192	2.94
498.393	2.79
498.593	2.9
498.794	2.84
498.994	2.92
499.195	2.81
499.395	2.99
499.596	2.9
499.796	2.79
499.997	2.74
500.197	2.75
500.398	2.87
500.598	2.8
500.799	2.88
500.999	2.82
501.199	2.63
501.4	2.74
501.6	2.69
501.801	2.83
502.001	2.85
502.201	2.71
502.402	2.52
502.602	2.68
502.802	2.79
503.002	2.9
503.203	2.78
503.403	2.81
503.603	2.81
503.803	2.78
504.003	2.68
504.204	2.66
504.404	2.79
504.604	3.12
504.804	3.01
505.004	2.91
505.204	2.86
505.404	2.87
505.604	3.02
505.804	2.78
506.005	2.8
506.205	2.82
506.405	2.94
506.605	2.91
506.805	2.84
507.005	2.98
507.204	2.98
507.404	2.86
507.604	2.89
507.804	2.85
508.004	2.99
508.204	2.92
508.404	2.94
508.604	2.9
508.804	2.89
509.003	2.88
509.203	2.68
509.403	2.65
509.603	2.61
509.803	2.74
510.002	2.88
510.202	2.94
510.402	2.99
510.602	2.91
510.801	2.88
511.001	2.91
511.201	2.82
511.4	2.78
511.6	2.8
511.8	2.85
511.999	2.72
512.199	2.64
512.398	2.68
512.598	2.62
512.797	2.69
512.997	2.7
513.197	2.67
513.396	2.59
513.596	2.68
513.795	2.86
513.994	2.86
514.194	2.92
514.393	3.03
514.593	2.95
514.792	3.01
514.992	3.04
515.191	3.03
515.39	3.11
515.59	3.1
515.789	3.07
515.988	3.11
516.188	3.1
516.387	2.88
516.586	2.75
516.786	2.71
516.985	2.59
517.184	2.51
517.383	2.62
517.582	2.49
517.782	2.51
517.981	2.53
518.18	2.46
518.379	2.45
518.578	2.62
518.777	2.65
518.976	2.69
519.176	2.65
519.375	2.7
519.574	2.58
519.773	2.69
519.972	2.68
520.171	2.69
520.37	2.73
520.569	2.73
520.768	2.77
520.967	2.94
521.166	3.01
521.365	3.24
521.564	3.51
521.762	3.62
521.961	3.67
522.16	3.81
522.359	3.69
522.558	3.54
522.757	3.54
522.956	3.53
523.154	3.31
523.353	3.17
523.552	3.02
523.751	2.8
523.949	2.67
524.148	2.58
524.347	2.68
524.546	2.74
524.744	2.77
524.943	2.77
525.142	2.78
525.34	2.86
525.539	2.97
525.737	3.01
525.936	2.97
526.135	2.9
526.333	2.89
526.532	2.8
526.73	2.81
526.929	2.84
527.127	2.84
527.326	2.87
527.524	2.81
527.723	2.79
527.921	2.78
528.12	2.86
528.318	2.93
528.516	2.96
528.715	2.9
528.913	2.93
529.112	2.94
529.31	2.97
529.508	2.91
529.707	2.9
529.905	2.87
530.103	2.8
530.301	2.81
530.5	2.88
530.698	2.88
530.896	3.05
531.094	3.15
531.293	3.17
531.491	3.18
531.689	3.27
531.887	3.32
532.085	3.41
532.283	3.54
532.481	3.47
532.68	3.41
532.878	3.4
533.076	3.3
533.274	3.18
533.472	3.13
533.67	3.1
533.868	3.09
534.066	3.07
534.264	3.07
534.462	3.06
534.66	3.13
534.858	3.22
535.056	3.24
535.253	3.32
535.451	3.44
535.649	3.57
535.847	3.51
536.045	3.62
536.243	3.67
536.441	3.66
536.638	3.75
536.836	3.66
537.034	3.63
537.232	3.61
537.43	3.53
537.627	3.43
537.825	3.47
538.023	3.6
538.22	3.59
538.418	3.72
538.616	3.78
538.813	3.69
539.011	3.74
539.209	3.68
539.406	3.67
539.604	3.81
539.801	3.93
539.999	3.93
540.196	3.79
540.394	3.77
540.591	3.73
540.789	3.74
540.986	3.75
541.184	3.69
541.381	3.73
541.579	3.82
541.776	3.8
541.974	3.67
542.171	3.68
542.368	3.81
542.566	3.82
542.763	3.77
542.96	3.82
543.158	3.76
543.355	3.82
543.552	3.82
543.75	3.77
543.947	3.8
544.144	4.05
544.341	4.03
544.539	4.09
544.736	4.17
544.933	4.18
545.13	4.17
545.327	4.3
545.524	4.32
545.722	4.3
545.919	4.33
546.116	4.48
546.313	4.5
546.51	4.48
546.707	4.48
546.904	4.43
547.101	4.59
547.298	4.63
547.495	4.73
547.692	4.73
547.889	4.85
548.086	4.99
548.283	4.85
548.48	4.87
548.677	4.95
548.874	5.03
549.07	5.1
549.267	5.06
549.464	5.07
549.661	5.04
549.858	5.12
550.055	5.1
550.251	5.15
550.448	5.33
550.645	5.18
550.842	5.24
551.038	5.07
551.235	5.28
551.432	5.29
551.628	5.35
551.825	5.29
552.022	5.21
552.218	5.31
552.415	5.29
552.612	5.17
552.808	5.3
553.005	5.27
553.201	5.32
553.398	5.12
553.594	5.16
553.791	5.22
553.987	5.48
554.184	5.72
554.38	5.73
554.577	5.68
554.773	5.92
554.97	5.84
555.166	5.86
555.362	5.96
555.559	6.05
555.755	6.07
555.952	6
556.148	5.64
556.344	5.64
556.541	5.55
556.737	5.72
556.933	5.49
557.129	5.45
557.326	5.68
557.522	5.68
557.718	5.79
557.914	5.63
558.11	5.88
558.307	6.32
558.503	6.43
558.699	6.6
558.895	6.46
559.091	6.7
559.287	7.03
559.483	6.82
559.679	6.77
559.876	6.72
560.072	6.83
560.268	6.6
560.464	6.45
560.66	6.24
560.856	6.27
561.052	6.24
561.247	6.17
561.443	6.07
561.639	6.24
561.835	6.33
562.031	6.27
562.227	6.42
562.423	6.37
562.619	6.49
562.815	6.89
563.01	6.66
563.206	6.64
563.402	6.75
563.598	6.72
563.793	6.77
563.989	6.89
564.185	7.01
564.381	7.1
564.576	7.22
564.772	7.06
564.968	6.77
565.163	6.93
565.359	6.86
565.555	6.63
565.75	6.8
565.946	6.81
566.141	6.7
566.337	6.57
566.532	6.34
566.728	6.43
566.923	6.59
567.119	6.6
567.314	6.62
567.51	6.88
567.705	6.8
567.901	6.64
568.096	6.71
568.292	6.76
568.487	6.96
568.682	7.11
568.878	6.91
569.073	6.87
569.268	7.15
569.464	7.27
569.659	7.51
569.854	7.73
570.05	7.62
570.245	7.45
570.44	7.49
570.635	7.39
570.831	7.34
571.026	7.51
571.221	7.53
571.416	7.32
571.611	7.28
571.806	7.14
572.002	7.17
572.197	7.16
572.392	7.39
572.587	7.42
572.782	7.57
572.977	7.56
573.172	7.58
573.367	7.58
573.562	7.85
573.757	7.83
573.952	7.7
574.147	7.76
574.342	7.9
574.537	7.83
574.732	7.93
574.927	7.86
575.121	8.06
575.316	7.95
575.511	7.98
575.706	7.82
575.901	7.83
576.096	7.75
576.29	7.67
576.485	7.66
576.68	7.56
576.875	7.34
577.069	7.28
577.264	7.29
577.459	7.26
577.654	7.38
577.848	7.26
578.043	7.08
578.238	7.1
578.432	7.14
578.627	7.45
578.821	7.61
579.016	7.94
579.21	8.05
579.405	8.13
579.6	8.29
579.794	8.36
579.989	8.54
580.183	8.78
580.378	8.95
580.572	9.05
580.766	9.06
580.961	9.08
581.155	9.13
581.35	9.35
581.544	9.01
581.738	9.09
581.933	8.89
582.127	8.85
582.321	8.78
582.516	8.7
582.71	8.7
582.904	8.42
583.099	8.13
583.293	7.79
583.487	7.76
583.681	8.32
583.875	8.18
584.07	8.41
584.264	8.63
584.458	8.99
584.652	9.07
584.846	9.12
585.04	9.11
585.234	9.16
585.428	9.59
585.623	9.41
585.817	8.94
586.011	9.13
586.205	8.84
586.399	8.67
586.593	8.32
586.787	8.43
586.981	8.59
587.174	8.75
587.368	8.98
587.562	8.59
587.756	8.51
587.95	8.61
588.144	8.46
588.338	8.78
588.532	8.75
588.725	8.82
588.919	8.87
589.113	8.79
589.307	8.82
589.501	8.78
589.694	8.86
589.888	8.93
590.082	8.91
590.275	9.03
590.469	8.71
590.663	8.78
590.856	8.75
591.05	8.83
591.244	8.87
591.437	9
591.631	8.93
591.824	9.11
592.018	9.36
592.212	9.37
592.405	9.45
592.599	9.68
592.792	9.6
592.986	9.74
593.179	9.7
593.372	9.71
593.566	9.88
593.759	9.89
593.953	10.14
594.146	10.08
594.339	10.2
594.533	10.02
594.726	9.89
594.92	9.93
595.113	9.88
595.306	9.78
595.499	9.59
595.693	9.21
595.886	9.5
596.079	9.3
596.272	9.17
596.466	9.11
596.659	9.38
596.852	9.43
597.045	9.52
597.238	9.58
597.431	9.49
597.624	9.62
597.818	9.93
598.011	9.66
598.204	9.48
598.397	9.45
598.59	9.53
598.783	9.24
598.976	9.11
599.169	9
599.362	8.82
599.555	9.28
599.748	9.32
599.941	8.95
600.134	8.9
600.326	8.93
600.519	9.15
600.712	8.93
600.905	9.39
601.098	9.6
601.291	9.61
601.483	9.82
601.676	9.6
601.869	9.67
602.062	9.65
602.255	9.84
602.447	10.14
602.64	9.87
602.833	9.97
603.025	9.79
603.218	9.72
603.411	9.62
603.603	9.6
603.796	9.68
603.989	9.6
604.181	9.61
604.374	9.56
604.566	9.46
604.759	9.66
604.951	9.9
605.144	9.78
605.336	9.89
605.529	10.07
605.721	10.05
605.914	9.98
606.106	9.89
606.299	10.11
606.491	10.26
606.683	10.18
606.876	10.41
607.068	10.26
607.26	10.15
607.453	10.09
607.645	9.97
607.837	9.72
608.03	9.74
608.222	10.01
608.414	9.93
608.606	10
608.799	10.15
608.991	9.89
609.183	9.76
609.375	10.03
609.567	9.93
609.759	9.92
609.952	10.13
610.144	10.02
610.336	9.77
610.528	9.85
610.72	9.59
610.912	9.48
611.104	9.53
611.296	9.58
611.488	9.62
611.68	9.81
611.872	9.79
612.064	9.61
612.256	9.41
612.448	9.57
612.64	9.37
612.832	9.87
613.023	9.94
613.215	9.95
613.407	10.05
613.599	9.64
613.791	9.43
613.983	9.55
614.174	9.85
614.366	10.41
614.558	10.33
614.75	10.57
614.941	10.39
615.133	10.41
615.325	10.37
615.516	10.24
615.708	10.45
615.9	10.54
616.091	10.39
616.283	10.46
616.475	10.42
616.666	10.85
616.858	10.71
617.049	10.35
617.241	10.35
617.432	10.17
617.624	10.34
617.815	10.6
618.007	10.5
618.198	10.64
618.39	10.5
618.581	10.09
618.773	9.77
618.964	9.76
619.155	10.12
619.347	9.99
619.538	10.16
619.729	10.26
619.921	10.01
620.112	10.06
620.303	10.07
620.494	10.01
620.686	10.31
620.877	10.31
621.068	10.15
621.259	10.05
621.451	10.42
621.642	10.66
621.833	10.51
622.024	10.54
622.215	10.6
622.406	10.72
622.597	10.84
622.788	10.88
622.98	10.97
623.171	10.99
623.362	11.02
623.553	10.48
623.744	10.08
623.935	10.45
624.126	10.66
624.317	10.44
624.508	10.25
624.698	10.34
624.889	10.27
625.08	10.12
625.271	10.07
625.462	9.93
625.653	10.22
625.844	10.26
626.034	10.07
626.225	9.98
626.416	10.15
626.607	10.34
626.798	10.26
626.988	10.1
627.179	10.29
627.37	10.65
627.56	10.79
627.751	10.79
627.942	10.82
628.132	10.78
628.323	10.68
628.514	10.66
628.704	10.48
628.895	10.59
629.085	10.71
629.276	10.43
629.466	10.25
629.657	10.04
629.847	10.34
630.038	10.46
630.228	10.55
630.419	10.55
630.609	10.59
630.8	10.57
630.99	10.23
631.181	10.16
631.371	10.33
631.561	10.18
631.752	10.11
631.942	9.83
632.132	9.84
632.323	9.53
632.513	9.52
632.703	9.6
632.893	9.44
633.084	9.61
633.274	9.38
633.464	9.34
633.654	9.41
633.844	9.75
634.034	9.87
634.225	9.98
634.415	9.95
634.605	9.91
634.795	9.88
634.985	10.21
635.175	10.2
635.365	10.74
635.555	10.39
635.745	10.29
635.935	10.38
636.125	10.34
636.315	10.26
636.505	10.23
636.695	10.72
636.885	10.65
637.075	10.73
637.265	11.06
637.455	11.02
637.644	11.44
637.834	11.92
638.024	11.6
638.214	12
638.404	12.03
638.593	12.27
638.783	11.77
638.973	11.82
639.163	11.4
639.352	11.43
639.542	11.41
639.732	11.6
639.921	11.33
640.111	11.19
640.301	10.37
640.49	10.46
640.68	10.79
640.87	10.83
641.059	10.53
641.249	11.1
641.438	10.99
641.628	10.99
641.817	11.23
642.007	11.31
642.196	11.42
642.386	11.83
642.575	11.98
642.764	11.92
642.954	12
643.143	12.36
643.333	12.16
643.522	12.25
643.711	12.09
643.901	11.47
644.09	11.49
644.279	12.2
644.469	11.67
644.658	11.35
644.847	11.34
645.036	11.41
645.226	11.55
645.415	11.49
645.604	11.29
645.793	11.17
645.982	11.45
646.171	11.07
646.361	10.8
646.55	10.98
646.739	10.67
646.928	10.1
647.117	10.35
647.306	10.46
647.495	10.84
647.684	10.86
647.873	10.75
648.062	10.88
648.251	11.32
648.44	11.01
648.629	11.17
648.818	11.44
649.007	11.94
649.196	11.45
649.384	11.39
649.573	10.93
649.762	10.82
649.951	11.08
650.14	10.71
650.328	10.7
650.517	10.53
650.706	10.8
650.895	10.93
651.083	10.89
651.272	11.47
651.461	11.2
651.65	11.29
651.838	11.64
652.027	11.7
652.216	11.8
652.404	11.71
652.593	12.14
652.781	11.76
652.97	11.51
653.158	11.19
653.347	10.75
653.535	11.15
653.724	10.94
653.912	11.06
654.101	11.02
654.289	11.18
654.478	11.33
654.666	11.26
654.855	11.94
655.043	12.32
655.231	12.31
655.42	11.92
655.608	11.27
655.796	11.66
655.985	11.37
656.173	11.55
656.361	11.92
656.55	11.83
656.738	12.16
656.926	11.96
657.114	11.79
657.302	11.68
657.491	12.13
657.679	12.09
657.867	11.75
658.055	11.64
658.243	11.59
658.431	11.22
658.619	11.12
658.807	10.66
658.996	10.53
659.184	10.56
659.372	10.78
659.56	10.74
659.748	10.84
659.936	10.8
660.124	10.78
660.311	11.13
660.499	11.05
660.687	11.27
660.875	11.47
661.063	11.53
661.251	11.28
661.439	11.06
661.627	11.17
661.814	11.78
662.002	12
662.19	12.67
662.378	12.25
662.565	12.15
662.753	12.16
662.941	11.74
663.129	11.68
663.316	11.99
663.504	12.5
663.692	12.91
663.879	12.56
664.067	12.84
664.254	12.32
664.442	12.52
664.63	12.8
664.817	12.81
665.005	13.46
665.192	13.32
665.38	13.25
665.567	12.97
665.755	12.79
665.942	12.84
666.13	13.08
666.317	13.28
666.504	12.73
666.692	12.44
666.879	12.38
667.067	12.27
667.254	12.81
667.441	12.71
667.629	12.85
667.816	12.09
668.003	12.41
668.19	11.85
668.378	11.66
668.565	11.8
668.752	12.26
668.939	12.06
669.127	11.74
669.314	11.4
669.501	11.59
669.688	11.55
669.875	12.26
670.062	12.07
670.249	11.8
670.436	11.56
670.623	12.03
670.81	11.4
670.997	11.19
671.184	11.23
671.371	11.26
671.558	11.42
671.745	11.47
671.932	11.37
672.119	11.41
672.306	11.75
672.493	11.82
672.68	11.76
672.867	12.63
673.054	12.83
673.24	12.61
673.427	13.27
673.614	13.49
673.801	13.73
673.988	13.76
674.174	13.93
674.361	13.83
674.548	13.92
674.734	13.64
674.921	12.9
675.108	13.23
675.294	13.45
675.481	12.54
675.668	12.18
675.854	12.38
676.041	12.27
676.227	11.8
676.414	12.06
676.601	12.64
676.787	13.22
676.974	13.33
677.16	13.38
677.347	13.64
677.533	14.11
677.719	13.85
677.906	13.97
678.092	14.08
678.279	14.54
678.465	14.59
678.651	13.33
678.838	13.24
679.024	13.57
679.21	13.33
679.397	13.31
679.583	12.62
679.769	12.56
679.955	11.91
680.142	11.71
680.328	11.65
680.514	11.64
680.7	12.32
680.886	12.06
681.073	12.17
681.259	12.15
681.445	11.9
681.631	12.17
681.817	11.95
682.003	12.09
682.189	12.52
682.375	12.56
682.561	12.8
682.747	12.61
682.933	12.23
683.119	12.08
683.305	12.24
683.491	12.46
683.677	12.27
683.863	12.76
684.049	12.76
684.235	12.53
684.42	12.42
684.606	11.78
684.792	12.05
684.978	12.38
685.164	12.72
685.349	12.81
685.535	13.06
685.721	13.01
685.907	12.74
686.092	13.21
686.278	13.15
686.464	13.14
686.649	13.37
686.835	13.26
687.021	13.35
687.206	12.96
687.392	12.96
687.577	12.74
687.763	12.84
687.948	13.55
688.134	13.07
688.319	13.17
688.505	13.36
688.69	13.77
688.876	14.08
689.061	13.9
689.247	13.36
689.432	13.19
689.618	13.44
689.803	13.83
689.988	13.6
690.174	14.2
690.359	14.35
690.544	13.79
690.73	13.73
690.915	13.77
691.1	13.52
691.285	14.03
691.471	14.29
691.656	14.12
691.841	14.26
692.026	13.95
692.211	13.62
692.396	13.17
692.582	13.53
692.767	12.79
692.952	12.11
693.137	12.64
693.322	13.19
693.507	12.8
693.692	13.15
693.877	12.63
694.062	13.22
694.247	13.22
694.432	13.42
694.617	13.21
694.802	13.53
694.987	13.98
695.172	14.25
695.357	13.67
695.541	14.13
695.726	13.94
695.911	13.93
696.096	13.18
696.281	12.95
696.466	13.02
696.65	13.02
696.835	12.86
697.02	13.03
697.204	12.64
697.389	12.73
697.574	12.56
697.759	12.68
697.943	12.8
698.128	13.3
698.312	13.41
698.497	13.37
698.682	13.63
698.866	13.84
699.051	13.16
699.235	13.26
699.42	13.2
699.604	13.28
699.789	13
699.973	13.33
700.158	13.58
700.342	13.51
700.527	13.72
700.711	13.14
700.895	12.91
701.08	13.86
701.264	14.02
701.448	14.33
701.633	13.89
701.817	13.75
702.001	13.59
702.186	12.83
702.37	12.56
702.554	12.65
702.738	13.09
702.923	13.42
703.107	13.37
703.291	13.41
703.475	13.87
703.659	13.36
703.843	14.15
704.027	14.98
704.212	15.9
704.396	17.05
704.58	17.02
704.764	17.48
704.948	17.81
705.132	17.32
705.316	17
705.5	16.32
705.684	17.9
705.868	17.73
706.052	16.93
706.235	16.21
706.419	15.74
706.603	15.34
706.787	15.22
706.971	15.26
707.155	15.83
707.339	16.11
707.522	16.08
707.706	15.78
707.89	14.97
708.074	15.74
708.257	15.97
708.441	15.96
708.625	16.09
708.808	15.97
708.992	16.44
709.176	15.49
709.359	15.47
709.543	15.51
709.727	15.05
709.91	15.25
710.094	14.87
710.277	14.92
710.461	14.56
710.644	14.28
710.828	14.13
711.011	13.44
711.195	14.7
711.378	15.28
711.562	14.96
711.745	15.61
711.928	15.43
712.112	15.69
712.295	15.44
712.478	15.62
712.662	15.97
712.845	15.58
713.028	15.72
713.212	14.72
713.395	14.73
713.578	15.41
713.761	15
713.945	16.01
714.128	15.63
714.311	16.02
714.494	16.08
714.677	16.1
714.86	16.71
715.043	16.28
715.227	17.29
715.41	15.76
715.593	15.77
715.776	15.64
715.959	15.67
716.142	15.28
716.325	15.59
716.508	15.29
716.691	15.19
716.874	15.36
717.057	16.19
717.239	15.78
717.422	16.62
717.605	16.89
717.788	16.98
717.971	16.63
718.154	17.33
718.337	16.87
718.519	16.67
718.702	16.8
718.885	16.29
719.068	15.32
719.25	14.52
719.433	14.08
719.616	13.94
719.798	14.62
719.981	14.22
720.164	13.9
720.346	14.31
720.529	15.95
720.712	16.23
720.894	17.06
721.077	17.8
721.259	18.7
721.442	19.49
721.624	18.7
721.807	17.98
721.989	18.39
722.172	17.62
722.354	17.27
722.537	17.21
722.719	16.88
722.901	16.35
723.084	16.25
723.266	15.51
723.448	15.55
723.631	17.46
723.813	18.2
723.995	17.14
724.178	18.03
724.36	18.93
724.542	18.34
724.724	18.49
724.907	17.85
725.089	17.79
725.271	17.92
725.453	17.58
725.635	15.86
725.817	15.17
725.999	15.79
726.181	15.97
726.364	13.48
726.546	12.53
726.728	12.97
726.91	13.55
727.092	13.36
727.274	13.53
727.456	13.06
727.638	13.73
727.819	13.25
728.001	12.83
728.183	12.25
728.365	13.19
728.547	13.82
728.729	13.97
728.911	14.5
729.093	14.45
729.274	14.64
729.456	14.83
729.638	14.24
729.82	15.25
730.001	15.96
730.183	16.41
730.365	17.32
730.546	17.09
730.728	16.47
730.91	16.37
731.091	16.03
731.273	16.44
731.455	16.41
731.636	17.68
731.818	16.93
731.999	17.01
732.181	16.47
732.362	16.32
732.544	16.31
732.725	16.48
732.907	15.99
733.088	17.08
733.27	17.17
733.451	17.98
733.633	16.31
733.814	16.43
733.995	16.84
734.177	17.31
734.358	17.06
734.539	17.74
734.721	17.69
734.902	17.55
735.083	17.05
735.264	16.92
735.446	16.74
735.627	18.19
735.808	19.2
735.989	18.64
736.17	18.22
736.351	18.66
736.533	19.22
736.714	19.83
736.895	20.32
737.076	20.24
737.257	19.39
737.438	19.52
737.619	19.08
737.8	18.8
737.981	19.05
738.162	18.81
738.343	17.42
738.524	16.31
738.705	15.81
738.886	15.25
739.067	15.02
739.247	15.75
739.428	14.04
739.609	13.67
739.79	11.99
739.971	11.56
740.151	11.54
740.332	12.55
740.513	13.6
740.694	12.87
740.874	12.85
741.055	13.21
741.236	13.3
741.417	16.12
741.597	16.04
741.778	18.06
741.958	18.07
742.139	19.18
742.32	18.99
742.5	18.49
742.681	18.76
742.861	19.89
743.042	19.7
743.222	18.63
743.403	17.6
743.583	18.53
743.764	17.82
743.944	18.31
744.124	17.58
744.305	16.58
744.485	16.99
744.666	18.4
744.846	18.71
745.026	18.32
745.207	19.9
745.387	19.85
745.567	19.12
745.747	19.84
745.928	18.72
746.108	19.66
746.288	21.03
746.468	21.1
746.648	20.33
746.829	21.21
747.009	22.06
747.189	21.68
747.369	21.45
747.549	22.77
747.729	21.45
747.909	21.61
748.089	21.52
748.269	23.22
748.449	22.55
748.629	21.85
748.809	19.54
748.989	19
749.169	18.61
749.349	20.49
749.529	20.6
749.709	21.3
749.889	21.05
750.068	19.6
750.248	18.89
750.428	18.53
750.608	18.68
750.788	20.31
750.967	20.75
751.147	21.2
751.327	18.61
751.507	17.36
751.686	17.43
751.866	18.75
752.046	19.64
752.225	18.94
752.405	18.61
752.585	18.18
752.764	17.14
752.944	17.28
753.123	18.01
753.303	19.71
753.482	20.28
753.662	20.35
753.841	19.82
754.021	21.07
754.2	20.84
754.38	21.16
754.559	22.93
754.739	22.9
754.918	22.05
755.097	20.56
755.277	18.64
755.456	18.06
755.635	18.18
755.815	18.16
755.994	15.37
756.173	15.15
756.352	15.47
756.532	14.67
756.711	14.93
756.89	15.37
757.069	15.95
757.248	17.11
757.427	17.22
757.607	17.51
757.786	17.92
757.965	19.88
758.144	19.75
758.323	18.85
758.502	18.79
758.681	19.23
758.86	19.36
759.039	20.54
759.218	20.74
759.397	21.34
759.576	18.84
759.755	17.18
759.934	17.5
760.113	17.79
760.291	18.63
760.47	19.14
760.649	20.36
760.828	20.42
761.007	19.19
761.186	17.59
761.364	17.16
761.543	19.21
761.722	20.92
761.901	19.38
762.079	19.66
762.258	18.58
762.437	17.77
762.615	16.66
762.794	17.21
762.972	17.49
763.151	17.67
763.33	17.57
763.508	17.09
763.687	16.21
763.865	17.52
764.044	17.49
764.222	18.15
764.401	17.95
764.579	18.16
764.758	17.86
764.936	17.05
765.114	18.18
765.293	17.73
765.471	17.89
765.65	19.02
765.828	17.98
766.006	18.33
766.184	18.84
766.363	18.24
766.541	18.56
766.719	18.2
766.898	19.74
767.076	18.12
767.254	19.38
767.432	19.77
767.61	19.6
767.788	18.07
767.967	18.18
768.145	18.66
768.323	20.02
768.501	18.94
768.679	19.16
768.857	19.96
769.035	20.31
769.213	19.2
769.391	19.14
769.569	18.53
769.747	21.34
769.925	20.74
770.103	19.18
770.281	18.48
770.459	20.15
770.636	19.98
770.814	17.99
770.992	19.72
771.17	19.83
771.348	21.05
771.525	21.18
771.703	20.01
771.881	20.14
772.059	21.08
772.236	22.55
772.414	22.07
772.592	20.74
772.769	21.53
772.947	20.78
773.125	21.62
773.302	20.17
773.48	21.13
773.657	21.45
773.835	22.4
774.013	21.08
774.19	20.33
774.368	19.83
774.545	22.63
774.723	19.98
774.9	20.2
775.077	18.84
775.255	19.72
775.432	18.61
775.61	20.26
775.787	19.4
775.964	22.27
776.142	23.08
776.319	24.18
776.496	22.09
776.674	23.74
776.851	21.88
777.028	25.05
777.205	26.12
777.382	28.18
777.56	25.69
777.737	25.47
777.914	24.01
778.091	23.77
778.268	22.49
778.445	23.22
778.622	22.55
778.8	24.17
778.977	22.19
779.154	22.71
779.331	20.23
779.508	20.98
779.685	20.37
779.862	22.45
780.038	24.28
780.215	24.22
780.392	25.38
780.569	27.33
780.746	28.9
780.923	27.35
781.1	26.31
781.277	29.23
781.453	29.54
781.63	30.49
781.807	28.67
781.984	27.55
782.16	27.14
782.337	27.72
782.514	29.32
782.691	27.44
782.867	31.5
783.044	32.07
783.221	30.36
783.397	32.21
783.574	32.25
783.75	31.32
783.927	30.12
784.103	32.44
784.28	33.01
784.456	31.03
784.633	33.05
784.809	30.16
784.986	29.82
785.162	28.58
785.339	25.03
785.515	23.83
785.692	24.7
785.868	23.45
786.044	21.92
786.221	21.36
786.397	19.64
786.573	19.87
786.749	22.11
786.926	18.9
787.102	20.12
787.278	22.99
787.454	25.45
787.631	25.07
787.807	24.8
787.983	22.47
788.159	21.37
788.335	20
788.511	17.86
788.687	17.37
788.863	18.46
789.039	17.83
789.216	16.71
789.392	14.5
789.568	14.34
789.744	15.29
789.919	18.23
790.095	14.34
790.271	17.69
790.447	19.17
790.623	19.03
790.799	18.2
790.975	15.86
791.151	17.13
791.327	18.33
791.502	18.41
791.678	19.74
791.854	20.63
792.03	25.6
792.205	24.32
792.381	22.46
792.557	23.01
792.733	27.71
792.908	31.6
793.084	28.35
793.259	26.33
793.435	26.15
793.611	25.37
793.786	21.6
793.962	19.65
794.137	19.49
794.313	19.76
794.488	18.17
794.664	14.38
794.839	13.85
795.015	18.46
795.19	19.38
795.366	21.95
795.541	23.51
795.716	24.46
795.892	25.66
796.067	28.63
796.242	28.2
796.418	31.66
796.593	34.41
796.768	36.19
796.944	33.12
797.119	34.67
797.294	32.03
797.469	32.45
797.644	33.79
797.82	33.26
797.995	30.65
798.17	32.96
798.345	30
798.52	29.22
798.695	28.32
798.87	30.21
799.045	27.15
799.22	29.7
799.395	30.84
799.57	31.02
799.745	31
799.92	31.32
800.095	28.82
800.27	27.16
800.445	30.16
800.62	27.77
800.795	27.84
800.97	29.05
801.145	28.02
801.319	28.45
801.494	28.71
801.669	29.63
801.844	29.47
802.018	32.22
802.193	33.37
802.368	29.73
802.543	31.41
802.717	33.68
802.892	35.59
803.067	36.02
803.241	33.2
803.416	34.38
803.59	34.44
803.765	33.6
803.94	28.35
804.114	27.91
804.289	30.74
804.463	30.32
804.638	29.64
804.812	29.44
804.986	25.58
805.161	24.08
805.335	22.16
805.51	22.45
805.684	21.32
805.858	25.19
806.033	23.81
806.207	20.96
806.381	22.94
806.556	21.47
806.73	18.31
806.904	18.53
807.078	17.58
807.253	17.29
807.427	15.67
807.601	18.72
807.775	18.13
807.949	20.3
808.123	23.83
808.298	23.9
808.472	24.79
808.646	29.41
808.82	30.39
808.994	31.56
809.168	30.15
809.342	29.31
809.516	29.81
809.69	30.53
809.864	32.06
810.038	29.35
810.212	27.7
810.385	27.84
810.559	24.84
810.733	26.39
810.907	27.36
811.081	28.39
811.255	33.09
811.428	31.09
811.602	29.26
811.776	33.17
811.95	35.97
812.123	35.84
812.297	34.24
812.471	36.52
812.644	38.75
812.818	42.78
812.992	42.28
813.165	42.54
813.339	44.82
813.512	44.35
813.686	42.84
813.86	40.86
814.033	40.98
814.207	43.54
814.38	41
814.554	39.26
814.727	37.39
814.9	39.87
815.074	36.12
815.247	36.13
815.421	40.58
815.594	36.01
815.767	35.44
815.941	40.18
816.114	38.92
816.287	38.96
816.46	36.44
816.634	32.86
816.807	32.65
816.98	32.65
817.153	32.52
817.327	27.56
817.5	30.23
817.673	30.52
817.846	25.31
818.019	21.42
818.192	20.51
818.365	19.19
818.538	22.93
818.711	26.08
818.884	26.02
819.057	22.42
819.23	22.77
819.403	22.07
819.576	22.19
819.749	22.87
819.922	23.81
820.095	25.71
820.268	29.39
820.441	28.76
820.614	25.36
820.786	25.17
820.959	24.91
821.132	25.78
821.305	26.93
821.477	25.07
821.65	23.81
821.823	21.87
821.996	21.13
822.168	19.67
822.341	19.48
822.514	18.76
822.686	18.67
822.859	18.74
823.031	19.12
823.204	17.74
823.376	17.36
823.549	17.04
823.722	17.99
823.894	18.56
824.067	18.78
824.239	17.79
824.411	18.79
824.584	18.76
824.756	19
824.929	18.6
825.101	19.93
825.273	20.91
825.446	21.67
825.618	21.97
825.79	21.26
825.963	20.63
826.135	21.27
826.307	21.37
826.479	20.97
826.652	19.99
826.824	19.27
826.996	18.84
827.168	18.27
827.34	18.34
827.512	18.2
827.684	19.43
827.856	21.33
828.029	22.71
828.201	22.84
828.373	23.07
828.545	23.99
828.717	23.72
828.889	23.67
829.061	23.04
829.232	23.13
829.404	22.89
829.576	22.05
829.748	20.38
829.92	20.14
830.092	19.5
830.264	21.97
830.436	24.67
830.607	28.5
830.779	28.72
830.951	31.71
831.123	30.54
831.294	31.28
831.466	31.12
831.638	31.27
831.809	28.9
831.981	26.92
832.153	24.3
832.324	19.96
832.496	17.39
832.667	18.83
832.839	18.94
833.011	21.56
833.182	19.42
833.354	16.47
833.525	17.36
833.697	20.06
833.868	21.8
834.039	22.77
834.211	23.54
834.382	23.01
834.554	25.61
834.725	24.87
834.896	24.43
835.068	28.03
835.239	28.13
835.41	29.96
835.581	30.09
835.753	27.21
835.924	25.61
836.095	23.89
836.266	22.33
836.438	19.32
836.609	20.72
836.78	23.77
836.951	19.55
837.122	21.09
837.293	22.45
837.464	20.77
837.635	28.34
837.806	29.54
837.977	32.2
838.148	40.08
838.319	40.71
838.49	40.92
838.661	37.94
838.832	40.8
839.003	44.16
839.174	43.7
839.345	40.87
839.516	38.36
839.687	41.06
839.857	42.66
840.028	34.98
840.199	31.38
840.37	31.39
840.54	30.36
840.711	33.44
840.882	32.64
841.053	28.75
841.223	34.84
841.394	33.17
841.564	31.01
841.735	30.52
841.906	29.4
842.076	36.2
842.247	33.72
842.417	32.8
842.588	31.18
842.758	31.18
842.929	32.01
843.099	37.41
843.27	33.79
843.44	37.2
843.611	36
843.781	33.94
843.951	26.78
844.122	38.13
844.292	40.18
844.462	37.64
844.633	36.53
844.803	34.95
844.973	26.72
845.144	32.77
845.314	27.85
845.484	28.02
845.654	35.42
845.824	45.82
845.995	37.47
846.165	43.74
846.335	44.47
846.505	57.09
846.675	65.87
846.845	58.97
847.015	74.19
847.185	77.87
847.355	72.53
847.525	71.12
847.695	59.82
847.865	64.8
848.035	65.05
848.205	56.39
848.375	55.4
848.545	40.39
848.715	59.52
848.884	52.9
849.054	53.39
849.224	59.32
849.394	84.76
849.564	93.23
849.733	91
849.903	62.03
850.073	89.2
850.243	94.66
850.412	105.51
850.582	99.66
850.752	111.07
850.921	121.59
851.091	103.4
851.26	79.53
851.43	65.49
851.599	61.87
851.769	89.69
851.939	91.43
852.108	73.45
852.278	66.52
852.447	48.48
852.616	42.13
852.786	49.83
852.955	54.62
853.125	53.28
853.294	63.78
853.463	74.37
853.633	69.04
853.802	59.3
853.971	76.62
854.141	82.16
854.31	89.06
854.479	91.29
854.648	84.71
854.818	88.04
854.987	91.34
855.156	88.54
855.325	80.62
855.494	78.91
855.663	72.8
855.832	64.66
856.001	61.81
856.171	68.53
856.34	65.96
856.509	61.85
856.678	52.8
856.847	39.54
857.016	39.75
857.185	44.71
857.353	46.16
857.522	53.15
857.691	54.02
857.86	52.72
858.029	44.39
858.198	35.91
858.367	39.69
858.535	50.24
858.704	58.84
858.873	66.17
859.042	57.61
859.21	55.15
859.379	47.29
859.548	48.5
859.717	54.58
859.885	53.62
860.054	57.42
860.222	70.55
860.391	71.18
860.56	81.72
860.728	68.06
860.897	74.81
861.065	71.58
861.234	96.29
861.402	85.48
861.571	87.12
861.739	93.48
861.908	91.04
862.076	83.25
862.244	76.48
862.413	73.72
862.581	77.46
862.749	73.28
862.918	76.76
863.086	73.04
863.254	66.79
863.423	71.78
863.591	65.69
863.759	71.88
863.927	65.47
864.096	69.32
864.264	62.56
864.432	40.61
864.6	34.71
864.768	36.89
864.936	33.9
865.104	36.98
865.272	41.31
865.44	47.43
865.608	43.75
865.776	34.97
865.944	54.45
866.112	56.16
866.28	80.39
866.448	82.81
866.616	103.15
866.784	117.91
866.952	98.28
867.12	75.92
867.288	63.37
867.455	71.36
867.623	70.16
867.791	44.35
867.959	49.3
868.127	46.69
868.294	46.07
868.462	41.68
868.63	40.37
868.797	46.4
868.965	48.14
869.133	65.83
869.3	62.21
869.468	69.9
869.636	76.27
869.803	83.18
869.971	93.27
870.138	113.98
870.306	105.17
870.473	101.54
870.641	90.69
870.808	108.32
870.975	80.3
871.143	86.73
871.31	95.01
871.478	93.21
871.645	80.75
871.812	86.88
871.98	77.54
872.147	77.18
872.314	65.41
872.482	68.56
872.649	59.51
872.816	60.77
872.983	50.43
873.15	38.9
873.318	50.19
873.485	56.85
873.652	56.22
873.819	60.54
873.986	56.3
874.153	57.06
874.32	61.04
874.487	67.3
874.654	72.59
874.821	73.45
874.988	83.85
875.155	59.38
875.322	27.2
875.489	28.93
875.656	32.96
875.823	30.03
875.99	30.26
876.157	23.37
876.324	23.91
876.49	24.45
876.657	16.13
876.824	-3.85
876.991	5.39
877.157	28.49
877.324	24.59
877.491	27.98
877.658	27.88
877.824	32.43
877.991	27.16
878.157	28.77
878.324	22.67
878.491	31.66
878.657	53.52
878.824	65.36
878.99	60.94
879.157	63.91
879.323	53.34
879.49	61.1
879.656	74.08
879.823	75.83
879.989	76.08
880.156	85.67
880.322	79.95
880.488	80.9
880.655	72.49
880.821	69.88
880.987	62.41
881.154	54.2
881.32	57.32
881.486	46.37
881.652	49.54
881.819	42.05
881.985	35.96
882.151	34.26
882.317	31.22
882.483	32.43
882.649	31.97
882.816	30.13
882.982	31.33
883.148	29.2
883.314	30.34
883.48	27.67
883.646	27.98
883.812	28.98
883.978	30.26
884.144	31.49
884.31	32.04
884.476	31.99
884.642	32.14
884.807	33.74
884.973	32.19
885.139	31.72
885.305	30.94
885.471	28.26
885.637	27.1
885.802	27.93
885.968	22.73
886.134	25.19
886.3	23.38
886.465	23.08
886.631	20.08
886.797	22.26
886.962	25.46
887.128	24.22
887.293	32.39
887.459	35.09
887.625	36.71
887.79	43.27
887.956	42.88
888.121	48.6
888.287	56.51
888.452	60.4
888.618	61.66
888.783	63.74
