Data from 2938052_Reflection_1.txt Node
Date: Sun Jul 12 14:09:40 EDT 2015
User: robert
Spectrometer: USB4E03001
Autoset integration time: false
Trigger mode: 4
Integration Time (sec): 1.000000E-1
Scans to average: 10
Electric dark correction enabled: true
Nonlinearity correction enabled: false
Boxcar width: 5
Stray light correction enabled: false
XAxis mode: Wavelengths
Stop averaging: false
Number of Pixels in Spectrum: 3648
>>>>>Begin Spectral Data<<<<<
177.566	-195.34
177.785	-1150.49
178.005	1119.19
178.225	4645.16
178.445	104.02
178.665	124.25
178.885	79.27
179.105	308.33
179.324	-86.02
179.544	248.75
179.764	251.59
179.984	1690.67
180.204	3259.86
180.423	439.88
180.643	213
180.863	165.28
181.083	169.8
181.302	196.12
181.522	456.09
181.742	-31144.44
181.961	-46.01
182.181	-23.74
182.401	-63.43
182.621	-61.67
182.84	7.75
183.06	13.52
183.279	20.17
183.499	52.59
183.719	72.41
183.938	90.96
184.158	113.7
184.377	114.44
184.597	127.38
184.816	120.22
185.036	115.45
185.256	98.32
185.475	98.12
185.695	82.95
185.914	75.64
186.134	138.92
186.353	27.53
186.572	1.81
186.792	-140.43
187.011	-19.86
187.231	38.09
187.45	-51.93
187.67	-6.33
187.889	23
188.108	42.39
188.328	40.57
188.547	-26.19
188.766	1.79
188.986	-77.81
189.205	-62.6
189.424	16.81
189.644	-3.2
189.863	9.08
190.082	-50.18
190.302	-53.43
190.521	-196.61
190.74	-201.68
190.959	445.21
191.178	109.25
191.398	94.85
191.617	92.73
191.836	154.77
192.055	183.95
192.274	253.56
192.494	237.05
192.713	209.92
192.932	-72.53
193.151	-32.91
193.37	-49.73
193.589	-9.83
193.808	-53.02
194.027	-74.48
194.246	-68.51
194.465	-54.08
194.685	-122.23
194.904	-47.55
195.123	-55.84
195.342	261.87
195.561	273.72
195.78	430.58
195.999	228.48
196.218	527.68
196.436	152.46
196.655	17.3
196.874	63.47
197.093	163.09
197.312	-155.04
197.531	-161.42
197.75	-19.36
197.969	-4.46
198.188	131.18
198.407	45.36
198.625	13.59
198.844	1.29
199.063	43.52
199.282	-55.98
199.501	-19.96
199.719	3.18
199.938	11.78
200.157	65.37
200.376	83.85
200.594	45.3
200.813	66.36
201.032	73.23
201.251	87.54
201.469	90.75
201.688	111.07
201.907	172.26
202.125	379.12
202.344	-380.19
202.563	-109.98
202.781	-28.41
203	-88.89
203.218	-118.84
203.437	-710.92
203.656	-342.95
203.874	-107.11
204.093	0.59
204.311	-17.8
204.53	40.56
204.748	44.79
204.967	11.98
205.185	36.04
205.404	64.08
205.622	52.97
205.841	108.36
206.059	172.29
206.278	723.92
206.496	-450
206.715	203.16
206.933	154.45
207.151	208.75
207.37	452.16
207.588	114.78
207.806	36.94
208.025	37.95
208.243	17.3
208.461	3.69
208.68	-55.86
208.898	-61.68
209.116	-69.53
209.335	4.62
209.553	-11.71
209.771	-23.13
209.989	-38.42
210.208	-213.67
210.426	1517.93
210.644	1092.07
210.862	273.22
211.081	379.31
211.299	242.08
211.517	360.09
211.735	123.61
211.953	112.67
212.171	95.52
212.39	37.02
212.608	16.41
212.826	-11.08
213.044	-27.41
213.262	-76.85
213.48	799.32
213.698	135.28
213.916	326.44
214.134	200.55
214.352	150.16
214.57	103.3
214.788	87.06
215.006	99.9
215.224	83.81
215.442	68.19
215.66	71.14
215.878	35.2
216.096	9.4
216.314	7.47
216.532	22.84
216.75	27.76
216.968	13.04
217.185	15.5
217.403	2.32
217.621	0.77
217.839	-9.48
218.057	-3.41
218.275	14.27
218.492	17.81
218.71	9.29
218.928	11.11
219.146	0.66
219.363	16.76
219.581	6.31
219.799	-0.09
220.017	7.85
220.234	63.21
220.452	91
220.67	103.48
220.887	225.56
221.105	140.28
221.323	78.41
221.54	97.18
221.758	90.63
221.976	128.8
222.193	134.87
222.411	118.36
222.629	82.46
222.846	58.13
223.064	51.21
223.281	39.39
223.499	55.52
223.716	65.41
223.934	44.88
224.151	17.88
224.369	-1.03
224.586	-24.8
224.804	-54.92
225.021	-23.35
225.239	-45.79
225.456	-27.58
225.674	-11.64
225.891	-3.61
226.108	1.47
226.326	10.18
226.543	8.49
226.76	7.47
226.978	3.67
227.195	10.48
227.413	10.19
227.63	17.16
227.847	20.9
228.064	17.17
228.282	12.67
228.499	11.85
228.716	14
228.934	13.96
229.151	15.29
229.368	17.75
229.585	17.76
229.802	16.93
230.02	18.63
230.237	15.17
230.454	13.35
230.671	14.11
230.888	12.29
231.105	11.82
231.323	13.84
231.54	13.02
231.757	11.85
231.974	10.99
232.191	13.81
232.408	13.29
232.625	18.01
232.842	24.55
233.059	27.98
233.276	31.76
233.493	29.34
233.71	27.8
233.927	26.27
234.144	26.52
234.361	27.92
234.578	25.53
234.795	22.21
235.012	24.27
235.229	26.08
235.446	23.95
235.663	21.06
235.879	15.83
236.096	15.72
236.313	18.96
236.53	17.8
236.747	16.78
236.964	15.48
237.181	16.11
237.397	14.57
237.614	14.13
237.831	14.36
238.048	19.25
238.264	24.04
238.481	24.11
238.698	17.84
238.915	13.26
239.131	12.77
239.348	13.73
239.565	11.14
239.781	7.78
239.998	7.58
240.215	4.43
240.431	0.11
240.648	1.34
240.865	1.83
241.081	0.91
241.298	3.91
241.514	6.44
241.731	8.13
241.947	8.75
242.164	11.99
242.38	10.9
242.597	11.92
242.814	12.21
243.03	12.56
243.246	12.34
243.463	12.41
243.679	12.88
243.896	12.76
244.112	13.82
244.329	14.83
244.545	12.51
244.762	13.02
244.978	13.32
245.194	15.83
245.411	15.57
245.627	15.02
245.843	15.64
246.06	15.12
246.276	15.08
246.492	12.77
246.709	11.88
246.925	13.21
247.141	13.6
247.357	13.36
247.574	12.02
247.79	11.85
248.006	12.19
248.222	11.91
248.439	12.32
248.655	11.2
248.871	11.58
249.087	11.53
249.303	10.1
249.519	8.89
249.736	8.14
249.952	8.81
250.168	9.21
250.384	8.13
250.6	9.25
250.816	6.72
251.032	6.76
251.248	7.98
251.464	6.49
251.68	8.11
251.896	9.57
252.112	9.14
252.328	8.33
252.544	7.06
252.76	8.77
252.976	8.86
253.192	10.29
253.408	10.29
253.624	8.88
253.84	11.54
254.056	10.26
254.272	7.02
254.487	8.23
254.703	9.19
254.919	6.98
255.135	5.29
255.351	4.21
255.567	0.99
255.782	4.19
255.998	7.22
256.214	7.56
256.43	9.37
256.646	11.37
256.861	10.3
257.077	8.99
257.293	12.2
257.508	14.09
257.724	13.89
257.94	14.95
258.155	12.27
258.371	12.2
258.587	11.56
258.802	10.79
259.018	9.56
259.234	9.16
259.449	10.45
259.665	9.45
259.88	8.2
260.096	8.74
260.312	8.92
260.527	9.16
260.743	9.25
260.958	8.88
261.174	8.9
261.389	9.75
261.605	10.24
261.82	9.67
262.036	9.71
262.251	10.36
262.466	9.41
262.682	8.41
262.897	7.88
263.113	6.36
263.328	6.66
263.543	4
263.759	3.32
263.974	3.53
264.189	0.96
264.405	3.21
264.62	3.67
264.835	4.36
265.051	6.07
265.266	7.13
265.481	5.83
265.696	5.36
265.912	7.14
266.127	7.49
266.342	6.64
266.557	8.33
266.773	7.69
266.988	6.7
267.203	6.66
267.418	6.88
267.633	6.4
267.848	7.26
268.064	7.82
268.279	7.62
268.494	6.95
268.709	8.27
268.924	7.67
269.139	5.74
269.354	5.87
269.569	6.54
269.784	6.33
269.999	7.09
270.214	6.87
270.429	7.96
270.644	8.8
270.859	8.64
271.074	7.85
271.289	8.1
271.504	9.54
271.719	9.43
271.934	8.67
272.149	9.29
272.363	8.75
272.578	8.8
272.793	8.13
273.008	7.38
273.223	8.61
273.438	10.29
273.653	10.84
273.867	10.32
274.082	10.17
274.297	11.39
274.512	10.73
274.726	10.17
274.941	11.64
275.156	11.06
275.371	12.03
275.585	12.69
275.8	11.93
276.015	11.53
276.229	10.89
276.444	11.77
276.659	10.45
276.873	9.94
277.088	10.59
277.302	9.95
277.517	11.15
277.732	10.68
277.946	8.15
278.161	7.18
278.375	7.39
278.59	7.38
278.804	6.6
279.019	5.74
279.233	6.27
279.448	6.02
279.662	5.54
279.877	3.37
280.091	4.01
280.306	4.78
280.52	4.96
280.735	5.03
280.949	7.06
281.163	7.32
281.378	8.55
281.592	7.81
281.806	8.52
282.021	9.09
282.235	10.84
282.449	10.93
282.664	10.57
282.878	10.81
283.092	10.86
283.307	10.04
283.521	11.11
283.735	10.55
283.949	10.32
284.164	11.1
284.378	10.39
284.592	9.56
284.806	9.26
285.02	9.92
285.234	9.83
285.449	9.75
285.663	10.29
285.877	9.07
286.091	9.99
286.305	11.63
286.519	10.74
286.733	11.3
286.947	11.79
287.161	11.42
287.375	10.95
287.589	11.57
287.803	10.8
288.017	9.68
288.231	9.06
288.445	8.76
288.659	7.31
288.873	8.46
289.087	8.04
289.301	7.94
289.515	7.44
289.729	6.98
289.943	5.99
290.157	7.46
290.371	6.99
290.584	8
290.798	7.86
291.012	7.53
291.226	6.63
291.44	6.18
291.654	6.53
291.867	6.22
292.081	6.52
292.295	6.39
292.509	4.71
292.722	6.6
292.936	5.69
293.15	5.94
293.364	7.17
293.577	6.04
293.791	5.85
294.005	5.58
294.218	6.3
294.432	7.12
294.645	7.61
294.859	8.26
295.073	7.63
295.286	9.57
295.5	9.61
295.713	9.43
295.927	9.45
296.14	9.94
296.354	10.25
296.568	11.26
296.781	10.37
296.994	10.78
297.208	11.73
297.421	12.39
297.635	12.19
297.848	12.8
298.062	12.01
298.275	12.23
298.489	12.41
298.702	11.84
298.915	11.12
299.129	10.39
299.342	8.84
299.555	7.66
299.769	6.37
299.982	6.84
300.195	5.54
300.409	7.55
300.622	8.08
300.835	7.68
301.048	7.79
301.262	8.19
301.475	10.05
301.688	11.64
301.901	12.8
302.115	12.41
302.328	10.46
302.541	10.21
302.754	8.97
302.967	9.08
303.18	9.54
303.393	10.01
303.607	10.26
303.82	10.32
304.033	9.84
304.246	8.93
304.459	10.37
304.672	10.87
304.885	11.34
305.098	10.26
305.311	9.84
305.524	11.16
305.737	11.21
305.95	11.96
306.163	12.05
306.376	12.78
306.589	12.99
306.802	12.37
307.015	13.9
307.228	13.69
307.44	13.6
307.653	14.97
307.866	12.73
308.079	12.77
308.292	11.77
308.505	11.8
308.718	10.65
308.93	9.79
309.143	10.56
309.356	10.35
309.569	10.28
309.781	11.25
309.994	10.02
310.207	10.13
310.42	10.98
310.632	11.77
310.845	11.76
311.058	12.26
311.27	12.85
311.483	12.51
311.696	11.84
311.908	11.97
312.121	10.81
312.333	11.8
312.546	12.69
312.759	11.41
312.971	11.4
313.184	13.06
313.396	12.63
313.609	12.05
313.821	12.56
314.034	12.89
314.246	13.1
314.459	14.02
314.671	13.96
314.884	13.95
315.096	13.61
315.309	13.7
315.521	12.16
315.733	13.04
315.946	12.64
316.158	12.52
316.371	12.24
316.583	11.55
316.795	12.49
317.008	13.78
317.22	13.63
317.432	15.31
317.644	14.53
317.857	15.83
318.069	16.6
318.281	17.57
318.494	17.69
318.706	18.43
318.918	19.3
319.13	18.21
319.342	15.21
319.555	14.37
319.767	15.48
319.979	15.72
320.191	14.16
320.403	12.99
320.615	14.03
320.827	14.21
321.039	12.87
321.252	11.59
321.464	12.43
321.676	14.31
321.888	15.29
322.1	13.12
322.312	13.65
322.524	14.17
322.736	14.05
322.948	11.9
323.16	11.57
323.372	12.4
323.584	13.24
323.796	13.87
324.007	13.85
324.219	14.12
324.431	13.79
324.643	14.7
324.855	14.14
325.067	14.08
325.279	15.11
325.491	14.61
325.702	13.94
325.914	14.99
326.126	13.09
326.338	12.34
326.55	11.92
326.761	12.08
326.973	10.52
327.185	9.86
327.396	8.87
327.608	8.36
327.82	8.32
328.032	9.42
328.243	8.12
328.455	9.4
328.666	9.62
328.878	9.65
329.09	9.91
329.301	9.49
329.513	11.62
329.725	12.29
329.936	13.84
330.148	14.03
330.359	12.59
330.571	11.97
330.782	10.88
330.994	11.07
331.205	11.62
331.417	11.46
331.628	11.91
331.84	10.06
332.051	11.01
332.262	9.22
332.474	9
332.685	9.84
332.897	10.74
333.108	12.51
333.319	12.97
333.531	12.17
333.742	12.59
333.953	12.72
334.165	12.05
334.376	11.1
334.587	12.08
334.799	12.49
335.01	12.98
335.221	12.78
335.432	13.17
335.644	12.76
335.855	12.66
336.066	13.36
336.277	13.42
336.488	14.53
336.7	15.63
336.911	14.06
337.122	13.67
337.333	13.21
337.544	12.54
337.755	11.68
337.966	11.29
338.177	10.79
338.388	10.53
338.599	10.84
338.811	10.73
339.022	11.14
339.233	11.7
339.444	11.53
339.655	12.25
339.866	12.58
340.076	11.44
340.287	11.57
340.498	12.65
340.709	12.33
340.92	11.61
341.131	11.39
341.342	10.75
341.553	11.04
341.764	11.87
341.975	11.42
342.185	10.99
342.396	11.14
342.607	10.99
342.818	10.78
343.029	9.91
343.239	8.91
343.45	9.49
343.661	9.29
343.872	8.69
344.082	8.94
344.293	8.14
344.504	8.12
344.714	8.63
344.925	8.19
345.136	7.98
345.346	8.79
345.557	10.8
345.768	10.54
345.978	10.05
346.189	10.69
346.399	9.21
346.61	10.13
346.821	10.37
347.031	9.7
347.242	10.99
347.452	10.65
347.663	9.89
347.873	9.44
348.084	8.82
348.294	8.13
348.504	8.57
348.715	9.75
348.925	9.49
349.136	9.38
349.346	10.17
349.557	10.18
349.767	11.22
349.977	11.5
350.188	9.98
350.398	9.54
350.608	10.17
350.819	9.9
351.029	9.94
351.239	9.46
351.449	9.42
351.66	9.75
351.87	8.89
352.08	8.3
352.29	8.82
352.501	10.34
352.711	10.68
352.921	10.56
353.131	10.2
353.341	9.59
353.552	9.67
353.762	9.71
353.972	9.75
354.182	10.24
354.392	10.53
354.602	10.19
354.812	9.79
355.022	10.05
355.232	10.33
355.442	9.71
355.652	10
355.862	10.59
356.072	10.97
356.282	10.51
356.492	10.9
356.702	11.05
356.912	10.94
357.122	10.52
357.332	10.93
357.542	10.91
357.752	11.58
357.962	11.28
358.171	9.98
358.381	9.95
358.591	9.83
358.801	9.48
359.011	9.27
359.221	9.61
359.43	9.86
359.64	9.29
359.85	8.92
360.06	8.48
360.269	8.94
360.479	9.42
360.689	8.97
360.899	9.47
361.108	9.01
361.318	9.06
361.528	8.77
361.737	8.32
361.947	7.64
362.156	7.97
362.366	8.73
362.576	8.24
362.785	8.3
362.995	8.8
363.204	8.21
363.414	8.44
363.623	8.34
363.833	8.89
364.042	9.24
364.252	10.47
364.461	10.04
364.671	9.51
364.88	10.11
365.09	10.35
365.299	10.24
365.509	9.59
365.718	9.02
365.927	8.91
366.137	7.92
366.346	7.28
366.555	6.15
366.765	6.78
366.974	6.05
367.183	5.34
367.393	4.98
367.602	4.57
367.811	5.33
368.021	5.67
368.23	5.46
368.439	5.35
368.648	5.67
368.857	7.26
369.067	6.56
369.276	7.57
369.485	8.5
369.694	7.87
369.903	7.35
370.112	7.75
370.321	8.02
370.531	7.72
370.74	8.07
370.949	8.19
371.158	7.79
371.367	8.22
371.576	6.91
371.785	6.53
371.994	6.39
372.203	6.67
372.412	6.46
372.621	6.43
372.83	6.46
373.039	6.03
373.248	5.51
373.457	5.34
373.666	5.28
373.874	6.28
374.083	6.26
374.292	6.68
374.501	6.39
374.71	5.56
374.919	5.33
375.128	5.39
375.336	5.44
375.545	5.9
375.754	5.62
375.963	4.99
376.171	4.76
376.38	4.91
376.589	5.02
376.798	5.18
377.006	5.94
377.215	5.63
377.424	5.76
377.632	5.8
377.841	6.21
378.05	6.45
378.258	7.02
378.467	7.08
378.675	6.59
378.884	6.72
379.093	7.43
379.301	6.95
379.51	7.22
379.718	6.9
379.927	7
380.135	6.43
380.344	6.01
380.552	5.92
380.761	6.46
380.969	6.72
381.177	6.78
381.386	6.36
381.594	6.23
381.803	6.33
382.011	6.49
382.219	6.36
382.428	6.32
382.636	6.7
382.845	6.4
383.053	5.24
383.261	5.34
383.469	5.35
383.678	5.34
383.886	5.87
384.094	5.46
384.302	5.33
384.511	5.7
384.719	5.97
384.927	5.58
385.135	5.65
385.343	5.82
385.552	5.54
385.76	5.62
385.968	5.88
386.176	5.35
386.384	5.55
386.592	5.53
386.8	5.49
387.008	5.47
387.216	5.57
387.424	5.82
387.633	6.17
387.841	6.41
388.049	6.23
388.257	5.86
388.465	6.08
388.672	6.29
388.88	6.11
389.088	6.01
389.296	5.79
389.504	5.86
389.712	5.25
389.92	5.19
390.128	4.99
390.336	4.81
390.544	4.47
390.751	4.48
390.959	3.95
391.167	4.21
391.375	3.95
391.583	3.88
391.79	3.79
391.998	4.07
392.206	3.99
392.414	4.06
392.621	4
392.829	4.17
393.037	4.23
393.244	4.43
393.452	4.63
393.66	4.99
393.867	5.28
394.075	5.16
394.283	5.12
394.49	5.24
394.698	4.99
394.905	4.87
395.113	5.02
395.32	5.25
395.528	5.23
395.735	4.91
395.943	4.69
396.15	4.44
396.358	4.32
396.565	4.52
396.773	4.21
396.98	4.5
397.188	4.72
397.395	4.49
397.602	4.33
397.81	4.2
398.017	4.32
398.225	3.98
398.432	4.01
398.639	4.42
398.847	4.41
399.054	4.53
399.261	4.59
399.468	4.43
399.676	4.52
399.883	4.29
400.09	4.5
400.297	4.28
400.505	4.33
400.712	4.64
400.919	4.29
401.126	4.2
401.333	4.12
401.54	3.79
401.748	3.86
401.955	3.8
402.162	3.93
402.369	3.69
402.576	3.98
402.783	4.4
402.99	3.88
403.197	4.05
403.404	4.32
403.611	4.17
403.818	4.22
404.025	4.38
404.232	4.37
404.439	4.02
404.646	4.28
404.853	3.98
405.06	3.56
405.267	3.77
405.474	3.83
405.681	3.38
405.887	3.55
406.094	3.44
406.301	3.39
406.508	3.39
406.715	3.62
406.922	3.61
407.128	3.85
407.335	4.39
407.542	4.37
407.749	4.02
407.955	4.1
408.162	4.07
408.369	4.11
408.575	4.09
408.782	3.77
408.989	3.65
409.195	3.64
409.402	3.77
409.609	3.47
409.815	3.55
410.022	3.63
410.228	3.72
410.435	3.92
410.642	3.81
410.848	3.9
411.055	4.16
411.261	4.07
411.468	4.22
411.674	3.77
411.881	3.67
412.087	3.24
412.294	3.49
412.5	3.47
412.706	3.4
412.913	3.54
413.119	3.45
413.326	3.26
413.532	3.55
413.738	3.16
413.945	3.21
414.151	3.4
414.357	3.6
414.564	3.48
414.77	3.37
414.976	3.37
415.182	3.36
415.389	3.14
415.595	3.04
415.801	3.29
416.007	3.29
416.214	3.36
416.42	3.28
416.626	3.27
416.832	3.14
417.038	3.15
417.244	3.26
417.45	3.24
417.657	3.48
417.863	3.7
418.069	3.68
418.275	3.71
418.481	3.84
418.687	3.76
418.893	3.79
419.099	3.76
419.305	3.82
419.511	3.63
419.717	3.53
419.923	3.32
420.129	3.29
420.335	3.14
420.541	3.17
420.746	3.05
420.952	2.96
421.158	2.99
421.364	3.03
421.57	2.92
421.776	2.92
421.982	3.03
422.187	3.11
422.393	3.19
422.599	3.19
422.805	3.19
423.01	3.29
423.216	3.39
423.422	3.35
423.628	3.43
423.833	3.4
424.039	3.38
424.245	3.25
424.45	3.27
424.656	3.16
424.862	3.07
425.067	3.04
425.273	2.96
425.478	2.79
425.684	2.85
425.889	2.82
426.095	3.01
426.301	2.89
426.506	2.99
426.712	2.82
426.917	2.93
427.123	2.92
427.328	2.92
427.533	2.95
427.739	3.19
427.944	3.22
428.15	3.13
428.355	3.19
428.561	3.3
428.766	3.44
428.971	3.73
429.177	3.61
429.382	3.65
429.587	3.91
429.793	3.72
429.998	3.95
430.203	3.74
430.408	3.53
430.614	3.22
430.819	3.4
431.024	3.23
431.229	3.06
431.434	3.13
431.64	3.16
431.845	2.89
432.05	3.09
432.255	2.77
432.46	2.8
432.665	2.9
432.87	2.76
433.076	2.71
433.281	2.68
433.486	2.72
433.691	2.82
433.896	2.87
434.101	2.94
434.306	3
434.511	3.18
434.716	3.21
434.921	3.29
435.126	3.41
435.331	3.14
435.535	3.13
435.74	3.04
435.945	2.75
436.15	2.54
436.355	2.24
436.56	1.99
436.765	1.84
436.97	2.03
437.174	2
437.379	2.31
437.584	2.5
437.789	2.56
437.993	2.83
438.198	2.98
438.403	3.15
438.608	3.13
438.812	3.26
439.017	3.27
439.222	3.15
439.426	3.2
439.631	3.03
439.836	3.2
440.04	3.18
440.245	3.24
440.45	3.27
440.654	3.14
440.859	3.29
441.063	3.18
441.268	3.23
441.472	3.02
441.677	2.89
441.881	2.75
442.086	2.48
442.29	2.57
442.495	2.35
442.699	2.37
442.904	2.48
443.108	2.43
443.312	2.54
443.517	2.35
443.721	2.53
443.925	2.62
444.13	2.9
444.334	3.13
444.538	3.02
444.743	3
444.947	2.9
445.151	2.9
445.356	3.08
445.56	3.15
445.764	3.25
445.968	3.27
446.173	3.32
446.377	3.18
446.581	2.94
446.785	3.04
446.989	3.02
447.193	3.05
447.398	2.97
447.602	2.81
447.806	2.7
448.01	2.72
448.214	2.64
448.418	2.59
448.622	2.45
448.826	2.73
449.03	2.65
449.234	2.57
449.438	2.64
449.642	2.8
449.846	2.69
450.05	2.65
450.254	2.72
450.458	2.63
450.662	2.75
450.866	2.98
451.069	2.86
451.273	2.9
451.477	3.04
451.681	2.86
451.885	2.8
452.089	2.99
452.292	3.12
452.496	3.07
452.7	3.33
452.904	3.12
453.107	3.12
453.311	3.11
453.515	3.14
453.719	3.24
453.922	3.21
454.126	3.24
454.33	3.22
454.533	3.04
454.737	2.96
454.94	2.75
455.144	3.15
455.348	3.03
455.551	2.88
455.755	2.86
455.958	2.83
456.162	3.01
456.365	3.11
456.569	3.07
456.772	3.22
456.976	3.23
457.179	3.15
457.383	2.84
457.586	2.94
457.79	3.04
457.993	2.88
458.196	2.77
458.4	2.86
458.603	2.78
458.807	2.89
459.01	2.94
459.213	2.91
459.417	2.95
459.62	2.94
459.823	3
460.026	3.1
460.23	3.11
460.433	3
460.636	2.95
460.839	2.98
461.042	2.85
461.246	2.67
461.449	2.63
461.652	2.7
461.855	2.58
462.058	2.54
462.261	2.48
462.464	2.46
462.668	2.62
462.871	2.6
463.074	2.47
463.277	2.57
463.48	2.86
463.683	2.67
463.886	2.63
464.089	2.65
464.292	2.61
464.495	2.6
464.698	2.58
464.901	2.68
465.104	2.74
465.306	2.59
465.509	2.65
465.712	2.37
465.915	2.6
466.118	2.68
466.321	2.69
466.524	2.64
466.726	2.48
466.929	2.76
467.132	2.54
467.335	2.41
467.538	2.61
467.74	2.62
467.943	2.63
468.146	2.69
468.348	2.53
468.551	2.61
468.754	2.64
468.956	2.79
469.159	2.64
469.362	2.59
469.564	2.51
469.767	2.53
469.969	2.37
470.172	2.47
470.375	2.33
470.577	2.47
470.78	2.4
470.982	2.36
471.185	2.35
471.387	2.5
471.59	2.68
471.792	2.77
471.995	2.63
472.197	2.52
472.399	2.46
472.602	2.63
472.804	2.53
473.007	2.62
473.209	2.58
473.411	2.58
473.614	2.61
473.816	2.7
474.018	2.58
474.22	2.62
474.423	2.77
474.625	2.81
474.827	2.75
475.03	2.77
475.232	2.8
475.434	3
475.636	2.97
475.838	2.87
476.04	2.85
476.243	3.02
476.445	3.05
476.647	2.9
476.849	2.96
477.051	3.03
477.253	2.96
477.455	3.02
477.657	2.96
477.859	3
478.061	3.01
478.263	2.89
478.465	2.74
478.667	2.71
478.869	2.82
479.071	2.72
479.273	2.57
479.475	2.74
479.677	2.69
479.879	2.54
480.081	2.56
480.283	2.44
480.485	2.4
480.686	2.52
480.888	2.46
481.09	2.45
481.292	2.61
481.494	2.61
481.695	2.66
481.897	2.61
482.099	2.56
482.301	2.5
482.502	2.55
482.704	2.67
482.906	2.67
483.107	2.64
483.309	2.67
483.511	2.57
483.712	2.59
483.914	2.55
484.115	2.54
484.317	2.51
484.519	2.47
484.72	2.45
484.922	2.39
485.123	2.36
485.325	2.4
485.526	2.31
485.728	2.33
485.929	2.29
486.131	2.29
486.332	2.23
486.534	2.24
486.735	2.31
486.936	2.36
487.138	2.33
487.339	2.29
487.541	2.31
487.742	2.37
487.943	2.39
488.144	2.43
488.346	2.37
488.547	2.49
488.748	2.56
488.95	2.6
489.151	2.54
489.352	2.54
489.553	2.61
489.755	2.64
489.956	2.66
490.157	2.6
490.358	2.47
490.559	2.52
490.76	2.45
490.961	2.36
491.163	2.32
491.364	2.41
491.565	2.36
491.766	2.32
491.967	2.27
492.168	2.29
492.369	2.29
492.57	2.39
492.771	2.4
492.972	2.31
493.173	2.42
493.374	2.37
493.575	2.22
493.776	2.43
493.976	2.52
494.177	2.58
494.378	2.68
494.579	2.82
494.78	2.93
494.981	2.86
495.182	2.97
495.382	2.87
495.583	2.95
495.784	3.16
495.985	3.02
496.185	2.89
496.386	2.99
496.587	2.83
496.788	2.78
496.988	2.8
497.189	3.01
497.39	3.14
497.59	3.16
497.791	3.17
497.992	3.08
498.192	3.03
498.393	3.09
498.593	2.95
498.794	3.02
498.994	2.97
499.195	2.83
499.395	2.72
499.596	2.75
499.796	2.87
499.997	2.93
500.197	2.78
500.398	2.9
500.598	2.87
500.799	2.76
500.999	2.72
501.199	2.77
501.4	2.81
501.6	2.77
501.801	2.76
502.001	2.61
502.201	2.49
502.402	2.64
502.602	2.51
502.802	2.59
503.002	2.58
503.203	2.67
503.403	2.59
503.603	2.56
503.803	2.67
504.003	2.53
504.204	2.44
504.404	2.46
504.604	2.46
504.804	2.48
505.004	2.44
505.204	2.67
505.404	2.52
505.604	2.56
505.804	2.5
506.005	2.44
506.205	2.59
506.405	2.67
506.605	2.61
506.805	2.73
507.005	2.81
507.204	2.73
507.404	2.57
507.604	2.61
507.804	2.6
508.004	2.75
508.204	2.82
508.404	2.76
508.604	2.82
508.804	2.96
509.003	2.99
509.203	2.88
509.403	2.98
509.603	3.07
509.803	3.12
510.002	3.19
510.202	3
510.402	2.92
510.602	2.8
510.801	2.8
511.001	2.69
511.201	2.6
511.4	2.53
511.6	2.63
511.8	2.62
511.999	2.69
512.199	2.68
512.398	2.82
512.598	2.57
512.797	2.6
512.997	2.64
513.197	2.69
513.396	2.68
513.596	2.75
513.795	2.64
513.994	2.53
514.194	2.51
514.393	2.53
514.593	2.5
514.792	2.83
514.992	2.97
515.191	2.82
515.39	2.76
515.59	2.71
515.789	2.73
515.988	2.86
516.188	2.9
516.387	2.94
516.586	2.89
516.786	3.08
516.985	2.81
517.184	2.67
517.383	2.74
517.582	2.81
517.782	2.83
517.981	2.73
518.18	2.68
518.379	2.6
518.578	2.47
518.777	2.47
518.976	2.33
519.176	2.55
519.375	2.66
519.574	2.64
519.773	2.62
519.972	2.71
520.171	2.66
520.37	2.63
520.569	2.8
520.768	2.78
520.967	2.77
521.166	2.73
521.365	2.75
521.564	2.72
521.762	2.7
521.961	2.73
522.16	2.56
522.359	2.88
522.558	2.85
522.757	2.78
522.956	2.96
523.154	3.1
523.353	3.12
523.552	3.04
523.751	3.06
523.949	3.2
524.148	3.09
524.347	3.24
524.546	3.04
524.744	3.16
524.943	3.19
525.142	3.03
525.34	3.08
525.539	3.05
525.737	2.94
525.936	2.99
526.135	2.97
526.333	2.99
526.532	2.9
526.73	3.05
526.929	2.96
527.127	2.96
527.326	3.01
527.524	2.96
527.723	3.06
527.921	3.1
528.12	3.08
528.318	3.1
528.516	3.1
528.715	3.16
528.913	3.1
529.112	3.16
529.31	3.12
529.508	3.16
529.707	3.19
529.905	3.15
530.103	3.16
530.301	3.13
530.5	3.07
530.698	3.16
530.896	3.06
531.094	3.16
531.293	3.21
531.491	3.22
531.689	3.27
531.887	3.2
532.085	3.16
532.283	3.2
532.481	3.34
532.68	3.47
532.878	3.43
533.076	3.46
533.274	3.39
533.472	3.28
533.67	3.22
533.868	3.13
534.066	3.12
534.264	3.14
534.462	3.16
534.66	3.12
534.858	3.09
535.056	2.98
535.253	2.99
535.451	3.03
535.649	3.23
535.847	3.3
536.045	3.49
536.243	3.63
536.441	3.69
536.638	3.66
536.836	3.61
537.034	3.55
537.232	3.61
537.43	3.72
537.627	3.81
537.825	3.68
538.023	3.83
538.22	3.72
538.418	3.72
538.616	3.73
538.813	3.84
539.011	3.99
539.209	4
539.406	4.07
539.604	4.04
539.801	3.84
539.999	3.96
540.196	3.92
540.394	3.99
540.591	3.98
540.789	3.98
540.986	3.96
541.184	4
541.381	3.98
541.579	4.02
541.776	4.05
541.974	4.14
542.171	4.14
542.368	4.21
542.566	4.14
542.763	4.17
542.96	4.4
543.158	4.48
543.355	4.39
543.552	4.39
543.75	4.47
543.947	4.43
544.144	4.51
544.341	4.39
544.539	4.34
544.736	4.48
544.933	4.55
545.13	4.31
545.327	4.12
545.524	4.27
545.722	4.41
545.919	4.36
546.116	4.49
546.313	4.44
546.51	4.65
546.707	4.88
546.904	4.83
547.101	4.66
547.298	4.7
547.495	4.85
547.692	4.79
547.889	4.71
548.086	4.83
548.283	4.77
548.48	4.8
548.677	4.65
548.874	4.58
549.07	4.85
549.267	5.07
549.464	5.02
549.661	5.06
549.858	5.08
550.055	5.31
550.251	5.28
550.448	5.63
550.645	5.59
550.842	5.75
551.038	5.57
551.235	5.39
551.432	5.69
551.628	5.87
551.825	5.81
552.022	5.91
552.218	5.8
552.415	5.69
552.612	5.55
552.808	5.7
553.005	5.78
553.201	5.97
553.398	5.89
553.594	5.65
553.791	5.57
553.987	5.81
554.184	5.7
554.38	5.76
554.577	5.93
554.773	6.06
554.97	6.14
555.166	6.2
555.362	5.96
555.559	6.08
555.755	5.96
555.952	6.04
556.148	5.82
556.344	5.87
556.541	5.96
556.737	5.82
556.933	5.65
557.129	5.66
557.326	5.6
557.522	5.69
557.718	5.53
557.914	5.65
558.11	5.68
558.307	5.91
558.503	6.03
558.699	6.06
558.895	6.37
559.091	6.52
559.287	6.47
559.483	6.59
559.679	6.81
559.876	6.91
560.072	6.94
560.268	6.88
560.464	6.74
560.66	6.6
560.856	6.68
561.052	6.61
561.247	6.6
561.443	6.59
561.639	6.59
561.835	6.38
562.031	6.42
562.227	6.52
562.423	6.55
562.619	6.67
562.815	6.88
563.01	6.69
563.206	6.51
563.402	6.37
563.598	6.47
563.793	6.47
563.989	6.73
564.185	6.81
564.381	6.79
564.576	6.91
564.772	6.91
564.968	6.94
565.163	7.21
565.359	7.42
565.555	7.59
565.75	7.52
565.946	7.57
566.141	7.55
566.337	7.69
566.532	7.67
566.728	7.73
566.923	7.79
567.119	7.92
567.314	7.95
567.51	8.01
567.705	7.98
567.901	8.09
568.096	8.06
568.292	8.14
568.487	8.15
568.682	8.2
568.878	8.04
569.073	8.06
569.268	7.91
569.464	7.67
569.659	7.58
569.854	7.54
570.05	7.4
570.245	7.36
570.44	7.15
570.635	7.13
570.831	7.12
571.026	7.4
571.221	7.38
571.416	7.44
571.611	7.73
571.806	7.72
572.002	7.86
572.197	8.07
572.392	8.23
572.587	8.43
572.782	8.25
572.977	8.28
573.172	8.32
573.367	8.25
573.562	8.36
573.757	8.13
573.952	8.14
574.147	7.94
574.342	7.77
574.537	7.77
574.732	7.79
574.927	8
575.121	8.15
575.316	8.23
575.511	8.32
575.706	8.38
575.901	8.5
576.096	8.65
576.29	8.86
576.485	8.98
576.68	9.2
576.875	9.23
577.069	9.15
577.264	9.26
577.459	9.37
577.654	9.48
577.848	9.33
578.043	9.53
578.238	9.55
578.432	9.59
578.627	9.63
578.821	9.54
579.016	9.67
579.21	9.82
579.405	9.78
579.6	9.61
579.794	9.82
579.989	10.06
580.183	10.14
580.378	10.12
580.572	9.91
580.766	9.74
580.961	9.52
581.155	9.2
581.35	9.46
581.544	9.22
581.738	9.15
581.933	8.61
582.127	8.15
582.321	8.14
582.516	8.29
582.71	8.16
582.904	8.58
583.099	8.83
583.293	8.96
583.487	8.51
583.681	8.75
583.875	8.43
584.07	8.5
584.264	8.96
584.458	8.84
584.652	8.73
584.846	9.28
585.04	8.97
585.234	8.84
585.428	8.98
585.623	9.19
585.817	9.19
586.011	9.41
586.205	9.81
586.399	9.6
586.593	9.69
586.787	9.62
586.981	9.7
587.174	9.68
587.368	9.67
587.562	9.75
587.756	9.67
587.95	9.59
588.144	9.7
588.338	9.54
588.532	10
588.725	10.03
588.919	9.91
589.113	9.62
589.307	10.04
589.501	10.11
589.694	10.11
589.888	10.23
590.082	10.15
590.275	10.28
590.469	10.49
590.663	10.02
590.856	9.84
591.05	9.95
591.244	10.08
591.437	9.8
591.631	9.92
591.824	9.7
592.018	9.79
592.212	10
592.405	9.85
592.599	9.81
592.792	9.91
592.986	9.98
593.179	10.13
593.372	10.28
593.566	10.17
593.759	10.07
593.953	10.22
594.146	10.13
594.339	10.13
594.533	9.79
594.726	9.75
594.92	9.7
595.113	9.57
595.306	9.44
595.499	9.3
595.693	9.52
595.886	9.55
596.079	9.65
596.272	9.65
596.466	9.65
596.659	9.97
596.852	9.93
597.045	9.86
597.238	10.04
597.431	10.41
597.624	10.56
597.818	10.5
598.011	10.39
598.204	10.35
598.397	10.51
598.59	10.38
598.783	10.4
598.976	10.36
599.169	10.72
599.362	10.87
599.555	10.64
599.748	10.27
599.941	10.51
600.134	10.63
600.326	10.54
600.519	10.37
600.712	10.57
600.905	10.62
601.098	10.81
601.291	10.52
601.483	10.46
601.676	10.41
601.869	10.49
602.062	10.25
602.255	10.1
602.447	10.45
602.64	10.61
602.833	10.58
603.025	10.86
603.218	10.57
603.411	10.69
603.603	10.59
603.796	10.61
603.989	10.64
604.181	10.57
604.374	10.73
604.566	10.46
604.759	10.31
604.951	10.4
605.144	10.25
605.336	10.35
605.529	10.38
605.721	10.32
605.914	10.34
606.106	10.37
606.299	10.47
606.491	10.55
606.683	10.67
606.876	10.59
607.068	10.57
607.26	10.48
607.453	10.73
607.645	10.76
607.837	10.73
608.03	10.72
608.222	10.89
608.414	11.02
608.606	10.88
608.799	10.78
608.991	11.07
609.183	11.05
609.375	11.14
609.567	11.09
609.759	10.99
609.952	11.02
610.144	11.09
610.336	10.99
610.528	10.7
610.72	10.57
610.912	10.83
611.104	10.61
611.296	10.74
611.488	10.52
611.68	10.4
611.872	10.25
612.064	10.39
612.256	10.43
612.448	10.35
612.64	10.48
612.832	10.52
613.023	10.19
613.215	10.34
613.407	10.03
613.599	9.93
613.791	10.03
613.983	10.5
614.174	10.52
614.366	10.38
614.558	10.65
614.75	10.81
614.941	10.78
615.133	11.18
615.325	11.19
615.516	11.05
615.708	11.24
615.9	11.21
616.091	10.96
616.283	11.03
616.475	10.76
616.666	10.74
616.858	10.48
617.049	10.65
617.241	10.63
617.432	10.58
617.624	10.72
617.815	10.9
618.007	10.88
618.198	10.84
618.39	10.85
618.581	11.18
618.773	11.06
618.964	11.38
619.155	11.31
619.347	11.07
619.538	11.32
619.729	11.12
619.921	11.02
620.112	11
620.303	11.1
620.494	11.05
620.686	10.81
620.877	10.8
621.068	10.43
621.259	10.56
621.451	10.42
621.642	10.13
621.833	10.23
622.024	10.4
622.215	10.49
622.406	10.49
622.597	10.18
622.788	10.41
622.98	10.39
623.171	10.78
623.362	10.88
623.553	11.1
623.744	11.5
623.935	11.84
624.126	11.51
624.317	11.43
624.508	11.07
624.698	11.36
624.889	11.53
625.08	11.46
625.271	11.25
625.462	11.21
625.653	11.03
625.844	10.74
626.034	10.48
626.225	10.96
626.416	11.07
626.607	11.45
626.798	11.49
626.988	11.43
627.179	11.53
627.37	11.65
627.56	11.86
627.751	12.1
627.942	11.9
628.132	12
628.323	11.79
628.514	11.62
628.704	11.7
628.895	11.8
629.085	11.82
629.276	11.75
629.466	11.96
629.657	11.76
629.847	11.63
630.038	11.83
630.228	11.76
630.419	11.68
630.609	11.7
630.8	11.63
630.99	11.26
631.181	10.84
631.371	10.92
631.561	11.07
631.752	11.08
631.942	10.73
632.132	10.89
632.323	11.07
632.513	10.95
632.703	11.26
632.893	11.15
633.084	11.3
633.274	11.38
633.464	11.68
633.654	11.63
633.844	11.68
634.034	11.92
634.225	11.84
634.415	11.51
634.605	11.14
634.795	10.76
634.985	11.08
635.175	11.31
635.365	11.36
635.555	11.12
635.745	10.6
635.935	10.09
636.125	10.11
636.315	9.92
636.505	10.27
636.695	11.02
636.885	11.29
637.075	10.72
637.265	10.32
637.455	10.21
637.644	10.5
637.834	10.78
638.024	11.03
638.214	10.99
638.404	11.12
638.593	11.06
638.783	10.79
638.973	10.62
639.163	10.83
639.352	11.29
639.542	11.86
639.732	11.63
639.921	11.92
640.111	11.65
640.301	11.38
640.49	11.19
640.68	11.19
640.87	11.48
641.059	11.52
641.249	11.32
641.438	10.94
641.628	10.68
641.817	10.44
642.007	10.27
642.196	10.33
642.386	10.39
642.575	10.77
642.764	11
642.954	10.53
643.143	10.86
643.333	10.88
643.522	11.11
643.711	10.72
643.901	11
644.09	10.98
644.279	11.39
644.469	11.68
644.658	11.07
644.847	10.98
645.036	10.91
645.226	10.81
645.415	10.94
645.604	11.36
645.793	11.64
645.982	11.51
646.171	11.49
646.361	11.09
646.55	10.94
646.739	11.41
646.928	11.44
647.117	11.57
647.306	11.01
647.495	11.01
647.684	10.2
647.873	9.95
648.062	10.19
648.251	9.92
648.44	10.23
648.629	10.23
648.818	10.5
649.007	10.47
649.196	10.35
649.384	10.54
649.573	10.32
649.762	10.7
649.951	10.85
650.14	10.59
650.328	10.74
650.517	10.6
650.706	10.56
650.895	10.48
651.083	10.53
651.272	11.08
651.461	11.58
651.65	12.4
651.838	11.98
652.027	12.24
652.216	12.63
652.404	12.98
652.593	12.96
652.781	13.17
652.97	13.03
653.158	13.13
653.347	13.03
653.535	12.51
653.724	12.05
653.912	12.7
654.101	12.47
654.289	12.09
654.478	11.71
654.666	11.73
654.855	12.04
655.043	11.83
655.231	11.6
655.42	11.08
655.608	11.55
655.796	11.29
655.985	11.01
656.173	10.95
656.361	10.96
656.55	11.23
656.738	11.42
656.926	11.08
657.114	10.81
657.302	10.72
657.491	10.68
657.679	10.49
657.867	10.77
658.055	11.11
658.243	11.56
658.431	11.23
658.619	11.46
658.807	11.79
658.996	12.02
659.184	12.56
659.372	12.75
659.56	13.2
659.748	13.53
659.936	13.55
660.124	13.36
660.311	13.15
660.499	13.33
660.687	13.36
660.875	13.03
661.063	12.79
661.251	12.62
661.439	12.51
661.627	12.3
661.814	11.84
662.002	11.24
662.19	10.88
662.378	10.88
662.565	11.09
662.753	10.88
662.941	11.25
663.129	11.56
663.316	11.66
663.504	11.61
663.692	11.68
663.879	11.74
664.067	12.27
664.254	12.84
664.442	13.25
664.63	13.52
664.817	13.81
665.005	13.69
665.192	14.04
665.38	13.89
665.567	14.33
665.755	14.22
665.942	14
666.13	13.72
666.317	13.43
666.504	13.19
666.692	12.84
666.879	12.35
667.067	11.63
667.254	11.57
667.441	11.65
667.629	11.18
667.816	11.14
668.003	11.16
668.19	11.05
668.378	10.78
668.565	10.9
668.752	10.64
668.939	10.73
669.127	11.31
669.314	11.06
669.501	11.25
669.688	11.47
669.875	11.66
670.062	11.88
670.249	12.33
670.436	12.64
670.623	12.38
670.81	12.7
670.997	12.38
671.184	12.28
671.371	11.92
671.558	11.96
671.745	12.23
671.932	12.14
672.119	12.66
672.306	12.42
672.493	12.65
672.68	12.66
672.867	12.93
673.054	13.12
673.24	12.76
673.427	12.52
673.614	12.11
673.801	11.88
673.988	12.13
674.174	11.71
674.361	11.94
674.548	11.71
674.734	11.99
674.921	11.58
675.108	11.65
675.294	12.48
675.481	12.79
675.668	12.52
675.854	12.6
676.041	12.17
676.227	12.21
676.414	12.32
676.601	12.37
676.787	12.23
676.974	12.46
677.16	12.22
677.347	12.16
677.533	12.28
677.719	12.66
677.906	12.94
678.092	12.85
678.279	12.28
678.465	11.9
678.651	11.95
678.838	11.92
679.024	11.98
679.21	11.89
679.397	11.84
679.583	12.04
679.769	12.15
679.955	11.61
680.142	11.87
680.328	12.48
680.514	12.42
680.7	12.27
680.886	12.27
681.073	12.25
681.259	12.41
681.445	12.1
681.631	11.99
681.817	11.83
682.003	12.05
682.189	12.02
682.375	11.87
682.561	12.3
682.747	12.44
682.933	12.39
683.119	12.3
683.305	12.01
683.491	12.31
683.677	12.47
683.863	12.9
684.049	12.63
684.235	12.81
684.42	12.61
684.606	12.04
684.792	11.83
684.978	11.4
685.164	11.29
685.349	12.41
685.535	12.05
685.721	11.69
685.907	11.41
686.092	11.25
686.278	11.3
686.464	11.8
686.649	12.76
686.835	13.17
687.021	13.74
687.206	13.31
687.392	11.93
687.577	12.56
687.763	12.81
687.948	12.62
688.134	13.08
688.319	13.39
688.505	12.82
688.69	12.34
688.876	12.08
689.061	11.47
689.247	11.89
689.432	12.97
689.618	12.52
689.803	12.62
689.988	12.8
690.174	13.17
690.359	12.19
690.544	12.74
690.73	12.92
690.915	12.87
691.1	13.01
691.285	13.09
691.471	12.85
691.656	13.05
691.841	12.36
692.026	11.83
692.211	11.37
692.396	11.94
692.582	11.58
692.767	10.84
692.952	11.18
693.137	11.33
693.322	11.66
693.507	11.6
693.692	11.88
693.877	12.43
694.062	12.57
694.247	12.16
694.432	12.16
694.617	12.41
694.802	12.85
694.987	13.11
695.172	13.41
695.357	13.43
695.541	13.27
695.726	12.89
695.911	12.18
696.096	12.18
696.281	11.8
696.466	11.8
696.65	11.86
696.835	11.8
697.02	11.49
697.204	11.36
697.389	11.15
697.574	11.06
697.759	11.25
697.943	12.09
698.128	12.41
698.312	13.11
698.497	13.18
698.682	12.97
698.866	13.1
699.051	13.23
699.235	13.01
699.42	13.08
699.604	13.38
699.789	13.17
699.973	13.09
700.158	13.04
700.342	12.4
700.527	12.3
700.711	11.95
700.895	12.2
701.08	12.17
701.264	12.05
701.448	11.86
701.633	11.66
701.817	11.74
702.001	11.56
702.186	10.85
702.37	11.63
702.554	11.23
702.738	11.78
702.923	11.2
703.107	10.78
703.291	10.94
703.475	10.58
703.659	10.75
703.843	11.11
704.027	11.3
704.212	12.2
704.396	11.92
704.58	12.52
704.764	12.65
704.948	12.76
705.132	13.52
705.316	13.65
705.5	13.61
705.684	14.46
705.868	13.86
706.052	14.03
706.235	14.41
706.419	14.45
706.603	13.5
706.787	14.55
706.971	15.11
707.155	14.44
707.339	15.04
707.522	15.84
707.706	14.16
707.89	14.35
708.074	13.4
708.257	13.39
708.441	13.52
708.625	13.83
708.808	13.33
708.992	12.97
709.176	13.66
709.359	13.95
709.543	13.06
709.727	13.59
709.91	14.12
710.094	14.96
710.277	15.07
710.461	14.5
710.644	14.88
710.828	14.34
711.011	13.74
711.195	13.2
711.378	13.02
711.562	14.35
711.745	14.32
711.928	13.57
712.112	13.94
712.295	13.63
712.478	14.22
712.662	14.3
712.845	14.27
713.028	14.81
713.212	15.12
713.395	14.72
713.578	13.89
713.761	13.9
713.945	14.37
714.128	13.4
714.311	13.49
714.494	13.42
714.677	13.93
714.86	14.52
715.043	14.51
715.227	13.72
715.41	13.44
715.593	13.8
715.776	13.54
715.959	12.99
716.142	13.24
716.325	12.61
716.508	12.97
716.691	12.66
716.874	11.64
717.057	11.7
717.239	11.88
717.422	12.02
717.605	11.39
717.788	11.77
717.971	12.13
718.154	12.83
718.337	13.39
718.519	13.48
718.702	13.36
718.885	14.07
719.068	14.31
719.25	14.13
719.433	13.97
719.616	14.73
719.798	14.7
719.981	13.73
720.164	12.8
720.346	12.63
720.529	12.36
720.712	12.33
720.894	12.82
721.077	13.06
721.259	13.34
721.442	14.15
721.624	13.55
721.807	13.33
721.989	14.83
722.172	14.92
722.354	15.09
722.537	13.85
722.719	14.04
722.901	12.86
723.084	11.85
723.266	12.55
723.448	12.09
723.631	12.8
723.813	12.9
723.995	11.26
724.178	11.06
724.36	11.56
724.542	12.8
724.724	11.66
724.907	12.15
725.089	13.04
725.271	12.84
725.453	13.44
725.635	12.72
725.817	12.72
725.999	13.99
726.181	14.27
726.364	13.69
726.546	12.75
726.728	13.58
726.91	13.83
727.092	13.36
727.274	13.81
727.456	14.38
727.638	14.62
727.819	14.99
728.001	15
728.183	14.71
728.365	15.57
728.547	16.24
728.729	15.9
728.911	15.61
729.093	14.69
729.274	13.92
729.456	13.18
729.638	12.26
729.82	12.56
730.001	12.37
730.183	12.04
730.365	11.53
730.546	10.5
730.728	10.76
730.91	11.11
731.091	12.25
731.273	12.15
731.455	11.91
731.636	12.43
731.818	11.76
731.999	11.67
732.181	12.21
732.362	13.23
732.544	14.86
732.725	15.57
732.907	15.09
733.088	14.76
733.27	15.61
733.451	15.24
733.633	15.42
733.814	15.93
733.995	16.25
734.177	16.36
734.358	15.15
734.539	14.59
734.721	13.52
734.902	14.16
735.083	14.38
735.264	14.27
735.446	15.26
735.627	15.74
735.808	15.49
735.989	15.09
736.17	15.33
736.351	15.64
736.533	14.41
736.714	15.33
736.895	15.04
737.076	14.8
737.257	14.18
737.438	13.63
737.619	13.36
737.8	13.24
737.981	12.55
738.162	12.31
738.343	11.84
738.524	13.51
738.705	13.55
738.886	13.78
739.067	14.32
739.247	12.99
739.428	13.84
739.609	12.89
739.79	12.69
739.971	14.09
740.151	13.67
740.332	13.44
740.513	12.92
740.694	11.79
740.874	10.33
741.055	10.2
741.236	11.91
741.417	11.55
741.597	12.88
741.778	13.12
741.958	11.94
742.139	14.01
742.32	14.08
742.5	14.25
742.681	15.96
742.861	17.42
743.042	16.41
743.222	15.72
743.403	15.05
743.583	13.43
743.764	13.36
743.944	12.51
744.124	10.72
744.305	11.5
744.485	10.62
744.666	9.16
744.846	9.12
745.026	9.87
745.207	10.3
745.387	10.83
745.567	13.48
745.747	13.09
745.928	15.07
746.108	14.59
746.288	13.79
746.468	14.58
746.648	15.05
746.829	15.06
747.009	14.9
747.189	14.87
747.369	14.72
747.549	13.01
747.729	14.1
747.909	14.15
748.089	13.93
748.269	13.52
748.449	14.05
748.629	13.66
748.809	14.08
748.989	14.29
749.169	14.55
749.349	14.56
749.529	15.22
749.709	14.84
749.889	14.18
750.068	15.36
750.248	16.84
750.428	16.21
750.608	16.42
750.788	15.09
750.967	14.41
751.147	14.68
751.327	15.09
751.507	14.03
751.686	14.15
751.866	14.84
752.046	14.78
752.225	14.83
752.405	14.43
752.585	13.55
752.764	15.51
752.944	16.94
753.123	16.94
753.303	16.91
753.482	16.54
753.662	15.89
753.841	15.15
754.021	14.09
754.2	12.63
754.38	12.81
754.559	14.72
754.739	13.94
754.918	13.35
755.097	13.59
755.277	13.65
755.456	15.24
755.635	15.58
755.815	16.88
755.994	18.22
756.173	18.98
756.352	19.2
756.532	18.25
756.711	18.46
756.89	17.74
757.069	16.73
757.248	16.56
757.427	17.21
757.607	18.2
757.786	17.81
757.965	16.89
758.144	16.87
758.323	17.4
758.502	18
758.681	17.18
758.86	16.75
759.039	17.6
759.218	16.88
759.397	16.73
759.576	14.78
759.755	13.78
759.934	13.95
760.113	14.11
760.291	13.68
760.47	14.79
760.649	14.74
760.828	15.7
761.007	13.5
761.186	14.68
761.364	14.11
761.543	14.1
761.722	15.1
761.901	14.25
762.079	14.65
762.258	15.12
762.437	13.48
762.615	14.54
762.794	14.45
762.972	15.81
763.151	14.72
763.33	14.38
763.508	15.65
763.687	15.48
763.865	16.06
764.044	15.75
764.222	15.14
764.401	15.23
764.579	14.07
764.758	13.58
764.936	13.44
765.114	14.38
765.293	15.12
765.471	14.47
765.65	14.43
765.828	15.4
766.006	14.96
766.184	15.39
766.363	15.37
766.541	15.7
766.719	17.73
766.898	18.04
767.076	17.44
767.254	17.29
767.432	17.28
767.61	16.88
767.788	15.11
767.967	15.22
768.145	14.34
768.323	14.01
768.501	13.9
768.679	11.23
768.857	12.36
769.035	13.84
769.213	13.37
769.391	12.92
769.569	14.32
769.747	14.87
769.925	15.78
770.103	16.49
770.281	17.65
770.459	16.34
770.636	19.05
770.814	17.22
770.992	16.91
771.17	17.84
771.348	17.53
771.525	17.86
771.703	20.69
771.881	20.02
772.059	20.68
772.236	21.32
772.414	23.65
772.592	22.34
772.769	22.8
772.947	22.04
773.125	21.78
773.302	23.88
773.48	21.84
773.657	19.78
773.835	19.52
774.013	20.69
774.19	19.65
774.368	18.63
774.545	18.87
774.723	18.59
774.9	18.07
775.077	18.37
775.255	18.01
775.432	16.46
775.61	13.71
775.787	14.68
775.964	14.28
776.142	12.92
776.319	13.9
776.496	12.77
776.674	13.68
776.851	12.84
777.028	12.23
777.205	10.96
777.382	11.64
777.56	12.7
777.737	12.35
777.914	10.79
778.091	11.72
778.268	8.73
778.445	10.91
778.622	9.54
778.8	7.84
778.977	7.1
779.154	8.59
779.331	7.36
779.508	8.76
779.685	6.76
779.862	6.06
780.038	6.82
780.215	9.34
780.392	6.49
780.569	7.77
780.746	8.7
780.923	8.78
781.1	8.02
781.277	10.06
781.453	10.48
781.63	10.86
781.807	12.3
781.984	8.35
782.16	9.66
782.337	11.34
782.514	14.26
782.691	16.97
782.867	15.87
783.044	14.57
783.221	14.58
783.397	14.22
783.574	15.54
783.75	15.69
783.927	18.47
784.103	19.33
784.28	19.3
784.456	16.61
784.633	14.62
784.809	17.75
784.986	18.13
785.162	17.52
785.339	17.73
785.515	19.44
785.692	20.42
785.868	21.74
786.044	18.26
786.221	15.91
786.397	15.07
786.573	15.69
786.749	11.94
786.926	12.83
787.102	15.17
787.278	15.37
787.454	13.12
787.631	12.09
787.807	11.18
787.983	12.25
788.159	15.17
788.335	15.09
788.511	16.24
788.687	17.89
788.863	17.65
789.039	17.16
789.216	14.87
789.392	16.38
789.568	16.39
789.744	17.6
789.919	16.16
790.095	14.15
790.271	15.2
790.447	13.99
790.623	14.54
790.799	12.15
790.975	13.55
791.151	16.31
791.327	15.97
791.502	17.15
791.678	14.97
791.854	18.35
792.03	19.16
792.205	17.05
792.381	18.01
792.557	15.86
792.733	18.19
792.908	16.36
793.084	16.58
793.259	14.03
793.435	13.37
793.611	14.2
793.786	11.61
793.962	11.55
794.137	14.2
794.313	12.72
794.488	13.06
794.664	14.9
794.839	16.58
795.015	16.4
795.19	22.24
795.366	18.88
795.541	20.22
795.716	20.98
795.892	22.7
796.067	22.13
796.242	23.04
796.418	22.9
796.593	23.42
796.768	21.18
796.944	20.49
797.119	19.26
797.294	20.61
797.469	19.19
797.644	20.97
797.82	19.31
797.995	15.63
798.17	15.76
798.345	14.19
798.52	11.92
798.695	9.67
798.87	13.68
799.045	10.65
799.22	11.36
799.395	13.05
799.57	8.67
799.745	8.85
799.92	9.19
800.095	7.76
800.27	9.53
800.445	7.6
800.62	12.42
800.795	8.38
800.97	6.01
801.145	6.56
801.319	5.26
801.494	9.43
801.669	12.74
801.844	14.77
802.018	17.51
802.193	16.24
802.368	18.05
802.543	16.13
802.717	15.05
802.892	22.73
803.067	22.28
803.241	19.52
803.416	11.96
803.59	11.09
803.765	14.57
803.94	11.25
804.114	13.07
804.289	13.16
804.463	15.02
804.638	15.99
804.812	9.7
804.986	9.91
805.161	16
805.335	18.36
805.51	17.7
805.684	11.58
805.858	14.94
806.033	15.49
806.207	13.92
806.381	9.84
806.556	11.31
806.73	15.76
806.904	15.24
807.078	12.53
807.253	15.13
807.427	14.67
807.601	16.88
807.775	18.48
807.949	20.37
808.123	24.16
808.298	30.57
808.472	30.04
808.646	25.43
808.82	24.24
808.994	21.6
809.168	20.84
809.342	20.55
809.516	22.72
809.69	21.86
809.864	17.12
810.038	16.4
810.212	8.3
810.385	10.54
810.559	12.99
810.733	12.45
810.907	14.87
811.081	16
811.255	12.52
811.428	11.85
811.602	0.99
811.776	6.05
811.95	5.22
812.123	9.65
812.297	4.08
812.471	5.19
812.644	11.55
812.818	10.73
812.992	9.03
813.165	9.74
813.339	8.57
813.512	13.38
813.686	11.81
813.86	15.52
814.033	14.39
814.207	12.61
814.38	10.48
814.554	1.33
814.727	6.67
814.9	12.73
815.074	14.38
815.247	10.78
815.421	13.01
815.594	14.38
815.767	13.64
815.941	17.06
816.114	24.52
816.287	27.82
816.46	31.04
816.634	29.57
816.807	27.36
816.98	27.59
817.153	29.62
817.327	27.74
817.5	27.93
817.673	27.38
817.846	23.36
818.019	23.88
818.192	24.87
818.365	26.17
818.538	24.83
818.711	23.32
818.884	22.65
819.057	24.48
819.23	25.72
819.403	26.28
819.576	27.11
819.749	28.92
819.922	27.96
820.095	24.07
820.268	23.53
820.441	21.74
820.614	24.15
820.786	24.67
820.959	26.39
821.132	23.82
821.305	22.43
821.477	20.01
821.65	19.93
821.823	19.34
821.996	20.09
822.168	19.96
822.341	20.23
822.514	18.19
822.686	17.17
822.859	16.93
823.031	17.39
823.204	17.7
823.376	18.03
823.549	17.71
823.722	17.18
823.894	17.21
824.067	17.15
824.239	16.42
824.411	17.18
824.584	17.64
824.756	16.32
824.929	17.57
825.101	16.93
825.273	16.24
825.446	15.92
825.618	16.16
825.79	16.13
825.963	15.36
826.135	16.97
826.307	16.01
826.479	17.03
826.652	17.89
826.824	15.68
826.996	17.11
827.168	16.82
827.34	18.07
827.512	18.25
827.684	17.07
827.856	18.81
828.029	17.01
828.201	18.22
828.373	17.04
828.545	16.99
828.717	17.85
828.889	16.63
829.061	17.28
829.232	14.44
829.404	13.28
829.576	15.06
829.748	12.57
829.92	15.91
830.092	16.58
830.264	18.51
830.436	19.53
830.607	18.52
830.779	17.81
830.951	19.67
831.123	21.85
831.294	22.68
831.466	18.23
831.638	20.37
831.809	16.65
831.981	12.97
832.153	10.34
832.324	4.79
832.496	5.47
832.667	2.54
832.839	4.03
833.011	3.79
833.182	7.07
833.354	6.83
833.525	6.27
833.697	7.7
833.868	9.96
834.039	14.25
834.211	15.67
834.382	14.38
834.554	18.16
834.725	16.9
834.896	18.28
835.068	18.02
835.239	19.89
835.41	19.62
835.581	21.74
835.753	22.41
835.924	20.41
836.095	19.37
836.266	20.95
836.438	20.61
836.609	17.96
836.78	19.47
836.951	16.88
837.122	19.77
837.293	17.44
837.464	14.04
837.635	12.58
837.806	12.68
837.977	15.42
838.148	14.18
838.319	12.56
838.49	18.88
838.661	10.95
838.832	13.86
839.003	8.22
839.174	11.45
839.345	10.47
839.516	16.84
839.687	15.3
839.857	12.3
840.028	19.25
840.199	16.93
840.37	16.6
840.54	19.75
840.711	19.98
840.882	27.4
841.053	28.88
841.223	30.82
841.394	26.6
841.564	32.5
841.735	37.1
841.906	28.42
842.076	37.12
842.247	37.74
842.417	32.12
842.588	32.75
842.758	27.12
842.929	24.91
843.099	23.84
843.27	18.52
843.44	15.66
843.611	15.02
843.781	18.73
843.951	16.74
844.122	6.26
844.292	14.92
844.462	10.83
844.633	11.22
844.803	16.22
844.973	8.52
845.144	10.99
845.314	10.35
845.484	28.59
845.654	34.13
845.824	23.52
845.995	34.53
846.165	30.63
846.335	30.88
846.505	20.48
846.675	17.35
846.845	19.66
847.015	25.75
847.185	21.53
847.355	8.12
847.525	-5.66
847.695	10.04
847.865	8.26
848.035	9.82
848.205	-1.01
848.375	9.06
848.545	-3.12
848.715	21.17
848.884	21.49
849.054	25.67
849.224	10.66
849.394	25.33
849.564	11.45
849.733	11.01
849.903	6.41
850.073	3.08
850.243	9.37
850.412	19.59
850.582	-8.82
850.752	-6.34
850.921	-8.71
851.091	9.5
851.26	-8.2
851.43	14
851.599	16.2
851.769	20.88
851.939	25.84
852.108	14.35
852.278	9.01
852.447	15.21
852.616	6.74
852.786	-0.3
852.955	-3.93
853.125	4.64
853.294	-12.86
853.463	-11.34
853.633	-4.08
853.802	7.76
853.971	27.35
854.141	29.78
854.31	23.59
854.479	24.94
854.648	29.37
854.818	28.97
854.987	30.26
855.156	27.85
855.325	7.16
855.494	-27.81
855.663	-39.36
855.832	-72.38
856.001	-52.13
856.171	-8.31
856.34	10.67
856.509	8.25
856.678	10.29
856.847	12.42
857.016	16.59
857.185	8.87
857.353	13.26
857.522	16.42
857.691	29.22
857.86	30.67
858.029	1.07
858.198	-14.16
858.367	-2.69
858.535	-18.06
858.704	-41.99
858.873	-39.92
859.042	-30.27
859.21	-25.68
859.379	-18.66
859.548	-43.55
859.717	-28.31
859.885	-6.13
860.054	-0.08
860.222	-1.88
860.391	22.09
860.56	14.44
860.728	36.43
860.897	41.45
861.065	31.4
861.234	13.9
861.402	16.73
861.571	19.12
861.739	-1.09
861.908	0.67
862.076	-10.01
862.244	-22.06
862.413	-23.57
862.581	-13.66
862.749	-23.5
862.918	-17.86
863.086	-27.73
863.254	-42.72
863.423	-37.14
863.591	2.09
863.759	-22.22
863.927	-12.92
864.096	3.47
864.264	-2.28
864.432	-48.92
864.6	-28.13
864.768	15.35
864.936	20.21
865.104	43.52
865.272	58.6
865.44	35.75
865.608	27.65
865.776	42.26
865.944	19.4
866.112	19.3
866.28	25.45
866.448	25.29
866.616	6.08
866.784	16.5
866.952	14.53
867.12	4.16
867.288	-3.19
867.455	1.44
867.623	-28.04
867.791	-19.61
867.959	-36.6
868.127	-64.39
868.294	-61.05
868.462	-59.68
868.63	-55.72
868.797	-30.47
868.965	17.34
869.133	17.25
869.3	51.07
869.468	85.92
869.636	92.64
869.803	92.36
869.971	131.6
870.138	114.86
870.306	104.24
870.473	87.09
870.641	72.47
870.808	62.03
870.975	71.56
871.143	71.1
871.31	64.69
871.478	57.75
871.645	74.02
871.812	45.28
871.98	60.49
872.147	32.14
872.314	40.06
872.482	49.62
872.649	41.48
872.816	51.15
872.983	31.35
873.15	38.87
873.318	43.54
873.485	17.77
873.652	55.16
873.819	34.3
873.986	63.8
874.153	65.43
874.32	58.81
874.487	77.18
874.654	60.62
874.821	57.13
874.988	46.4
875.155	49.71
875.322	46.55
875.489	46
875.656	47.14
875.823	56.1
875.99	46.2
876.157	41.62
876.324	25.93
876.49	27.8
876.657	20.16
876.824	15.45
876.991	11.37
877.157	20.53
877.324	13.08
877.491	0.84
877.658	-25.19
877.824	-43.55
877.991	-45.33
878.157	-28.88
878.324	-28.63
878.491	-20.93
878.657	-26.98
878.824	-32.88
878.99	-24.77
879.157	-30.22
879.323	-23.03
879.49	-21.2
879.656	4.55
879.823	6.73
879.989	8.33
880.156	-14.05
880.322	-39.98
880.488	3.81
880.655	19.3
880.821	17.37
880.987	28.61
881.154	17.09
881.32	20.42
881.486	18.12
881.652	10.66
881.819	7.47
881.985	12.11
882.151	13.94
882.317	10.7
882.483	10.08
882.649	11.21
882.816	8.82
882.982	12.03
883.148	13.21
883.314	13.33
883.48	17.81
883.646	22.25
883.812	23.28
883.978	25.38
884.144	30.01
884.31	28.13
884.476	28.42
884.642	30.75
884.807	30.44
884.973	29.92
885.139	29.57
885.305	27.56
885.471	25.61
885.637	23.51
885.802	20.16
885.968	14.14
886.134	14.68
886.3	12.79
886.465	12.65
886.631	12.85
886.797	12.25
886.962	9.87
887.128	10.56
887.293	8.21
887.459	0.51
887.625	-6.74
887.79	2.76
887.956	8.13
888.121	12.57
888.287	5.37
888.452	2.67
888.618	1.63
888.783	10.7
