Data from 2938116_Reflection_3.txt Node
Date: Sat Jul 11 18:10:32 EDT 2015
User: robert
Spectrometer: USB4E03001
Autoset integration time: false
Trigger mode: 4
Integration Time (sec): 1.000000E-1
Scans to average: 10
Electric dark correction enabled: true
Nonlinearity correction enabled: false
Boxcar width: 5
Stray light correction enabled: false
XAxis mode: Wavelengths
Stop averaging: false
Number of Pixels in Spectrum: 3648
>>>>>Begin Spectral Data<<<<<
177.566	374.54
177.785	-52.43
178.005	41.67
178.225	131.51
178.445	71.34
178.665	135
178.885	146.14
179.105	127.56
179.324	144.31
179.544	130.69
179.764	161.71
179.984	212.82
180.204	315.51
180.423	227.66
180.643	596.5
180.863	-1102.25
181.083	431
181.302	440.98
181.522	296.97
181.742	299.17
181.961	302.36
182.181	225.8
182.401	345.55
182.621	1247.84
182.84	906.42
183.06	274.29
183.279	194.17
183.499	197.16
183.719	171.55
183.938	178.4
184.158	256.38
184.377	215.98
184.597	225.79
184.816	198.6
185.036	160.72
185.256	188
185.475	212.65
185.695	185.16
185.914	226.45
186.134	192.86
186.353	184.37
186.572	113.63
186.792	136.51
187.011	164.3
187.231	147.37
187.45	148.99
187.67	136.1
187.889	147.95
188.108	181.98
188.328	167.72
188.547	174.83
188.766	176.26
188.986	204.34
189.205	224.31
189.424	228.63
189.644	291.22
189.863	401.18
190.082	1596.83
190.302	468.64
190.521	370.42
190.74	390.57
190.959	-1995.64
191.178	-845.44
191.398	743.16
191.617	213.72
191.836	192.63
192.055	232.5
192.274	155.64
192.494	121.1
192.713	438.87
192.932	613.96
193.151	-5080.41
193.37	-1195.63
193.589	-381.97
193.808	-2301.62
194.027	-1750
194.246	1006.58
194.465	18620.34
194.685	2148.93
194.904	-4902.15
195.123	884.41
195.342	-1064.52
195.561	831.96
195.78	367.81
195.999	326.23
196.218	668.62
196.436	572.38
196.655	486.31
196.874	244.3
197.093	171.46
197.312	129.06
197.531	172.74
197.75	149.03
197.969	146.24
198.188	163.51
198.407	165.3
198.625	159.14
198.844	187.26
199.063	171.97
199.282	262.16
199.501	343.8
199.719	617.24
199.938	357.08
200.157	688.01
200.376	-5353.68
200.594	418.8
200.813	260.76
201.032	184.76
201.251	146.1
201.469	190.1
201.688	126.18
201.907	152.67
202.125	130.98
202.344	207.37
202.563	195.32
202.781	213.9
203	179.02
203.218	171.29
203.437	203.61
203.656	234.72
203.874	179.33
204.093	145.68
204.311	129.9
204.53	130.04
204.748	94.15
204.967	85.96
205.185	87.05
205.404	91.35
205.622	85.72
205.841	95.86
206.059	121.46
206.278	127.05
206.496	176.2
206.715	192.32
206.933	227.23
207.151	460.81
207.37	691.57
207.588	989.75
207.806	542.52
208.025	972.87
208.243	735.96
208.461	589.48
208.68	-344.69
208.898	497.45
209.116	271.99
209.335	284.72
209.553	206.8
209.771	140.79
209.989	122.75
210.208	-776.07
210.426	-508.6
210.644	-741.06
210.862	153.86
211.081	180.44
211.299	206.62
211.517	356.36
211.735	364.63
211.953	151.27
212.171	158.35
212.39	144.18
212.608	142.51
212.826	117.24
213.044	120.23
213.262	138.12
213.48	116.73
213.698	130.83
213.916	130.76
214.134	100.31
214.352	117.9
214.57	101.53
214.788	103.95
215.006	105.25
215.224	91.86
215.442	86.79
215.66	95.89
215.878	91.3
216.096	83.55
216.314	80.79
216.532	84.34
216.75	69.38
216.968	114.94
217.185	112.69
217.403	130.83
217.621	247.6
217.839	238.11
218.057	159.58
218.275	163.68
218.492	163.64
218.71	121.58
218.928	145
219.146	247.77
219.363	169.99
219.581	205.5
219.799	-125
220.017	709.28
220.234	176.2
220.452	134.4
220.67	140.65
220.887	77.66
221.105	126.74
221.323	49.44
221.54	55.52
221.758	74.25
221.976	80.66
222.193	73.46
222.411	68.21
222.629	73.72
222.846	88.53
223.064	88.8
223.281	86.94
223.499	86.96
223.716	95.01
223.934	100.7
224.151	93.26
224.369	100.6
224.586	107.17
224.804	105.32
225.021	95
225.239	91.76
225.456	88.9
225.674	94.71
225.891	97.72
226.108	86.53
226.326	87.84
226.543	79.38
226.76	67.64
226.978	65.88
227.195	62.23
227.413	59.68
227.63	45.21
227.847	44.27
228.064	43.57
228.282	36.13
228.499	37.59
228.716	30.84
228.934	26.98
229.151	27.47
229.368	24
229.585	25.55
229.802	28.19
230.02	28.28
230.237	26.16
230.454	22.27
230.671	22.29
230.888	19.04
231.105	18.3
231.323	21.81
231.54	23.96
231.757	28.11
231.974	24.1
232.191	22.63
232.408	23.97
232.625	28.23
232.842	27.02
233.059	25.61
233.276	21.33
233.493	31.76
233.71	31.7
233.927	24.96
234.144	21.35
234.361	26.85
234.578	23.67
234.795	18.53
235.012	13.52
235.229	9.1
235.446	12.96
235.663	20.29
235.879	9.71
236.096	6.11
236.313	8.16
236.53	10.69
236.747	11.52
236.964	14.17
237.181	19.46
237.397	19.17
237.614	33.7
237.831	27.71
238.048	31.16
238.264	28.18
238.481	27.27
238.698	31.26
238.915	27.25
239.131	25.77
239.348	21.36
239.565	20.4
239.781	24.59
239.998	19.81
240.215	27.42
240.431	26.32
240.648	26.51
240.865	25.61
241.081	22.12
241.298	18.96
241.514	16.47
241.731	16.81
241.947	14.8
242.164	11.31
242.38	9.27
242.597	6.03
242.814	5.24
243.03	5.88
243.246	7.12
243.463	7.08
243.679	8.33
243.896	10.53
244.112	11.25
244.329	12.05
244.545	15.1
244.762	17.04
244.978	20.42
245.194	20.56
245.411	20.1
245.627	16.57
245.843	16.38
246.06	16.68
246.276	14.48
246.492	13.34
246.709	11.86
246.925	11.45
247.141	9.88
247.357	7.39
247.574	7.34
247.79	8.85
248.006	8.13
248.222	7.25
248.439	6.66
248.655	6.12
248.871	5.51
249.087	5.37
249.303	4.37
249.519	4.5
249.736	5.42
249.952	3.72
250.168	1.74
250.384	3.72
250.6	3.78
250.816	3.89
251.032	7.05
251.248	7.73
251.464	10.24
251.68	8.46
251.896	10.38
252.112	10.32
252.328	9.39
252.544	8.56
252.76	10.49
252.976	13.07
253.192	12.54
253.408	10.33
253.624	9.91
253.84	9.34
254.056	10.52
254.272	11.57
254.487	11.77
254.703	14.19
254.919	15.52
255.135	11.51
255.351	11.02
255.567	12.44
255.782	13.94
255.998	16.07
256.214	17.25
256.43	17.17
256.646	13.15
256.861	13.51
257.077	13.9
257.293	12.63
257.508	13.1
257.724	10.26
257.94	6.32
258.155	5.21
258.371	6.41
258.587	4.89
258.802	5.58
259.018	5.5
259.234	4.82
259.449	4.54
259.665	4.25
259.88	5.2
260.096	4.89
260.312	5.44
260.527	6.65
260.743	6.09
260.958	6.43
261.174	6.1
261.389	6.9
261.605	7.46
261.82	6.54
262.036	6.62
262.251	5.52
262.466	6.18
262.682	7.35
262.897	5.07
263.113	3.85
263.328	3.61
263.543	4.57
263.759	5.08
263.974	5.41
264.189	6.53
264.405	8.53
264.62	9.9
264.835	9.84
265.051	10.06
265.266	11.94
265.481	11.89
265.696	11.46
265.912	11.43
266.127	10.47
266.342	9.36
266.557	9.2
266.773	7.39
266.988	6.27
267.203	6.32
267.418	6.58
267.633	6.18
267.848	7.14
268.064	7.34
268.279	7.78
268.494	7.83
268.709	8.85
268.924	8.56
269.139	9.22
269.354	10.24
269.569	9.61
269.784	8.49
269.999	8.31
270.214	7.46
270.429	9.66
270.644	9.08
270.859	9.93
271.074	8.24
271.289	8.86
271.504	9.13
271.719	9.25
271.934	10.45
272.149	10.73
272.363	10.33
272.578	9.6
272.793	8.38
273.008	7.71
273.223	6
273.438	7
273.653	9.44
273.867	9.2
274.082	9.34
274.297	9.44
274.512	9.91
274.726	9.08
274.941	9.39
275.156	10.67
275.371	10.71
275.585	11.83
275.8	12.17
276.015	9.33
276.229	9.59
276.444	7.99
276.659	6.13
276.873	3.68
277.088	6.24
277.302	7.67
277.517	5.84
277.732	5.22
277.946	5.46
278.161	6.82
278.375	6.2
278.59	7.09
278.804	8.51
279.019	7.75
279.233	10.67
279.448	9.59
279.662	10.26
279.877	10.59
280.091	10.23
280.306	10.27
280.52	9.25
280.735	8.87
280.949	7.89
281.163	9.15
281.378	10.63
281.592	10.74
281.806	9.98
282.021	9.65
282.235	9.57
282.449	8.98
282.664	8.97
282.878	7.91
283.092	8.54
283.307	9.54
283.521	7.47
283.735	6.1
283.949	4.83
284.164	4.5
284.378	3.07
284.592	2.71
284.806	4.3
285.02	3.76
285.234	3.58
285.449	3.81
285.663	3.02
285.877	4.31
286.091	5.76
286.305	5.24
286.519	4.16
286.733	4.03
286.947	4.66
287.161	4.57
287.375	4.22
287.589	5.12
287.803	6.61
288.017	6.68
288.231	6.76
288.445	6.27
288.659	7.08
288.873	9.15
289.087	10.81
289.301	9.46
289.515	10.17
289.729	11.88
289.943	12.65
290.157	10.68
290.371	10.74
290.584	9.9
290.798	10.33
291.012	10.05
291.226	10.16
291.44	10.4
291.654	10.64
291.867	9.59
292.081	10.07
292.295	9.11
292.509	9.03
292.722	8.16
292.936	8.15
293.15	7.8
293.364	10.08
293.577	11
293.791	10.42
294.005	11.86
294.218	10.96
294.432	8.65
294.645	9.37
294.859	10.1
295.073	9.89
295.286	10.93
295.5	10.49
295.713	9.37
295.927	7.61
296.14	7.64
296.354	7.68
296.568	8.09
296.781	8.69
296.994	7.61
297.208	7.72
297.421	8.55
297.635	8.23
297.848	8.91
298.062	9.01
298.275	9.5
298.489	9.85
298.702	10.46
298.915	11.32
299.129	11.8
299.342	12.54
299.555	13.67
299.769	15.28
299.982	15.79
300.195	15.59
300.409	17.23
300.622	17.57
300.835	17.54
301.048	16.96
301.262	17.23
301.475	17.2
301.688	18.45
301.901	17.44
302.115	17.06
302.328	16.27
302.541	17.16
302.754	16.2
302.967	17.33
303.18	17.05
303.393	16.5
303.607	16.84
303.82	16.21
304.033	15.34
304.246	17
304.459	16.5
304.672	17.34
304.885	17.39
305.098	17.91
305.311	16.84
305.524	17.43
305.737	17.41
305.95	18
306.163	17.97
306.376	17.05
306.589	15.58
306.802	13.63
307.015	13.6
307.228	10.82
307.44	9.44
307.653	10.64
307.866	11.61
308.079	13.75
308.292	11.18
308.505	11.22
308.718	11.28
308.93	11.57
309.143	13.14
309.356	11.49
309.569	13.13
309.781	14.83
309.994	13.33
310.207	12.98
310.42	10.41
310.632	10.54
310.845	10.3
311.058	10.66
311.27	9.9
311.483	9.23
311.696	9.46
311.908	10.37
312.121	9.8
312.333	11.3
312.546	10.51
312.759	13.05
312.971	13.86
313.184	15.13
313.396	14.68
313.609	15.66
313.821	18.02
314.034	19.02
314.246	18.45
314.459	17.76
314.671	17.88
314.884	16.93
315.096	15.65
315.309	16.12
315.521	16.52
315.733	16.57
315.946	16.06
316.158	12.98
316.371	13.49
316.583	13.22
316.795	12.78
317.008	13.38
317.22	15.54
317.432	17.66
317.644	18.39
317.857	18.21
318.069	18.43
318.281	18.86
318.494	20.32
318.706	20.66
318.918	20.72
319.13	21.52
319.342	21.54
319.555	21.47
319.767	20.28
319.979	19.41
320.191	18.01
320.403	20.57
320.615	21.67
320.827	21.48
321.039	20.69
321.252	20.48
321.464	21.19
321.676	20.49
321.888	18.6
322.1	18.29
322.312	17.07
322.524	17.96
322.736	14.79
322.948	13.45
323.16	13.47
323.372	14.79
323.584	15.48
323.796	15.24
324.007	14.6
324.219	15.64
324.431	15.76
324.643	16.6
324.855	16.67
325.067	18.2
325.279	19.46
325.491	18.44
325.702	17.47
325.914	18.19
326.126	17.72
326.338	16.76
326.55	16.77
326.761	16.64
326.973	18.06
327.185	17.11
327.396	16.35
327.608	14.54
327.82	17.39
328.032	17.71
328.243	17.3
328.455	17.31
328.666	18.16
328.878	17.1
329.09	16.51
329.301	14.95
329.513	16.46
329.725	16.81
329.936	18.85
330.148	19.71
330.359	18.69
330.571	17.39
330.782	18.14
330.994	19.56
331.205	21.54
331.417	22.5
331.628	23.21
331.84	23.02
332.051	24.94
332.262	25.72
332.474	23.87
332.685	25.74
332.897	26.43
333.108	24.7
333.319	23.87
333.531	24.43
333.742	24.12
333.953	23.25
334.165	23.56
334.376	23.32
334.587	20.86
334.799	21.49
335.01	21.16
335.221	21.01
335.432	22.04
335.644	21.96
335.855	21.3
336.066	20.42
336.277	21.48
336.488	21.34
336.7	20.11
336.911	22.27
337.122	22.05
337.333	22.58
337.544	23.33
337.755	23.41
337.966	24.01
338.177	23.37
338.388	24.12
338.599	23.33
338.811	22.87
339.022	23.14
339.233	23.84
339.444	23.82
339.655	22.62
339.866	21.59
340.076	21.51
340.287	21.55
340.498	20.47
340.709	20.37
340.92	20.53
341.131	21.16
341.342	20.98
341.553	20.46
341.764	20.23
341.975	20.49
342.185	21.18
342.396	20.95
342.607	21.69
342.818	23.7
343.029	24.49
343.239	25.74
343.45	24.89
343.661	25.37
343.872	24.49
344.082	23.95
344.293	25.41
344.504	25.14
344.714	25.88
344.925	24.52
345.136	24.15
345.346	24.24
345.557	24.13
345.768	24.04
345.978	24.82
346.189	25.45
346.399	26.17
346.61	24.81
346.821	25.2
347.031	25.66
347.242	26.65
347.452	25.76
347.663	25.57
347.873	25.15
348.084	26.22
348.294	25.75
348.504	25.5
348.715	25.94
348.925	27.46
349.136	27.81
349.346	26.31
349.557	25.25
349.767	26.81
349.977	26.34
350.188	26.54
350.398	26.58
350.608	26.05
350.819	24.85
351.029	24.46
351.239	23.42
351.449	22.98
351.66	22.96
351.87	23.34
352.08	23.01
352.29	22.87
352.501	22.9
352.711	23.59
352.921	23.23
353.131	24.08
353.341	24.02
353.552	23.59
353.762	22.52
353.972	24.13
354.182	23.89
354.392	24.16
354.602	24.6
354.812	24.57
355.022	23.24
355.232	23.08
355.442	23.25
355.652	23.15
355.862	23.54
356.072	23.62
356.282	21.46
356.492	22.89
356.702	22.37
356.912	22.58
357.122	22.96
357.332	23.96
357.542	24.3
357.752	23.77
357.962	23.75
358.171	23.54
358.381	25.69
358.591	27.17
358.801	26.2
359.011	26.61
359.221	26.43
359.43	25.29
359.64	24.38
359.85	23.48
360.06	23.65
360.269	23.45
360.479	23.48
360.689	23
360.899	23.03
361.108	22.54
361.318	22.06
361.528	22.21
361.737	22.65
361.947	22.46
362.156	23.55
362.366	24.27
362.576	24.2
362.785	24.57
362.995	24.06
363.204	23.86
363.414	23.85
363.623	24.57
363.833	24.53
364.042	25.25
364.252	25.86
364.461	25.84
364.671	24.96
364.88	25.68
365.09	25.34
365.299	26.95
365.509	27.72
365.718	28.02
365.927	27.01
366.137	27.35
366.346	26.52
366.555	25.91
366.765	25.21
366.974	25.2
367.183	24.92
367.393	25.14
367.602	23.96
367.811	23.08
368.021	23.9
368.23	24.8
368.439	24.56
368.648	25.28
368.857	26.22
369.067	26.8
369.276	26.99
369.485	27.16
369.694	27.76
369.903	27.4
370.112	27.7
370.321	27.39
370.531	26.43
370.74	26.6
370.949	26.95
371.158	26.92
371.367	26.84
371.576	27.26
371.785	26.97
371.994	25.99
372.203	26.15
372.412	25.65
372.621	26.06
372.83	26.74
373.039	26.51
373.248	25.07
373.457	24.96
373.666	24.7
373.874	23.96
374.083	24.06
374.292	25.01
374.501	24.49
374.71	25.51
374.919	25.31
375.128	24.69
375.336	25.23
375.545	26.42
375.754	26.15
375.963	25.99
376.171	26.88
376.38	26.62
376.589	26.07
376.798	26.09
377.006	25.64
377.215	25.31
377.424	25.63
377.632	25.85
377.841	25.21
378.05	25.27
378.258	25.09
378.467	24.57
378.675	24.37
378.884	23.73
379.093	23.81
379.301	23.98
379.51	23.99
379.718	24.07
379.927	23.2
380.135	23.53
380.344	24.06
380.552	24.61
380.761	24.61
380.969	24.97
381.177	25.73
381.386	25.73
381.594	25.16
381.803	24.82
382.011	25.12
382.219	24.98
382.428	25.44
382.636	24.69
382.845	24.47
383.053	24.46
383.261	23.93
383.469	23.49
383.678	23.77
383.886	24.09
384.094	24.63
384.302	24.55
384.511	24.86
384.719	24.24
384.927	24.15
385.135	24.44
385.343	24.72
385.552	26.03
385.76	26.14
385.968	26.19
386.176	26.3
386.384	26.15
386.592	25.48
386.8	25.39
387.008	25.32
387.216	25.59
387.424	25.67
387.633	25.61
387.841	25.07
388.049	24.82
388.257	24.88
388.465	24.74
388.672	24.42
388.88	25.68
389.088	25.48
389.296	25.4
389.504	25.44
389.712	25.11
389.92	24.47
390.128	24.3
390.336	25.09
390.544	24.73
390.751	24.58
390.959	24.56
391.167	23.94
391.375	24.3
391.583	24.61
391.79	24.59
391.998	24.9
392.206	25.22
392.414	25.22
392.621	24.98
392.829	25.36
393.037	25.23
393.244	25.56
393.452	25.4
393.66	25.6
393.867	25.28
394.075	25.14
394.283	25.36
394.49	25.55
394.698	25.79
394.905	25.48
395.113	25.56
395.32	25.97
395.528	26.07
395.735	26.38
395.943	25.96
396.15	26.32
396.358	26.75
396.565	26.64
396.773	27.06
396.98	26.92
397.188	27.24
397.395	26.98
397.602	27.1
397.81	27.12
398.017	26.98
398.225	27.18
398.432	27.66
398.639	27.51
398.847	27.66
399.054	27.49
399.261	27.54
399.468	27.66
399.676	27.82
399.883	27.64
400.09	27.66
400.297	27.67
400.505	27.9
400.712	27.63
400.919	27.87
401.126	27.95
401.333	27.83
401.54	27.95
401.748	28.14
401.955	28.34
402.162	28.6
402.369	28.93
402.576	29.23
402.783	29.17
402.99	29.53
403.197	29.41
403.404	29.38
403.611	29.41
403.818	29.56
404.025	29.31
404.232	29.52
404.439	29.67
404.646	29.38
404.853	29.54
405.06	29.62
405.267	29.21
405.474	29.37
405.681	29.28
405.887	29.38
406.094	29.51
406.301	29.95
406.508	29.82
406.715	29.72
406.922	30.05
407.128	29.92
407.335	30.11
407.542	30.2
407.749	30.42
407.955	30.91
408.162	30.79
408.369	30.66
408.575	30.39
408.782	30.13
408.989	30.23
409.195	30.05
409.402	30.11
409.609	29.79
409.815	30.02
410.022	30
410.228	29.63
410.435	30.06
410.642	30.04
410.848	30.26
411.055	30.61
411.261	30.38
411.468	30.65
411.674	30.6
411.881	30.49
412.087	30.11
412.294	29.81
412.5	29.92
412.706	29.76
412.913	29.78
413.119	29.63
413.326	29.71
413.532	29.69
413.738	29.56
413.945	29.63
414.151	29.76
414.357	29.86
414.564	29.83
414.77	29.6
414.976	29.51
415.182	29.36
415.389	29.53
415.595	29.24
415.801	29.13
416.007	28.87
416.214	28.56
416.42	28.59
416.626	28.68
416.832	28.93
417.038	28.86
417.244	28.84
417.45	28.94
417.657	28.59
417.863	28.67
418.069	28.91
418.275	28.9
418.481	28.87
418.687	28.9
418.893	28.59
419.099	28.39
419.305	28.33
419.511	28.13
419.717	27.93
419.923	28.01
420.129	27.78
420.335	27.6
420.541	27.68
420.746	27.68
420.952	27.71
421.158	27.81
421.364	27.72
421.57	27.69
421.776	27.65
421.982	27.77
422.187	27.67
422.393	27.77
422.599	27.73
422.805	27.58
423.01	27.63
423.216	27.42
423.422	27.42
423.628	27.5
423.833	27.44
424.039	27.43
424.245	27.33
424.45	27.32
424.656	27.32
424.862	27.3
425.067	27.36
425.273	27.23
425.478	27.27
425.684	27.35
425.889	27.27
426.095	27.21
426.301	27.16
426.506	27.16
426.712	27.22
426.917	27.33
427.123	27.41
427.328	27.34
427.533	27.6
427.739	27.66
427.944	27.75
428.15	27.78
428.355	27.95
428.561	28.03
428.766	28.05
428.971	28
429.177	28.04
429.382	28.01
429.587	28.06
429.793	27.88
429.998	27.77
430.203	27.49
430.408	27.3
430.614	27.5
430.819	27.37
431.024	27.43
431.229	27.46
431.434	27.25
431.64	27.31
431.845	27.32
432.05	27.36
432.255	27.33
432.46	27.42
432.665	27.72
432.87	27.58
433.076	27.71
433.281	27.61
433.486	27.56
433.691	27.66
433.896	27.55
434.101	27.66
434.306	27.72
434.511	28.06
434.716	28.09
434.921	28.07
435.126	28.25
435.331	28.56
435.535	28.58
435.74	28.71
435.945	28.84
436.15	29.01
436.355	28.95
436.56	28.87
436.765	28.67
436.97	28.73
437.174	28.55
437.379	28.62
437.584	28.33
437.789	28.35
437.993	28.33
438.198	28.21
438.403	27.92
438.608	27.83
438.812	27.72
439.017	27.55
439.222	27.45
439.426	27.39
439.631	27.23
439.836	27.04
440.04	26.91
440.245	26.98
440.45	26.7
440.654	26.91
440.859	26.88
441.063	26.87
441.268	26.86
441.472	26.79
441.677	26.97
441.881	26.92
442.086	26.92
442.29	27.09
442.495	26.95
442.699	27.25
442.904	27.28
443.108	27.41
443.312	27.36
443.517	27.42
443.721	27.26
443.925	27.02
444.13	27
444.334	27.02
444.538	26.94
444.743	26.81
444.947	26.68
445.151	26.65
445.356	26.55
445.56	26.6
445.764	26.65
445.968	26.78
446.173	26.77
446.377	26.8
446.581	26.95
446.785	26.94
446.989	27.01
447.193	26.97
447.398	26.77
447.602	26.71
447.806	26.68
448.01	26.69
448.214	26.71
448.418	26.73
448.622	26.71
448.826	26.73
449.03	26.7
449.234	26.46
449.438	26.34
449.642	26.48
449.846	26.47
450.05	26.52
450.254	26.36
450.458	26.26
450.662	26.12
450.866	25.9
451.069	25.87
451.273	25.77
451.477	25.82
451.681	25.88
451.885	25.82
452.089	25.87
452.292	25.87
452.496	26
452.7	26.03
452.904	26.15
453.107	26.28
453.311	26.07
453.515	26.02
453.719	26.19
453.922	26.43
454.126	26.41
454.33	26.58
454.533	26.37
454.737	26.24
454.94	26.33
455.144	26.48
455.348	26.39
455.551	26.55
455.755	26.66
455.958	26.93
456.162	26.78
456.365	26.7
456.569	26.39
456.772	26.52
456.976	26.7
457.179	26.65
457.383	26.58
457.586	26.51
457.79	26.38
457.993	26.54
458.196	26.25
458.4	26.26
458.603	26.35
458.807	26.43
459.01	26.54
459.213	26.41
459.417	26.47
459.62	26.41
459.823	26.55
460.026	26.48
460.23	26.41
460.433	26.45
460.636	26.45
460.839	26.48
461.042	26.54
461.246	26.54
461.449	26.51
461.652	26.4
461.855	26.34
462.058	26.24
462.261	26.37
462.464	26.38
462.668	26.35
462.871	26.52
463.074	26.67
463.277	26.65
463.48	26.65
463.683	26.76
463.886	26.6
464.089	26.76
464.292	26.79
464.495	26.83
464.698	26.84
464.901	26.94
465.104	26.93
465.306	26.87
465.509	26.97
465.712	26.83
465.915	26.87
466.118	26.95
466.321	27.22
466.524	27.07
466.726	27.15
466.929	27.22
467.132	27.19
467.335	27.13
467.538	27.04
467.74	27.05
467.943	27.14
468.146	27.09
468.348	27.38
468.551	27.15
468.754	27.39
468.956	27.39
469.159	27.27
469.362	27.27
469.564	27.47
469.767	27.68
469.969	27.73
470.172	27.81
470.375	28.01
470.577	27.99
470.78	27.98
470.982	27.8
471.185	27.73
471.387	27.67
471.59	27.64
471.792	27.46
471.995	27.27
472.197	27.08
472.399	27.09
472.602	27.18
472.804	27.19
473.007	27.22
473.209	27.38
473.411	27.5
473.614	27.68
473.816	27.83
474.018	27.88
474.22	27.98
474.423	27.95
474.625	28.19
474.827	28.01
475.03	27.93
475.232	27.9
475.434	27.89
475.636	27.9
475.838	27.78
476.04	27.72
476.243	27.73
476.445	27.8
476.647	27.92
476.849	27.69
477.051	27.71
477.253	27.74
477.455	27.65
477.657	27.71
477.859	27.71
478.061	27.92
478.263	27.97
478.465	27.85
478.667	27.8
478.869	27.73
479.071	27.81
479.273	27.75
479.475	27.67
479.677	27.79
479.879	27.54
480.081	27.56
480.283	27.44
480.485	27.34
480.686	27.47
480.888	27.24
481.09	27.21
481.292	27.08
481.494	27.17
481.695	27.11
481.897	27.12
482.099	27.21
482.301	27.15
482.502	27.01
482.704	26.95
482.906	26.88
483.107	26.88
483.309	26.95
483.511	26.94
483.712	26.85
483.914	26.88
484.115	26.83
484.317	26.85
484.519	26.81
484.72	26.94
484.922	26.94
485.123	26.87
485.325	26.94
485.526	26.89
485.728	26.89
485.929	26.9
486.131	26.85
486.332	26.88
486.534	26.89
486.735	26.9
486.936	26.83
487.138	26.84
487.339	26.94
487.541	26.88
487.742	26.86
487.943	26.87
488.144	26.97
488.346	27.13
488.547	27.16
488.748	27.23
488.95	27.27
489.151	27.29
489.352	27.32
489.553	27.35
489.755	27.44
489.956	27.46
490.157	27.53
490.358	27.51
490.559	27.45
490.76	27.46
490.961	27.29
491.163	27.35
491.364	27.34
491.565	27.32
491.766	27.38
491.967	27.41
492.168	27.37
492.369	27.35
492.57	27.31
492.771	27.27
492.972	27.28
493.173	27.45
493.374	27.46
493.575	27.43
493.776	27.55
493.976	27.58
494.177	27.59
494.378	27.67
494.579	27.73
494.78	27.87
494.981	27.87
495.182	27.88
495.382	27.88
495.583	27.98
495.784	28.08
495.985	28.03
496.185	28.03
496.386	28.09
496.587	28.3
496.788	28.34
496.988	28.37
497.189	28.47
497.39	28.4
497.59	28.35
497.791	28.16
497.992	28.16
498.192	28.28
498.393	28.43
498.593	28.57
498.794	28.52
498.994	28.53
499.195	28.44
499.395	28.47
499.596	28.61
499.796	28.56
499.997	28.67
500.197	28.74
500.398	28.6
500.598	28.37
500.799	28.33
500.999	28.32
501.199	28.23
501.4	28.38
501.6	28.25
501.801	28.24
502.001	28.25
502.201	28.17
502.402	28.18
502.602	28.41
502.802	28.48
503.002	28.43
503.203	28.49
503.403	28.49
503.603	28.54
503.803	28.68
504.003	28.71
504.204	28.78
504.404	28.91
504.604	28.99
504.804	28.83
505.004	28.78
505.204	28.9
505.404	28.82
505.604	28.99
505.804	28.82
506.005	28.8
506.205	28.76
506.405	29.04
506.605	29.07
506.805	29.12
507.005	29.28
507.204	29.4
507.404	29.15
507.604	29.16
507.804	29.25
508.004	29.34
508.204	29.49
508.404	29.52
508.604	29.22
508.804	29.31
509.003	29.25
509.203	29.14
509.403	28.92
509.603	29.06
509.803	29.05
510.002	29
510.202	29.16
510.402	29.08
510.602	29.04
510.801	29.24
511.001	29.28
511.201	29.35
511.4	29.53
511.6	29.91
511.8	29.86
511.999	29.96
512.199	29.92
512.398	29.8
512.598	29.96
512.797	30.1
512.997	30.05
513.197	29.99
513.396	29.96
513.596	29.98
513.795	29.92
513.994	30.04
514.194	30.01
514.393	29.99
514.593	30.08
514.792	29.98
514.992	29.82
515.191	30.01
515.39	29.89
515.59	29.91
515.789	29.88
515.988	29.97
516.188	30
516.387	29.98
516.586	30.09
516.786	30.07
516.985	29.98
517.184	30.21
517.383	30.07
517.582	30.25
517.782	30.21
517.981	30.31
518.18	30.21
518.379	30.31
518.578	30.41
518.777	30.37
518.976	30.4
519.176	30.47
519.375	30.47
519.574	30.44
519.773	30.43
519.972	30.48
520.171	30.43
520.37	30.48
520.569	30.48
520.768	30.61
520.967	30.87
521.166	30.92
521.365	31.08
521.564	31.18
521.762	31.32
521.961	31.34
522.16	31.52
522.359	31.58
522.558	31.51
522.757	31.38
522.956	31.28
523.154	31.13
523.353	31.15
523.552	31.1
523.751	31.02
523.949	31.07
524.148	31.2
524.347	31.2
524.546	31.25
524.744	31.3
524.943	31.39
525.142	31.45
525.34	31.42
525.539	31.43
525.737	31.35
525.936	31.36
526.135	31.24
526.333	31.11
526.532	30.98
526.73	30.85
526.929	30.83
527.127	30.81
527.326	30.75
527.524	30.73
527.723	30.68
527.921	30.68
528.12	30.65
528.318	30.69
528.516	30.72
528.715	30.76
528.913	30.79
529.112	30.84
529.31	30.86
529.508	30.89
529.707	30.92
529.905	30.87
530.103	30.9
530.301	30.9
530.5	30.91
530.698	30.93
530.896	30.97
531.094	31.06
531.293	31.01
531.491	31.03
531.689	31.13
531.887	31.09
532.085	31.23
532.283	31.28
532.481	31.24
532.68	31.27
532.878	31.22
533.076	31.22
533.274	31.19
533.472	31.14
533.67	31.14
533.868	31.02
534.066	31.08
534.264	31.11
534.462	31.14
534.66	31.28
534.858	31.26
535.056	31.36
535.253	31.29
535.451	31.32
535.649	31.44
535.847	31.41
536.045	31.58
536.243	31.63
536.441	31.63
536.638	31.65
536.836	31.52
537.034	31.71
537.232	31.66
537.43	31.88
537.627	31.8
537.825	31.81
538.023	31.9
538.22	31.87
538.418	31.97
538.616	32.1
538.813	32.05
539.011	32.34
539.209	32.18
539.406	32.27
539.604	32.34
539.801	32.61
539.999	32.66
540.196	32.53
540.394	32.58
540.591	32.61
540.789	32.68
540.986	32.79
541.184	32.72
541.381	32.89
541.579	32.97
541.776	32.95
541.974	32.91
542.171	33.08
542.368	33.3
542.566	33.44
542.763	33.54
542.96	33.6
543.158	33.7
543.355	33.89
543.552	33.95
543.75	34.17
543.947	34.39
544.144	34.53
544.341	34.62
544.539	34.79
544.736	34.99
544.933	35.13
545.13	35.34
545.327	35.47
545.524	35.48
545.722	35.41
545.919	35.23
546.116	35.19
546.313	35.21
546.51	35.09
546.707	34.87
546.904	34.58
547.101	34.5
547.298	34.29
547.495	34.07
547.692	33.99
547.889	34.09
548.086	34.13
548.283	34.03
548.48	33.93
548.677	33.89
548.874	33.99
549.07	34.11
549.267	33.98
549.464	34.01
549.661	34.07
549.858	34.13
550.055	34.26
550.251	34.18
550.448	34.26
550.645	34.25
550.842	34.18
551.038	34.06
551.235	34.28
551.432	34.24
551.628	34.06
551.825	34.07
552.022	33.99
552.218	33.83
552.415	33.8
552.612	33.71
552.808	33.59
553.005	33.57
553.201	33.76
553.398	33.41
553.594	33.46
553.791	33.81
553.987	33.94
554.184	33.94
554.38	33.98
554.577	33.97
554.773	34.07
554.97	34.18
555.166	34.21
555.362	34.08
555.559	34.01
555.755	34.05
555.952	33.71
556.148	33.46
556.344	33.29
556.541	33.07
556.737	33.15
556.933	32.93
557.129	32.89
557.326	33.06
557.522	32.98
557.718	33.3
557.914	33.25
558.11	33.23
558.307	33.4
558.503	33.63
558.699	33.69
558.895	33.67
559.091	33.87
559.287	33.89
559.483	33.76
559.679	33.73
559.876	33.72
560.072	33.89
560.268	33.68
560.464	33.67
560.66	33.57
560.856	33.45
561.052	33.35
561.247	33.38
561.443	33.39
561.639	33.5
561.835	33.43
562.031	33.28
562.227	33.1
562.423	33.37
562.619	33.23
562.815	33.39
563.01	33.46
563.206	33.55
563.402	33.52
563.598	33.58
563.793	33.39
563.989	33.57
564.185	33.56
564.381	33.52
564.576	33.53
564.772	33.57
564.968	33.52
565.163	33.55
565.359	33.45
565.555	33.31
565.75	33.3
565.946	33.37
566.141	33.12
566.337	33.15
566.532	33.29
566.728	33.23
566.923	33.26
567.119	33.31
567.314	33.47
567.51	33.52
567.705	33.49
567.901	33.37
568.096	33.44
568.292	33.58
568.487	33.46
568.682	33.43
568.878	33.48
569.073	33.55
569.268	33.59
569.464	33.42
569.659	33.5
569.854	33.55
570.05	33.7
570.245	33.61
570.44	33.69
570.635	33.83
570.831	33.72
571.026	33.71
571.221	33.57
571.416	33.33
571.611	33.33
571.806	33.24
572.002	33.25
572.197	33.19
572.392	33.39
572.587	33.23
572.782	33.25
572.977	33.24
573.172	33.19
573.367	33.29
573.562	33.61
573.757	33.64
573.952	33.67
574.147	33.64
574.342	33.68
574.537	33.5
574.732	33.71
574.927	33.51
575.121	33.37
575.316	33.31
575.511	33.46
575.706	33.19
575.901	33.09
576.096	33.04
576.29	32.96
576.485	32.88
576.68	32.78
576.875	32.81
577.069	32.91
577.264	33.15
577.459	33.38
577.654	33.48
577.848	33.68
578.043	33.93
578.238	33.97
578.432	34.32
578.627	34.64
578.821	34.87
579.016	34.8
579.21	34.83
579.405	34.85
579.6	34.89
579.794	34.75
579.989	34.77
580.183	34.6
580.378	34.85
580.572	34.85
580.766	34.85
580.961	34.91
581.155	35.13
581.35	35.43
581.544	35.58
581.738	35.39
581.933	35.35
582.127	35.16
582.321	35.18
582.516	35.13
582.71	35.17
582.904	35.21
583.099	34.93
583.293	34.9
583.487	34.71
583.681	34.88
583.875	35.21
584.07	35.31
584.264	35.59
584.458	35.9
584.652	35.81
584.846	35.75
585.04	35.47
585.234	35.71
585.428	35.63
585.623	35.74
585.817	35.51
586.011	35.33
586.205	35.51
586.399	35.33
586.593	35.45
586.787	35.53
586.981	35.54
587.174	35.88
587.368	35.89
587.562	36
587.756	35.93
587.95	35.87
588.144	35.95
588.338	35.75
588.532	35.63
588.725	35.31
588.919	35.45
589.113	35.31
589.307	35.15
589.501	35.03
589.694	34.84
589.888	34.83
590.082	34.7
590.275	34.4
590.469	34.5
590.663	34.62
590.856	34.58
591.05	34.66
591.244	34.47
591.437	34.76
591.631	34.82
591.824	34.92
592.018	35.05
592.212	35.39
592.405	35.46
592.599	35.33
592.792	35.33
592.986	35.33
593.179	34.95
593.372	35.32
593.566	34.94
593.759	34.89
593.953	35.11
594.146	35.08
594.339	35.03
594.533	34.89
594.726	34.66
594.92	34.64
595.113	34.55
595.306	34.53
595.499	34.29
595.693	34.06
595.886	34.19
596.079	33.96
596.272	33.83
596.466	33.51
596.659	33.75
596.852	33.88
597.045	33.87
597.238	33.77
597.431	33.8
597.624	33.91
597.818	34.14
598.011	34.15
598.204	34
598.397	34.12
598.59	34.37
598.783	34.29
598.976	34.22
599.169	34.41
599.362	34.63
599.555	34.72
599.748	34.73
599.941	34.83
600.134	34.52
600.326	34.67
600.519	34.61
600.712	34.39
600.905	34.51
601.098	34.73
601.291	34.72
601.483	34.96
601.676	35.16
601.869	35.15
602.062	34.68
602.255	34.84
602.447	34.94
602.64	34.77
602.833	34.85
603.025	34.79
603.218	34.71
603.411	34.45
603.603	34.36
603.796	34.18
603.989	34.1
604.181	34.13
604.374	34.09
604.566	34.12
604.759	34.24
604.951	34.4
605.144	34.37
605.336	34.34
605.529	34.28
605.721	34.19
605.914	34.46
606.106	34.44
606.299	34.56
606.491	34.64
606.683	34.58
606.876	34.56
607.068	34.54
607.26	34.47
607.453	34.67
607.645	35
607.837	34.87
608.03	34.84
608.222	35.29
608.414	35.62
608.606	35.92
608.799	36.42
608.991	36.72
609.183	36.93
609.375	37.76
609.567	38.24
609.759	38.92
609.952	39.86
610.144	40.3
610.336	40.93
610.528	41.53
610.72	42.19
610.912	42.47
611.104	43.12
611.296	43.55
611.488	43.55
611.68	43.58
611.872	43.43
612.064	43.18
612.256	43.04
612.448	42.45
612.64	41.92
612.832	41.5
613.023	41.33
613.215	40.92
613.407	40.61
613.599	40.03
613.791	39.77
613.983	39.45
614.174	39.18
614.366	39.3
614.558	39.04
614.75	39.17
614.941	39.04
615.133	38.74
615.325	38.59
615.516	38.41
615.708	38.6
615.9	38.39
616.091	38.02
616.283	37.92
616.475	37.57
616.666	37.73
616.858	37.83
617.049	37.52
617.241	37.58
617.432	37.08
617.624	37.27
617.815	37.25
618.007	36.95
618.198	37.17
618.39	37.12
618.581	36.87
618.773	36.63
618.964	36.31
619.155	36.41
619.347	36.1
619.538	36.45
619.729	36.3
619.921	36.26
620.112	36.56
620.303	36.41
620.494	36.08
620.686	36.26
620.877	36.37
621.068	36.56
621.259	36.81
621.451	36.63
621.642	36.5
621.833	36.67
622.024	36.32
622.215	36.52
622.406	36.51
622.597	36.96
622.788	36.91
622.98	36.94
623.171	36.93
623.362	36.72
623.553	36.95
623.744	36.9
623.935	36.77
624.126	36.9
624.317	36.46
624.508	36.15
624.698	35.71
624.889	35.65
625.08	35.63
625.271	35.43
625.462	35.29
625.653	35.16
625.844	35.04
626.034	34.74
626.225	34.73
626.416	34.7
626.607	34.88
626.798	35.13
626.988	35.12
627.179	35.13
627.37	35.15
627.56	35.22
627.751	35.18
627.942	35.4
628.132	35.48
628.323	35.57
628.514	35.63
628.704	35.9
628.895	35.96
629.085	35.85
629.276	35.85
629.466	35.8
629.657	35.77
629.847	36
630.038	36.06
630.228	36.36
630.419	36.34
630.609	36.45
630.8	36.35
630.99	36.15
631.181	36.31
631.371	36.35
631.561	36.33
631.752	36.22
631.942	35.87
632.132	35.71
632.323	35.59
632.513	35.4
632.703	35.34
632.893	35.3
633.084	35.47
633.274	35.24
633.464	34.98
633.654	35.11
633.844	35.09
634.034	35.6
634.225	35.38
634.415	35.17
634.605	35.13
634.795	35.16
634.985	35.21
635.175	35.32
635.365	35.25
635.555	35.26
635.745	35.14
635.935	35.39
636.125	35.02
636.315	35.29
636.505	34.97
636.695	35.32
636.885	35.59
637.075	35.49
637.265	35.3
637.455	35.38
637.644	35.57
637.834	35.66
638.024	35.7
638.214	36.27
638.404	36.37
638.593	36.4
638.783	36.4
638.973	36.2
639.163	36.04
639.352	36.1
639.542	36.52
639.732	36.89
639.921	36.43
640.111	36.16
640.301	35.15
640.49	35.33
640.68	35.82
640.87	35.62
641.059	35.69
641.249	35.83
641.438	36.18
641.628	36
641.817	35.61
642.007	35.85
642.196	36.21
642.386	36.86
642.575	36.76
642.764	36.89
642.954	36.89
643.143	36.69
643.333	36.93
643.522	36.71
643.711	36.63
643.901	36.86
644.09	36.77
644.279	36.61
644.469	36.07
644.658	35.98
644.847	35.64
645.036	35.59
645.226	35.53
645.415	35.53
645.604	35.25
645.793	35.19
645.982	34.76
646.171	35.05
646.361	34.63
646.55	35.08
646.739	34.82
646.928	34.95
647.117	34.64
647.306	34.64
647.495	34.41
647.684	34.78
647.873	34.85
648.062	34.83
648.251	35.05
648.44	35.74
648.629	35.73
648.818	35.86
649.007	35.87
649.196	36.33
649.384	36.46
649.573	36.7
649.762	36.73
649.951	36.66
650.14	36.53
650.328	36.32
650.517	35.82
650.706	36.14
650.895	36.13
651.083	36.12
651.272	35.95
651.461	36.44
651.65	36.22
651.838	35.54
652.027	35.67
652.216	35.68
652.404	35.66
652.593	35.94
652.781	35.46
652.97	35.06
653.158	35.1
653.347	35.24
653.535	34.98
653.724	34.87
653.912	35.5
654.101	35.34
654.289	35.29
654.478	35.36
654.666	35.02
654.855	35.57
655.043	35.89
655.231	35.6
655.42	35.04
655.608	34.7
655.796	35.24
655.985	35.06
656.173	34.82
656.361	35.38
656.55	35.63
656.738	35.78
656.926	35.04
657.114	35.04
657.302	35.14
657.491	35.4
657.679	35.29
657.867	34.78
658.055	34.64
658.243	34.96
658.431	34.63
658.619	34.3
658.807	34.47
658.996	34.96
659.184	34.98
659.372	35.15
659.56	35.4
659.748	35.36
659.936	35.55
660.124	35.6
660.311	35.61
660.499	35.89
660.687	36.02
660.875	36.03
661.063	35.73
661.251	35.75
661.439	35.48
661.627	35.48
661.814	36.1
662.002	36.21
662.19	36.47
662.378	36.68
662.565	36.85
662.753	36.93
662.941	36.85
663.129	37.29
663.316	37.49
663.504	37.77
663.692	38.23
663.879	37.75
664.067	37.64
664.254	37.67
664.442	37.56
664.63	37.17
664.817	37.1
665.005	36.98
665.192	36.58
665.38	36.11
665.567	35.94
665.755	35.5
665.942	35.36
666.13	35.37
666.317	35
666.504	34.51
666.692	34.46
666.879	34.72
667.067	34.92
667.254	35.17
667.441	35.35
667.629	35.51
667.816	35.17
668.003	35.34
668.19	35.29
668.378	35.27
668.565	35.8
668.752	36.37
668.939	36.03
669.127	35.84
669.314	35.69
669.501	35.89
669.688	35.68
669.875	36.23
670.062	36.37
670.249	36.05
670.436	36.44
670.623	36.36
670.81	36.01
670.997	36.1
671.184	36.1
671.371	36.12
671.558	35.97
671.745	36.73
671.932	36.26
672.119	36.4
672.306	36.73
672.493	36.6
672.68	36.67
672.867	36.58
673.054	36.59
673.24	36.28
673.427	36.85
673.614	37.03
673.801	36.99
673.988	37.21
674.174	37.22
674.361	37.35
674.548	37.28
674.734	36.91
674.921	36.84
675.108	37.13
675.294	37.31
675.481	36.57
675.668	36.21
675.854	36.41
676.041	36.34
676.227	35.98
676.414	36.12
676.601	36.32
676.787	36.9
676.974	37.39
677.16	37.04
677.347	37.48
677.533	37.61
677.719	37.61
677.906	37.07
678.092	37.05
678.279	37.24
678.465	37.22
678.651	37.16
678.838	36.81
679.024	36.18
679.21	36.05
679.397	35.69
679.583	35.35
679.769	35.55
679.955	35.25
680.142	35.17
680.328	35.43
680.514	34.91
680.7	34.75
680.886	34.79
681.073	35.38
681.259	35.84
681.445	35.64
681.631	35.73
681.817	35.52
682.003	35.25
682.189	35.2
682.375	34.68
682.561	35.31
682.747	35.24
682.933	34.93
683.119	34.4
683.305	34.32
683.491	34.8
683.677	35.22
683.863	35.3
684.049	35.55
684.235	35.32
684.42	35.25
684.606	34.4
684.792	34.34
684.978	34.41
685.164	34.62
685.349	34.69
685.535	34.6
685.721	34.4
685.907	34.61
686.092	34.97
686.278	35.15
686.464	35.65
686.649	36.35
686.835	36.47
687.021	36.83
687.206	37.02
687.392	36.74
687.577	36.94
687.763	36.66
687.948	37.08
688.134	36.92
688.319	37.26
688.505	37.37
688.69	37.2
688.876	37.52
689.061	37.42
689.247	37.51
689.432	37.44
689.618	37.29
689.803	37.55
689.988	37.52
690.174	37.99
690.359	38.22
690.544	37.68
690.73	38.08
690.915	38.34
691.1	38.11
691.285	37.93
691.471	37.97
691.656	37.84
691.841	37.83
692.026	37.27
692.211	36.89
692.396	36.15
692.582	36.5
692.767	35.98
692.952	34.96
693.137	35.52
693.322	35.48
693.507	35.55
693.692	35.07
693.877	35.25
694.062	35.27
694.247	35.74
694.432	35.7
694.617	35.76
694.802	35.42
694.987	36.6
695.172	36.43
695.357	36.06
695.541	35.79
695.726	36
695.911	35.97
696.096	35.52
696.281	35.16
696.466	35.23
696.65	34.63
696.835	35.09
697.02	34.44
697.204	34.08
697.389	33.61
697.574	33.76
697.759	33.34
697.943	33.28
698.128	33.74
698.312	33.69
698.497	33.87
698.682	34.35
698.866	34.38
699.051	34.31
699.235	34.27
699.42	34.4
699.604	34.4
699.789	34.81
699.973	34.89
700.158	34.9
700.342	35.24
700.527	35.33
700.711	34.84
700.895	34.58
701.08	34.96
701.264	35.11
701.448	35.39
701.633	35.31
701.817	35.41
702.001	35.15
702.186	35.36
702.37	35.33
702.554	35.42
702.738	36.37
702.923	36.11
703.107	35.5
703.291	35.55
703.475	35.47
703.659	35.64
703.843	35.73
704.027	36.22
704.212	36.2
704.396	36.33
704.58	36.88
704.764	36.23
704.948	36.71
705.132	36.75
705.316	37.41
705.5	37.85
705.684	38.73
705.868	39.09
706.052	39.08
706.235	39.17
706.419	38.69
706.603	38.4
706.787	39.28
706.971	39.61
707.155	39.64
707.339	39.44
707.522	39.74
707.706	39.25
707.89	38.78
708.074	39.19
708.257	38.57
708.441	38.85
708.625	37.8
708.808	37.59
708.992	37.94
709.176	37.73
709.359	37.44
709.543	37.29
709.727	36.92
709.91	37.4
710.094	37.38
710.277	38.07
710.461	37.75
710.644	38.01
710.828	37.19
711.011	36.6
711.195	37.73
711.378	37.31
711.562	36.48
711.745	36.76
711.928	36.12
712.112	36.22
712.295	35.74
712.478	35.63
712.662	36.19
712.845	35.62
713.028	35.78
713.212	34.5
713.395	35.1
713.578	35.59
713.761	34.84
713.945	35.25
714.128	34.59
714.311	34.85
714.494	34.86
714.677	34.22
714.86	35.85
715.043	35.68
715.227	36.25
715.41	35.51
715.593	35.76
715.776	36.28
715.959	36.45
716.142	36.41
716.325	35.95
716.508	35.5
716.691	35.98
716.874	35.79
717.057	35.82
717.239	35.88
717.422	35.89
717.605	36.29
717.788	36.21
717.971	36.47
718.154	36.31
718.337	36.42
718.519	37.11
718.702	37.68
718.885	36.89
719.068	36.63
719.25	37.22
719.433	37.46
719.616	36.81
719.798	36.99
719.981	35.91
720.164	36.54
720.346	37.07
720.529	37.06
720.712	36.6
720.894	37.25
721.077	37.33
721.259	37.06
721.442	37.31
721.624	36.56
721.807	36.31
721.989	36.63
722.172	36.22
722.354	36.52
722.537	36.13
722.719	36.09
722.901	36.44
723.084	36.05
723.266	35.19
723.448	35.45
723.631	37.01
723.813	37.37
723.995	36.69
724.178	37.54
724.36	37.72
724.542	38.44
724.724	38.28
724.907	37.11
725.089	38.32
725.271	39.65
725.453	39.28
725.635	39.16
725.817	38.58
725.999	39.22
726.181	39.08
726.364	37.63
726.546	36.53
726.728	36.2
726.91	36.63
727.092	35.8
727.274	34.74
727.456	35.37
727.638	34.63
727.819	34.31
728.001	34.45
728.183	34.26
728.365	34.71
728.547	35.53
728.729	36.2
728.911	36.71
729.093	36.37
729.274	36.74
729.456	36.27
729.638	36.02
729.82	36.76
730.001	36.56
730.183	36.29
730.365	37.04
730.546	37.4
730.728	36.88
730.91	36.42
731.091	37.1
731.273	36.64
731.455	37.09
731.636	38.21
731.818	38.78
731.999	38.88
732.181	38.68
732.362	38.82
732.544	38.07
732.725	38.43
732.907	38.86
733.088	39.4
733.27	40.54
733.451	40.43
733.633	39.18
733.814	38.11
733.995	38.49
734.177	39.06
734.358	38.47
734.539	38.98
734.721	39.21
734.902	38.62
735.083	38.28
735.264	37.72
735.446	37.53
735.627	38.75
735.808	38.84
735.989	38.23
736.17	37.71
736.351	37.57
736.533	37.87
736.714	37.08
736.895	37.47
737.076	36.66
737.257	36.01
737.438	34.86
737.619	34.23
737.8	34.76
737.981	35.2
738.162	34.71
738.343	34.58
738.524	34.3
738.705	33.82
738.886	33.72
739.067	34.01
739.247	34.4
739.428	35.1
739.609	35.2
739.79	34.62
739.971	34.57
740.151	35.84
740.332	36.25
740.513	35.85
740.694	36.92
740.874	36.17
741.055	36.17
741.236	37.57
741.417	38.81
741.597	38.54
741.778	40.51
741.958	40.31
742.139	39.41
742.32	39.4
742.5	40.19
742.681	40.73
742.861	41.24
743.042	41.12
743.222	38.65
743.403	36.92
743.583	37.71
743.764	36.35
743.944	35.38
744.124	36.49
744.305	36.37
744.485	35.61
744.666	36.26
744.846	36.79
745.026	37.97
745.207	39.73
745.387	40.77
745.567	40.76
745.747	40.03
745.928	40.17
746.108	40.91
746.288	40.97
746.468	41.58
746.648	40.5
746.829	40.73
747.009	39.68
747.189	38.92
747.369	39.58
747.549	39.37
747.729	39.83
747.909	40.88
748.089	38.56
748.269	38.84
748.449	38.76
748.629	38.74
748.809	37.86
748.989	36.73
749.169	37.54
749.349	37.84
749.529	38.07
749.709	38.53
749.889	38.23
750.068	38.01
750.248	38.21
750.428	38.04
750.608	38.23
750.788	38.9
750.967	40.08
751.147	39.38
751.327	38.21
751.507	37.45
751.686	36.74
751.866	37.05
752.046	37.54
752.225	37.55
752.405	37.46
752.585	36.67
752.764	34.55
752.944	33.71
753.123	33.75
753.303	33.25
753.482	34.58
753.662	36.23
753.841	37.16
754.021	37.7
754.2	38
754.38	38
754.559	39.1
754.739	40.14
754.918	40.31
755.097	39
755.277	40.27
755.456	39.4
755.635	36.84
755.815	35.94
755.994	34.52
756.173	33.62
756.352	32.98
756.532	33.13
756.711	34.87
756.89	35.83
757.069	36.7
757.248	36.33
757.427	36.03
757.607	37.37
757.786	37.07
757.965	37.32
758.144	36.79
758.323	37.89
758.502	37.16
758.681	36.6
758.86	36.17
759.039	36.36
759.218	35.31
759.397	34.9
759.576	33.29
759.755	33.1
759.934	33.78
760.113	33.57
760.291	32.51
760.47	33.14
760.649	33.33
760.828	33.58
761.007	33.31
761.186	35.2
761.364	35.25
761.543	36.02
761.722	35.18
761.901	35.63
762.079	36.84
762.258	36.53
762.437	35.25
762.615	35.53
762.794	35.91
762.972	36.24
763.151	35.35
763.33	36.11
763.508	36.15
763.687	36.79
763.865	37.21
764.044	36.35
764.222	36.71
764.401	37.53
764.579	36.9
764.758	36.22
764.936	36.11
765.114	36.3
765.293	35.61
765.471	36.72
765.65	36.82
765.828	35.57
766.006	36.35
766.184	37.72
766.363	36.89
766.541	36.69
766.719	36.28
766.898	37.03
767.076	36.7
767.254	37.6
767.432	37.22
767.61	37.33
767.788	37.96
767.967	37.22
768.145	34.93
768.323	34.84
768.501	35.77
768.679	36.35
768.857	36.88
769.035	38.35
769.213	38.54
769.391	37.74
769.569	38.77
769.747	39.49
769.925	40.48
770.103	39.62
770.281	41.42
770.459	40.77
770.636	40.29
770.814	38.66
770.992	38.64
771.17	38.48
771.348	39.22
771.525	37.62
771.703	37.68
771.881	37.77
772.059	41.24
772.236	40.73
772.414	41.45
772.592	41.72
772.769	42.46
772.947	41.79
773.125	40.21
773.302	40.84
773.48	42.59
773.657	41.95
773.835	42.24
774.013	40.27
774.19	41.33
774.368	40.69
774.545	42.39
774.723	43.68
774.9	44.13
775.077	43.79
775.255	43.31
775.432	43.38
775.61	43.26
775.787	42.84
775.964	45.53
776.142	43.31
776.319	44.42
776.496	43.85
776.674	42.23
776.851	40.65
777.028	42.69
777.205	44.16
777.382	43.42
777.56	43.57
777.737	43.89
777.914	42.84
778.091	44.22
778.268	43.03
778.445	42.8
778.622	42.49
778.8	41.72
778.977	41.57
779.154	40.34
779.331	38.7
779.508	39.73
779.685	38.44
779.862	39.05
780.038	38.32
780.215	38.53
780.392	38.66
780.569	39.64
780.746	40.48
780.923	39.64
781.1	39.58
781.277	41.41
781.453	40.07
781.63	40.87
781.807	39.44
781.984	40.27
782.16	41.27
782.337	40.9
782.514	42.05
782.691	42.67
782.867	44.93
783.044	45.93
783.221	46.58
783.397	51.5
783.574	51.22
783.75	50.54
783.927	49.24
784.103	50.93
784.28	48.92
784.456	47.79
784.633	49.31
784.809	47.06
784.986	44.69
785.162	43.28
785.339	39.35
785.515	39.92
785.692	40.56
785.868	39.9
786.044	37.1
786.221	41.41
786.397	41.21
786.573	39.72
786.749	40.06
786.926	39.8
787.102	40.27
787.278	38.83
787.454	40.33
787.631	40.66
787.807	41.07
787.983	39.32
788.159	37.9
788.335	35.43
788.511	35.39
788.687	36.91
788.863	38.35
789.039	37.74
789.216	37.25
789.392	35.13
789.568	35.12
789.744	35.77
789.919	37.73
790.095	36.34
790.271	40.55
790.447	39.68
790.623	37.57
790.799	36.82
790.975	36.23
791.151	37.56
791.327	37.61
791.502	38.52
791.678	39.72
791.854	40.99
792.03	43.97
792.205	41.02
792.381	41.19
792.557	43.66
792.733	43.15
792.908	44.42
793.084	42.33
793.259	42.45
793.435	42.09
793.611	40.27
793.786	37.27
793.962	36.16
794.137	36.51
794.313	35.51
794.488	34.42
794.664	33.51
794.839	34.63
795.015	36.64
795.19	37.8
795.366	38.13
795.541	40.44
795.716	40.7
795.892	39.94
796.067	39.86
796.242	42.83
796.418	40.98
796.593	42.6
796.768	44.03
796.944	43.68
797.119	42.27
797.294	41.46
797.469	42.34
797.644	43.19
797.82	43.79
797.995	42.04
798.17	38.95
798.345	39.44
798.52	38.52
798.695	34.98
798.87	36.86
799.045	35.54
799.22	34.93
799.395	31.58
799.57	29.5
799.745	29.7
799.92	32.03
800.095	34.57
800.27	34.88
800.445	35.33
800.62	35.76
800.795	35.07
800.97	37.39
801.145	38.91
801.319	42.04
801.494	47.32
801.669	48.41
801.844	48.08
802.018	48.73
802.193	52.65
802.368	53.64
802.543	55.19
802.717	56.21
802.892	53.92
803.067	51.62
803.241	49.24
803.416	46.92
803.59	44.78
803.765	44.01
803.94	38.9
804.114	37.44
804.289	41.96
804.463	43.75
804.638	41.87
804.812	44.42
804.986	45.26
805.161	48.19
805.335	46.92
805.51	49.31
805.684	49.42
805.858	50.11
806.033	46.8
806.207	41.1
806.381	37.94
806.556	36.56
806.73	37.29
806.904	37.4
807.078	33.49
807.253	33.75
807.427	31.99
807.601	32.79
807.775	32.2
807.949	35.36
808.123	37.41
808.298	42.69
808.472	44.63
808.646	46.16
808.82	45
808.994	47.24
809.168	46.47
809.342	48.9
809.516	51.58
809.69	53.25
809.864	54
810.038	54.83
810.212	47.21
810.385	45.91
810.559	43.23
810.733	44.12
810.907	43.99
811.081	42.58
811.255	41.88
811.428	39.77
811.602	39.86
811.776	39.53
811.95	37.98
812.123	40.51
812.297	42.77
812.471	43.24
812.644	45.8
812.818	47.6
812.992	48.41
813.165	49.7
813.339	49.08
813.512	45.83
813.686	44.63
813.86	45.17
814.033	45.95
814.207	48.43
814.38	48.68
814.554	48.38
814.727	48.76
814.9	50.12
815.074	45.64
815.247	46.34
815.421	49.63
815.594	48.18
815.767	50.91
815.941	49.81
816.114	48.66
816.287	48
816.46	45.62
816.634	40.58
816.807	41.4
816.98	45.96
817.153	42.21
817.327	37
817.5	43.3
817.673	44.91
817.846	42.06
818.019	38.18
818.192	38.66
818.365	39.53
818.538	42.53
818.711	42.98
818.884	39.64
819.057	39.11
819.23	42.62
819.403	39.89
819.576	37.14
819.749	40.5
819.922	42.26
820.095	43.12
820.268	43.4
820.441	42.27
820.614	40.69
820.786	40.88
820.959	40.43
821.132	39.87
821.305	38.13
821.477	38.3
821.65	37.03
821.823	35.77
821.996	34.2
822.168	32.83
822.341	33.26
822.514	33.27
822.686	32.96
822.859	33.29
823.031	33.3
823.204	33.62
823.376	32.46
823.549	32
823.722	32.29
823.894	33.19
824.067	33.36
824.239	32.12
824.411	31.59
824.584	31.99
824.756	31.88
824.929	31.35
825.101	31.2
825.273	31.74
825.446	32.19
825.618	32.26
825.79	30.96
825.963	31.88
826.135	32.04
826.307	33.25
826.479	31.49
826.652	30.65
826.824	30.75
826.996	30.58
827.168	30.77
827.34	31.64
827.512	31.86
827.684	33.44
827.856	32.06
828.029	32.67
828.201	31.86
828.373	31.61
828.545	32.71
828.717	32.43
828.889	32.53
829.061	32.29
829.232	30.47
829.404	29.43
829.576	28.78
829.748	28.88
829.92	30.94
830.092	31.04
830.264	32.37
830.436	33.66
830.607	36.26
830.779	34.82
830.951	38.52
831.123	42.21
831.294	42.69
831.466	42.24
831.638	45.39
831.809	40.64
831.981	41.28
832.153	43.38
832.324	43.02
832.496	43.9
832.667	47.78
832.839	47.46
833.011	49.23
833.182	48.13
833.354	45.47
833.525	43.83
833.697	45.56
833.868	41.9
834.039	42.42
834.211	42.63
834.382	39.55
834.554	39.74
834.725	38.74
834.896	35.03
835.068	36.34
835.239	35.03
835.41	36.62
835.581	34.58
835.753	35.67
835.924	33.89
836.095	30.48
836.266	31.31
836.438	29.06
836.609	26.01
836.78	27.41
836.951	27.97
837.122	29.66
837.293	28.36
837.464	30
837.635	31.49
837.806	34.09
837.977	38.33
838.148	44.31
838.319	46.94
838.49	50.52
838.661	55.32
838.832	51.21
839.003	56.65
839.174	63.79
839.345	66.62
839.516	73.8
839.687	78.4
839.857	74.15
840.028	63.95
840.199	62.15
840.37	62.01
840.54	55.87
840.711	55.12
840.882	47.24
841.053	37.14
841.223	40.17
841.394	37.17
841.564	33.81
841.735	33.9
841.906	35.82
842.076	34.31
842.247	33.91
842.417	40.46
842.588	41.85
842.758	44.92
842.929	46.44
843.099	45.15
843.27	39.76
843.44	40.88
843.611	40.6
843.781	41.28
843.951	44.33
844.122	46.9
844.292	46.22
844.462	48.35
844.633	53.29
844.803	54
844.973	52.33
845.144	55.19
845.314	50.64
845.484	60.27
845.654	65.98
845.824	67.61
845.995	70.97
846.165	63.25
846.335	76.23
846.505	91.21
846.675	99.63
846.845	102.67
847.015	121.27
847.185	120
847.355	104.55
847.525	98.53
847.695	99.51
847.865	102.43
848.035	106.16
848.205	90.04
848.375	91.57
848.545	75.41
848.715	64.84
848.884	72.56
849.054	77.19
849.224	81.55
849.394	98.19
849.564	74.85
849.733	74.25
849.903	55.09
850.073	79.11
850.243	79
850.412	109.09
850.582	142.69
850.752	124.8
850.921	147.52
851.091	143.72
851.26	105.88
851.43	113.5
851.599	101.52
851.769	123.1
851.939	107.74
852.108	104.11
852.278	106.36
852.447	81.5
852.616	88.33
852.786	78.48
852.955	78.48
853.125	79.94
853.294	90.71
853.463	89.61
853.633	93.5
853.802	106.96
853.971	109.33
854.141	93.96
854.31	87.66
854.479	87.77
854.648	86.11
854.818	78.24
854.987	91.3
855.156	86.65
855.325	85.31
855.494	86.56
855.663	79.84
855.832	73.41
856.001	85.67
856.171	94.56
856.34	93.01
856.509	108.81
856.678	110.44
856.847	100.33
857.016	100.36
857.185	100.52
857.353	88.69
857.522	80.29
857.691	83.44
857.86	69.21
858.029	61.57
858.198	49.25
858.367	46.81
858.535	42.08
858.704	51.09
858.873	66.21
859.042	57.3
859.21	80.44
859.379	96.17
859.548	108.97
859.717	107.41
859.885	112.47
860.054	111.13
860.222	102.97
860.391	97.47
860.56	97.88
860.728	79.93
860.897	96.3
861.065	80.82
861.234	89.56
861.402	65.99
861.571	58.14
861.739	70.49
861.908	72.56
862.076	64.03
862.244	68.01
862.413	63.57
862.581	65.99
862.749	64.41
862.918	64.82
863.086	52.89
863.254	63.9
863.423	70.73
863.591	67.69
863.759	72.76
863.927	75.05
864.096	76.72
864.264	71.37
864.432	67.57
864.6	74.17
864.768	73.36
864.936	76.72
865.104	96.63
865.272	99.77
865.44	107.1
865.608	110.87
865.776	128.68
865.944	146.37
866.112	145.38
866.28	168.55
866.448	164.37
866.616	175.02
866.784	203.24
866.952	145.41
867.12	138.44
867.288	118.43
867.455	125.13
867.623	120.81
867.791	91.72
867.959	109.16
868.127	87.3
868.294	83.94
868.462	81.09
868.63	75.31
868.797	75.33
868.965	81.58
869.133	86.18
869.3	79.74
869.468	80.54
869.636	90.52
869.803	88.68
869.971	96.54
870.138	116.29
870.306	124.37
870.473	115.4
870.641	113.93
870.808	118.43
870.975	102.03
871.143	112.3
871.31	100.66
871.478	77.6
871.645	77.5
871.812	78.02
871.98	73.14
872.147	69.84
872.314	66.77
872.482	75.55
872.649	49.42
872.816	54.66
872.983	41.88
873.15	43.67
873.318	59.45
873.485	52.71
873.652	52.23
873.819	53.51
873.986	53.91
874.153	62.54
874.32	73.14
874.487	100.26
874.654	96.74
874.821	100.88
874.988	109.41
875.155	93.78
875.322	85.61
875.489	98.85
875.656	77.22
875.823	82.3
875.99	79.46
876.157	58.05
876.324	40.23
876.49	39.5
876.657	36.23
876.824	18.64
876.991	19.48
877.157	28.78
877.324	23.17
877.491	51.62
877.658	43.15
877.824	38.61
877.991	46.02
878.157	61.7
878.324	69.27
878.491	74.36
878.657	92.37
878.824	114.81
878.99	111.74
879.157	115.82
879.323	103.95
879.49	105.9
879.656	112.45
879.823	104.28
879.989	95.18
880.156	106.14
880.322	103.2
880.488	94.97
880.655	92.53
880.821	93.36
880.987	83.06
881.154	77.06
881.32	68.01
881.486	60.12
881.652	50.42
881.819	49.99
881.985	42.61
882.151	40.9
882.317	43.3
882.483	44.27
882.649	43.26
882.816	40.2
882.982	40.14
883.148	42.07
883.314	42.15
883.48	42.65
883.646	42.85
883.812	45.14
883.978	46.01
884.144	47.72
884.31	46.51
884.476	45.15
884.642	47.17
884.807	47.05
884.973	45.99
885.139	45.1
885.305	46.83
885.471	43.39
885.637	40.09
885.802	39.15
885.968	32.74
886.134	34.53
886.3	37.54
886.465	40.34
886.631	45.2
886.797	48.93
886.962	52.8
887.128	52.56
887.293	61.44
887.459	66.05
887.625	63.39
887.79	67.37
887.956	60.67
888.121	60.79
888.287	57.49
888.452	48.51
888.618	47.42
888.783	47.74
