Data from 2938043_Reflection_2.txt Node
Date: Sun Jul 12 14:32:50 EDT 2015
User: robert
Spectrometer: USB4E03001
Autoset integration time: false
Trigger mode: 4
Integration Time (sec): 1.000000E-1
Scans to average: 10
Electric dark correction enabled: true
Nonlinearity correction enabled: false
Boxcar width: 5
Stray light correction enabled: false
XAxis mode: Wavelengths
Stop averaging: false
Number of Pixels in Spectrum: 3648
>>>>>Begin Spectral Data<<<<<
177.566	80.95
177.785	70.32
178.005	-6031.25
178.225	-8.11
178.445	109.74
178.665	59.42
178.885	12.02
179.105	123.23
179.324	184.41
179.544	-227.53
179.764	880.06
179.984	-295.04
180.204	-80.09
180.423	-30.29
180.643	-44.16
180.863	-13.56
181.083	-17.18
181.302	10.06
181.522	13.29
181.742	19.8
181.961	-18.19
182.181	-4.11
182.401	18.05
182.621	34.96
182.84	13.74
183.06	28.72
183.279	-31.57
183.499	-6.69
183.719	-26.29
183.938	-28.91
184.158	-16.56
184.377	-0.04
184.597	14.17
184.816	5.85
185.036	-42.72
185.256	-27.84
185.475	-42.73
185.695	-26.84
185.914	-89.5
186.134	-51.04
186.353	-44.06
186.572	-37.24
186.792	-17.92
187.011	-58.56
187.231	-38.3
187.45	-4.72
187.67	-45.22
187.889	-31.35
188.108	-37.26
188.328	-32.8
188.547	-23.55
188.766	-33.43
188.986	-112.34
189.205	-103.98
189.424	-249.79
189.644	-292.71
189.863	-217.91
190.082	-115.88
190.302	-114.56
190.521	-173.93
190.74	-147.84
190.959	-119.4
191.178	-160.86
191.398	-74.76
191.617	-291.33
191.836	7.13
192.055	3.34
192.274	-58.57
192.494	-29.65
192.713	-412
192.932	658.74
193.151	-35.19
193.37	40488.89
193.589	-99.25
193.808	-153.68
194.027	-120.68
194.246	-188.24
194.465	-251.37
194.685	-156.78
194.904	-337.98
195.123	-204.62
195.342	-331.96
195.561	1984.41
195.78	289.2
195.999	231.59
196.218	187.28
196.436	4.2
196.655	123.09
196.874	53.87
197.093	-29.01
197.312	5.13
197.531	-24.38
197.75	-8.06
197.969	21.39
198.188	21.23
198.407	35.28
198.625	46.44
198.844	34.45
199.063	30.08
199.282	38.48
199.501	54.02
199.719	51.6
199.938	53.58
200.157	37.04
200.376	30.16
200.594	22.69
200.813	9.52
201.032	-6.49
201.251	-4.56
201.469	-2.99
201.688	-10.51
201.907	-13.47
202.125	-31.53
202.344	-35.63
202.563	-3.01
202.781	2.03
203	36.97
203.218	37.53
203.437	23.27
203.656	24.31
203.874	30.12
204.093	25.41
204.311	-4.8
204.53	9.97
204.748	-2.72
204.967	-79.9
205.185	-63.46
205.404	-425.55
205.622	393.18
205.841	399.65
206.059	1841.29
206.278	964.67
206.496	669.7
206.715	-2186.55
206.933	-407.74
207.151	-2973.11
207.37	-109.35
207.588	-287.78
207.806	-148.73
208.025	-134.07
208.243	-114.77
208.461	-185.4
208.68	-131.54
208.898	-103.58
209.116	-91.56
209.335	-89
209.553	-87.17
209.771	-124.93
209.989	-62.83
210.208	-81.46
210.426	-91.43
210.644	-176.03
210.862	-291.13
211.081	-654.84
211.299	-660.84
211.517	-2508.1
211.735	-2802.74
211.953	-3886.06
212.171	-4756.89
212.39	451.06
212.608	420.79
212.826	1530.67
213.044	-379.37
213.262	-132.13
213.48	-117.96
213.698	-140.36
213.916	-74.44
214.134	-104.98
214.352	-18.45
214.57	-15.2
214.788	8.2
215.006	5.15
215.224	27.42
215.442	-9.4
215.66	5.47
215.878	-24.71
216.096	-40.98
216.314	-65.79
216.532	-66.14
216.75	-38.89
216.968	-34.8
217.185	-49.86
217.403	-26.07
217.621	-61.15
217.839	-36.08
218.057	-95.89
218.275	-27.55
218.492	-28.83
218.71	-13.24
218.928	11.51
219.146	1.63
219.363	9.16
219.581	16.7
219.799	13.01
220.017	12.92
220.234	12.53
220.452	1.04
220.67	-5.57
220.887	-10.03
221.105	-3.1
221.323	-24.02
221.54	-55.25
221.758	-51.29
221.976	-56.13
222.193	-85.04
222.411	-125.79
222.629	-192.62
222.846	-178.22
223.064	-194.25
223.281	-72.65
223.499	-59.11
223.716	-71.93
223.934	-55.91
224.151	-78.42
224.369	-93.22
224.586	-44.56
224.804	-39.26
225.021	-35.12
225.239	-15.48
225.456	-5.9
225.674	-13.89
225.891	-26.85
226.108	-15.29
226.326	-23.23
226.543	-21.13
226.76	-14.6
226.978	-23.81
227.195	-9.87
227.413	0.18
227.63	7.83
227.847	9.36
228.064	1.89
228.282	3.66
228.499	1.72
228.716	-0.46
228.934	2.44
229.151	2.5
229.368	2.84
229.585	3.61
229.802	2.57
230.02	-0.48
230.237	0.21
230.454	3.42
230.671	6.8
230.888	7.12
231.105	12.94
231.323	12.21
231.54	13.19
231.757	11.85
231.974	10.93
232.191	14.57
232.408	14.63
232.625	10.88
232.842	11.31
233.059	7.42
233.276	6.18
233.493	3.56
233.71	7.72
233.927	12.73
234.144	17.65
234.361	19.04
234.578	8.49
234.795	9.6
235.012	10.4
235.229	9.31
235.446	2.88
235.663	5.25
235.879	7.12
236.096	4.16
236.313	-1.69
236.53	-5.35
236.747	-1.94
236.964	5.47
237.181	6.57
237.397	3.68
237.614	8.05
237.831	9.65
238.048	9.63
238.264	1.75
238.481	-0.75
238.698	1.41
238.915	8.06
239.131	4.61
239.348	0.32
239.565	-2.97
239.781	3.74
239.998	6.25
240.215	9.73
240.431	9.6
240.648	15.02
240.865	15.2
241.081	15.73
241.298	9.24
241.514	9.96
241.731	12
241.947	12.13
242.164	11.72
242.38	10.17
242.597	10.04
242.814	10.37
243.03	8.7
243.246	8.05
243.463	5.74
243.679	8.35
243.896	6
244.112	6.69
244.329	4.69
244.545	5.18
244.762	3.1
244.978	1.97
245.194	0.06
245.411	2.71
245.627	4.03
245.843	6.52
246.06	3.66
246.276	5.47
246.492	5.82
246.709	7.6
246.925	7.56
247.141	8.76
247.357	8.78
247.574	8.76
247.79	8.21
248.006	7.91
248.222	7.33
248.439	8.48
248.655	8.84
248.871	9.66
249.087	8.88
249.303	6.97
249.519	5.1
249.736	5.77
249.952	4.99
250.168	6.46
250.384	6.29
250.6	6.11
250.816	3.15
251.032	2.34
251.248	-0.91
251.464	0.16
251.68	2.78
251.896	4.93
252.112	3.67
252.328	5.03
252.544	3.8
252.76	3.05
252.976	2.02
253.192	4.14
253.408	4.12
253.624	2.27
253.84	0.61
254.056	0.69
254.272	-2.28
254.487	-2.99
254.703	-4.87
254.919	-6.06
255.135	-2.62
255.351	-5.85
255.567	-6.4
255.782	-5.54
255.998	-3.49
256.214	-1.69
256.43	-5.48
256.646	-2.57
256.861	-0.06
257.077	-0.07
257.293	1.96
257.508	-0.18
257.724	2.8
257.94	5.42
258.155	4.12
258.371	4.73
258.587	5.71
258.802	8.32
259.018	8
259.234	7.98
259.449	8.35
259.665	8.16
259.88	9
260.096	10.51
260.312	9.62
260.527	9.71
260.743	10.09
260.958	9.61
261.174	7.87
261.389	8.16
261.605	8.04
261.82	7.9
262.036	7.47
262.251	6.25
262.466	6.31
262.682	5.86
262.897	6.23
263.113	5.21
263.328	4.88
263.543	6.6
263.759	6.53
263.974	5.77
264.189	6.68
264.405	7.85
264.62	8.97
264.835	6.42
265.051	9.54
265.266	10.11
265.481	12.46
265.696	13.13
265.912	12.02
266.127	12.25
266.342	11.36
266.557	10.03
266.773	9.37
266.988	9.1
267.203	7.64
267.418	6.89
267.633	5.42
267.848	3.79
268.064	3.04
268.279	3.66
268.494	2.63
268.709	2.55
268.924	3.82
269.139	3.43
269.354	4.4
269.569	5
269.784	4.94
269.999	4.14
270.214	4.54
270.429	6.3
270.644	5.6
270.859	6.28
271.074	6.2
271.289	6.74
271.504	7.19
271.719	5.58
271.934	5.84
272.149	5.61
272.363	6.66
272.578	7.26
272.793	7.24
273.008	8.65
273.223	9.13
273.438	9.07
273.653	7.87
273.867	6.93
274.082	7.97
274.297	7.62
274.512	6.53
274.726	6.49
274.941	6.77
275.156	7.6
275.371	6.19
275.585	5.6
275.8	5.38
276.015	5.39
276.229	6.89
276.444	5.45
276.659	5.46
276.873	5.27
277.088	4.88
277.302	4.25
277.517	0.76
277.732	0.29
277.946	-1.12
278.161	0.37
278.375	0.24
278.59	-1.05
278.804	1.13
279.019	2.9
279.233	3.33
279.448	3.99
279.662	4.59
279.877	6.35
280.091	7.22
280.306	7.22
280.52	5.72
280.735	6.91
280.949	7.27
281.163	5.78
281.378	3.85
281.592	3.72
281.806	3.61
282.021	3.15
282.235	2.57
282.449	3.13
282.664	3.45
282.878	4.33
283.092	3.97
283.307	3.02
283.521	4.68
283.735	4.9
283.949	6.21
284.164	7.5
284.378	8.54
284.592	9.91
284.806	8.98
285.02	8.3
285.234	8.89
285.449	7.61
285.663	7.37
285.877	6.68
286.091	8.15
286.305	7.32
286.519	6.35
286.733	3.69
286.947	2.47
287.161	1.8
287.375	1.87
287.589	1.17
287.803	1.79
288.017	3.26
288.231	2.58
288.445	2.51
288.659	2.47
288.873	2.4
289.087	5.55
289.301	5.61
289.515	5.71
289.729	6.27
289.943	7.6
290.157	8.23
290.371	9.38
290.584	9.58
290.798	9.42
291.012	9.71
291.226	10.42
291.44	10.24
291.654	9.84
291.867	9.78
292.081	9.64
292.295	7.81
292.509	9.12
292.722	7.51
292.936	8.3
293.15	6.38
293.364	6.77
293.577	6.67
293.791	6.01
294.005	8.91
294.218	8.55
294.432	8.02
294.645	8.61
294.859	7.68
295.073	7.69
295.286	8.42
295.5	9.2
295.713	9.67
295.927	9.36
296.14	8.81
296.354	6.88
296.568	8.86
296.781	10.34
296.994	10.04
297.208	9.49
297.421	9.31
297.635	8.68
297.848	8.5
298.062	7.43
298.275	7.84
298.489	8.76
298.702	8.52
298.915	6.57
299.129	5.1
299.342	6.27
299.555	6.72
299.769	5.93
299.982	5.7
300.195	5.59
300.409	6.09
300.622	4.73
300.835	4.54
301.048	5.96
301.262	6.32
301.475	6.01
301.688	4.15
301.901	4.77
302.115	5.71
302.328	4.13
302.541	3.78
302.754	2.92
302.967	4.39
303.18	3.78
303.393	3.63
303.607	4.08
303.82	3.85
304.033	5.12
304.246	4.6
304.459	4.32
304.672	5.38
304.885	7.05
305.098	7.44
305.311	8.02
305.524	7.43
305.737	4.52
305.95	3.79
306.163	4.63
306.376	4.57
306.589	3.8
306.802	3.48
307.015	3.3
307.228	3.01
307.44	3.68
307.653	2.86
307.866	4.92
308.079	7.02
308.292	8.23
308.505	8.06
308.718	7.55
308.93	8.57
309.143	8.8
309.356	8.85
309.569	8.94
309.781	8.85
309.994	8.48
310.207	7.24
310.42	7.54
310.632	7.96
310.845	9.55
311.058	9.66
311.27	9.91
311.483	10.29
311.696	11.78
311.908	12.08
312.121	12.79
312.333	13.36
312.546	12.3
312.759	11.96
312.971	11.42
313.184	10.37
313.396	10.41
313.609	10.04
313.821	9.98
314.034	8.68
314.246	7.82
314.459	8.02
314.671	7.37
314.884	8.82
315.096	8.55
315.309	10.11
315.521	8.23
315.733	9.01
315.946	7.36
316.158	7.68
316.371	7.31
316.583	7.07
316.795	6.74
317.008	6.75
317.22	5.2
317.432	6.38
317.644	5.06
317.857	7.27
318.069	6.28
318.281	6.12
318.494	5.86
318.706	5.92
318.918	7.19
319.13	6.14
319.342	5.62
319.555	7.62
319.767	7.52
319.979	7.79
320.191	8.07
320.403	8.47
320.615	10.27
320.827	9.97
321.039	10.09
321.252	8.88
321.464	7.94
321.676	8.53
321.888	6.59
322.1	5.79
322.312	5.2
322.524	4.12
322.736	3.49
322.948	3.05
323.16	3.88
323.372	5.11
323.584	4.2
323.796	5.56
324.007	5.9
324.219	6.36
324.431	6.94
324.643	6.33
324.855	6.12
325.067	6.7
325.279	7.12
325.491	6.54
325.702	5.47
325.914	7.25
326.126	6.39
326.338	5.9
326.55	5.96
326.761	5.36
326.973	6.64
327.185	6.51
327.396	7.26
327.608	7.25
327.82	7.37
328.032	7.46
328.243	6.13
328.455	6.82
328.666	7.62
328.878	9.48
329.09	9.51
329.301	10.28
329.513	11.84
329.725	11.73
329.936	10.84
330.148	9.77
330.359	9.04
330.571	8.94
330.782	8.39
330.994	8.73
331.205	8.71
331.417	10.1
331.628	8.85
331.84	8.74
332.051	8.54
332.262	9.71
332.474	10.51
332.685	11.81
332.897	12.05
333.108	13.57
333.319	11.66
333.531	10.17
333.742	9.83
333.953	9.82
334.165	9.48
334.376	8.46
334.587	8.42
334.799	8.94
335.01	8.11
335.221	7.84
335.432	7.5
335.644	7.04
335.855	7.88
336.066	7.69
336.277	7.32
336.488	7.6
336.7	8.24
336.911	8.36
337.122	8.28
337.333	9.63
337.544	10.24
337.755	9.98
337.966	11.99
338.177	11.79
338.388	12.02
338.599	12.85
338.811	12.39
339.022	12.06
339.233	11.69
339.444	10.89
339.655	8.86
339.866	7.93
340.076	6.98
340.287	6.46
340.498	6.1
340.709	6.02
340.92	6.45
341.131	6.36
341.342	6.15
341.553	5.15
341.764	5.5
341.975	6.15
342.185	6.77
342.396	7.41
342.607	7.42
342.818	8.4
343.029	8.58
343.239	7.65
343.45	8.01
343.661	8.05
343.872	8.95
344.082	9.76
344.293	9.4
344.504	10.24
344.714	9.44
344.925	9.67
345.136	9.58
345.346	9.6
345.557	9.22
345.768	9.04
345.978	8.54
346.189	8.2
346.399	7.9
346.61	8.33
346.821	7.78
347.031	8.69
347.242	8.88
347.452	9.44
347.663	9.67
347.873	11.31
348.084	10.97
348.294	12.11
348.504	11.99
348.715	11.32
348.925	11.13
349.136	10.79
349.346	9.03
349.557	8.2
349.767	7.05
349.977	6.36
350.188	5.63
350.398	6.36
350.608	5.29
350.819	5.9
351.029	5.51
351.239	6.87
351.449	7.47
351.66	8.33
351.87	8.85
352.08	8.42
352.29	8.35
352.501	7.97
352.711	8.96
352.921	9.42
353.131	8.58
353.341	9.86
353.552	10.24
353.762	9.4
353.972	10.59
354.182	9.66
354.392	9
354.602	8.86
354.812	8.79
355.022	8.27
355.232	8.33
355.442	9.18
355.652	8.8
355.862	7.4
356.072	7.08
356.282	6.38
356.492	7.06
356.702	8.09
356.912	7.5
357.122	7.82
357.332	7.02
357.542	8.05
357.752	8.35
357.962	7.83
358.171	7.84
358.381	8.8
358.591	9.85
358.801	10.14
359.011	10.22
359.221	11.04
359.43	10.76
359.64	10.55
359.85	9.75
360.06	9.06
360.269	9.29
360.479	9.12
360.689	9.11
360.899	8.77
361.108	8.62
361.318	8.68
361.528	8.82
361.737	8.58
361.947	8.38
362.156	8.51
362.366	8.71
362.576	8.39
362.785	8.31
362.995	7.75
363.204	7.02
363.414	7.1
363.623	6.51
363.833	5.78
364.042	5.89
364.252	6.38
364.461	6.39
364.671	5.89
364.88	6.27
365.09	6.6
365.299	7.09
365.509	7.76
365.718	8.18
365.927	9.2
366.137	10.13
366.346	10.09
366.555	9.86
366.765	9.49
366.974	10.07
367.183	9.94
367.393	10.06
367.602	9.89
367.811	9.81
368.021	8.45
368.23	7.12
368.439	7.08
368.648	6.84
368.857	6.78
369.067	6.69
369.276	6.3
369.485	5.85
369.694	5.73
369.903	5.73
370.112	5.71
370.321	6.11
370.531	6.71
370.74	6.16
370.949	6.4
371.158	7.08
371.367	7.93
371.576	7.91
371.785	7.97
371.994	8.39
372.203	8.49
372.412	7.72
372.621	7.58
372.83	7.71
373.039	7.86
373.248	7.92
373.457	6.98
373.666	6.5
373.874	6.15
374.083	6.15
374.292	5.75
374.501	5.42
374.71	6.56
374.919	7.05
375.128	6.23
375.336	5.74
375.545	6.01
375.754	5.99
375.963	5.29
376.171	6.23
376.38	6.63
376.589	6.08
376.798	6.59
377.006	5.7
377.215	5.68
377.424	6.51
377.632	6.41
377.841	6.26
378.05	6.88
378.258	7.41
378.467	6.63
378.675	6.42
378.884	6.95
379.093	6.69
379.301	7.05
379.51	7.04
379.718	6.72
379.927	7.03
380.135	6.8
380.344	6.55
380.552	6.15
380.761	6.65
380.969	6.67
381.177	6.18
381.386	6.18
381.594	6.24
381.803	5.92
382.011	5.74
382.219	5.84
382.428	5.42
382.636	5.36
382.845	5.6
383.053	5.66
383.261	5.77
383.469	5.74
383.678	5.63
383.886	5.51
384.094	5.48
384.302	5.35
384.511	5.05
384.719	5.6
384.927	5.61
385.135	5.52
385.343	5.41
385.552	5.51
385.76	5.88
385.968	6.14
386.176	6.1
386.384	6.1
386.592	6.29
386.8	6.37
387.008	6.31
387.216	5.83
387.424	5.89
387.633	5.51
387.841	5.39
388.049	4.94
388.257	4.79
388.465	5.21
388.672	5.15
388.88	5.27
389.088	5.46
389.296	5.07
389.504	5.73
389.712	5.95
389.92	6.02
390.128	6.15
390.336	6.1
390.544	5.52
390.751	4.99
390.959	4.82
391.167	4.83
391.375	4.73
391.583	4.7
391.79	4.34
391.998	4.13
392.206	4.26
392.414	3.99
392.621	4.47
392.829	4.71
393.037	4.7
393.244	4.91
393.452	4.62
393.66	4.55
393.867	4.85
394.075	4.65
394.283	4.67
394.49	4.86
394.698	4.94
394.905	4.48
395.113	4.36
395.32	4.35
395.528	4.1
395.735	4.15
395.943	4.24
396.15	3.91
396.358	4.12
396.565	3.79
396.773	3.57
396.98	3.86
397.188	3.86
397.395	3.91
397.602	4.32
397.81	4.48
398.017	4.61
398.225	4.73
398.432	4.9
398.639	5.07
398.847	5.57
399.054	5.38
399.261	5.01
399.468	5.28
399.676	5.29
399.883	5.03
400.09	5.08
400.297	4.96
400.505	4.71
400.712	4.59
400.919	4.63
401.126	4.07
401.333	4.03
401.54	4.07
401.748	4.04
401.955	3.91
402.162	3.65
402.369	3.66
402.576	3.83
402.783	4
402.99	3.9
403.197	3.77
403.404	4.19
403.611	4.27
403.818	4.35
404.025	4.42
404.232	4.37
404.439	4.56
404.646	4.56
404.853	4.61
405.06	4.86
405.267	4.98
405.474	4.99
405.681	5
405.887	4.97
406.094	4.95
406.301	4.66
406.508	4.86
406.715	4.63
406.922	4.6
407.128	4.5
407.335	4.06
407.542	4.17
407.749	4
407.955	3.79
408.162	3.79
408.369	3.74
408.575	3.81
408.782	3.58
408.989	3.68
409.195	3.48
409.402	3.11
409.609	3.25
409.815	3.04
410.022	3.5
410.228	3.62
410.435	3.42
410.642	2.89
410.848	3.02
411.055	3.26
411.261	3.3
411.468	3.71
411.674	3.86
411.881	3.62
412.087	3.68
412.294	3.23
412.5	3.11
412.706	3.39
412.913	3.78
413.119	3.91
413.326	3.77
413.532	3.88
413.738	3.66
413.945	3.79
414.151	3.9
414.357	3.95
414.564	4.15
414.77	4.38
414.976	4.26
415.182	4.66
415.389	4.5
415.595	4.59
415.801	4.62
416.007	4.54
416.214	4.48
416.42	4.44
416.626	4.33
416.832	4.44
417.038	4.25
417.244	4.26
417.45	4.34
417.657	4.34
417.863	4.27
418.069	4.35
418.275	4.26
418.481	4.38
418.687	4.55
418.893	4.67
419.099	4.5
419.305	4.51
419.511	4.38
419.717	4.14
419.923	4.16
420.129	4.07
420.335	3.99
420.541	3.96
420.746	3.87
420.952	3.75
421.158	3.75
421.364	3.74
421.57	3.77
421.776	3.96
421.982	3.95
422.187	3.89
422.393	3.94
422.599	3.91
422.805	4.08
423.01	3.99
423.216	4.09
423.422	4.09
423.628	4.18
423.833	4.1
424.039	4.04
424.245	3.94
424.45	4.07
424.656	4.11
424.862	4.18
425.067	4.14
425.273	4.27
425.478	4.21
425.684	4.02
425.889	3.84
426.095	3.92
426.301	3.96
426.506	3.86
426.712	3.77
426.917	3.81
427.123	3.71
427.328	3.53
427.533	3.37
427.739	3.25
427.944	3.36
428.15	3.45
428.355	3.08
428.561	2.9
428.766	3.04
428.971	2.96
429.177	2.76
429.382	2.68
429.587	2.74
429.793	2.98
429.998	3.2
430.203	3.42
430.408	3.39
430.614	3.39
430.819	3.36
431.024	3.48
431.229	3.29
431.434	3.27
431.64	3.38
431.845	3.41
432.05	3.14
432.255	2.93
432.46	2.76
432.665	2.72
432.87	2.88
433.076	3.09
433.281	3.11
433.486	3.34
433.691	3.46
433.896	3.43
434.101	3.4
434.306	3.51
434.511	3.63
434.716	3.55
434.921	3.56
435.126	3.61
435.331	3.56
435.535	3.56
435.74	3.63
435.945	3.54
436.15	3.43
436.355	3.52
436.56	3.57
436.765	3.54
436.97	3.67
437.174	3.7
437.379	3.94
437.584	3.78
437.789	3.67
437.993	3.65
438.198	3.65
438.403	3.66
438.608	3.59
438.812	3.4
439.017	3.42
439.222	3.28
439.426	3.39
439.631	3.25
439.836	3.32
440.04	3.42
440.245	3.31
440.45	3.25
440.654	3.36
440.859	3.19
441.063	3.24
441.268	3.13
441.472	3.18
441.677	2.98
441.881	2.81
442.086	2.65
442.29	2.59
442.495	2.6
442.699	2.61
442.904	2.48
443.108	2.74
443.312	2.89
443.517	2.92
443.721	2.96
443.925	3.16
444.13	3.18
444.334	3.3
444.538	3.3
444.743	3.34
444.947	3.48
445.151	3.56
445.356	3.45
445.56	3.43
445.764	3.37
445.968	3.38
446.173	3.4
446.377	3.48
446.581	3.44
446.785	3.46
446.989	3.31
447.193	3.27
447.398	3.22
447.602	3.29
447.806	3.25
448.01	3.32
448.214	3.24
448.418	3.04
448.622	3.02
448.826	3.04
449.03	3.02
449.234	3.27
449.438	3.3
449.642	3.36
449.846	3.19
450.05	3.01
450.254	2.96
450.458	2.89
450.662	3.03
450.866	2.91
451.069	2.8
451.273	2.71
451.477	2.53
451.681	2.49
451.885	2.62
452.089	2.57
452.292	2.72
452.496	2.97
452.7	3.34
452.904	3.44
453.107	3.69
453.311	3.94
453.515	3.89
453.719	3.99
453.922	3.99
454.126	3.76
454.33	4
454.533	4.04
454.737	3.74
454.94	3.6
455.144	3.54
455.348	3.48
455.551	3.21
455.755	3.48
455.958	3.33
456.162	3.3
456.365	3.28
456.569	3.26
456.772	3.23
456.976	3.24
457.179	3.06
457.383	3.1
457.586	2.94
457.79	3.13
457.993	2.93
458.196	3.05
458.4	3.11
458.603	3.07
458.807	3.1
459.01	3.04
459.213	3.07
459.417	3.1
459.62	2.93
459.823	3.15
460.026	2.93
460.23	3.01
460.433	3
460.636	2.93
460.839	2.93
461.042	2.95
461.246	3.01
461.449	3.05
461.652	3.02
461.855	3.15
462.058	2.97
462.261	3.27
462.464	3.24
462.668	3.05
462.871	2.9
463.074	3.01
463.277	2.82
463.48	2.8
463.683	2.9
463.886	2.85
464.089	2.84
464.292	2.8
464.495	2.71
464.698	2.58
464.901	2.73
465.104	2.99
465.306	2.92
465.509	2.93
465.712	2.86
465.915	2.71
466.118	2.88
466.321	2.97
466.524	2.93
466.726	2.94
466.929	3.06
467.132	3.05
467.335	3.02
467.538	3.1
467.74	3.24
467.943	3.16
468.146	3.28
468.348	3.32
468.551	3.09
468.754	3.12
468.956	3.01
469.159	2.96
469.362	3.07
469.564	3.03
469.767	3.04
469.969	2.97
470.172	2.93
470.375	2.67
470.577	2.52
470.78	2.65
470.982	2.74
471.185	2.73
471.387	2.56
471.59	2.48
471.792	2.55
471.995	2.63
472.197	2.56
472.399	2.78
472.602	2.75
472.804	2.75
473.007	2.66
473.209	2.57
473.411	2.71
473.614	2.92
473.816	2.78
474.018	2.83
474.22	2.78
474.423	2.94
474.625	2.96
474.827	3.16
475.03	3.2
475.232	3.18
475.434	3.16
475.636	3.14
475.838	3.15
476.04	3.03
476.243	2.97
476.445	2.82
476.647	2.84
476.849	2.94
477.051	2.8
477.253	2.89
477.455	2.98
477.657	3.17
477.859	3.13
478.061	3.2
478.263	3.39
478.465	3.25
478.667	3.22
478.869	3.04
479.071	2.97
479.273	2.96
479.475	2.78
479.677	2.82
479.879	2.75
480.081	2.89
480.283	2.91
480.485	2.94
480.686	3.01
480.888	3.14
481.09	3.14
481.292	3.07
481.494	3.18
481.695	3.19
481.897	3.21
482.099	3.16
482.301	3.12
482.502	3.04
482.704	3.08
482.906	3.21
483.107	3.2
483.309	3.28
483.511	3.26
483.712	3.25
483.914	3.31
484.115	3.26
484.317	3.33
484.519	3.28
484.72	3.31
484.922	3.3
485.123	3.22
485.325	3.22
485.526	3.2
485.728	3.23
485.929	3.26
486.131	3.25
486.332	3.22
486.534	3.11
486.735	3.15
486.936	3.13
487.138	3.12
487.339	3.13
487.541	3.21
487.742	3.19
487.943	3.21
488.144	3.17
488.346	3.18
488.547	3.21
488.748	3.22
488.95	3.24
489.151	3.22
489.352	3.22
489.553	3.18
489.755	3.11
489.956	3.11
490.157	3.12
490.358	3.11
490.559	3.1
490.76	3.15
490.961	3.27
491.163	3.23
491.364	3.23
491.565	3.27
491.766	3.3
491.967	3.34
492.168	3.39
492.369	3.37
492.57	3.34
492.771	3.33
492.972	3.37
493.173	3.31
493.374	3.36
493.575	3.44
493.776	3.43
493.976	3.44
494.177	3.4
494.378	3.33
494.579	3.44
494.78	3.47
494.981	3.63
495.182	3.6
495.382	3.72
495.583	3.59
495.784	3.52
495.985	3.47
496.185	3.45
496.386	3.53
496.587	3.52
496.788	3.35
496.988	3.53
497.189	3.39
497.39	3.37
497.59	3.26
497.791	3.42
497.992	3.38
498.192	3.36
498.393	3.23
498.593	3.23
498.794	3.26
498.994	3.43
499.195	3.31
499.395	3.28
499.596	3.23
499.796	3.27
499.997	3.13
500.197	3.14
500.398	3.22
500.598	3.41
500.799	3.18
500.999	3.18
501.199	3.06
501.4	3.33
501.6	3.2
501.801	3.3
502.001	3.13
502.201	3.18
502.402	3.27
502.602	3.33
502.802	3.19
503.002	3.16
503.203	3.01
503.403	2.99
503.603	2.8
503.803	2.99
504.003	2.91
504.204	3.09
504.404	3.14
504.604	3.13
504.804	3
505.004	3.06
505.204	3.12
505.404	3.25
505.604	3.28
505.804	3.24
506.005	3.19
506.205	3.08
506.405	3.1
506.605	3.08
506.805	3.07
507.005	3.12
507.204	3.3
507.404	3.35
507.604	3.31
507.804	3.29
508.004	3.31
508.204	3.24
508.404	3.55
508.604	3.41
508.804	3.42
509.003	3.41
509.203	3.42
509.403	3.35
509.603	3.27
509.803	3.34
510.002	3.32
510.202	3.23
510.402	3.38
510.602	3.32
510.801	3.39
511.001	3.27
511.201	3.31
511.4	3.31
511.6	3.3
511.8	3.36
511.999	3.27
512.199	3.3
512.398	3.27
512.598	3.27
512.797	3.27
512.997	3.25
513.197	3.36
513.396	3.37
513.596	3.5
513.795	3.51
513.994	3.64
514.194	3.59
514.393	3.69
514.593	3.7
514.792	3.64
514.992	3.51
515.191	3.55
515.39	3.65
515.59	3.64
515.789	3.34
515.988	3.31
516.188	3.25
516.387	3.33
516.586	3.16
516.786	3.35
516.985	3.44
517.184	3.5
517.383	3.44
517.582	3.46
517.782	3.49
517.981	3.72
518.18	3.81
518.379	3.79
518.578	3.91
518.777	4.05
518.976	4.01
519.176	3.97
519.375	3.93
519.574	3.93
519.773	3.91
519.972	3.97
520.171	3.96
520.37	3.99
520.569	3.95
520.768	3.96
520.967	3.93
521.166	3.93
521.365	3.87
521.564	3.92
521.762	4.09
521.961	4.02
522.16	3.95
522.359	3.89
522.558	3.71
522.757	3.69
522.956	3.59
523.154	3.73
523.353	3.79
523.552	3.96
523.751	4.01
523.949	3.97
524.148	3.98
524.347	3.98
524.546	4.13
524.744	4.27
524.943	4.33
525.142	4.39
525.34	4.18
525.539	4.21
525.737	4.18
525.936	4.17
526.135	4.28
526.333	4.38
526.532	4.45
526.73	4.34
526.929	4.23
527.127	4.24
527.326	4.19
527.524	4.3
527.723	4.33
527.921	4.34
528.12	4.38
528.318	4.3
528.516	4.32
528.715	4.28
528.913	4.33
529.112	4.4
529.31	4.48
529.508	4.55
529.707	4.51
529.905	4.44
530.103	4.45
530.301	4.49
530.5	4.51
530.698	4.53
530.896	4.58
531.094	4.59
531.293	4.6
531.491	4.51
531.689	4.5
531.887	4.57
532.085	4.65
532.283	4.73
532.481	4.66
532.68	4.7
532.878	4.64
533.076	4.62
533.274	4.61
533.472	4.71
533.67	4.63
533.868	4.68
534.066	4.75
534.264	4.82
534.462	4.75
534.66	4.76
534.858	4.82
535.056	4.86
535.253	4.86
535.451	4.88
535.649	4.85
535.847	4.99
536.045	4.91
536.243	4.83
536.441	4.77
536.638	4.85
536.836	4.96
537.034	4.98
537.232	4.97
537.43	5.03
537.627	5.11
537.825	5.06
538.023	5.13
538.22	5.16
538.418	5.16
538.616	5.22
538.813	5.25
539.011	5.29
539.209	5.31
539.406	5.36
539.604	5.5
539.801	5.43
539.999	5.6
540.196	5.59
540.394	5.6
540.591	5.76
540.789	5.75
540.986	5.74
541.184	5.7
541.381	5.69
541.579	5.72
541.776	5.72
541.974	5.9
542.171	5.84
542.368	5.86
542.566	5.98
542.763	5.86
542.96	5.85
543.158	5.97
543.355	6.01
543.552	6
543.75	6.01
543.947	6.04
544.144	5.91
544.341	5.92
544.539	6
544.736	5.97
544.933	6.03
545.13	6.27
545.327	6.22
545.524	6.24
545.722	6.29
545.919	6.38
546.116	6.4
546.313	6.5
546.51	6.57
546.707	6.54
546.904	6.53
547.101	6.58
547.298	6.53
547.495	6.62
547.692	6.67
547.889	6.71
548.086	6.71
548.283	6.91
548.48	6.95
548.677	7.08
548.874	7.17
549.07	7.28
549.267	7.49
549.464	7.46
549.661	7.48
549.858	7.65
550.055	7.65
550.251	7.79
550.448	7.53
550.645	7.54
550.842	7.66
551.038	7.68
551.235	7.87
551.432	7.77
551.628	8
551.825	8.06
552.022	7.81
552.218	7.99
552.415	8.02
552.612	8.21
552.808	8.22
553.005	8.28
553.201	8.41
553.398	8.5
553.594	8.57
553.791	8.56
553.987	8.49
554.184	8.75
554.38	8.77
554.577	8.86
554.773	8.85
554.97	9
555.166	8.97
555.362	9.03
555.559	8.96
555.755	8.94
555.952	8.99
556.148	9.02
556.344	9.35
556.541	9.41
556.737	9.46
556.933	9.54
557.129	9.42
557.326	9.44
557.522	9.5
557.718	9.64
557.914	9.71
558.11	9.75
558.307	9.95
558.503	9.89
558.699	9.87
558.895	9.94
559.091	9.88
559.287	9.95
559.483	9.99
559.679	10.04
559.876	9.8
560.072	10.19
560.268	10.39
560.464	10.28
560.66	10.39
560.856	10.72
561.052	10.95
561.247	10.95
561.443	11.14
561.639	11.17
561.835	11.19
562.031	11.64
562.227	11.69
562.423	11.69
562.619	11.86
562.815	11.82
563.01	11.77
563.206	11.79
563.402	11.95
563.598	12.05
563.793	12.12
563.989	12.24
564.185	12.09
564.381	12.1
564.576	12.12
564.772	12.11
564.968	12.05
565.163	12.11
565.359	12.28
565.555	12.42
565.75	12.42
565.946	12.51
566.141	12.63
566.337	12.65
566.532	12.61
566.728	12.69
566.923	12.91
567.119	13.18
567.314	13.28
567.51	13.16
567.705	13.24
567.901	13.14
568.096	13.19
568.292	13.19
568.487	13.28
568.682	13.32
568.878	13.35
569.073	13.34
569.268	13.13
569.464	13.21
569.659	13.29
569.854	13.28
570.05	13.61
570.245	13.69
570.44	13.89
570.635	14.17
570.831	14.03
571.026	14.09
571.221	14.24
571.416	14.44
571.611	14.39
571.806	14.34
572.002	14.34
572.197	14.37
572.392	14.42
572.587	14.4
572.782	14.42
572.977	14.68
573.172	14.7
573.367	14.79
573.562	14.85
573.757	15.1
573.952	15.39
574.147	15.57
574.342	15.57
574.537	15.54
574.732	15.42
574.927	15.39
575.121	15.46
575.316	15.44
575.511	15.3
575.706	15.27
575.901	15.1
576.096	15.08
576.29	15.09
576.485	15.11
576.68	15.4
576.875	15.38
577.069	15.37
577.264	15.33
577.459	15.3
577.654	15.51
577.848	15.61
578.043	15.62
578.238	15.39
578.432	15.37
578.627	15.47
578.821	15.22
579.016	15.48
579.21	15.64
579.405	15.68
579.6	15.75
579.794	15.48
579.989	15.36
580.183	15.65
580.378	16
580.572	16.16
580.766	16.19
580.961	16.2
581.155	16.09
581.35	15.93
581.544	16.01
581.738	15.97
581.933	16.02
582.127	16.11
582.321	16.08
582.516	16.1
582.71	15.83
582.904	15.82
583.099	15.82
583.293	15.89
583.487	15.93
583.681	15.96
583.875	16.34
584.07	16.45
584.264	16.57
584.458	16.52
584.652	16.26
584.846	16.29
585.04	16.19
585.234	16.25
585.428	16.36
585.623	16.53
585.817	16.64
586.011	16.59
586.205	16.48
586.399	16.28
586.593	16.17
586.787	15.95
586.981	15.91
587.174	16.23
587.368	16.46
587.562	16.41
587.756	16.29
587.95	16.19
588.144	16.24
588.338	16.59
588.532	16.7
588.725	16.64
588.919	16.92
589.113	17.21
589.307	17.08
589.501	17.04
589.694	16.97
589.888	16.82
590.082	17.02
590.275	17
590.469	16.85
590.663	16.95
590.856	17.19
591.05	17.08
591.244	17.16
591.437	17.21
591.631	17.24
591.824	17.49
592.018	17.56
592.212	17.33
592.405	17.53
592.599	17.47
592.792	17.44
592.986	17.54
593.179	17.8
593.372	17.59
593.566	17.54
593.759	17.38
593.953	17.38
594.146	17.69
594.339	17.89
594.533	17.61
594.726	17.64
594.92	17.39
595.113	17.3
595.306	17.46
595.499	17.45
595.693	17.56
595.886	17.68
596.079	17.7
596.272	17.54
596.466	17.58
596.659	17.57
596.852	17.56
597.045	17.8
597.238	17.91
597.431	17.83
597.624	18.01
597.818	17.92
598.011	17.88
598.204	17.86
598.397	17.87
598.59	17.86
598.783	17.97
598.976	18.12
599.169	18.07
599.362	17.76
599.555	17.69
599.748	17.71
599.941	17.82
600.134	18.04
600.326	18.15
600.519	18.37
600.712	18.05
600.905	18.05
601.098	18.05
601.291	18.12
601.483	18.24
601.676	18.29
601.869	18.17
602.062	18.23
602.255	18.07
602.447	17.98
602.64	17.89
602.833	18.08
603.025	18.05
603.218	18.09
603.411	18.04
603.603	17.95
603.796	18.13
603.989	18.22
604.181	18.21
604.374	18.33
604.566	18.39
604.759	18.46
604.951	18.54
605.144	18.5
605.336	18.58
605.529	18.6
605.721	18.87
605.914	18.69
606.106	18.68
606.299	18.7
606.491	18.91
606.683	18.88
606.876	18.63
607.068	18.63
607.26	18.69
607.453	18.5
607.645	18.47
607.837	18.41
608.03	18.11
608.222	17.95
608.414	17.92
608.606	17.53
608.799	17.79
608.991	17.82
609.183	17.84
609.375	17.99
609.567	18.08
609.759	18.29
609.952	18.4
610.144	18.49
610.336	18.89
610.528	19.23
610.72	19.49
610.912	19.41
611.104	19.49
611.296	19.47
611.488	19.38
611.68	19.34
611.872	19.26
612.064	18.97
612.256	19.33
612.448	19.1
612.64	18.7
612.832	18.61
613.023	18.56
613.215	18.87
613.407	18.96
613.599	19.15
613.791	19.06
613.983	19.04
614.174	19.23
614.366	18.82
614.558	18.45
614.75	18.6
614.941	18.15
615.133	18.5
615.325	18.22
615.516	18.09
615.708	17.83
615.9	18.12
616.091	18.43
616.283	18.55
616.475	18.79
616.666	19.04
616.858	18.65
617.049	18.85
617.241	18.44
617.432	18.82
617.624	18.98
617.815	19.15
618.007	18.96
618.198	18.78
618.39	18.69
618.581	18.19
618.773	18.33
618.964	18.42
619.155	18.74
619.347	18.72
619.538	18.03
619.729	17.79
619.921	17.85
620.112	17.63
620.303	17.32
620.494	17.23
620.686	17.64
620.877	17.36
621.068	17.73
621.259	17.3
621.451	17.3
621.642	17.89
621.833	17.93
622.024	17.8
622.215	17.98
622.406	18.31
622.597	18.22
622.788	18.43
622.98	18.38
623.171	17.99
623.362	18.16
623.553	18.11
623.744	17.66
623.935	17.85
624.126	17.75
624.317	18.03
624.508	17.86
624.698	18.09
624.889	18.01
625.08	18.28
625.271	18.23
625.462	18.16
625.653	18.39
625.844	18.67
626.034	18.5
626.225	18.71
626.416	18.74
626.607	18.85
626.798	18.82
626.988	18.96
627.179	18.87
627.37	19.02
627.56	19.04
627.751	18.84
627.942	18.76
628.132	18.82
628.323	18.73
628.514	18.51
628.704	18.45
628.895	18.27
629.085	18.23
629.276	18.32
629.466	18.42
629.657	18.69
629.847	18.85
630.038	18.99
630.228	19.05
630.419	19.09
630.609	19.24
630.8	19.14
630.99	19.23
631.181	19.39
631.371	19.18
631.561	19.22
631.752	19.16
631.942	18.9
632.132	19.22
632.323	19.21
632.513	19.21
632.703	19.1
632.893	19.27
633.084	19.14
633.274	19.12
633.464	19.16
633.654	19.38
633.844	19.17
634.034	19.58
634.225	19.2
634.415	19.19
634.605	19.03
634.795	18.96
634.985	19
635.175	18.99
635.365	18.79
635.555	18.66
635.745	18.36
635.935	18.58
636.125	18.29
636.315	18.46
636.505	18.55
636.695	18.73
636.885	18.69
637.075	18.9
637.265	19.25
637.455	19.11
637.644	19.36
637.834	19.45
638.024	19.14
638.214	19.02
638.404	18.8
638.593	18.63
638.783	18.16
638.973	18.3
639.163	18.07
639.352	17.66
639.542	17.83
639.732	17.78
639.921	17.59
640.111	17.65
640.301	17.65
640.49	17.56
640.68	17.55
640.87	18.05
641.059	17.73
641.249	17.96
641.438	18.04
641.628	18.12
641.817	18.52
642.007	18.88
642.196	18.74
642.386	18.98
642.575	19.07
642.764	19.01
642.954	18.79
643.143	19.22
643.333	18.54
643.522	18.71
643.711	18.74
643.901	18.61
644.09	18.25
644.279	18.8
644.469	18.83
644.658	18.83
644.847	19.2
645.036	19.22
645.226	18.92
645.415	19.35
645.604	19.59
645.793	19.61
645.982	19.23
646.171	19.13
646.361	18.71
646.55	18.35
646.739	18.27
646.928	18.39
647.117	18.9
647.306	18.99
647.495	18.87
647.684	18.68
647.873	18.7
648.062	19.23
648.251	19.19
648.44	19.32
648.629	19.82
648.818	19.81
649.007	19.58
649.196	19.52
649.384	19.95
649.573	20.31
649.762	20.44
649.951	20.49
650.14	20.13
650.328	20.42
650.517	20.27
650.706	20.37
650.895	20.67
651.083	20.58
651.272	20.1
651.461	20.14
651.65	19.78
651.838	19.12
652.027	18.8
652.216	19.27
652.404	19.24
652.593	19.77
652.781	19.33
652.97	18.81
653.158	18.76
653.347	19.1
653.535	18.58
653.724	18.6
653.912	19.41
654.101	19.38
654.289	18.49
654.478	18.83
654.666	18.6
654.855	18.5
655.043	19.27
655.231	19.6
655.42	19.41
655.608	19.81
655.796	20.02
655.985	19.57
656.173	19.36
656.361	19.77
656.55	19.25
656.738	18.95
656.926	19.13
657.114	18.78
657.302	18.49
657.491	18.65
657.679	18.46
657.867	18.41
658.055	18.51
658.243	18.65
658.431	18.66
658.619	18.81
658.807	19.11
658.996	19.28
659.184	19.26
659.372	19.25
659.56	19.04
659.748	19.16
659.936	18.97
660.124	19.07
660.311	19.04
660.499	19.29
660.687	19.7
660.875	19.4
661.063	19.32
661.251	19.49
661.439	19.44
661.627	19.46
661.814	19.54
662.002	19.73
662.19	20.14
662.378	20.34
662.565	20.21
662.753	19.54
662.941	19.68
663.129	19.31
663.316	19.4
663.504	19.82
663.692	19.98
663.879	19.78
664.067	20.02
664.254	19.35
664.442	19.61
664.63	19.5
664.817	20.1
665.005	20.31
665.192	20.54
665.38	20.19
665.567	20.09
665.755	20.2
665.942	20.31
666.13	20.03
666.317	19.89
666.504	19.57
666.692	19.67
666.879	19.13
667.067	19.12
667.254	19.26
667.441	19.25
667.629	19
667.816	18.78
668.003	18.81
668.19	19.15
668.378	19.87
668.565	19.94
668.752	19.42
668.939	19.72
669.127	19.66
669.314	19.89
669.501	20.12
669.688	19.93
669.875	19.68
670.062	19.61
670.249	19.52
670.436	19.05
670.623	19.16
670.81	19.77
670.997	19.57
671.184	19.43
671.371	18.9
671.558	18.56
671.745	19.31
671.932	19.78
672.119	19.56
672.306	19.36
672.493	19.4
672.68	19.53
672.867	19.16
673.054	19.01
673.24	19.03
673.427	19.69
673.614	19.73
673.801	19.49
673.988	19.03
674.174	19.06
674.361	19.4
674.548	19.94
674.734	20.19
674.921	20.2
675.108	20.85
675.294	20.86
675.481	20.54
675.668	20.88
675.854	20.76
676.041	21.35
676.227	21.23
676.414	20.06
676.601	19.32
676.787	19.48
676.974	19.22
677.16	18.9
677.347	19.33
677.533	19.31
677.719	19.49
677.906	19.24
678.092	19.01
678.279	18.8
678.465	20.03
678.651	20.2
678.838	19.71
679.024	20.11
679.21	20.1
679.397	19.96
679.583	19.91
679.769	19.44
679.955	19.36
680.142	19.41
680.328	19.77
680.514	19.09
680.7	19.37
680.886	19.81
681.073	20.08
681.259	19.83
681.445	19.63
681.631	19.66
681.817	19.94
682.003	20.24
682.189	20.24
682.375	20.34
682.561	20.52
682.747	20.34
682.933	20.12
683.119	19.89
683.305	20.06
683.491	19.91
683.677	20.18
683.863	20.14
684.049	19.98
684.235	20.24
684.42	19.99
684.606	20.14
684.792	20.28
684.978	19.98
685.164	19.9
685.349	19.69
685.535	20.01
685.721	20.33
685.907	19.95
686.092	20.17
686.278	19.66
686.464	19.95
686.649	19.66
686.835	18.84
687.021	18.6
687.206	18.47
687.392	18.82
687.577	19.07
687.763	18.12
687.948	18.17
688.134	18.29
688.319	18.34
688.505	18.33
688.69	18.22
688.876	18.59
689.061	18.7
689.247	18.7
689.432	18.79
689.618	18.13
689.803	18.93
689.988	19
690.174	18.51
690.359	18.38
690.544	19.03
690.73	19.9
690.915	20.62
691.1	20.79
691.285	20.7
691.471	20.44
691.656	20.59
691.841	19.85
692.026	20
692.211	20.65
692.396	21.28
692.582	20.41
692.767	19.79
692.952	19.33
693.137	19.29
693.322	19.55
693.507	19.82
693.692	20.38
693.877	20.3
694.062	20.83
694.247	20.16
694.432	20.21
694.617	20.38
694.802	20.28
694.987	20.14
695.172	20.4
695.357	20.21
695.541	20.38
695.726	19.46
695.911	19.29
696.096	18.66
696.281	18.79
696.466	18.5
696.65	18.76
696.835	18.91
697.02	19.04
697.204	18.89
697.389	19.45
697.574	19.45
697.759	19.67
697.943	20.02
698.128	20.43
698.312	20.57
698.497	20.7
698.682	20.56
698.866	20.57
699.051	20.79
699.235	20.81
699.42	20.65
699.604	20.16
699.789	20.74
699.973	20.35
700.158	20.14
700.342	20.02
700.527	19.79
700.711	19.59
700.895	19.85
701.08	18.97
701.264	18.64
701.448	18.08
701.633	17.91
701.817	17.27
702.001	17.62
702.186	17.81
702.37	18.18
702.554	18.22
702.738	18.74
702.923	18.63
703.107	19.17
703.291	20.05
703.475	19.92
703.659	20.38
703.843	20.62
704.027	20.9
704.212	20.69
704.396	20.91
704.58	20.62
704.764	19.86
704.948	19.72
705.132	19.83
705.316	19.7
705.5	19.68
705.684	20.1
705.868	19.84
706.052	20.19
706.235	19.89
706.419	18.94
706.603	19.25
706.787	19.36
706.971	19
707.155	19.46
707.339	18.89
707.522	18.97
707.706	18.54
707.89	18.66
708.074	18.18
708.257	18.11
708.441	18.69
708.625	18.76
708.808	18.92
708.992	18.83
709.176	18.2
709.359	17.59
709.543	18.22
709.727	18.33
709.91	18.22
710.094	18.01
710.277	18.08
710.461	18.65
710.644	18.14
710.828	18.34
711.011	19.06
711.195	19.47
711.378	20.49
711.562	20.75
711.745	20.12
711.928	20.45
712.112	20.51
712.295	20.54
712.478	19.98
712.662	21.02
712.845	21.03
713.028	20.51
713.212	20.07
713.395	19.67
713.578	19.43
713.761	20.67
713.945	20.1
714.128	20.22
714.311	20.21
714.494	19.75
714.677	19.15
714.86	19.14
715.043	19.65
715.227	19.2
715.41	19.07
715.593	19.19
715.776	18.98
715.959	19.41
716.142	19.87
716.325	20.05
716.508	20.26
716.691	20.12
716.874	19.42
717.057	19.08
717.239	19.77
717.422	19.67
717.605	19.67
717.788	18.86
717.971	19.26
718.154	18.44
718.337	18.84
718.519	19.47
718.702	19.01
718.885	19.62
719.068	19.11
719.25	19.74
719.433	19.79
719.616	19.05
719.798	19.8
719.981	19.26
720.164	20.05
720.346	19.09
720.529	18.14
720.712	18.66
720.894	19.11
721.077	19.5
721.259	18.54
721.442	18.88
721.624	18.81
721.807	18.74
721.989	19.28
722.172	18.3
722.354	17.95
722.537	17.34
722.719	17.05
722.901	15.68
723.084	15.98
723.266	15.93
723.448	15.98
723.631	16.45
723.813	16.72
723.995	15.63
724.178	16.18
724.36	18.14
724.542	19.21
724.724	19.85
724.907	21.42
725.089	20.77
725.271	20.78
725.453	20.93
725.635	20.58
725.817	19.69
725.999	20.01
726.181	20.36
726.364	19.12
726.546	19.41
726.728	18.79
726.91	18.4
727.092	18.67
727.274	19.67
727.456	18.7
727.638	18.73
727.819	19.88
728.001	19.65
728.183	19.83
728.365	20.06
728.547	19.79
728.729	21.17
728.911	20.89
729.093	21.12
729.274	20.54
729.456	21.78
729.638	22.19
729.82	21.43
730.001	21.75
730.183	21.16
730.365	21.63
730.546	22.08
730.728	21.74
730.91	21.58
731.091	21.09
731.273	20.2
731.455	19.72
731.636	19.95
731.818	19
731.999	19.39
732.181	18.88
732.362	18.61
732.544	17.39
732.725	17.24
732.907	17.43
733.088	18.42
733.27	19.09
733.451	19.65
733.633	19.22
733.814	19.01
733.995	18.54
734.177	20.55
734.358	19.25
734.539	20.03
734.721	19.65
734.902	19.04
735.083	18.22
735.264	17.88
735.446	17.13
735.627	16.76
735.808	17.71
735.989	18.27
736.17	16.34
736.351	16.49
736.533	15.72
736.714	15.53
736.895	15.15
737.076	16.25
737.257	17.1
737.438	16.96
737.619	17.27
737.8	18.05
737.981	18.42
738.162	17.69
738.343	17.83
738.524	18.48
738.705	18.37
738.886	19
739.067	18.22
739.247	17.92
739.428	18.61
739.609	18.77
739.79	18.92
739.971	16.75
740.151	17.99
740.332	18.59
740.513	19.04
740.694	18.85
740.874	19.09
741.055	19.34
741.236	19.26
741.417	19.35
741.597	18.38
741.778	18.88
741.958	20.07
742.139	20.16
742.32	20.2
742.5	20.11
742.681	20.78
742.861	21.2
743.042	20.46
743.222	20.43
743.403	19.06
743.583	20.85
743.764	19.69
743.944	18.93
744.124	18.92
744.305	20.23
744.485	18.53
744.666	18.07
744.846	17.89
745.026	17.66
745.207	18.57
745.387	18.88
745.567	18
745.747	17.26
745.928	18.45
746.108	17.85
746.288	16.41
746.468	17.31
746.648	17.27
746.829	16.63
747.009	16.68
747.189	16.45
747.369	17.84
747.549	17.38
747.729	18.15
747.909	19.18
748.089	19.02
748.269	19.28
748.449	19.36
748.629	19.44
748.809	19.07
748.989	20.37
749.169	20.07
749.349	18.12
749.529	17.68
749.709	16.64
749.889	15.41
750.068	16.22
750.248	17.13
750.428	17.73
750.608	17.41
750.788	17.71
750.967	17.3
751.147	16.27
751.327	16.74
751.507	16.58
751.686	18.23
751.866	18.27
752.046	18.44
752.225	16.92
752.405	16.79
752.585	15.08
752.764	16.19
752.944	15.44
753.123	16.91
753.303	17.31
753.482	18.66
753.662	17.97
753.841	18.83
754.021	18.73
754.2	19.06
754.38	17.49
754.559	19.24
754.739	17.5
754.918	17.19
755.097	14.99
755.277	15.18
755.456	14.17
755.635	14.23
755.815	14.25
755.994	12.95
756.173	12.99
756.352	14.25
756.532	14.12
756.711	16
756.89	17.18
757.069	18.96
757.248	18.68
757.427	19.4
757.607	19.31
757.786	17.9
757.965	18.51
758.144	20.07
758.323	20.13
758.502	20.03
758.681	18.93
758.86	19.36
759.039	19.4
759.218	20.04
759.397	20.07
759.576	18.24
759.755	19.13
759.934	19.31
760.113	18.67
760.291	18.23
760.47	19.8
760.649	20.4
760.828	21.25
761.007	21.54
761.186	21.77
761.364	21.81
761.543	23.29
761.722	23.76
761.901	23.64
762.079	22.95
762.258	22.57
762.437	22.15
762.615	20.45
762.794	19.21
762.972	19.4
763.151	18.87
763.33	17.59
763.508	17.51
763.687	16.31
763.865	16.3
764.044	16.63
764.222	16.75
764.401	15.65
764.579	17.14
764.758	17.54
764.936	15.94
765.114	15.56
765.293	16.61
765.471	17.11
765.65	16.46
765.828	16.43
766.006	17.37
766.184	17.06
766.363	17.36
766.541	16.94
766.719	16.58
766.898	17.45
767.076	16.84
767.254	16.82
767.432	16.45
767.61	17.95
767.788	17.6
767.967	15.94
768.145	16.65
768.323	16.89
768.501	15.84
768.679	15.74
768.857	15.61
769.035	16.62
769.213	17.99
769.391	17.15
769.569	15.53
769.747	16.58
769.925	16.06
770.103	17.24
770.281	18.51
770.459	20.11
770.636	17.4
770.814	17.41
770.992	17.35
771.17	13.87
771.348	14.26
771.525	16.03
771.703	16.72
771.881	17.42
772.059	14.92
772.236	14.95
772.414	14.23
772.592	17.13
772.769	16.65
772.947	15.95
773.125	17.26
773.302	16.19
773.48	16.31
773.657	15.88
773.835	14.5
774.013	15.48
774.19	15.18
774.368	15.1
774.545	15.13
774.723	16.41
774.9	14.69
775.077	16.5
775.255	18.42
775.432	17.67
775.61	18.05
775.787	20.77
775.964	20.29
776.142	17.6
776.319	16.77
776.496	16.36
776.674	15.62
776.851	18.78
777.028	18.29
777.205	17.46
777.382	14.94
777.56	11.77
777.737	11.22
777.914	10.07
778.091	10.1
778.268	12.8
778.445	12.8
778.622	10.37
778.8	9.42
778.977	8.64
779.154	8.66
779.331	11.11
779.508	13.27
779.685	11.95
779.862	15.26
780.038	17.93
780.215	16.01
780.392	17.11
780.569	20.04
780.746	21.79
780.923	22.58
781.1	23.32
781.277	24.57
781.453	23.69
781.63	24.37
781.807	21.57
781.984	20.19
782.16	22.4
782.337	20.22
782.514	21.94
782.691	20.03
782.867	18.58
783.044	16.97
783.221	15.45
783.397	17.77
783.574	17.55
783.75	18.85
783.927	19.13
784.103	18.15
784.28	19.92
784.456	17.78
784.633	19.41
784.809	18.67
784.986	16.83
785.162	16.97
785.339	15.78
785.515	12.86
785.692	13.49
785.868	14.55
786.044	12.53
786.221	10.35
786.397	10.53
786.573	8.87
786.749	9.1
786.926	11.2
787.102	11.99
787.278	10.83
787.454	13.4
787.631	14.99
787.807	14.37
787.983	13.9
788.159	16.28
788.335	14.55
788.511	16.1
788.687	15.79
788.863	15.35
789.039	13.17
789.216	13.27
789.392	12.81
789.568	11.73
789.744	12.64
789.919	14.69
790.095	12.96
790.271	14.56
790.447	12.67
790.623	14.02
790.799	13.11
790.975	16.12
791.151	16.33
791.327	16.14
791.502	14.46
791.678	12.42
791.854	9.6
792.03	9.41
792.205	9.78
792.381	7.96
792.557	7.03
792.733	9.6
792.908	7.31
793.084	11
793.259	11.16
793.435	14.15
793.611	13.48
793.786	15.33
793.962	14.83
794.137	13.29
794.313	14.4
794.488	14.39
794.664	16.05
794.839	18.24
795.015	16.74
795.19	16.57
795.366	15.39
795.541	16.69
795.716	16.92
795.892	16.45
796.067	18.84
796.242	17.17
796.418	16.22
796.593	14.08
796.768	15.56
796.944	15.09
797.119	16.39
797.294	16.07
797.469	15.59
797.644	14.51
797.82	15.25
797.995	12.28
798.17	14.47
798.345	16.44
798.52	17.86
798.695	14.21
798.87	13.41
799.045	11.21
799.22	12.41
799.395	14.57
799.57	14.73
799.745	15.49
799.92	16.37
800.095	19.33
800.27	15.63
800.445	15.04
800.62	15.43
800.795	14.42
800.97	17.83
801.145	18.21
801.319	16.49
801.494	18.2
801.669	16.05
801.844	17.18
802.018	12.94
802.193	16.69
802.368	22
802.543	22.45
802.717	21.85
802.892	18.75
803.067	17.41
803.241	14.85
803.416	17.15
803.59	19.94
803.765	18.24
803.94	18.21
804.114	18.47
804.289	10.56
804.463	9.16
804.638	12.45
804.812	10.51
804.986	9.81
805.161	10.57
805.335	7.15
805.51	7.55
805.684	7.79
805.858	11.15
806.033	9.52
806.207	16.01
806.381	18.46
806.556	18.04
806.73	18.45
806.904	20.56
807.078	19.54
807.253	18.63
807.427	18.72
807.601	18.85
807.775	14.4
807.949	15.77
808.123	12.42
808.298	10.52
808.472	6.97
808.646	6.38
808.82	6.63
808.994	9.13
809.168	11.09
809.342	8.72
809.516	12.09
809.69	13.24
809.864	10.69
810.038	14.51
810.212	13.97
810.385	14.89
810.559	13.69
810.733	12.26
810.907	17.02
811.081	17.17
811.255	19.78
811.428	20.73
811.602	20.05
811.776	21.99
811.95	17
812.123	19.73
812.297	19.8
812.471	21.49
812.644	18.24
812.818	14.21
812.992	13.53
813.165	12.19
813.339	10.3
813.512	11.72
813.686	11.74
813.86	11.8
814.033	10.68
814.207	13.2
814.38	14.13
814.554	17.08
814.727	17.2
814.9	18.72
815.074	21.36
815.247	16.93
815.421	12.12
815.594	13.3
815.767	12.65
815.941	12.13
816.114	12.54
816.287	17.97
816.46	9.98
816.634	6.43
816.807	6.29
816.98	3.67
817.153	7.62
817.327	11.28
817.5	11.45
817.673	10.94
817.846	11.75
818.019	7.5
818.192	3.24
818.365	10.4
818.538	16.65
818.711	21.99
818.884	23.17
819.057	19.12
819.23	19.48
819.403	19.35
819.576	21.84
819.749	21.51
819.922	23.82
820.095	25.07
820.268	23.45
820.441	20.21
820.614	17.55
820.786	17.83
820.959	21.23
821.132	21.15
821.305	22.27
821.477	21.16
821.65	19.97
821.823	19.68
821.996	18.73
822.168	19.08
822.341	19.83
822.514	20.16
822.686	19.38
822.859	19.51
823.031	19.61
823.204	19.38
823.376	19.84
823.549	21.1
823.722	21.09
823.894	21.17
824.067	22.27
824.239	21.66
824.411	21.22
824.584	20.89
824.756	20.7
824.929	20.71
825.101	19.75
825.273	19.54
825.446	18.96
825.618	20.5
825.79	21.38
825.963	19.88
826.135	20.46
826.307	21.17
826.479	23.32
826.652	21.89
826.824	22.59
826.996	23.33
827.168	25.38
827.34	26.67
827.512	25.37
827.684	24.12
827.856	25.02
828.029	24.51
828.201	23.83
828.373	24.28
828.545	26.95
828.717	26.07
828.889	24.77
829.061	22.21
829.232	19.15
829.404	17.6
829.576	19.33
829.748	16.82
829.92	16.92
830.092	14.12
830.264	11.24
830.436	5.72
830.607	6.61
830.779	9.12
830.951	11.52
831.123	13.05
831.294	14.53
831.466	11.05
831.638	13.18
831.809	15.52
831.981	19.51
832.153	19.43
832.324	21.77
832.496	22
832.667	22.45
832.839	21.21
833.011	21.65
833.182	23.73
833.354	25.21
833.525	25.67
833.697	24.01
833.868	22.47
834.039	20.26
834.211	19.94
834.382	18.47
834.554	17.84
834.725	15.67
834.896	14.57
835.068	16.89
835.239	13.95
835.41	12.29
835.581	12.79
835.753	13.01
835.924	13.58
836.095	15.19
836.266	14.87
836.438	16.12
836.609	15.14
836.78	13.91
836.951	8.58
837.122	13.1
837.293	14.03
837.464	11.19
837.635	11.59
837.806	11.95
837.977	9.85
838.148	9.74
838.319	8.12
838.49	6.64
838.661	7.64
838.832	7.64
839.003	6.01
839.174	10.25
839.345	13.65
839.516	13.87
839.687	16.31
839.857	13.89
840.028	14.35
840.199	12.12
840.37	13.02
840.54	14.7
840.711	19.32
840.882	22.85
841.053	18.11
841.223	18.96
841.394	16.1
841.564	15.04
841.735	11.84
841.906	14.4
842.076	18.42
842.247	17.73
842.417	21.61
842.588	10.18
842.758	8.01
842.929	6.96
843.099	6.81
843.27	2.18
843.44	-2.69
843.611	-0.07
843.781	-12.99
843.951	-9.11
844.122	-13.76
844.292	-26.63
844.462	-26.1
844.633	-30.74
844.803	-28.06
844.973	-29.83
845.144	-23.34
845.314	-15.31
845.484	-6.68
845.654	-3.63
845.824	-20.26
845.995	-26.99
846.165	-20.14
846.335	-12.39
846.505	-9.67
846.675	-5.48
846.845	-16.11
847.015	-15.05
847.185	-32.65
847.355	-82.4
847.525	-58.62
847.695	-27.61
847.865	-0.2
848.035	3.16
848.205	1.22
848.375	2.54
848.545	3.77
848.715	6.35
848.884	11.69
849.054	19.29
849.224	21
849.394	21.49
849.564	20.21
849.733	16.94
849.903	18.9
850.073	15.31
850.243	15.41
850.412	7.31
850.582	12.44
850.752	4.58
850.921	0.96
851.091	-4.06
851.26	-21.63
851.43	-15.41
851.599	-25.19
851.769	-29.69
851.939	-20.5
852.108	-16.94
852.278	-8.23
852.447	-11.99
852.616	-9.08
852.786	-2.93
852.955	9.93
853.125	28.89
853.294	26.48
853.463	25.31
853.633	12.83
853.802	14.4
853.971	7.58
854.141	8.3
854.31	-3.49
854.479	6.64
854.648	-5.66
854.818	5.82
854.987	-6.27
855.156	-1.69
855.325	6.7
855.494	18.22
855.663	22.4
855.832	23.8
856.001	24.94
856.171	33.67
856.34	26.94
856.509	25.16
856.678	20.43
856.847	23.9
857.016	24.18
857.185	22.97
857.353	17.08
857.522	21.09
857.691	14.83
857.86	-9.5
858.029	-22.56
858.198	-16.31
858.367	-9.55
858.535	0.25
858.704	0.4
858.873	-17.83
859.042	-13.57
859.21	-8.3
859.379	-24.06
859.548	-14.85
859.717	10.4
859.885	6.04
860.054	5.78
860.222	6.11
860.391	-1.25
860.56	-2.87
860.728	30.09
860.897	33.18
861.065	37.72
861.234	43.84
861.402	42.06
861.571	23.68
861.739	25.82
861.908	33.08
862.076	34.19
862.244	19.93
862.413	1.99
862.581	-44.42
862.749	-37.42
862.918	-48.99
863.086	-58.09
863.254	-38.86
863.423	-26.51
863.591	-26.09
863.759	-21.29
863.927	-23.91
864.096	-4.54
864.264	2.79
864.432	-2.35
864.6	-8.94
864.768	-13.77
864.936	-20.77
865.104	-25.94
865.272	-17.63
865.44	-5.83
865.608	-13.29
865.776	-24.13
865.944	-23.93
866.112	-32.08
866.28	-3.38
866.448	5.6
866.616	26.08
866.784	30.82
866.952	35.8
867.12	28.28
867.288	16.63
867.455	15.61
867.623	15.5
867.791	18.11
867.959	26.04
868.127	23.6
868.294	8.31
868.462	-12.04
868.63	-27.01
868.797	-66.97
868.965	-53.13
869.133	-36.75
869.3	-42.68
869.468	-38.01
869.636	-59.84
869.803	-35.05
869.971	-55.37
870.138	-21.86
870.306	-13.04
870.473	1.38
870.641	-7.39
870.808	-8
870.975	-1.04
871.143	-2.8
871.31	3.91
871.478	-6.95
871.645	-4.91
871.812	15.93
871.98	12.6
872.147	-0.21
872.314	-14.05
872.482	6.29
872.649	-0.13
872.816	12.05
872.983	18.59
873.15	6.85
873.318	15.8
873.485	14.05
873.652	-7.48
873.819	-13.4
873.986	-2.14
874.153	-2.64
874.32	4.72
874.487	22.32
874.654	1.19
874.821	0.05
874.988	7.33
875.155	8.94
875.322	13.74
875.489	15.6
875.656	13.39
875.823	9.4
875.99	4.32
876.157	-5.05
876.324	-26.9
876.49	-5.23
876.657	-16.22
876.824	-20.82
876.991	-24.85
877.157	-32.53
877.324	-22.33
877.491	-18.37
877.658	-25.26
877.824	-22.82
877.991	-21.63
878.157	-12.82
878.324	-34.17
878.491	-12.16
878.657	-8.81
878.824	0.45
878.99	3.83
879.157	11.99
879.323	19.11
879.49	27.63
879.656	38
879.823	46.11
879.989	34.77
880.156	48.28
880.322	35.4
880.488	35.6
880.655	27.35
880.821	25.91
880.987	13.77
881.154	3.68
881.32	6.24
881.486	2.29
881.652	-1.16
881.819	0.97
881.985	0.97
882.151	0.42
882.317	-2.47
882.483	7.03
882.649	11.55
882.816	13.4
882.982	17.8
883.148	18.76
883.314	20.04
883.48	17.86
883.646	18.93
883.812	18.72
883.978	17.52
884.144	19.29
884.31	18.23
884.476	16.24
884.642	14.76
884.807	10.91
884.973	9.11
885.139	11.23
885.305	13.84
885.471	15.19
885.637	14.17
885.802	18.35
885.968	18.9
886.134	17.14
886.3	14.28
886.465	10.53
886.631	10.63
886.797	16.17
886.962	4.83
887.128	-5.97
887.293	-16.88
887.459	-20.65
887.625	-30.09
887.79	-42.16
887.956	-55.64
888.121	-54.94
888.287	-49.78
888.452	-49.28
888.618	-85.96
888.783	-73.02
