Data from 2938042_Reflection_3.txt Node
Date: Sun Jul 12 14:35:29 EDT 2015
User: robert
Spectrometer: USB4E03001
Autoset integration time: false
Trigger mode: 4
Integration Time (sec): 1.000000E-1
Scans to average: 10
Electric dark correction enabled: true
Nonlinearity correction enabled: false
Boxcar width: 5
Stray light correction enabled: false
XAxis mode: Wavelengths
Stop averaging: false
Number of Pixels in Spectrum: 3648
>>>>>Begin Spectral Data<<<<<
177.566	126.78
177.785	275.13
178.005	-15256.25
178.225	244.58
178.445	212.12
178.665	105.83
178.885	133.19
179.105	-26.94
179.324	-35.48
179.544	680.06
179.764	-321.18
179.984	-45.62
180.204	1.43
180.423	27.4
180.643	-2.59
180.863	44.43
181.083	78.36
181.302	98.24
181.522	83.79
181.742	52.13
181.961	56.87
182.181	40.34
182.401	39.67
182.621	31.61
182.84	27.02
183.06	40
183.279	-21.01
183.499	-21.3
183.719	-25.38
183.938	-18.95
184.158	21.38
184.377	21.09
184.597	40.69
184.816	43.31
185.036	34.82
185.256	61.96
185.475	50.39
185.695	86.3
185.914	71.18
186.134	47.47
186.353	43.48
186.572	49.08
186.792	23.02
187.011	10.49
187.231	32.48
187.45	23.26
187.67	-2.48
187.889	25.86
188.108	7.83
188.328	28.34
188.547	51.68
188.766	45.21
188.986	27.22
189.205	58.34
189.424	18.13
189.644	-11.99
189.863	18.52
190.082	27.49
190.302	53.61
190.521	74.56
190.74	71.86
190.959	28.76
191.178	2.7
191.398	48.46
191.617	-162.1
191.836	3.24
192.055	-23.75
192.274	-261.67
192.494	-235.23
192.713	-1138.55
192.932	2356.88
193.151	-283.65
193.37	91677.78
193.589	-188.01
193.808	-214.96
194.027	-96.36
194.246	-132.72
194.465	-195.38
194.685	-77.7
194.904	-163.84
195.123	-120.59
195.342	-96.57
195.561	906.44
195.78	84.95
195.999	57.81
196.218	-29.19
196.436	241.41
196.655	326.3
196.874	147.67
197.093	84.9
197.312	85.12
197.531	67.34
197.75	56.56
197.969	69.82
198.188	58.21
198.407	60.53
198.625	47.93
198.844	43.65
199.063	46.97
199.282	24.4
199.501	29.75
199.719	34.69
199.938	35.53
200.157	41.88
200.376	39.81
200.594	55.14
200.813	69.49
201.032	71.51
201.251	69.79
201.469	74.79
201.688	93.83
201.907	69.27
202.125	52.13
202.344	51.48
202.563	46.42
202.781	22.54
203	24.86
203.218	19.17
203.437	26.04
203.656	42.02
203.874	35.92
204.093	32.2
204.311	54.31
204.53	60.74
204.748	60.35
204.967	48.2
205.185	64.6
205.404	44.63
205.622	82.7
205.841	182.9
206.059	887.67
206.278	583.94
206.496	358.71
206.715	-1778.99
206.933	-190.69
207.151	-1522.27
207.37	-40.67
207.588	-68.64
207.806	-5.91
208.025	1.89
208.243	33.45
208.461	8.63
208.68	14.04
208.898	24.95
209.116	21.25
209.335	11.06
209.553	-11.53
209.771	13.03
209.989	37.39
210.208	20.08
210.426	-2.86
210.644	-53.31
210.862	-91.13
211.081	-262.51
211.299	-239.38
211.517	-324.05
211.735	-42.25
211.953	219.12
212.171	-1587.11
212.39	181.76
212.608	203.63
212.826	570.07
213.044	-99.05
213.262	-32.63
213.48	-44.8
213.698	-11.11
213.916	-44.35
214.134	-103.63
214.352	-22.54
214.57	4.29
214.788	-34.8
215.006	-2.34
215.224	13.85
215.442	-5.73
215.66	5.17
215.878	22.42
216.096	-24.48
216.314	-35.39
216.532	-5.07
216.75	0.98
216.968	-1.61
217.185	35.17
217.403	38.05
217.621	34.49
217.839	54.61
218.057	46.06
218.275	30.69
218.492	42.29
218.71	38.86
218.928	24.35
219.146	24.76
219.363	19.21
219.581	15.17
219.799	0.8
220.017	1.85
220.234	13.34
220.452	13.43
220.67	9.35
220.887	-6.18
221.105	-20.17
221.323	-7.89
221.54	-37.56
221.758	-18.08
221.976	-29.36
222.193	-24.67
222.411	-56.34
222.629	-156.9
222.846	-120.66
223.064	-121.9
223.281	-47.9
223.499	-5.86
223.716	-18.12
223.934	8.69
224.151	-24.73
224.369	-25.33
224.586	-5.08
224.804	-15.18
225.021	5.65
225.239	-1.21
225.456	5.2
225.674	0.52
225.891	-16.03
226.108	-9.54
226.326	-23.09
226.543	-13.49
226.76	-11.04
226.978	-10.74
227.195	-0.78
227.413	7.12
227.63	15.37
227.847	11.49
228.064	11.19
228.282	14.73
228.499	14.07
228.716	13.74
228.934	17.67
229.151	17.61
229.368	15.4
229.585	18.37
229.802	15.02
230.02	9.9
230.237	11.98
230.454	11.5
230.671	9.23
230.888	8.14
231.105	9.38
231.323	4.19
231.54	5.31
231.757	3.11
231.974	-1.47
232.191	3.92
232.408	7.09
232.625	3.45
232.842	2.65
233.059	1.91
233.276	2.5
233.493	-0.94
233.71	1.49
233.927	2.8
234.144	8.49
234.361	11.64
234.578	4.68
234.795	0.26
235.012	0.01
235.229	1.77
235.446	3.23
235.663	3.52
235.879	6.92
236.096	10.06
236.313	10.4
236.53	11.63
236.747	11.5
236.964	16.09
237.181	21.36
237.397	20.68
237.614	19.4
237.831	20.02
238.048	18.1
238.264	11.57
238.481	4.03
238.698	2.61
238.915	0.39
239.131	-0.78
239.348	1.35
239.565	-1.82
239.781	3.04
239.998	7.12
240.215	10.96
240.431	11.31
240.648	14.17
240.865	14.07
241.081	14.14
241.298	13.25
241.514	13.25
241.731	12.1
241.947	14.31
242.164	13.48
242.38	11.93
242.597	9.41
242.814	10.34
243.03	9.91
243.246	9.8
243.463	8.93
243.679	10.08
243.896	8.41
244.112	10.18
244.329	7.86
244.545	7.19
244.762	6.97
244.978	8.99
245.194	7.67
245.411	10.6
245.627	10.8
245.843	10.96
246.06	8.57
246.276	9.2
246.492	8.91
246.709	8.67
246.925	9.48
247.141	9.94
247.357	9.21
247.574	9.2
247.79	8.16
248.006	8.2
248.222	8.35
248.439	8.82
248.655	9.11
248.871	7.61
249.087	8.48
249.303	7.08
249.519	5.89
249.736	7.33
249.952	6.57
250.168	7.45
250.384	9.02
250.6	8.62
250.816	8.12
251.032	9.11
251.248	9.71
251.464	8.86
251.68	8.72
251.896	9.37
252.112	7.93
252.328	8.67
252.544	7.65
252.76	4.54
252.976	3.07
253.192	2.74
253.408	1.6
253.624	0.53
253.84	0.5
254.056	3.2
254.272	0.05
254.487	-0.55
254.703	0.25
254.919	0.32
255.135	2.9
255.351	2.8
255.567	2.25
255.782	3.37
255.998	5.68
256.214	4.28
256.43	-2.05
256.646	1.54
256.861	4.73
257.077	4.46
257.293	3.83
257.508	3.8
257.724	5.76
257.94	6.87
258.155	6.65
258.371	5.33
258.587	6.57
258.802	10.19
259.018	10.01
259.234	9.19
259.449	8.56
259.665	9.06
259.88	9.94
260.096	10.71
260.312	10.17
260.527	9.95
260.743	10.29
260.958	10.87
261.174	9.78
261.389	10.24
261.605	9.53
261.82	9.61
262.036	10.55
262.251	9.18
262.466	8.65
262.682	9.84
262.897	9.74
263.113	9.76
263.328	7.4
263.543	7.49
263.759	5.91
263.974	7.59
264.189	9.65
264.405	8.83
264.62	8.49
264.835	6.56
265.051	7.93
265.266	9.57
265.481	9.11
265.696	9.26
265.912	7.84
266.127	10.17
266.342	8.04
266.557	4.54
266.773	3.19
266.988	4.98
267.203	5.58
267.418	5.78
267.633	3.24
267.848	4.24
268.064	4.4
268.279	5.79
268.494	3.8
268.709	5.19
268.924	7.01
269.139	6.91
269.354	7.36
269.569	7.19
269.784	6.37
269.999	8.07
270.214	7.74
270.429	8.74
270.644	7.45
270.859	8.18
271.074	6.89
271.289	7.19
271.504	7.36
271.719	6.48
271.934	7.19
272.149	6.62
272.363	6.4
272.578	6.55
272.793	6.77
273.008	8.79
273.223	9.57
273.438	10.49
273.653	10.18
273.867	9.93
274.082	10.21
274.297	9.37
274.512	9.43
274.726	9.15
274.941	8.57
275.156	7.8
275.371	5.27
275.585	3.5
275.8	2.85
276.015	2.5
276.229	4.74
276.444	4.44
276.659	3
276.873	3.39
277.088	2.6
277.302	3.38
277.517	2.42
277.732	2.65
277.946	2.69
278.161	2.33
278.375	2.09
278.59	0.53
278.804	1.69
279.019	3.69
279.233	1.95
279.448	3.16
279.662	2.28
279.877	3.95
280.091	5.04
280.306	5.3
280.52	6.21
280.735	5.84
280.949	5.59
281.163	3.58
281.378	3.98
281.592	4.34
281.806	4.83
282.021	7.01
282.235	7.38
282.449	8.52
282.664	8.18
282.878	7.32
283.092	8.64
283.307	9.11
283.521	10.65
283.735	11.08
283.949	12.39
284.164	12.27
284.378	11.25
284.592	10.24
284.806	9.21
285.02	9.39
285.234	10.55
285.449	9.59
285.663	9.18
285.877	8.76
286.091	8.4
286.305	7.5
286.519	7.15
286.733	5.87
286.947	5.19
287.161	4.86
287.375	4.68
287.589	3.36
287.803	4.13
288.017	4.44
288.231	4.21
288.445	3.9
288.659	4.86
288.873	4.98
289.087	6.87
289.301	7.9
289.515	6.69
289.729	7.02
289.943	8.48
290.157	8.13
290.371	8.77
290.584	9.1
290.798	9.2
291.012	9.24
291.226	10.15
291.44	10.21
291.654	10.05
291.867	11.46
292.081	12.02
292.295	11.07
292.509	12.2
292.722	11.28
292.936	10.88
293.15	11.38
293.364	11.63
293.577	11.15
293.791	10.6
294.005	11.71
294.218	11.53
294.432	9.31
294.645	9.95
294.859	8.54
295.073	8.94
295.286	10.11
295.5	9.7
295.713	9.58
295.927	9.42
296.14	9.63
296.354	8.82
296.568	10.37
296.781	12.27
296.994	11.89
297.208	12.78
297.421	12.13
297.635	11.52
297.848	11.43
298.062	11.9
298.275	11.88
298.489	12.45
298.702	11.9
298.915	9.9
299.129	8.64
299.342	8.6
299.555	8.1
299.769	8.97
299.982	10.52
300.195	11.47
300.409	10.74
300.622	10.48
300.835	10.08
301.048	11.68
301.262	12.59
301.475	12.49
301.688	12.01
301.901	12.1
302.115	12.64
302.328	10.23
302.541	9.75
302.754	8.49
302.967	8.66
303.18	8.07
303.393	7.32
303.607	7.22
303.82	6.71
304.033	7.77
304.246	7.26
304.459	6.47
304.672	7.74
304.885	8.87
305.098	10.96
305.311	11.76
305.524	11.97
305.737	11.54
305.95	11.58
306.163	14.3
306.376	15.18
306.589	14.92
306.802	15.31
307.015	13.75
307.228	13.96
307.44	13.06
307.653	12.75
307.866	13.61
308.079	14.27
308.292	14.3
308.505	12.8
308.718	11.59
308.93	12.88
309.143	11.81
309.356	13.13
309.569	12.63
309.781	12.65
309.994	12.57
310.207	12.88
310.42	13.01
310.632	13.47
310.845	15.11
311.058	15.43
311.27	15.28
311.483	16
311.696	15.93
311.908	16.35
312.121	16.46
312.333	17.04
312.546	16.46
312.759	16.42
312.971	15.97
313.184	15.37
313.396	14.53
313.609	14.87
313.821	15.7
314.034	17.48
314.246	16.9
314.459	16.57
314.671	16.16
314.884	16.59
315.096	15.74
315.309	17.16
315.521	15.53
315.733	17.73
315.946	16.69
316.158	16.51
316.371	15.86
316.583	15.4
316.795	15.52
317.008	14.82
317.22	14.34
317.432	15.29
317.644	14.83
317.857	16.61
318.069	16.04
318.281	17.66
318.494	17.53
318.706	15.91
318.918	17.92
319.13	17.98
319.342	17.63
319.555	18.63
319.767	19.86
319.979	18.82
320.191	18.81
320.403	18.54
320.615	16.93
320.827	15.63
321.039	16.54
321.252	14.79
321.464	14.88
321.676	17.41
321.888	16.57
322.1	16.47
322.312	17.71
322.524	17.81
322.736	18.26
322.948	19.12
323.16	21.47
323.372	21.59
323.584	22.88
323.796	24.89
324.007	23.74
324.219	23.84
324.431	23.54
324.643	23.15
324.855	22.89
325.067	23.28
325.279	22.46
325.491	21.6
325.702	21.78
325.914	21.09
326.126	20.47
326.338	20.76
326.55	20.88
326.761	19.53
326.973	20.65
327.185	21.05
327.396	21.39
327.608	21.99
327.82	22.89
328.032	22.62
328.243	23.96
328.455	23.69
328.666	24.9
328.878	26.77
329.09	29.21
329.301	29.71
329.513	29.81
329.725	30.61
329.936	32.19
330.148	31.59
330.359	32.49
330.571	32.36
330.782	32.87
330.994	34.26
331.205	34.41
331.417	35.72
331.628	34.32
331.84	34.53
332.051	34.7
332.262	34.08
332.474	35.1
332.685	36.22
332.897	36.13
333.108	36.87
333.319	35.83
333.531	35.49
333.742	35.3
333.953	36.33
334.165	36.68
334.376	36.47
334.587	37.61
334.799	39.05
335.01	39.62
335.221	39.23
335.432	40.34
335.644	40.81
335.855	40.57
336.066	40.54
336.277	40.33
336.488	41.18
336.7	41.53
336.911	42.33
337.122	42.2
337.333	41.55
337.544	42.36
337.755	41.68
337.966	41.95
338.177	42.08
338.388	42.32
338.599	43.41
338.811	42.62
339.022	41.59
339.233	41.31
339.444	41.13
339.655	41.27
339.866	40.81
340.076	41.1
340.287	40.54
340.498	41.42
340.709	41.23
340.92	40.42
341.131	41.59
341.342	43.81
341.553	42.96
341.764	41.52
341.975	41.22
342.185	42.26
342.396	41.54
342.607	42.71
342.818	42.41
343.029	42.61
343.239	43.23
343.45	43.15
343.661	42.59
343.872	43.36
344.082	45.04
344.293	46.07
344.504	45.43
344.714	46.65
344.925	46.37
345.136	45.82
345.346	46.78
345.557	47.14
345.768	47.72
345.978	47.44
346.189	46.77
346.399	46.82
346.61	46.86
346.821	47.5
347.031	47.34
347.242	46.46
347.452	47.37
347.663	46.61
347.873	47.33
348.084	46.82
348.294	47.38
348.504	48.02
348.715	47.41
348.925	46.79
349.136	46.23
349.346	45.41
349.557	45
349.767	45.31
349.977	45.6
350.188	45.29
350.398	45.39
350.608	44.78
350.819	44.78
351.029	44.58
351.239	44.71
351.449	44.93
351.66	44.8
351.87	46.02
352.08	44.66
352.29	44.47
352.501	44.57
352.711	45.24
352.921	45.81
353.131	45.96
353.341	46.73
353.552	46.75
353.762	47.02
353.972	47.52
354.182	47.51
354.392	47.79
354.602	47.83
354.812	47.15
355.022	46.17
355.232	45.43
355.442	46.16
355.652	46.05
355.862	45.21
356.072	45.01
356.282	44.39
356.492	43.92
356.702	43.69
356.912	43.17
357.122	44.08
357.332	44.74
357.542	45.47
357.752	44.57
357.962	43.78
358.171	45.19
358.381	44.91
358.591	45.66
358.801	45.36
359.011	46.13
359.221	46.67
359.43	45.46
359.64	44.66
359.85	43.8
360.06	43.96
360.269	44.94
360.479	44
360.689	44.48
360.899	43.97
361.108	44.51
361.318	44.35
361.528	44.14
361.737	44.31
361.947	44.3
362.156	45.06
362.366	45.35
362.576	44.71
362.785	44.43
362.995	44.01
363.204	44.04
363.414	43.44
363.623	43.13
363.833	42.96
364.042	42.86
364.252	43.34
364.461	42.85
364.671	42.36
364.88	42.76
365.09	42.69
365.299	42.71
365.509	42.92
365.718	43.46
365.927	43.41
366.137	43.51
366.346	43.49
366.555	42.85
366.765	42.96
366.974	43.06
367.183	43.01
367.393	42.97
367.602	42.15
367.811	41.72
368.021	41.95
368.23	41.9
368.439	41.95
368.648	41.95
368.857	42.18
369.067	42.06
369.276	42.33
369.485	41.58
369.694	41.38
369.903	42.18
370.112	42.31
370.321	41.55
370.531	41.58
370.74	40.85
370.949	39.79
371.158	39.66
371.367	39.71
371.576	39.14
371.785	39.34
371.994	40.34
372.203	39.7
372.412	38.87
372.621	38.53
372.83	38.25
373.039	38.02
373.248	39.01
373.457	38.57
373.666	38.34
373.874	37.71
374.083	37.34
374.292	36.21
374.501	36.49
374.71	37.27
374.919	37.08
375.128	37
375.336	37.61
375.545	37.41
375.754	37.03
375.963	36.42
376.171	36.63
376.38	36.67
376.589	36.58
376.798	36.6
377.006	36.1
377.215	36.36
377.424	36.36
377.632	35.38
377.841	35.43
378.05	36.49
378.258	36.68
378.467	36.52
378.675	36.38
378.884	36.55
379.093	36.69
379.301	36.69
379.51	36.1
379.718	36.14
379.927	36.77
380.135	36.31
380.344	35.49
380.552	35.59
380.761	35.77
380.969	35.64
381.177	35.14
381.386	34.62
381.594	34.27
381.803	34.48
382.011	33.78
382.219	33.53
382.428	33.25
382.636	32.77
382.845	32.54
383.053	32.52
383.261	32.86
383.469	32.76
383.678	32.75
383.886	32.9
384.094	32.83
384.302	32.88
384.511	32.92
384.719	32.85
384.927	32.72
385.135	32.51
385.343	32.22
385.552	31.98
385.76	32.35
385.968	32.14
386.176	31.88
386.384	31.67
386.592	31.44
386.8	31.07
387.008	31
387.216	30.75
387.424	30.43
387.633	29.89
387.841	29.72
388.049	29.56
388.257	29.35
388.465	29.26
388.672	28.91
388.88	29.13
389.088	29.3
389.296	28.97
389.504	29.4
389.712	29.61
389.92	29.59
390.128	29.35
390.336	28.67
390.544	28.57
390.751	28.46
390.959	28.6
391.167	28.45
391.375	28.06
391.583	27.98
391.79	27.74
391.998	27.19
392.206	27.1
392.414	27.24
392.621	27.57
392.829	27.57
393.037	27.57
393.244	27.38
393.452	27.55
393.66	27.51
393.867	27.39
394.075	27.25
394.283	27.66
394.49	27.81
394.698	27.51
394.905	27.33
395.113	27.37
395.32	27.14
395.528	27.24
395.735	26.99
395.943	27.11
396.15	27.26
396.358	26.99
396.565	26.7
396.773	26.9
396.98	27.25
397.188	26.88
397.395	26.76
397.602	26.94
397.81	26.94
398.017	26.62
398.225	26.83
398.432	26.89
398.639	27.37
398.847	27.55
399.054	27.26
399.261	26.67
399.468	27.16
399.676	27.15
399.883	26.83
400.09	26.96
400.297	26.9
400.505	26.24
400.712	25.95
400.919	25.9
401.126	25.66
401.333	25.31
401.54	25.35
401.748	25.22
401.955	24.92
402.162	25.21
402.369	24.96
402.576	25.26
402.783	25.09
402.99	25.35
403.197	24.86
403.404	25.18
403.611	25.37
403.818	25.19
404.025	25.14
404.232	25.17
404.439	24.94
404.646	25.05
404.853	24.75
405.06	25.15
405.267	24.79
405.474	25.02
405.681	24.88
405.887	24.73
406.094	24.85
406.301	24.54
406.508	24.64
406.715	24.72
406.922	24.56
407.128	25.18
407.335	25.04
407.542	25.28
407.749	25.14
407.955	24.89
408.162	24.99
408.369	24.99
408.575	25.14
408.782	24.77
408.989	24.48
409.195	24.68
409.402	24.04
409.609	24.28
409.815	24.09
410.022	24.07
410.228	24.15
410.435	24.06
410.642	23.79
410.848	23.74
411.055	23.94
411.261	23.98
411.468	23.71
411.674	23.66
411.881	23.36
412.087	23.31
412.294	23.42
412.5	23.14
412.706	23.32
412.913	23.33
413.119	23.33
413.326	23.08
413.532	23.33
413.738	23.44
413.945	23.24
414.151	23.24
414.357	23.32
414.564	23.19
414.77	23.46
414.976	23.11
415.182	23.4
415.389	23.47
415.595	23.68
415.801	23.42
416.007	23.37
416.214	23.5
416.42	23.53
416.626	23.51
416.832	23.54
417.038	23.19
417.244	23.4
417.45	23.35
417.657	23.22
417.863	23.31
418.069	23.36
418.275	23.16
418.481	23.26
418.687	23.18
418.893	23.3
419.099	23.2
419.305	23.34
419.511	23.16
419.717	23.01
419.923	22.99
420.129	22.78
420.335	22.74
420.541	22.6
420.746	22.55
420.952	22.54
421.158	22.46
421.364	22.36
421.57	22.26
421.776	22.38
421.982	22.46
422.187	22.49
422.393	22.48
422.599	22.5
422.805	22.75
423.01	22.71
423.216	22.7
423.422	22.57
423.628	22.68
423.833	22.69
424.039	22.62
424.245	22.42
424.45	22.41
424.656	22.47
424.862	22.52
425.067	22.47
425.273	22.49
425.478	22.56
425.684	22.57
425.889	22.55
426.095	22.72
426.301	22.72
426.506	22.75
426.712	22.6
426.917	22.54
427.123	22.44
427.328	22.37
427.533	22.36
427.739	22.25
427.944	22.35
428.15	22.32
428.355	22.03
428.561	22.09
428.766	22.32
428.971	22.63
429.177	22.58
429.382	22.42
429.587	22.37
429.793	22.21
429.998	22.11
430.203	22.2
430.408	22.32
430.614	22.27
430.819	21.85
431.024	21.91
431.229	21.61
431.434	21.69
431.64	21.83
431.845	21.84
432.05	21.87
432.255	21.9
432.46	21.71
432.665	21.73
432.87	21.84
433.076	21.86
433.281	21.78
433.486	22.05
433.691	22.06
433.896	22.18
434.101	22.13
434.306	22.29
434.511	22.34
434.716	22.39
434.921	22.23
435.126	22.3
435.331	22.63
435.535	22.53
435.74	22.39
435.945	22.22
436.15	22.02
436.355	22.13
436.56	22.01
436.765	21.97
436.97	21.82
437.174	21.81
437.379	21.82
437.584	21.75
437.789	21.89
437.993	21.92
438.198	22.01
438.403	22.01
438.608	21.93
438.812	21.97
439.017	21.82
439.222	21.83
439.426	21.92
439.631	21.75
439.836	21.74
440.04	21.71
440.245	21.72
440.45	21.68
440.654	21.73
440.859	21.76
441.063	21.65
441.268	21.77
441.472	21.85
441.677	21.81
441.881	21.91
442.086	21.87
442.29	21.7
442.495	21.6
442.699	21.7
442.904	21.6
443.108	21.63
443.312	21.71
443.517	21.71
443.721	21.52
443.925	21.62
444.13	21.44
444.334	21.41
444.538	21.6
444.743	21.77
444.947	21.96
445.151	21.94
445.356	21.83
445.56	21.87
445.764	21.92
445.968	21.96
446.173	21.78
446.377	21.96
446.581	22
446.785	21.97
446.989	21.82
447.193	21.67
447.398	21.69
447.602	21.71
447.806	21.64
448.01	21.36
448.214	21.4
448.418	21.45
448.622	21.35
448.826	21.29
449.03	21.27
449.234	21.37
449.438	21.32
449.642	21.17
449.846	21.24
450.05	21.13
450.254	21.43
450.458	21.47
450.662	21.36
450.866	21.31
451.069	21.26
451.273	21.24
451.477	21.12
451.681	21.06
451.885	21.23
452.089	21.11
452.292	21.16
452.496	21.27
452.7	21.31
452.904	21.39
453.107	21.37
453.311	21.49
453.515	21.48
453.719	21.34
453.922	21.57
454.126	21.37
454.33	21.46
454.533	21.51
454.737	21.28
454.94	21.14
455.144	21.3
455.348	21.18
455.551	21.02
455.755	20.91
455.958	21.09
456.162	20.89
456.365	21.23
456.569	21.28
456.772	21.14
456.976	21.17
457.179	21.23
457.383	21.11
457.586	21.09
457.79	21.06
457.993	21.14
458.196	21.2
458.4	21.2
458.603	21.03
458.807	21.02
459.01	21.06
459.213	21.07
459.417	21.07
459.62	20.89
459.823	21
460.026	20.94
460.23	21.04
460.433	20.85
460.636	20.81
460.839	20.76
461.042	20.68
461.246	20.7
461.449	20.62
461.652	20.56
461.855	20.77
462.058	20.82
462.261	20.99
462.464	20.81
462.668	20.91
462.871	20.83
463.074	20.92
463.277	20.88
463.48	20.76
463.683	20.88
463.886	20.94
464.089	20.94
464.292	20.87
464.495	20.77
464.698	20.78
464.901	20.82
465.104	20.86
465.306	21.01
465.509	21.09
465.712	21.33
465.915	21.46
466.118	21.42
466.321	21.45
466.524	21.51
466.726	21.55
466.929	21.7
467.132	21.71
467.335	21.8
467.538	21.81
467.74	21.82
467.943	21.68
468.146	21.49
468.348	21.43
468.551	21.46
468.754	21.28
468.956	21.28
469.159	21.24
469.362	21.37
469.564	21.43
469.767	21.45
469.969	21.49
470.172	21.6
470.375	21.67
470.577	21.87
470.78	21.71
470.982	21.8
471.185	21.76
471.387	21.81
471.59	21.78
471.792	21.9
471.995	21.74
472.197	21.82
472.399	21.73
472.602	21.49
472.804	21.42
473.007	21.49
473.209	21.46
473.411	21.47
473.614	21.33
473.816	21.17
474.018	21.09
474.22	21.13
474.423	21.08
474.625	21.07
474.827	21.4
475.03	21.43
475.232	21.4
475.434	21.41
475.636	21.56
475.838	21.72
476.04	21.72
476.243	21.81
476.445	21.57
476.647	21.55
476.849	21.74
477.051	21.62
477.253	21.62
477.455	21.78
477.657	21.96
477.859	21.89
478.061	21.9
478.263	22.02
478.465	21.78
478.667	21.87
478.869	21.74
479.071	21.66
479.273	21.63
479.475	21.44
479.677	21.24
479.879	21.19
480.081	21.24
480.283	21.13
480.485	21.12
480.686	21.25
480.888	21.46
481.09	21.53
481.292	21.53
481.494	21.57
481.695	21.79
481.897	21.88
482.099	21.86
482.301	21.82
482.502	21.82
482.704	21.78
482.906	21.83
483.107	21.71
483.309	21.65
483.511	21.62
483.712	21.61
483.914	21.51
484.115	21.47
484.317	21.44
484.519	21.37
484.72	21.35
484.922	21.31
485.123	21.22
485.325	21.24
485.526	21.23
485.728	21.15
485.929	21.07
486.131	21.12
486.332	21.17
486.534	21.19
486.735	21.2
486.936	21.2
487.138	21.2
487.339	21.19
487.541	21.18
487.742	21.23
487.943	21.23
488.144	21.28
488.346	21.22
488.547	21.15
488.748	21.12
488.95	21.16
489.151	21.21
489.352	21.19
489.553	21.19
489.755	21.18
489.956	21.16
490.157	21.27
490.358	21.31
490.559	21.44
490.76	21.47
490.961	21.46
491.163	21.38
491.364	21.31
491.565	21.33
491.766	21.38
491.967	21.48
492.168	21.52
492.369	21.46
492.57	21.44
492.771	21.39
492.972	21.42
493.173	21.43
493.374	21.48
493.575	21.56
493.776	21.66
493.976	21.58
494.177	21.49
494.378	21.49
494.579	21.57
494.78	21.63
494.981	21.78
495.182	21.81
495.382	22.04
495.583	22.17
495.784	22.14
495.985	22.3
496.185	22.53
496.386	22.61
496.587	22.66
496.788	22.77
496.988	22.85
497.189	22.72
497.39	22.78
497.59	22.75
497.791	22.88
497.992	22.89
498.192	22.78
498.393	22.55
498.593	22.56
498.794	22.59
498.994	22.5
499.195	22.54
499.395	22.62
499.596	22.62
499.796	22.67
499.997	22.7
500.197	22.76
500.398	22.74
500.598	22.94
500.799	22.98
500.999	22.92
501.199	23.15
501.4	23.05
501.6	23.16
501.801	23.23
502.001	23.09
502.201	23.1
502.402	23.18
502.602	23.43
502.802	23.54
503.002	23.47
503.203	23.55
503.403	23.39
503.603	23.59
503.803	23.63
504.003	23.73
504.204	23.84
504.404	23.95
504.604	24.01
504.804	23.92
505.004	24.03
505.204	24.02
505.404	24.24
505.604	24.39
505.804	24.39
506.005	24.34
506.205	24.29
506.405	24.53
506.605	24.49
506.805	24.6
507.005	24.78
507.204	24.82
507.404	24.97
507.604	24.95
507.804	25.04
508.004	25.18
508.204	25.25
508.404	25.33
508.604	25.41
508.804	25.33
509.003	25.28
509.203	25.26
509.403	25.24
509.603	25.23
509.803	25.15
510.002	25.04
510.202	24.85
510.402	24.88
510.602	24.89
510.801	24.86
511.001	24.96
511.201	24.95
511.4	25
511.6	25.05
511.8	25.16
511.999	25.39
512.199	25.59
512.398	25.75
512.598	25.76
512.797	25.87
512.997	26.01
513.197	26.13
513.396	26.11
513.596	26.26
513.795	26.48
513.994	26.62
514.194	26.61
514.393	26.57
514.593	26.64
514.792	26.79
514.992	26.73
515.191	26.71
515.39	26.75
515.59	26.99
515.789	26.97
515.988	26.78
516.188	26.58
516.387	26.64
516.586	26.75
516.786	26.96
516.985	26.99
517.184	27.02
517.383	27.06
517.582	27.23
517.782	27.15
517.981	27.16
518.18	27.37
518.379	27.57
518.578	27.66
518.777	27.83
518.976	27.83
519.176	27.8
519.375	27.79
519.574	27.85
519.773	27.76
519.972	27.92
520.171	28.05
520.37	27.99
520.569	28.03
520.768	28.02
520.967	27.97
521.166	27.92
521.365	28.06
521.564	28.38
521.762	28.4
521.961	28.38
522.16	28.51
522.359	28.47
522.558	28.42
522.757	28.33
522.956	28.29
523.154	28.32
523.353	28.4
523.552	28.45
523.751	28.45
523.949	28.46
524.148	28.64
524.347	28.35
524.546	28.34
524.744	28.48
524.943	28.6
525.142	28.67
525.34	28.57
525.539	28.57
525.737	28.63
525.936	28.53
526.135	28.47
526.333	28.46
526.532	28.68
526.73	28.66
526.929	28.52
527.127	28.51
527.326	28.54
527.524	28.51
527.723	28.53
527.921	28.44
528.12	28.42
528.318	28.39
528.516	28.38
528.715	28.35
528.913	28.41
529.112	28.47
529.31	28.51
529.508	28.52
529.707	28.58
529.905	28.57
530.103	28.69
530.301	28.81
530.5	28.94
530.698	29
530.896	29.09
531.094	29.13
531.293	29.28
531.491	29.26
531.689	29.28
531.887	29.4
532.085	29.46
532.283	29.49
532.481	29.46
532.68	29.57
532.878	29.54
533.076	29.46
533.274	29.49
533.472	29.4
533.67	29.5
533.868	29.53
534.066	29.45
534.264	29.57
534.462	29.52
534.66	29.46
534.858	29.3
535.056	29.36
535.253	29.49
535.451	29.55
535.649	29.71
535.847	29.67
536.045	29.69
536.243	29.78
536.441	29.59
536.638	29.62
536.836	29.77
537.034	29.96
537.232	29.95
537.43	29.84
537.627	29.87
537.825	29.86
538.023	29.92
538.22	29.83
538.418	29.88
538.616	30
538.813	30
539.011	29.94
539.209	29.82
539.406	29.83
539.604	30.03
539.801	30
539.999	30.01
540.196	30
540.394	30.11
540.591	30.17
540.789	30.22
540.986	30.22
541.184	30.16
541.381	30.18
541.579	30.18
541.776	30.22
541.974	30.24
542.171	30.3
542.368	30.31
542.566	30.33
542.763	30.24
542.96	30.25
543.158	30.23
543.355	30.32
543.552	30.34
543.75	30.44
543.947	30.48
544.144	30.44
544.341	30.44
544.539	30.52
544.736	30.64
544.933	30.78
545.13	30.92
545.327	30.94
545.524	30.94
545.722	30.97
545.919	31.03
546.116	31.11
546.313	31.12
546.51	31.22
546.707	31.26
546.904	31.2
547.101	31.2
547.298	31.11
547.495	31.37
547.692	31.66
547.889	31.77
548.086	31.76
548.283	31.7
548.48	32.01
548.677	32.07
548.874	31.99
549.07	32.18
549.267	32.34
549.464	32.36
549.661	32.47
549.858	32.26
550.055	32.31
550.251	32.43
550.448	32.34
550.645	32.19
550.842	32.18
551.038	32.19
551.235	32.36
551.432	32.41
551.628	32.73
551.825	32.77
552.022	32.81
552.218	32.88
552.415	32.8
552.612	32.97
552.808	33.07
553.005	33.08
553.201	33.32
553.398	33.16
553.594	33.14
553.791	32.91
553.987	32.97
554.184	33.03
554.38	32.98
554.577	33.22
554.773	33.11
554.97	33.12
555.166	33.2
555.362	33.12
555.559	33.13
555.755	33.17
555.952	33.52
556.148	33.32
556.344	33.52
556.541	33.6
556.737	33.36
556.933	33.62
557.129	33.4
557.326	33.38
557.522	33.46
557.718	33.64
557.914	33.62
558.11	33.42
558.307	33.7
558.503	33.7
558.699	33.82
558.895	34.24
559.091	34.31
559.287	34.58
559.483	34.42
559.679	34.6
559.876	34.49
560.072	34.66
560.268	34.73
560.464	34.5
560.66	34.52
560.856	34.59
561.052	34.45
561.247	34.46
561.443	34.44
561.639	34.3
561.835	34.16
562.031	34.32
562.227	34.25
562.423	34.27
562.619	34.41
562.815	34.39
563.01	34.28
563.206	34.36
563.402	34.5
563.598	34.6
563.793	34.95
563.989	35.02
564.185	34.88
564.381	34.89
564.576	34.88
564.772	34.79
564.968	34.87
565.163	34.88
565.359	34.8
565.555	34.72
565.75	34.53
565.946	34.5
566.141	34.64
566.337	34.65
566.532	34.7
566.728	34.89
566.923	35.12
567.119	35.16
567.314	35.15
567.51	35.34
567.705	35.32
567.901	35.44
568.096	35.49
568.292	35.39
568.487	35.58
568.682	35.48
568.878	35.52
569.073	35.29
569.268	35.3
569.464	35.34
569.659	35.2
569.854	35.2
570.05	35.27
570.245	35.2
570.44	35.26
570.635	35.24
570.831	35.24
571.026	35.2
571.221	35.33
571.416	35.27
571.611	35.2
571.806	35.01
572.002	34.97
572.197	35.11
572.392	35.42
572.587	35.44
572.782	35.44
572.977	35.55
573.172	35.47
573.367	35.37
573.562	35.41
573.757	35.56
573.952	35.89
574.147	35.96
574.342	35.74
574.537	35.55
574.732	35.52
574.927	35.52
575.121	35.41
575.316	35.47
575.511	35.46
575.706	35.33
575.901	35.15
576.096	35
576.29	35.08
576.485	35.27
576.68	35.43
576.875	35.51
577.069	35.35
577.264	35.4
577.459	35.33
577.654	35.31
577.848	35.24
578.043	35.12
578.238	35.11
578.432	34.9
578.627	34.87
578.821	34.68
579.016	34.78
579.21	35.19
579.405	35.24
579.6	35.35
579.794	35.44
579.989	35.72
580.183	36.17
580.378	36.23
580.572	36.46
580.766	36.61
580.961	36.58
581.155	36.46
581.35	36.39
581.544	36.67
581.738	36.43
581.933	36.48
582.127	36.36
582.321	36.41
582.516	36.51
582.71	36.36
582.904	36.22
583.099	36.55
583.293	36.43
583.487	36.25
583.681	35.99
583.875	36.22
584.07	36.21
584.264	36.28
584.458	36.12
584.652	36.18
584.846	36.16
585.04	36.25
585.234	35.89
585.428	36.14
585.623	35.97
585.817	36.11
586.011	36.44
586.205	36.48
586.399	36.69
586.593	36.79
586.787	36.68
586.981	36.58
587.174	36.73
587.368	36.67
587.562	36.69
587.756	36.97
587.95	36.81
588.144	36.71
588.338	36.9
588.532	36.82
588.725	36.88
588.919	36.69
589.113	36.97
589.307	36.88
589.501	37.07
589.694	37.07
589.888	36.98
590.082	37.33
590.275	37.24
590.469	37.22
590.663	37.2
590.856	36.94
591.05	37.26
591.244	37.32
591.437	37.29
591.631	37.44
591.824	37.33
592.018	37.42
592.212	37.04
592.405	37.01
592.599	36.84
592.792	36.79
592.986	37.11
593.179	36.95
593.372	36.7
593.566	36.75
593.759	36.31
593.953	36.38
594.146	36.57
594.339	36.76
594.533	36.65
594.726	36.8
594.92	36.52
595.113	36.55
595.306	36.74
595.499	36.77
595.693	36.82
595.886	37.1
596.079	37.09
596.272	36.72
596.466	36.68
596.659	36.77
596.852	36.7
597.045	37.12
597.238	37.1
597.431	36.92
597.624	36.92
597.818	36.79
598.011	36.68
598.204	36.49
598.397	36.56
598.59	36.7
598.783	36.57
598.976	36.64
599.169	36.59
599.362	36.59
599.555	36.88
599.748	36.98
599.941	37.08
600.134	37.2
600.326	37.58
600.519	37.88
600.712	37.57
600.905	37.66
601.098	37.78
601.291	37.81
601.483	37.9
601.676	37.77
601.869	37.8
602.062	37.8
602.255	37.89
602.447	37.82
602.64	37.81
602.833	38.04
603.025	38.22
603.218	38.12
603.411	37.92
603.603	37.58
603.796	37.73
603.989	37.74
604.181	37.84
604.374	37.75
604.566	37.73
604.759	37.77
604.951	37.7
605.144	37.62
605.336	37.54
605.529	37.64
605.721	37.79
605.914	37.61
606.106	37.57
606.299	37.53
606.491	37.62
606.683	37.66
606.876	37.67
607.068	37.82
607.26	37.8
607.453	37.97
607.645	37.79
607.837	37.8
608.03	37.63
608.222	37.7
608.414	37.55
608.606	37.63
608.799	37.53
608.991	37.37
609.183	37.34
609.375	37.33
609.567	37.3
609.759	37.5
609.952	37.61
610.144	37.46
610.336	37.81
610.528	37.89
610.72	37.73
610.912	37.88
611.104	37.97
611.296	37.98
611.488	37.99
611.68	38.04
611.872	38.08
612.064	37.99
612.256	38.48
612.448	38.17
612.64	38.02
612.832	38.14
613.023	37.89
613.215	37.8
613.407	37.56
613.599	37.89
613.791	38.03
613.983	38.06
614.174	38.27
614.366	37.81
614.558	37.72
614.75	38.12
614.941	38
615.133	38.32
615.325	38.46
615.516	38.56
615.708	38.3
615.9	38.21
616.091	38.12
616.283	38.27
616.475	38.56
616.666	38.57
616.858	38.01
617.049	38.05
617.241	37.76
617.432	37.75
617.624	37.49
617.815	37.66
618.007	37.61
618.198	37.69
618.39	37.55
618.581	37.46
618.773	37.73
618.964	37.82
619.155	37.96
619.347	38.1
619.538	38.05
619.729	38.32
619.921	38.5
620.112	38.18
620.303	38.06
620.494	37.91
620.686	38.08
620.877	37.93
621.068	38.31
621.259	38.14
621.451	38.33
621.642	38.58
621.833	38.47
622.024	37.97
622.215	38.07
622.406	37.95
622.597	37.94
622.788	37.97
622.98	37.88
623.171	37.92
623.362	37.82
623.553	37.47
623.744	37.08
623.935	37.23
624.126	37.35
624.317	37.9
624.508	38.2
624.698	37.91
624.889	37.72
625.08	37.66
625.271	37.48
625.462	37.93
625.653	38.21
625.844	38.47
626.034	38.65
626.225	38.7
626.416	38.36
626.607	38.32
626.798	38.68
626.988	38.83
627.179	38.79
627.37	38.71
627.56	38.53
627.751	38.36
627.942	38.18
628.132	37.88
628.323	38.1
628.514	37.95
628.704	37.66
628.895	37.57
629.085	37.72
629.276	37.84
629.466	38.11
629.657	38.17
629.847	38.45
630.038	38.19
630.228	38.29
630.419	38.16
630.609	38.55
630.8	38.86
630.99	38.85
631.181	38.67
631.371	38.45
631.561	38.55
631.752	38.47
631.942	38.31
632.132	38.85
632.323	38.96
632.513	38.79
632.703	38.54
632.893	38.67
633.084	38.68
633.274	38.76
633.464	38.65
633.654	38.58
633.844	38.49
634.034	38.42
634.225	38.48
634.415	38.46
634.605	38.63
634.795	38.69
634.985	38.52
635.175	38.32
635.365	38.37
635.555	38.36
635.745	38.1
635.935	38.27
636.125	38.16
636.315	37.74
636.505	37.58
636.695	37.64
636.885	37.75
637.075	38.03
637.265	38.4
637.455	38.4
637.644	38.68
637.834	39.06
638.024	38.49
638.214	38.4
638.404	38.88
638.593	39.26
638.783	38.81
638.973	38.51
639.163	38.21
639.352	37.96
639.542	37.74
639.732	37.6
639.921	37.07
640.111	37.5
640.301	37.79
640.49	37.39
640.68	37.04
640.87	37.38
641.059	37.51
641.249	37.76
641.438	37.61
641.628	38.05
641.817	38.56
642.007	38.75
642.196	38.85
642.386	38.98
642.575	39
642.764	39.09
642.954	39.1
643.143	38.76
643.333	38.21
643.522	38.49
643.711	38.28
643.901	37.85
644.09	37.85
644.279	37.79
644.469	37.55
644.658	37.43
644.847	37.56
645.036	37.72
645.226	38.11
645.415	38.17
645.604	38.38
645.793	38.76
645.982	38.98
646.171	38.97
646.361	38.93
646.55	38.99
646.739	39.44
646.928	39.35
647.117	39.23
647.306	39.12
647.495	39.13
647.684	38.92
647.873	38.38
648.062	38.02
648.251	37.83
648.44	38.04
648.629	38.23
648.818	37.67
649.007	37.7
649.196	37.53
649.384	37.64
649.573	37.73
649.762	37.78
649.951	37.73
650.14	38.16
650.328	38.53
650.517	37.7
650.706	37.51
650.895	37.86
651.083	37.71
651.272	37.95
651.461	38.03
651.65	38.12
651.838	37.84
652.027	37.9
652.216	37.93
652.404	37.7
652.593	38.21
652.781	38.2
652.97	38.08
653.158	38.1
653.347	38.12
653.535	37.94
653.724	38.01
653.912	38.46
654.101	38.91
654.289	38.33
654.478	38.75
654.666	38.31
654.855	38.32
655.043	38.6
655.231	38.79
655.42	38.37
655.608	38.36
655.796	37.91
655.985	37.26
656.173	36.68
656.361	36.9
656.55	36.55
656.738	37.16
656.926	37.21
657.114	37.26
657.302	37.17
657.491	37.05
657.679	37.22
657.867	37.1
658.055	37.18
658.243	37.32
658.431	37.11
658.619	37.36
658.807	37.24
658.996	37.11
659.184	37.13
659.372	37.16
659.56	37.5
659.748	37.56
659.936	38.1
660.124	38.21
660.311	38.11
660.499	38.47
660.687	38.16
660.875	38.04
661.063	38.24
661.251	37.82
661.439	37.64
661.627	37.34
661.814	37.18
662.002	36.93
662.19	37.25
662.378	37.42
662.565	37.17
662.753	36.89
662.941	37.09
663.129	36.89
663.316	37.41
663.504	37.42
663.692	37.42
663.879	37.52
664.067	37.39
664.254	37.12
664.442	37.11
664.63	37.2
664.817	37.65
665.005	37.79
665.192	37.7
665.38	37.22
665.567	37.46
665.755	37.58
665.942	37.33
666.13	37.52
666.317	36.92
666.504	36.91
666.692	36.98
666.879	36.82
667.067	36.65
667.254	36.86
667.441	36.72
667.629	36.4
667.816	36.26
668.003	36.44
668.19	36.44
668.378	37.2
668.565	37.27
668.752	37.36
668.939	37.33
669.127	37.32
669.314	37.35
669.501	37.86
669.688	37.94
669.875	38.13
670.062	37.96
670.249	38.1
670.436	38
670.623	38.22
670.81	38.22
670.997	38.29
671.184	37.9
671.371	37.73
671.558	37.08
671.745	37.3
671.932	37.36
672.119	37.48
672.306	37.09
672.493	36.59
672.68	36.41
672.867	36.11
673.054	36.01
673.24	36.17
673.427	36.47
673.614	37.13
673.801	37.17
673.988	37.01
674.174	37.53
674.361	37.54
674.548	38.06
674.734	37.7
674.921	37.96
675.108	38.21
675.294	38.32
675.481	37.85
675.668	38.06
675.854	37.9
676.041	38.27
676.227	37.97
676.414	38.2
676.601	38.1
676.787	38.64
676.974	38.92
677.16	38.7
677.347	39.23
677.533	39.33
677.719	38.72
677.906	38.65
678.092	38.33
678.279	37.78
678.465	37.59
678.651	38.03
678.838	37.76
679.024	37.48
679.21	37.28
679.397	36.95
679.583	36.83
679.769	36.89
679.955	36.98
680.142	36.88
680.328	37.23
680.514	36.92
680.7	36.81
680.886	37.06
681.073	37.25
681.259	37.31
681.445	37.36
681.631	37.38
681.817	37.67
682.003	37.88
682.189	37.94
682.375	37.98
682.561	38.44
682.747	37.98
682.933	37.32
683.119	37.16
683.305	37.31
683.491	36.95
683.677	36.96
683.863	36.55
684.049	36.14
684.235	36.44
684.42	36.45
684.606	36.41
684.792	36.78
684.978	37.35
685.164	37.16
685.349	37.25
685.535	37.65
685.721	38.04
685.907	38.54
686.092	38.54
686.278	38.13
686.464	38.45
686.649	38.58
686.835	38.4
687.021	38.03
687.206	38
687.392	37.96
687.577	38.09
687.763	38.19
687.948	38.37
688.134	38.67
688.319	38.39
688.505	38.07
688.69	37.86
688.876	37.79
689.061	38.24
689.247	38.08
689.432	38
689.618	37.35
689.803	37.12
689.988	36.86
690.174	36.47
690.359	37.24
690.544	37.66
690.73	38.11
690.915	38.55
691.1	38.27
691.285	38.64
691.471	38.91
691.656	39.2
691.841	39.27
692.026	39.15
692.211	39.12
692.396	38.45
692.582	37.93
692.767	37.76
692.952	37.28
693.137	37.26
693.322	37.27
693.507	36.71
693.692	37.24
693.877	36.99
694.062	36.97
694.247	36.88
694.432	36.8
694.617	36.73
694.802	36.81
694.987	36.55
695.172	36.7
695.357	36.63
695.541	36.75
695.726	36.09
695.911	36.26
696.096	36.34
696.281	36.46
696.466	36.33
696.65	36.47
696.835	36.3
697.02	36.53
697.204	36.33
697.389	36.64
697.574	37.17
697.759	37.23
697.943	36.66
698.128	37
698.312	36.93
698.497	37.32
698.682	37.4
698.866	37.56
699.051	37.88
699.235	37.63
699.42	37.57
699.604	37.17
699.789	37.29
699.973	37.71
700.158	37.54
700.342	37.76
700.527	37.84
700.711	37.58
700.895	37.37
701.08	36.48
701.264	36.31
701.448	35.7
701.633	35.47
701.817	35.3
702.001	34.53
702.186	33.69
702.37	33.57
702.554	33.08
702.738	32.98
702.923	32.98
703.107	33.58
703.291	34.27
703.475	34.15
703.659	34.62
703.843	34.66
704.027	35.94
704.212	36.82
704.396	36.84
704.58	37.06
704.764	37.1
704.948	36.95
705.132	36.52
705.316	36.99
705.5	37.53
705.684	37.59
705.868	37.37
706.052	37.27
706.235	37.04
706.419	37.18
706.603	37.41
706.787	37.9
706.971	38.39
707.155	38.76
707.339	38.43
707.522	38.35
707.706	38.31
707.89	38.33
708.074	37.35
708.257	37.14
708.441	37.25
708.625	37.4
708.808	36.8
708.992	36.11
709.176	35.93
709.359	35.54
709.543	35.46
709.727	35.54
709.91	35.78
710.094	36.9
710.277	37.3
710.461	37.45
710.644	36.56
710.828	36.61
711.011	36.86
711.195	36.83
711.378	37.63
711.562	37.62
711.745	37.63
711.928	37.66
712.112	36.81
712.295	36.65
712.478	36.29
712.662	36.76
712.845	36.37
713.028	36.23
713.212	35.82
713.395	35.34
713.578	35.35
713.761	34.83
713.945	34.35
714.128	34.76
714.311	34.93
714.494	35.13
714.677	35.39
714.86	35.73
715.043	35.5
715.227	36.03
715.41	35.31
715.593	35.45
715.776	35.41
715.959	35.74
716.142	36.02
716.325	35.65
716.508	36.17
716.691	36.07
716.874	35.59
717.057	35.84
717.239	36.21
717.422	37
717.605	37.38
717.788	38
717.971	38.76
718.154	38.6
718.337	38.8
718.519	37.71
718.702	37.6
718.885	38.32
719.068	38.78
719.25	39.12
719.433	38.92
719.616	38.01
719.798	38
719.981	37.68
720.164	38.21
720.346	37.1
720.529	37.65
720.712	37.11
720.894	37.63
721.077	37.33
721.259	36.68
721.442	36.9
721.624	37.29
721.807	37.34
721.989	37.51
722.172	36.39
722.354	36.49
722.537	35.53
722.719	36.39
722.901	35.44
723.084	35.14
723.266	34.66
723.448	35.3
723.631	34.94
723.813	35.66
723.995	35.4
724.178	35.44
724.36	35.69
724.542	36.99
724.724	36.65
724.907	37.41
725.089	37.41
725.271	38.09
725.453	37.39
725.635	37.67
725.817	36.7
725.999	36.03
726.181	36.64
726.364	36.51
726.546	35.88
726.728	35.37
726.91	35.03
727.092	34.64
727.274	33.84
727.456	33.79
727.638	33.81
727.819	33.84
728.001	33.79
728.183	33.77
728.365	33.35
728.547	33.58
728.729	34.54
728.911	34.94
729.093	34.8
729.274	35.09
729.456	35.29
729.638	35.34
729.82	35.01
730.001	35.04
730.183	34.96
730.365	36.18
730.546	35.95
730.728	36.13
730.91	35.6
731.091	35.87
731.273	35.91
731.455	35.21
731.636	35.81
731.818	35.83
731.999	35.85
732.181	36.59
732.362	35.82
732.544	35.06
732.725	35.44
732.907	34.85
733.088	35.4
733.27	36.38
733.451	36.67
733.633	36.31
733.814	35.35
733.995	35.46
734.177	35.63
734.358	36.38
734.539	37.27
734.721	36.45
734.902	36.27
735.083	35.36
735.264	34.1
735.446	34.5
735.627	33.75
735.808	35.07
735.989	35.45
736.17	34.29
736.351	33.82
736.533	34.24
736.714	34.11
736.895	34.08
737.076	34.99
737.257	34.99
737.438	34.27
737.619	35.2
737.8	35.26
737.981	35.8
738.162	35.89
738.343	35.82
738.524	35.65
738.705	35.81
738.886	37.53
739.067	37.4
739.247	37.76
739.428	37.78
739.609	37.7
739.79	38.31
739.971	37.86
740.151	36.77
740.332	36.7
740.513	36.7
740.694	36.27
740.874	36.03
741.055	37.39
741.236	37.44
741.417	38.58
741.597	38.04
741.778	37.54
741.958	36.29
742.139	37.5
742.32	38.16
742.5	38.45
742.681	38.27
742.861	37.28
743.042	35.61
743.222	36.27
743.403	35.9
743.583	36.21
743.764	36.77
743.944	36.21
744.124	36.02
744.305	37.02
744.485	35.59
744.666	35.75
744.846	37.12
745.026	37.8
745.207	37.02
745.387	36.28
745.567	35.29
745.747	34.53
745.928	36.39
746.108	36.9
746.288	36.5
746.468	37.53
746.648	37.47
746.829	35.77
747.009	34.85
747.189	34.71
747.369	35.73
747.549	36.03
747.729	35.47
747.909	34.62
748.089	33.87
748.269	33.77
748.449	33.49
748.629	33.16
748.809	33.16
748.989	32.67
749.169	33.08
749.349	32.43
749.529	33.38
749.709	33.44
749.889	33.47
750.068	34.58
750.248	33.72
750.428	34.38
750.608	34.1
750.788	35.85
750.967	38.29
751.147	37.65
751.327	37.22
751.507	37.22
751.686	38.4
751.866	38.38
752.046	36.44
752.225	35.55
752.405	34.65
752.585	34.72
752.764	34.24
752.944	32.44
753.123	33.1
753.303	33.39
753.482	32.79
753.662	32.51
753.841	33.43
754.021	35.01
754.2	35.7
754.38	35.77
754.559	37.02
754.739	35.46
754.918	35.19
755.097	34.91
755.277	34.99
755.456	35.21
755.635	34.83
755.815	33.69
755.994	33.22
756.173	32.92
756.352	32.96
756.532	32.6
756.711	34.52
756.89	35.81
757.069	36.23
757.248	36.71
757.427	35.32
757.607	35.58
757.786	34.53
757.965	33.84
758.144	34.69
758.323	34.66
758.502	34.42
758.681	33.87
758.86	33.18
759.039	31.67
759.218	31.89
759.397	32.54
759.576	31.61
759.755	33.47
759.934	35.65
760.113	36.06
760.291	35.44
760.47	36.88
760.649	37.75
760.828	38.28
761.007	39.57
761.186	38.93
761.364	39.43
761.543	38.45
761.722	38.85
761.901	36.3
762.079	34.96
762.258	35.2
762.437	34.03
762.615	32.59
762.794	32.88
762.972	32.46
763.151	32.13
763.33	31.74
763.508	33.1
763.687	32.03
763.865	32.44
764.044	32.82
764.222	32.63
764.401	32.47
764.579	33.29
764.758	33.21
764.936	33.48
765.114	33.44
765.293	33.58
765.471	32.77
765.65	33.53
765.828	34.15
766.006	34.52
766.184	34.45
766.363	34.5
766.541	34.06
766.719	33.05
766.898	34.31
767.076	35.06
767.254	36.32
767.432	36.95
767.61	37.61
767.788	36.53
767.967	35.72
768.145	37.32
768.323	37.67
768.501	35.96
768.679	35.14
768.857	32.71
769.035	31.49
769.213	32.14
769.391	31
769.569	29.16
769.747	29.83
769.925	29.31
770.103	29.61
770.281	29.08
770.459	30.82
770.636	30.61
770.814	31.44
770.992	34.14
771.17	30.89
771.348	31.28
771.525	32.04
771.703	32.66
771.881	31.48
772.059	30.12
772.236	31.75
772.414	32.25
772.592	34.24
772.769	34.67
772.947	31.98
773.125	32.84
773.302	33.51
773.48	34.33
773.657	35.57
773.835	37.26
774.013	36.12
774.19	35.13
774.368	35.6
774.545	35.17
774.723	32.74
774.9	33.28
775.077	33.72
775.255	35.13
775.432	32.96
775.61	30.87
775.787	32.75
775.964	31.94
776.142	32.62
776.319	30.92
776.496	30.32
776.674	32.37
776.851	32.26
777.028	31.88
777.205	28.73
777.382	28.94
777.56	30.13
777.737	29.64
777.914	28.21
778.091	26.86
778.268	30.17
778.445	30.5
778.622	30.37
778.8	31.84
778.977	31.64
779.154	32.41
779.331	32.22
779.508	31.25
779.685	31.65
779.862	34.44
780.038	33.39
780.215	31.71
780.392	32.72
780.569	34.17
780.746	32.76
780.923	32.3
781.1	33.08
781.277	34.33
781.453	34.06
781.63	33.02
781.807	33.26
781.984	35.11
782.16	34.68
782.337	34
782.514	31.79
782.691	30.48
782.867	31.6
783.044	32
783.221	30.19
783.397	31.05
783.574	33.18
783.75	33.1
783.927	32.1
784.103	32.7
784.28	31.59
784.456	32.89
784.633	34.84
784.809	35.92
784.986	33.98
785.162	34.41
785.339	33.95
785.515	30.23
785.692	31.19
785.868	33.79
786.044	32.25
786.221	32.59
786.397	30.92
786.573	32.44
786.749	28.5
786.926	33.15
787.102	34.05
787.278	34.27
787.454	35.66
787.631	34.87
787.807	34.45
787.983	34.48
788.159	34.38
788.335	34.95
788.511	34.2
788.687	34.8
788.863	33.25
789.039	33.53
789.216	32.09
789.392	31.34
789.568	30.72
789.744	29.48
789.919	30.39
790.095	31.46
790.271	32.4
790.447	30.25
790.623	32.12
790.799	29.54
790.975	30.01
791.151	29.25
791.327	29.12
791.502	28.59
791.678	27.1
791.854	27
792.03	26.64
792.205	25.23
792.381	24.5
792.557	25.9
792.733	28.38
792.908	27.01
793.084	30.79
793.259	27.53
793.435	30.1
793.611	30.71
793.786	30.56
793.962	27.77
794.137	26.75
794.313	28.24
794.488	26.05
794.664	25.54
794.839	26.61
795.015	25.89
795.19	28.96
795.366	26.88
795.541	27.08
795.716	26.67
795.892	26.8
796.067	29.81
796.242	29.59
796.418	31.02
796.593	31.14
796.768	33.96
796.944	35.5
797.119	36.45
797.294	38.53
797.469	37.93
797.644	35.5
797.82	37.64
797.995	35.43
798.17	36.17
798.345	35.11
798.52	34.73
798.695	32.6
798.87	32.08
799.045	28.05
799.22	28.03
799.395	28.44
799.57	29.01
799.745	27.48
799.92	27.23
800.095	29.06
800.27	28.29
800.445	27.49
800.62	26.92
800.795	24.53
800.97	27.08
801.145	27.39
801.319	26.58
801.494	29.41
801.669	30.32
801.844	31.79
802.018	28.44
802.193	30.94
802.368	32.22
802.543	32.17
802.717	30.05
802.892	28.9
803.067	28.96
803.241	30.14
803.416	30.71
803.59	30.86
803.765	28.16
803.94	27.34
804.114	25.62
804.289	24.74
804.463	23.78
804.638	28.16
804.812	31.63
804.986	29.96
805.161	30.64
805.335	30.4
805.51	33.43
805.684	32.92
805.858	34.68
806.033	34.9
806.207	36.01
806.381	38.33
806.556	36.51
806.73	35.24
806.904	36.65
807.078	34.24
807.253	33.05
807.427	29.74
807.601	31.31
807.775	27.54
807.949	29.89
808.123	27.48
808.298	20.24
808.472	16.2
808.646	12.3
808.82	9.88
808.994	12.98
809.168	14.73
809.342	15.8
809.516	19.16
809.69	23.03
809.864	22.3
810.038	24.05
810.212	28.31
810.385	32.14
810.559	37.48
810.733	38.69
810.907	39.14
811.081	36.65
811.255	34.74
811.428	30.6
811.602	26.56
811.776	23.98
811.95	22.17
812.123	22.63
812.297	21.27
812.471	16.07
812.644	16.2
812.818	13.13
812.992	19.08
813.165	22.64
813.339	23.28
813.512	26.17
813.686	28.15
813.86	31.88
814.033	29.64
814.207	35.18
814.38	36.66
814.554	38.33
814.727	40.1
814.9	32.14
815.074	32
815.247	33.02
815.421	31.69
815.594	28.13
815.767	21.87
815.941	22.17
816.114	12.92
816.287	15.85
816.46	11.79
816.634	5.51
816.807	9.35
816.98	7.42
817.153	9.76
817.327	8.52
817.5	12.52
817.673	15.2
817.846	18.54
818.019	23.21
818.192	21.14
818.365	21.86
818.538	25.47
818.711	27.83
818.884	26.9
819.057	23
819.23	26.91
819.403	27.35
819.576	28.72
819.749	30.55
819.922	30.8
820.095	31.52
820.268	33.63
820.441	34.68
820.614	34.21
820.786	32.92
820.959	34.68
821.132	35.08
821.305	34.62
821.477	33.42
821.65	32.14
821.823	31.77
821.996	32.27
822.168	31.84
822.341	32.02
822.514	32.74
822.686	33.73
822.859	34.01
823.031	33.6
823.204	33.54
823.376	34.5
823.549	35.07
823.722	34.87
823.894	34.03
824.067	34.08
824.239	33.89
824.411	32.76
824.584	31.43
824.756	30.9
824.929	30.56
825.101	30.07
825.273	29.27
825.446	28.83
825.618	29.6
825.79	30.93
825.963	31.5
826.135	31.1
826.307	32.69
826.479	33.64
826.652	33.32
826.824	34.74
826.996	35.63
827.168	36.49
827.34	35.63
827.512	35.24
827.684	33.99
827.856	33.75
828.029	34.03
828.201	33.56
828.373	35.07
828.545	35.33
828.717	35.82
828.889	35.42
829.061	34.32
829.232	35.17
829.404	37.12
829.576	38.35
829.748	37.51
829.92	36.97
830.092	36.7
830.264	35.45
830.436	36.98
830.607	34.11
830.779	33.36
830.951	32.34
831.123	34.78
831.294	31.47
831.466	30.47
831.638	31.5
831.809	36.23
831.981	33.77
832.153	32.01
832.324	28.54
832.496	27.93
832.667	28.47
832.839	29.28
833.011	26.51
833.182	28.54
833.354	27.73
833.525	27.8
833.697	24.16
833.868	28.66
834.039	26.3
834.211	30.21
834.382	31.55
834.554	32.52
834.725	30.49
834.896	30.17
835.068	31.03
835.239	31.84
835.41	31.44
835.581	32.9
835.753	31.44
835.924	32.9
836.095	28.96
836.266	26.91
836.438	26.64
836.609	30.15
836.78	29.77
836.951	25.89
837.122	24.11
837.293	20.06
837.464	16.55
837.635	15.21
837.806	14.8
837.977	16.86
838.148	18.4
838.319	17.61
838.49	17.1
838.661	19.72
838.832	18.71
839.003	19.63
839.174	25.6
839.345	30.03
839.516	29.55
839.687	34.07
839.857	32.82
840.028	33.8
840.199	31.79
840.37	26.11
840.54	20.02
840.711	23.89
840.882	25.88
841.053	23.87
841.223	19.25
841.394	18.24
841.564	14.66
841.735	18.45
841.906	18.31
842.076	21.55
842.247	29.07
842.417	34.23
842.588	30.55
842.758	30.5
842.929	27.78
843.099	25.36
843.27	24.41
843.44	23.91
843.611	18.81
843.781	14.99
843.951	12.92
844.122	2.4
844.292	1.47
844.462	5.49
844.633	-1
844.803	3.65
844.973	12.34
845.144	13.44
845.314	14.89
845.484	16.08
845.654	9.74
845.824	1.16
845.995	3.85
846.165	10.01
846.335	0.81
846.505	11.37
846.675	18.48
846.845	11.88
847.015	6.33
847.185	3.44
847.355	-11.13
847.525	9.05
847.695	20.75
847.865	38.9
848.035	24.85
848.205	24.51
848.375	22.8
848.545	10.88
848.715	11.99
848.884	22.6
849.054	22.84
849.224	25.57
849.394	27.51
849.564	31.87
849.733	18.59
849.903	26.51
850.073	33.54
850.243	37.74
850.412	43.55
850.582	46.4
850.752	41.22
850.921	39.18
851.091	36.14
851.26	28.2
851.43	28.67
851.599	34.42
851.769	27.59
851.939	30.36
852.108	34.77
852.278	32.43
852.447	25.99
852.616	18.75
852.786	23.06
852.955	38.72
853.125	52.63
853.294	52.32
853.463	54.37
853.633	58.02
853.802	49.83
853.971	56.05
854.141	63.08
854.31	69.64
854.479	78.3
854.648	88.92
854.818	73.04
854.987	60.52
855.156	50.84
855.325	51.86
855.494	47.54
855.663	51.77
855.832	40.92
856.001	39.57
856.171	34.84
856.34	33.85
856.509	23.67
856.678	19.01
856.847	23.19
857.016	21.79
857.185	15.56
857.353	18.81
857.522	21.94
857.691	29.12
857.86	11.54
858.029	9.49
858.198	7.2
858.367	17.57
858.535	21.62
858.704	22.67
858.873	29.49
859.042	25.46
859.21	29.55
859.379	30.1
859.548	21.32
859.717	30.96
859.885	36.66
860.054	27.42
860.222	31.05
860.391	42.8
860.56	40.37
860.728	24.08
860.897	20.2
861.065	16.34
861.234	17.29
861.402	21.26
861.571	1.45
861.739	-6
861.908	4.09
862.076	8.26
862.244	-10.88
862.413	-20.06
862.581	-40.74
862.749	-11.31
862.918	-25.64
863.086	-26.98
863.254	-23.14
863.423	-10.12
863.591	-1.36
863.759	0.09
863.927	11.51
864.096	28.2
864.264	28.62
864.432	35.4
864.6	35.7
864.768	46.05
864.936	53.4
865.104	65
865.272	84.28
865.44	71.49
865.608	90.84
865.776	65.59
865.944	61.83
866.112	57.14
866.28	57.57
866.448	60.53
866.616	63.1
866.784	60.35
866.952	50.82
867.12	46.19
867.288	40.76
867.455	32.83
867.623	48.5
867.791	49.24
867.959	47.47
868.127	47.43
868.294	36.39
868.462	33.62
868.63	25.82
868.797	23.45
868.965	15.23
869.133	26.72
869.3	15.84
869.468	1.29
869.636	-4.61
869.803	25.31
869.971	15.95
870.138	37.33
870.306	38.31
870.473	45.85
870.641	39.21
870.808	37.27
870.975	40.65
871.143	31.8
871.31	33.5
871.478	30.77
871.645	28.88
871.812	29.04
871.98	22.53
872.147	12.72
872.314	-4.13
872.482	4.88
872.649	4.95
872.816	11.74
872.983	19.21
873.15	-0.87
873.318	-4.78
873.485	-14.9
873.652	-11.06
873.819	-8.57
873.986	5.32
874.153	10.33
874.32	20.6
874.487	32.32
874.654	24.31
874.821	33.03
874.988	36.37
875.155	46.05
875.322	40.42
875.489	39.2
875.656	46.13
875.823	45.7
875.99	37.37
876.157	21.25
876.324	18.46
876.49	34.2
876.657	19.68
876.824	6.93
876.991	-4.13
877.157	3.9
877.324	13.79
877.491	2.87
877.658	-4.11
877.824	4.35
877.991	8.31
878.157	4.81
878.324	-28.37
878.491	-21.59
878.657	-8.75
878.824	9.63
878.99	9.93
879.157	-7.63
879.323	-1.79
879.49	-12.28
879.656	-7.4
879.823	7.72
879.989	-8.45
880.156	12.43
880.322	20.34
880.488	17.83
880.655	7.48
880.821	15
880.987	23.91
881.154	16.34
881.32	19.17
881.486	17
881.652	17.04
881.819	23.97
881.985	23.04
882.151	20.96
882.317	22.92
882.483	24.97
882.649	22.98
882.816	22.37
882.982	25.45
883.148	25.71
883.314	28.53
883.48	26.93
883.646	26.32
883.812	26.83
883.978	26.37
884.144	26.58
884.31	26.56
884.476	23.59
884.642	24.97
884.807	23.43
884.973	23.57
885.139	20.4
885.305	19.93
885.471	19.78
885.637	19.07
885.802	21.45
885.968	23.6
886.134	21.31
886.3	22.96
886.465	19.52
886.631	16.5
886.797	21.78
886.962	21.9
887.128	23.46
887.293	17.21
887.459	15.2
887.625	17.18
887.79	9.14
887.956	14.47
888.121	20.96
888.287	22.18
888.452	28.51
888.618	14.46
888.783	12.9
