Data from 2938068_Reflection_1.txt Node
Date: Sat Jul 11 20:44:32 EDT 2015
User: robert
Spectrometer: USB4E03001
Autoset integration time: false
Trigger mode: 4
Integration Time (sec): 1.000000E-1
Scans to average: 10
Electric dark correction enabled: true
Nonlinearity correction enabled: false
Boxcar width: 5
Stray light correction enabled: false
XAxis mode: Wavelengths
Stop averaging: false
Number of Pixels in Spectrum: 3648
>>>>>Begin Spectral Data<<<<<
177.566	579.78
177.785	723.8
178.005	-358.64
178.225	-44.67
178.445	111.35
178.665	-159.85
178.885	-518.92
179.105	134.12
179.324	239.14
179.544	335.54
179.764	347.12
179.984	451.91
180.204	682.63
180.423	-9918.31
180.643	-5085.19
180.863	345.96
181.083	278.98
181.302	537.97
181.522	532.41
181.742	398.71
181.961	1207.9
182.181	981.09
182.401	1162.4
182.621	500
182.84	615.57
183.06	913.31
183.279	1743.84
183.499	791.24
183.719	450.74
183.938	372.62
184.158	442.08
184.377	308.15
184.597	355.36
184.816	242.5
185.036	273.97
185.256	220.34
185.475	241.63
185.695	224.24
185.914	213.19
186.134	183.67
186.353	192.64
186.572	184.16
186.792	147.02
187.011	153.46
187.231	171.48
187.45	172.08
187.67	187.88
187.889	161.7
188.108	221.53
188.328	224.99
188.547	242.47
188.766	338.99
188.986	224.44
189.205	725.27
189.424	226.06
189.644	199.42
189.863	127.38
190.082	97.71
190.302	101.61
190.521	101.94
190.74	94.43
190.959	121.15
191.178	88.71
191.398	111.99
191.617	107.47
191.836	129.59
192.055	111.07
192.274	103.02
192.494	121.49
192.713	120.84
192.932	96.11
193.151	99.55
193.37	83.69
193.589	81.43
193.808	79.51
194.027	57.02
194.246	76.22
194.465	76.36
194.685	91.15
194.904	122.26
195.123	130.62
195.342	106.63
195.561	196.19
195.78	453.9
195.999	1424.1
196.218	291.16
196.436	-94.88
196.655	-47.76
196.874	-1190.34
197.093	-122.52
197.312	-344.43
197.531	704.63
197.75	-292.57
197.969	-2491.91
198.188	495.47
198.407	317.88
198.625	274.52
198.844	439.56
199.063	252.24
199.282	285.1
199.501	211.06
199.719	206.49
199.938	259.09
200.157	176.44
200.376	183.31
200.594	191.44
200.813	195.91
201.032	192.77
201.251	168.98
201.469	261
201.688	526.4
201.907	462.47
202.125	322.36
202.344	292.25
202.563	446.46
202.781	340.93
203	350.1
203.218	442.44
203.437	253.78
203.656	179.42
203.874	183.29
204.093	187.84
204.311	219.78
204.53	230.51
204.748	323.78
204.967	260.15
205.185	356.39
205.404	229.02
205.622	232.53
205.841	812.28
206.059	-482.56
206.278	-269.77
206.496	-4784.55
206.715	533.79
206.933	-356.91
207.151	-177.42
207.37	-220.87
207.588	-212.54
207.806	-113.24
208.025	-253.83
208.243	-412.88
208.461	-215.63
208.68	-671.99
208.898	-1161.72
209.116	-3600.53
209.335	191.05
209.553	144.6
209.771	172.24
209.989	108.62
210.208	98.16
210.426	106.85
210.644	97.78
210.862	110.11
211.081	117.08
211.299	120.81
211.517	110.65
211.735	135.99
211.953	148.02
212.171	130.28
212.39	190.16
212.608	376.05
212.826	340.67
213.044	328.17
213.262	220.58
213.48	151.57
213.698	128.78
213.916	140.62
214.134	167.46
214.352	146.63
214.57	147.48
214.788	134.25
215.006	118.63
215.224	122.31
215.442	129.48
215.66	133.04
215.878	175.44
216.096	184.36
216.314	194.43
216.532	160.18
216.75	192.87
216.968	201.24
217.185	185.82
217.403	211.47
217.621	173.8
217.839	144.6
218.057	133.06
218.275	130.8
218.492	134.62
218.71	120.91
218.928	104.87
219.146	99.77
219.363	97.35
219.581	109.91
219.799	93.77
220.017	126.32
220.234	164.92
220.452	144.38
220.67	142.97
220.887	109.3
221.105	236.1
221.323	-574.31
221.54	264.77
221.758	101.26
221.976	141.89
222.193	442.44
222.411	-679.32
222.629	-371.92
222.846	-499.32
223.064	-676.26
223.281	-2029.31
223.499	-501.53
223.716	367.76
223.934	-537.37
224.151	-376.8
224.369	-241.48
224.586	-143.06
224.804	-138.26
225.021	-143.5
225.239	-159.27
225.456	-119.56
225.674	-102.16
225.891	-115.17
226.108	-90.98
226.326	-103.11
226.543	-67.01
226.76	-54.62
226.978	-63.27
227.195	-63.23
227.413	-46.31
227.63	-42.63
227.847	-44.24
228.064	-31.55
228.282	-22.82
228.499	-13.43
228.716	-9.12
228.934	-7.01
229.151	-8.19
229.368	-5.42
229.585	-4.69
229.802	-3.72
230.02	-0.9
230.237	0.95
230.454	0.13
230.671	-2.61
230.888	-4.75
231.105	-8.56
231.323	-16.5
231.54	-20.09
231.757	-22.14
231.974	-22.84
232.191	-22.89
232.408	-27.89
232.625	-23.33
232.842	-29.02
233.059	-23
233.276	-11.48
233.493	-13.28
233.71	-0.73
233.927	2.85
234.144	2.13
234.361	-1.26
234.578	-9.69
234.795	-9.43
235.012	-13.11
235.229	-11
235.446	-10.04
235.663	-15.84
235.879	-12.32
236.096	-22.94
236.313	-21.37
236.53	-15.88
236.747	-16.75
236.964	-17.82
237.181	-16.6
237.397	-18.24
237.614	-17.58
237.831	-19.57
238.048	-24.57
238.264	-24.23
238.481	-23.21
238.698	-27.5
238.915	-32.42
239.131	-33.74
239.348	-30.83
239.565	-31.17
239.781	-32.8
239.998	-27.26
240.215	-25.51
240.431	-18.19
240.648	-18.08
240.865	-12.94
241.081	-10.02
241.298	-8.07
241.514	-6.9
241.731	-2.29
241.947	-0.63
242.164	3.72
242.38	1.63
242.597	1.64
242.814	1.75
243.03	1.74
243.246	1.25
243.463	0.44
243.679	-0.72
243.896	-0.09
244.112	-1.83
244.329	-0.77
244.545	-4.35
244.762	-2.99
244.978	-2.39
245.194	-3.85
245.411	-1.27
245.627	-0.08
245.843	0.5
246.06	1.67
246.276	1.67
246.492	1.59
246.709	1.01
246.925	2.41
247.141	3.1
247.357	3.34
247.574	4.41
247.79	4.22
248.006	4.14
248.222	4.43
248.439	5.01
248.655	5.24
248.871	5.01
249.087	5.19
249.303	3.94
249.519	3.53
249.736	2.64
249.952	0.48
250.168	-1.22
250.384	-2.96
250.6	-3.44
250.816	-7.19
251.032	-7.89
251.248	-6.36
251.464	-6.28
251.68	-3.33
251.896	-3.76
252.112	-2.72
252.328	-1.39
252.544	-0.18
252.76	1.63
252.976	1.07
253.192	1.36
253.408	-0.45
253.624	-1.08
253.84	-3.11
254.056	-5.77
254.272	-5.61
254.487	-8.83
254.703	-10.56
254.919	-13.63
255.135	-16.62
255.351	-16.91
255.567	-14.32
255.782	-12.08
255.998	-15.5
256.214	-11.06
256.43	-11.58
256.646	-14.26
256.861	-11.59
257.077	-10.61
257.293	-7.29
257.508	-5.45
257.724	-9.57
257.94	-7.28
258.155	-6.75
258.371	-5.02
258.587	-3.97
258.802	-0.64
259.018	1.56
259.234	0.77
259.449	0.65
259.665	0.2
259.88	0.61
260.096	2.26
260.312	1.26
260.527	2.03
260.743	2.74
260.958	2.32
261.174	1.01
261.389	0.55
261.605	0.94
261.82	0.78
262.036	1.85
262.251	0.29
262.466	-0.09
262.682	-0.89
262.897	-2.65
263.113	-5.5
263.328	-6.58
263.543	-6.55
263.759	-9.49
263.974	-8.38
264.189	-6.29
264.405	-7.95
264.62	-3.81
264.835	-4.49
265.051	-3.49
265.266	-3.74
265.481	-3.62
265.696	-3.64
265.912	-5.32
266.127	-2.65
266.342	-1.32
266.557	-1.76
266.773	-3.29
266.988	-4.15
267.203	-2.32
267.418	-1.47
267.633	-1.22
267.848	-1.46
268.064	-1.22
268.279	-0.58
268.494	-0.43
268.709	-2.02
268.924	-3.08
269.139	-2
269.354	-3.31
269.569	-3.18
269.784	-4.28
269.999	-5.67
270.214	-3.6
270.429	-3.79
270.644	-3.37
270.859	-3.42
271.074	-5.27
271.289	-3.66
271.504	-3.65
271.719	-3.32
271.934	-4.12
272.149	-4.22
272.363	-2.3
272.578	-2.65
272.793	-2.28
273.008	-1.89
273.223	-2.28
273.438	-1
273.653	-2.12
273.867	-1.76
274.082	-1.21
274.297	-2.49
274.512	-2.2
274.726	-1.56
274.941	-0.91
275.156	0.39
275.371	-0.8
275.585	-0.42
275.8	0.89
276.015	1.9
276.229	0.23
276.444	-1.11
276.659	-0.04
276.873	-0.26
277.088	-1.82
277.302	-3.11
277.517	-4.53
277.732	-3.66
277.946	-3.88
278.161	-4.87
278.375	-4.76
278.59	-3.63
278.804	-3.09
279.019	-3.54
279.233	-3.56
279.448	-3.3
279.662	-2.51
279.877	-3.9
280.091	-3.58
280.306	-3
280.52	-3.71
280.735	-5.8
280.949	-4.65
281.163	-3.51
281.378	-1.46
281.592	-0.85
281.806	-0.83
282.021	-1.49
282.235	-0.23
282.449	0.23
282.664	0.77
282.878	0.55
283.092	1.99
283.307	1.35
283.521	0.77
283.735	-0.18
283.949	-0.12
284.164	0.07
284.378	0.45
284.592	1.04
284.806	0.63
285.02	-0.24
285.234	0.55
285.449	0.6
285.663	0.84
285.877	0.15
286.091	0.72
286.305	1.12
286.519	1.29
286.733	0.93
286.947	0.12
287.161	-0.57
287.375	-1.13
287.589	-0.53
287.803	-0.99
288.017	-1.87
288.231	-1.56
288.445	-1.36
288.659	-0.98
288.873	-1.86
289.087	-1.44
289.301	-1.07
289.515	-0.23
289.729	1.22
289.943	0.43
290.157	0.11
290.371	0.96
290.584	1.29
290.798	0.38
291.012	0.24
291.226	0.58
291.44	0.51
291.654	-0.7
291.867	-0.72
292.081	-2.46
292.295	-2.26
292.509	-0.68
292.722	-1.08
292.936	-0.05
293.15	0.29
293.364	-0.74
293.577	0.64
293.791	1.69
294.005	3.01
294.218	2.73
294.432	2.97
294.645	2.27
294.859	1.92
295.073	2.63
295.286	1.92
295.5	2.49
295.713	3.63
295.927	2.89
296.14	1.47
296.354	2.01
296.568	2.45
296.781	2.58
296.994	3.66
297.208	3.35
297.421	3.66
297.635	4.33
297.848	4.57
298.062	4.09
298.275	4.26
298.489	5.04
298.702	5.06
298.915	4.92
299.129	5.13
299.342	3.53
299.555	2.64
299.769	1.56
299.982	1.42
300.195	-0.16
300.409	-0.57
300.622	-1.8
300.835	-1
301.048	-1
301.262	-0.72
301.475	0.26
301.688	1.26
301.901	1.97
302.115	2.42
302.328	1.58
302.541	2.49
302.754	3.2
302.967	4.09
303.18	4.05
303.393	2.96
303.607	2.47
303.82	2.25
304.033	2.57
304.246	3.88
304.459	4.75
304.672	5.35
304.885	4.78
305.098	4.44
305.311	5.4
305.524	3.74
305.737	4.74
305.95	4.12
306.163	4
306.376	4.8
306.589	3.18
306.802	1.38
307.015	0.63
307.228	-0.08
307.44	1.09
307.653	-1.65
307.866	0.1
308.079	-0.05
308.292	1.6
308.505	1.01
308.718	0.74
308.93	2.2
309.143	2.58
309.356	2.37
309.569	3.57
309.781	2.91
309.994	4.51
310.207	3.87
310.42	3.53
310.632	3.85
310.845	3.92
311.058	3.16
311.27	3.14
311.483	3.19
311.696	3.96
311.908	2.93
312.121	3.07
312.333	2.87
312.546	2.49
312.759	2.41
312.971	2.05
313.184	2.73
313.396	2.09
313.609	1.33
313.821	1.97
314.034	1.34
314.246	2.1
314.459	1.75
314.671	1.34
314.884	1.82
315.096	1.37
315.309	0.48
315.521	0.09
315.733	1.15
315.946	0.05
316.158	-0.12
316.371	-1.61
316.583	-1.87
316.795	-1.65
317.008	0.58
317.22	0.89
317.432	1.38
317.644	2.1
317.857	1.75
318.069	0.77
318.281	1.9
318.494	1.57
318.706	2.87
318.918	2.64
319.13	1.65
319.342	0.42
319.555	-0.11
319.767	0.07
319.979	0.43
320.191	1.4
320.403	2.81
320.615	2.33
320.827	1.21
321.039	1.88
321.252	1.8
321.464	1.65
321.676	-0.83
321.888	-0.87
322.1	0.99
322.312	-0.77
322.524	-1.64
322.736	-2.25
322.948	-2.51
323.16	-1.65
323.372	-1.53
323.584	-0.64
323.796	-1.32
324.007	1.25
324.219	1.44
324.431	0.05
324.643	0.51
324.855	1.28
325.067	3.47
325.279	4.03
325.491	4.13
325.702	3.23
325.914	3.21
326.126	4.16
326.338	4.1
326.55	4.48
326.761	4.3
326.973	5.43
327.185	4.65
327.396	3.08
327.608	3.29
327.82	3.3
328.032	3.45
328.243	3.15
328.455	3.21
328.666	2.35
328.878	2.15
329.09	0.49
329.301	-0.02
329.513	0.54
329.725	0.41
329.936	0.5
330.148	-0.12
330.359	-0.43
330.571	-0.56
330.782	-1.53
330.994	-2
331.205	-1.89
331.417	-1.22
331.628	-2.69
331.84	-2.57
332.051	-2.78
332.262	-3.68
332.474	-2.66
332.685	-3.21
332.897	-2.48
333.108	-1.69
333.319	-1.56
333.531	-1.99
333.742	-0.47
333.953	0.52
334.165	-0.27
334.376	0.43
334.587	0.81
334.799	0.02
335.01	0.41
335.221	0.03
335.432	0.05
335.644	0.4
335.855	0.02
336.066	-0.48
336.277	-0.21
336.488	0.43
336.7	0.13
336.911	0.81
337.122	1.58
337.333	2.3
337.544	3.47
337.755	3.84
337.966	4.99
338.177	6.44
338.388	6.82
338.599	6.65
338.811	5.83
339.022	5.17
339.233	4.94
339.444	4.35
339.655	4.89
339.866	3.48
340.076	3.53
340.287	2.19
340.498	1.7
340.709	1.91
340.92	1.38
341.131	1.87
341.342	2.33
341.553	1.84
341.764	2.66
341.975	2.68
342.185	2.64
342.396	2.61
342.607	3.63
342.818	3.92
343.029	2.84
343.239	3.51
343.45	3.55
343.661	4.66
343.872	4.82
344.082	5.34
344.293	4.86
344.504	5.95
344.714	6.17
344.925	5.82
345.136	5.06
345.346	5.79
345.557	5.46
345.768	6.23
345.978	4.56
346.189	4.5
346.399	3.57
346.61	4.23
346.821	4.07
347.031	4.63
347.242	3.71
347.452	4.88
347.663	5.05
347.873	5.43
348.084	5.25
348.294	5.48
348.504	5.63
348.715	6.32
348.925	6.57
349.136	6.54
349.346	4.67
349.557	5.67
349.767	4.79
349.977	5.33
350.188	4.69
350.398	4.79
350.608	5.47
350.819	4.63
351.029	4.07
351.239	2.79
351.449	2.71
351.66	4.27
351.87	2.73
352.08	3.33
352.29	2.97
352.501	3.95
352.711	4.44
352.921	4.17
353.131	4.75
353.341	4.96
353.552	4.64
353.762	4.6
353.972	4.27
354.182	6.86
354.392	6.58
354.602	6.8
354.812	6.09
355.022	5.03
355.232	6.11
355.442	5.87
355.652	5.46
355.862	5.94
356.072	5.81
356.282	6.09
356.492	4.76
356.702	4.36
356.912	3.81
357.122	4.9
357.332	5.27
357.542	4.64
357.752	4.73
357.962	5.32
358.171	5.04
358.381	5.16
358.591	4.84
358.801	4.48
359.011	4.43
359.221	3.54
359.43	2.46
359.64	1.68
359.85	1.57
360.06	1.62
360.269	1.56
360.479	1.32
360.689	0.4
360.899	0.76
361.108	1.26
361.318	1.37
361.528	1.97
361.737	2.69
361.947	3.56
362.156	3.51
362.366	3.91
362.576	3.72
362.785	4.19
362.995	5.22
363.204	5.3
363.414	4.73
363.623	4.9
363.833	4.98
364.042	4.37
364.252	4.04
364.461	4.62
364.671	4.3
364.88	4.53
365.09	4.66
365.299	4.16
365.509	3.32
365.718	3.5
365.927	2.97
366.137	2.79
366.346	3.06
366.555	3
366.765	3.29
366.974	3.82
367.183	3.54
367.393	3.18
367.602	3.25
367.811	3.34
368.021	3.51
368.23	4.61
368.439	5.04
368.648	4.94
368.857	5.09
369.067	4.08
369.276	2.72
369.485	2.97
369.694	2.33
369.903	1.74
370.112	2.06
370.321	2.79
370.531	2.16
370.74	1.74
370.949	2.34
371.158	1.72
371.367	2.14
371.576	2.43
371.785	1.54
371.994	3.13
372.203	3.87
372.412	4.23
372.621	3.87
372.83	4.01
373.039	4.42
373.248	3.54
373.457	4.29
373.666	4.43
373.874	4.74
374.083	5.46
374.292	4.73
374.501	4.99
374.71	4.19
374.919	4.47
375.128	4.37
375.336	4.19
375.545	4.55
375.754	4.26
375.963	3.85
376.171	4.14
376.38	4.35
376.589	4.2
376.798	3.94
377.006	4.21
377.215	3.63
377.424	3.93
377.632	3.78
377.841	3.27
378.05	2.93
378.258	2.8
378.467	2.29
378.675	2.08
378.884	2.15
379.093	1.88
379.301	1.65
379.51	1.86
379.718	1.22
379.927	1.31
380.135	1.46
380.344	1.33
380.552	1.14
380.761	1.49
380.969	1.91
381.177	1.95
381.386	2.09
381.594	2.42
381.803	2.57
382.011	2.79
382.219	2.9
382.428	3.54
382.636	4.22
382.845	4.7
383.053	4.15
383.261	3.59
383.469	3.61
383.678	3.33
383.886	2.93
384.094	2.32
384.302	2.28
384.511	2.86
384.719	2.24
384.927	0.99
385.135	0.83
385.343	0.87
385.552	0.85
385.76	0.89
385.968	1.29
386.176	1.83
386.384	2.07
386.592	2.03
386.8	1.7
387.008	2.15
387.216	3.02
387.424	2.94
387.633	2.86
387.841	3.11
388.049	3.06
388.257	3.2
388.465	3.06
388.672	3.35
388.88	3.69
389.088	3.58
389.296	3.3
389.504	3.2
389.712	3.22
389.92	3.86
390.128	3.69
390.336	3.73
390.544	3.38
390.751	3.05
390.959	2.69
391.167	2.11
391.375	2.19
391.583	2.4
391.79	2.49
391.998	2.22
392.206	2.08
392.414	2.14
392.621	1.96
392.829	2.13
393.037	2.3
393.244	2.47
393.452	2.59
393.66	2.43
393.867	2.06
394.075	1.95
394.283	2.41
394.49	2.63
394.698	2.63
394.905	2.71
395.113	2.45
395.32	2.59
395.528	2.53
395.735	2.83
395.943	2.92
396.15	3.19
396.358	3.14
396.565	3.32
396.773	3
396.98	3.07
397.188	2.94
397.395	3.03
397.602	2.57
397.81	2.61
398.017	2.86
398.225	2.85
398.432	2.72
398.639	2.85
398.847	2.34
399.054	2.4
399.261	2.2
399.468	2.11
399.676	2.16
399.883	2.4
400.09	2.36
400.297	2.07
400.505	1.78
400.712	1.8
400.919	2.01
401.126	2.13
401.333	2.13
401.54	2.02
401.748	1.86
401.955	1.85
402.162	2.02
402.369	2.18
402.576	2.25
402.783	2.75
402.99	2.72
403.197	2.72
403.404	2.76
403.611	2.99
403.818	3.28
404.025	3.5
404.232	3.36
404.439	3.16
404.646	3.01
404.853	2.79
405.06	2.82
405.267	2.82
405.474	2.59
405.681	2.69
405.887	2.29
406.094	2.03
406.301	1.96
406.508	1.86
406.715	1.88
406.922	1.92
407.128	1.9
407.335	1.23
407.542	1.3
407.749	1.29
407.955	0.93
408.162	1.37
408.369	1.42
408.575	1.77
408.782	1.61
408.989	1.45
409.195	1.25
409.402	1.39
409.609	1.76
409.815	1.82
410.022	1.63
410.228	2.05
410.435	1.76
410.642	1.79
410.848	1.45
411.055	1.73
411.261	1.86
411.468	1.87
411.674	1.43
411.881	1.14
412.087	0.91
412.294	1.25
412.5	1.08
412.706	1.31
412.913	1.26
413.119	1.67
413.326	1.62
413.532	1.51
413.738	1.49
413.945	1.68
414.151	2.06
414.357	2.29
414.564	2.05
414.77	2.12
414.976	2.06
415.182	2.06
415.389	1.88
415.595	1.92
415.801	2.1
416.007	2.25
416.214	2.36
416.42	2.31
416.626	2.17
416.832	2.16
417.038	1.89
417.244	1.79
417.45	1.71
417.657	1.83
417.863	1.89
418.069	1.77
418.275	2.01
418.481	1.85
418.687	1.87
418.893	2.08
419.099	2.11
419.305	2.26
419.511	2.4
419.717	2.32
419.923	2.19
420.129	2.34
420.335	2.46
420.541	2.3
420.746	2.53
420.952	2.41
421.158	2.2
421.364	2.29
421.57	2.29
421.776	2.24
421.982	2.35
422.187	2.41
422.393	2.34
422.599	2.35
422.805	2.39
423.01	2.34
423.216	2.32
423.422	2.28
423.628	2.13
423.833	2.15
424.039	2.23
424.245	2.28
424.45	2.37
424.656	2.17
424.862	2.19
425.067	2.2
425.273	2.1
425.478	2.09
425.684	2.23
425.889	2.41
426.095	2.34
426.301	2.04
426.506	2.06
426.712	2.08
426.917	2.2
427.123	2.2
427.328	2.06
427.533	1.95
427.739	2.2
427.944	2.13
428.15	1.93
428.355	1.79
428.561	1.94
428.766	1.7
428.971	1.3
429.177	1.32
429.382	1.08
429.587	1.09
429.793	1.15
429.998	1.14
430.203	1.18
430.408	1.38
430.614	1.65
430.819	1.41
431.024	1.42
431.229	1.54
431.434	1.5
431.64	1.8
431.845	1.91
432.05	2.25
432.255	2.07
432.46	1.8
432.665	1.72
432.87	1.56
433.076	1.75
433.281	1.73
433.486	1.64
433.691	1.58
433.896	1.53
434.101	1.44
434.306	1.17
434.511	1.2
434.716	1.41
434.921	1.25
435.126	1.47
435.331	1.43
435.535	1.64
435.74	1.82
435.945	1.96
436.15	1.58
436.355	1.57
436.56	1.54
436.765	1.43
436.97	1.37
437.174	1.49
437.379	1.29
437.584	1.36
437.789	1.18
437.993	1.1
438.198	1.24
438.403	1.33
438.608	1.38
438.812	1.55
439.017	1.74
439.222	1.73
439.426	1.93
439.631	1.9
439.836	1.99
440.04	2.19
440.245	2.23
440.45	2
440.654	2.24
440.859	2.33
441.063	2.41
441.268	2.32
441.472	2.38
441.677	2.14
441.881	2.04
442.086	1.93
442.29	1.73
442.495	1.75
442.699	1.86
442.904	1.64
443.108	1.72
443.312	1.54
443.517	1.55
443.721	1.5
443.925	1.61
444.13	1.76
444.334	1.79
444.538	1.95
444.743	1.94
444.947	1.89
445.151	2.09
445.356	2.04
445.56	2.05
445.764	1.96
445.968	2.07
446.173	2.21
446.377	2.3
446.581	2.32
446.785	2.28
446.989	2.2
447.193	2.17
447.398	2.04
447.602	2.03
447.806	2.07
448.01	1.91
448.214	1.95
448.418	1.7
448.622	1.53
448.826	1.44
449.03	1.46
449.234	1.55
449.438	1.55
449.642	1.54
449.846	1.46
450.05	1.3
450.254	1.65
450.458	1.36
450.662	1.25
450.866	1.28
451.069	1.17
451.273	1.01
451.477	0.89
451.681	1.05
451.885	1.08
452.089	1.04
452.292	1.14
452.496	1.09
452.7	1.17
452.904	1.43
453.107	1.41
453.311	1.44
453.515	1.26
453.719	1.2
453.922	1.05
454.126	1.08
454.33	0.97
454.533	1
454.737	1.02
454.94	0.88
455.144	0.97
455.348	1.14
455.551	1.27
455.755	1.27
455.958	1.14
456.162	1.2
456.365	1.11
456.569	1.33
456.772	1.12
456.976	1.17
457.179	1.27
457.383	1.11
457.586	1.32
457.79	1.35
457.993	1.54
458.196	1.82
458.4	1.97
458.603	1.99
458.807	1.9
459.01	1.95
459.213	1.9
459.417	1.98
459.62	2.06
459.823	1.93
460.026	1.85
460.23	1.86
460.433	1.87
460.636	1.74
460.839	1.73
461.042	1.74
461.246	1.76
461.449	1.65
461.652	1.51
461.855	1.49
462.058	1.4
462.261	1.39
462.464	1.44
462.668	1.2
462.871	1.2
463.074	1.23
463.277	1.13
463.48	1.14
463.683	1.28
463.886	1.49
464.089	1.48
464.292	1.5
464.495	1.51
464.698	1.53
464.901	1.81
465.104	1.74
465.306	1.86
465.509	1.75
465.712	1.85
465.915	1.99
466.118	1.79
466.321	1.49
466.524	1.41
466.726	1.44
466.929	1.51
467.132	1.34
467.335	1.54
467.538	1.61
467.74	1.88
467.943	1.84
468.146	1.73
468.348	1.94
468.551	2.21
468.754	2.45
468.956	2.44
469.159	2.34
469.362	2.48
469.564	2.24
469.767	2.21
469.969	1.95
470.172	1.93
470.375	2
470.577	2.01
470.78	1.7
470.982	1.42
471.185	1.48
471.387	1.5
471.59	1.41
471.792	1.36
471.995	1.15
472.197	1.38
472.399	1.32
472.602	1.27
472.804	1.09
473.007	1.26
473.209	1.33
473.411	1.52
473.614	1.54
473.816	1.6
474.018	1.64
474.22	1.74
474.423	1.74
474.625	1.82
474.827	1.67
475.03	1.69
475.232	1.63
475.434	1.53
475.636	1.33
475.838	1.43
476.04	1.44
476.243	1.51
476.445	1.41
476.647	1.21
476.849	1.22
477.051	1.31
477.253	1.39
477.455	1.64
477.657	1.71
477.859	1.86
478.061	1.66
478.263	1.59
478.465	1.7
478.667	1.7
478.869	1.7
479.071	1.66
479.273	1.69
479.475	1.73
479.677	1.66
479.879	1.64
480.081	1.67
480.283	1.75
480.485	1.8
480.686	1.78
480.888	1.69
481.09	1.73
481.292	1.75
481.494	1.85
481.695	1.91
481.897	2.01
482.099	2.11
482.301	1.99
482.502	2.08
482.704	2.18
482.906	2.1
483.107	2.19
483.309	2.27
483.511	2.26
483.712	2.15
483.914	2.13
484.115	2.07
484.317	2.07
484.519	2.12
484.72	2.11
484.922	2.04
485.123	2.06
485.325	2.04
485.526	1.97
485.728	2.06
485.929	2.1
486.131	2.03
486.332	2.02
486.534	2.03
486.735	2
486.936	1.91
487.138	2.02
487.339	2.05
487.541	2.01
487.742	2.01
487.943	1.95
488.144	2
488.346	2.06
488.547	2.05
488.748	1.97
488.95	1.92
489.151	2
489.352	1.88
489.553	1.86
489.755	1.94
489.956	1.99
490.157	1.96
490.358	1.88
490.559	1.85
490.76	2
490.961	2.12
491.163	2.2
491.364	2.16
491.565	2.2
491.766	2.22
491.967	2.27
492.168	2.26
492.369	2.25
492.57	2.32
492.771	2.39
492.972	2.43
493.173	2.42
493.374	2.43
493.575	2.38
493.776	2.44
493.976	2.33
494.177	2.19
494.378	2.24
494.579	2.32
494.78	2.21
494.981	2.17
495.182	2.03
495.382	1.89
495.583	1.74
495.784	1.87
495.985	1.78
496.185	2.1
496.386	2.11
496.587	2.1
496.788	2.07
496.988	2.23
497.189	2.22
497.39	2.09
497.59	2.17
497.791	2.26
497.992	2.03
498.192	2.13
498.393	1.93
498.593	2.02
498.794	1.99
498.994	1.89
499.195	1.86
499.395	1.95
499.596	2
499.796	2.07
499.997	2
500.197	2.19
500.398	2.06
500.598	1.99
500.799	1.98
500.999	2.01
501.199	2.03
501.4	2.08
501.6	1.98
501.801	2.01
502.001	2.05
502.201	2.17
502.402	2.27
502.602	2.19
502.802	2.33
503.002	2.21
503.203	2.26
503.403	2.31
503.603	2.33
503.803	2.32
504.003	2.3
504.204	2.19
504.404	2.05
504.604	1.83
504.804	2.04
505.004	2.01
505.204	1.93
505.404	1.9
505.604	1.98
505.804	1.93
506.005	1.74
506.205	1.74
506.405	1.75
506.605	1.75
506.805	1.9
507.005	1.89
507.204	1.84
507.404	1.96
507.604	2.08
507.804	2.1
508.004	2.13
508.204	2.35
508.404	2.29
508.604	2.39
508.804	2.56
509.003	2.57
509.203	2.49
509.403	2.6
509.603	2.75
509.803	2.64
510.002	2.73
510.202	2.66
510.402	2.59
510.602	2.62
510.801	2.55
511.001	2.55
511.201	2.49
511.4	2.46
511.6	2.5
511.8	2.32
511.999	2.26
512.199	2.13
512.398	2.2
512.598	2.27
512.797	2.29
512.997	2.23
513.197	2.13
513.396	2.27
513.596	2.28
513.795	2.1
513.994	2.15
514.194	2.3
514.393	2.19
514.593	2.25
514.792	2.2
514.992	2.25
515.191	2.18
515.39	2.21
515.59	2.28
515.789	2.32
515.988	2.29
516.188	2.43
516.387	2.36
516.586	2.45
516.786	2.28
516.985	2.43
517.184	2.5
517.383	2.64
517.582	2.69
517.782	2.61
517.981	2.65
518.18	2.81
518.379	2.74
518.578	2.67
518.777	2.75
518.976	2.98
519.176	2.92
519.375	2.89
519.574	2.91
519.773	3.01
519.972	2.99
520.171	3.06
520.37	3.09
520.569	3.16
520.768	3.32
520.967	3.37
521.166	3.22
521.365	3.06
521.564	3.03
521.762	2.93
521.961	2.76
522.16	2.81
522.359	2.88
522.558	2.78
522.757	2.7
522.956	2.73
523.154	2.62
523.353	2.51
523.552	2.76
523.751	2.9
523.949	3.09
524.148	3.2
524.347	3.25
524.546	3.2
524.744	3.21
524.943	3.21
525.142	3.12
525.34	3.14
525.539	3.24
525.737	3.26
525.936	3.27
526.135	3.17
526.333	3.23
526.532	3.28
526.73	3.34
526.929	3.46
527.127	3.54
527.326	3.68
527.524	3.71
527.723	3.76
527.921	3.83
528.12	3.9
528.318	3.98
528.516	3.95
528.715	3.94
528.913	3.92
529.112	3.89
529.31	3.93
529.508	3.86
529.707	3.9
529.905	3.89
530.103	3.82
530.301	3.82
530.5	3.85
530.698	3.86
530.896	3.92
531.094	4.04
531.293	4.06
531.491	4.06
531.689	4.16
531.887	4.18
532.085	4.23
532.283	4.21
532.481	4.16
532.68	4.12
532.878	4.18
533.076	4.17
533.274	4.06
533.472	4.08
533.67	3.98
533.868	4.05
534.066	4.07
534.264	4.06
534.462	4.12
534.66	4.09
534.858	4.19
535.056	4.08
535.253	4.08
535.451	4.12
535.649	4.2
535.847	4.33
536.045	4.31
536.243	4.34
536.441	4.41
536.638	4.41
536.836	4.4
537.034	4.39
537.232	4.46
537.43	4.53
537.627	4.6
537.825	4.68
538.023	4.7
538.22	4.51
538.418	4.44
538.616	4.39
538.813	4.33
539.011	4.34
539.209	4.33
539.406	4.52
539.604	4.56
539.801	4.65
539.999	4.56
540.196	4.65
540.394	4.76
540.591	4.97
540.789	5.09
540.986	5.15
541.184	5.22
541.381	5.31
541.579	5.25
541.776	5.24
541.974	5.27
542.171	5.41
542.368	5.46
542.566	5.55
542.763	5.49
542.96	5.5
543.158	5.49
543.355	5.56
543.552	5.56
543.75	5.48
543.947	5.58
544.144	5.61
544.341	5.46
544.539	5.42
544.736	5.54
544.933	5.54
545.13	5.46
545.327	5.49
545.524	5.49
545.722	5.52
545.919	5.71
546.116	5.65
546.313	5.59
546.51	5.7
546.707	5.76
546.904	5.65
547.101	5.68
547.298	5.84
547.495	5.98
547.692	5.97
547.889	6.06
548.086	6.08
548.283	6.21
548.48	6.34
548.677	6.32
548.874	6.23
549.07	6.27
549.267	6.35
549.464	6.43
549.661	6.44
549.858	6.45
550.055	6.26
550.251	6.36
550.448	6.52
550.645	6.35
550.842	6.58
551.038	6.69
551.235	6.84
551.432	6.96
551.628	6.9
551.825	6.96
552.022	7.14
552.218	7.31
552.415	7.37
552.612	7.15
552.808	7.4
553.005	7.4
553.201	7.53
553.398	7.51
553.594	7.62
553.791	7.88
553.987	8.08
554.184	8.14
554.38	8.25
554.577	8.35
554.773	8.33
554.97	8.27
555.166	8.4
555.362	8.57
555.559	8.75
555.755	8.66
555.952	8.43
556.148	8.34
556.344	8.43
556.541	8.51
556.737	8.47
556.933	8.57
557.129	8.77
557.326	8.61
557.522	8.49
557.718	8.49
557.914	8.64
558.11	8.94
558.307	8.74
558.503	8.7
558.699	8.71
558.895	8.94
559.091	8.9
559.287	8.95
559.483	9.04
559.679	9.07
559.876	8.96
560.072	8.8
560.268	8.57
560.464	8.75
560.66	8.73
560.856	8.8
561.052	8.5
561.247	8.91
561.443	8.88
561.639	8.92
561.835	9.08
562.031	9.44
562.227	9.8
562.423	9.88
562.619	10.07
562.815	10.36
563.01	10.4
563.206	10.95
563.402	10.99
563.598	11.12
563.793	11.34
563.989	11.28
564.185	11.01
564.381	10.7
564.576	10.94
564.772	10.98
564.968	10.9
565.163	10.96
565.359	10.82
565.555	10.92
565.75	10.88
565.946	10.82
566.141	10.93
566.337	11.1
566.532	11.49
566.728	11.61
566.923	11.93
567.119	11.98
567.314	12.08
567.51	12.06
567.705	11.96
567.901	12.21
568.096	12.44
568.292	12.63
568.487	12.8
568.682	12.62
568.878	12.72
569.073	12.85
569.268	12.89
569.464	12.96
569.659	12.94
569.854	13.27
570.05	13.27
570.245	13.41
570.44	13.35
570.635	13.19
570.831	13.5
571.026	13.48
571.221	13.28
571.416	13.45
571.611	13.56
571.806	13.89
572.002	13.9
572.197	13.97
572.392	13.77
572.587	13.94
572.782	14.11
572.977	14.14
573.172	14.13
573.367	14.28
573.562	14.3
573.757	14.1
573.952	14.02
574.147	13.96
574.342	13.82
574.537	13.91
574.732	14.04
574.927	14.15
575.121	14.12
575.316	14.2
575.511	14.27
575.706	14.31
575.901	14.58
576.096	14.59
576.29	14.6
576.485	14.73
576.68	14.85
576.875	14.86
577.069	14.97
577.264	14.92
577.459	14.98
577.654	14.91
577.848	15.02
578.043	15.09
578.238	15.27
578.432	15.59
578.627	15.58
578.821	15.61
579.016	15.61
579.21	15.59
579.405	15.66
579.6	15.87
579.794	15.95
579.989	16.05
580.183	16.02
580.378	15.89
580.572	15.48
580.766	15.69
580.961	15.8
581.155	15.79
581.35	15.6
581.544	15.81
581.738	15.45
581.933	15.39
582.127	15.3
582.321	15.34
582.516	15.56
582.71	15.99
582.904	15.96
583.099	15.6
583.293	15.5
583.487	15.86
583.681	15.65
583.875	16.01
584.07	15.84
584.264	15.88
584.458	15.9
584.652	15.83
584.846	15.84
585.04	15.87
585.234	16.39
585.428	16.6
585.623	16.48
585.817	16.68
586.011	16.41
586.205	16.71
586.399	16.7
586.593	16.64
586.787	16.67
586.981	16.49
587.174	16.53
587.368	16.28
587.562	16.22
587.756	16.47
587.95	16.51
588.144	16.76
588.338	16.81
588.532	16.91
588.725	16.83
588.919	16.86
589.113	17
589.307	17.08
589.501	16.91
589.694	16.88
589.888	16.94
590.082	17.01
590.275	17.08
590.469	16.94
590.663	16.85
590.856	17.28
591.05	17.33
591.244	17.23
591.437	17.05
591.631	17.26
591.824	17.35
592.018	17.06
592.212	16.99
592.405	16.54
592.599	16.78
592.792	16.73
592.986	16.34
593.179	16.33
593.372	16.33
593.566	16.37
593.759	16.64
593.953	16.82
594.146	16.8
594.339	16.88
594.533	17.28
594.726	17.48
594.92	17.5
595.113	17.79
595.306	17.74
595.499	17.61
595.693	17.83
595.886	17.89
596.079	17.77
596.272	17.83
596.466	17.89
596.659	18.06
596.852	17.88
597.045	18.19
597.238	18.16
597.431	17.98
597.624	18.08
597.818	18.13
598.011	18.01
598.204	18.04
598.397	17.99
598.59	17.88
598.783	17.57
598.976	17.54
599.169	17.18
599.362	17.15
599.555	17.6
599.748	17.68
599.941	17.45
600.134	17.39
600.326	17.58
600.519	17.54
600.712	17.63
600.905	17.58
601.098	17.41
601.291	17.48
601.483	17.36
601.676	17.12
601.869	17.22
602.062	17.28
602.255	17.27
602.447	17.15
602.64	17.49
602.833	17.51
603.025	17.49
603.218	17.91
603.411	17.99
603.603	18.14
603.796	18.43
603.989	18.3
604.181	18.22
604.374	18.32
604.566	18.22
604.759	18.2
604.951	18.15
605.144	18.39
605.336	18.13
605.529	18.25
605.721	18.26
605.914	18.03
606.106	18.03
606.299	18.14
606.491	17.93
606.683	17.8
606.876	17.62
607.068	17.77
607.26	17.67
607.453	17.71
607.645	17.48
607.837	17.52
608.03	17.58
608.222	17.99
608.414	18.04
608.606	18.33
608.799	18.54
608.991	18.58
609.183	18.49
609.375	18.46
609.567	18.51
609.759	18.62
609.952	18.39
610.144	18.15
610.336	18.09
610.528	18.15
610.72	18.01
610.912	17.88
611.104	17.86
611.296	17.88
611.488	17.89
611.68	17.74
611.872	17.73
612.064	18
612.256	18.23
612.448	18.21
612.64	18.19
612.832	18.37
613.023	18.63
613.215	18.5
613.407	18.7
613.599	18.58
613.791	18.86
613.983	18.92
614.174	18.67
614.366	18.82
614.558	18.45
614.75	18.42
614.941	18.29
615.133	18.19
615.325	18.36
615.516	18.16
615.708	18.35
615.9	18.12
616.091	18.2
616.283	18.25
616.475	17.85
616.666	17.77
616.858	17.48
617.049	17.48
617.241	17.34
617.432	17.19
617.624	17.12
617.815	17.08
618.007	17.28
618.198	17.31
618.39	17.26
618.581	17.38
618.773	17.7
618.964	17.68
619.155	17.78
619.347	18
619.538	18.38
619.729	18.57
619.921	18.4
620.112	18.41
620.303	18.06
620.494	18
620.686	18.24
620.877	18.34
621.068	18.89
621.259	18.47
621.451	18.42
621.642	18.09
621.833	17.8
622.024	18.07
622.215	17.86
622.406	18.44
622.597	18.5
622.788	18.23
622.98	18.48
623.171	18.09
623.362	18.5
623.553	18.28
623.744	18.54
623.935	18.69
624.126	18.85
624.317	18.94
624.508	18.91
624.698	18.78
624.889	19.02
625.08	18.86
625.271	18.91
625.462	18.9
625.653	19.08
625.844	19.03
626.034	19.1
626.225	19
626.416	18.85
626.607	18.83
626.798	19.03
626.988	19.1
627.179	18.85
627.37	19.06
627.56	18.78
627.751	18.56
627.942	18.5
628.132	18.29
628.323	18.18
628.514	18.38
628.704	18.22
628.895	18.13
629.085	18.07
629.276	18.36
629.466	18.24
629.657	18.71
629.847	18.84
630.038	18.84
630.228	19.16
630.419	19.29
630.609	19.15
630.8	18.97
630.99	19.14
631.181	19.2
631.371	19.02
631.561	19.09
631.752	18.97
631.942	19.08
632.132	19.3
632.323	18.87
632.513	18.89
632.703	18.84
632.893	18.92
633.084	18.72
633.274	18.68
633.464	18.71
633.654	18.89
633.844	18.63
634.034	18.71
634.225	18.24
634.415	18.47
634.605	18.46
634.795	18.58
634.985	18.62
635.175	18.83
635.365	18.88
635.555	19.03
635.745	18.8
635.935	18.9
636.125	18.95
636.315	19.28
636.505	19.42
636.695	19.42
636.885	19.73
637.075	19.65
637.265	19.45
637.455	19.34
637.644	19.1
637.834	19
638.024	19.53
638.214	19.41
638.404	19.27
638.593	19.16
638.783	19.47
638.973	19.53
639.163	19.18
639.352	19.36
639.542	19.23
639.732	19.39
639.921	19.62
640.111	19.25
640.301	19.09
640.49	19.39
640.68	19.44
640.87	19.15
641.059	18.47
641.249	18.95
641.438	18.7
641.628	18.62
641.817	18.57
642.007	18.61
642.196	18.05
642.386	18.25
642.575	17.9
642.764	17.43
642.954	17.44
643.143	17.83
643.333	17.82
643.522	17.48
643.711	18
643.901	18.04
644.09	17.98
644.279	18.58
644.469	18.32
644.658	18.35
644.847	18.83
645.036	19.07
645.226	19.03
645.415	18.84
645.604	18.95
645.793	18.99
645.982	18.87
646.171	18.46
646.361	18.24
646.55	18.87
646.739	19.08
646.928	19.44
647.117	19.16
647.306	18.82
647.495	18.81
647.684	19.12
647.873	18.95
648.062	19.09
648.251	19.24
648.44	19.49
648.629	18.95
648.818	19.13
649.007	19.07
649.196	19.18
649.384	19.47
649.573	19.54
649.762	20.04
649.951	19.84
650.14	19.94
650.328	20.2
650.517	19.91
650.706	19.95
650.895	19.83
651.083	19.28
651.272	18.95
651.461	19.21
651.65	18.94
651.838	18.54
652.027	18.79
652.216	18.71
652.404	18.96
652.593	19.02
652.781	19.35
652.97	19.45
653.158	19.91
653.347	20.08
653.535	19.95
653.724	20.18
653.912	20.17
654.101	20.03
654.289	19.76
654.478	19.34
654.666	19.83
654.855	19.84
655.043	19.78
655.231	19.77
655.42	19.55
655.608	19.44
655.796	19.68
655.985	19.56
656.173	19.32
656.361	19.72
656.55	19.23
656.738	19.12
656.926	18.79
657.114	18.54
657.302	18.3
657.491	18.69
657.679	18.81
657.867	18.61
658.055	18.95
658.243	19.57
658.431	19.63
658.619	19.94
658.807	19.87
658.996	20.01
659.184	19.86
659.372	19.93
659.56	19.86
659.748	20.03
659.936	20.23
660.124	20.44
660.311	20.13
660.499	20.16
660.687	20.22
660.875	20.17
661.063	19.88
661.251	20.54
661.439	20.61
661.627	21.07
661.814	20.94
662.002	21.4
662.19	21.35
662.378	21.73
662.565	21.51
662.753	21.47
662.941	21.38
663.129	21.49
663.316	21.05
663.504	21.17
663.692	20.68
663.879	20.35
664.067	19.31
664.254	18.97
664.442	18.66
664.63	18.92
664.817	18.76
665.005	18.89
665.192	19.19
665.38	19.15
665.567	19.12
665.755	19.19
665.942	19.44
666.13	19.68
666.317	19.67
666.504	19.42
666.692	18.97
666.879	19.1
667.067	19.45
667.254	19.93
667.441	20.08
667.629	20.07
667.816	19.88
668.003	19.68
668.19	20
668.378	19.65
668.565	19.75
668.752	19.59
668.939	19.5
669.127	19.01
669.314	18.63
669.501	19.1
669.688	18.91
669.875	19.19
670.062	19.54
670.249	19.43
670.436	19.76
670.623	19.77
670.81	19.92
670.997	20.04
671.184	19.94
671.371	19.92
671.558	19.54
671.745	19.68
671.932	19.66
672.119	19.16
672.306	18.84
672.493	18.43
672.68	19.03
672.867	19.59
673.054	19.29
673.24	19.5
673.427	18.93
673.614	18.53
673.801	18.78
673.988	18.49
674.174	19.2
674.361	19.65
674.548	20.03
674.734	19.65
674.921	18.97
675.108	19.57
675.294	19.46
675.481	19.98
675.668	20.34
675.854	20.18
676.041	20.16
676.227	19.76
676.414	19.77
676.601	20.17
676.787	19.5
676.974	19.91
677.16	19.52
677.347	20.02
677.533	19.92
677.719	20.2
677.906	19.74
678.092	20.02
678.279	20.25
678.465	20.04
678.651	19.61
678.838	20.18
679.024	20.13
679.21	20.1
679.397	19.51
679.583	19.44
679.769	18.92
679.955	19.11
680.142	19.03
680.328	18.83
680.514	19.02
680.7	19.11
680.886	19.14
681.073	18.65
681.259	18.59
681.445	18.62
681.631	18.51
681.817	18.53
682.003	18.54
682.189	18.32
682.375	18.3
682.561	18.07
682.747	18.25
682.933	17.85
683.119	18.36
683.305	19.08
683.491	19.41
683.677	19.5
683.863	19.9
684.049	19.25
684.235	19.12
684.42	19.18
684.606	18.93
684.792	19.01
684.978	19.15
685.164	19.61
685.349	19.28
685.535	19.24
685.721	19.77
685.907	19.48
686.092	20.05
686.278	20.06
686.464	19.9
686.649	20.18
686.835	19.8
687.021	19.62
687.206	19.16
687.392	19.3
687.577	18.97
687.763	18.53
687.948	18.56
688.134	18.97
688.319	19.5
688.505	19.62
688.69	19.91
688.876	19.87
689.061	20.05
689.247	20.2
689.432	19.79
689.618	20.08
689.803	20.62
689.988	20.51
690.174	20.04
690.359	19.81
690.544	19.77
690.73	19.97
690.915	20.07
691.1	19.93
691.285	19.47
691.471	19.38
691.656	19.22
691.841	19.04
692.026	19.69
692.211	19.91
692.396	19.76
692.582	19.96
692.767	19.85
692.952	20.46
693.137	20.36
693.322	20.26
693.507	20.45
693.692	20.72
693.877	20.81
694.062	19.95
694.247	19.9
694.432	20
694.617	20.05
694.802	19.96
694.987	19.52
695.172	19.52
695.357	19.65
695.541	19.61
695.726	19.76
695.911	19.29
696.096	19.31
696.281	19.4
696.466	19.48
696.65	19.31
696.835	19.25
697.02	19.28
697.204	19.36
697.389	19.61
697.574	20.11
697.759	20.27
697.943	20.24
698.128	20.61
698.312	20.73
698.497	20.7
698.682	20.98
698.866	20.9
699.051	20.8
699.235	20.77
699.42	20.42
699.604	20.01
699.789	19.33
699.973	19.29
700.158	19.05
700.342	19.04
700.527	19.17
700.711	18.48
700.895	18.25
701.08	18.14
701.264	18.09
701.448	18.52
701.633	18.54
701.817	19.09
702.001	19.31
702.186	19.96
702.37	20.23
702.554	19.86
702.738	19.98
702.923	20.25
703.107	20.33
703.291	20.75
703.475	21.19
703.659	21.26
703.843	20.53
704.027	20.4
704.212	19.57
704.396	18.4
704.58	18.58
704.764	18.43
704.948	18.44
705.132	18.5
705.316	18.34
705.5	17.9
705.684	18.14
705.868	18.23
706.052	18.31
706.235	18.58
706.419	18.79
706.603	17.91
706.787	18.7
706.971	18.23
707.155	18.73
707.339	18.73
707.522	18.71
707.706	17.85
707.89	18.18
708.074	17.43
708.257	17.1
708.441	16.94
708.625	17.42
708.808	17.22
708.992	18.17
709.176	17.23
709.359	17.47
709.543	17.55
709.727	18.38
709.91	18.65
710.094	19.65
710.277	19.82
710.461	20.28
710.644	20.64
710.828	20.49
711.011	20.17
711.195	20.65
711.378	20.27
711.562	20.38
711.745	20.15
711.928	20.11
712.112	19.97
712.295	19.9
712.478	20.16
712.662	20.13
712.845	19.61
713.028	19.2
713.212	19.47
713.395	19.31
713.578	19.09
713.761	18.24
713.945	17.89
714.128	17.77
714.311	17.77
714.494	17.42
714.677	17.4
714.86	18.34
715.043	18.83
715.227	18.76
715.41	18.89
715.593	18.24
715.776	19.54
715.959	20.48
716.142	20.72
716.325	20.28
716.508	20.43
716.691	20.09
716.874	19.47
717.057	18.68
717.239	18.61
717.422	17.99
717.605	18.32
717.788	18.3
717.971	18.17
718.154	18.62
718.337	19.61
718.519	19.62
718.702	20.23
718.885	21.04
719.068	21.6
719.25	21.26
719.433	22.36
719.616	22.57
719.798	21.82
719.981	21.43
720.164	19.69
720.346	19.07
720.529	18.87
720.712	17.89
720.894	17.66
721.077	17.62
721.259	17.77
721.442	17.6
721.624	18.15
721.807	18.16
721.989	18.07
722.172	19.38
722.354	18.66
722.537	18.88
722.719	18.55
722.901	18.35
723.084	17.76
723.266	18.14
723.448	17.74
723.631	17.53
723.813	16.66
723.995	16.54
724.178	16.9
724.36	17.82
724.542	18.34
724.724	18.72
724.907	19.26
725.089	20.27
725.271	19.03
725.453	19.35
725.635	19.16
725.817	19.67
725.999	19.62
726.181	18.39
726.364	18.02
726.546	17.53
726.728	17.8
726.91	17.52
727.092	16.57
727.274	18.66
727.456	18.74
727.638	19.18
727.819	19.53
728.001	19.26
728.183	19.51
728.365	19.56
728.547	19.68
728.729	19.9
728.911	18.13
729.093	18.26
729.274	17.32
729.456	16.04
729.638	16.23
729.82	15.76
730.001	15.53
730.183	15.82
730.365	16.03
730.546	15.7
730.728	16.44
730.91	17.37
731.091	18.06
731.273	18.29
731.455	20.27
731.636	20.28
731.818	21.09
731.999	21.17
732.181	20.64
732.362	19.74
732.544	19.94
732.725	19.04
732.907	19.3
733.088	19.04
733.27	18.68
733.451	17.5
733.633	17.68
733.814	17.93
733.995	18.7
734.177	18.76
734.358	18.91
734.539	19.97
734.721	20.27
734.902	20.05
735.083	20.3
735.264	20.24
735.446	20.67
735.627	19.72
735.808	18.58
735.989	17.79
736.17	17.73
736.351	18.86
736.533	16.79
736.714	16.33
736.895	16.6
737.076	16.34
737.257	16.63
737.438	16.5
737.619	16.84
737.8	18.54
737.981	18.87
738.162	19.6
738.343	18.77
738.524	18.73
738.705	18.69
738.886	18.87
739.067	18.68
739.247	18.5
739.428	18.52
739.609	19.62
739.79	19
739.971	18.46
740.151	18.32
740.332	19.79
740.513	20.72
740.694	21.22
740.874	21.3
741.055	21.04
741.236	20.68
741.417	20.17
741.597	19.7
741.778	18.28
741.958	17.78
742.139	18.36
742.32	17.71
742.5	18.74
742.681	18.54
742.861	17.69
743.042	17.56
743.222	18.27
743.403	19.24
743.583	18.6
743.764	18.7
743.944	19.72
744.124	18.17
744.305	16.44
744.485	13.95
744.666	14.41
744.846	15.36
745.026	15.3
745.207	15.78
745.387	15.39
745.567	14.19
745.747	14.79
745.928	13.72
746.108	15.65
746.288	16.42
746.468	17.07
746.648	17.15
746.829	16.69
747.009	18.25
747.189	16.41
747.369	16
747.549	15.79
747.729	15.68
747.909	16.33
748.089	14.94
748.269	14.91
748.449	14.88
748.629	13.81
748.809	13.25
748.989	11.94
749.169	12.36
749.349	12.8
749.529	14.77
749.709	15.96
749.889	15.54
750.068	15.96
750.248	17.7
750.428	17.84
750.608	16.69
750.788	15.9
750.967	14.5
751.147	13.84
751.327	13.58
751.507	12.55
751.686	12.44
751.866	13.89
752.046	14.02
752.225	13.29
752.405	13.47
752.585	16.26
752.764	16.98
752.944	17.34
753.123	19.34
753.303	19.83
753.482	19.41
753.662	18.04
753.841	17.55
754.021	17.1
754.2	17.06
754.38	17.06
754.559	16.57
754.739	17.72
754.918	19.88
755.097	19.39
755.277	19.4
755.456	19.57
755.635	20.16
755.815	18.89
755.994	18.73
756.173	18.4
756.352	18.85
756.532	17.84
756.711	16.7
756.89	15.78
757.069	15.26
757.248	15.9
757.427	16.45
757.607	16.59
757.786	17.4
757.965	17.57
758.144	16.95
758.323	17.17
758.502	17.36
758.681	18.37
758.86	17.83
759.039	17.73
759.218	17.71
759.397	18.42
759.576	17.85
759.755	17.43
759.934	17.67
760.113	18.13
760.291	17.78
760.47	17.54
760.649	17.42
760.828	17.32
761.007	17.53
761.186	16.78
761.364	14.77
761.543	16.4
761.722	16.67
761.901	16.2
762.079	16.61
762.258	15.25
762.437	16.69
762.615	16.57
762.794	17.85
762.972	17.76
763.151	17.79
763.33	19.35
763.508	19.47
763.687	20.24
763.865	20.4
764.044	20.06
764.222	21.51
764.401	21.55
764.579	21.48
764.758	20.57
764.936	20.12
765.114	19.42
765.293	19.34
765.471	19.16
765.65	19.67
765.828	19.23
766.006	19.58
766.184	19.87
766.363	19.11
766.541	18.38
766.719	18.68
766.898	18.21
767.076	18.96
767.254	18.02
767.432	16.17
767.61	16.02
767.788	17.45
767.967	16.76
768.145	15.14
768.323	15.84
768.501	15.31
768.679	14.02
768.857	16.31
769.035	16.16
769.213	15.51
769.391	16.67
769.569	15.49
769.747	14.25
769.925	15.32
770.103	15.93
770.281	16.42
770.459	18.4
770.636	18.66
770.814	16.75
770.992	17.4
771.17	17.85
771.348	16.9
771.525	16.69
771.703	15.55
771.881	13.32
772.059	13.69
772.236	12.65
772.414	9.18
772.592	12.69
772.769	14.07
772.947	13.86
773.125	14.41
773.302	13.24
773.48	11.98
773.657	12.02
773.835	12.16
774.013	11.15
774.19	8.68
774.368	12.06
774.545	8.06
774.723	7.16
774.9	6.15
775.077	5.73
775.255	10.38
775.432	8.55
775.61	10.07
775.787	11.44
775.964	11.25
776.142	11.96
776.319	11.1
776.496	11.1
776.674	11.44
776.851	11.62
777.028	11.56
777.205	7.54
777.382	10.49
777.56	13.03
777.737	10.8
777.914	11.37
778.091	13.9
778.268	12.03
778.445	10.73
778.622	10.95
778.8	10.49
778.977	6.97
779.154	9.2
779.331	7.93
779.508	3.81
779.685	6.04
779.862	6.85
780.038	4.19
780.215	4.09
780.392	8.58
780.569	8.94
780.746	9.96
780.923	11.32
781.1	10.26
781.277	11.73
781.453	13.44
781.63	14.11
781.807	13.27
781.984	13.19
782.16	13.73
782.337	13.02
782.514	11.71
782.691	10.75
782.867	11.44
783.044	11.76
783.221	7.33
783.397	9.47
783.574	8.86
783.75	7.26
783.927	8.25
784.103	9.05
784.28	7.97
784.456	8.41
784.633	7.78
784.809	11.89
784.986	9.61
785.162	13.62
785.339	12.3
785.515	12.91
785.692	14.97
785.868	15.37
786.044	16
786.221	17.36
786.397	17.13
786.573	16.96
786.749	14.29
786.926	16.72
787.102	17
787.278	16.12
787.454	16.95
787.631	14.33
787.807	16.22
787.983	17.53
788.159	14.73
788.335	13.52
788.511	15.31
788.687	14.64
788.863	14.7
789.039	14.74
789.216	15.77
789.392	13.45
789.568	13.15
789.744	12.32
789.919	10.88
790.095	12.13
790.271	15.01
790.447	13.92
790.623	15.45
790.799	14.17
790.975	14.12
791.151	13.21
791.327	13.68
791.502	14.19
791.678	15.68
791.854	12.45
792.03	12.35
792.205	8.56
792.381	5.71
792.557	4.52
792.733	6.64
792.908	6.56
793.084	4.69
793.259	3.18
793.435	4.52
793.611	2.36
793.786	10.2
793.962	13
794.137	16.41
794.313	19.16
794.488	15.72
794.664	11.24
794.839	10
795.015	9.1
795.19	8.63
795.366	5.67
795.541	4.64
795.716	2.46
795.892	-1.54
796.067	-4.82
796.242	-5.16
796.418	0.05
796.593	4.81
796.768	7.77
796.944	9.32
797.119	11
797.294	14.72
797.469	13.5
797.644	12.58
797.82	11.87
797.995	14.55
798.17	14.64
798.345	13.15
798.52	8.33
798.695	5.55
798.87	7.58
799.045	8.06
799.22	6.82
799.395	8.61
799.57	7.45
799.745	8.06
799.92	7.42
800.095	8.53
800.27	7.63
800.445	8.58
800.62	7.42
800.795	1.78
800.97	0.75
801.145	-1.88
801.319	-6.42
801.494	-4.87
801.669	-1.39
801.844	-1.75
802.018	-2.82
802.193	-0.98
802.368	-2.78
802.543	0.97
802.717	3.53
802.892	0.36
803.067	4.67
803.241	3.58
803.416	5.59
803.59	3.63
803.765	3.36
803.94	3.54
804.114	-0.92
804.289	4.58
804.463	-0.15
804.638	-1.23
804.812	0.56
804.986	-1.55
805.161	5.34
805.335	2.85
805.51	1.34
805.684	2.68
805.858	3.79
806.033	3.57
806.207	6.71
806.381	8.75
806.556	9.3
806.73	6.89
806.904	9.47
807.078	8.24
807.253	9.86
807.427	11.17
807.601	12.29
807.775	9.91
807.949	11.66
808.123	3.8
808.298	2.02
808.472	6.73
808.646	8.35
808.82	1.05
808.994	-5.45
809.168	-10.78
809.342	-16.19
809.516	-18.71
809.69	-17.84
809.864	-16.04
810.038	-8.35
810.212	-5.17
810.385	-8.79
810.559	-6.15
810.733	-3
810.907	-4.52
811.081	-2.84
811.255	2.17
811.428	1.69
811.602	-2.44
811.776	-2.63
811.95	-2.86
812.123	-4.72
812.297	-6.59
812.471	-8.03
812.644	-6.56
812.818	2.24
812.992	-2.58
813.165	-2.04
813.339	-0.2
813.512	4.24
813.686	-4.55
813.86	-12.29
814.033	-11.93
814.207	-5.41
814.38	-11.04
814.554	-12.44
814.727	-14.02
814.9	-0.62
815.074	-1.62
815.247	-7.45
815.421	-3.83
815.594	3.75
815.767	-1.56
815.941	-5.65
816.114	-8.96
816.287	-2.75
816.46	1.65
816.634	-0.07
816.807	-10.31
816.98	-6.01
817.153	-3.22
817.327	-9.19
817.5	-10.3
817.673	-7.55
817.846	-6.94
818.019	-9.73
818.192	-9.99
818.365	-15.52
818.538	-12.82
818.711	-8.63
818.884	-14.16
819.057	-9.41
819.23	-0.51
819.403	1.4
819.576	2.92
819.749	5.01
819.922	3.9
820.095	2.17
820.268	4.73
820.441	3.01
820.614	6.69
820.786	9.54
820.959	13.04
821.132	12.88
821.305	14.17
821.477	16.32
821.65	17.55
821.823	18.04
821.996	19.25
822.168	19.89
822.341	21.15
822.514	21.23
822.686	21.51
822.859	20.15
823.031	19.54
823.204	19.41
823.376	19.22
823.549	19.14
823.722	19.56
823.894	19.83
824.067	19.81
824.239	19.1
824.411	18.97
824.584	18.47
824.756	18.69
824.929	18.54
825.101	17.8
825.273	17.65
825.446	17.81
825.618	18.6
825.79	17.79
825.963	17.95
826.135	18.47
826.307	17.11
826.479	19.13
826.652	20.09
826.824	21.26
826.996	22.78
827.168	22.82
827.34	22.02
827.512	21.63
827.684	21.68
827.856	19.62
828.029	19.97
828.201	20.14
828.373	18.31
828.545	16.97
828.717	15.67
828.889	14.58
829.061	13.5
829.232	11.77
829.404	12.15
829.576	10.84
829.748	12.74
829.92	9.01
830.092	8.43
830.264	7.67
830.436	7.47
830.607	6.21
830.779	1.01
830.951	2.08
831.123	1.46
831.294	0.42
831.466	-0.27
831.638	0.95
831.809	7.13
831.981	7.6
832.153	0.06
832.324	-6.15
832.496	-3.57
832.667	5.43
832.839	7.42
833.011	10.02
833.182	8.35
833.354	10.44
833.525	11.27
833.697	8.61
833.868	9.95
834.039	13.9
834.211	18.18
834.382	17.26
834.554	15.43
834.725	13.79
834.896	13.01
835.068	9.93
835.239	9.2
835.41	9.1
835.581	9.07
835.753	8.23
835.924	6.92
836.095	5.88
836.266	3.94
836.438	1.94
836.609	2.08
836.78	-0.86
836.951	4.45
837.122	2.88
837.293	-1.95
837.464	-1.91
837.635	-5.66
837.806	-4.27
837.977	-9.78
838.148	-4.53
838.319	-4
838.49	-7.59
838.661	-7.48
838.832	-7.19
839.003	-12.31
839.174	-13.57
839.345	-18.46
839.516	-18.43
839.687	-17.08
839.857	-6.46
840.028	-20.72
840.199	-14.09
840.37	-13.64
840.54	-0.89
840.711	-15.9
840.882	-12.98
841.053	-9.87
841.223	-20.27
841.394	-14.32
841.564	-19.38
841.735	-26.41
841.906	-11.2
842.076	-16.34
842.247	-14.18
842.417	-28.83
842.588	-31.47
842.758	-27.96
842.929	-46.13
843.099	-25.17
843.27	-34.33
843.44	-34.01
843.611	-39.25
843.781	-66.01
843.951	-93.51
844.122	-99.14
844.292	-84.85
844.462	-85.26
844.633	-87.45
844.803	-47.58
844.973	-69.34
845.144	-67.17
845.314	-68.69
845.484	-60.95
845.654	-37.57
845.824	-56.54
845.995	-68.36
846.165	-40.64
846.335	-27.31
846.505	-40.97
846.675	-46.35
846.845	-46.5
847.015	-63.1
847.185	-95.4
847.355	-80.81
847.525	-55.1
847.695	-37.14
847.865	-25.29
848.035	-103.79
848.205	-81.14
848.375	-59.24
848.545	-131.49
848.715	-119.52
848.884	-78.11
849.054	-47.73
849.224	-94.07
849.394	-155.49
849.564	-114.23
849.733	-109.03
849.903	-67.9
850.073	-75.23
850.243	-72.43
850.412	-91.5
850.582	-35.04
850.752	-102.88
850.921	-103.37
851.091	-77.91
851.26	-102.21
851.43	-77.95
851.599	-91.49
851.769	-96.69
851.939	-93.56
852.108	-104.72
852.278	-58.19
852.447	-84.01
852.616	-62.01
852.786	-44.31
852.955	-34.07
853.125	-34.36
853.294	-32.34
853.463	-40.05
853.633	-46.43
853.802	-88.4
853.971	-91.85
854.141	-95.52
854.31	-105.04
854.479	-150.51
854.648	-190.57
854.818	-526.4
854.987	-544.91
855.156	1759.38
855.325	-237.48
855.494	-183
855.663	-68.1
855.832	-31.82
856.001	-63.18
856.171	-86.74
856.34	-33.73
856.509	-45.17
856.678	-51.02
856.847	-56.92
857.016	-52.77
857.185	-78.8
857.353	-56.16
857.522	-48.77
857.691	-89.35
857.86	-63.02
858.029	-43.46
858.198	-73.51
858.367	-73.78
858.535	-55.46
858.704	-81.5
858.873	-64.64
859.042	-26.58
859.21	-62.58
859.379	-31.77
859.548	-36.23
859.717	-63.96
859.885	-65.07
860.054	-121.07
860.222	-93.85
860.391	-151.21
860.56	-168.62
860.728	-167.51
860.897	-163.12
861.065	-172.51
861.234	-236.12
861.402	-168.44
861.571	-162.19
861.739	-220.14
861.908	-250.36
862.076	-446.7
862.244	-236.26
862.413	-179.73
862.581	-219.2
862.749	-259.71
862.918	-296.34
863.086	-379.38
863.254	-701.01
863.423	-691.42
863.591	-267.88
863.759	-93.96
863.927	-79.44
864.096	-84.74
864.264	-70.71
864.432	-60.83
864.6	-103.95
864.768	-74.53
864.936	-42.16
865.104	-48.52
865.272	-46.9
865.44	-62.11
865.608	-90.71
865.776	-75.8
865.944	-110.45
866.112	-189.83
866.28	-157.54
866.448	-163.48
866.616	-178.47
866.784	-219.64
866.952	-274.57
867.12	-565.57
867.288	-371.49
867.455	-430.51
867.623	-450.06
867.791	-297.89
867.959	-284.41
868.127	-355.17
868.294	-217.37
868.462	-304.02
868.63	-268.48
868.797	-231.37
868.965	-162.46
869.133	-225.45
869.3	-238.56
869.468	-306.74
869.636	-1489.44
869.803	-1437.39
869.971	-1265.5
870.138	1992.09
870.306	865.65
870.473	440.12
870.641	470.61
870.808	497.23
870.975	1896.89
871.143	1352.02
871.31	-1376.62
871.478	-248.5
871.645	-166.83
871.812	-273.43
871.98	-324.43
872.147	-118.98
872.314	-48.55
872.482	-88.47
872.649	-195.08
872.816	-457.15
872.983	-756.55
873.15	10900
873.318	1596.24
873.485	538.31
873.652	479.15
873.819	-638.42
873.986	-277.88
874.153	638.22
874.32	-169.53
874.487	-50.32
874.654	-89.22
874.821	-69.16
874.988	-75.43
875.155	-96.56
875.322	-90.3
875.489	-82.68
875.656	-150.14
875.823	-181.37
875.99	-119.14
876.157	-202.32
876.324	-238.06
876.49	-224.46
876.657	-252.9
876.824	-228.33
876.991	-260.52
877.157	-275.5
877.324	-401.94
877.491	-313.67
877.658	-474.63
877.824	-503.68
877.991	-359.31
878.157	-241.79
878.324	-191.23
878.491	-183.12
878.657	-120.56
878.824	-137.14
878.99	-164.69
879.157	-191.23
879.323	-186.28
879.49	-204.22
879.656	-411.18
879.823	-413.4
879.989	-502.22
880.156	-646.11
880.322	-2704.32
880.488	-711.97
880.655	-6891.43
880.821	-590.19
880.987	-206.82
881.154	-86.8
881.32	-111.91
881.486	-50
881.652	-48.16
881.819	-42.84
881.985	-31.13
882.151	-26.63
882.317	-23.73
882.483	-11.66
882.649	-2.1
882.816	3.83
882.982	2.61
883.148	12.37
883.314	9.56
883.48	13.56
883.646	14.15
883.812	14.05
883.978	16.4
884.144	16.52
884.31	14.21
884.476	13.41
884.642	11.03
884.807	9.99
884.973	8.11
885.139	9.74
885.305	11.91
885.471	11.79
885.637	10.1
885.802	3.74
885.968	2.23
886.134	3.54
886.3	-4.77
886.465	-7.37
886.631	-7.67
886.797	-17.9
886.962	-34.49
887.128	-56.44
887.293	-50.31
887.459	-72.92
887.625	-57.99
887.79	-58.05
887.956	-61.78
888.121	-60.14
888.287	-54.7
888.452	-78.66
888.618	-61.95
888.783	-25.05
