Data from 2938029_Reflection_1.txt Node
Date: Sun Jul 12 15:05:54 EDT 2015
User: robert
Spectrometer: USB4E03001
Autoset integration time: false
Trigger mode: 4
Integration Time (sec): 1.000000E-1
Scans to average: 10
Electric dark correction enabled: true
Nonlinearity correction enabled: false
Boxcar width: 5
Stray light correction enabled: false
XAxis mode: Wavelengths
Stop averaging: false
Number of Pixels in Spectrum: 3648
>>>>>Begin Spectral Data<<<<<
177.566	144.2
177.785	194.65
178.005	211.82
178.225	59.14
178.445	79.41
178.665	132.52
178.885	346.59
179.105	40.7
179.324	44.62
179.544	58.08
179.764	71.81
179.984	107.03
180.204	119.14
180.423	100.36
180.643	77.7
180.863	82.43
181.083	90.71
181.302	80.86
181.522	61.98
181.742	55.33
181.961	50.69
182.181	62.82
182.401	10.18
182.621	28.47
182.84	23.1
183.06	42.86
183.279	74.04
183.499	80.1
183.719	86.44
183.938	78.42
184.158	97.19
184.377	108.07
184.597	71.45
184.816	91.05
185.036	101.24
185.256	66.78
185.475	91.18
185.695	67.71
185.914	93.19
186.134	135.53
186.353	249.35
186.572	354.95
186.792	246.19
187.011	405.59
187.231	369.38
187.45	275.84
187.67	308.98
187.889	143.4
188.108	162.24
188.328	159.14
188.547	157.02
188.766	118.51
188.986	112.08
189.205	83.08
189.424	87.55
189.644	96.86
189.863	90.36
190.082	101.2
190.302	83.69
190.521	86.6
190.74	96.31
190.959	95.73
191.178	104
191.398	103.68
191.617	130.69
191.836	112.68
192.055	95.42
192.274	94.05
192.494	96.05
192.713	115.4
192.932	107.86
193.151	88.42
193.37	71.31
193.589	75.26
193.808	69.16
194.027	60.41
194.246	53.09
194.465	79.44
194.685	92.83
194.904	114.43
195.123	125.6
195.342	172.82
195.561	155.13
195.78	401.53
195.999	-44380
196.218	1848
196.436	1373.51
196.655	571.53
196.874	-6616.33
197.093	260.82
197.312	186.19
197.531	171.1
197.75	179.47
197.969	248.2
198.188	230.31
198.407	162.34
198.625	316.49
198.844	150.23
199.063	170.48
199.282	198.63
199.501	184.61
199.719	185.93
199.938	177.07
200.157	186.37
200.376	187.32
200.594	118.12
200.813	127.98
201.032	79.6
201.251	97.36
201.469	110.34
201.688	129.46
201.907	197.19
202.125	234.43
202.344	218.28
202.563	164.94
202.781	184.45
203	230.81
203.218	188.15
203.437	237.99
203.656	296.29
203.874	263.92
204.093	147.62
204.311	102.47
204.53	45.99
204.748	61.49
204.967	71.08
205.185	-11.4
205.404	-46.84
205.622	22.01
205.841	765.35
206.059	438.34
206.278	2.88
206.496	63.4
206.715	152.6
206.933	-34314.29
207.151	351.4
207.37	312.98
207.588	198.35
207.806	138.27
208.025	127.23
208.243	131.03
208.461	109.84
208.68	113.45
208.898	151.88
209.116	139.67
209.335	145.77
209.553	125.62
209.771	109.4
209.989	129.21
210.208	135.95
210.426	128.21
210.644	140.17
210.862	137.38
211.081	182.48
211.299	152.6
211.517	158.2
211.735	112.18
211.953	144.12
212.171	134.62
212.39	218.04
212.608	292.63
212.826	269.8
213.044	183.2
213.262	163.25
213.48	156.37
213.698	134.29
213.916	139.71
214.134	122.22
214.352	119.83
214.57	126.53
214.788	101.4
215.006	102.42
215.224	100.23
215.442	-25.63
215.66	14.04
215.878	108.82
216.096	210.76
216.314	72.61
216.532	196.93
216.75	155.79
216.968	30.88
217.185	77.64
217.403	38.58
217.621	19.13
217.839	20.63
218.057	38.51
218.275	46.56
218.492	41.11
218.71	57.96
218.928	69.68
219.146	71.93
219.363	88.24
219.581	84.38
219.799	99.67
220.017	122.45
220.234	122.88
220.452	114.53
220.67	103.97
220.887	106
221.105	99.88
221.323	94
221.54	101.27
221.758	91.56
221.976	78.64
222.193	57.37
222.411	54.69
222.629	58.45
222.846	44.96
223.064	54.78
223.281	45.06
223.499	50.34
223.716	33.36
223.934	40.34
224.151	39.02
224.369	45.65
224.586	63.18
224.804	61.05
225.021	55.59
225.239	67.47
225.456	55.27
225.674	50.96
225.891	45.61
226.108	51.96
226.326	39.08
226.543	38.5
226.76	34.55
226.978	27.2
227.195	25.96
227.413	14.17
227.63	15.55
227.847	19.87
228.064	23.66
228.282	22.11
228.499	26.2
228.716	26.32
228.934	23.41
229.151	22.19
229.368	20.86
229.585	18.85
229.802	22.97
230.02	22.16
230.237	22.37
230.454	20.3
230.671	21.73
230.888	16.82
231.105	16.28
231.323	20.13
231.54	23.08
231.757	25.87
231.974	27.81
232.191	25.71
232.408	27.37
232.625	26.3
232.842	30.12
233.059	30.37
233.276	32.14
233.493	28.02
233.71	25.48
233.927	18.75
234.144	19.76
234.361	21.69
234.578	25.24
234.795	22.19
235.012	23.89
235.229	28.18
235.446	28.06
235.663	25.35
235.879	29.67
236.096	29.41
236.313	36.5
236.53	33.44
236.747	31.85
236.964	27.69
237.181	27.69
237.397	25.53
237.614	23.3
237.831	22.19
238.048	28.81
238.264	25.74
238.481	26.12
238.698	20.07
238.915	23.03
239.131	25.87
239.348	27.95
239.565	31.28
239.781	31.99
239.998	29.29
240.215	28.14
240.431	26.02
240.648	27.81
240.865	25.35
241.081	26.03
241.298	23.91
241.514	22.44
241.731	21.66
241.947	20.48
242.164	20.07
242.38	19.03
242.597	19.74
242.814	18.76
243.03	17.9
243.246	18.48
243.463	15.74
243.679	15.33
243.896	14.87
244.112	15.47
244.329	13.22
244.545	13.17
244.762	13.98
244.978	13.48
245.194	15.07
245.411	14.13
245.627	12.15
245.843	14.33
246.06	14.51
246.276	15.32
246.492	14.4
246.709	15.41
246.925	14.53
247.141	15.58
247.357	15.72
247.574	15.57
247.79	15.85
248.006	17.32
248.222	17.63
248.439	18.23
248.655	17.3
248.871	16.24
249.087	16.45
249.303	17.77
249.519	15.47
249.736	15.15
249.952	14.03
250.168	14.91
250.384	13.94
250.6	14.67
250.816	13.64
251.032	14.74
251.248	16.62
251.464	16.97
251.68	16.73
251.896	17.58
252.112	15.51
252.328	16.68
252.544	15.26
252.76	14.95
252.976	14.44
253.192	15.51
253.408	15.58
253.624	15.9
253.84	17.72
254.056	17.33
254.272	20.58
254.487	22.08
254.703	20.04
254.919	22.89
255.135	24.12
255.351	22.23
255.567	23.68
255.782	20.93
255.998	21.6
256.214	20.09
256.43	18.83
256.646	15.5
256.861	15.76
257.077	16.48
257.293	13.69
257.508	9.8
257.724	10.69
257.94	8.11
258.155	9.75
258.371	10.44
258.587	9.85
258.802	9.95
259.018	9.67
259.234	10.03
259.449	10.77
259.665	11.43
259.88	12.93
260.096	12.26
260.312	11.79
260.527	12.17
260.743	11.6
260.958	11.5
261.174	11.18
261.389	12.28
261.605	11.91
261.82	11.39
262.036	10.75
262.251	9.75
262.466	10.19
262.682	12.27
262.897	10.85
263.113	10.68
263.328	9.66
263.543	10.03
263.759	10
263.974	9.49
264.189	9.75
264.405	10.08
264.62	11.01
264.835	12.6
265.051	13.33
265.266	13.56
265.481	15.67
265.696	17.14
265.912	18.73
266.127	17.4
266.342	18.02
266.557	18.24
266.773	17.83
266.988	17.89
267.203	16.94
267.418	14.4
267.633	15.9
267.848	16.66
268.064	16.2
268.279	16.03
268.494	16.15
268.709	16.91
268.924	17.12
269.139	16.69
269.354	17.1
269.569	16.2
269.784	17.33
269.999	16.22
270.214	12.99
270.429	13.34
270.644	12.83
270.859	13.9
271.074	13.4
271.289	13.75
271.504	14.29
271.719	13.44
271.934	12.78
272.149	13.23
272.363	12.32
272.578	12.62
272.793	11.66
273.008	11.7
273.223	11.4
273.438	11.11
273.653	10.5
273.867	10.18
274.082	9.58
274.297	10.85
274.512	8.91
274.726	9.01
274.941	9
275.156	9.39
275.371	7.91
275.585	7.84
275.8	8.89
276.015	8.19
276.229	9.56
276.444	10.34
276.659	9.74
276.873	12.15
277.088	13.38
277.302	13.58
277.517	13.12
277.732	14.46
277.946	12.53
278.161	12.39
278.375	12.04
278.59	10.33
278.804	8.04
279.019	8.78
279.233	7.63
279.448	8.47
279.662	7.67
279.877	7.89
280.091	8.03
280.306	8.18
280.52	8.36
280.735	10.02
280.949	10.91
281.163	12.25
281.378	10.47
281.592	11.02
281.806	10.02
282.021	11.43
282.235	12.6
282.449	11.91
282.664	13.15
282.878	12.99
283.092	14.2
283.307	13.91
283.521	14.25
283.735	16.91
283.949	15.86
284.164	16.59
284.378	15.91
284.592	15.28
284.806	14.94
285.02	14.69
285.234	13.01
285.449	11.1
285.663	11.13
285.877	11.63
286.091	10.26
286.305	10.98
286.519	11.05
286.733	11.83
286.947	11.46
287.161	11.78
287.375	10.69
287.589	11.08
287.803	12.04
288.017	10.37
288.231	9.74
288.445	9.78
288.659	10.25
288.873	10.23
289.087	9.26
289.301	10.76
289.515	10.9
289.729	11.15
289.943	12.44
290.157	12.81
290.371	14.35
290.584	13.34
290.798	13.86
291.012	12.83
291.226	12.23
291.44	11.9
291.654	10.84
291.867	10.77
292.081	12.39
292.295	10.72
292.509	10
292.722	11.63
292.936	14.51
293.15	14.22
293.364	14.32
293.577	14.56
293.791	14.94
294.005	14.78
294.218	14.66
294.432	15.15
294.645	15.87
294.859	15.55
295.073	15.7
295.286	14.79
295.5	15.41
295.713	16
295.927	15.9
296.14	16.45
296.354	16.62
296.568	16.63
296.781	15.77
296.994	16.19
297.208	16.05
297.421	15.16
297.635	14.45
297.848	14.18
298.062	14.09
298.275	14.93
298.489	14.63
298.702	15.41
298.915	15.91
299.129	16.48
299.342	16.57
299.555	16.46
299.769	16.21
299.982	16.76
300.195	16.06
300.409	15.66
300.622	15.64
300.835	15.47
301.048	14.85
301.262	13.91
301.475	11.72
301.688	9.83
301.901	9.4
302.115	8.75
302.328	9.61
302.541	10.98
302.754	11.26
302.967	11.56
303.18	11.76
303.393	10.73
303.607	12.55
303.82	14.29
304.033	15.88
304.246	17.2
304.459	17.76
304.672	18.14
304.885	17.25
305.098	17.14
305.311	15.83
305.524	15.76
305.737	17.01
305.95	16.06
306.163	16.46
306.376	16.54
306.589	16.04
306.802	17.07
307.015	15.86
307.228	17.29
307.44	17.77
307.653	17.37
307.866	17.38
308.079	16.12
308.292	17.72
308.505	17.19
308.718	16.9
308.93	17.65
309.143	17.54
309.356	17.1
309.569	15.84
309.781	15.94
309.994	16.63
310.207	16.43
310.42	16.9
310.632	15.81
310.845	15.6
311.058	15.69
311.27	15.6
311.483	14.13
311.696	14.8
311.908	15.57
312.121	15.56
312.333	14.17
312.546	14.62
312.759	14.3
312.971	14.18
313.184	15.24
313.396	14.33
313.609	12.15
313.821	13.31
314.034	13.41
314.246	12.9
314.459	12.7
314.671	13.24
314.884	12.78
315.096	14.17
315.309	15.35
315.521	14.14
315.733	14.78
315.946	15.05
316.158	14.95
316.371	14.75
316.583	15.29
316.795	16.63
317.008	16.75
317.22	16.91
317.432	17.67
317.644	16.49
317.857	17.24
318.069	17.19
318.281	18.42
318.494	17.78
318.706	16.76
318.918	16.05
319.13	14.48
319.342	15.65
319.555	15.88
319.767	13.97
319.979	13.67
320.191	12.79
320.403	14.77
320.615	14.81
320.827	14.27
321.039	14.59
321.252	15.74
321.464	16.33
321.676	18.09
321.888	16.55
322.1	17.4
322.312	16.25
322.524	17.07
322.736	14.13
322.948	14.33
323.16	17
323.372	17.26
323.584	15.92
323.796	16.96
324.007	14.76
324.219	14.62
324.431	13.6
324.643	14.85
324.855	13.13
325.067	14.84
325.279	14.82
325.491	13.34
325.702	12.54
325.914	12.27
326.126	10.46
326.338	9.86
326.55	11.74
326.761	10.13
326.973	8.39
327.185	8.94
327.396	8.01
327.608	9.08
327.82	8.36
328.032	8.04
328.243	10.05
328.455	9.41
328.666	9.97
328.878	10.43
329.09	13.52
329.301	14.28
329.513	13.71
329.725	14.4
329.936	12.64
330.148	12.49
330.359	13.87
330.571	12.72
330.782	14.03
330.994	15.01
331.205	14.53
331.417	13.48
331.628	12.94
331.84	12.44
332.051	11.68
332.262	13.74
332.474	13.55
332.685	13.7
332.897	13.78
333.108	13.36
333.319	12.73
333.531	13.5
333.742	13.99
333.953	15.87
334.165	17
334.376	18.24
334.587	17.1
334.799	18.75
335.01	18.6
335.221	17.16
335.432	18.63
335.644	19.62
335.855	17.63
336.066	17.28
336.277	17.58
336.488	18.7
336.7	18.27
336.911	17.87
337.122	16.99
337.333	16.87
337.544	18.12
337.755	18.09
337.966	16.61
338.177	17.92
338.388	17.98
338.599	18.27
338.811	17.24
339.022	17.62
339.233	17.8
339.444	17.49
339.655	17.66
339.866	19
340.076	17.84
340.287	18.96
340.498	19.35
340.709	19.83
340.92	18.81
341.131	17.77
341.342	17.79
341.553	18.49
341.764	18.83
341.975	17.94
342.185	16.53
342.396	17.78
342.607	16.78
342.818	16.27
343.029	15.7
343.239	15.8
343.45	16.56
343.661	16.12
343.872	14.51
344.082	14.7
344.293	15.04
344.504	15.92
344.714	14.07
344.925	14.54
345.136	13.48
345.346	12.99
345.557	13.47
345.768	14.31
345.978	14.35
346.189	15.5
346.399	15.54
346.61	15.56
346.821	15.6
347.031	15.79
347.242	15.53
347.452	16.34
347.663	17.23
347.873	17.06
348.084	16.46
348.294	16.95
348.504	16.69
348.715	16.9
348.925	18.82
349.136	18.38
349.346	18.81
349.557	18.97
349.767	18.03
349.977	17.83
350.188	17.84
350.398	18.32
350.608	17.57
350.819	17.07
351.029	16.02
351.239	14.84
351.449	14.79
351.66	14.3
351.87	13.88
352.08	14.2
352.29	14.32
352.501	14.32
352.711	14.16
352.921	14.86
353.131	15.73
353.341	17.3
353.552	16.65
353.762	15.86
353.972	16.83
354.182	17.94
354.392	18.79
354.602	18.14
354.812	17.41
355.022	17.46
355.232	16.93
355.442	15.99
355.652	14.55
355.862	15.2
356.072	15.55
356.282	15.45
356.492	15.22
356.702	14.24
356.912	14.64
357.122	14.58
357.332	15.08
357.542	15.08
357.752	16.18
357.962	16.64
358.171	16.29
358.381	16.58
358.591	16.62
358.801	15.64
359.011	15.52
359.221	15.63
359.43	15.28
359.64	14.11
359.85	14.1
360.06	13.58
360.269	12.73
360.479	12.32
360.689	11.55
360.899	11.36
361.108	11.34
361.318	11.29
361.528	10.42
361.737	10.45
361.947	10.96
362.156	11.05
362.366	10.3
362.576	10.7
362.785	11.27
362.995	11.95
363.204	12
363.414	12.64
363.623	12.75
363.833	14.04
364.042	14.55
364.252	13.94
364.461	13.68
364.671	14.27
364.88	14.33
365.09	13.86
365.299	13.99
365.509	13.69
365.718	13.42
365.927	14.48
366.137	13.39
366.346	12.49
366.555	13.12
366.765	13.5
366.974	13.46
367.183	13.2
367.393	13.04
367.602	12.2
367.811	12.43
368.021	12.2
368.23	11.62
368.439	11.42
368.648	11.96
368.857	10.79
369.067	11.23
369.276	10.5
369.485	12
369.694	12.21
369.903	13.03
370.112	12.82
370.321	13.04
370.531	12.91
370.74	13.49
370.949	14.06
371.158	14.33
371.367	13.53
371.576	14.18
371.785	12.61
371.994	12.14
372.203	11.25
372.412	11.14
372.621	10.6
372.83	10.66
373.039	9.94
373.248	9.74
373.457	9.31
373.666	9.55
373.874	9.83
374.083	10.22
374.292	11.03
374.501	11.51
374.71	11.03
374.919	10.99
375.128	11.64
375.336	11.71
375.545	11.74
375.754	12
375.963	11.6
376.171	11.55
376.38	11.78
376.589	11.87
376.798	11.61
377.006	12.18
377.215	12.01
377.424	11.2
377.632	11.36
377.841	10.99
378.05	11.09
378.258	10.76
378.467	11.39
378.675	11.01
378.884	10.26
379.093	10.67
379.301	10.47
379.51	11.13
379.718	11.27
379.927	12.04
380.135	12.51
380.344	12.8
380.552	13.04
380.761	11.8
380.969	11.89
381.177	11.91
381.386	11.14
381.594	10.75
381.803	10.68
382.011	10.53
382.219	9.96
382.428	9.45
382.636	9.38
382.845	9.4
383.053	9.33
383.261	9.49
383.469	9.74
383.678	9.75
383.886	9.73
384.094	9.45
384.302	9.33
384.511	8.93
384.719	8.58
384.927	8.49
385.135	8.36
385.343	8.5
385.552	8.46
385.76	8.27
385.968	8.77
386.176	8.69
386.384	8.53
386.592	8.17
386.8	8.39
387.008	8.67
387.216	8.42
387.424	8.12
387.633	7.92
387.841	7.76
388.049	8.09
388.257	7.86
388.465	8.13
388.672	8.47
388.88	8.99
389.088	8.82
389.296	8.52
389.504	8.61
389.712	8.84
389.92	8.93
390.128	8.76
390.336	8.08
390.544	8.08
390.751	7.87
390.959	7.85
391.167	7.65
391.375	7.7
391.583	8.26
391.79	8.44
391.998	8.3
392.206	8.31
392.414	8.17
392.621	8.47
392.829	8.32
393.037	8.2
393.244	8.02
393.452	7.82
393.66	7.31
393.867	6.78
394.075	6.86
394.283	6.92
394.49	6.57
394.698	6.65
394.905	6.33
395.113	6.57
395.32	6.54
395.528	6.41
395.735	6.37
395.943	6.77
396.15	6.83
396.358	6.12
396.565	6.04
396.773	6.18
396.98	6.02
397.188	6.01
397.395	5.42
397.602	5.36
397.81	5.21
398.017	5.26
398.225	5.36
398.432	5.64
398.639	5.98
398.847	6.16
399.054	6.15
399.261	6.08
399.468	6.35
399.676	6.34
399.883	6.44
400.09	6.85
400.297	6.79
400.505	6.65
400.712	6.2
400.919	6.25
401.126	6.23
401.333	6.55
401.54	6.59
401.748	6.33
401.955	6.96
402.162	6.93
402.369	6.97
402.576	6.94
402.783	6.85
402.99	7.03
403.197	6.88
403.404	6.75
403.611	6.37
403.818	6.39
404.025	6.35
404.232	6.29
404.439	6.38
404.646	6.32
404.853	6.38
405.06	6.41
405.267	6.41
405.474	6.5
405.681	6.34
405.887	6.53
406.094	6.76
406.301	6.72
406.508	6.59
406.715	6.57
406.922	6.45
407.128	6.55
407.335	6.68
407.542	6.61
407.749	6.66
407.955	6.88
408.162	6.7
408.369	6.52
408.575	6.54
408.782	6.51
408.989	6.56
409.195	6.53
409.402	6.54
409.609	6.67
409.815	6.77
410.022	6.6
410.228	6.59
410.435	6.69
410.642	6.58
410.848	6.77
411.055	6.45
411.261	6.22
411.468	6.15
411.674	6.26
411.881	6.29
412.087	5.9
412.294	5.83
412.5	5.92
412.706	6.1
412.913	6.09
413.119	5.96
413.326	5.94
413.532	6.19
413.738	6.27
413.945	5.91
414.151	5.45
414.357	5.59
414.564	6.05
414.77	6.07
414.976	5.83
415.182	5.74
415.389	5.85
415.595	5.85
415.801	5.81
416.007	5.79
416.214	5.74
416.42	5.9
416.626	5.95
416.832	5.72
417.038	5.48
417.244	5.36
417.45	5.45
417.657	5.35
417.863	5.45
418.069	5.32
418.275	5.14
418.481	5.29
418.687	5.18
418.893	5.23
419.099	5.23
419.305	5.36
419.511	5.56
419.717	5.67
419.923	5.73
420.129	5.71
420.335	5.79
420.541	5.93
420.746	5.93
420.952	5.96
421.158	6.01
421.364	6.05
421.57	5.9
421.776	5.7
421.982	5.66
422.187	5.6
422.393	5.59
422.599	5.67
422.805	5.46
423.01	5.32
423.216	5.41
423.422	5.4
423.628	5.33
423.833	5.44
424.039	5.6
424.245	5.5
424.45	5.52
424.656	5.55
424.862	5.51
425.067	5.67
425.273	5.68
425.478	5.59
425.684	5.38
425.889	5.32
426.095	5.21
426.301	5.19
426.506	5.25
426.712	5.28
426.917	5.32
427.123	5.25
427.328	5.16
427.533	5.35
427.739	5.41
427.944	5.47
428.15	5.57
428.355	5.66
428.561	5.55
428.766	5.5
428.971	5.49
429.177	5.59
429.382	5.57
429.587	5.72
429.793	5.58
429.998	5.52
430.203	5.62
430.408	5.63
430.614	5.71
430.819	5.68
431.024	5.72
431.229	5.81
431.434	5.45
431.64	5.45
431.845	5.35
432.05	5.53
432.255	5.61
432.46	5.33
432.665	5.18
432.87	5.1
433.076	5.3
433.281	5.29
433.486	5.21
433.691	5.28
433.896	5.18
434.101	5.04
434.306	4.99
434.511	4.89
434.716	5.18
434.921	5.3
435.126	5.41
435.331	5.23
435.535	5.15
435.74	5.08
435.945	5.23
436.15	5.29
436.355	5.39
436.56	5.34
436.765	5.24
436.97	5.26
437.174	5.05
437.379	4.92
437.584	5.03
437.789	5.05
437.993	5.23
438.198	5.09
438.403	5.14
438.608	5.06
438.812	4.94
439.017	5.04
439.222	5.06
439.426	5.22
439.631	5.32
439.836	5.3
440.04	5.47
440.245	5.33
440.45	5.35
440.654	5.34
440.859	5.48
441.063	5.64
441.268	5.61
441.472	5.54
441.677	5.71
441.881	5.4
442.086	5.32
442.29	5.13
442.495	5.31
442.699	5.34
442.904	5.39
443.108	5.32
443.312	5.24
443.517	5.43
443.721	5.49
443.925	5.16
444.13	5.34
444.334	5.36
444.538	5.47
444.743	5.28
444.947	5.18
445.151	5.13
445.356	5.18
445.56	5.09
445.764	5.05
445.968	4.86
446.173	4.97
446.377	5.08
446.581	5.05
446.785	4.92
446.989	4.86
447.193	4.96
447.398	4.94
447.602	4.85
447.806	4.91
448.01	4.82
448.214	4.95
448.418	4.87
448.622	4.81
448.826	4.93
449.03	4.9
449.234	5.05
449.438	5.08
449.642	5.04
449.846	5.13
450.05	5.06
450.254	5.16
450.458	5.14
450.662	5.03
450.866	5.03
451.069	4.93
451.273	5.08
451.477	4.97
451.681	5.16
451.885	4.96
452.089	4.93
452.292	4.88
452.496	4.76
452.7	4.75
452.904	5.04
453.107	5.17
453.311	5.25
453.515	5.09
453.719	4.96
453.922	4.78
454.126	5.02
454.33	4.97
454.533	4.97
454.737	4.77
454.94	4.62
455.144	4.59
455.348	4.48
455.551	4.3
455.755	4.28
455.958	4.38
456.162	3.94
456.365	3.83
456.569	3.81
456.772	3.88
456.976	4.12
457.179	4.23
457.383	4.22
457.586	3.99
457.79	4.07
457.993	4.32
458.196	4.56
458.4	4.79
458.603	4.83
458.807	4.76
459.01	4.76
459.213	4.55
459.417	4.65
459.62	4.58
459.823	4.65
460.026	4.78
460.23	4.75
460.433	4.48
460.636	4.49
460.839	4.49
461.042	4.65
461.246	4.57
461.449	4.81
461.652	4.79
461.855	4.76
462.058	4.89
462.261	4.73
462.464	4.51
462.668	4.65
462.871	4.72
463.074	4.64
463.277	4.6
463.48	4.79
463.683	4.7
463.886	4.69
464.089	4.79
464.292	4.65
464.495	4.62
464.698	4.83
464.901	5.02
465.104	5.01
465.306	5
465.509	4.96
465.712	4.86
465.915	4.86
466.118	4.82
466.321	4.69
466.524	4.6
466.726	4.62
466.929	4.57
467.132	4.46
467.335	4.44
467.538	4.5
467.74	4.52
467.943	4.55
468.146	4.58
468.348	4.77
468.551	4.81
468.754	5.13
468.956	5.21
469.159	5.21
469.362	5.21
469.564	5.22
469.767	5.26
469.969	5.31
470.172	5.29
470.375	5.41
470.577	5.27
470.78	5.3
470.982	5.41
471.185	5.24
471.387	5.23
471.59	5.38
471.792	5.47
471.995	5.54
472.197	5.72
472.399	5.65
472.602	5.51
472.804	5.3
473.007	5.38
473.209	5.11
473.411	5.25
473.614	5.37
473.816	5.38
474.018	5.35
474.22	5.26
474.423	5.14
474.625	5.46
474.827	5.53
475.03	5.66
475.232	5.61
475.434	5.44
475.636	5.4
475.838	5.25
476.04	5.14
476.243	5.06
476.445	5.12
476.647	5
476.849	4.77
477.051	4.65
477.253	4.67
477.455	4.62
477.657	4.85
477.859	4.8
478.061	4.84
478.263	4.77
478.465	4.88
478.667	4.8
478.869	4.93
479.071	5.03
479.273	5.04
479.475	4.89
479.677	4.91
479.879	4.83
480.081	5.03
480.283	5.02
480.485	5.14
480.686	5.09
480.888	5.11
481.09	4.86
481.292	4.76
481.494	4.68
481.695	4.71
481.897	4.6
482.099	4.57
482.301	4.48
482.502	4.45
482.704	4.35
482.906	4.28
483.107	4.27
483.309	4.3
483.511	4.26
483.712	4.35
483.914	4.38
484.115	4.41
484.317	4.4
484.519	4.4
484.72	4.37
484.922	4.41
485.123	4.47
485.325	4.48
485.526	4.52
485.728	4.56
485.929	4.43
486.131	4.39
486.332	4.41
486.534	4.45
486.735	4.42
486.936	4.49
487.138	4.42
487.339	4.33
487.541	4.34
487.742	4.33
487.943	4.29
488.144	4.48
488.346	4.49
488.547	4.46
488.748	4.47
488.95	4.49
489.151	4.47
489.352	4.52
489.553	4.65
489.755	4.67
489.956	4.63
490.157	4.74
490.358	4.57
490.559	4.66
490.76	4.71
490.961	4.67
491.163	4.65
491.364	4.68
491.565	4.69
491.766	4.59
491.967	4.53
492.168	4.49
492.369	4.53
492.57	4.61
492.771	4.58
492.972	4.61
493.173	4.7
493.374	4.74
493.575	4.78
493.776	4.78
493.976	4.79
494.177	4.8
494.378	4.99
494.579	4.9
494.78	4.91
494.981	4.91
495.182	4.7
495.382	4.52
495.583	4.41
495.784	4.33
495.985	4.36
496.185	4.53
496.386	4.62
496.587	4.65
496.788	4.71
496.988	4.51
497.189	4.58
497.39	4.7
497.59	4.81
497.791	5.06
497.992	4.88
498.192	4.91
498.393	4.76
498.593	4.65
498.794	4.7
498.994	4.69
499.195	4.78
499.395	4.78
499.596	4.8
499.796	4.72
499.997	4.52
500.197	4.66
500.398	4.51
500.598	4.61
500.799	4.73
500.999	4.68
501.199	4.67
501.4	4.91
501.6	4.93
501.801	4.96
502.001	5.07
502.201	5.24
502.402	5.43
502.602	5.59
502.802	5.6
503.002	5.75
503.203	5.64
503.403	5.74
503.603	5.67
503.803	5.53
504.003	5.59
504.204	5.66
504.404	5.55
504.604	5.24
504.804	5.26
505.004	5.35
505.204	5.17
505.404	5.17
505.604	4.98
505.804	4.88
506.005	4.99
506.205	4.87
506.405	4.67
506.605	4.73
506.805	4.96
507.005	4.93
507.204	4.81
507.404	4.92
507.604	4.87
507.804	4.98
508.004	4.96
508.204	4.92
508.404	4.83
508.604	4.73
508.804	4.61
509.003	4.77
509.203	4.87
509.403	4.84
509.603	4.66
509.803	4.8
510.002	4.75
510.202	4.79
510.402	4.77
510.602	4.77
510.801	5.07
511.001	5.14
511.201	5.04
511.4	4.95
511.6	4.97
511.8	5.23
511.999	5.09
512.199	5.24
512.398	5.34
512.598	5.38
512.797	5.5
512.997	5.42
513.197	5.48
513.396	5.53
513.596	5.5
513.795	5.6
513.994	5.56
514.194	5.69
514.393	5.58
514.593	5.49
514.792	5.54
514.992	5.56
515.191	5.43
515.39	5.38
515.59	5.24
515.789	5.27
515.988	5.32
516.188	5.31
516.387	5.4
516.586	5.31
516.786	5.22
516.985	5.23
517.184	5.24
517.383	5.1
517.582	5.12
517.782	5.16
517.981	5.28
518.18	5.18
518.379	5.17
518.578	5.07
518.777	5.14
518.976	5.19
519.176	5.19
519.375	5.21
519.574	5.4
519.773	5.38
519.972	5.33
520.171	5.27
520.37	5.24
520.569	5.19
520.768	5.14
520.967	5.18
521.166	5.25
521.365	5.15
521.564	5.09
521.762	4.93
521.961	4.96
522.16	5.09
522.359	5.21
522.558	5.38
522.757	5.4
522.956	5.5
523.154	5.49
523.353	5.52
523.552	5.6
523.751	5.72
523.949	5.91
524.148	5.79
524.347	5.7
524.546	5.71
524.744	5.72
524.943	5.65
525.142	5.66
525.34	5.54
525.539	5.5
525.737	5.49
525.936	5.42
526.135	5.36
526.333	5.37
526.532	5.39
526.73	5.24
526.929	5.18
527.127	5.24
527.326	5.29
527.524	5.4
527.723	5.4
527.921	5.36
528.12	5.38
528.318	5.38
528.516	5.43
528.715	5.48
528.913	5.52
529.112	5.51
529.31	5.51
529.508	5.51
529.707	5.43
529.905	5.49
530.103	5.52
530.301	5.6
530.5	5.67
530.698	5.75
530.896	5.75
531.094	5.75
531.293	5.79
531.491	5.83
531.689	5.81
531.887	6
532.085	5.99
532.283	6.02
532.481	5.94
532.68	5.86
532.878	5.8
533.076	5.81
533.274	5.94
533.472	5.96
533.67	5.99
533.868	6.09
534.066	6.06
534.264	6.06
534.462	6.11
534.66	6.1
534.858	6.26
535.056	6.28
535.253	6.29
535.451	6.2
535.649	6.25
535.847	6.28
536.045	6.24
536.243	6.25
536.441	6.26
536.638	6.26
536.836	6.32
537.034	6.23
537.232	6.22
537.43	6.13
537.627	6.19
537.825	6.21
538.023	6.19
538.22	6.21
538.418	6.12
538.616	6.08
538.813	6.16
539.011	6.04
539.209	6.15
539.406	6.27
539.604	6.38
539.801	6.39
539.999	6.35
540.196	6.32
540.394	6.31
540.591	6.33
540.789	6.39
540.986	6.41
541.184	6.54
541.381	6.49
541.579	6.49
541.776	6.56
541.974	6.54
542.171	6.6
542.368	6.66
542.566	6.73
542.763	6.8
542.96	6.86
543.158	6.94
543.355	6.91
543.552	6.95
543.75	7.03
543.947	7.1
544.144	7.22
544.341	7.25
544.539	7.27
544.736	7.22
544.933	7.37
545.13	7.32
545.327	7.25
545.524	7.39
545.722	7.44
545.919	7.48
546.116	7.42
546.313	7.47
546.51	7.58
546.707	7.65
546.904	7.68
547.101	7.64
547.298	7.73
547.495	7.78
547.692	7.74
547.889	7.94
548.086	7.99
548.283	8.07
548.48	8.04
548.677	8.12
548.874	8.29
549.07	8.36
549.267	8.44
549.464	8.5
549.661	8.44
549.858	8.51
550.055	8.43
550.251	8.42
550.448	8.47
550.645	8.69
550.842	8.77
551.038	8.61
551.235	8.46
551.432	8.38
551.628	8.45
551.825	8.54
552.022	8.46
552.218	8.48
552.415	8.4
552.612	8.42
552.808	8.37
553.005	8.26
553.201	8.27
553.398	8.47
553.594	8.33
553.791	8.36
553.987	8.37
554.184	8.51
554.38	8.4
554.577	8.51
554.773	8.46
554.97	8.42
555.166	8.51
555.362	8.56
555.559	8.64
555.755	9.05
555.952	9.22
556.148	9.5
556.344	9.64
556.541	9.95
556.737	10.04
556.933	10.17
557.129	10.27
557.326	10.25
557.522	10.27
557.718	10.28
557.914	10.01
558.11	9.85
558.307	9.79
558.503	9.93
558.699	9.81
558.895	9.58
559.091	9.6
559.287	9.52
559.483	9.62
559.679	9.44
559.876	9.75
560.072	10.04
560.268	10.17
560.464	10.04
560.66	9.97
560.856	10.17
561.052	10.29
561.247	10.25
561.443	10.49
561.639	10.51
561.835	10.98
562.031	10.83
562.227	10.88
562.423	10.89
562.619	11.13
562.815	11.14
563.01	11.25
563.206	11.65
563.402	11.93
563.598	11.93
563.793	11.87
563.989	11.86
564.185	12.12
564.381	11.95
564.576	12.1
564.772	12.09
564.968	12.07
565.163	11.85
565.359	11.78
565.555	11.7
565.75	11.82
565.946	11.89
566.141	11.79
566.337	11.64
566.532	11.83
566.728	11.87
566.923	11.88
567.119	11.93
567.314	12.16
567.51	12.1
567.705	12.09
567.901	12.06
568.096	12.29
568.292	12.27
568.487	12.49
568.682	12.62
568.878	12.61
569.073	12.69
569.268	12.86
569.464	12.79
569.659	12.9
569.854	13.02
570.05	12.8
570.245	12.63
570.44	12.83
570.635	12.8
570.831	12.71
571.026	12.64
571.221	12.6
571.416	12.58
571.611	12.53
571.806	12.75
572.002	12.69
572.197	12.95
572.392	12.89
572.587	12.89
572.782	12.8
572.977	12.89
573.172	13.1
573.367	13.1
573.562	13.19
573.757	13.3
573.952	13.15
574.147	13.22
574.342	13.31
574.537	13.68
574.732	13.79
574.927	14.01
575.121	13.98
575.316	13.92
575.511	14.16
575.706	14.3
575.901	14.22
576.096	14.4
576.29	14.45
576.485	14.59
576.68	14.64
576.875	14.52
577.069	14.46
577.264	14.54
577.459	14.58
577.654	14.41
577.848	14.08
578.043	14.31
578.238	14.27
578.432	14.41
578.627	14.23
578.821	13.93
579.016	14.01
579.21	14.2
579.405	14.18
579.6	14.26
579.794	14.38
579.989	14.66
580.183	14.72
580.378	14.76
580.572	14.65
580.766	14.73
580.961	14.87
581.155	15.19
581.35	14.98
581.544	15.12
581.738	15.25
581.933	15.27
582.127	15.14
582.321	15.3
582.516	15.07
582.71	15.04
582.904	14.83
583.099	14.93
583.293	14.62
583.487	14.79
583.681	14.65
583.875	14.52
584.07	14.31
584.264	14.56
584.458	14.6
584.652	14.65
584.846	14.66
585.04	14.87
585.234	14.93
585.428	15.26
585.623	15.06
585.817	15.2
586.011	15.19
586.205	15.42
586.399	15.38
586.593	15.04
586.787	15.39
586.981	15.41
587.174	15.47
587.368	15.47
587.562	15.26
587.756	15.26
587.95	15.37
588.144	15.4
588.338	15.34
588.532	15.36
588.725	15.45
588.919	15.31
589.113	15.34
589.307	15.17
589.501	15.13
589.694	15
589.888	15.09
590.082	14.9
590.275	14.82
590.469	14.95
590.663	14.92
590.856	14.91
591.05	14.92
591.244	15.41
591.437	15.52
591.631	15.68
591.824	15.75
592.018	15.69
592.212	15.86
592.405	15.81
592.599	16
592.792	15.87
592.986	16.25
593.179	16.04
593.372	15.88
593.566	15.84
593.759	15.73
593.953	15.89
594.146	15.89
594.339	15.97
594.533	16.13
594.726	15.93
594.92	16.05
595.113	15.68
595.306	15.96
595.499	15.85
595.693	15.97
595.886	15.92
596.079	15.9
596.272	16.03
596.466	16.07
596.659	16.05
596.852	16.07
597.045	16.11
597.238	16.16
597.431	16.12
597.624	16.02
597.818	15.73
598.011	15.63
598.204	15.71
598.397	15.78
598.59	15.72
598.783	15.74
598.976	15.62
599.169	15.66
599.362	15.63
599.555	15.5
599.748	15.66
599.941	16.11
600.134	16.35
600.326	16.28
600.519	16
600.712	15.9
600.905	16.11
601.098	16.23
601.291	16.18
601.483	16.36
601.676	16.43
601.869	16.41
602.062	16.35
602.255	16.18
602.447	16.28
602.64	16.57
602.833	16.72
603.025	16.84
603.218	16.76
603.411	16.95
603.603	17.14
603.796	17.06
603.989	16.96
604.181	16.82
604.374	17.03
604.566	16.81
604.759	16.59
604.951	16.4
605.144	16.17
605.336	16.33
605.529	16.16
605.721	15.94
605.914	16.02
606.106	16.07
606.299	16.24
606.491	16.19
606.683	16.5
606.876	16.74
607.068	16.99
607.26	17.05
607.453	17.05
607.645	17.03
607.837	17.21
608.03	17.39
608.222	17.3
608.414	17.28
608.606	17.27
608.799	17
608.991	16.76
609.183	16.65
609.375	16.8
609.567	16.61
609.759	16.64
609.952	16.56
610.144	16.49
610.336	16.56
610.528	16.6
610.72	16.59
610.912	16.76
611.104	16.96
611.296	17
611.488	16.65
611.68	16.77
611.872	16.71
612.064	16.63
612.256	16.45
612.448	16.5
612.64	16.36
612.832	16.06
613.023	16.34
613.215	16.29
613.407	16.29
613.599	16.66
613.791	16.74
613.983	16.81
614.174	16.76
614.366	16.73
614.558	16.63
614.75	16.88
614.941	17.07
615.133	16.78
615.325	16.83
615.516	16.95
615.708	16.67
615.9	16.81
616.091	16.91
616.283	17.03
616.475	17.14
616.666	17.49
616.858	17.68
617.049	17.65
617.241	17.59
617.432	17.74
617.624	17.66
617.815	17.81
618.007	17.68
618.198	17.51
618.39	17.4
618.581	17.61
618.773	17.36
618.964	17.04
619.155	17.19
619.347	17.31
619.538	17.21
619.729	17.23
619.921	17.44
620.112	17.79
620.303	17.98
620.494	18.09
620.686	17.9
620.877	18.08
621.068	18.24
621.259	18.2
621.451	18.27
621.642	18.07
621.833	18.14
622.024	18.22
622.215	17.67
622.406	17.91
622.597	18.03
622.788	18.2
622.98	18.17
623.171	17.99
623.362	18.06
623.553	18.04
623.744	18.11
623.935	18.11
624.126	17.55
624.317	17.86
624.508	17.52
624.698	17.37
624.889	17.41
625.08	17.04
625.271	17.19
625.462	17.29
625.653	17.7
625.844	17.84
626.034	17.9
626.225	18.19
626.416	17.78
626.607	17.77
626.798	17.65
626.988	17.66
627.179	18
627.37	17.73
627.56	17.56
627.751	17.21
627.942	17.25
628.132	16.99
628.323	16.96
628.514	17.23
628.704	17.25
628.895	17.23
629.085	17.25
629.276	17.07
629.466	17.37
629.657	17.37
629.847	17.24
630.038	17.2
630.228	17.19
630.419	17.38
630.609	17.54
630.8	17.57
630.99	17.92
631.181	17.79
631.371	18.04
631.561	18.1
631.752	18.11
631.942	18.2
632.132	18.27
632.323	18.34
632.513	18.23
632.703	18.03
632.893	17.97
633.084	17.87
633.274	17.85
633.464	17.67
633.654	17.7
633.844	17.79
634.034	17.78
634.225	17.58
634.415	17.9
634.605	17.85
634.795	18.05
634.985	18.32
635.175	18.23
635.365	17.94
635.555	18.23
635.745	18.36
635.935	18.16
636.125	18.27
636.315	18.65
636.505	18.8
636.695	18.68
636.885	18.83
637.075	18.61
637.265	18.87
637.455	19.17
637.644	18.9
637.834	18.52
638.024	18.61
638.214	18.22
638.404	18.05
638.593	17.78
638.783	17.96
638.973	17.74
639.163	18.02
639.352	17.82
639.542	17.7
639.732	17.52
639.921	17.57
640.111	17.43
640.301	17.7
640.49	18.16
640.68	18.4
640.87	18.05
641.059	17.6
641.249	17.5
641.438	17.32
641.628	17.69
641.817	17.97
642.007	17.7
642.196	17.78
642.386	17.31
642.575	16.44
642.764	16.02
642.954	16.39
643.143	16.63
643.333	16.49
643.522	16.71
643.711	16.52
643.901	16.3
644.09	16.69
644.279	17.17
644.469	17.71
644.658	18.05
644.847	18.39
645.036	18.65
645.226	18.77
645.415	18.57
645.604	18.59
645.793	18.68
645.982	18.96
646.171	18.75
646.361	18.4
646.55	18.52
646.739	18.15
646.928	17.63
647.117	17.25
647.306	17.34
647.495	17.69
647.684	17.53
647.873	17.02
648.062	16.92
648.251	17.01
648.44	17.51
648.629	17.75
648.818	17.98
649.007	17.97
649.196	17.78
649.384	18.08
649.573	17.38
649.762	17.58
649.951	18.16
650.14	17.92
650.328	17.76
650.517	17.08
650.706	16.88
650.895	16.81
651.083	16.78
651.272	17.07
651.461	16.9
651.65	17.25
651.838	16.91
652.027	16.43
652.216	16.48
652.404	16.92
652.593	17.46
652.781	17.37
652.97	17.88
653.158	18.28
653.347	18.43
653.535	18.6
653.724	18.69
653.912	18.8
654.101	19.2
654.289	19.43
654.478	18.94
654.666	19.01
654.855	19.06
655.043	18.32
655.231	17.89
655.42	17.94
655.608	17.57
655.796	17.45
655.985	17.48
656.173	17.51
656.361	17.47
656.55	17.54
656.738	17.45
656.926	17.45
657.114	17.58
657.302	18.17
657.491	18.19
657.679	18.17
657.867	18.23
658.055	18.36
658.243	18.45
658.431	18.48
658.619	18.42
658.807	18.39
658.996	18.53
659.184	18.86
659.372	18.71
659.56	18.68
659.748	18.68
659.936	19.01
660.124	19.04
660.311	18.78
660.499	19.05
660.687	19.32
660.875	18.98
661.063	19.18
661.251	19.25
661.439	19.52
661.627	19.26
661.814	19.62
662.002	19.55
662.19	19.44
662.378	19.84
662.565	19.83
662.753	19.75
662.941	20.12
663.129	19.92
663.316	20.15
663.504	20.13
663.692	20.52
663.879	20.38
664.067	20.28
664.254	20.88
664.442	20.94
664.63	20.85
664.817	21.45
665.005	20.95
665.192	20.46
665.38	20.31
665.567	20.01
665.755	20.23
665.942	19.57
666.13	19.65
666.317	19.3
666.504	19.35
666.692	19.17
666.879	18.98
667.067	19.18
667.254	19.32
667.441	19.09
667.629	19.33
667.816	19.01
668.003	19.99
668.19	20.09
668.378	19.76
668.565	19.56
668.752	19.62
668.939	19.43
669.127	19.61
669.314	19.75
669.501	19.78
669.688	19.33
669.875	19.42
670.062	19
670.249	18.99
670.436	19.54
670.623	19.63
670.81	19.57
670.997	19.56
671.184	19.71
671.371	19.72
671.558	19.18
671.745	19.16
671.932	19.28
672.119	19.59
672.306	19.6
672.493	19.21
672.68	19.08
672.867	19.71
673.054	19.88
673.24	20.44
673.427	20.96
673.614	21.4
673.801	21.82
673.988	21.38
674.174	21.24
674.361	20.85
674.548	21.23
674.734	21.59
674.921	21.37
675.108	21.37
675.294	20.47
675.481	19.15
675.668	19.34
675.854	19.43
676.041	19.79
676.227	19.87
676.414	20.02
676.601	19.14
676.787	19.07
676.974	18.19
677.16	17.8
677.347	17.8
677.533	18.51
677.719	18.45
677.906	18.42
678.092	18.72
678.279	18.4
678.465	18.56
678.651	19.05
678.838	19.22
679.024	19.81
679.21	19.68
679.397	19.81
679.583	20.16
679.769	20.04
679.955	20.05
680.142	19.74
680.328	19.67
680.514	20.05
680.7	20.02
680.886	19.88
681.073	19.85
681.259	20.06
681.445	20.08
681.631	20.13
681.817	20.14
682.003	20.41
682.189	20.24
682.375	20.25
682.561	19.88
682.747	20.23
682.933	19.97
683.119	20.02
683.305	20.05
683.491	20
683.677	19.47
683.863	19.76
684.049	19.31
684.235	19.31
684.42	19.81
684.606	20.01
684.792	19.99
684.978	19.92
685.164	19.92
685.349	20.18
685.535	20.55
685.721	20.99
685.907	20.97
686.092	20.98
686.278	21.19
686.464	20.79
686.649	20.74
686.835	20.16
687.021	19.99
687.206	19.92
687.392	20.04
687.577	19.81
687.763	19.57
687.948	19.56
688.134	19.14
688.319	18.68
688.505	18.89
688.69	18.59
688.876	19.19
689.061	19.81
689.247	19.13
689.432	18.53
689.618	18.8
689.803	18.71
689.988	19.01
690.174	19.71
690.359	20.72
690.544	20.6
690.73	20.86
690.915	20.73
691.1	20.11
691.285	20.73
691.471	20.99
691.656	20.34
691.841	20.76
692.026	20.7
692.211	20.54
692.396	20.1
692.582	20.73
692.767	20.89
692.952	20.78
693.137	21.29
693.322	20.8
693.507	21.26
693.692	21.4
693.877	21.24
694.062	21.05
694.247	21.34
694.432	21.24
694.617	20.41
694.802	20.29
694.987	20.6
695.172	20.82
695.357	22.17
695.541	21.31
695.726	21.79
695.911	22.01
696.096	21.97
696.281	21.6
696.466	22.04
696.65	22.24
696.835	22
697.02	21.71
697.204	21.41
697.389	21.16
697.574	21.27
697.759	21.44
697.943	20.54
698.128	20.44
698.312	20.6
698.497	20.31
698.682	20.21
698.866	19.98
699.051	19.88
699.235	19.83
699.42	19.53
699.604	19.74
699.789	19.06
699.973	19.67
700.158	19.31
700.342	19.15
700.527	18.74
700.711	18.81
700.895	19.54
701.08	19.68
701.264	19.81
701.448	19.75
701.633	19.34
701.817	19.62
702.001	20.04
702.186	20.36
702.37	20.44
702.554	21.26
702.738	21.22
702.923	20.76
703.107	20.73
703.291	21.01
703.475	21.14
703.659	21.55
703.843	22.02
704.027	21.27
704.212	21.15
704.396	21.57
704.58	20.69
704.764	20.98
704.948	21.29
705.132	20.73
705.316	19.89
705.5	19.75
705.684	19.99
705.868	20.36
706.052	20.79
706.235	21.47
706.419	21.08
706.603	21.61
706.787	21.74
706.971	21.24
707.155	21.24
707.339	21.53
707.522	21.56
707.706	21.28
707.89	20.88
708.074	20.66
708.257	19.65
708.441	19.31
708.625	19.25
708.808	18.89
708.992	19.83
709.176	19.78
709.359	19.9
709.543	19.63
709.727	19.95
709.91	20.6
710.094	20.52
710.277	20.95
710.461	21.34
710.644	21.74
710.828	21.61
711.011	20.87
711.195	21.17
711.378	21.03
711.562	21.44
711.745	21.32
711.928	20.74
712.112	20.3
712.295	20.92
712.478	20.85
712.662	20.57
712.845	20.68
713.028	20.12
713.212	20.75
713.395	21.2
713.578	20.99
713.761	21.02
713.945	21.27
714.128	22.11
714.311	21.77
714.494	22.04
714.677	22.22
714.86	22.31
715.043	22.12
715.227	21.44
715.41	21.22
715.593	21.38
715.776	21.67
715.959	21.54
716.142	21.46
716.325	21.17
716.508	21.22
716.691	21.19
716.874	21.17
717.057	21.74
717.239	21.93
717.422	21.82
717.605	21.84
717.788	20.86
717.971	21.04
718.154	20.87
718.337	20.49
718.519	20.02
718.702	19.97
718.885	19.83
719.068	20.62
719.25	21.3
719.433	21.75
719.616	21.38
719.798	22.51
719.981	22.2
720.164	22.03
720.346	23.01
720.529	22.67
720.712	22.51
720.894	22.24
721.077	21.87
721.259	21.83
721.442	21.85
721.624	22.19
721.807	22.1
721.989	22.1
722.172	22.29
722.354	22.22
722.537	22.45
722.719	22.64
722.901	23.16
723.084	23.76
723.266	23.23
723.448	24.27
723.631	24.18
723.813	24.14
723.995	24.51
724.178	25.35
724.36	25.59
724.542	25.4
724.724	26.31
724.907	26.38
725.089	25.08
725.271	26.08
725.453	24.16
725.635	24.63
725.817	24.66
725.999	24.3
726.181	23.3
726.364	23.52
726.546	23.85
726.728	21.96
726.91	22.34
727.092	23.06
727.274	22.12
727.456	21.24
727.638	20.33
727.819	21.04
728.001	21.2
728.183	21.57
728.365	21.42
728.547	21.36
728.729	22.5
728.911	22.01
729.093	22.1
729.274	22.65
729.456	24.63
729.638	24.57
729.82	23.49
730.001	22.99
730.183	22.68
730.365	22.22
730.546	22.75
730.728	22.63
730.91	23.37
731.091	23.05
731.273	23.08
731.455	23.14
731.636	22.92
731.818	22.56
731.999	23.03
732.181	23.04
732.362	23.42
732.544	22.7
732.725	22.48
732.907	21.93
733.088	22.14
733.27	21.53
733.451	20.79
733.633	20.88
733.814	20.68
733.995	20.07
734.177	20.11
734.358	19.34
734.539	19.71
734.721	18.87
734.902	19.03
735.083	19.43
735.264	19.16
735.446	19.43
735.627	19.99
735.808	20.72
735.989	21.84
736.17	21.26
736.351	22.58
736.533	22.4
736.714	22.96
736.895	23.25
737.076	23.88
737.257	24.3
737.438	24.58
737.619	25.52
737.8	24.41
737.981	24.54
738.162	25.49
738.343	24.69
738.524	24.31
738.705	24.65
738.886	23.92
739.067	22.26
739.247	22.2
739.428	22.74
739.609	20.99
739.79	22.71
739.971	22.27
740.151	21.81
740.332	21.66
740.513	22.56
740.694	21.79
740.874	23.27
741.055	22.88
741.236	22.57
741.417	20.89
741.597	22.44
741.778	22.11
741.958	21.79
742.139	22.52
742.32	22.61
742.5	22.85
742.681	23.74
742.861	22.33
743.042	21.95
743.222	21.8
743.403	22.48
743.583	23.63
743.764	22.9
743.944	22.72
744.124	22.23
744.305	21.83
744.485	20.9
744.666	20.02
744.846	18.46
745.026	20.19
745.207	22.02
745.387	22.01
745.567	20.85
745.747	21.51
745.928	21.87
746.108	21.3
746.288	20.88
746.468	21.22
746.648	21.67
746.829	24.53
747.009	23.36
747.189	22.94
747.369	22.49
747.549	21.84
747.729	22.34
747.909	21.66
748.089	22.47
748.269	23.97
748.449	25.07
748.629	24.99
748.809	24.22
748.989	24.26
749.169	23.11
749.349	24.36
749.529	24.62
749.709	21.86
749.889	22.05
750.068	22.06
750.248	21.82
750.428	20.38
750.608	20.76
750.788	20.61
750.967	21.29
751.147	22.18
751.327	21.88
751.507	21.66
751.686	23.32
751.866	23.09
752.046	22.87
752.225	22.65
752.405	22.93
752.585	22.74
752.764	22.95
752.944	23.35
753.123	22.71
753.303	22.48
753.482	23.46
753.662	22.36
753.841	22.25
754.021	21.64
754.2	22.38
754.38	23.74
754.559	24.49
754.739	23.4
754.918	21.63
755.097	22.31
755.277	21.56
755.456	21.36
755.635	23.58
755.815	23.83
755.994	22.92
756.173	22.03
756.352	21.22
756.532	18.53
756.711	18.97
756.89	20.34
757.069	19.41
757.248	18.44
757.427	18.4
757.607	17.7
757.786	18.08
757.965	20.52
758.144	22.05
758.323	21.21
758.502	23.02
758.681	24.01
758.86	24.01
759.039	25.31
759.218	26.59
759.397	26.57
759.576	25.02
759.755	25.42
759.934	24.57
760.113	23.64
760.291	24.52
760.47	25.92
760.649	24.49
760.828	25.24
761.007	24.79
761.186	25.62
761.364	26.27
761.543	27.61
761.722	27.76
761.901	27.46
762.079	26.46
762.258	25.64
762.437	24.37
762.615	25.37
762.794	24.4
762.972	23.43
763.151	23.27
763.33	22.75
763.508	22.51
763.687	22.42
763.865	22.85
764.044	22.93
764.222	23.55
764.401	23.96
764.579	23.74
764.758	24.08
764.936	24.22
765.114	23.86
765.293	23.52
765.471	23.22
765.65	23.15
765.828	23.01
766.006	23.07
766.184	22.21
766.363	21.32
766.541	19.93
766.719	20.84
766.898	21.64
767.076	21.71
767.254	20.78
767.432	21.23
767.61	22.1
767.788	22.09
767.967	22.53
768.145	24.1
768.323	24.32
768.501	26.39
768.679	25.59
768.857	24.39
769.035	24.27
769.213	25.04
769.391	27.45
769.569	27.21
769.747	26.95
769.925	27.14
770.103	24.85
770.281	27.38
770.459	27.82
770.636	27.08
770.814	28.49
770.992	29.24
771.17	29.38
771.348	28.52
771.525	29.39
771.703	29.68
771.881	30.16
772.059	31.42
772.236	29.25
772.414	27.58
772.592	27.31
772.769	27.3
772.947	27.41
773.125	27.45
773.302	26.54
773.48	24.13
773.657	23.22
773.835	22.45
774.013	22.58
774.19	21.62
774.368	24.47
774.545	26.21
774.723	27.73
774.9	27.8
775.077	30.28
775.255	28.22
775.432	29.37
775.61	30.24
775.787	30.92
775.964	32.63
776.142	34
776.319	35.11
776.496	34.09
776.674	33.19
776.851	32.78
777.028	32.3
777.205	35.05
777.382	35.52
777.56	34.96
777.737	36.3
777.914	34.24
778.091	35.11
778.268	30.06
778.445	29.79
778.622	28.14
778.8	27.59
778.977	28.17
779.154	26.79
779.331	24.55
779.508	24.08
779.685	20.93
779.862	19.95
780.038	16.22
780.215	18.37
780.392	20.6
780.569	22.54
780.746	22.3
780.923	20.11
781.1	20.4
781.277	21.77
781.453	20.86
781.63	21.83
781.807	23.52
781.984	24.78
782.16	24.12
782.337	18.42
782.514	17.18
782.691	15.68
782.867	18.46
783.044	18.64
783.221	18.8
783.397	20.53
783.574	19.67
783.75	20.97
783.927	24.51
784.103	29.13
784.28	33.99
784.456	37.08
784.633	39.68
784.809	37.81
784.986	39.78
785.162	40.14
785.339	39.93
785.515	40.97
785.692	37.09
785.868	36.04
786.044	30.77
786.221	31.39
786.397	31.7
786.573	31.06
786.749	28.67
786.926	26.85
787.102	27.31
787.278	28.63
787.454	29.14
787.631	29.8
787.807	29.29
787.983	29.83
788.159	29.8
788.335	25.49
788.511	25.39
788.687	27.7
788.863	28.09
789.039	26.04
789.216	27
789.392	25.86
789.568	29.15
789.744	27.5
789.919	29.41
790.095	31.27
790.271	33.96
790.447	33.19
790.623	32.54
790.799	32.55
790.975	33.48
791.151	29.26
791.327	28.8
791.502	26.89
791.678	28.28
791.854	26.31
792.03	23.42
792.205	23.49
792.381	25.87
792.557	26.62
792.733	24.66
792.908	23.79
793.084	25.68
793.259	22.81
793.435	25.92
793.611	25.36
793.786	27.24
793.962	28.12
794.137	25.63
794.313	25.52
794.488	22.84
794.664	25.18
794.839	25.88
795.015	26.62
795.19	30.08
795.366	27.2
795.541	30.24
795.716	27.14
795.892	26.61
796.067	25.17
796.242	22.92
796.418	24.39
796.593	23.1
796.768	22.62
796.944	21.04
797.119	19.37
797.294	21.16
797.469	18.62
797.644	22.75
797.82	21.37
797.995	22.06
798.17	24.99
798.345	25.88
798.52	24.95
798.695	25.88
798.87	25.08
799.045	26.76
799.22	26.34
799.395	27.57
799.57	26.61
799.745	26.45
799.92	26.52
800.095	24.45
800.27	24.27
800.445	26.92
800.62	27.57
800.795	31.95
800.97	31.06
801.145	32.87
801.319	29.48
801.494	30.53
801.669	31.51
801.844	34.48
802.018	32.32
802.193	31.73
802.368	30.4
802.543	29.18
802.717	27.16
802.892	27.78
803.067	26.55
803.241	27.8
803.416	24.1
803.59	25.6
803.765	23.28
803.94	27.01
804.114	26.83
804.289	24.3
804.463	24.28
804.638	24.85
804.812	26.74
804.986	23.47
805.161	26.26
805.335	28.01
805.51	25.96
805.684	23.82
805.858	22.32
806.033	21.72
806.207	24.98
806.381	25.99
806.556	23.31
806.73	22.67
806.904	23.34
807.078	23.91
807.253	23.33
807.427	23.22
807.601	25.28
807.775	28.74
807.949	30.61
808.123	27.14
808.298	26.76
808.472	27.95
808.646	28.51
808.82	27.35
808.994	27.73
809.168	28.06
809.342	30.73
809.516	31.3
809.69	31.34
809.864	26.51
810.038	25.65
810.212	25.52
810.385	26.64
810.559	26.68
810.733	33.28
810.907	25.79
811.081	22.03
811.255	24.81
811.428	27.68
811.602	21.86
811.776	27.05
811.95	29.33
812.123	27.74
812.297	28.61
812.471	26.45
812.644	23.48
812.818	30.52
812.992	35.42
813.165	32.24
813.339	30.36
813.512	35.29
813.686	36.73
813.86	39.12
814.033	42.95
814.207	42.95
814.38	40.99
814.554	41.04
814.727	40.96
814.9	39.84
815.074	41.37
815.247	40.84
815.421	36.58
815.594	38.54
815.767	40.98
815.941	42.28
816.114	38.59
816.287	45.3
816.46	46.35
816.634	40.89
816.807	41.15
816.98	37.16
817.153	37.81
817.327	37.57
817.5	39.45
817.673	36.84
817.846	37.28
818.019	39.12
818.192	39.86
818.365	32.19
818.538	35.65
818.711	34.27
818.884	37.72
819.057	38.44
819.23	41.09
819.403	35.03
819.576	37.17
819.749	36.86
819.922	37.71
820.095	35.67
820.268	39.62
820.441	38.18
820.614	37.02
820.786	36.07
820.959	34.53
821.132	33.9
821.305	36.16
821.477	34.36
821.65	32.22
821.823	30.96
821.996	29.25
822.168	29.25
822.341	28.56
822.514	28.95
822.686	28.66
822.859	28.3
823.031	27.9
823.204	26.4
823.376	26.11
823.549	26.8
823.722	26.75
823.894	26.96
824.067	26.62
824.239	26.75
824.411	26.15
824.584	26.68
824.756	27.67
824.929	27.96
825.101	29.39
825.273	30.5
825.446	28.99
825.618	29.32
825.79	29.4
825.963	30.54
826.135	31.7
826.307	33.34
826.479	31.69
826.652	30.17
826.824	28.5
826.996	29.38
827.168	29.07
827.34	30.54
827.512	32.32
827.684	32.15
827.856	30.59
828.029	29.37
828.201	28.75
828.373	28.31
828.545	28.47
828.717	29.56
828.889	27.24
829.061	27.12
829.232	25.69
829.404	24.04
829.576	24.1
829.748	24.77
829.92	26.07
830.092	25.34
830.264	27.03
830.436	26.29
830.607	27.4
830.779	26.52
830.951	25.59
831.123	25.07
831.294	23.82
831.466	22.87
831.638	24.06
831.809	23.35
831.981	21.04
832.153	21.09
832.324	24.48
832.496	25.91
832.667	26.52
832.839	24.52
833.011	26.37
833.182	25.74
833.354	25.02
833.525	26.64
833.697	25.03
833.868	26.68
834.039	27.3
834.211	28.4
834.382	28.18
834.554	27.51
834.725	29.25
834.896	30.34
835.068	29.1
835.239	30.59
835.41	28.88
835.581	31.34
835.753	32.41
835.924	31.28
836.095	28.79
836.266	27.17
836.438	29.79
836.609	28
836.78	27.97
836.951	28.54
837.122	30.09
837.293	29.88
837.464	30.31
837.635	29.99
837.806	31.89
837.977	35.58
838.148	38.16
838.319	39.35
838.49	41.35
838.661	36.84
838.832	41.86
839.003	43.89
839.174	44.72
839.345	44.62
839.516	40.01
839.687	36.69
839.857	33.77
840.028	38.21
840.199	36.19
840.37	42.62
840.54	45.23
840.711	46.38
840.882	38.33
841.053	37.4
841.223	33.27
841.394	37.85
841.564	38.8
841.735	41.12
841.906	39.1
842.076	42.94
842.247	38.37
842.417	42.84
842.588	37.38
842.758	47.26
842.929	53.19
843.099	59.92
843.27	62.32
843.44	69.72
843.611	70.3
843.781	65.16
843.951	60.12
844.122	68.58
844.292	75.84
844.462	81.9
844.633	99.12
844.803	85.06
844.973	77.01
845.144	71.98
845.314	61.38
845.484	66.72
845.654	67.78
845.824	63.89
845.995	64.98
846.165	54.8
846.335	61.32
846.505	43.65
846.675	45.99
846.845	51.08
847.015	56.79
847.185	69.82
847.355	70.31
847.525	77.84
847.695	82.38
847.865	69.58
848.035	70.88
848.205	71.27
848.375	81.55
848.545	68.9
848.715	63.52
848.884	61.91
849.054	58.38
849.224	45.61
849.394	36.09
849.564	37.77
849.733	47.6
849.903	41.31
850.073	36
850.243	28.69
850.412	49
850.582	51.3
850.752	61.77
850.921	59.5
851.091	68.36
851.26	80.15
851.43	81.45
851.599	67.29
851.769	71.25
851.939	69.97
852.108	72.51
852.278	63.29
852.447	77.66
852.616	70.39
852.786	75.85
852.955	69.83
853.125	62.49
853.294	64.23
853.463	60.86
853.633	62.47
853.802	64.24
853.971	62.26
854.141	69.93
854.31	54.03
854.479	55
854.648	49.87
854.818	55.36
854.987	52.43
855.156	62.53
855.325	69.1
855.494	72.53
855.663	63.08
855.832	70.24
856.001	53.14
856.171	57.6
856.34	54.99
856.509	58.25
856.678	52.31
856.847	55.71
857.016	51.08
857.185	55.5
857.353	45.67
857.522	55.62
857.691	45.56
857.86	53.27
858.029	60.19
858.198	65.38
858.367	68.21
858.535	79.39
858.704	80.72
858.873	74.51
859.042	69.35
859.21	74.69
859.379	70.04
859.548	82.55
859.717	87.79
859.885	74.09
860.054	76.72
860.222	72.04
860.391	62.51
860.56	68.33
860.728	68.97
860.897	81.28
861.065	84.19
861.234	95.47
861.402	89.2
861.571	82.48
861.739	89.93
861.908	76.71
862.076	78.57
862.244	91.74
862.413	66.01
862.581	74.21
862.749	73.36
862.918	73.88
863.086	68.58
863.254	61.11
863.423	58.23
863.591	56.23
863.759	65.77
863.927	69.83
864.096	61.36
864.264	73.69
864.432	66.35
864.6	62.4
864.768	48.9
864.936	56.69
865.104	66.81
865.272	75.44
865.44	65.8
865.608	58.56
865.776	48.44
865.944	59.73
866.112	52.88
866.28	50.62
866.448	38.42
866.616	49.57
866.784	62.85
866.952	71.35
867.12	53.89
867.288	70.18
867.455	84.24
867.623	101.66
867.791	80.97
867.959	92.14
868.127	105.93
868.294	108.19
868.462	101.85
868.63	91.05
868.797	77.85
868.965	84.21
869.133	68.79
869.3	60.16
869.468	75.82
869.636	80.04
869.803	70.94
869.971	76.81
870.138	75.54
870.306	73.79
870.473	70.43
870.641	65.83
870.808	78.66
870.975	81.32
871.143	85.66
871.31	60.18
871.478	62.14
871.645	63.04
871.812	61.51
871.98	49.64
872.147	69.69
872.314	44.04
872.482	50.88
872.649	49.79
872.816	56.47
872.983	49.43
873.15	55.03
873.318	77.73
873.485	84.35
873.652	70.27
873.819	73.36
873.986	60.11
874.153	78.41
874.32	88.18
874.487	73.57
874.654	91.25
874.821	88.17
874.988	94.16
875.155	77.07
875.322	76.99
875.489	81.25
875.656	79.86
875.823	81.77
875.99	64.35
876.157	74.71
876.324	85.44
876.49	68.61
876.657	66.65
876.824	45.51
876.991	49.42
877.157	51.16
877.324	46.76
877.491	50.42
877.658	46.39
877.824	38.74
877.991	34.55
878.157	27.19
878.324	28.16
878.491	16.53
878.657	43.22
878.824	45.61
878.99	52.68
879.157	57.82
879.323	72.65
879.49	75.58
879.656	92.93
879.823	81.04
879.989	78.87
880.156	67.11
880.322	66.96
880.488	61.27
880.655	58.38
880.821	57.48
880.987	54.86
881.154	45.65
881.32	42.16
881.486	41.76
881.652	42.57
881.819	46.38
881.985	44.3
882.151	44.25
882.317	45.29
882.483	43.25
882.649	40.24
882.816	40.02
882.982	38.95
883.148	39.05
883.314	38.65
883.48	38.04
883.646	32.82
883.812	36.53
883.978	36.29
884.144	34.64
884.31	32.6
884.476	30.08
884.642	29.87
884.807	30.47
884.973	28.97
885.139	29.39
885.305	30.25
885.471	35
885.637	32.02
885.802	33.37
885.968	37
886.134	43.71
886.3	49.82
886.465	54.09
886.631	54.13
886.797	56.02
886.962	56.96
887.128	57.06
887.293	55.88
887.459	63.05
887.625	60.8
887.79	54.64
887.956	36.94
888.121	28.97
888.287	16.41
888.452	16.81
888.618	28.21
888.783	22.82
