Data from 2938122_Reflection_1.txt Node
Date: Sat Jul 11 17:42:45 EDT 2015
User: robert
Spectrometer: USB4E03001
Autoset integration time: false
Trigger mode: 4
Integration Time (sec): 1.000000E-1
Scans to average: 10
Electric dark correction enabled: true
Nonlinearity correction enabled: false
Boxcar width: 5
Stray light correction enabled: false
XAxis mode: Wavelengths
Stop averaging: false
Number of Pixels in Spectrum: 3648
>>>>>Begin Spectral Data<<<<<
177.566	943.52
177.785	-121.75
178.005	105.88
178.225	128.86
178.445	105.5
178.665	88.8
178.885	142.67
179.105	111.6
179.324	103.29
179.544	93.2
179.764	144.64
179.984	172.85
180.204	183.03
180.423	72.51
180.643	144.5
180.863	67.65
181.083	-12.81
181.302	17.54
181.522	75.32
181.742	108.58
181.961	118.76
182.181	65.33
182.401	75.24
182.621	181.03
182.84	178.96
183.06	46.12
183.279	92.56
183.499	129.05
183.719	103.79
183.938	101.69
184.158	98.26
184.377	76.21
184.597	98.86
184.816	110.44
185.036	103.78
185.256	123.17
185.475	141.1
185.695	129.58
185.914	158.49
186.134	160.01
186.353	168.92
186.572	134.35
186.792	177.25
187.011	256.65
187.231	224.6
187.45	184.79
187.67	164.79
187.889	167.2
188.108	177.87
188.328	168
188.547	162.92
188.766	144.46
188.986	194.96
189.205	211.2
189.424	181.75
189.644	205.9
189.863	298.91
190.082	1374.01
190.302	409.29
190.521	353.72
190.74	324.22
190.959	-1583.14
191.178	-1126.81
191.398	569.25
191.617	190.37
191.836	217.28
192.055	325.65
192.274	224.98
192.494	147.33
192.713	401.77
192.932	402.51
193.151	-5855.67
193.37	-1338.62
193.589	-228.29
193.808	-1268.11
194.027	-847.53
194.246	470.22
194.465	6211.86
194.685	631.57
194.904	-1243.73
195.123	409.08
195.342	-437.01
195.561	327.61
195.78	184.42
195.999	213.96
196.218	426.03
196.436	408.75
196.655	443.03
196.874	249.64
197.093	233.81
197.312	194.54
197.531	214.95
197.75	199.23
197.969	192.17
198.188	213.03
198.407	233.48
198.625	263.83
198.844	281.77
199.063	250.75
199.282	405.96
199.501	466.7
199.719	642.02
199.938	360.38
200.157	679.65
200.376	-4338.97
200.594	381.72
200.813	179.42
201.032	110.51
201.251	100.08
201.469	139.67
201.688	88.77
201.907	92.12
202.125	86.48
202.344	92.75
202.563	96.2
202.781	95.57
203	67.23
203.218	77.49
203.437	74.86
203.656	56.39
203.874	-3.22
204.093	3.93
204.311	21.05
204.53	24.78
204.748	40.53
204.967	18.37
205.185	30.23
205.404	38.02
205.622	58.1
205.841	51.14
206.059	73.69
206.278	101.12
206.496	146.96
206.715	198.72
206.933	253.15
207.151	324.29
207.37	531.37
207.588	616.6
207.806	405.3
208.025	445.54
208.243	437.33
208.461	414.69
208.68	-97.66
208.898	139.38
209.116	111
209.335	35.95
209.553	21.65
209.771	-69.57
209.989	274.18
210.208	-434.43
210.426	-434.4
210.644	-720
210.862	223.28
211.081	230.27
211.299	226.43
211.517	405.38
211.735	485.01
211.953	195.12
212.171	229.07
212.39	174.37
212.608	160.76
212.826	142.49
213.044	111.89
213.262	118.09
213.48	99.79
213.698	121.43
213.916	98.02
214.134	93.47
214.352	110.2
214.57	108.69
214.788	112.24
215.006	104.9
215.224	89.52
215.442	90.43
215.66	100.68
215.878	93.27
216.096	88.85
216.314	79.46
216.532	73.79
216.75	59.79
216.968	66.64
217.185	55.2
217.403	84.4
217.621	122.27
217.839	142.64
218.057	91.99
218.275	111.73
218.492	132.87
218.71	137.54
218.928	158.57
219.146	150.89
219.363	108.82
219.581	225.32
219.799	-272.04
220.017	-1794.85
220.234	-40.1
220.452	99.44
220.67	145.58
220.887	-0.08
221.105	-3.82
221.323	-29.21
221.54	71.6
221.758	74.06
221.976	57.81
222.193	46.47
222.411	53.87
222.629	50.59
222.846	84.28
223.064	85.97
223.281	75.58
223.499	72.92
223.716	78.77
223.934	79.49
224.151	75.7
224.369	78.37
224.586	84.77
224.804	76.7
225.021	75.14
225.239	58.51
225.456	50.27
225.674	57.94
225.891	66.8
226.108	55.26
226.326	52.68
226.543	44.78
226.76	41.88
226.978	39.87
227.195	40.26
227.413	39.7
227.63	42.13
227.847	42.36
228.064	37.05
228.282	32.06
228.499	33.83
228.716	30.16
228.934	30.13
229.151	31.19
229.368	31.18
229.585	31.38
229.802	33.13
230.02	31.46
230.237	30.42
230.454	30.33
230.671	29.45
230.888	29.71
231.105	31.51
231.323	32.07
231.54	29.69
231.757	28.16
231.974	29.61
232.191	28.51
232.408	25.09
232.625	28.54
232.842	28.81
233.059	28.67
233.276	25.87
233.493	27.7
233.71	32.44
233.927	30.96
234.144	34.77
234.361	32.27
234.578	29.73
234.795	29.28
235.012	28.19
235.229	27.05
235.446	21.29
235.663	23.45
235.879	20.3
236.096	16.51
236.313	16.01
236.53	12.53
236.747	16.04
236.964	18.81
237.181	27.74
237.397	27.23
237.614	30.18
237.831	31.89
238.048	34.45
238.264	33.7
238.481	34.58
238.698	32.25
238.915	26.28
239.131	22.84
239.348	19.4
239.565	13.33
239.781	16.16
239.998	17.61
240.215	23.93
240.431	21.32
240.648	22.12
240.865	20.28
241.081	19.41
241.298	19.97
241.514	20.05
241.731	20.8
241.947	21.68
242.164	19.72
242.38	18.45
242.597	15.42
242.814	16.44
243.03	17.42
243.246	18.28
243.463	18.61
243.679	19.02
243.896	18.38
244.112	17.92
244.329	15.45
244.545	16.79
244.762	16.15
244.978	20.03
245.194	18.53
245.411	17.01
245.627	15.65
245.843	16.06
246.06	14.79
246.276	13.76
246.492	14.52
246.709	13.83
246.925	12.93
247.141	12.22
247.357	10.38
247.574	10.73
247.79	11.83
248.006	11.75
248.222	11.32
248.439	11.4
248.655	12.09
248.871	11.12
249.087	12.69
249.303	12.08
249.519	12.4
249.736	13.08
249.952	10.67
250.168	8.16
250.384	7.71
250.6	9.24
250.816	7.41
251.032	8.13
251.248	9.82
251.464	11.04
251.68	11.21
251.896	11.05
252.112	12.35
252.328	15.02
252.544	13.53
252.76	14.17
252.976	15.53
253.192	17.02
253.408	18
253.624	18.04
253.84	18.03
254.056	18.56
254.272	20.81
254.487	19.3
254.703	18.22
254.919	19.11
255.135	17.92
255.351	15.8
255.567	15.61
255.782	13.14
255.998	10.99
256.214	10.22
256.43	8.08
256.646	8.48
256.861	10.08
257.077	8.65
257.293	8.83
257.508	7.41
257.724	7.6
257.94	7.45
258.155	8.98
258.371	11.34
258.587	9.33
258.802	10.76
259.018	9.6
259.234	10.17
259.449	10.33
259.665	9.94
259.88	10.53
260.096	9.92
260.312	10.23
260.527	9.37
260.743	8.74
260.958	9.08
261.174	7.8
261.389	7.57
261.605	6.42
261.82	6.24
262.036	6.06
262.251	5.08
262.466	4.63
262.682	5.05
262.897	5.54
263.113	4.35
263.328	4.81
263.543	7.79
263.759	7.77
263.974	10.49
264.189	10.92
264.405	12.03
264.62	13.28
264.835	13.4
265.051	12.1
265.266	11.71
265.481	10.99
265.696	10.74
265.912	10.52
266.127	9.7
266.342	6.94
266.557	6.29
266.773	5.5
266.988	5.14
267.203	5.73
267.418	5.65
267.633	6.59
267.848	7.99
268.064	9.08
268.279	9.22
268.494	12.45
268.709	13.55
268.924	13.33
269.139	13.63
269.354	13.76
269.569	15.21
269.784	16.27
269.999	15.43
270.214	13.31
270.429	13.43
270.644	13.32
270.859	11.74
271.074	10.93
271.289	11.31
271.504	11.72
271.719	11.72
271.934	10.4
272.149	10.27
272.363	11.1
272.578	11.8
272.793	11.43
273.008	11.43
273.223	10.85
273.438	11.46
273.653	12.33
273.867	11.43
274.082	11.09
274.297	12.28
274.512	12.76
274.726	11.12
274.941	10.69
275.156	11.83
275.371	10.12
275.585	11
275.8	12.22
276.015	11.66
276.229	12.64
276.444	12.88
276.659	10.51
276.873	9.18
277.088	10
277.302	11.04
277.517	8.71
277.732	10.19
277.946	9.51
278.161	8.42
278.375	8
278.59	8.8
278.804	8.84
279.019	10.07
279.233	10.47
279.448	10.6
279.662	11.68
279.877	11.92
280.091	10.07
280.306	11.77
280.52	11.77
280.735	11.93
280.949	10.4
281.163	10.66
281.378	10.84
281.592	11.96
281.806	12.46
282.021	13.02
282.235	13.88
282.449	14.42
282.664	13.8
282.878	14.44
283.092	15.01
283.307	16.02
283.521	15.91
283.735	15.53
283.949	13.75
284.164	12.42
284.378	12.19
284.592	11.88
284.806	11.96
285.02	11.54
285.234	9.84
285.449	9.47
285.663	9.13
285.877	8.28
286.091	8.1
286.305	8.28
286.519	8.55
286.733	7.54
286.947	8.43
287.161	8.68
287.375	8.46
287.589	10.23
287.803	10.6
288.017	12.12
288.231	13.34
288.445	13.23
288.659	14.48
288.873	15.77
289.087	16.91
289.301	15.72
289.515	15.92
289.729	17.24
289.943	17.43
290.157	17.66
290.371	16.72
290.584	17.11
290.798	17.15
291.012	16.95
291.226	17.05
291.44	16.24
291.654	15.58
291.867	16.14
292.081	16.82
292.295	15.52
292.509	15.58
292.722	15.25
292.936	15.81
293.15	16.31
293.364	17.2
293.577	16.14
293.791	16.98
294.005	17.48
294.218	16.87
294.432	16.1
294.645	18.05
294.859	18.41
295.073	18.24
295.286	17.84
295.5	18.27
295.713	17.92
295.927	18.28
296.14	18.09
296.354	19.43
296.568	19.41
296.781	19.56
296.994	17.92
297.208	18.41
297.421	18.29
297.635	17.9
297.848	18.62
298.062	17.95
298.275	18.13
298.489	18.33
298.702	17.81
298.915	18.75
299.129	18.78
299.342	20.85
299.555	20.3
299.769	22.25
299.982	22.46
300.195	22.01
300.409	22.52
300.622	23.24
300.835	23.13
301.048	22.72
301.262	21.83
301.475	20.99
301.688	20.44
301.901	20.74
302.115	19.57
302.328	20.47
302.541	20.34
302.754	20.35
302.967	20.28
303.18	20.29
303.393	21.42
303.607	22.66
303.82	22.83
304.033	22.22
304.246	24.34
304.459	25
304.672	24.9
304.885	25.01
305.098	26.08
305.311	24.03
305.524	22.91
305.737	21.08
305.95	21.85
306.163	22.09
306.376	22.17
306.589	18.56
306.802	17.69
307.015	18.4
307.228	17.94
307.44	17.82
307.653	21.27
307.866	23.33
308.079	25.2
308.292	23.74
308.505	23.33
308.718	24.61
308.93	26.07
309.143	26.74
309.356	24.15
309.569	25.35
309.781	25.11
309.994	24.51
310.207	25.96
310.42	25.35
310.632	25.8
310.845	26.05
311.058	26.38
311.27	24.99
311.483	24.1
311.696	24.84
311.908	23.94
312.121	22.99
312.333	22.9
312.546	21.35
312.759	22.27
312.971	21.66
313.184	21.43
313.396	19.73
313.609	21.32
313.821	22.37
314.034	23.44
314.246	23.21
314.459	24.04
314.671	24.44
314.884	22.96
315.096	23.13
315.309	24.48
315.521	24.63
315.733	25.77
315.946	25.86
316.158	24.89
316.371	23.75
316.583	24.43
316.795	23.22
317.008	22.46
317.22	24.41
317.432	24.51
317.644	23.64
317.857	24.84
318.069	23.72
318.281	24.18
318.494	25.21
318.706	24.87
318.918	24.68
319.13	24.31
319.342	25.39
319.555	23.97
319.767	23.51
319.979	21.69
320.191	18.73
320.403	20.13
320.615	20.1
320.827	20.14
321.039	22.11
321.252	22.41
321.464	25.9
321.676	26.72
321.888	27.5
322.1	25.99
322.312	25.96
322.524	26.33
322.736	24.54
322.948	22.82
323.16	22.76
323.372	22.27
323.584	22.32
323.796	22.42
324.007	21.06
324.219	20.72
324.431	21.86
324.643	22.52
324.855	22.5
325.067	23.89
325.279	24.92
325.491	23.68
325.702	24.25
325.914	23.26
326.126	21.81
326.338	21.17
326.55	21.38
326.761	22.08
326.973	23.22
327.185	24
327.396	23.17
327.608	23.03
327.82	25.43
328.032	24.52
328.243	25.7
328.455	25.58
328.666	25.59
328.878	24.83
329.09	22.87
329.301	21.84
329.513	21.58
329.725	21.26
329.936	20.58
330.148	20.25
330.359	20.03
330.571	19.29
330.782	19.33
330.994	21.43
331.205	23.49
331.417	24.97
331.628	25
331.84	24.87
332.051	25.01
332.262	26.88
332.474	25.14
332.685	26.11
332.897	26.75
333.108	25.8
333.319	24.2
333.531	24.03
333.742	24.04
333.953	24.99
334.165	25.86
334.376	26.64
334.587	25.19
334.799	25.25
335.01	25.35
335.221	25.74
335.432	25.89
335.644	26.68
335.855	26.71
336.066	25.16
336.277	23.38
336.488	23.41
336.7	23.22
336.911	24.05
337.122	24.42
337.333	24.76
337.544	24.18
337.755	24.98
337.966	23.69
338.177	21.99
338.388	22.58
338.599	23.94
338.811	23.43
339.022	23.85
339.233	22.92
339.444	23.66
339.655	22.22
339.866	21.78
340.076	21.88
340.287	23.32
340.498	24.45
340.709	23.6
340.92	22.76
341.131	22.51
341.342	22.34
341.553	23.02
341.764	23.22
341.975	24.01
342.185	24.36
342.396	23.45
342.607	23.47
342.818	23.45
343.029	24.41
343.239	25.55
343.45	25.59
343.661	26.1
343.872	25.78
344.082	24.81
344.293	24.94
344.504	25.38
344.714	26.43
344.925	25.88
345.136	25.58
345.346	26.36
345.557	26.29
345.768	26.48
345.978	25.98
346.189	25.78
346.399	26.08
346.61	25.77
346.821	25.69
347.031	25.19
347.242	25.69
347.452	25.4
347.663	24.79
347.873	24.15
348.084	25.01
348.294	24.37
348.504	25.2
348.715	25.44
348.925	26.43
349.136	26.97
349.346	26.9
349.557	24.74
349.767	25.34
349.977	24.53
350.188	24.07
350.398	23.56
350.608	22.18
350.819	21.35
351.029	20.7
351.239	19.76
351.449	19.26
351.66	19.07
351.87	19.9
352.08	19.92
352.29	20.19
352.501	21.05
352.711	21.13
352.921	21.83
353.131	21.98
353.341	21.61
353.552	21.08
353.762	19.86
353.972	21.21
354.182	21.16
354.392	21.39
354.602	21.33
354.812	21.14
355.022	19.97
355.232	20.02
355.442	20.51
355.652	21.65
355.862	21.75
356.072	22.43
356.282	19.97
356.492	20.65
356.702	20.54
356.912	20.65
357.122	20.8
357.332	21.77
357.542	22.09
357.752	21.26
357.962	20.63
358.171	20.61
358.381	21.74
358.591	23.12
358.801	22.54
359.011	22.55
359.221	22.68
359.43	21.75
359.64	22.05
359.85	21.28
360.06	21.63
360.269	21.13
360.479	21.45
360.689	19.94
360.899	19.82
361.108	19.78
361.318	19.83
361.528	20.01
361.737	19.94
361.947	19.5
362.156	20.06
362.366	20.29
362.576	20.17
362.785	20.76
362.995	21.05
363.204	21.19
363.414	21.42
363.623	21.06
363.833	20.76
364.042	21.2
364.252	20.87
364.461	20.76
364.671	20.25
364.88	21.3
365.09	19.59
365.299	20.39
365.509	21.07
365.718	21.51
365.927	21.56
366.137	22.07
366.346	22.4
366.555	21.55
366.765	21.46
366.974	21.08
367.183	20.47
367.393	21.27
367.602	20.79
367.811	19.49
368.021	19.51
368.23	19.21
368.439	19.2
368.648	18.66
368.857	19.76
369.067	19.49
369.276	19.62
369.485	19.65
369.694	19.55
369.903	19.13
370.112	19.41
370.321	19.25
370.531	19.42
370.74	19.43
370.949	19.74
371.158	19.21
371.367	19.43
371.576	19.8
371.785	19.58
371.994	18.91
372.203	18.83
372.412	18.05
372.621	17.84
372.83	17.59
373.039	17.38
373.248	16.8
373.457	17.43
373.666	17.48
373.874	17.08
374.083	16.8
374.292	17.16
374.501	17.01
374.71	17.6
374.919	17.66
375.128	17.2
375.336	16.35
375.545	17.06
375.754	16.76
375.963	16.21
376.171	16.78
376.38	16.96
376.589	16.63
376.798	16.76
377.006	16.91
377.215	16.97
377.424	17.28
377.632	18.41
377.841	17.8
378.05	17.99
378.258	18.4
378.467	17.98
378.675	17.73
378.884	17.52
379.093	17.19
379.301	17.22
379.51	16.92
379.718	17.33
379.927	16.71
380.135	16.45
380.344	16
380.552	15.98
380.761	15.85
380.969	15.74
381.177	15.89
381.386	16.07
381.594	15.55
381.803	15.11
382.011	15.02
382.219	14.24
382.428	14.75
382.636	14.29
382.845	14
383.053	13.88
383.261	14.32
383.469	13.85
383.678	14
383.886	13.8
384.094	14.3
384.302	14.49
384.511	15.02
384.719	14.85
384.927	14.78
385.135	15.09
385.343	15.19
385.552	15.17
385.76	15.91
385.968	15.86
386.176	16.37
386.384	15.98
386.592	15.48
386.8	15.5
387.008	15.25
387.216	15.86
387.424	15.54
387.633	15.49
387.841	14.9
388.049	14.7
388.257	14.63
388.465	14.06
388.672	13.84
388.88	14.28
389.088	13.65
389.296	13.83
389.504	13.45
389.712	13.13
389.92	12.88
390.128	13.25
390.336	13.2
390.544	12.86
390.751	12.79
390.959	12.52
391.167	12.05
391.375	12.2
391.583	12.2
391.79	11.97
391.998	12.14
392.206	12.14
392.414	12.37
392.621	12.2
392.829	12.14
393.037	12.41
393.244	13.06
393.452	12.54
393.66	12.79
393.867	12.4
394.075	12.48
394.283	12.65
394.49	12.67
394.698	12.37
394.905	12.26
395.113	12.67
395.32	12.54
395.528	12.56
395.735	12.99
395.943	12.74
396.15	12.97
396.358	13.18
396.565	13.09
396.773	13.35
396.98	13.29
397.188	13.39
397.395	13.11
397.602	13.29
397.81	13.08
398.017	12.81
398.225	12.98
398.432	13.18
398.639	12.93
398.847	12.67
399.054	12.68
399.261	12.67
399.468	12.29
399.676	12.15
399.883	11.73
400.09	11.48
400.297	11.81
400.505	11.5
400.712	11.45
400.919	11.64
401.126	11.83
401.333	11.66
401.54	11.63
401.748	12.04
401.955	11.84
402.162	12.32
402.369	12.62
402.576	12.74
402.783	12.96
402.99	13.02
403.197	12.77
403.404	12.6
403.611	12.66
403.818	12.96
404.025	12.97
404.232	13.25
404.439	13.01
404.646	12.86
404.853	12.73
405.06	12.74
405.267	12.4
405.474	12.52
405.681	12.68
405.887	12.77
406.094	12.77
406.301	12.87
406.508	12.59
406.715	12.58
406.922	12.83
407.128	12.96
407.335	12.97
407.542	13.11
407.749	13.2
407.955	13.17
408.162	12.97
408.369	12.59
408.575	12.68
408.782	13.04
408.989	13.14
409.195	12.83
409.402	12.88
409.609	12.8
409.815	13.03
410.022	12.99
410.228	13.31
410.435	13.43
410.642	13.49
410.848	13.68
411.055	13.5
411.261	13.46
411.468	13.56
411.674	13.35
411.881	13.27
412.087	12.86
412.294	12.6
412.5	12.35
412.706	12.41
412.913	12.33
413.119	12.03
413.326	11.92
413.532	11.73
413.738	11.65
413.945	11.64
414.151	11.76
414.357	12.12
414.564	12.1
414.77	12.06
414.976	11.91
415.182	12.14
415.389	12.22
415.595	12.36
415.801	12.54
416.007	12.79
416.214	12.57
416.42	12.34
416.626	12.33
416.832	12.62
417.038	12.5
417.244	12.56
417.45	12.59
417.657	12.22
417.863	12.49
418.069	12.37
418.275	12.25
418.481	12.36
418.687	12.47
418.893	12.22
419.099	12.14
419.305	12.19
419.511	12.14
419.717	12.06
419.923	12.27
420.129	12
420.335	12.23
420.541	12.24
420.746	12.31
420.952	12.42
421.158	12.52
421.364	12.35
421.57	12.25
421.776	12.21
421.982	12.21
422.187	12.18
422.393	12.12
422.599	11.96
422.805	12.02
423.01	12.03
423.216	11.88
423.422	11.91
423.628	12.09
423.833	12.17
424.039	12.25
424.245	12.23
424.45	12.19
424.656	12.39
424.862	12.38
425.067	12.4
425.273	12.25
425.478	12.29
425.684	12.27
425.889	12.19
426.095	12.17
426.301	11.96
426.506	11.95
426.712	11.98
426.917	11.88
427.123	11.65
427.328	11.54
427.533	11.66
427.739	11.71
427.944	11.6
428.15	11.74
428.355	11.4
428.561	11.58
428.766	11.44
428.971	11.55
429.177	11.61
429.382	11.73
429.587	11.51
429.793	11.59
429.998	11.46
430.203	11.43
430.408	11.26
430.614	11.72
430.819	11.56
431.024	11.78
431.229	11.63
431.434	11.52
431.64	11.51
431.845	11.69
432.05	11.53
432.255	11.54
432.46	11.56
432.665	11.69
432.87	11.6
433.076	11.71
433.281	11.53
433.486	11.55
433.691	11.58
433.896	11.56
434.101	11.59
434.306	11.64
434.511	11.7
434.716	11.81
434.921	11.85
435.126	11.91
435.331	12.06
435.535	12.01
435.74	12.15
435.945	12.25
436.15	12.26
436.355	12.15
436.56	12.05
436.765	11.95
436.97	11.94
437.174	11.89
437.379	12.04
437.584	11.93
437.789	12.06
437.993	11.98
438.198	11.99
438.403	11.95
438.608	11.94
438.812	11.85
439.017	11.8
439.222	11.76
439.426	11.64
439.631	11.48
439.836	11.45
440.04	11.34
440.245	11.38
440.45	11.06
440.654	11.13
440.859	11.17
441.063	11.23
441.268	11.21
441.472	11.11
441.677	11.26
441.881	11.15
442.086	10.98
442.29	11.11
442.495	11.02
442.699	11.28
442.904	11.27
443.108	11.44
443.312	11.58
443.517	11.76
443.721	11.99
443.925	11.9
444.13	12.11
444.334	12.05
444.538	12
444.743	11.99
444.947	12
445.151	12.14
445.356	11.86
445.56	11.86
445.764	11.85
445.968	11.9
446.173	11.81
446.377	11.86
446.581	12.08
446.785	12.14
446.989	12.14
447.193	12.21
447.398	12.05
447.602	12.16
447.806	12.29
448.01	12.29
448.214	12.08
448.418	12.2
448.622	12.1
448.826	11.95
449.03	11.78
449.234	11.8
449.438	11.52
449.642	11.66
449.846	11.56
450.05	11.29
450.254	11.29
450.458	11.34
450.662	11.18
450.866	11.17
451.069	11.41
451.273	11.4
451.477	11.43
451.681	11.48
451.885	11.56
452.089	11.51
452.292	11.5
452.496	11.55
452.7	11.62
452.904	11.78
453.107	11.62
453.311	11.39
453.515	11.49
453.719	11.48
453.922	11.57
454.126	11.52
454.33	11.72
454.533	11.78
454.737	11.63
454.94	11.59
455.144	11.46
455.348	11.48
455.551	11.56
455.755	11.59
455.958	11.78
456.162	11.7
456.365	11.54
456.569	11.3
456.772	11.19
456.976	11.38
457.179	11.3
457.383	11.49
457.586	11.47
457.79	11.36
457.993	11.28
458.196	11.14
458.4	11.23
458.603	11.39
458.807	11.42
459.01	11.82
459.213	11.74
459.417	11.95
459.62	11.87
459.823	11.98
460.026	12.04
460.23	12.13
460.433	12.1
460.636	12.17
460.839	12.08
461.042	12.14
461.246	11.91
461.449	11.89
461.652	11.75
461.855	11.62
462.058	11.67
462.261	11.67
462.464	11.58
462.668	11.77
462.871	11.77
463.074	11.96
463.277	11.91
463.48	11.85
463.683	11.77
463.886	11.68
464.089	11.94
464.292	11.85
464.495	11.75
464.698	11.7
464.901	11.58
465.104	11.62
465.306	11.5
465.509	11.43
465.712	11.42
465.915	11.48
466.118	11.46
466.321	11.46
466.524	11.4
466.726	11.53
466.929	11.6
467.132	11.46
467.335	11.35
467.538	11.28
467.74	11.46
467.943	11.4
468.146	11.34
468.348	11.43
468.551	11.29
468.754	11.21
468.956	11.17
469.159	11.11
469.362	11.08
469.564	11.2
469.767	11.39
469.969	11.42
470.172	11.48
470.375	11.66
470.577	11.72
470.78	11.77
470.982	11.78
471.185	11.9
471.387	11.93
471.59	11.97
471.792	11.69
471.995	11.58
472.197	11.38
472.399	11.6
472.602	11.51
472.804	11.36
473.007	11.31
473.209	11.46
473.411	11.43
473.614	11.25
473.816	11.4
474.018	11.6
474.22	11.48
474.423	11.51
474.625	11.49
474.827	11.51
475.03	11.52
475.232	11.55
475.434	11.49
475.636	11.36
475.838	11.42
476.04	11.34
476.243	11.33
476.445	11.47
476.647	11.54
476.849	11.36
477.051	11.41
477.253	11.4
477.455	11.29
477.657	11.3
477.859	11.37
478.061	11.54
478.263	11.42
478.465	11.27
478.667	11.34
478.869	11.43
479.071	11.44
479.273	11.31
479.475	11.39
479.677	11.53
479.879	11.43
480.081	11.51
480.283	11.42
480.485	11.53
480.686	11.76
480.888	11.58
481.09	11.56
481.292	11.6
481.494	11.71
481.695	11.72
481.897	11.8
482.099	11.85
482.301	11.88
482.502	11.89
482.704	11.86
482.906	11.81
483.107	11.81
483.309	11.78
483.511	11.74
483.712	11.68
483.914	11.64
484.115	11.63
484.317	11.59
484.519	11.55
484.72	11.55
484.922	11.56
485.123	11.53
485.325	11.57
485.526	11.6
485.728	11.63
485.929	11.66
486.131	11.69
486.332	11.61
486.534	11.63
486.735	11.63
486.936	11.68
487.138	11.67
487.339	11.64
487.541	11.54
487.742	11.51
487.943	11.51
488.144	11.51
488.346	11.54
488.547	11.56
488.748	11.61
488.95	11.66
489.151	11.61
489.352	11.61
489.553	11.65
489.755	11.71
489.956	11.65
490.157	11.58
490.358	11.59
490.559	11.6
490.76	11.56
490.961	11.53
491.163	11.45
491.364	11.43
491.565	11.4
491.766	11.53
491.967	11.64
492.168	11.76
492.369	11.8
492.57	11.76
492.771	11.61
492.972	11.7
493.173	11.69
493.374	11.71
493.575	11.73
493.776	11.89
493.976	11.77
494.177	11.69
494.378	11.6
494.579	11.79
494.78	11.84
494.981	11.97
495.182	11.88
495.382	12
495.583	12.12
495.784	12.13
495.985	12.03
496.185	12
496.386	11.84
496.587	11.76
496.788	11.41
496.988	11.46
497.189	11.5
497.39	11.59
497.59	11.44
497.791	11.31
497.992	11.41
498.192	11.34
498.393	11.45
498.593	11.52
498.794	11.63
498.994	11.81
499.195	11.75
499.395	11.8
499.596	11.8
499.796	11.7
499.997	11.84
500.197	11.68
500.398	11.63
500.598	11.48
500.799	11.59
500.999	11.52
501.199	11.32
501.4	11.44
501.6	11.34
501.801	11.42
502.001	11.49
502.201	11.52
502.402	11.56
502.602	11.7
502.802	11.75
503.002	11.7
503.203	11.66
503.403	11.83
503.603	11.77
503.803	11.96
504.003	11.84
504.204	11.83
504.404	11.97
504.604	12.12
504.804	12
505.004	11.91
505.204	11.98
505.404	11.98
505.604	12.07
505.804	12.07
506.005	11.86
506.205	11.94
506.405	12.18
506.605	11.96
506.805	11.81
507.005	11.88
507.204	11.88
507.404	11.79
507.604	11.86
507.804	11.78
508.004	11.91
508.204	12.07
508.404	11.88
508.604	11.72
508.804	11.77
509.003	11.82
509.203	11.79
509.403	11.72
509.603	11.72
509.803	11.75
510.002	11.8
510.202	11.81
510.402	11.82
510.602	11.9
510.801	11.86
511.001	11.81
511.201	11.79
511.4	11.82
511.6	11.92
511.8	11.87
511.999	11.86
512.199	11.87
512.398	11.74
512.598	11.7
512.797	11.73
512.997	11.8
513.197	11.82
513.396	11.78
513.596	11.75
513.795	11.81
513.994	11.78
514.194	11.73
514.393	11.65
514.593	11.66
514.792	11.7
514.992	11.63
515.191	11.66
515.39	11.7
515.59	11.64
515.789	11.6
515.988	11.54
516.188	11.63
516.387	11.52
516.586	11.6
516.786	11.49
516.985	11.42
517.184	11.59
517.383	11.62
517.582	11.64
517.782	11.69
517.981	11.86
518.18	11.94
518.379	11.97
518.578	12.07
518.777	12.1
518.976	12.24
519.176	12.22
519.375	12.14
519.574	12.03
519.773	11.99
519.972	12.08
520.171	11.9
520.37	11.84
520.569	11.74
520.768	11.78
520.967	11.9
521.166	11.87
521.365	11.98
521.564	12.04
521.762	12.13
521.961	12.25
522.16	12.28
522.359	12.42
522.558	12.24
522.757	12.41
522.956	12.44
523.154	12.18
523.353	12.07
523.552	12.11
523.751	11.88
523.949	11.83
524.148	11.82
524.347	11.88
524.546	11.89
524.744	11.87
524.943	11.88
525.142	11.75
525.34	11.82
525.539	11.88
525.737	11.73
525.936	11.95
526.135	12.01
526.333	11.93
526.532	11.94
526.73	11.88
526.929	12.01
527.127	11.98
527.326	12.03
527.524	12.15
527.723	12.21
527.921	12.23
528.12	12.2
528.318	12.19
528.516	12.23
528.715	12.16
528.913	12.16
529.112	12.14
529.31	12.19
529.508	12.21
529.707	12.1
529.905	12.05
530.103	12.05
530.301	12.02
530.5	12.06
530.698	11.99
530.896	12.06
531.094	12.2
531.293	12.28
531.491	12.3
531.689	12.33
531.887	12.35
532.085	12.47
532.283	12.5
532.481	12.51
532.68	12.51
532.878	12.57
533.076	12.52
533.274	12.45
533.472	12.45
533.67	12.5
533.868	12.42
534.066	12.43
534.264	12.39
534.462	12.48
534.66	12.51
534.858	12.54
535.056	12.6
535.253	12.56
535.451	12.55
535.649	12.6
535.847	12.36
536.045	12.52
536.243	12.63
536.441	12.6
536.638	12.6
536.836	12.61
537.034	12.65
537.232	12.57
537.43	12.61
537.627	12.63
537.825	12.53
538.023	12.75
538.22	12.78
538.418	12.76
538.616	12.91
538.813	12.83
539.011	12.9
539.209	12.83
539.406	12.92
539.604	13.07
539.801	13.01
539.999	13.08
540.196	13.01
540.394	12.88
540.591	12.96
540.789	13.01
540.986	13.15
541.184	13.11
541.381	13.17
541.579	13.29
541.776	13.26
541.974	13.43
542.171	13.58
542.368	13.66
542.566	13.78
542.763	13.83
542.96	13.88
543.158	13.85
543.355	13.93
543.552	14.02
543.75	13.99
543.947	14.08
544.144	14.1
544.341	14.03
544.539	14.18
544.736	14.28
544.933	14.24
545.13	14.22
545.327	14.41
545.524	14.55
545.722	14.42
545.919	14.48
546.116	14.59
546.313	14.57
546.51	14.4
546.707	14.34
546.904	14.24
547.101	14.3
547.298	14.22
547.495	14.03
547.692	13.92
547.889	13.96
548.086	13.8
548.283	13.58
548.48	13.61
548.677	13.85
548.874	13.71
549.07	13.76
549.267	13.68
549.464	13.71
549.661	13.76
549.858	13.96
550.055	14.17
550.251	14.35
550.448	14.53
550.645	14.47
550.842	14.29
551.038	14.38
551.235	14.6
551.432	14.65
551.628	14.81
551.825	14.91
552.022	14.6
552.218	14.58
552.415	14.55
552.612	14.45
552.808	14.44
553.005	14.37
553.201	14.26
553.398	14.05
553.594	14
553.791	14.08
553.987	14.05
554.184	14.13
554.38	13.93
554.577	13.86
554.773	14.02
554.97	13.98
555.166	14.24
555.362	14.45
555.559	14.52
555.755	14.55
555.952	14.4
556.148	14.3
556.344	14.34
556.541	14.39
556.737	14.46
556.933	14.4
557.129	14.38
557.326	14.4
557.522	14.2
557.718	14.35
557.914	14.21
558.11	14.13
558.307	14.29
558.503	14.46
558.699	14.55
558.895	14.44
559.091	14.7
559.287	14.84
559.483	14.77
559.679	15.03
559.876	14.87
560.072	15.11
560.268	15.05
560.464	14.94
560.66	14.89
560.856	14.87
561.052	15.06
561.247	14.97
561.443	14.96
561.639	15.16
561.835	14.97
562.031	15.05
562.227	14.87
562.423	15.1
562.619	15.37
562.815	15.47
563.01	15.58
563.206	15.76
563.402	15.7
563.598	15.84
563.793	15.72
563.989	15.89
564.185	15.97
564.381	16.08
564.576	16.2
564.772	16.01
564.968	15.73
565.163	15.56
565.359	15.36
565.555	15.18
565.75	15.21
565.946	15.3
566.141	15.13
566.337	15.08
566.532	15.11
566.728	15.08
566.923	15.17
567.119	15.38
567.314	15.68
567.51	15.57
567.705	15.74
567.901	15.54
568.096	15.53
568.292	15.55
568.487	15.67
568.682	15.66
568.878	15.4
569.073	15.26
569.268	15.47
569.464	15.21
569.659	15.5
569.854	15.47
570.05	15.54
570.245	15.4
570.44	15.53
570.635	15.43
570.831	15.33
571.026	15.54
571.221	15.66
571.416	15.39
571.611	15.53
571.806	15.57
572.002	15.52
572.197	15.44
572.392	15.67
572.587	15.81
572.782	15.87
572.977	15.89
573.172	15.87
573.367	15.77
573.562	16
573.757	15.94
573.952	15.95
574.147	15.92
574.342	16.16
574.537	16
574.732	16.01
574.927	15.94
575.121	16.09
575.316	16.02
575.511	16.28
575.706	16.2
575.901	16.3
576.096	16.16
576.29	16.22
576.485	16.11
576.68	16.11
576.875	15.98
577.069	16.03
577.264	16.24
577.459	16.36
577.654	16.44
577.848	16.52
578.043	16.38
578.238	16.58
578.432	16.57
578.627	16.78
578.821	16.89
579.016	17
579.21	16.94
579.405	16.92
579.6	16.83
579.794	16.8
579.989	16.75
580.183	17.09
580.378	16.81
580.572	17.03
580.766	17.11
580.961	17.12
581.155	17.03
581.35	17.34
581.544	17.15
581.738	17.23
581.933	17
582.127	17
582.321	16.89
582.516	17.03
582.71	17.27
582.904	17.2
583.099	17.28
583.293	17.3
583.487	17.05
583.681	17.54
583.875	17.58
584.07	17.78
584.264	17.86
584.458	17.98
584.652	18.08
584.846	17.79
585.04	17.54
585.234	17.43
585.428	17.46
585.623	17.49
585.817	17.19
586.011	17.3
586.205	17.32
586.399	17.19
586.593	17.06
586.787	17.16
586.981	17.26
587.174	17.45
587.368	17.59
587.562	17.68
587.756	17.66
587.95	17.43
588.144	17.33
588.338	17.31
588.532	17.34
588.725	17.51
588.919	17.68
589.113	17.62
589.307	17.54
589.501	17.51
589.694	17.58
589.888	17.79
590.082	17.98
590.275	17.93
590.469	17.94
590.663	18.01
590.856	17.62
591.05	17.44
591.244	17.32
591.437	17.67
591.631	17.4
591.824	17.41
592.018	17.27
592.212	16.99
592.405	16.81
592.599	16.73
592.792	16.45
592.986	16.57
593.179	16.58
593.372	16.8
593.566	16.67
593.759	16.96
593.953	17.12
594.146	16.99
594.339	16.97
594.533	17.1
594.726	17.1
594.92	17.34
595.113	17.42
595.306	17.13
595.499	17.14
595.693	17.22
595.886	17.29
596.079	17.02
596.272	17.02
596.466	17.17
596.659	17.37
596.852	17.36
597.045	17.5
597.238	17.62
597.431	17.83
597.624	17.89
597.818	17.77
598.011	17.64
598.204	17.53
598.397	17.68
598.59	17.53
598.783	17.48
598.976	17.54
599.169	17.45
599.362	17.22
599.555	17.38
599.748	17.26
599.941	16.98
600.134	16.9
600.326	16.98
600.519	16.99
600.712	16.83
600.905	16.81
601.098	16.92
601.291	16.84
601.483	16.98
601.676	16.81
601.869	16.89
602.062	16.92
602.255	17.13
602.447	17.28
602.64	17.38
602.833	17.57
603.025	17.44
603.218	17.13
603.411	17.3
603.603	17.34
603.796	17.26
603.989	17.27
604.181	17.39
604.374	17.35
604.566	17.32
604.759	17.3
604.951	17.47
605.144	17.52
605.336	17.64
605.529	17.6
605.721	17.62
605.914	17.75
606.106	17.72
606.299	17.77
606.491	17.79
606.683	17.75
606.876	17.83
607.068	17.89
607.26	18.03
607.453	18.13
607.645	18.09
607.837	17.81
608.03	17.9
608.222	18.11
608.414	18.15
608.606	18.31
608.799	18.73
608.991	18.78
609.183	18.85
609.375	19.27
609.567	19.47
609.759	19.76
609.952	20.12
610.144	20.23
610.336	20.39
610.528	20.39
610.72	20.57
610.912	20.53
611.104	20.74
611.296	20.71
611.488	20.44
611.68	20.48
611.872	20.26
612.064	20.27
612.256	20.23
612.448	19.77
612.64	19.94
612.832	19.77
613.023	19.64
613.215	19.47
613.407	19.52
613.599	19.64
613.791	19.49
613.983	19.13
614.174	19.1
614.366	19.18
614.558	19.35
614.75	19.42
614.941	19.48
615.133	19.31
615.325	19.2
615.516	19.24
615.708	18.82
615.9	18.58
616.091	18.81
616.283	18.66
616.475	18.72
616.666	19.05
616.858	19.05
617.049	18.78
617.241	19.06
617.432	19.02
617.624	18.9
617.815	19.16
618.007	19.3
618.198	19.27
618.39	19.21
618.581	18.69
618.773	18.08
618.964	17.92
619.155	18.05
619.347	17.97
619.538	17.93
619.729	18.03
619.921	17.96
620.112	18.15
620.303	18.08
620.494	18.01
620.686	18.38
620.877	18.6
621.068	18.57
621.259	18.58
621.451	18.37
621.642	18.31
621.833	18.49
622.024	18.2
622.215	17.88
622.406	18.2
622.597	18.34
622.788	18.53
622.98	18.64
623.171	18.76
623.362	18.77
623.553	18.59
623.744	18.43
623.935	18.18
624.126	18.23
624.317	18.09
624.508	17.73
624.698	17.61
624.889	17.52
625.08	17.28
625.271	17.09
625.462	16.91
625.653	16.86
625.844	16.94
626.034	17.05
626.225	17.28
626.416	17.52
626.607	17.85
626.798	18.07
626.988	18.27
627.179	18.49
627.37	18.63
627.56	18.91
627.751	19.13
627.942	19.27
628.132	19.27
628.323	19.06
628.514	18.93
628.704	19.03
628.895	18.76
629.085	18.36
629.276	18.2
629.466	18.09
629.657	17.91
629.847	17.99
630.038	18.18
630.228	18.22
630.419	18.44
630.609	18.63
630.8	18.36
630.99	18.03
631.181	17.93
631.371	18.15
631.561	17.66
631.752	17.75
631.942	17.66
632.132	17.55
632.323	17.33
632.513	17.26
632.703	17.12
632.893	16.92
633.084	17.22
633.274	17.18
633.464	17
633.654	17.4
633.844	17.34
634.034	17.27
634.225	17.05
634.415	16.85
634.605	16.71
634.795	16.77
634.985	16.88
635.175	17.22
635.365	17.6
635.555	17.78
635.745	17.8
635.935	18.03
636.125	17.94
636.315	17.9
636.505	17.85
636.695	18.13
636.885	18.06
637.075	18.18
637.265	17.91
637.455	17.74
637.644	17.19
637.834	17.46
638.024	16.94
638.214	17.62
638.404	17.71
638.593	17.92
638.783	17.79
638.973	18.02
639.163	17.9
639.352	17.99
639.542	17.89
639.732	18.31
639.921	17.88
640.111	18.04
640.301	16.93
640.49	16.85
640.68	16.9
640.87	16.88
641.059	16.44
641.249	16.75
641.438	17.02
641.628	17.22
641.817	17.54
642.007	17.71
642.196	17.65
642.386	18.39
642.575	18.59
642.764	18.58
642.954	18.35
643.143	18.76
643.333	18.69
643.522	18.45
643.711	18.26
643.901	17.63
644.09	17.87
644.279	18.41
644.469	18.07
644.658	17.78
644.847	17.73
645.036	18.12
645.226	18.08
645.415	17.96
645.604	17.96
645.793	17.67
645.982	17.61
646.171	17.35
646.361	16.68
646.55	16.51
646.739	16.36
646.928	16.33
647.117	15.89
647.306	15.98
647.495	16.18
647.684	16.54
647.873	16.73
648.062	17.27
648.251	17.59
648.44	18.01
648.629	18.39
648.818	18.39
649.007	18.59
649.196	18.66
649.384	18.67
649.573	19.02
649.762	19.05
649.951	18.98
650.14	18.47
650.328	18.33
650.517	18.33
650.706	18.32
650.895	18.5
651.083	18.41
651.272	19.2
651.461	19.49
651.65	18.69
651.838	18.77
652.027	18.98
652.216	19.46
652.404	19.2
652.593	18.83
652.781	18.82
652.97	19.25
653.158	18.94
653.347	18.26
653.535	18.18
653.724	18
653.912	17.99
654.101	18.03
654.289	17.7
654.478	18.21
654.666	18.84
654.855	19.49
655.043	19.12
655.231	19.12
655.42	18.8
655.608	18.18
655.796	19.25
655.985	18.93
656.173	18.61
656.361	19.02
656.55	18.57
656.738	18.31
656.926	18.15
657.114	18.41
657.302	18.19
657.491	18.59
657.679	18.46
657.867	17.76
658.055	17.51
658.243	17.66
658.431	17.6
658.619	17.67
658.807	17.59
658.996	17.09
659.184	16.78
659.372	17.04
659.56	17.27
659.748	17.56
659.936	17.82
660.124	17.83
660.311	17.83
660.499	17.76
660.687	17.86
660.875	17.87
661.063	17.95
661.251	18.02
661.439	17.96
661.627	17.42
661.814	17.83
662.002	17.91
662.19	18.34
662.378	18.47
662.565	18.37
662.753	18.38
662.941	18.28
663.129	18.35
663.316	18.62
663.504	18.93
663.692	19.7
663.879	19.27
664.067	18.98
664.254	18.91
664.442	18.88
664.63	19.34
664.817	19.66
665.005	19.69
665.192	19.31
665.38	19.04
665.567	18.76
665.755	18.57
665.942	18.67
666.13	18.95
666.317	18.65
666.504	18.38
666.692	18.27
666.879	18.23
667.067	18.42
667.254	19.06
667.441	19.37
667.629	19.4
667.816	19.27
668.003	19.53
668.19	19.34
668.378	19.41
668.565	19.97
668.752	19.67
668.939	19.09
669.127	19.08
669.314	19.04
669.501	18.84
669.688	18.91
669.875	19.13
670.062	19
670.249	18.99
670.436	19
670.623	18.87
670.81	18.87
670.997	18.99
671.184	18.54
671.371	18.62
671.558	18.59
671.745	18.81
671.932	18.04
672.119	17.92
672.306	18.09
672.493	18.49
672.68	18.4
672.867	18.23
673.054	18.76
673.24	18.69
673.427	18.71
673.614	19.2
673.801	19.52
673.988	20.06
674.174	20.12
674.361	19.6
674.548	19.04
674.734	18.86
674.921	18.9
675.108	18.46
675.294	18.73
675.481	18.26
675.668	17.82
675.854	17.99
676.041	17.78
676.227	17.66
676.414	17.9
676.601	18
676.787	18.16
676.974	18.45
677.16	18.56
677.347	18.98
677.533	19.17
677.719	19.45
677.906	18.93
678.092	19.16
678.279	19.21
678.465	19.65
678.651	19.6
678.838	19.43
679.024	19.35
679.21	19.3
679.397	18.94
679.583	18.94
679.769	18.58
679.955	18.66
680.142	18.49
680.328	18.8
680.514	18.29
680.7	18.26
680.886	18.47
681.073	18.7
681.259	18.79
681.445	18.62
681.631	18.69
681.817	18.45
682.003	18.29
682.189	18.26
682.375	18.06
682.561	18.38
682.747	18.33
682.933	17.23
683.119	16.73
683.305	16.92
683.491	17.39
683.677	17.66
683.863	18.1
684.049	18.21
684.235	18.37
684.42	18.14
684.606	17.44
684.792	17.55
684.978	18.58
685.164	19.19
685.349	18.65
685.535	18.54
685.721	17.89
685.907	18.07
686.092	18.03
686.278	17.87
686.464	17.93
686.649	18.72
686.835	18.74
687.021	18.68
687.206	18.31
687.392	18.54
687.577	18.52
687.763	18.43
687.948	18.76
688.134	18.71
688.319	18.73
688.505	18.58
688.69	18.35
688.876	18.53
689.061	18.47
689.247	18.61
689.432	18.53
689.618	18.9
689.803	19.5
689.988	19.33
690.174	19.88
690.359	20.13
690.544	20.1
690.73	20.59
690.915	20.95
691.1	20.71
691.285	20.75
691.471	20.51
691.656	19.99
691.841	19.08
692.026	18.66
692.211	18.53
692.396	18.17
692.582	18.35
692.767	18.3
692.952	17.76
693.137	18.14
693.322	18.21
693.507	18.77
693.692	19.2
693.877	19.9
694.062	19.97
694.247	19.95
694.432	19.72
694.617	19.79
694.802	18.72
694.987	18.78
695.172	18.78
695.357	18.38
695.541	18.13
695.726	17.95
695.911	17.88
696.096	18.14
696.281	17.7
696.466	17.64
696.65	17.46
696.835	17.71
697.02	18.03
697.204	18.38
697.389	18.29
697.574	18.38
697.759	18.35
697.943	18.38
698.128	18.46
698.312	18.96
698.497	19.37
698.682	19.53
698.866	19.86
699.051	19.7
699.235	19.41
699.42	19.44
699.604	19.61
699.789	19.49
699.973	19.76
700.158	19.69
700.342	19.49
700.527	19.35
700.711	19.35
700.895	19.08
701.08	19.09
701.264	19.39
701.448	19.72
701.633	19.65
701.817	19.84
702.001	19.63
702.186	19.26
702.37	18.86
702.554	19.32
702.738	19.1
702.923	19.22
703.107	18.99
703.291	18.18
703.475	17.86
703.659	17.73
703.843	17.97
704.027	18.6
704.212	18.52
704.396	18.91
704.58	18.79
704.764	19.03
704.948	19.56
705.132	19.66
705.316	20.68
705.5	20.94
705.684	20.51
705.868	20.36
706.052	19.87
706.235	20.68
706.419	20.42
706.603	20.1
706.787	20.54
706.971	20.83
707.155	20.59
707.339	20.39
707.522	20.45
707.706	20.67
707.89	20.1
708.074	20.45
708.257	19.57
708.441	19.73
708.625	19.48
708.808	19.55
708.992	19.5
709.176	19.53
709.359	19
709.543	18.72
709.727	18.62
709.91	19.03
710.094	18.89
710.277	20.31
710.461	20
710.644	20.39
710.828	20.05
711.011	19.62
711.195	19.92
711.378	20.83
711.562	20.89
711.745	21.75
711.928	21.47
712.112	21.65
712.295	20.41
712.478	20.34
712.662	20.22
712.845	19.82
713.028	19.61
713.212	19.08
713.395	18.79
713.578	18.94
713.761	18.49
713.945	19.04
714.128	17.97
714.311	18.51
714.494	18.44
714.677	18.13
714.86	18.39
715.043	18.35
715.227	19.42
715.41	18.22
715.593	17.9
715.776	17.73
715.959	18.21
716.142	18.84
716.325	18.75
716.508	18.65
716.691	18.83
716.874	19.15
717.057	19.31
717.239	18.6
717.422	19.12
717.605	19.84
717.788	19.82
717.971	19.64
718.154	20.09
718.337	19.47
718.519	20.51
718.702	21.08
718.885	20.03
719.068	19.85
719.25	19.6
719.433	20.07
719.616	18.96
719.798	19.26
719.981	18.78
720.164	18.3
720.346	19.5
720.529	19.36
720.712	18.39
720.894	19.48
721.077	19.58
721.259	20.74
721.442	20.59
721.624	20.85
721.807	20.44
721.989	20.68
722.172	19.7
722.354	19.92
722.537	20.32
722.719	21.25
722.901	21.72
723.084	21.3
723.266	20.27
723.448	20.21
723.631	20.52
723.813	20.25
723.995	19.33
724.178	20.68
724.36	20.68
724.542	20.52
724.724	20.15
724.907	18.81
725.089	19.84
725.271	20.41
725.453	19.79
725.635	19.04
725.817	18.84
725.999	19.47
726.181	18.67
726.364	17.55
726.546	16.67
726.728	16.42
726.91	17.7
727.092	16.32
727.274	16.13
727.456	16.66
727.638	18
727.819	17.98
728.001	17.54
728.183	18.49
728.365	18.89
728.547	18.31
728.729	18.82
728.911	18.51
729.093	18.52
729.274	17.91
729.456	17.89
729.638	16.97
729.82	17.87
730.001	17.88
730.183	18.06
730.365	18.85
730.546	19.47
730.728	19.11
730.91	18.05
731.091	18.08
731.273	18.89
731.455	19.38
731.636	20.21
731.818	20.82
731.999	22.02
732.181	21.66
732.362	21.14
732.544	22.06
732.725	22.69
732.907	22.77
733.088	23.35
733.27	23.31
733.451	23.04
733.633	22.2
733.814	21.86
733.995	21.2
734.177	21.82
734.358	21.67
734.539	20.89
734.721	20.13
734.902	20.19
735.083	21.77
735.264	21.63
735.446	22.38
735.627	22.61
735.808	22.19
735.989	22.03
736.17	20.89
736.351	20.89
736.533	21.77
736.714	22.8
736.895	23.09
737.076	22.03
737.257	21.18
737.438	20.87
737.619	21.45
737.8	21.73
737.981	22.34
738.162	22.83
738.343	21.81
738.524	21.96
738.705	21.2
738.886	21.52
739.067	21.76
739.247	23.12
739.428	22.57
739.609	22.26
739.79	21.08
739.971	20.14
740.151	19.73
740.332	20.9
740.513	20.76
740.694	20.25
740.874	20.06
741.055	19.66
741.236	19.97
741.417	21.51
741.597	21.14
741.778	22.73
741.958	23.34
742.139	23.89
742.32	24.13
742.5	23.75
742.681	24.08
742.861	24.98
743.042	25.02
743.222	22.89
743.403	21.41
743.583	22.81
743.764	22.43
743.944	21.88
744.124	22.07
744.305	22.04
744.485	22.24
744.666	23.09
744.846	23.56
745.026	24.04
745.207	24.56
745.387	25.33
745.567	24.37
745.747	21.97
745.928	21.43
746.108	21.05
746.288	20.71
746.468	20.41
746.648	19.58
746.829	18.58
747.009	17.13
747.189	19.1
747.369	19.8
747.549	19.98
747.729	22.21
747.909	22.78
748.089	22.17
748.269	21.92
748.449	22.3
748.629	22.64
748.809	21.52
748.989	21.7
749.169	20.55
749.349	20.76
749.529	21.49
749.709	22.47
749.889	21.72
750.068	22.21
750.248	22.83
750.428	22.55
750.608	23.26
750.788	25.49
750.967	26.97
751.147	27.57
751.327	26.81
751.507	25.91
751.686	23.74
751.866	24.81
752.046	24.36
752.225	24.74
752.405	24
752.585	23.47
752.764	21.41
752.944	20.45
753.123	20.66
753.303	20.54
753.482	19.23
753.662	20.67
753.841	20.65
754.021	21.09
754.2	19.74
754.38	20.28
754.559	20.72
754.739	21.64
754.918	20.45
755.097	18.87
755.277	19.09
755.456	21.43
755.635	21.76
755.815	21.44
755.994	20.09
756.173	20.79
756.352	19.98
756.532	19.62
756.711	19.76
756.89	21.04
757.069	20.92
757.248	20.29
757.427	20.88
757.607	21.12
757.786	20.14
757.965	20.99
758.144	20.75
758.323	21.72
758.502	20.7
758.681	20.42
758.86	19.74
759.039	20.82
759.218	20.85
759.397	19.73
759.576	17.35
759.755	18.09
759.934	17.59
760.113	17.76
760.291	16.11
760.47	16.81
760.649	17.9
760.828	18.25
761.007	17.42
761.186	18.6
761.364	18.19
761.543	20.17
761.722	19.9
761.901	20.36
762.079	21.31
762.258	21.83
762.437	21.45
762.615	21.6
762.794	21.93
762.972	22.39
763.151	20.88
763.33	21.43
763.508	20.6
763.687	20.53
763.865	20.98
764.044	20.64
764.222	20.95
764.401	21.23
764.579	20.43
764.758	19.49
764.936	19.74
765.114	21.04
765.293	19.98
765.471	20.48
765.65	20.98
765.828	20.76
766.006	19.86
766.184	20.4
766.363	20.46
766.541	19.32
766.719	19.73
766.898	20.22
767.076	19.13
767.254	20.2
767.432	19.36
767.61	19.77
767.788	19
767.967	19.92
768.145	19.2
768.323	17.56
768.501	19.33
768.679	19.89
768.857	20.37
769.035	20.47
769.213	21.16
769.391	21.85
769.569	22.56
769.747	25.08
769.925	25.5
770.103	24.3
770.281	26.86
770.459	26.14
770.636	26.4
770.814	24.78
770.992	24.92
771.17	23.74
771.348	24.71
771.525	23.35
771.703	21.64
771.881	20.16
772.059	23.05
772.236	22.82
772.414	22.73
772.592	22.5
772.769	23.52
772.947	23.32
773.125	22.66
773.302	21.99
773.48	22.32
773.657	21.23
773.835	23.38
774.013	22.09
774.19	22.83
774.368	23.13
774.545	23.3
774.723	23.75
774.9	25.61
775.077	25.41
775.255	26.4
775.432	27.07
775.61	29.71
775.787	29.01
775.964	30.23
776.142	29.33
776.319	30.38
776.496	32.62
776.674	31.09
776.851	28.11
777.028	29.83
777.205	30.3
777.382	31.4
777.56	30
777.737	29.35
777.914	28.43
778.091	27.71
778.268	26.38
778.445	26.01
778.622	25.39
778.8	26.67
778.977	26.57
779.154	26.67
779.331	23
779.508	23.59
779.685	23.27
779.862	24.43
780.038	23.19
780.215	23.34
780.392	22.64
780.569	24.71
780.746	25.51
780.923	25.9
781.1	26.33
781.277	29.6
781.453	28.78
781.63	28.27
781.807	27.01
781.984	28.97
782.16	29.43
782.337	28.08
782.514	27.27
782.691	27.31
782.867	28.11
783.044	27.97
783.221	26.44
783.397	29.39
783.574	32.29
783.75	33.87
783.927	32.54
784.103	32.65
784.28	33.11
784.456	32.69
784.633	33.86
784.809	29.93
784.986	28.79
785.162	30.1
785.339	27.96
785.515	24.85
785.692	23.46
785.868	24.08
786.044	23.15
786.221	26.05
786.397	25.37
786.573	24.53
786.749	26.88
786.926	24.94
787.102	23.47
787.278	22.16
787.454	24.5
787.631	24.82
787.807	24.69
787.983	24.9
788.159	22.53
788.335	20.32
788.511	18.36
788.687	17.71
788.863	17.79
789.039	16.06
789.216	14.41
789.392	13.49
789.568	13.25
789.744	14.47
789.919	13.98
790.095	11.65
790.271	14.39
790.447	15.08
790.623	14.54
790.799	14.98
790.975	17.11
791.151	21.16
791.327	20.36
791.502	19.85
791.678	18.25
791.854	19.29
792.03	20.94
792.205	21.57
792.381	20.38
792.557	19.86
792.733	20.63
792.908	22.76
793.084	19.69
793.259	17.81
793.435	17.45
793.611	15.8
793.786	13.9
793.962	13.96
794.137	11.7
794.313	12.27
794.488	17.09
794.664	19.54
794.839	18.54
795.015	19.66
795.19	20.72
795.366	23.89
795.541	27.05
795.716	28.73
795.892	30.16
796.067	32.47
796.242	35.84
796.418	32.08
796.593	32.23
796.768	31.73
796.944	30.94
797.119	34.82
797.294	31.23
797.469	31.41
797.644	32.24
797.82	30.61
797.995	27.63
798.17	27.45
798.345	28.42
798.52	26.83
798.695	28.36
798.87	29.18
799.045	23.99
799.22	27.82
799.395	27.02
799.57	23.99
799.745	24.48
799.92	27.36
800.095	24.06
800.27	23.84
800.445	24.71
800.62	20.65
800.795	19.82
800.97	22.19
801.145	19.45
801.319	20.68
801.494	26.24
801.669	25.46
801.844	24.04
802.018	26.64
802.193	28.56
802.368	25.41
802.543	26.79
802.717	29.72
802.892	30.26
803.067	28.92
803.241	27.12
803.416	24.58
803.59	26.29
803.765	26.11
803.94	18.83
804.114	16.93
804.289	19.71
804.463	19.11
804.638	18.82
804.812	21.35
804.986	21.65
805.161	21.91
805.335	17.78
805.51	16.63
805.684	13.8
805.858	21.86
806.033	19.3
806.207	19.37
806.381	21.54
806.556	20.72
806.73	15.87
806.904	15.41
807.078	13.92
807.253	17.94
807.427	17.04
807.601	21.69
807.775	17.27
807.949	21.71
808.123	22.06
808.298	24.22
808.472	25.03
808.646	28.1
808.82	28.07
808.994	31.76
809.168	32.18
809.342	30.53
809.516	28.3
809.69	29.23
809.864	30.33
810.038	30.15
810.212	28.22
810.385	23.83
810.559	21.01
810.733	25.2
810.907	25.25
811.081	22.86
811.255	26.26
811.428	29.16
811.602	30.88
811.776	31.36
811.95	31.46
812.123	33.1
812.297	37.03
812.471	36.82
812.644	36.36
812.818	39.13
812.992	41.19
813.165	40.92
813.339	40.92
813.512	40.66
813.686	42.41
813.86	42.24
814.033	39.9
814.207	41.82
814.38	44.28
814.554	45.53
814.727	41.2
814.9	40.24
815.074	40.34
815.247	38.63
815.421	39.22
815.594	35.29
815.767	33.87
815.941	36.64
816.114	35.22
816.287	33.21
816.46	27.62
816.634	28.59
816.807	25.79
816.98	27.34
817.153	27.27
817.327	23.3
817.5	23.58
817.673	25.54
817.846	23.08
818.019	18.8
818.192	19.66
818.365	16.83
818.538	16.33
818.711	22.44
818.884	20.01
819.057	18.36
819.23	19.46
819.403	20.18
819.576	18.26
819.749	21.43
819.922	23.79
820.095	23.02
820.268	27.82
820.441	27.16
820.614	23.47
820.786	22.58
820.959	23.15
821.132	24.23
821.305	24.11
821.477	24.62
821.65	23.53
821.823	23.8
821.996	23.42
822.168	22.59
822.341	22.62
822.514	22.11
822.686	22.67
822.859	22.26
823.031	22.32
823.204	22.24
823.376	22
823.549	21.68
823.722	20.77
823.894	20.49
824.067	20.2
824.239	19.58
824.411	20.85
824.584	21.43
824.756	21.88
824.929	20.89
825.101	21.13
825.273	20.94
825.446	20.99
825.618	22.04
825.79	22.75
825.963	23.05
826.135	23.32
826.307	23.11
826.479	20.72
826.652	20.07
826.824	21.51
826.996	22.48
827.168	22.48
827.34	22.88
827.512	22.82
827.684	24.05
827.856	24.41
828.029	26.02
828.201	25.38
828.373	25
828.545	25.44
828.717	25.97
828.889	26.97
829.061	26.73
829.232	26.38
829.404	24.35
829.576	22.55
829.748	20.79
829.92	21.73
830.092	23.47
830.264	28.08
830.436	31.14
830.607	32.23
830.779	28.76
830.951	29.99
831.123	28.84
831.294	28.79
831.466	28.37
831.638	33.36
831.809	31.38
831.981	30.15
832.153	28.4
832.324	27.49
832.496	28.57
832.667	28.04
832.839	30.44
833.011	33.31
833.182	34.12
833.354	35.78
833.525	32.22
833.697	31.36
833.868	28.82
834.039	28.43
834.211	28.16
834.382	25.54
834.554	28.07
834.725	26.06
834.896	24.65
835.068	27.37
835.239	25.86
835.41	28.64
835.581	29.16
835.753	29.92
835.924	30.25
836.095	27.94
836.266	27.07
836.438	27.04
836.609	27.77
836.78	30.85
836.951	31.41
837.122	32.99
837.293	33.62
837.464	33.01
837.635	35.34
837.806	35.19
837.977	38.41
838.148	40.42
838.319	40.06
838.49	45.31
838.661	43.7
838.832	40.02
839.003	43.11
839.174	41.02
839.345	38.52
839.516	41.5
839.687	45.79
839.857	47.13
840.028	47.38
840.199	45.47
840.37	40.45
840.54	36.84
840.711	38.02
840.882	32.1
841.053	30.2
841.223	33.46
841.394	32.65
841.564	31.38
841.735	28.02
841.906	27.84
842.076	28.51
842.247	33.31
842.417	40.61
842.588	39.21
842.758	42.47
842.929	40.91
843.099	43.56
843.27	45.49
843.44	46.35
843.611	45.77
843.781	43.56
843.951	37.95
844.122	40.43
844.292	32
844.462	29.56
844.633	36.49
844.803	38.74
844.973	34.3
845.144	35.47
845.314	32.98
845.484	31.81
845.654	42.61
845.824	48.39
845.995	36.68
846.165	33.98
846.335	48.53
846.505	40.9
846.675	53.22
846.845	43.08
847.015	38.21
847.185	43.79
847.355	53.45
847.525	51.2
847.695	48.44
847.865	52.34
848.035	60.25
848.205	50.04
848.375	57.37
848.545	37.7
848.715	49.75
848.884	53.27
849.054	57.34
849.224	63.14
849.394	73.05
849.564	74.74
849.733	77.97
849.903	56.26
850.073	77.09
850.243	78.66
850.412	94.85
850.582	108.62
850.752	110.12
850.921	126.99
851.091	102.66
851.26	79.8
851.43	74.63
851.599	65.15
851.769	90.07
851.939	70.86
852.108	59.86
852.278	52.91
852.447	41.03
852.616	30.1
852.786	26.47
852.955	37.44
853.125	41.36
853.294	42.99
853.463	54.1
853.633	48.38
853.802	57.64
853.971	70.99
854.141	71.92
854.31	74.22
854.479	84.88
854.648	87.14
854.818	69.65
854.987	70.18
855.156	68.34
855.325	67.34
855.494	67.8
855.663	68.2
855.832	58.79
856.001	62.47
856.171	68.17
856.34	60.96
856.509	49.18
856.678	55.67
856.847	46.67
857.016	38.87
857.185	31.72
857.353	23.77
857.522	13.55
857.691	8.19
857.86	-0.38
858.029	-18.36
858.198	-21.01
858.367	-15.04
858.535	-27.47
858.704	-30.12
858.873	-14.95
859.042	-17.44
859.21	-7.73
859.379	12.05
859.548	16.17
859.717	34.11
859.885	35.43
860.054	31.03
860.222	44.04
860.391	53.64
860.56	64.45
860.728	49.59
860.897	56.18
861.065	41.47
861.234	40.45
861.402	36.18
861.571	36.89
861.739	33.41
861.908	37.98
862.076	45.76
862.244	34.7
862.413	27.83
862.581	43.43
862.749	49.26
862.918	53.68
863.086	51.59
863.254	62.36
863.423	58.38
863.591	59.4
863.759	67.66
863.927	50.57
864.096	65.2
864.264	66.52
864.432	46.02
864.6	36.88
864.768	35.52
864.936	37.93
865.104	35.73
865.272	39.92
865.44	52.69
865.608	52.33
865.776	72.21
865.944	74.85
866.112	70.36
866.28	104.47
866.448	118.62
866.616	119.33
866.784	118.31
866.952	75.28
867.12	75.7
867.288	67.33
867.455	68.22
867.623	66.78
867.791	43.14
867.959	50.81
868.127	31.91
868.294	38.92
868.462	42.28
868.63	42.77
868.797	47.29
868.965	49.51
869.133	41.24
869.3	41.52
869.468	45.49
869.636	61.52
869.803	64.49
869.971	73.49
870.138	77.77
870.306	82.98
870.473	76.21
870.641	73.21
870.808	68.88
870.975	73.82
871.143	74.2
871.31	74.82
871.478	59.73
871.645	76.16
871.812	83.46
871.98	72.78
872.147	72.06
872.314	74.16
872.482	76.11
872.649	69.94
872.816	64.78
872.983	57.83
873.15	47.73
873.318	57.94
873.485	41.31
873.652	37.78
873.819	36.74
873.986	35.77
874.153	39.67
874.32	39.31
874.487	28.76
874.654	30.95
874.821	39.51
874.988	45.82
875.155	32.96
875.322	16.18
875.489	23.07
875.656	29.6
875.823	19.18
875.99	23.63
876.157	27.08
876.324	45.59
876.49	40.74
876.657	25.21
876.824	3.35
876.991	0.08
877.157	14.3
877.324	12.26
877.491	10.51
877.658	23.06
877.824	21.23
877.991	3.27
878.157	-8.51
878.324	-1.08
878.491	10.12
878.657	51.31
878.824	66.34
878.99	58.63
879.157	65.34
879.323	62.7
879.49	56.84
879.656	58.7
879.823	62.26
879.989	62.05
880.156	63.77
880.322	63.01
880.488	55.4
880.655	56.64
880.821	66.03
880.987	54.89
881.154	48.84
881.32	46.39
881.486	40.95
881.652	46.85
881.819	44.36
881.985	40.26
882.151	35.89
882.317	30.82
882.483	33.2
882.649	29.58
882.816	31.05
882.982	30.55
883.148	30.45
883.314	30.24
883.48	30.73
883.646	30.63
883.812	30.73
883.978	30.87
884.144	31.51
884.31	26.81
884.476	28.89
884.642	28.79
884.807	28.74
884.973	26.84
885.139	28.47
885.305	26.64
885.471	22.62
885.637	22.44
885.802	25.41
885.968	25.3
886.134	28.07
886.3	24.69
886.465	26.5
886.631	29.71
886.797	34.03
886.962	35.52
887.128	35.36
887.293	39.58
887.459	40.15
887.625	36.36
887.79	35.01
887.956	37.21
888.121	42.52
888.287	37.87
888.452	33.21
888.618	34.28
888.783	30.7
