Data from 2938092_Reflection_1.txt Node
Date: Sat Jul 11 19:14:16 EDT 2015
User: robert
Spectrometer: USB4E03001
Autoset integration time: false
Trigger mode: 4
Integration Time (sec): 1.000000E-1
Scans to average: 10
Electric dark correction enabled: true
Nonlinearity correction enabled: false
Boxcar width: 5
Stray light correction enabled: false
XAxis mode: Wavelengths
Stop averaging: false
Number of Pixels in Spectrum: 3648
>>>>>Begin Spectral Data<<<<<
177.566	26.08
177.785	17.09
178.005	52.1
178.225	22.51
178.445	1.63
178.665	24.5
178.885	39.94
179.105	10.18
179.324	23.59
179.544	9.7
179.764	31.11
179.984	23.49
180.204	-3.38
180.423	31.48
180.643	-20.73
180.863	-27.84
181.083	-60.78
181.302	-82.63
181.522	-462.9
181.742	-264.22
181.961	-219.38
182.181	-396.88
182.401	-68.27
182.621	-24.99
182.84	-6.17
183.06	15.99
183.279	-4.81
183.499	20.21
183.719	30.11
183.938	65.83
184.158	61.63
184.377	83.27
184.597	73.43
184.816	68.45
185.036	39.83
185.256	30.34
185.475	41.38
185.695	51.5
185.914	53.12
186.134	42.76
186.353	45.2
186.572	53.03
186.792	55.81
187.011	68.11
187.231	70.52
187.45	73.26
187.67	61.78
187.889	14.29
188.108	39.44
188.328	5.88
188.547	13.82
188.766	-56.8
188.986	-119.34
189.205	-19.47
189.424	-1.7
189.644	-8.47
189.863	28.99
190.082	47.71
190.302	77.49
190.521	45.84
190.74	86.86
190.959	64.32
191.178	88.39
191.398	41.11
191.617	27.39
191.836	43.57
192.055	34.04
192.274	30.28
192.494	24.43
192.713	9.65
192.932	36.41
193.151	34.39
193.37	62.34
193.589	52.34
193.808	67.26
194.027	123.76
194.246	2834.69
194.465	-638.08
194.685	-95.59
194.904	-138.35
195.123	-137.05
195.342	98.74
195.561	-143.05
195.78	12.36
195.999	10.2
196.218	18.21
196.436	20.86
196.655	21.89
196.874	19.84
197.093	9.56
197.312	1.04
197.531	-4.35
197.75	63.72
197.969	80.78
198.188	54.69
198.407	-68.85
198.625	36.39
198.844	26.42
199.063	19.5
199.282	21.68
199.501	148.09
199.719	95.33
199.938	74.24
200.157	33.7
200.376	45.91
200.594	26.45
200.813	29.77
201.032	28.23
201.251	21.3
201.469	26.92
201.688	16.11
201.907	1.72
202.125	4.08
202.344	11.4
202.563	7.9
202.781	-0.63
203	18
203.218	18.71
203.437	9.4
203.656	10.64
203.874	9.13
204.093	19.17
204.311	33.55
204.53	4.39
204.748	24.63
204.967	63.3
205.185	29.03
205.404	31.02
205.622	35.21
205.841	42.07
206.059	74.09
206.278	56.34
206.496	66.89
206.715	42.45
206.933	51.57
207.151	40.67
207.37	39.23
207.588	37.14
207.806	31.69
208.025	35.36
208.243	30.33
208.461	10.2
208.68	17
208.898	9.32
209.116	8.24
209.335	-8.26
209.553	-23.01
209.771	-30.32
209.989	9.27
210.208	-30.58
210.426	-152.05
210.644	-377.01
210.862	26.3
211.081	28.33
211.299	-24.11
211.517	15.31
211.735	6.66
211.953	21.35
212.171	49.69
212.39	-118.83
212.608	-49.65
212.826	-98.79
213.044	-89.17
213.262	-152.88
213.48	-205.44
213.698	2226.4
213.916	-373.83
214.134	-124.73
214.352	-141.43
214.57	-112.27
214.788	-49.73
215.006	-54.81
215.224	-38.12
215.442	-34.79
215.66	14.32
215.878	5.14
216.096	25.54
216.314	14.78
216.532	21.16
216.75	18.18
216.968	0.75
217.185	33.41
217.403	38.34
217.621	42.74
217.839	54.04
218.057	52.87
218.275	46.83
218.492	29.68
218.71	23.89
218.928	20.14
219.146	39.36
219.363	27.66
219.581	9.63
219.799	-0.52
220.017	-8.33
220.234	-4.95
220.452	6.69
220.67	29.27
220.887	45.39
221.105	33.94
221.323	64.04
221.54	43.2
221.758	92.07
221.976	88.81
222.193	328.65
222.411	52.16
222.629	-41.26
222.846	-65.32
223.064	-91.8
223.281	-94.18
223.499	-46.91
223.716	-61.4
223.934	-29.05
224.151	-15.47
224.369	-1.48
224.586	5.89
224.804	19.1
225.021	33.69
225.239	33.3
225.456	40.85
225.674	51.63
225.891	65.71
226.108	75.35
226.326	66.15
226.543	70.99
226.76	58.65
226.978	44.32
227.195	36.44
227.413	34.78
227.63	33.59
227.847	33.1
228.064	29.96
228.282	29.3
228.499	25.55
228.716	28.83
228.934	28.7
229.151	26.93
229.368	26.86
229.585	24.25
229.802	22.2
230.02	20.96
230.237	19
230.454	19.15
230.671	15.93
230.888	13.03
231.105	9.31
231.323	6.68
231.54	8.34
231.757	9.02
231.974	12.91
232.191	12.92
232.408	9.88
232.625	6.8
232.842	-0.08
233.059	-0.71
233.276	5.19
233.493	3.39
233.71	-2.89
233.927	-2.52
234.144	-1.7
234.361	-8.77
234.578	-17
234.795	-7.48
235.012	-1.88
235.229	6.54
235.446	6.37
235.663	0.45
235.879	2.58
236.096	6.31
236.313	2.49
236.53	3.69
236.747	11.01
236.964	18.86
237.181	16.39
237.397	15.13
237.614	9.66
237.831	6.58
238.048	8.2
238.264	6.1
238.481	1.05
238.698	9.57
238.915	8.89
239.131	5.9
239.348	7.6
239.565	8.28
239.781	13.09
239.998	10.23
240.215	11.7
240.431	10.23
240.648	13.82
240.865	15.16
241.081	12.45
241.298	12.7
241.514	12.19
241.731	11.39
241.947	9.17
242.164	9.5
242.38	11.43
242.597	14.69
242.814	15.71
243.03	15.08
243.246	16.61
243.463	14.72
243.679	13.97
243.896	14.07
244.112	11.19
244.329	12.42
244.545	10.23
244.762	10.07
244.978	7.37
245.194	6.09
245.411	5.91
245.627	5.28
245.843	7.18
246.06	7.33
246.276	7.6
246.492	9.8
246.709	9.77
246.925	11.42
247.141	11.82
247.357	11.61
247.574	11.31
247.79	11.67
248.006	12.02
248.222	12.61
248.439	12.7
248.655	13.02
248.871	13.73
249.087	14.49
249.303	13.39
249.519	13.84
249.736	12.22
249.952	12.87
250.168	11.46
250.384	9.76
250.6	9.69
250.816	9.64
251.032	9.93
251.248	7.24
251.464	7.98
251.68	6.5
251.896	5.02
252.112	6.03
252.328	6.83
252.544	7.8
252.76	8.65
252.976	9.61
253.192	11.09
253.408	9
253.624	9.15
253.84	8.28
254.056	10.5
254.272	12.95
254.487	15.38
254.703	15.73
254.919	15.68
255.135	13.81
255.351	9.76
255.567	7.05
255.782	8.42
255.998	7.52
256.214	4.6
256.43	3.56
256.646	-0.13
256.861	-2.41
257.077	-2.84
257.293	-2.87
257.508	-2.48
257.724	-0.5
257.94	-1.95
258.155	0.79
258.371	2.95
258.587	5.17
258.802	4.76
259.018	6.2
259.234	6.5
259.449	6.33
259.665	7.06
259.88	7.67
260.096	7.05
260.312	8.22
260.527	8.04
260.743	8.77
260.958	7.9
261.174	8.69
261.389	9.09
261.605	9.34
261.82	9.77
262.036	10.64
262.251	10.59
262.466	10.78
262.682	10.44
262.897	10
263.113	8.76
263.328	10.94
263.543	8.74
263.759	7.8
263.974	6.62
264.189	3.91
264.405	2.75
264.62	4.47
264.835	4.11
265.051	4.69
265.266	4.52
265.481	4.94
265.696	4.93
265.912	7.78
266.127	5.81
266.342	6.61
266.557	8.77
266.773	7.91
266.988	8.11
267.203	7.98
267.418	7.89
267.633	8.3
267.848	9.03
268.064	6.61
268.279	5.82
268.494	5.29
268.709	4.57
268.924	4.11
269.139	5.24
269.354	6.02
269.569	7.04
269.784	7.44
269.999	8.26
270.214	8.07
270.429	9.54
270.644	9.68
270.859	11.19
271.074	11.83
271.289	11.62
271.504	11.51
271.719	10.82
271.934	11.34
272.149	11.43
272.363	10.56
272.578	10.12
272.793	9.82
273.008	9.58
273.223	10.01
273.438	10.11
273.653	10.42
273.867	8.91
274.082	7.67
274.297	6.35
274.512	6.68
274.726	7.21
274.941	7.09
275.156	8.01
275.371	9.25
275.585	8.03
275.8	6.95
276.015	6.54
276.229	7.36
276.444	9.07
276.659	10.15
276.873	9.43
277.088	9.19
277.302	8.88
277.517	8.63
277.732	8.85
277.946	8.62
278.161	10.53
278.375	11.17
278.59	12.5
278.804	11.81
279.019	10.9
279.233	11.74
279.448	11.59
279.662	13.59
279.877	12.95
280.091	10.34
280.306	11.27
280.52	11.23
280.735	10.78
280.949	10.47
281.163	8.99
281.378	10.26
281.592	8.78
281.806	8.37
282.021	7.57
282.235	8.05
282.449	9.9
282.664	8.29
282.878	7.84
283.092	6.24
283.307	5.3
283.521	6.4
283.735	5.66
283.949	6.48
284.164	8.42
284.378	8.05
284.592	7.21
284.806	6
285.02	8.05
285.234	7.32
285.449	8.14
285.663	8.93
285.877	8.39
286.091	8.15
286.305	7.21
286.519	6.98
286.733	7.07
286.947	7.62
287.161	8.67
287.375	9.31
287.589	10.15
287.803	11.57
288.017	11.74
288.231	12.55
288.445	13.16
288.659	14.67
288.873	12.85
289.087	13.02
289.301	13.19
289.515	12.08
289.729	12.07
289.943	12.75
290.157	12.69
290.371	11.81
290.584	11.86
290.798	12
291.012	10.97
291.226	12.47
291.44	11.11
291.654	10.47
291.867	10.08
292.081	8.55
292.295	6.58
292.509	6.41
292.722	7.3
292.936	6.44
293.15	5.54
293.364	4.18
293.577	3.57
293.791	5.53
294.005	6.74
294.218	8.73
294.432	7.01
294.645	8.52
294.859	7.92
295.073	6.45
295.286	7.18
295.5	7.04
295.713	8.34
295.927	9.13
296.14	7.16
296.354	6.61
296.568	6.58
296.781	6.83
296.994	5.89
297.208	6.14
297.421	7.44
297.635	7.98
297.848	9.4
298.062	9.85
298.275	8.13
298.489	9.49
298.702	9.46
298.915	9.07
299.129	10.61
299.342	10.95
299.555	11.18
299.769	10.59
299.982	11.33
300.195	10.09
300.409	9.34
300.622	10.04
300.835	9.91
301.048	10.73
301.262	10.19
301.475	9.22
301.688	9.83
301.901	9.65
302.115	8.99
302.328	8.12
302.541	10.62
302.754	11.45
302.967	13.26
303.18	13.44
303.393	13.27
303.607	13.04
303.82	14.01
304.033	13.89
304.246	13.81
304.459	13.91
304.672	14.52
304.885	12.72
305.098	11.85
305.311	11.03
305.524	11.23
305.737	11.63
305.95	11.46
306.163	10.11
306.376	11.73
306.589	10.75
306.802	11.47
307.015	9.56
307.228	10.03
307.44	11.23
307.653	11.02
307.866	9.11
308.079	9.18
308.292	9.56
308.505	10.62
308.718	9.28
308.93	10.86
309.143	9.82
309.356	10.55
309.569	9.39
309.781	9.7
309.994	9.23
310.207	10.39
310.42	10.06
310.632	12.03
310.845	12.94
311.058	12.86
311.27	11.89
311.483	13.27
311.696	12.65
311.908	12.93
312.121	12.99
312.333	13.39
312.546	13.46
312.759	14.69
312.971	12.7
313.184	12.28
313.396	12.98
313.609	13.37
313.821	12.8
314.034	12.46
314.246	13.68
314.459	12.8
314.671	12.27
314.884	11.12
315.096	10.58
315.309	10.79
315.521	9.63
315.733	9.18
315.946	9.46
316.158	10.18
316.371	10.98
316.583	8.47
316.795	7.49
317.008	6.51
317.22	8.37
317.432	6.42
317.644	7.09
317.857	6.72
318.069	6.55
318.281	6.66
318.494	5.12
318.706	5.52
318.918	6.38
319.13	7.45
319.342	8.85
319.555	7.31
319.767	8.04
319.979	8.66
320.191	9.52
320.403	7.27
320.615	4
320.827	5.22
321.039	6.04
321.252	5.9
321.464	6.35
321.676	7.12
321.888	7.85
322.1	8.25
322.312	6.88
322.524	6.54
322.736	9.05
322.948	9.88
323.16	9.1
323.372	8.53
323.584	9.03
323.796	6.43
324.007	5.96
324.219	6.3
324.431	5.78
324.643	6.4
324.855	4.37
325.067	5.79
325.279	8.33
325.491	8.86
325.702	9.56
325.914	8.82
326.126	11.63
326.338	12.02
326.55	11.83
326.761	12.35
326.973	12.2
327.185	13.51
327.396	11.46
327.608	11.22
327.82	10.86
328.032	9.01
328.243	8.46
328.455	7.25
328.666	6.62
328.878	6.97
329.09	5.96
329.301	5.64
329.513	6.52
329.725	7.39
329.936	5.03
330.148	6
330.359	6.93
330.571	9
330.782	8.82
330.994	8.78
331.205	8.24
331.417	7.85
331.628	7.26
331.84	7.45
332.051	6.52
332.262	8.04
332.474	7.3
332.685	8.23
332.897	8.86
333.108	9.69
333.319	10.72
333.531	10.09
333.742	11.12
333.953	10.86
334.165	11.24
334.376	11.03
334.587	10.65
334.799	10.94
335.01	8.39
335.221	6.67
335.432	5.62
335.644	4.32
335.855	5.81
336.066	5.71
336.277	5.86
336.488	4.77
336.7	5.33
336.911	6.04
337.122	6.99
337.333	9.11
337.544	9.84
337.755	10.39
337.966	10.08
338.177	9.12
338.388	8.82
338.599	9.18
338.811	9.59
339.022	9.17
339.233	8.75
339.444	7.19
339.655	6.62
339.866	6.27
340.076	6.84
340.287	7.13
340.498	5.22
340.709	6.57
340.92	8.16
341.131	8.01
341.342	8
341.553	7.7
341.764	7.68
341.975	8.59
342.185	8.24
342.396	7.75
342.607	7.62
342.818	9.24
343.029	8.48
343.239	7.28
343.45	7.56
343.661	8.16
343.872	8.37
344.082	8.2
344.293	7.49
344.504	7.71
344.714	7.75
344.925	9.86
345.136	10.04
345.346	9.24
345.557	9.25
345.768	9.1
345.978	7.72
346.189	8.02
346.399	8.92
346.61	8.01
346.821	7.67
347.031	7.87
347.242	6.38
347.452	6.32
347.663	7.65
347.873	7.82
348.084	7.7
348.294	8.95
348.504	6.58
348.715	6.32
348.925	7.8
349.136	8.65
349.346	8.54
349.557	8.22
349.767	8.33
349.977	8.17
350.188	8.21
350.398	9.38
350.608	9.17
350.819	10.98
351.029	11.8
351.239	12.22
351.449	11.36
351.66	11.03
351.87	9.78
352.08	10.62
352.29	10.66
352.501	9.95
352.711	10.39
352.921	10.78
353.131	9.67
353.341	8.68
353.552	7.52
353.762	6.86
353.972	6.9
354.182	8.55
354.392	8.13
354.602	6.99
354.812	7.91
355.022	6.89
355.232	6.41
355.442	7.12
355.652	7.55
355.862	8.02
356.072	9.4
356.282	10.14
356.492	10.04
356.702	9.55
356.912	9.94
357.122	10.21
357.332	9.68
357.542	9.69
357.752	10.71
357.962	9.85
358.171	8.49
358.381	8.26
358.591	7.58
358.801	8.02
359.011	7.23
359.221	6.55
359.43	6.63
359.64	7.73
359.85	9.1
360.06	8.01
360.269	8.48
360.479	9.38
360.689	8.49
360.899	7.86
361.108	7.21
361.318	8.02
361.528	7.79
361.737	7.42
361.947	6.84
362.156	5.91
362.366	5.5
362.576	4.94
362.785	4.81
362.995	5.11
363.204	5.67
363.414	5.43
363.623	4.42
363.833	4.97
364.042	4.78
364.252	4.58
364.461	4.13
364.671	5.71
364.88	6.3
365.09	5.72
365.299	6.17
365.509	5.27
365.718	5.52
365.927	5.71
366.137	5.53
366.346	4.99
366.555	4.88
366.765	5.88
366.974	4.66
367.183	4.04
367.393	4.22
367.602	3.05
367.811	3.75
368.021	4.24
368.23	4.25
368.439	4.51
368.648	4.59
368.857	5.22
369.067	3.77
369.276	3.5
369.485	3.87
369.694	4.24
369.903	5.31
370.112	4.75
370.321	4.4
370.531	5.53
370.74	5.34
370.949	5.57
371.158	5.26
371.367	6.09
371.576	6.48
371.785	6.47
371.994	6.02
372.203	5.73
372.412	6.75
372.621	6.26
372.83	5.51
373.039	6.25
373.248	6.85
373.457	6.46
373.666	6.04
373.874	5.84
374.083	6.17
374.292	6.38
374.501	6.12
374.71	4.64
374.919	5.49
375.128	4.98
375.336	4.65
375.545	4.82
375.754	5.47
375.963	5.65
376.171	5.98
376.38	5.23
376.589	4.8
376.798	4.93
377.006	4.83
377.215	4.61
377.424	4.9
377.632	4.86
377.841	4.27
378.05	3.78
378.258	3.96
378.467	3.75
378.675	3.99
378.884	4.3
379.093	4.6
379.301	5.03
379.51	5.09
379.718	5.12
379.927	4.5
380.135	4.45
380.344	3.61
380.552	3.31
380.761	3.08
380.969	3.1
381.177	3.45
381.386	3.44
381.594	4.25
381.803	4.01
382.011	3.81
382.219	4.11
382.428	4.29
382.636	4.85
382.845	4.57
383.053	4.94
383.261	4.7
383.469	4.53
383.678	4.38
383.886	4.15
384.094	4.74
384.302	5.34
384.511	5.66
384.719	5.23
384.927	5.23
385.135	5.62
385.343	5.43
385.552	6.28
385.76	6.03
385.968	5.91
386.176	5.41
386.384	4.87
386.592	4.75
386.8	4.33
387.008	4.65
387.216	5.04
387.424	4.69
387.633	4.73
387.841	4.1
388.049	4.88
388.257	4.8
388.465	4.91
388.672	4.79
388.88	4.24
389.088	4.37
389.296	3.68
389.504	3.23
389.712	3.58
389.92	3.59
390.128	3.27
390.336	2.85
390.544	3.13
390.751	2.92
390.959	2.97
391.167	3.14
391.375	2.84
391.583	3.61
391.79	3.65
391.998	3.68
392.206	3.59
392.414	3.75
392.621	3.7
392.829	3.2
393.037	3.17
393.244	2.99
393.452	3.17
393.66	3.17
393.867	2.95
394.075	2.78
394.283	2.21
394.49	2.5
394.698	2.58
394.905	2.33
395.113	2.57
395.32	2.64
395.528	3.04
395.735	3.15
395.943	3.33
396.15	2.94
396.358	3.01
396.565	3.34
396.773	3.29
396.98	3.17
397.188	3.31
397.395	3.53
397.602	3.95
397.81	3.53
398.017	2.99
398.225	3.03
398.432	2.95
398.639	3.02
398.847	2.89
399.054	2.59
399.261	2.75
399.468	2.95
399.676	2.54
399.883	2.37
400.09	2.48
400.297	2.57
400.505	2.58
400.712	2.76
400.919	2.55
401.126	3.09
401.333	3.02
401.54	3.01
401.748	2.74
401.955	2.89
402.162	2.73
402.369	2.6
402.576	3.02
402.783	3.1
402.99	3.01
403.197	2.95
403.404	2.7
403.611	2.82
403.818	2.71
404.025	2.29
404.232	2.46
404.439	2.44
404.646	2.63
404.853	2.37
405.06	2.45
405.267	2.53
405.474	2.43
405.681	2.02
405.887	2.08
406.094	2.01
406.301	2.3
406.508	2.1
406.715	1.78
406.922	1.74
407.128	1.52
407.335	1.56
407.542	1.87
407.749	2.41
407.955	2.67
408.162	2.29
408.369	2.33
408.575	2.51
408.782	2.77
408.989	3
409.195	2.98
409.402	3.05
409.609	2.8
409.815	2.63
410.022	2.44
410.228	2.46
410.435	2.63
410.642	2.86
410.848	2.9
411.055	2.64
411.261	2.91
411.468	2.71
411.674	2.98
411.881	3.14
412.087	2.73
412.294	2.8
412.5	2.47
412.706	2.59
412.913	2.63
413.119	2.14
413.326	2.39
413.532	2.3
413.738	2.23
413.945	1.9
414.151	1.88
414.357	2.24
414.564	1.99
414.77	2.29
414.976	2.2
415.182	2.15
415.389	2.41
415.595	2.44
415.801	2.37
416.007	2.49
416.214	2.52
416.42	2.38
416.626	2.32
416.832	2.31
417.038	2.14
417.244	2.16
417.45	2.15
417.657	2.06
417.863	1.83
418.069	1.95
418.275	2.11
418.481	2.26
418.687	2.24
418.893	2.12
419.099	2.18
419.305	2.2
419.511	2.17
419.717	2.22
419.923	2.32
420.129	2.3
420.335	2.3
420.541	2.25
420.746	2.17
420.952	2.13
421.158	2.16
421.364	2.33
421.57	2.43
421.776	2.4
421.982	2.29
422.187	2.22
422.393	2.2
422.599	2.14
422.805	2.1
423.01	2.1
423.216	2.09
423.422	2.24
423.628	2.02
423.833	2.04
424.039	2.08
424.245	2.14
424.45	2.15
424.656	2.25
424.862	2.31
425.067	2.39
425.273	2.51
425.478	2.61
425.684	2.48
425.889	2.45
426.095	2.38
426.301	2.54
426.506	2.41
426.712	2.49
426.917	2.29
427.123	2.09
427.328	2
427.533	1.86
427.739	1.51
427.944	1.53
428.15	1.66
428.355	1.35
428.561	1.12
428.766	1.15
428.971	1.07
429.177	1.47
429.382	1.44
429.587	1.26
429.793	1.23
429.998	1.53
430.203	1.46
430.408	1.46
430.614	1.56
430.819	1.5
431.024	1.43
431.229	1.7
431.434	1.51
431.64	1.49
431.845	1.63
432.05	1.71
432.255	1.56
432.46	1.73
432.665	1.86
432.87	2.11
433.076	2.09
433.281	2.17
433.486	2.09
433.691	2.08
433.896	2.16
434.101	2.25
434.306	2.15
434.511	2.25
434.716	2.13
434.921	1.99
435.126	1.92
435.331	1.82
435.535	1.74
435.74	1.68
435.945	1.54
436.15	1.56
436.355	1.56
436.56	1.64
436.765	1.53
436.97	1.76
437.174	1.84
437.379	1.85
437.584	1.93
437.789	1.99
437.993	1.82
438.198	2.02
438.403	2.11
438.608	1.97
438.812	1.95
439.017	1.75
439.222	1.65
439.426	1.41
439.631	1.42
439.836	1.52
440.04	1.6
440.245	1.7
440.45	1.64
440.654	1.59
440.859	1.61
441.063	1.58
441.268	2.02
441.472	1.87
441.677	2.16
441.881	2.19
442.086	2.17
442.29	2
442.495	2.06
442.699	2.1
442.904	2.07
443.108	2.05
443.312	2.08
443.517	1.92
443.721	2.1
443.925	1.84
444.13	1.79
444.334	1.84
444.538	1.85
444.743	1.8
444.947	1.65
445.151	1.77
445.356	1.84
445.56	1.83
445.764	1.79
445.968	1.79
446.173	1.98
446.377	1.96
446.581	1.81
446.785	1.86
446.989	1.84
447.193	1.87
447.398	1.83
447.602	1.84
447.806	1.8
448.01	1.92
448.214	1.92
448.418	1.77
448.622	1.76
448.826	1.92
449.03	1.95
449.234	1.92
449.438	1.95
449.642	1.9
449.846	1.97
450.05	2.08
450.254	1.79
450.458	1.6
450.662	1.56
450.866	1.61
451.069	1.45
451.273	1.5
451.477	1.79
451.681	1.92
451.885	1.86
452.089	1.61
452.292	1.64
452.496	1.66
452.7	1.73
452.904	1.53
453.107	1.59
453.311	1.57
453.515	1.3
453.719	1
453.922	1.04
454.126	0.99
454.33	1.05
454.533	0.9
454.737	0.86
454.94	1.05
455.144	1.44
455.348	1.23
455.551	1.44
455.755	1.61
455.958	1.84
456.162	1.75
456.365	2
456.569	1.95
456.772	1.85
456.976	1.74
457.179	1.56
457.383	1.43
457.586	1.72
457.79	1.63
457.993	1.79
458.196	1.62
458.4	1.72
458.603	1.58
458.807	1.44
459.01	1.5
459.213	1.51
459.417	1.59
459.62	1.45
459.823	1.28
460.026	1.18
460.23	1.11
460.433	1.15
460.636	0.99
460.839	1.04
461.042	1.06
461.246	1.16
461.449	1.25
461.652	1.23
461.855	1.49
462.058	1.71
462.261	1.79
462.464	1.75
462.668	1.75
462.871	1.72
463.074	1.56
463.277	1.54
463.48	1.58
463.683	1.65
463.886	1.77
464.089	1.72
464.292	1.46
464.495	1.38
464.698	1.38
464.901	1.48
465.104	1.76
465.306	1.95
465.509	2.02
465.712	2.02
465.915	2.12
466.118	1.95
466.321	1.89
466.524	1.98
466.726	2.06
466.929	2.01
467.132	1.78
467.335	1.71
467.538	1.4
467.74	1.57
467.943	1.54
468.146	1.37
468.348	1.32
468.551	1.26
468.754	1.03
468.956	1.01
469.159	1.17
469.362	1.24
469.564	1.12
469.767	1.25
469.969	1.31
470.172	1.37
470.375	1.36
470.577	1.32
470.78	1.51
470.982	1.8
471.185	1.8
471.387	1.64
471.59	1.55
471.792	1.73
471.995	1.85
472.197	1.79
472.399	1.64
472.602	1.68
472.804	1.7
473.007	1.34
473.209	1.34
473.411	1.3
473.614	1.54
473.816	1.57
474.018	1.46
474.22	1.52
474.423	1.53
474.625	1.51
474.827	1.49
475.03	1.56
475.232	1.79
475.434	1.69
475.636	1.91
475.838	1.75
476.04	1.81
476.243	1.8
476.445	1.72
476.647	1.65
476.849	1.85
477.051	1.83
477.253	1.85
477.455	1.84
477.657	1.94
477.859	1.75
478.061	1.74
478.263	1.77
478.465	1.83
478.667	1.76
478.869	1.91
479.071	1.78
479.273	1.81
479.475	1.74
479.677	1.72
479.879	1.72
480.081	1.86
480.283	1.84
480.485	1.86
480.686	1.73
480.888	1.81
481.09	1.58
481.292	1.47
481.494	1.62
481.695	1.67
481.897	1.63
482.099	1.54
482.301	1.38
482.502	1.47
482.704	1.47
482.906	1.59
483.107	1.59
483.309	1.61
483.511	1.67
483.712	1.62
483.914	1.58
484.115	1.62
484.317	1.64
484.519	1.64
484.72	1.62
484.922	1.57
485.123	1.5
485.325	1.46
485.526	1.47
485.728	1.52
485.929	1.53
486.131	1.59
486.332	1.55
486.534	1.56
486.735	1.64
486.936	1.61
487.138	1.7
487.339	1.69
487.541	1.69
487.742	1.65
487.943	1.54
488.144	1.49
488.346	1.45
488.547	1.45
488.748	1.47
488.95	1.46
489.151	1.45
489.352	1.37
489.553	1.37
489.755	1.5
489.956	1.47
490.157	1.53
490.358	1.56
490.559	1.61
490.76	1.55
490.961	1.59
491.163	1.65
491.364	1.72
491.565	1.76
491.766	1.72
491.967	1.66
492.168	1.78
492.369	1.77
492.57	1.84
492.771	1.91
492.972	1.95
493.173	1.82
493.374	1.75
493.575	1.67
493.776	1.82
493.976	1.88
494.177	1.87
494.378	1.86
494.579	1.83
494.78	1.61
494.981	1.53
495.182	1.54
495.382	1.61
495.583	1.56
495.784	1.59
495.985	1.41
496.185	1.5
496.386	1.42
496.587	1.31
496.788	1.34
496.988	1.56
497.189	1.48
497.39	1.75
497.59	1.73
497.791	1.78
497.992	1.72
498.192	1.79
498.393	1.79
498.593	1.83
498.794	1.83
498.994	1.86
499.195	1.77
499.395	1.76
499.596	1.56
499.796	1.47
499.997	1.35
500.197	1.41
500.398	1.42
500.598	1.36
500.799	1.41
500.999	1.64
501.199	1.61
501.4	1.65
501.6	1.77
501.801	1.73
502.001	1.87
502.201	1.94
502.402	2.2
502.602	2.21
502.802	2.14
503.002	2.11
503.203	1.87
503.403	1.89
503.603	1.71
503.803	1.72
504.003	1.66
504.204	1.71
504.404	1.78
504.604	1.49
504.804	1.34
505.004	1.43
505.204	1.4
505.404	1.56
505.604	1.54
505.804	1.69
506.005	1.67
506.205	1.69
506.405	1.63
506.605	1.58
506.805	1.71
507.005	1.79
507.204	1.9
507.404	2.02
507.604	1.93
507.804	2.05
508.004	1.97
508.204	1.92
508.404	1.91
508.604	1.99
508.804	2
509.003	2.04
509.203	2.07
509.403	2
509.603	2.02
509.803	2
510.002	1.96
510.202	2.14
510.402	2.25
510.602	2.35
510.801	2.43
511.001	2.47
511.201	2.28
511.4	2.32
511.6	2.4
511.8	2.29
511.999	2.37
512.199	2.33
512.398	2.18
512.598	2.08
512.797	2.17
512.997	2.12
513.197	2.11
513.396	2.26
513.596	2.17
513.795	1.9
513.994	1.83
514.194	1.75
514.393	1.63
514.593	1.8
514.792	1.73
514.992	1.5
515.191	1.39
515.39	1.5
515.59	1.6
515.789	1.59
515.988	1.91
516.188	2.02
516.387	2.02
516.586	2.15
516.786	2.15
516.985	2.15
517.184	2.17
517.383	2.23
517.582	2.14
517.782	2.07
517.981	2.2
518.18	2.13
518.379	2.13
518.578	2.18
518.777	2.26
518.976	2.18
519.176	2.24
519.375	2.28
519.574	2.24
519.773	2.23
519.972	2.17
520.171	2.11
520.37	2.11
520.569	2.04
520.768	2.1
520.967	2.02
521.166	2.01
521.365	2
521.564	1.94
521.762	1.96
521.961	1.95
522.16	2.04
522.359	2.06
522.558	1.93
522.757	2.08
522.956	2.03
523.154	2.25
523.353	2.41
523.552	2.4
523.751	2.49
523.949	2.41
524.148	2.45
524.347	2.34
524.546	2.24
524.744	2.38
524.943	2.27
525.142	2.22
525.34	2.11
525.539	2.1
525.737	2.14
525.936	2.14
526.135	2.29
526.333	2.43
526.532	2.53
526.73	2.49
526.929	2.49
527.127	2.6
527.326	2.56
527.524	2.51
527.723	2.43
527.921	2.45
528.12	2.45
528.318	2.44
528.516	2.41
528.715	2.36
528.913	2.48
529.112	2.43
529.31	2.41
529.508	2.47
529.707	2.55
529.905	2.59
530.103	2.61
530.301	2.61
530.5	2.63
530.698	2.67
530.896	2.72
531.094	2.62
531.293	2.75
531.491	2.76
531.689	2.71
531.887	2.73
532.085	2.74
532.283	2.74
532.481	2.85
532.68	2.73
532.878	2.65
533.076	2.79
533.274	2.83
533.472	2.86
533.67	2.94
533.868	3
534.066	2.95
534.264	2.95
534.462	2.98
534.66	3.04
534.858	3.16
535.056	3.16
535.253	3.02
535.451	3.03
535.649	2.91
535.847	2.83
536.045	2.91
536.243	2.85
536.441	2.83
536.638	2.95
536.836	2.96
537.034	2.98
537.232	3.05
537.43	3.18
537.627	3.24
537.825	3.29
538.023	3.42
538.22	3.43
538.418	3.57
538.616	3.7
538.813	3.44
539.011	3.26
539.209	3.28
539.406	3.14
539.604	3.12
539.801	3.08
539.999	3.15
540.196	3.15
540.394	3.06
540.591	3
540.789	3.06
540.986	3.19
541.184	3.25
541.381	3.28
541.579	3.39
541.776	3.36
541.974	3.39
542.171	3.46
542.368	3.35
542.566	3.36
542.763	3.4
542.96	3.36
543.158	3.3
543.355	3.36
543.552	3.37
543.75	3.28
543.947	3.21
544.144	3.19
544.341	3.12
544.539	3.16
544.736	3.18
544.933	3.27
545.13	3.23
545.327	3.32
545.524	3.26
545.722	3.29
545.919	3.39
546.116	3.55
546.313	3.63
546.51	3.69
546.707	3.75
546.904	3.78
547.101	3.71
547.298	3.72
547.495	3.78
547.692	3.89
547.889	3.81
548.086	3.89
548.283	3.81
548.48	3.86
548.677	3.9
548.874	4.01
549.07	4.01
549.267	4.09
549.464	4.08
549.661	4.05
549.858	4.04
550.055	3.99
550.251	3.87
550.448	4.09
550.645	4.03
550.842	3.99
551.038	3.95
551.235	4.25
551.432	4.25
551.628	4.41
551.825	4.42
552.022	4.28
552.218	4.44
552.415	4.44
552.612	4.55
552.808	4.48
553.005	4.71
553.201	5.02
553.398	4.86
553.594	4.99
553.791	5.03
553.987	4.95
554.184	4.98
554.38	5.18
554.577	5.6
554.773	5.49
554.97	5.55
555.166	5.41
555.362	5.14
555.559	4.97
555.755	5.13
555.952	5.12
556.148	5.34
556.344	5.45
556.541	5.26
556.737	4.97
556.933	5.02
557.129	5.28
557.326	5.27
557.522	5.41
557.718	5.66
557.914	5.24
558.11	5.2
558.307	5.03
558.503	5.3
558.699	5.47
558.895	5.56
559.091	5.74
559.287	5.62
559.483	5.72
559.679	5.71
559.876	5.74
560.072	5.81
560.268	6.06
560.464	6.05
560.66	5.99
560.856	6.04
561.052	6.09
561.247	5.81
561.443	5.88
561.639	5.83
561.835	5.73
562.031	6.03
562.227	6.32
562.423	6.19
562.619	6.32
562.815	6.31
563.01	6.23
563.206	6.18
563.402	6.3
563.598	6.47
563.793	6.42
563.989	6.58
564.185	6.23
564.381	5.98
564.576	6
564.772	6.08
564.968	6.15
565.163	6.22
565.359	6.34
565.555	6.47
565.75	6.46
565.946	6.47
566.141	6.57
566.337	6.64
566.532	6.93
566.728	6.92
566.923	6.91
567.119	6.84
567.314	6.79
567.51	6.77
567.705	6.9
567.901	6.8
568.096	6.69
568.292	6.55
568.487	6.6
568.682	6.45
568.878	6.54
569.073	6.67
569.268	6.82
569.464	6.84
569.659	6.87
569.854	6.77
570.05	6.89
570.245	7.11
570.44	7.17
570.635	7.17
570.831	7.15
571.026	6.99
571.221	6.9
571.416	6.97
571.611	7.1
571.806	7.04
572.002	6.89
572.197	6.89
572.392	6.98
572.587	7.07
572.782	7.21
572.977	7.36
573.172	7.68
573.367	7.8
573.562	7.79
573.757	7.82
573.952	7.94
574.147	8.04
574.342	7.94
574.537	7.96
574.732	7.92
574.927	7.83
575.121	7.88
575.316	7.84
575.511	7.82
575.706	7.92
575.901	7.85
576.096	7.74
576.29	7.72
576.485	7.78
576.68	7.79
576.875	7.98
577.069	8.29
577.264	8.29
577.459	8.21
577.654	8.2
577.848	7.91
578.043	8.08
578.238	8.25
578.432	8.4
578.627	8.57
578.821	8.43
579.016	8.27
579.21	7.86
579.405	7.85
579.6	8.01
579.794	8.18
579.989	8.45
580.183	8.25
580.378	8.31
580.572	8.23
580.766	7.95
580.961	8.01
581.155	8.18
581.35	8.12
581.544	8.1
581.738	8.16
581.933	8.08
582.127	8.13
582.321	8.11
582.516	8.1
582.71	8.11
582.904	8.22
583.099	8.56
583.293	8.5
583.487	8.69
583.681	8.74
583.875	8.54
584.07	8.45
584.264	8.46
584.458	8.66
584.652	8.48
584.846	8.3
585.04	8.46
585.234	8.31
585.428	8.22
585.623	8.24
585.817	8.24
586.011	8.22
586.205	7.97
586.399	7.84
586.593	7.59
586.787	7.61
586.981	7.83
587.174	7.68
587.368	7.48
587.562	7.44
587.756	7.4
587.95	7.37
588.144	7.56
588.338	7.79
588.532	7.81
588.725	7.92
588.919	8.04
589.113	7.95
589.307	7.92
589.501	8.08
589.694	7.95
589.888	8.17
590.082	8.28
590.275	8.24
590.469	8.13
590.663	8.05
590.856	8.01
591.05	8.2
591.244	8.5
591.437	8.54
591.631	8.49
591.824	8.37
592.018	8.22
592.212	8
592.405	7.83
592.599	7.91
592.792	7.99
592.986	7.99
593.179	7.87
593.372	7.61
593.566	7.7
593.759	7.66
593.953	8
594.146	7.82
594.339	8.1
594.533	8.14
594.726	8.58
594.92	8.67
595.113	8.79
595.306	8.75
595.499	8.95
595.693	8.85
595.886	9.05
596.079	9.13
596.272	9.26
596.466	9.31
596.659	9.28
596.852	9.12
597.045	9.1
597.238	9.09
597.431	9.34
597.624	9.12
597.818	9.41
598.011	9.25
598.204	9.09
598.397	9.36
598.59	9.12
598.783	9.25
598.976	9.19
599.169	8.95
599.362	9.19
599.555	8.94
599.748	8.98
599.941	8.77
600.134	8.92
600.326	9.26
600.519	9.08
600.712	9.18
600.905	9.09
601.098	9.11
601.291	9.37
601.483	9.18
601.676	9.07
601.869	9.27
602.062	9.38
602.255	9.28
602.447	9.17
602.64	8.94
602.833	9.03
603.025	9.03
603.218	9.19
603.411	9.13
603.603	9.08
603.796	9.25
603.989	9.15
604.181	9.25
604.374	9.45
604.566	9.47
604.759	9.6
604.951	9.47
605.144	9.41
605.336	9.39
605.529	9.32
605.721	9.34
605.914	9.18
606.106	9.27
606.299	9.15
606.491	8.78
606.683	8.74
606.876	8.49
607.068	8.58
607.26	8.58
607.453	8.49
607.645	8.79
607.837	9.1
608.03	9.09
608.222	8.91
608.414	8.66
608.606	8.63
608.799	8.47
608.991	8.57
609.183	8.59
609.375	8.53
609.567	8.37
609.759	8.19
609.952	7.92
610.144	7.97
610.336	8.05
610.528	8.06
610.72	8.23
610.912	8.24
611.104	8.25
611.296	8.03
611.488	8.09
611.68	8.22
611.872	8.49
612.064	8.54
612.256	8.61
612.448	8.63
612.64	8.72
612.832	8.56
613.023	8.52
613.215	8.61
613.407	8.78
613.599	8.9
613.791	8.81
613.983	8.71
614.174	8.37
614.366	8.27
614.558	8.21
614.75	8.26
614.941	8.38
615.133	8.96
615.325	8.96
615.516	9.21
615.708	9.14
615.9	9.3
616.091	9.04
616.283	9.68
616.475	9.78
616.666	9.85
616.858	10.25
617.049	10.34
617.241	9.7
617.432	9.83
617.624	9.92
617.815	10.01
618.007	10.07
618.198	10.24
618.39	9.74
618.581	9.52
618.773	9.41
618.964	9.02
619.155	9.26
619.347	9.28
619.538	9.12
619.729	8.86
619.921	8.8
620.112	8.72
620.303	8.84
620.494	9.09
620.686	9.21
620.877	9.34
621.068	9.39
621.259	9.07
621.451	9.04
621.642	9.02
621.833	8.97
622.024	8.96
622.215	8.91
622.406	8.88
622.597	9.01
622.788	9.17
622.98	9.02
623.171	8.9
623.362	9.16
623.553	9.61
623.744	9.64
623.935	9.57
624.126	9.98
624.317	9.9
624.508	9.64
624.698	9.45
624.889	9.56
625.08	9.84
625.271	9.71
625.462	9.55
625.653	9.29
625.844	9.61
626.034	9.84
626.225	9.35
626.416	9.44
626.607	9.65
626.798	9.7
626.988	9.43
627.179	9.36
627.37	9.59
627.56	9.62
627.751	9.55
627.942	9.58
628.132	9.5
628.323	9.56
628.514	9.44
628.704	9.31
628.895	9.15
629.085	9.26
629.276	9.17
629.466	9.25
629.657	9.23
629.847	9.36
630.038	9.17
630.228	9.19
630.419	9.5
630.609	9.5
630.8	9.27
630.99	9.37
631.181	9.16
631.371	9.46
631.561	9.4
631.752	9.49
631.942	9.63
632.132	9.33
632.323	9.28
632.513	9.07
632.703	8.98
632.893	9.34
633.084	9.52
633.274	9.93
633.464	9.66
633.654	9.6
633.844	9.6
634.034	9.45
634.225	9.59
634.415	9.59
634.605	9.67
634.795	9.9
634.985	9.66
635.175	9.49
635.365	9.39
635.555	9.44
635.745	9.3
635.935	8.86
636.125	8.73
636.315	8.46
636.505	8.72
636.695	8.76
636.885	8.46
637.075	8.69
637.265	8.76
637.455	8.9
637.644	9.06
637.834	9.29
638.024	9.41
638.214	9.63
638.404	10.24
638.593	9.98
638.783	9.88
638.973	10.08
639.163	9.93
639.352	9.81
639.542	9.43
639.732	9.3
639.921	9.22
640.111	9.3
640.301	9.29
640.49	9
640.68	9.33
640.87	9.66
641.059	9.76
641.249	9.75
641.438	9.74
641.628	10.06
641.817	9.8
642.007	10
642.196	10.04
642.386	9.68
642.575	9.76
642.764	9.71
642.954	9.25
643.143	9.27
643.333	9.41
643.522	9.52
643.711	9.05
643.901	9.32
644.09	9.15
644.279	9.31
644.469	9.68
644.658	9.47
644.847	9.34
645.036	9.26
645.226	9.67
645.415	9.7
645.604	9.49
645.793	9.71
645.982	9.82
646.171	9.74
646.361	9.75
646.55	9.59
646.739	9.87
646.928	9.79
647.117	10.35
647.306	10.14
647.495	10.06
647.684	10.4
647.873	10.21
648.062	9.95
648.251	9.75
648.44	9.73
648.629	10.4
648.818	10.46
649.007	9.97
649.196	9.94
649.384	9.9
649.573	9.83
649.762	9.79
649.951	10.07
650.14	10.15
650.328	10.36
650.517	10.26
650.706	10.06
650.895	9.97
651.083	10.6
651.272	10.42
651.461	10.67
651.65	10.4
651.838	10.59
652.027	10.41
652.216	10.76
652.404	11.06
652.593	11.12
652.781	11.08
652.97	10.9
653.158	10.91
653.347	10.71
653.535	10.47
653.724	11.03
653.912	10.84
654.101	11.18
654.289	10.98
654.478	10.35
654.666	10.13
654.855	9.86
655.043	9.73
655.231	9.39
655.42	9.29
655.608	8.98
655.796	8.96
655.985	9.21
656.173	9.17
656.361	9.21
656.55	9.49
656.738	9.88
656.926	9.79
657.114	10.09
657.302	10.24
657.491	10.56
657.679	10.62
657.867	10.61
658.055	10.35
658.243	10.2
658.431	9.97
658.619	9.81
658.807	9.93
658.996	9.97
659.184	9.95
659.372	9.87
659.56	9.9
659.748	10
659.936	9.87
660.124	10.02
660.311	10.11
660.499	10.6
660.687	10.96
660.875	10.77
661.063	11.2
661.251	11.15
661.439	11.6
661.627	11.39
661.814	11.36
662.002	11.47
662.19	11.31
662.378	11.57
662.565	10.81
662.753	10.71
662.941	10.54
663.129	9.81
663.316	9.79
663.504	9.57
663.692	9.55
663.879	9.42
664.067	9.07
664.254	9.04
664.442	8.88
664.63	9.25
664.817	9.35
665.005	9.73
665.192	9.8
665.38	9.85
665.567	9.49
665.755	9.9
665.942	10.1
666.13	10.08
666.317	10.28
666.504	10.14
666.692	9.38
666.879	9.43
667.067	9.28
667.254	9.11
667.441	9.37
667.629	9.27
667.816	9
668.003	8.93
668.19	9.23
668.378	9.37
668.565	9.33
668.752	10.28
668.939	10.26
669.127	10.04
669.314	10.67
669.501	10.02
669.688	10.53
669.875	10.75
670.062	10.85
670.249	10.8
670.436	10.31
670.623	10.47
670.81	10.75
670.997	10.57
671.184	10.97
671.371	10.79
671.558	10.69
671.745	10.43
671.932	10.26
672.119	10.53
672.306	10.73
672.493	10.76
672.68	11.02
672.867	10.28
673.054	10.5
673.24	10.63
673.427	10.65
673.614	11.23
673.801	11.53
673.988	11.71
674.174	11.21
674.361	11.15
674.548	11.56
674.734	11.56
674.921	11.88
675.108	11.48
675.294	10.82
675.481	10.74
675.668	11.23
675.854	10.98
676.041	10.65
676.227	10.89
676.414	10.17
676.601	10.63
676.787	10.39
676.974	10.3
677.16	10.5
677.347	11.05
677.533	10.94
677.719	9.95
677.906	10.35
678.092	10.61
678.279	10.29
678.465	10.86
678.651	10.08
678.838	10.22
679.024	10.41
679.21	10.54
679.397	10.26
679.583	10.28
679.769	10.66
679.955	10.26
680.142	10.3
680.328	10.22
680.514	10.24
680.7	10.46
680.886	10.3
681.073	10.16
681.259	10.02
681.445	10.22
681.631	10.3
681.817	10.14
682.003	10.04
682.189	9.93
682.375	10.24
682.561	10.07
682.747	10.07
682.933	10.21
683.119	10.4
683.305	10.46
683.491	10.55
683.677	10.36
683.863	10.49
684.049	10.88
684.235	10.78
684.42	10.78
684.606	10.86
684.792	11.1
684.978	10.79
685.164	10.07
685.349	9.8
685.535	9.68
685.721	9.54
685.907	9.47
686.092	8.95
686.278	9.13
686.464	8.93
686.649	9.1
686.835	8.68
687.021	9
687.206	9.36
687.392	9.41
687.577	9.46
687.763	10.05
687.948	10.3
688.134	10.49
688.319	10.96
688.505	11.54
688.69	11.21
688.876	11.82
689.061	12.01
689.247	12.05
689.432	12.67
689.618	12.1
689.803	12.34
689.988	12.23
690.174	12.4
690.359	11.66
690.544	11.31
690.73	11.67
690.915	11.14
691.1	10.57
691.285	10.62
691.471	10.24
691.656	10.61
691.841	10.46
692.026	10.59
692.211	10.12
692.396	10.99
692.582	10.66
692.767	10.8
692.952	10.8
693.137	11.35
693.322	11.14
693.507	10.74
693.692	10.79
693.877	10.1
694.062	10.33
694.247	11.22
694.432	10.23
694.617	10.04
694.802	9.69
694.987	10.06
695.172	9.96
695.357	9.9
695.541	10.79
695.726	10.67
695.911	11.22
696.096	10.97
696.281	10.3
696.466	10.56
696.65	11.45
696.835	11.66
697.02	11.21
697.204	11
697.389	11.12
697.574	10.71
697.759	10.93
697.943	10.72
698.128	10.8
698.312	10.82
698.497	10.85
698.682	10.72
698.866	10.76
699.051	10.6
699.235	10.86
699.42	10.92
699.604	10.81
699.789	10.6
699.973	10.89
700.158	10.87
700.342	11.16
700.527	11.05
700.711	10.6
700.895	10.85
701.08	11.03
701.264	10.74
701.448	10.64
701.633	11.07
701.817	10.97
702.001	10.64
702.186	10.73
702.37	10.59
702.554	10.2
702.738	10.65
702.923	9.65
703.107	9.94
703.291	9.98
703.475	10.42
703.659	9.9
703.843	9.93
704.027	9.51
704.212	8.99
704.396	9.16
704.58	9.79
704.764	9.33
704.948	10.17
705.132	9.65
705.316	9.32
705.5	9.17
705.684	9.89
705.868	10.63
706.052	10.45
706.235	10.11
706.419	9.88
706.603	9.45
706.787	9.65
706.971	10.2
707.155	10.21
707.339	10.49
707.522	10.34
707.706	9.48
707.89	9.12
708.074	10
708.257	10.57
708.441	10.84
708.625	11.39
708.808	12.25
708.992	10.94
709.176	10.81
709.359	10.49
709.543	10.89
709.727	11.83
709.91	11.48
710.094	11.34
710.277	11.47
710.461	11.07
710.644	10.75
710.828	10.19
711.011	11.14
711.195	11.35
711.378	11.44
711.562	12.01
711.745	11.98
711.928	12.27
712.112	12.14
712.295	12.38
712.478	12.69
712.662	12.8
712.845	13.22
713.028	13.29
713.212	14.13
713.395	14.69
713.578	13.96
713.761	13.45
713.945	13.73
714.128	14.34
714.311	13.64
714.494	13.56
714.677	13.09
714.86	12.58
715.043	11.77
715.227	10.94
715.41	10.64
715.593	11.13
715.776	11.2
715.959	10.56
716.142	10.09
716.325	10.34
716.508	10.43
716.691	10.63
716.874	10.64
717.057	11.11
717.239	10.98
717.422	10.94
717.605	10.82
717.788	11.15
717.971	12.19
718.154	12.43
718.337	12.76
718.519	12.28
718.702	12.89
718.885	12.57
719.068	12.33
719.25	13.02
719.433	12.7
719.616	12.43
719.798	12.98
719.981	12.64
720.164	11.62
720.346	11.44
720.529	11.44
720.712	11.57
720.894	11.22
721.077	11.85
721.259	12.27
721.442	12.27
721.624	12.08
721.807	10.51
721.989	9.84
722.172	10.88
722.354	11.32
722.537	11.47
722.719	10.22
722.901	10.74
723.084	10.66
723.266	10.11
723.448	10.61
723.631	11.14
723.813	12.63
723.995	13.85
724.178	12.85
724.36	12.48
724.542	12.11
724.724	11.62
724.907	11.05
725.089	11.01
725.271	11.39
725.453	11.67
725.635	11.28
725.817	10.71
725.999	9.22
726.181	9.83
726.364	9.82
726.546	10.57
726.728	11.73
726.91	12.07
727.092	12.13
727.274	11.51
727.456	11.78
727.638	11.65
727.819	10.96
728.001	11.36
728.183	12.12
728.365	12.47
728.547	11.83
728.729	11.9
728.911	12.52
729.093	12.04
729.274	11.88
729.456	10.95
729.638	10.38
729.82	11.7
730.001	12.52
730.183	11.95
730.365	12.2
730.546	12.54
730.728	12.79
730.91	12.43
731.091	12.11
731.273	12.31
731.455	12.59
731.636	13.51
731.818	12.3
731.999	11.73
732.181	11.16
732.362	10.42
732.544	10.59
732.725	10.37
732.907	10.83
733.088	11.15
733.27	12.46
733.451	11.84
733.633	11.59
733.814	11.57
733.995	11.68
734.177	12.69
734.358	13.06
734.539	13.23
734.721	13.76
734.902	14.06
735.083	14.07
735.264	13.37
735.446	14.16
735.627	12.75
735.808	13.89
735.989	13.56
736.17	13.68
736.351	14.28
736.533	15.01
736.714	13.87
736.895	12.78
737.076	13.07
737.257	12.69
737.438	11.03
737.619	12.29
737.8	11.44
737.981	12.38
738.162	11.26
738.343	10.35
738.524	9.72
738.705	11.79
738.886	12.1
739.067	10.86
739.247	9.67
739.428	11.36
739.609	10.94
739.79	11.15
739.971	10.77
740.151	9.91
740.332	10.29
740.513	9.74
740.694	7.59
740.874	8.81
741.055	9.97
741.236	12.01
741.417	11.63
741.597	11.61
741.778	11.12
741.958	10.75
742.139	13.64
742.32	13.94
742.5	14.43
742.681	15.04
742.861	13.79
743.042	13.18
743.222	12.05
743.403	11.73
743.583	12.55
743.764	12.62
743.944	12.62
744.124	11.44
744.305	11.31
744.485	10.34
744.666	9.67
744.846	9.21
745.026	10.43
745.207	11.23
745.387	11.72
745.567	11.32
745.747	10.64
745.928	10.45
746.108	10.01
746.288	9.91
746.468	9.8
746.648	9.43
746.829	10.31
747.009	9.12
747.189	7.02
747.369	7.5
747.549	7.53
747.729	7.24
747.909	8.39
748.089	8.7
748.269	8.34
748.449	9.47
748.629	10.03
748.809	9.48
748.989	10.14
749.169	10.18
749.349	9.5
749.529	8.74
749.709	10.03
749.889	9.88
750.068	8.84
750.248	8.33
750.428	7.68
750.608	7.21
750.788	7.58
750.967	6.65
751.147	7.43
751.327	8.38
751.507	8.52
751.686	8.73
751.866	6.78
752.046	7.73
752.225	7.8
752.405	8.74
752.585	9.48
752.764	9.61
752.944	11.59
753.123	12.49
753.303	11.74
753.482	11.73
753.662	11.71
753.841	13.61
754.021	13.28
754.2	14.36
754.38	14.67
754.559	15.78
754.739	14.77
754.918	12.95
755.097	13.27
755.277	13.66
755.456	14.58
755.635	15.68
755.815	14.28
755.994	14.28
756.173	14.17
756.352	14.28
756.532	12.75
756.711	13.22
756.89	14.51
757.069	13.2
757.248	13.61
757.427	12.53
757.607	11.2
757.786	11.32
757.965	11.38
758.144	10.3
758.323	10.09
758.502	11.41
758.681	12.16
758.86	10.75
759.039	12.15
759.218	11.37
759.397	11.86
759.576	12.35
759.755	12.45
759.934	13.44
760.113	13.46
760.291	13.43
760.47	13.09
760.649	12.74
760.828	13.46
761.007	12.98
761.186	12.35
761.364	13.21
761.543	12.56
761.722	13.59
761.901	13.37
762.079	13.82
762.258	13.39
762.437	13.05
762.615	13.14
762.794	13.11
762.972	13.11
763.151	13.48
763.33	12.88
763.508	13.46
763.687	13.46
763.865	13.48
764.044	13.26
764.222	13.18
764.401	13.4
764.579	13.14
764.758	13.05
764.936	12.46
765.114	12.73
765.293	12.78
765.471	12.86
765.65	12.76
765.828	12.12
766.006	11.82
766.184	11.36
766.363	10.97
766.541	12.48
766.719	13.77
766.898	15.68
767.076	15.58
767.254	16.88
767.432	16.08
767.61	15.59
767.788	17.27
767.967	17.98
768.145	18.53
768.323	18.7
768.501	16.95
768.679	17.24
768.857	15.11
769.035	15.01
769.213	14.65
769.391	13.94
769.569	13.81
769.747	11.79
769.925	11.22
770.103	10.64
770.281	10.33
770.459	11.72
770.636	9.05
770.814	10.26
770.992	12.67
771.17	10.08
771.348	11.2
771.525	10.86
771.703	11.04
771.881	12.1
772.059	13.15
772.236	12.39
772.414	10.87
772.592	14.68
772.769	15.92
772.947	13.76
773.125	16.73
773.302	17.9
773.48	19.18
773.657	19.13
773.835	18.39
774.013	17.22
774.19	19.86
774.368	21.55
774.545	19
774.723	17.94
774.9	16.27
775.077	12.67
775.255	13.43
775.432	12.23
775.61	13.33
775.787	12.3
775.964	10.81
776.142	9
776.319	7.3
776.496	8.5
776.674	7.08
776.851	9.83
777.028	11.7
777.205	9.39
777.382	9.7
777.56	8.72
777.737	10.47
777.914	12.1
778.091	12.52
778.268	12.2
778.445	14.13
778.622	13.92
778.8	12.78
778.977	12.41
779.154	11.6
779.331	12.34
779.508	14.3
779.685	13.97
779.862	13.49
780.038	13.75
780.215	14.67
780.392	10.9
780.569	9.7
780.746	7.95
780.923	8.01
781.1	7.4
781.277	6.96
781.453	5.51
781.63	2.93
781.807	1.97
781.984	2.81
782.16	-0.21
782.337	0.83
782.514	4.25
782.691	6.53
782.867	7.79
783.044	10.49
783.221	11.44
783.397	10.53
783.574	13.57
783.75	12.17
783.927	10.55
784.103	14.54
784.28	15.18
784.456	14.91
784.633	15.39
784.809	17.65
784.986	16.59
785.162	15.2
785.339	15.32
785.515	13.03
785.692	19.09
785.868	20.32
786.044	16.94
786.221	15.87
786.397	15.58
786.573	14.89
786.749	12.93
786.926	11.27
787.102	11.09
787.278	9.9
787.454	11.69
787.631	8.95
787.807	10.4
787.983	11.75
788.159	11.72
788.335	9.02
788.511	8.7
788.687	9.25
788.863	10.52
789.039	10.64
789.216	12.24
789.392	11.4
789.568	10.57
789.744	9.38
789.919	10.55
790.095	12.41
790.271	12.76
790.447	15.3
790.623	13.86
790.799	13.24
790.975	15.48
791.151	14.73
791.327	15.35
791.502	12.76
791.678	14.42
791.854	12.94
792.03	9.88
792.205	10.76
792.381	8.99
792.557	5.92
792.733	8.09
792.908	1.56
793.084	4.1
793.259	6.27
793.435	11.42
793.611	8.52
793.786	8.94
793.962	13.67
794.137	14.77
794.313	11.43
794.488	13.08
794.664	13.4
794.839	14.18
795.015	9.34
795.19	3.06
795.366	1.83
795.541	0.92
795.716	0.04
795.892	-2.66
796.067	-1.51
796.242	1.78
796.418	-0.65
796.593	-1.64
796.768	-0.52
796.944	3.15
797.119	6.25
797.294	8.44
797.469	6.62
797.644	5.54
797.82	8.23
797.995	9.52
798.17	8.15
798.345	13.98
798.52	12.2
798.695	14.07
798.87	14.65
799.045	14.93
799.22	12.93
799.395	19.41
799.57	20.41
799.745	17.06
799.92	17.75
800.095	18.98
800.27	16.13
800.445	19.66
800.62	19.57
800.795	19.04
800.97	19.61
801.145	22.09
801.319	19.52
801.494	21.2
801.669	21.49
801.844	17.88
802.018	14.93
802.193	17.4
802.368	11.59
802.543	9.33
802.717	10.63
802.892	10.65
803.067	2.01
803.241	0.95
803.416	2.95
803.59	2.49
803.765	2.98
803.94	5.26
804.114	5.7
804.289	12.67
804.463	15.81
804.638	14.38
804.812	17.29
804.986	20.66
805.161	21.84
805.335	20.96
805.51	20.91
805.684	20.7
805.858	20.44
806.033	13.08
806.207	12.74
806.381	13.54
806.556	13.91
806.73	12.33
806.904	12.53
807.078	12.64
807.253	10.93
807.427	11.71
807.601	11.68
807.775	9.99
807.949	13.45
808.123	11.51
808.298	6.65
808.472	9.11
808.646	8.47
808.82	11.75
808.994	12.41
809.168	11.47
809.342	11.46
809.516	9.62
809.69	11.35
809.864	13.78
810.038	13.15
810.212	16.77
810.385	15.13
810.559	17.54
810.733	17.11
810.907	14.01
811.081	16.3
811.255	16.86
811.428	20.29
811.602	21.47
811.776	22.61
811.95	21.54
812.123	19.1
812.297	21.38
812.471	16.36
812.644	14.29
812.818	16.55
812.992	17.13
813.165	15.9
813.339	16.51
813.512	18.57
813.686	14.03
813.86	15.63
814.033	13.85
814.207	12.56
814.38	14.53
814.554	13.32
814.727	14.01
814.9	12.14
815.074	17.94
815.247	16.98
815.421	20.42
815.594	23.36
815.767	20.86
815.941	24.13
816.114	19.69
816.287	18.44
816.46	22.02
816.634	20.48
816.807	17.86
816.98	17.11
817.153	16.82
817.327	10.34
817.5	10.65
817.673	6.64
817.846	3.62
818.019	3.27
818.192	6.35
818.365	5.31
818.538	5.71
818.711	8.7
818.884	5.34
819.057	4.43
819.23	3.67
819.403	4.83
819.576	10.43
819.749	12.2
819.922	13.35
820.095	12.05
820.268	13.52
820.441	13.71
820.614	13.35
820.786	14.78
820.959	15.65
821.132	18.31
821.305	16.61
821.477	16.41
821.65	17.54
821.823	17.33
821.996	17.28
822.168	16.48
822.341	15.91
822.514	16.32
822.686	14.7
822.859	14.49
823.031	13.96
823.204	14.64
823.376	15
823.549	14
823.722	13.46
823.894	13.31
824.067	12.82
824.239	12.44
824.411	11.4
824.584	13.17
824.756	13.06
824.929	13.2
825.101	12.73
825.273	12.95
825.446	14.78
825.618	15.3
825.79	15.67
825.963	15.66
826.135	16.93
826.307	16.89
826.479	16.39
826.652	16.24
826.824	15.49
826.996	15.1
827.168	13.96
827.34	12.65
827.512	12.54
827.684	13.35
827.856	14.22
828.029	13.06
828.201	14.75
828.373	14.57
828.545	16
828.717	16.24
828.889	16.71
829.061	17.82
829.232	18.52
829.404	19.77
829.576	18.48
829.748	20.27
829.92	21
830.092	18.95
830.264	18.95
830.436	17.52
830.607	16.65
830.779	17.71
830.951	15.16
831.123	12.34
831.294	9.94
831.466	10.37
831.638	7.86
831.809	5.63
831.981	8.56
832.153	9.06
832.324	12.17
832.496	13.78
832.667	14.48
832.839	19.03
833.011	22.04
833.182	22.13
833.354	22.56
833.525	21.85
833.697	23
833.868	20.95
834.039	21.35
834.211	20.77
834.382	21.41
834.554	22.1
834.725	21.75
834.896	19.9
835.068	22.23
835.239	20.32
835.41	20.19
835.581	20.28
835.753	22.5
835.924	20.9
836.095	18.08
836.266	18.96
836.438	18.49
836.609	14.8
836.78	15.24
836.951	13.43
837.122	13.04
837.293	9.28
837.464	9.74
837.635	6.86
837.806	9.89
837.977	10.6
838.148	7.8
838.319	4.95
838.49	8.58
838.661	10.55
838.832	10.35
839.003	12.82
839.174	20.2
839.345	21.64
839.516	21.5
839.687	18.32
839.857	20.19
840.028	21.22
840.199	22.76
840.37	24.16
840.54	20.5
840.711	22.83
840.882	20.8
841.053	20.36
841.223	21.35
841.394	23.17
841.564	22.29
841.735	17.94
841.906	18.21
842.076	13.65
842.247	8.81
842.417	12.65
842.588	5.23
842.758	9.11
842.929	6.83
843.099	-3.09
843.27	-9.77
843.44	-12.95
843.611	-4.37
843.781	-8.49
843.951	-12
844.122	-6.21
844.292	-8.55
844.462	-2.4
844.633	6.06
844.803	8.21
844.973	11.44
845.144	13.39
845.314	15.92
845.484	16.68
845.654	12.43
845.824	18.86
845.995	15.95
846.165	22.98
846.335	20.96
846.505	7.07
846.675	-1.1
846.845	-6
847.015	-5.52
847.185	-1.25
847.355	-14.34
847.525	-1.14
847.695	3.65
847.865	-5.59
848.035	-15.04
848.205	-18.1
848.375	-11.82
848.545	-16.48
848.715	-10.3
848.884	-12.47
849.054	-23.88
849.224	-0.57
849.394	-6.96
849.564	-17.86
849.733	-13.56
849.903	-7.75
850.073	-8.22
850.243	-13.67
850.412	-3.48
850.582	2.34
850.752	-4.6
850.921	0.95
851.091	-2.54
851.26	-10.36
851.43	-1.75
851.599	-10.23
851.769	-16.78
851.939	-20.22
852.108	-11.44
852.278	-20.27
852.447	-14.56
852.616	2.7
852.786	-9.53
852.955	-8.88
853.125	5.87
853.294	9.01
853.463	12.82
853.633	24.95
853.802	39.41
853.971	42.39
854.141	40.94
854.31	20.89
854.479	10.45
854.648	21.08
854.818	12.46
854.987	6.12
855.156	4.17
855.325	7.9
855.494	-4.79
855.663	-14.26
855.832	0.18
856.001	-7.71
856.171	9.54
856.34	14.27
856.509	3.58
856.678	2.95
856.847	-15.12
857.016	-19.49
857.185	-11.95
857.353	10.17
857.522	-12.88
857.691	-27.93
857.86	-16.67
858.029	-19.32
858.198	-17.23
858.367	-12.57
858.535	4.51
858.704	18.76
858.873	20.45
859.042	8.16
859.21	-5.98
859.379	-2.98
859.548	-8.95
859.717	-7.29
859.885	-12.69
860.054	-9.47
860.222	-26.05
860.391	-34.22
860.56	-34.81
860.728	-46.07
860.897	-32.23
861.065	-26.61
861.234	-37.79
861.402	-36.88
861.571	-36.19
861.739	-30.47
861.908	-28.59
862.076	-4.26
862.244	15.15
862.413	8.28
862.581	14.22
862.749	13.71
862.918	14.92
863.086	24.41
863.254	20.61
863.423	18.7
863.591	29.91
863.759	27.16
863.927	23.92
864.096	10.7
864.264	23.31
864.432	26
864.6	25.01
864.768	28.48
864.936	24.77
865.104	21.57
865.272	31.74
865.44	27.39
865.608	41.25
865.776	37.41
865.944	40.63
866.112	32.36
866.28	30.78
866.448	30.7
866.616	30.79
866.784	21.86
866.952	15.64
867.12	7.75
867.288	2.01
867.455	-4.64
867.623	1.82
867.791	-1.09
867.959	1.98
868.127	3.96
868.294	8.88
868.462	14.47
868.63	18.48
868.797	27.34
868.965	38.73
869.133	61.02
869.3	64.75
869.468	66.92
869.636	88.58
869.803	85.08
869.971	76.67
870.138	84.97
870.306	88.31
870.473	73.44
870.641	57.53
870.808	32.69
870.975	18.76
871.143	28.38
871.31	18.62
871.478	21.4
871.645	27.38
871.812	27.88
871.98	30.42
872.147	27.67
872.314	30.64
872.482	37.54
872.649	47.82
872.816	36.99
872.983	36.24
873.15	33.58
873.318	24.05
873.485	20.14
873.652	27.48
873.819	5.98
873.986	14.62
874.153	9.51
874.32	4.65
874.487	7.88
874.654	22.02
874.821	8.8
874.988	21.48
875.155	30.39
875.322	25.62
875.489	28.26
875.656	38.73
875.823	34.17
875.99	36.68
876.157	41.32
876.324	34.03
876.49	34.8
876.657	32.63
876.824	35.83
876.991	30.66
877.157	30.52
877.324	28.93
877.491	8.33
877.658	19.49
877.824	19.79
877.991	21.07
878.157	25.7
878.324	20.64
878.491	12.87
878.657	1.8
878.824	-6.78
878.99	3.2
879.157	10.05
879.323	17.24
879.49	15.35
879.656	32.14
879.823	24.02
879.989	31.62
880.156	33
880.322	47
880.488	40.51
880.655	46.19
880.821	43.62
880.987	40.55
881.154	37.53
881.32	48.23
881.486	36.52
881.652	28.6
881.819	18.17
881.985	17.69
882.151	19.93
882.317	19.39
882.483	15.89
882.649	12.42
882.816	15.16
882.982	18.65
883.148	10.75
883.314	9.99
883.48	11.35
883.646	11.99
883.812	9.22
883.978	11.75
884.144	13.5
884.31	15.12
884.476	17.97
884.642	14.55
884.807	11.71
884.973	13.59
885.139	12.64
885.305	14.37
885.471	14.24
885.637	18.47
885.802	16.13
885.968	12.65
886.134	11.51
886.3	13.14
886.465	11.95
886.631	13.96
886.797	16.94
886.962	22.08
887.128	24.24
887.293	24.28
887.459	26.59
887.625	29.56
887.79	31.91
887.956	32.46
888.121	27.31
888.287	35.49
888.452	39.01
888.618	35.32
888.783	35.17
