Data from 2938063_Reflection_1.txt Node
Date: Sun Jul 12 13:45:21 EDT 2015
User: robert
Spectrometer: USB4E03001
Autoset integration time: false
Trigger mode: 4
Integration Time (sec): 1.000000E-1
Scans to average: 10
Electric dark correction enabled: true
Nonlinearity correction enabled: false
Boxcar width: 5
Stray light correction enabled: false
XAxis mode: Wavelengths
Stop averaging: false
Number of Pixels in Spectrum: 3648
>>>>>Begin Spectral Data<<<<<
177.566	-251.92
177.785	542.75
178.005	95.78
178.225	-26.91
178.445	52.93
178.665	2.44
178.885	8.98
179.105	1891.11
179.324	270.68
179.544	1718.71
179.764	-271.22
179.984	83.35
180.204	25.81
180.423	38.33
180.643	-0.52
180.863	84.01
181.083	47.64
181.302	91.42
181.522	75.77
181.742	84.47
181.961	68.8
182.181	48.64
182.401	59.23
182.621	7.96
182.84	-133.19
183.06	-23.39
183.279	-167.3
183.499	-13.47
183.719	-22.11
183.938	-23.35
184.158	-60.51
184.377	-112.42
184.597	128.53
184.816	40.11
185.036	-40.46
185.256	-102.49
185.475	-40.83
185.695	24.5
185.914	30.72
186.134	40.39
186.353	34.71
186.572	42.44
186.792	68.38
187.011	76.14
187.231	118.29
187.45	135.96
187.67	141.05
187.889	195.81
188.108	1532.48
188.328	364.16
188.547	461.57
188.766	331.82
188.986	203.18
189.205	168.75
189.424	305.6
189.644	107.96
189.863	125.87
190.082	47.59
190.302	74.51
190.521	67.4
190.74	52.17
190.959	13.19
191.178	-30.81
191.398	-260.45
191.617	-301.36
191.836	-477.03
192.055	682.72
192.274	1206.34
192.494	1149.46
192.713	585.84
192.932	453.26
193.151	238.61
193.37	139.69
193.589	100
193.808	-92.33
194.027	15.78
194.246	43.6
194.465	-291.61
194.685	-133.74
194.904	-3952.94
195.123	394.05
195.342	-27.5
195.561	-27.33
195.78	-314.92
195.999	544.74
196.218	1059.88
196.436	-208.19
196.655	-495.95
196.874	-1474.02
197.093	-472.74
197.312	-1614.85
197.531	-536.61
197.75	-1035.81
197.969	5461.24
198.188	-124.17
198.407	-77.68
198.625	-54.03
198.844	-40.23
199.063	2.41
199.282	-79.16
199.501	7.6
199.719	-15.95
199.938	-47.19
200.157	2.87
200.376	18.86
200.594	17.39
200.813	-30.26
201.032	0.03
201.251	-34.24
201.469	-66.62
201.688	2.13
201.907	-15.04
202.125	9.17
202.344	-21.33
202.563	-27.06
202.781	-78.04
203	15.59
203.218	45.5
203.437	50.3
203.656	353.76
203.874	178.71
204.093	41.86
204.311	-4.72
204.53	25.09
204.748	-61.08
204.967	22.17
205.185	23
205.404	197.95
205.622	99.03
205.841	-9.31
206.059	-28.17
206.278	-72.29
206.496	104.45
206.715	79.12
206.933	94.22
207.151	128.15
207.37	107.64
207.588	188.39
207.806	163.73
208.025	122.44
208.243	61.51
208.461	65.38
208.68	60.83
208.898	132.23
209.116	68.15
209.335	145.09
209.553	222.19
209.771	-12.79
209.989	131.66
210.208	126.99
210.426	63.43
210.644	76.89
210.862	84.77
211.081	63.44
211.299	180.37
211.517	-41.82
211.735	346.28
211.953	114.36
212.171	20.59
212.39	203.22
212.608	174.22
212.826	125.25
213.044	174.4
213.262	186.55
213.48	126.69
213.698	-128.03
213.916	257.93
214.134	-129.41
214.352	-3865.82
214.57	-51.55
214.788	-183.88
215.006	-330.67
215.224	-3214.5
215.442	-60.04
215.66	-26.03
215.878	-65.16
216.096	-25.53
216.314	48.91
216.532	-61.43
216.75	1277.36
216.968	-21.12
217.185	-30.26
217.403	-126.17
217.621	-137.66
217.839	-100.78
218.057	-4.69
218.275	39.94
218.492	-10.19
218.71	10.34
218.928	48.26
219.146	50.39
219.363	12.12
219.581	-11.32
219.799	-67.62
220.017	11.15
220.234	-63.09
220.452	-5.54
220.67	87.34
220.887	94.8
221.105	147.37
221.323	163.58
221.54	131.19
221.758	183.71
221.976	149.39
222.193	134.91
222.411	90.39
222.629	710.38
222.846	1151.91
223.064	95.34
223.281	-108.17
223.499	-228.6
223.716	-140.44
223.934	-295.74
224.151	2208.54
224.369	-2958.82
224.586	-1278.6
224.804	-164.83
225.021	-28.94
225.239	14.62
225.456	12.58
225.674	11.32
225.891	1.63
226.108	19.24
226.326	27.45
226.543	41.95
226.76	39.95
226.978	32.02
227.195	23.19
227.413	16.17
227.63	8.42
227.847	10.05
228.064	9.12
228.282	12.26
228.499	13.56
228.716	10.83
228.934	9.99
229.151	8.1
229.368	7.64
229.585	12.26
229.802	16.96
230.02	15.33
230.237	16.7
230.454	21.73
230.671	22.12
230.888	22.85
231.105	21.89
231.323	16.87
231.54	21.22
231.757	24.25
231.974	24.58
232.191	24.54
232.408	27.93
232.625	25.62
232.842	16.5
233.059	18.6
233.276	7.92
233.493	18.09
233.71	27.75
233.927	29.56
234.144	32.82
234.361	27.03
234.578	24.15
234.795	29.63
235.012	26.5
235.229	22.24
235.446	22.63
235.663	27.34
235.879	20.08
236.096	16.47
236.313	13.07
236.53	8.2
236.747	7.1
236.964	11.53
237.181	1.13
237.397	5.92
237.614	12.06
237.831	12.41
238.048	2.43
238.264	14.56
238.481	18.95
238.698	19.8
238.915	26.73
239.131	31.24
239.348	25.1
239.565	27.2
239.781	24.99
239.998	21.88
240.215	20.19
240.431	20.2
240.648	18.14
240.865	14.73
241.081	15.9
241.298	14.93
241.514	16.11
241.731	16.09
241.947	15.2
242.164	13.88
242.38	14.88
242.597	13.26
242.814	17.85
243.03	17.08
243.246	19.27
243.463	18.82
243.679	16.17
243.896	15.73
244.112	16.69
244.329	16.01
244.545	18.93
244.762	16.91
244.978	20.56
245.194	13.22
245.411	12.48
245.627	12.26
245.843	13.45
246.06	13.82
246.276	11.95
246.492	10.57
246.709	11.42
246.925	10.88
247.141	11.56
247.357	10.12
247.574	11.73
247.79	11.94
248.006	12.05
248.222	11.85
248.439	12.48
248.655	15.4
248.871	17.3
249.087	19.97
249.303	21.07
249.519	20.56
249.736	20.35
249.952	22.74
250.168	23.36
250.384	21.12
250.6	22.74
250.816	22.62
251.032	19.45
251.248	15.56
251.464	15.7
251.68	15.24
251.896	17.86
252.112	19.48
252.328	19.11
252.544	18.91
252.76	19.85
252.976	16.58
253.192	17.62
253.408	15.24
253.624	18.27
253.84	17.79
254.056	15.95
254.272	14.39
254.487	14.29
254.703	11.64
254.919	12.53
255.135	12.41
255.351	13.41
255.567	17.98
255.782	17.28
255.998	18.25
256.214	14.83
256.43	16.76
256.646	19.2
256.861	18.67
257.077	17.34
257.293	11.41
257.508	12.64
257.724	12.23
257.94	8.39
258.155	9.59
258.371	8.53
258.587	10.22
258.802	10.72
259.018	11.27
259.234	11.68
259.449	12.31
259.665	14.06
259.88	13.43
260.096	12.65
260.312	12.9
260.527	12.89
260.743	12.98
260.958	12.09
261.174	12.05
261.389	10.89
261.605	9.06
261.82	9.9
262.036	8.11
262.251	9.64
262.466	9.55
262.682	9.93
262.897	10.78
263.113	9.75
263.328	12.12
263.543	11.81
263.759	14.11
263.974	17.46
264.189	15.45
264.405	18.03
264.62	16.43
264.835	17.7
265.051	18.12
265.266	18.11
265.481	18.03
265.696	16.09
265.912	17.12
266.127	16.35
266.342	17.19
266.557	16.09
266.773	15.4
266.988	14.07
267.203	14.8
267.418	12.66
267.633	11.56
267.848	11.8
268.064	10.92
268.279	12.72
268.494	13.22
268.709	13.67
268.924	15.26
269.139	15.94
269.354	17.51
269.569	15.96
269.784	16.91
269.999	15.52
270.214	15.22
270.429	17.26
270.644	12.31
270.859	10.59
271.074	8.08
271.289	6.9
271.504	6.87
271.719	6.4
271.934	8.8
272.149	7.74
272.363	10.99
272.578	12.57
272.793	10.69
273.008	11.88
273.223	11.82
273.438	14.26
273.653	15.16
273.867	16.4
274.082	17.36
274.297	15.73
274.512	18.37
274.726	16.98
274.941	15.22
275.156	16.88
275.371	15.91
275.585	16.7
275.8	15.88
276.015	15.12
276.229	14.68
276.444	12.35
276.659	14.46
276.873	14.47
277.088	12.86
277.302	12.41
277.517	12.68
277.732	14.81
277.946	14.21
278.161	13.09
278.375	13.5
278.59	12.82
278.804	14.53
279.019	12.51
279.233	11.99
279.448	14.37
279.662	14.54
279.877	14.52
280.091	15.51
280.306	17.12
280.52	15.45
280.735	14.47
280.949	15.58
281.163	14.99
281.378	15.88
281.592	15.36
281.806	14.62
282.021	14.57
282.235	12.75
282.449	12.65
282.664	13.99
282.878	14.84
283.092	15.07
283.307	13.28
283.521	11.95
283.735	12.18
283.949	13.73
284.164	13.9
284.378	14.36
284.592	17.16
284.806	16.15
285.02	12.84
285.234	14.28
285.449	13.49
285.663	13.49
285.877	14.49
286.091	15.4
286.305	13.84
286.519	12.21
286.733	12.8
286.947	10.79
287.161	10.78
287.375	12.26
287.589	11.34
287.803	13.24
288.017	10.93
288.231	11.99
288.445	11.78
288.659	11.39
288.873	13.45
289.087	12.05
289.301	14.69
289.515	15.26
289.729	13.42
289.943	11.81
290.157	11.58
290.371	14.2
290.584	12.71
290.798	11.28
291.012	11.84
291.226	9.21
291.44	10.2
291.654	9.94
291.867	9.87
292.081	10.94
292.295	12.68
292.509	11.96
292.722	14.14
292.936	15.39
293.15	15.62
293.364	15.79
293.577	17.6
293.791	17.7
294.005	16.9
294.218	16.28
294.432	18.33
294.645	18.79
294.859	20.18
295.073	20
295.286	21.78
295.5	21.96
295.713	21.91
295.927	22.5
296.14	20.87
296.354	18.89
296.568	18.62
296.781	16.86
296.994	16.12
297.208	14.81
297.421	15.51
297.635	13.3
297.848	13.26
298.062	13.97
298.275	13.32
298.489	12.68
298.702	14.21
298.915	13.9
299.129	14.48
299.342	15.35
299.555	14.36
299.769	11.14
299.982	13.79
300.195	14.14
300.409	13.73
300.622	14.82
300.835	18.03
301.048	17.75
301.262	17.38
301.475	17.47
301.688	18.19
301.901	20.04
302.115	20.36
302.328	17.84
302.541	19.87
302.754	19.92
302.967	18.75
303.18	17.61
303.393	18.05
303.607	20.29
303.82	19.5
304.033	16.24
304.246	17.73
304.459	16.68
304.672	15.89
304.885	15.82
305.098	14.41
305.311	15.6
305.524	13.46
305.737	11.94
305.95	12.71
306.163	13.12
306.376	15.57
306.589	14.81
306.802	17.44
307.015	21.44
307.228	20.26
307.44	19.99
307.653	19.53
307.866	22.48
308.079	22.63
308.292	21.72
308.505	20.66
308.718	20.89
308.93	20.96
309.143	21.06
309.356	19.62
309.569	18.38
309.781	19.42
309.994	20.41
310.207	19.23
310.42	20.76
310.632	20.34
310.845	21.57
311.058	20.08
311.27	19.92
311.483	18.91
311.696	18.21
311.908	20.26
312.121	21.06
312.333	20.49
312.546	19.62
312.759	19.33
312.971	18.19
313.184	16.55
313.396	15.85
313.609	16.27
313.821	16.48
314.034	16.08
314.246	14.3
314.459	12.78
314.671	13.46
314.884	14.45
315.096	13.21
315.309	13.79
315.521	15.21
315.733	16.09
315.946	15.09
316.158	13.48
316.371	11.69
316.583	11.11
316.795	10.95
317.008	8.46
317.22	9.71
317.432	10.03
317.644	11.03
317.857	12.12
318.069	12.06
318.281	12.98
318.494	14.19
318.706	15.53
318.918	15.38
319.13	15.3
319.342	13.99
319.555	12.57
319.767	13.05
319.979	14.05
320.191	14.82
320.403	15.64
320.615	11.91
320.827	10.63
321.039	10.47
321.252	12.25
321.464	10.82
321.676	13.36
321.888	13.8
322.1	14.76
322.312	13.92
322.524	11.64
322.736	11.53
322.948	13.02
323.16	15.76
323.372	16.62
323.584	15.86
323.796	17.14
324.007	17.51
324.219	18.49
324.431	17.04
324.643	17.71
324.855	19.47
325.067	20.38
325.279	22.09
325.491	23.67
325.702	22.98
325.914	22.17
326.126	21.21
326.338	21.68
326.55	20.72
326.761	20.8
326.973	19.83
327.185	19.55
327.396	19.45
327.608	18.13
327.82	16.12
328.032	14.88
328.243	15.9
328.455	18.82
328.666	18.61
328.878	18.64
329.09	20.61
329.301	20.03
329.513	19.74
329.725	18.6
329.936	19.4
330.148	19.62
330.359	21.67
330.571	21.78
330.782	21.24
330.994	22.42
331.205	23.89
331.417	23.28
331.628	24.82
331.84	22.32
332.051	22.47
332.262	24.31
332.474	24.33
332.685	25.31
332.897	25.68
333.108	25.81
333.319	23.98
333.531	22.99
333.742	22.9
333.953	23.72
334.165	25.09
334.376	26.07
334.587	24.81
334.799	23.85
335.01	22
335.221	21.25
335.432	20.07
335.644	19.28
335.855	19.03
336.066	19.86
336.277	20.1
336.488	21.01
336.7	20.07
336.911	19.62
337.122	20.31
337.333	22.49
337.544	24.22
337.755	24.29
337.966	24.71
338.177	26.09
338.388	25.46
338.599	24.73
338.811	23.71
339.022	25.09
339.233	25.8
339.444	26.41
339.655	26.36
339.866	25.37
340.076	25.65
340.287	26.55
340.498	26.99
340.709	27.35
340.92	27.93
341.131	28.2
341.342	27.04
341.553	26.91
341.764	25.49
341.975	25.07
342.185	24.92
342.396	26.84
342.607	26.83
342.818	27.23
343.029	27.17
343.239	26.54
343.45	26.74
343.661	27.96
343.872	27.39
344.082	28.12
344.293	28.42
344.504	28.62
344.714	28
344.925	27.88
345.136	26.85
345.346	26.17
345.557	25.81
345.768	26.37
345.978	24.83
346.189	25.76
346.399	26.49
346.61	25.34
346.821	26.11
347.031	25.61
347.242	26.67
347.452	25.29
347.663	24.93
347.873	25.58
348.084	24.86
348.294	26.59
348.504	25
348.715	23.01
348.925	23.87
349.136	23.7
349.346	23.51
349.557	23.92
349.767	25.09
349.977	25.93
350.188	25.93
350.398	26
350.608	25.21
350.819	25.99
351.029	25.97
351.239	26
351.449	24.88
351.66	24.9
351.87	23.43
352.08	23.21
352.29	24.88
352.501	24.94
352.711	25.59
352.921	26.66
353.131	26.99
353.341	27.83
353.552	27.67
353.762	29.71
353.972	29.66
354.182	30.23
354.392	30.58
354.602	28.54
354.812	27.99
355.022	27.55
355.232	26.48
355.442	26.24
355.652	26.15
355.862	26.49
356.072	24.82
356.282	25.25
356.492	25.29
356.702	24.72
356.912	24.89
357.122	26
357.332	26.89
357.542	26.43
357.752	26.46
357.962	27.77
358.171	27.8
358.381	28.02
358.591	26.97
358.801	26.56
359.011	26.36
359.221	26.46
359.43	25.84
359.64	25.38
359.85	27.34
360.06	27.27
360.269	26.07
360.479	25.1
360.689	26.25
360.899	26.46
361.108	27.24
361.318	27.78
361.528	28.14
361.737	28.29
361.947	28.41
362.156	27.71
362.366	27.65
362.576	28.32
362.785	28.66
362.995	27.33
363.204	27.46
363.414	26.57
363.623	26.46
363.833	26.74
364.042	27.2
364.252	26.81
364.461	27.21
364.671	27.73
364.88	27.68
365.09	28.26
365.299	28.63
365.509	28.8
365.718	28.91
365.927	28.19
366.137	26.98
366.346	26.89
366.555	26.26
366.765	25.88
366.974	25.53
367.183	24.19
367.393	23.57
367.602	23.87
367.811	24.33
368.021	24.73
368.23	25.68
368.439	26.16
368.648	25.81
368.857	26
369.067	25.75
369.276	24.78
369.485	26.03
369.694	25.6
369.903	25.38
370.112	24.89
370.321	23.86
370.531	23.95
370.74	23.65
370.949	22.91
371.158	22.8
371.367	22.65
371.576	23.64
371.785	22.9
371.994	23.65
372.203	23.72
372.412	23.14
372.621	23.29
372.83	22.62
373.039	22.83
373.248	23.11
373.457	23.12
373.666	22.75
373.874	21.71
374.083	21.8
374.292	20.95
374.501	20.49
374.71	20.71
374.919	21.4
375.128	21.54
375.336	21.1
375.545	21.25
375.754	21.56
375.963	21.57
376.171	21.87
376.38	21.35
376.589	21.31
376.798	21.26
377.006	21.5
377.215	21.14
377.424	20.37
377.632	20.54
377.841	20.08
378.05	19.58
378.258	20.01
378.467	20.19
378.675	20.32
378.884	19.75
379.093	19.88
379.301	20.12
379.51	20.53
379.718	21.16
379.927	21.58
380.135	21.35
380.344	22.33
380.552	22.03
380.761	21.99
380.969	22.46
381.177	23.5
381.386	23.47
381.594	23
381.803	22.29
382.011	22.28
382.219	22.42
382.428	22.66
382.636	21.45
382.845	21.66
383.053	21.71
383.261	21.47
383.469	20.95
383.678	20.82
383.886	20.51
384.094	20.37
384.302	19.96
384.511	19.64
384.719	20.01
384.927	20.81
385.135	20.26
385.343	20.27
385.552	20.17
385.76	20.23
385.968	20.78
386.176	21.18
386.384	21.56
386.592	21.88
386.8	21.93
387.008	21.66
387.216	21.25
387.424	21.47
387.633	20.81
387.841	20.77
388.049	20.9
388.257	20.71
388.465	20.26
388.672	19.96
388.88	20.4
389.088	20.13
389.296	20.06
389.504	19.74
389.712	19.86
389.92	19.95
390.128	19.93
390.336	19.98
390.544	19.3
390.751	19.62
390.959	19.6
391.167	18.76
391.375	18.38
391.583	18.26
391.79	18.58
391.998	18.26
392.206	18.58
392.414	18.59
392.621	18.45
392.829	18.54
393.037	18.37
393.244	18.05
393.452	18.17
393.66	18.66
393.867	18.6
394.075	18.33
394.283	18.46
394.49	18.31
394.698	18.36
394.905	18.21
395.113	18.17
395.32	18.13
395.528	18.28
395.735	18.5
395.943	18.23
396.15	18.44
396.358	18.34
396.565	17.92
396.773	17.7
396.98	17.87
397.188	18.09
397.395	18.26
397.602	18.92
397.81	19.12
398.017	19.04
398.225	19.17
398.432	19.09
398.639	19.46
398.847	19.9
399.054	20.23
399.261	20.05
399.468	19.92
399.676	20.04
399.883	19.57
400.09	19.27
400.297	19.52
400.505	19.58
400.712	19.59
400.919	19.87
401.126	19.69
401.333	19.86
401.54	19.83
401.748	19.7
401.955	19.7
402.162	19.7
402.369	19.98
402.576	19.78
402.783	19.66
402.99	19.72
403.197	19.44
403.404	19.87
403.611	19.78
403.818	20.11
404.025	20.63
404.232	20.57
404.439	20.23
404.646	19.99
404.853	20.03
405.06	20.09
405.267	20.08
405.474	19.96
405.681	19.75
405.887	19.56
406.094	19.13
406.301	18.85
406.508	18.89
406.715	19.01
406.922	19.06
407.128	19.21
407.335	19.72
407.542	19.59
407.749	19.71
407.955	19.55
408.162	19.49
408.369	19.81
408.575	19.84
408.782	20.05
408.989	20.25
409.195	20.24
409.402	19.63
409.609	19.47
409.815	19.46
410.022	19.49
410.228	19.55
410.435	19.65
410.642	19.43
410.848	19.3
411.055	19.05
411.261	19.13
411.468	19.27
411.674	19.7
411.881	19.44
412.087	19.3
412.294	19.25
412.5	19.4
412.706	19.72
412.913	19.69
413.119	19.55
413.326	19.33
413.532	19.04
413.738	19.04
413.945	18.82
414.151	18.8
414.357	19.19
414.564	19.07
414.77	18.92
414.976	18.57
415.182	18.74
415.389	18.72
415.595	18.64
415.801	18.66
416.007	18.7
416.214	18.92
416.42	19.08
416.626	18.91
416.832	18.96
417.038	19.04
417.244	19.03
417.45	19.04
417.657	19.12
417.863	19.2
418.069	19.25
418.275	18.89
418.481	18.8
418.687	18.64
418.893	18.61
419.099	18.56
419.305	18.67
419.511	18.71
419.717	18.62
419.923	18.6
420.129	18.68
420.335	18.71
420.541	18.96
420.746	18.82
420.952	18.74
421.158	18.81
421.364	18.99
421.57	18.8
421.776	18.83
421.982	18.9
422.187	18.95
422.393	18.98
422.599	18.91
422.805	19
423.01	19.11
423.216	19.17
423.422	19.11
423.628	18.94
423.833	18.98
424.039	18.85
424.245	18.62
424.45	18.53
424.656	18.4
424.862	18.37
425.067	18.13
425.273	18.1
425.478	18.02
425.684	18.07
425.889	18.11
426.095	18.1
426.301	18.12
426.506	18.2
426.712	18.33
426.917	18.41
427.123	18.43
427.328	18.55
427.533	18.55
427.739	18.44
427.944	18.5
428.15	18.21
428.355	18.2
428.561	18.1
428.766	18.25
428.971	17.97
429.177	17.83
429.382	17.81
429.587	17.79
429.793	17.82
429.998	18.07
430.203	17.72
430.408	17.85
430.614	17.79
430.819	17.9
431.024	17.73
431.229	18.06
431.434	18.1
431.64	17.94
431.845	18.05
432.05	17.91
432.255	17.79
432.46	17.94
432.665	17.97
432.87	17.92
433.076	18.01
433.281	18.1
433.486	18.06
433.691	17.94
433.896	18.14
434.101	17.96
434.306	17.98
434.511	18.15
434.716	18.09
434.921	18.13
435.126	18.29
435.331	18.08
435.535	17.99
435.74	17.9
435.945	18
436.15	18.24
436.355	18.42
436.56	18.46
436.765	18.36
436.97	18.56
437.174	18.48
437.379	18.42
437.584	18.64
437.789	18.7
437.993	18.62
438.198	18.66
438.403	18.42
438.608	18.48
438.812	18.45
439.017	18.45
439.222	18.26
439.426	18.29
439.631	18.15
439.836	18.17
440.04	18.21
440.245	18.18
440.45	18.14
440.654	18.08
440.859	18.02
441.063	18.03
441.268	17.98
441.472	17.95
441.677	17.82
441.881	17.91
442.086	17.89
442.29	17.83
442.495	17.61
442.699	17.65
442.904	17.54
443.108	17.53
443.312	17.41
443.517	17.21
443.721	17.3
443.925	17.33
444.13	17.25
444.334	17.09
444.538	17.16
444.743	17.43
444.947	17.52
445.151	17.66
445.356	17.62
445.56	17.77
445.764	17.87
445.968	17.74
446.173	17.9
446.377	17.96
446.581	18.05
446.785	17.98
446.989	17.88
447.193	17.82
447.398	17.7
447.602	17.79
447.806	17.66
448.01	17.61
448.214	17.67
448.418	17.51
448.622	17.58
448.826	17.54
449.03	17.49
449.234	17.47
449.438	17.27
449.642	17.21
449.846	17
450.05	16.98
450.254	17.2
450.458	17.14
450.662	17.15
450.866	16.99
451.069	17.13
451.273	17.21
451.477	17.34
451.681	17.61
451.885	17.86
452.089	18.09
452.292	18.26
452.496	17.96
452.7	17.95
452.904	17.99
453.107	18.06
453.311	17.83
453.515	17.72
453.719	17.55
453.922	17.31
454.126	17.06
454.33	16.99
454.533	16.75
454.737	16.8
454.94	16.8
455.144	16.89
455.348	16.75
455.551	16.97
455.755	16.97
455.958	17.2
456.162	17.29
456.365	17.36
456.569	16.96
456.772	17.22
456.976	17.33
457.179	17.48
457.383	17.42
457.586	17.45
457.79	17.46
457.993	17.42
458.196	17.21
458.4	17.12
458.603	17.19
458.807	17.64
459.01	17.48
459.213	17.43
459.417	17.35
459.62	17.23
459.823	17.13
460.026	16.92
460.23	17.02
460.433	17.01
460.636	17.12
460.839	17.12
461.042	16.8
461.246	16.92
461.449	16.9
461.652	16.81
461.855	16.88
462.058	16.94
462.261	17.09
462.464	16.95
462.668	17.12
462.871	17.07
463.074	17.03
463.277	16.99
463.48	16.93
463.683	16.88
463.886	17.07
464.089	17.03
464.292	17.3
464.495	17.05
464.698	17.23
464.901	17.18
465.104	17.29
465.306	17.14
465.509	17.4
465.712	17.36
465.915	17.5
466.118	17.33
466.321	17.34
466.524	17.3
466.726	17.49
466.929	17.4
467.132	17.47
467.335	17.31
467.538	17.64
467.74	17.47
467.943	17.42
468.146	17.36
468.348	17.49
468.551	17.55
468.754	17.4
468.956	17.4
469.159	17.54
469.362	17.64
469.564	17.61
469.767	17.44
469.969	17.56
470.172	17.58
470.375	17.74
470.577	17.74
470.78	17.9
470.982	18.03
471.185	18.04
471.387	18.04
471.59	18
471.792	17.99
471.995	17.96
472.197	17.84
472.399	17.86
472.602	17.71
472.804	17.53
473.007	17.38
473.209	17.3
473.411	17.4
473.614	17.3
473.816	17.35
474.018	17.23
474.22	17.41
474.423	17.52
474.625	17.49
474.827	17.49
475.03	17.7
475.232	17.87
475.434	17.83
475.636	17.65
475.838	17.51
476.04	17.42
476.243	17.51
476.445	17.2
476.647	17.01
476.849	17.09
477.051	17.11
477.253	17.06
477.455	16.92
477.657	17.04
477.859	16.96
478.061	17.13
478.263	17.19
478.465	17.13
478.667	17.27
478.869	17.41
479.071	17.19
479.273	17.02
479.475	17.11
479.677	17.09
479.879	16.91
480.081	17.07
480.283	16.99
480.485	17
480.686	17.14
480.888	17.24
481.09	17.39
481.292	17.47
481.494	17.69
481.695	17.6
481.897	17.64
482.099	17.68
482.301	17.71
482.502	17.83
482.704	17.74
482.906	17.65
483.107	17.65
483.309	17.58
483.511	17.54
483.712	17.48
483.914	17.48
484.115	17.42
484.317	17.46
484.519	17.39
484.72	17.31
484.922	17.28
485.123	17.34
485.325	17.32
485.526	17.27
485.728	17.29
485.929	17.34
486.131	17.34
486.332	17.34
486.534	17.34
486.735	17.45
486.936	17.54
487.138	17.54
487.339	17.49
487.541	17.5
487.742	17.49
487.943	17.5
488.144	17.44
488.346	17.39
488.547	17.35
488.748	17.31
488.95	17.22
489.151	17.12
489.352	17.17
489.553	17.16
489.755	17.11
489.956	17.15
490.157	17.11
490.358	17.17
490.559	17.26
490.76	17.42
490.961	17.35
491.163	17.34
491.364	17.42
491.565	17.35
491.766	17.37
491.967	17.38
492.168	17.43
492.369	17.38
492.57	17.33
492.771	17.27
492.972	17.24
493.173	17.35
493.374	17.36
493.575	17.19
493.776	17.19
493.976	17.12
494.177	17.11
494.378	17.04
494.579	17.27
494.78	17.3
494.981	17.43
495.182	17.5
495.382	17.47
495.583	17.46
495.784	17.66
495.985	17.57
496.185	17.7
496.386	17.71
496.587	17.63
496.788	17.48
496.988	17.59
497.189	17.51
497.39	17.39
497.59	17.31
497.791	17.23
497.992	17.24
498.192	17.34
498.393	17.32
498.593	17.33
498.794	17.49
498.994	17.5
499.195	17.44
499.395	17.29
499.596	17.31
499.796	17.26
499.997	17.37
500.197	17.3
500.398	17.43
500.598	17.37
500.799	17.33
500.999	17.12
501.199	17.13
501.4	17.32
501.6	17.44
501.801	17.51
502.001	17.64
502.201	17.74
502.402	17.65
502.602	17.49
502.802	17.48
503.002	17.62
503.203	17.73
503.403	17.87
503.603	17.53
503.803	17.74
504.003	17.67
504.204	17.83
504.404	17.83
504.604	17.91
504.804	18.09
505.004	18.13
505.204	18.06
505.404	18.07
505.604	18.02
505.804	18.34
506.005	18.38
506.205	18.31
506.405	18.23
506.605	18.31
506.805	18.36
507.005	18.42
507.204	18.55
507.404	18.62
507.604	18.72
507.804	18.6
508.004	18.39
508.204	18.22
508.404	18.36
508.604	18.24
508.804	18.19
509.003	18.26
509.203	18.14
509.403	18.17
509.603	18.14
509.803	18.13
510.002	18.24
510.202	18.39
510.402	18.32
510.602	18.3
510.801	18.41
511.001	18.4
511.201	18.4
511.4	18.46
511.6	18.34
511.8	18.28
511.999	18.31
512.199	18.27
512.398	18.27
512.598	18.39
512.797	18.33
512.997	18.21
513.197	18.21
513.396	18.19
513.596	18.17
513.795	18.24
513.994	18.3
514.194	18.27
514.393	18.31
514.593	18.32
514.792	18.22
514.992	18.41
515.191	18.5
515.39	18.5
515.59	18.39
515.789	18.46
515.988	18.46
516.188	18.52
516.387	18.49
516.586	18.51
516.786	18.42
516.985	18.6
517.184	18.48
517.383	18.45
517.582	18.47
517.782	18.56
517.981	18.59
518.18	18.72
518.379	18.59
518.578	18.58
518.777	18.54
518.976	18.65
519.176	18.61
519.375	18.63
519.574	18.75
519.773	18.71
519.972	18.75
520.171	18.7
520.37	18.6
520.569	18.74
520.768	18.78
520.967	18.86
521.166	18.89
521.365	18.9
521.564	19.02
521.762	19.04
521.961	19.14
522.16	19.13
522.359	19.2
522.558	19.34
522.757	19.32
522.956	19.42
523.154	19.57
523.353	19.59
523.552	19.55
523.751	19.6
523.949	19.47
524.148	19.31
524.347	19.38
524.546	19.28
524.744	19.18
524.943	19.13
525.142	19.13
525.34	19.08
525.539	19.04
525.737	18.99
525.936	18.93
526.135	18.93
526.333	19.18
526.532	19.24
526.73	19.3
526.929	19.35
527.127	19.58
527.326	19.63
527.524	19.76
527.723	19.8
527.921	19.89
528.12	19.9
528.318	19.96
528.516	19.87
528.715	19.86
528.913	19.89
529.112	19.85
529.31	19.76
529.508	19.75
529.707	19.57
529.905	19.54
530.103	19.59
530.301	19.69
530.5	19.64
530.698	19.68
530.896	19.73
531.094	19.75
531.293	19.83
531.491	19.92
531.689	19.87
531.887	20.12
532.085	20.19
532.283	20.14
532.481	20.12
532.68	20.23
532.878	20.24
533.076	20.19
533.274	20.21
533.472	20.23
533.67	20.15
533.868	20.23
534.066	20.22
534.264	20.23
534.462	20.27
534.66	20.32
534.858	20.33
535.056	20.39
535.253	20.43
535.451	20.42
535.649	20.44
535.847	20.52
536.045	20.63
536.243	20.59
536.441	20.66
536.638	20.69
536.836	20.64
537.034	20.72
537.232	20.77
537.43	20.77
537.627	20.82
537.825	20.76
538.023	20.92
538.22	20.76
538.418	20.79
538.616	20.71
538.813	20.72
539.011	20.83
539.209	20.84
539.406	20.76
539.604	20.75
539.801	20.73
539.999	20.87
540.196	20.68
540.394	20.9
540.591	20.94
540.789	21.07
540.986	21.07
541.184	20.97
541.381	21.08
541.579	21.18
541.776	21.21
541.974	21.27
542.171	21.3
542.368	21.48
542.566	21.43
542.763	21.5
542.96	21.49
543.158	21.57
543.355	21.58
543.552	21.34
543.75	21.28
543.947	21.36
544.144	21.38
544.341	21.53
544.539	21.44
544.736	21.56
544.933	21.65
545.13	21.67
545.327	21.7
545.524	21.86
545.722	22.06
545.919	22.11
546.116	22.05
546.313	21.96
546.51	21.89
546.707	21.9
546.904	21.88
547.101	21.78
547.298	21.75
547.495	21.73
547.692	21.76
547.889	21.88
548.086	21.85
548.283	22
548.48	22.33
548.677	22.17
548.874	22.32
549.07	22.29
549.267	22.37
549.464	22.37
549.661	22.33
549.858	22.28
550.055	22.33
550.251	22.27
550.448	22.37
550.645	22.06
550.842	22.19
551.038	22.24
551.235	22.22
551.432	22.24
551.628	22.42
551.825	22.73
552.022	22.83
552.218	22.88
552.415	23.14
552.612	23.04
552.808	23.25
553.005	23.33
553.201	23.27
553.398	23.39
553.594	23.32
553.791	23.24
553.987	22.95
554.184	22.92
554.38	22.72
554.577	22.79
554.773	22.8
554.97	22.71
555.166	22.74
555.362	22.88
555.559	22.96
555.755	23.2
555.952	23.4
556.148	23.48
556.344	23.65
556.541	23.91
556.737	23.96
556.933	23.87
557.129	23.93
557.326	24.04
557.522	24.23
557.718	24.39
557.914	24.52
558.11	24.51
558.307	24.52
558.503	24.52
558.699	24.53
558.895	24.54
559.091	24.74
559.287	24.85
559.483	24.85
559.679	24.61
559.876	24.4
560.072	24.34
560.268	24.45
560.464	24.58
560.66	24.46
560.856	24.28
561.052	24.29
561.247	24.27
561.443	24.12
561.639	24.05
561.835	24.12
562.031	24.14
562.227	23.99
562.423	23.96
562.619	24.06
562.815	24.19
563.01	24.36
563.206	24.38
563.402	24.67
563.598	24.82
563.793	24.87
563.989	24.91
564.185	25.17
564.381	25.51
564.576	25.46
564.772	25.59
564.968	25.73
565.163	25.83
565.359	26.04
565.555	25.82
565.75	25.81
565.946	25.93
566.141	26.03
566.337	25.85
566.532	25.8
566.728	25.86
566.923	25.72
567.119	25.68
567.314	25.9
567.51	25.73
567.705	25.83
567.901	26.02
568.096	25.85
568.292	25.73
568.487	25.9
568.682	25.77
568.878	25.64
569.073	25.75
569.268	25.74
569.464	25.44
569.659	25.32
569.854	25.3
570.05	25.08
570.245	25.33
570.44	25.41
570.635	25.43
570.831	25.33
571.026	25.54
571.221	25.52
571.416	25.41
571.611	25.29
571.806	25.43
572.002	25.57
572.197	25.88
572.392	25.88
572.587	25.88
572.782	25.78
572.977	25.89
573.172	25.92
573.367	25.98
573.562	26.3
573.757	26.58
573.952	26.53
574.147	26.54
574.342	26.4
574.537	26.47
574.732	26.47
574.927	26.55
575.121	26.87
575.316	26.89
575.511	26.88
575.706	26.73
575.901	26.58
576.096	26.71
576.29	26.64
576.485	26.66
576.68	26.49
576.875	26.53
577.069	26.68
577.264	26.47
577.459	26.44
577.654	26.59
577.848	26.54
578.043	26.78
578.238	27.04
578.432	27.26
578.627	27.21
578.821	27.41
579.016	27.32
579.21	27.38
579.405	27.43
579.6	27.64
579.794	27.44
579.989	27.67
580.183	28.05
580.378	27.72
580.572	27.72
580.766	27.85
580.961	27.76
581.155	27.8
581.35	27.83
581.544	27.84
581.738	27.58
581.933	27.64
582.127	27.5
582.321	27.12
582.516	27.2
582.71	27.03
582.904	26.85
583.099	26.7
583.293	27.05
583.487	26.97
583.681	26.99
583.875	26.94
584.07	27.05
584.264	26.94
584.458	26.76
584.652	26.88
584.846	26.94
585.04	27.12
585.234	27.24
585.428	27.2
585.623	27.11
585.817	27.12
586.011	27.25
586.205	27.24
586.399	27.23
586.593	27.55
586.787	27.21
586.981	27.08
587.174	27.22
587.368	27.28
587.562	27.28
587.756	27.44
587.95	27.43
588.144	27.66
588.338	27.7
588.532	27.79
588.725	27.67
588.919	27.83
589.113	27.97
589.307	27.76
589.501	27.9
589.694	28
589.888	27.77
590.082	27.84
590.275	27.55
590.469	27.58
590.663	27.6
590.856	27.65
591.05	27.74
591.244	27.77
591.437	27.94
591.631	27.95
591.824	27.86
592.018	28
592.212	28.09
592.405	28.17
592.599	28.21
592.792	28.46
592.986	28.31
593.179	28.39
593.372	28.43
593.566	28.36
593.759	28.23
593.953	28.06
594.146	28.08
594.339	27.89
594.533	28.01
594.726	27.92
594.92	27.71
595.113	27.79
595.306	27.78
595.499	27.79
595.693	28.01
595.886	27.91
596.079	27.99
596.272	27.9
596.466	27.89
596.659	27.91
596.852	27.84
597.045	28.06
597.238	28.07
597.431	28.17
597.624	28.27
597.818	28.14
598.011	28.37
598.204	28.39
598.397	28.62
598.59	28.81
598.783	28.59
598.976	28.67
599.169	28.58
599.362	28.6
599.555	28.39
599.748	28.26
599.941	28.03
600.134	27.85
600.326	27.62
600.519	27.68
600.712	27.51
600.905	27.9
601.098	27.91
601.291	27.9
601.483	28.04
601.676	28.33
601.869	28.26
602.062	28.45
602.255	28.59
602.447	28.78
602.64	28.81
602.833	28.58
603.025	28.41
603.218	28.44
603.411	28.62
603.603	28.5
603.796	28.18
603.989	28.21
604.181	28.29
604.374	28.14
604.566	28.26
604.759	28.26
604.951	28.44
605.144	28.4
605.336	28.18
605.529	28.29
605.721	28.38
605.914	28.64
606.106	28.72
606.299	28.6
606.491	28.74
606.683	28.57
606.876	28.26
607.068	28.48
607.26	28.54
607.453	28.98
607.645	28.56
607.837	28.57
608.03	28.55
608.222	28.71
608.414	28.89
608.606	28.79
608.799	28.79
608.991	29.02
609.183	28.83
609.375	28.93
609.567	28.93
609.759	29.05
609.952	28.76
610.144	28.68
610.336	28.59
610.528	28.38
610.72	28.46
610.912	28.37
611.104	28.29
611.296	28.3
611.488	28.28
611.68	28.02
611.872	27.89
612.064	28.09
612.256	27.9
612.448	27.91
612.64	28.03
612.832	27.83
613.023	28.09
613.215	28.15
613.407	28.26
613.599	28.02
613.791	28.03
613.983	28.17
614.174	28.1
614.366	28.3
614.558	28.18
614.75	28.14
614.941	28.47
615.133	28.4
615.325	28.42
615.516	28.5
615.708	28.96
615.9	29.3
616.091	29.25
616.283	29.26
616.475	29.34
616.666	29.43
616.858	29.57
617.049	29.5
617.241	29.54
617.432	29.6
617.624	29.49
617.815	29.13
618.007	28.91
618.198	28.83
618.39	29
618.581	28.72
618.773	28.44
618.964	28.26
619.155	28
619.347	27.94
619.538	27.85
619.729	28.04
619.921	27.97
620.112	28.28
620.303	28.2
620.494	28.39
620.686	29.01
620.877	29.38
621.068	29.73
621.259	29.95
621.451	29.99
621.642	30.04
621.833	29.86
622.024	30.13
622.215	29.81
622.406	30.13
622.597	29.94
622.788	29.57
622.98	29.48
623.171	28.97
623.362	28.87
623.553	28.79
623.744	28.7
623.935	28.69
624.126	28.65
624.317	28.72
624.508	28.42
624.698	28.27
624.889	28.15
625.08	27.76
625.271	27.97
625.462	28.34
625.653	28.31
625.844	28.31
626.034	28.18
626.225	28.37
626.416	28.28
626.607	28.5
626.798	28.7
626.988	28.8
627.179	28.93
627.37	28.83
627.56	28.68
627.751	28.7
627.942	28.77
628.132	28.84
628.323	28.59
628.514	28.64
628.704	28.8
628.895	28.73
629.085	28.69
629.276	28.97
629.466	29.16
629.657	29.47
629.847	29.55
630.038	29.2
630.228	29.02
630.419	29.18
630.609	29.18
630.8	28.97
630.99	28.95
631.181	28.89
631.371	28.66
631.561	28.63
631.752	28.47
631.942	28.39
632.132	28.53
632.323	29
632.513	28.98
632.703	28.92
632.893	29.18
633.084	29.13
633.274	29.18
633.464	29.4
633.654	29.45
633.844	29.12
634.034	29.06
634.225	29.41
634.415	28.93
634.605	28.94
634.795	28.93
634.985	28.51
635.175	28.66
635.365	29.02
635.555	29.14
635.745	29.1
635.935	29.11
636.125	29.12
636.315	28.77
636.505	29.18
636.695	29.33
636.885	29.3
637.075	29.24
637.265	29.07
637.455	28.49
637.644	28.19
637.834	28.29
638.024	28.29
638.214	28.52
638.404	28.41
638.593	28.1
638.783	28.08
638.973	28
639.163	28.29
639.352	28.32
639.542	28.62
639.732	28.51
639.921	28.3
640.111	28.62
640.301	28.64
640.49	28.75
640.68	28.98
640.87	28.5
641.059	28.83
641.249	28.66
641.438	28.98
641.628	28.94
641.817	28.69
642.007	28.89
642.196	28.78
642.386	28.98
642.575	28.82
642.764	28.39
642.954	28.5
643.143	28.25
643.333	28.05
643.522	27.73
643.711	27.62
643.901	28.15
644.09	28.19
644.279	28.07
644.469	27.76
644.658	27.87
644.847	28.29
645.036	28.49
645.226	28.87
645.415	29.26
645.604	29.4
645.793	29.4
645.982	29.38
646.171	29.56
646.361	29.82
646.55	29.72
646.739	29.99
646.928	29.96
647.117	29.98
647.306	29.68
647.495	29.57
647.684	29.2
647.873	29.32
648.062	28.86
648.251	28.5
648.44	28.38
648.629	28.71
648.818	28.51
649.007	28.6
649.196	28.67
649.384	28.87
649.573	28.98
649.762	28.9
649.951	29.13
650.14	29.21
650.328	29.4
650.517	29.28
650.706	29.1
650.895	29.55
651.083	29.38
651.272	29.72
651.461	29.62
651.65	29.53
651.838	29.82
652.027	29.67
652.216	30.12
652.404	29.72
652.593	29.77
652.781	29.49
652.97	29.29
653.158	29.84
653.347	29.35
653.535	29.36
653.724	29.33
653.912	29.87
654.101	30.05
654.289	30.03
654.478	30.2
654.666	30.31
654.855	30.5
655.043	30.14
655.231	30.03
655.42	30.13
655.608	30.15
655.796	30.21
655.985	29.5
656.173	29.49
656.361	29.25
656.55	29.54
656.738	29.51
656.926	29.54
657.114	29.77
657.302	29.34
657.491	29.32
657.679	29.47
657.867	29.47
658.055	29.25
658.243	29.47
658.431	29.68
658.619	29
658.807	29.24
658.996	29.08
659.184	29.19
659.372	28.83
659.56	28.83
659.748	28.79
659.936	28.71
660.124	28.98
660.311	28.67
660.499	28.63
660.687	28.95
660.875	28.66
661.063	28.45
661.251	28.34
661.439	29.07
661.627	29.11
661.814	29.09
662.002	28.83
662.19	29.05
662.378	28.98
662.565	28.91
662.753	29.25
662.941	29.69
663.129	29.84
663.316	30.03
663.504	29.59
663.692	29.93
663.879	29.65
664.067	29.81
664.254	29.75
664.442	30.11
664.63	30.44
664.817	30.16
665.005	29.8
665.192	30.72
665.38	30.19
665.567	30.49
665.755	29.62
665.942	30.2
666.13	30.51
666.317	30.38
666.504	29.7
666.692	29.69
666.879	29.86
667.067	29.91
667.254	29.56
667.441	30.04
667.629	29.88
667.816	30.47
668.003	30.03
668.19	30.1
668.378	30.13
668.565	30.69
668.752	30.5
668.939	30.56
669.127	30.12
669.314	29.95
669.501	29.92
669.688	29.73
669.875	29.18
670.062	29.44
670.249	29.29
670.436	29.17
670.623	28.82
670.81	28.87
670.997	29.25
671.184	29.48
671.371	29.56
671.558	29.43
671.745	29.89
671.932	30.37
672.119	30.42
672.306	30.24
672.493	29.98
672.68	30.55
672.867	30.8
673.054	30.48
673.24	30.28
673.427	30.1
673.614	29.91
673.801	29.79
673.988	29.65
674.174	29.69
674.361	29.69
674.548	30.3
674.734	29.74
674.921	29.28
675.108	29.2
675.294	29.78
675.481	30.01
675.668	30.14
675.854	29.94
676.041	29.65
676.227	29.15
676.414	30.06
676.601	29.9
676.787	30.13
676.974	30.21
677.16	30.19
677.347	29.93
677.533	30.17
677.719	30.48
677.906	30.73
678.092	30.92
678.279	30.93
678.465	30.32
678.651	30.54
678.838	30.5
679.024	29.97
679.21	29.77
679.397	29.9
679.583	29.4
679.769	28.63
679.955	28.49
680.142	28.89
680.328	29.04
680.514	28.84
680.7	28.67
680.886	28.53
681.073	28.59
681.259	28.85
681.445	28.69
681.631	29
681.817	29.57
682.003	29.87
682.189	29.58
682.375	30.05
682.561	30.17
682.747	30.25
682.933	30.22
683.119	30.35
683.305	30.06
683.491	30.31
683.677	30.24
683.863	30.07
684.049	29.95
684.235	29.82
684.42	29.11
684.606	29.32
684.792	29.25
684.978	29.43
685.164	29.72
685.349	29.78
685.535	29.9
685.721	29.62
685.907	29.94
686.092	29.72
686.278	29.83
686.464	29.83
686.649	29.67
686.835	29.95
687.021	30.13
687.206	29.89
687.392	30.21
687.577	29.95
687.763	30.17
687.948	30.47
688.134	30.6
688.319	30.62
688.505	30.8
688.69	30.66
688.876	30.51
689.061	30.45
689.247	30.65
689.432	30.02
689.618	29.83
689.803	29.66
689.988	29.69
690.174	29.74
690.359	29.75
690.544	29.72
690.73	29.83
690.915	29.79
691.1	29.54
691.285	29.18
691.471	29.32
691.656	29.81
691.841	30.25
692.026	29.63
692.211	29.93
692.396	30.17
692.582	30.27
692.767	30.37
692.952	29.78
693.137	29.88
693.322	30.13
693.507	30.62
693.692	30.15
693.877	29.43
694.062	29.43
694.247	29.13
694.432	28.64
694.617	28.76
694.802	29.1
694.987	29.59
695.172	29.31
695.357	30.27
695.541	30.18
695.726	30.53
695.911	31.26
696.096	31.79
696.281	31.12
696.466	31.52
696.65	31.02
696.835	30.28
697.02	30.75
697.204	30.9
697.389	30.26
697.574	30.05
697.759	29.85
697.943	29.33
698.128	29.14
698.312	29.92
698.497	29.83
698.682	29.87
698.866	30.25
699.051	29.98
699.235	30.03
699.42	30.29
699.604	30.56
699.789	30.5
699.973	30.71
700.158	30.97
700.342	30.48
700.527	30.29
700.711	30.69
700.895	30.44
701.08	30.19
701.264	30.08
701.448	29.95
701.633	29.02
701.817	29.22
702.001	29.48
702.186	28.76
702.37	29.07
702.554	29.88
702.738	29.37
702.923	29.77
703.107	29.63
703.291	29.7
703.475	29.77
703.659	30.53
703.843	30.43
704.027	30.25
704.212	30.89
704.396	30.52
704.58	29.92
704.764	29.51
704.948	28.76
705.132	28.86
705.316	28.97
705.5	28.66
705.684	28.89
705.868	28.62
706.052	28.4
706.235	27.54
706.419	26.94
706.603	27.51
706.787	28.78
706.971	29.74
707.155	29.15
707.339	29.13
707.522	28.66
707.706	28.41
707.89	28.55
708.074	29.29
708.257	29.57
708.441	30.25
708.625	29.83
708.808	29.62
708.992	28.82
709.176	29.57
709.359	29.86
709.543	29.41
709.727	30.02
709.91	29.68
710.094	29.49
710.277	29.2
710.461	29.3
710.644	28.89
710.828	28.47
711.011	28.66
711.195	28.53
711.378	28.2
711.562	28.88
711.745	28.07
711.928	28.64
712.112	27.95
712.295	28.6
712.478	28.69
712.662	29.08
712.845	28.85
713.028	29.42
713.212	29.82
713.395	30.19
713.578	30.57
713.761	31.1
713.945	31.1
714.128	31.62
714.311	31.21
714.494	31.23
714.677	30.83
714.86	30.57
715.043	30.71
715.227	29.81
715.41	29.21
715.593	28.7
715.776	27.75
715.959	28.1
716.142	27.98
716.325	28.34
716.508	28.21
716.691	28.17
716.874	28.37
717.057	27.38
717.239	27.79
717.422	27.86
717.605	28.09
717.788	28.55
717.971	28.01
718.154	28.01
718.337	27.08
718.519	27.08
718.702	28.38
718.885	28.16
719.068	28.76
719.25	29.17
719.433	29.59
719.616	29.8
719.798	30.5
719.981	29.81
720.164	30.49
720.346	32.11
720.529	32.34
720.712	30.6
720.894	31.1
721.077	30.29
721.259	29.94
721.442	29.19
721.624	29.31
721.807	29.11
721.989	29.56
722.172	28.78
722.354	28.23
722.537	28.85
722.719	28.77
722.901	28.11
723.084	28.95
723.266	29.19
723.448	30.4
723.631	30.19
723.813	30.25
723.995	29.56
724.178	29.34
724.36	29.39
724.542	28.93
724.724	29.75
724.907	30.59
725.089	31.18
725.271	31.8
725.453	32.04
725.635	31.51
725.817	31.8
725.999	32.59
726.181	33.32
726.364	33.53
726.546	32.47
726.728	32.89
726.91	32.57
727.092	32.11
727.274	31.35
727.456	30.21
727.638	31.25
727.819	31.78
728.001	31.76
728.183	31.18
728.365	30.99
728.547	31.93
728.729	31.8
728.911	32.16
729.093	32.26
729.274	32.93
729.456	32.7
729.638	31.85
729.82	31.16
730.001	31.78
730.183	31.55
730.365	31.28
730.546	31.28
730.728	31.16
730.91	31.01
731.091	30.23
731.273	30.21
731.455	30.97
731.636	30.42
731.818	30.22
731.999	28.72
732.181	29.26
732.362	29.83
732.544	29.48
732.725	28.99
732.907	29.05
733.088	28.91
733.27	28.32
733.451	28.07
733.633	29.83
733.814	29.81
733.995	31.02
734.177	30.23
734.358	28.78
734.539	28.82
734.721	30.08
734.902	29.9
735.083	30.7
735.264	30.35
735.446	30.66
735.627	30.02
735.808	29.51
735.989	28.34
736.17	28.28
736.351	29.99
736.533	30.57
736.714	28.68
736.895	27.87
737.076	27.6
737.257	28.05
737.438	29.2
737.619	27.23
737.8	27.85
737.981	28.35
738.162	28.42
738.343	28.06
738.524	27.14
738.705	26.86
738.886	27.76
739.067	27.84
739.247	28.06
739.428	26.68
739.609	28.37
739.79	29.45
739.971	29.08
740.151	29.6
740.332	28.99
740.513	29.47
740.694	31.68
740.874	31.81
741.055	32.16
741.236	31.19
741.417	32.23
741.597	31.07
741.778	30.26
741.958	31.51
742.139	31.65
742.32	31.47
742.5	30.9
742.681	29.61
742.861	29.05
743.042	29.9
743.222	31.12
743.403	30.99
743.583	33.91
743.764	34.15
743.944	34.47
744.124	34.25
744.305	33.95
744.485	35.19
744.666	35.01
744.846	35.38
745.026	33.29
745.207	33.03
745.387	31.65
745.567	30.33
745.747	29.8
745.928	29.35
746.108	29.07
746.288	29.27
746.468	28.11
746.648	29.06
746.829	29.01
747.009	30.59
747.189	29.44
747.369	29.85
747.549	28.05
747.729	27.79
747.909	27.59
748.089	28.26
748.269	28.46
748.449	26.94
748.629	26.09
748.809	25.73
748.989	25
749.169	24.56
749.349	23.21
749.529	24.26
749.709	24.92
749.889	26
750.068	24.68
750.248	25.17
750.428	27.35
750.608	27.64
750.788	29.25
750.967	28.28
751.147	29.82
751.327	31.19
751.507	30.75
751.686	29.82
751.866	29.23
752.046	30.61
752.225	30.1
752.405	28.77
752.585	28.32
752.764	27.61
752.944	28.03
753.123	28.46
753.303	28.11
753.482	28.2
753.662	27.91
753.841	26.87
754.021	27.12
754.2	27.11
754.38	28.21
754.559	29.29
754.739	29.54
754.918	30.37
755.097	30.24
755.277	30.64
755.456	31.08
755.635	31.36
755.815	31.17
755.994	29.59
756.173	30.03
756.352	29.77
756.532	28.1
756.711	27.42
756.89	26.44
757.069	26.85
757.248	25.94
757.427	26.22
757.607	26.64
757.786	28.83
757.965	29.59
758.144	29.96
758.323	30.2
758.502	31.47
758.681	31.34
758.86	32.31
759.039	31.48
759.218	32.66
759.397	32.72
759.576	33.1
759.755	32.69
759.934	32.76
760.113	31.82
760.291	32.13
760.47	32.44
760.649	33.17
760.828	33.69
761.007	32.66
761.186	31.79
761.364	29.64
761.543	28.91
761.722	27.41
761.901	28.6
762.079	29.62
762.258	30.52
762.437	30.37
762.615	29.83
762.794	30.14
762.972	30.79
763.151	30.43
763.33	31.3
763.508	32.23
763.687	32.58
763.865	32.68
764.044	32.59
764.222	31.53
764.401	31.9
764.579	31.91
764.758	30.86
764.936	30.69
765.114	30.47
765.293	31.03
765.471	30.97
765.65	31.27
765.828	31.14
766.006	31.32
766.184	32.59
766.363	31.08
766.541	31.09
766.719	31.21
766.898	30.82
767.076	31.61
767.254	30.55
767.432	30.15
767.61	30.47
767.788	28.86
767.967	28.62
768.145	27.08
768.323	27.3
768.501	28.49
768.679	28.16
768.857	29.28
769.035	29.85
769.213	29.95
769.391	29.41
769.569	26.85
769.747	28.41
769.925	26.69
770.103	26.98
770.281	26.74
770.459	26.72
770.636	27.64
770.814	27.66
770.992	28.32
771.17	30.7
771.348	30.99
771.525	31.55
771.703	30.89
771.881	32.81
772.059	32.83
772.236	33.87
772.414	31.58
772.592	32.64
772.769	34.05
772.947	33.56
773.125	32.54
773.302	31.42
773.48	33.08
773.657	32.21
773.835	32.1
774.013	32.22
774.19	32.33
774.368	33.73
774.545	30.52
774.723	28.18
774.9	27.72
775.077	27.92
775.255	29.11
775.432	30.34
775.61	32.53
775.787	32.64
775.964	31.31
776.142	31.56
776.319	31.74
776.496	32.35
776.674	33.45
776.851	31.55
777.028	31.1
777.205	31.69
777.382	28.42
777.56	27.83
777.737	28.21
777.914	28.68
778.091	28.98
778.268	31.4
778.445	32.9
778.622	32.36
778.8	35.57
778.977	35.16
779.154	34.03
779.331	36.42
779.508	36.99
779.685	34.55
779.862	34.66
780.038	33.77
780.215	31.66
780.392	32.69
780.569	33.49
780.746	33.29
780.923	34.41
781.1	37.1
781.277	35.5
781.453	35.2
781.63	37.19
781.807	37.9
781.984	39.41
782.16	40.83
782.337	39.47
782.514	41.04
782.691	40.2
782.867	39.76
783.044	35.18
783.221	36.22
783.397	34.83
783.574	36.8
783.75	37.4
783.927	38.06
784.103	36.6
784.28	36
784.456	34.43
784.633	31.91
784.809	31.56
784.986	34.02
785.162	33.92
785.339	34.9
785.515	33.14
785.692	31.51
785.868	29.7
786.044	30.51
786.221	31.59
786.397	30.02
786.573	30.38
786.749	30.3
786.926	31.76
787.102	31.5
787.278	32.8
787.454	32.16
787.631	33.78
787.807	36
787.983	35.18
788.159	34.79
788.335	37.37
788.511	38.21
788.687	33.95
788.863	32.07
789.039	32.24
789.216	29.49
789.392	29.28
789.568	30.21
789.744	27.96
789.919	26.13
790.095	25.74
790.271	22.47
790.447	22.35
790.623	27.14
790.799	28.46
790.975	30.31
791.151	30.35
791.327	28.05
791.502	25.93
791.678	28.09
791.854	29.63
792.03	30.64
792.205	32.57
792.381	32.45
792.557	31.62
792.733	30.69
792.908	29.21
793.084	30.36
793.259	31.69
793.435	35.69
793.611	33.09
793.786	32.38
793.962	33.01
794.137	31.32
794.313	33.49
794.488	33.7
794.664	34.38
794.839	33.43
795.015	32.42
795.19	33.64
795.366	29.53
795.541	30.69
795.716	31.52
795.892	29.57
796.067	30.17
796.242	28.25
796.418	26.79
796.593	27.1
796.768	28.75
796.944	30.24
797.119	30.43
797.294	33.88
797.469	33.01
797.644	33.21
797.82	36.2
797.995	37.43
798.17	37.14
798.345	38.98
798.52	39.6
798.695	39.06
798.87	37.32
799.045	35.02
799.22	31.75
799.395	29.65
799.57	29.85
799.745	27.73
799.92	27.8
800.095	28.72
800.27	26.24
800.445	25.71
800.62	23.46
800.795	26.74
800.97	27.82
801.145	29.48
801.319	28.01
801.494	25.52
801.669	26.7
801.844	25.61
802.018	24.55
802.193	26.79
802.368	25.79
802.543	27.81
802.717	23.52
802.892	25.12
803.067	23.19
803.241	25.27
803.416	26.82
803.59	28.38
803.765	29.31
803.94	27.46
804.114	27.66
804.289	28.36
804.463	26.89
804.638	31.08
804.812	27.77
804.986	27.81
805.161	27.77
805.335	30.6
805.51	24.63
805.684	25.78
805.858	26.98
806.033	27.64
806.207	28.43
806.381	30.15
806.556	28.22
806.73	32.48
806.904	35.33
807.078	36.27
807.253	32.89
807.427	37.81
807.601	36.97
807.775	40.09
807.949	39.41
808.123	35.39
808.298	35.09
808.472	36.59
808.646	32.73
808.82	31.6
808.994	29.94
809.168	31.77
809.342	34
809.516	34.98
809.69	35.1
809.864	35.73
810.038	40.42
810.212	40.11
810.385	38.1
810.559	39.29
810.733	37.98
810.907	42
811.081	37.48
811.255	32.25
811.428	28.7
811.602	25.67
811.776	28.03
811.95	18.67
812.123	22.04
812.297	23.84
812.471	26.51
812.644	28.13
812.818	29.02
812.992	37.95
813.165	41.86
813.339	46.27
813.512	49.67
813.686	48.45
813.86	55.56
814.033	50.9
814.207	52.77
814.38	56.22
814.554	53.12
814.727	52.7
814.9	46.01
815.074	46.81
815.247	42.83
815.421	40.48
815.594	40.86
815.767	36.81
815.941	35.4
816.114	32.98
816.287	28.23
816.46	27.56
816.634	22.36
816.807	22.05
816.98	16.74
817.153	17.19
817.327	19.47
817.5	16.97
817.673	18.67
817.846	25.96
818.019	24.73
818.192	25.32
818.365	26.49
818.538	24.89
818.711	27.8
818.884	30.83
819.057	33.24
819.23	28.88
819.403	29.23
819.576	32.04
819.749	31.91
819.922	28.35
820.095	29.82
820.268	28.29
820.441	33.9
820.614	34.98
820.786	34.91
820.959	33.05
821.132	34.91
821.305	33.92
821.477	32.76
821.65	32.97
821.823	35.12
821.996	34.64
822.168	35.16
822.341	33.82
822.514	33.74
822.686	34.27
822.859	35.04
823.031	34.14
823.204	33.68
823.376	33.52
823.549	33.16
823.722	32.03
823.894	30.81
824.067	30.62
824.239	30.54
824.411	30.39
824.584	29.01
824.756	28.7
824.929	28.85
825.101	28.4
825.273	28.16
825.446	26.81
825.618	27.73
825.79	28.53
825.963	27.38
826.135	28.68
826.307	29.23
826.479	28.77
826.652	28.24
826.824	28.61
826.996	30.2
827.168	30.23
827.34	29.1
827.512	29.37
827.684	29.76
827.856	31.06
828.029	30.2
828.201	27.33
828.373	27.52
828.545	27.76
828.717	28.71
828.889	27.8
829.061	28.18
829.232	30.07
829.404	28.67
829.576	30.9
829.748	30.56
829.92	28.38
830.092	32.15
830.264	33.51
830.436	30.15
830.607	30.08
830.779	29.9
830.951	30.65
831.123	31.18
831.294	34.2
831.466	30.54
831.638	28.75
831.809	29.81
831.981	26.56
832.153	26.49
832.324	32.01
832.496	30.11
832.667	30.68
832.839	26.64
833.011	28.97
833.182	27.75
833.354	28.34
833.525	30.04
833.697	33.74
833.868	34.48
834.039	34.06
834.211	33.61
834.382	32.11
834.554	31.54
834.725	31.35
834.896	30.48
835.068	31.47
835.239	33.96
835.41	32.87
835.581	30.19
835.753	28.95
835.924	24.22
836.095	21.85
836.266	26.34
836.438	27.61
836.609	30.02
836.78	30.38
836.951	29.22
837.122	24.37
837.293	25.95
837.464	30.42
837.635	27.94
837.806	28.45
837.977	34.56
838.148	23.18
838.319	20.55
838.49	22.19
838.661	19.33
838.832	16.69
839.003	20.14
839.174	12.84
839.345	-0.46
839.516	-2.44
839.687	15.55
839.857	8.95
840.028	19.45
840.199	22.62
840.37	26.6
840.54	27.2
840.711	30.01
840.882	16.8
841.053	25.49
841.223	34.09
841.394	38.85
841.564	33.12
841.735	33.21
841.906	28.93
842.076	28.7
842.247	26.24
842.417	27.22
842.588	16.83
842.758	29.43
842.929	25.35
843.099	28.87
843.27	30.85
843.44	28.11
843.611	23.6
843.781	30.17
843.951	27.63
844.122	19.4
844.292	14.05
844.462	22.09
844.633	22.18
844.803	21.93
844.973	14.67
845.144	10.1
845.314	12.59
845.484	19.05
845.654	13.22
845.824	6.53
845.995	12.26
846.165	14.74
846.335	10.44
846.505	10.94
846.675	14.97
846.845	1.92
847.015	11.6
847.185	12.22
847.355	6.21
847.525	24.54
847.695	40.43
847.865	40.46
848.035	24.4
848.205	31.75
848.375	35.42
848.545	39.21
848.715	44.27
848.884	32.22
849.054	29.58
849.224	35.46
849.394	44.93
849.564	37.29
849.733	27.87
849.903	55.67
850.073	55.12
850.243	44.08
850.412	37.51
850.582	38.68
850.752	40.96
850.921	43.38
851.091	34
851.26	2.07
851.43	23.76
851.599	29.21
851.769	19.5
851.939	10.38
852.108	4.81
852.278	-1.48
852.447	15.91
852.616	0.42
852.786	-7.22
852.955	11.68
853.125	12.9
853.294	-16.29
853.463	-61.87
853.633	-77.69
853.802	-38.8
853.971	-8.53
854.141	18.35
854.31	-2.41
854.479	33.72
854.648	35.36
854.818	35.12
854.987	46.18
855.156	55.14
855.325	79.92
855.494	90.1
855.663	83.82
855.832	80.52
856.001	57.94
856.171	51.03
856.34	41.89
856.509	44.97
856.678	39.72
856.847	37.27
857.016	32.33
857.185	19.37
857.353	13.96
857.522	-16.76
857.691	-31.57
857.86	-15.72
858.029	2.45
858.198	-17.65
858.367	-24.47
858.535	-12.91
858.704	-28.31
858.873	-48.17
859.042	-29.79
859.21	-41.55
859.379	10.63
859.548	23.62
859.717	19.2
859.885	27.23
860.054	47.77
860.222	49.87
860.391	45.72
860.56	35.72
860.728	37.26
860.897	40.99
861.065	52.16
861.234	54.17
861.402	58.28
861.571	64.29
861.739	76.66
861.908	69.52
862.076	59.34
862.244	40.65
862.413	51.35
862.581	44.7
862.749	24.88
862.918	10.32
863.086	13.5
863.254	22.98
863.423	-12.11
863.591	-52.89
863.759	-50.73
863.927	-24.69
864.096	-1.27
864.264	3.34
864.432	-32.61
864.6	1.78
864.768	-25.08
864.936	8.09
865.104	6.3
865.272	20.61
865.44	56.59
865.608	66.14
865.776	85.61
865.944	59.39
866.112	46.37
866.28	44.64
866.448	22.97
866.616	29.44
866.784	12.62
866.952	9.22
867.12	-2.69
867.288	-14.64
867.455	-7.24
867.623	-3.08
867.791	-1.26
867.959	20.74
868.127	15.77
868.294	34.81
868.462	54.53
868.63	48.3
868.797	60.07
868.965	61.57
869.133	77.54
869.3	52.82
869.468	58.19
869.636	49.05
869.803	36.02
869.971	49.36
870.138	45.22
870.306	31.19
870.473	30.57
870.641	14.4
870.808	29
870.975	34.43
871.143	40.09
871.31	36.3
871.478	54
871.645	46.08
871.812	46.68
871.98	50.33
872.147	51.93
872.314	58.11
872.482	71.35
872.649	69.54
872.816	43.65
872.983	29.04
873.15	25.58
873.318	21.46
873.485	13.69
873.652	-21.28
873.819	-8.88
873.986	6.51
874.153	9.12
874.32	17.64
874.487	27.31
874.654	43.49
874.821	46.6
874.988	46.15
875.155	45.49
875.322	55.65
875.489	67.61
875.656	56.86
875.823	60.47
875.99	55.85
876.157	47.31
876.324	43.33
876.49	27.65
876.657	35.56
876.824	40.23
876.991	30.9
877.157	26.1
877.324	14.35
877.491	22.78
877.658	8.62
877.824	19.21
877.991	24.97
878.157	33.95
878.324	44.39
878.491	47.72
878.657	40.89
878.824	65.21
878.99	73.8
879.157	57.91
879.323	74.83
879.49	73.66
879.656	50.01
879.823	44.66
879.989	11.19
880.156	-5.72
880.322	-56.29
880.488	-36.91
880.655	-51.84
880.821	-51.74
880.987	-5.72
881.154	-22.38
881.32	5.08
881.486	27.94
881.652	24.12
881.819	23.47
881.985	23.46
882.151	28.93
882.317	28.21
882.483	25.68
882.649	27.61
882.816	28.91
882.982	28.01
883.148	28.43
883.314	23.53
883.48	22.98
883.646	23.07
883.812	24.34
883.978	20.44
884.144	20.37
884.31	21
884.476	23.01
884.642	22.1
884.807	25.03
884.973	25.49
885.139	28.77
885.305	32.24
885.471	32.19
885.637	31.81
885.802	37.06
885.968	37.6
886.134	41.77
886.3	37.01
886.465	35.26
886.631	36.5
886.797	31.66
886.962	32.81
887.128	25.14
887.293	21.42
887.459	20.7
887.625	20.95
887.79	29.06
887.956	20.37
888.121	23.9
888.287	28.25
888.452	24.19
888.618	31.51
888.783	24.33
