Data from 2938115_Reflection_2.txt Node
Date: Sat Jul 11 18:13:52 EDT 2015
User: robert
Spectrometer: USB4E03001
Autoset integration time: false
Trigger mode: 4
Integration Time (sec): 1.000000E-1
Scans to average: 10
Electric dark correction enabled: true
Nonlinearity correction enabled: false
Boxcar width: 5
Stray light correction enabled: false
XAxis mode: Wavelengths
Stop averaging: false
Number of Pixels in Spectrum: 3648
>>>>>Begin Spectral Data<<<<<
177.566	37.15
177.785	64.99
178.005	254.63
178.225	37.69
178.445	73.1
178.665	-164.52
178.885	-84.57
179.105	197.24
179.324	174.15
179.544	297.01
179.764	1313.75
179.984	-838.43
180.204	249.58
180.423	131.31
180.643	88.2
180.863	64.79
181.083	49.84
181.302	89.13
181.522	77.09
181.742	125.78
181.961	7.87
182.181	219.55
182.401	276.97
182.621	176.83
182.84	179.31
183.06	236.72
183.279	95.12
183.499	58.91
183.719	85.71
183.938	121.17
184.158	93.01
184.377	10.68
184.597	-149.09
184.816	-227.42
185.036	-77.67
185.256	-299.07
185.475	-61.01
185.695	-56.55
185.914	-80.92
186.134	-275.15
186.353	-332.62
186.572	-259.34
186.792	267.5
187.011	201.6
187.231	157.02
187.45	127.22
187.67	160.58
187.889	234.54
188.108	175.62
188.328	146
188.547	252.02
188.766	250.67
188.986	-708.76
189.205	48.79
189.424	52.67
189.644	41.56
189.863	55.71
190.082	40.22
190.302	79.33
190.521	-97.2
190.74	1.46
190.959	-66.67
191.178	1109.52
191.398	-528.38
191.617	157.99
191.836	191.83
192.055	250.64
192.274	419.37
192.494	-197
192.713	-267.61
192.932	-153.89
193.151	-11453.19
193.37	75420
193.589	-206.09
193.808	-369.61
194.027	-140.39
194.246	-193.85
194.465	-152.27
194.685	-353.28
194.904	-506.17
195.123	-556.97
195.342	-224.05
195.561	-77.95
195.78	-67.33
195.999	-108.3
196.218	-138.81
196.436	-76.59
196.655	-83.74
196.874	-29.52
197.093	-14.55
197.312	-1.84
197.531	7.25
197.75	-3.54
197.969	-9.97
198.188	-3.9
198.407	31.57
198.625	41.23
198.844	-27.59
199.063	-96.21
199.282	5117.43
199.501	-661.03
199.719	-6928.77
199.938	901.52
200.157	346.73
200.376	-160.84
200.594	-573.71
200.813	-999.81
201.032	-59.67
201.251	28.02
201.469	24.75
201.688	33.86
201.907	49.43
202.125	22.74
202.344	57.72
202.563	65.27
202.781	49.25
203	77.5
203.218	40.4
203.437	-20.86
203.656	-271.1
203.874	-212.26
204.093	-140.17
204.311	-173.21
204.53	-96.04
204.748	-215.27
204.967	-159.3
205.185	-98.87
205.404	-44
205.622	-41.24
205.841	-123.8
206.059	-17.16
206.278	-32.97
206.496	-59.61
206.715	-52.88
206.933	-161.2
207.151	298.75
207.37	291.24
207.588	212.96
207.806	244.23
208.025	460.12
208.243	-249.55
208.461	-517.12
208.68	-447.31
208.898	1159.45
209.116	563
209.335	122.13
209.553	-109.74
209.771	-577.72
209.989	-460.84
210.208	-888.28
210.426	2347
210.644	434.55
210.862	240.68
211.081	115.29
211.299	140.22
211.517	125.75
211.735	292.95
211.953	370.36
212.171	194.63
212.39	170.09
212.608	184.16
212.826	236.43
213.044	261.84
213.262	250.99
213.48	275.66
213.698	243.15
213.916	217.41
214.134	175.35
214.352	146.47
214.57	247.32
214.788	551.29
215.006	5236.7
215.224	21816.67
215.442	1318.54
215.66	5435.25
215.878	498.65
216.096	725.77
216.314	-4434.21
216.532	-6570.54
216.75	636.1
216.968	1632.96
217.185	1410.87
217.403	688.3
217.621	361.05
217.839	323.76
218.057	243.79
218.275	-2798.95
218.492	-498.5
218.71	-107.42
218.928	-49.51
219.146	-30.76
219.363	16.53
219.581	-22.12
219.799	-11.11
220.017	1.29
220.234	-3.98
220.452	-23.4
220.67	-13.6
220.887	-1
221.105	-3.45
221.323	-8.95
221.54	-15.67
221.758	-28.78
221.976	-10.07
222.193	-16.52
222.411	-25.84
222.629	-8.52
222.846	0.78
223.064	10.15
223.281	1.48
223.499	-3.63
223.716	7.45
223.934	-1.68
224.151	1.6
224.369	-4.23
224.586	2.82
224.804	3.47
225.021	-24.77
225.239	-51.16
225.456	-62.2
225.674	-51.92
225.891	-63.11
226.108	-64.19
226.326	-66.32
226.543	-92.92
226.76	-59.67
226.978	-59.14
227.195	-33.17
227.413	-12.2
227.63	-9.24
227.847	-9.67
228.064	-16.52
228.282	-8.33
228.499	-3.9
228.716	3.42
228.934	6.96
229.151	11.18
229.368	13.42
229.585	12.76
229.802	11.57
230.02	17.04
230.237	20.51
230.454	22.99
230.671	23.31
230.888	18.05
231.105	16.29
231.323	16.12
231.54	8.4
231.757	7.16
231.974	1.9
232.191	1.92
232.408	-10.73
232.625	-7.62
232.842	-7.11
233.059	-4.17
233.276	8.05
233.493	12.83
233.71	15.69
233.927	18.93
234.144	15.51
234.361	18.07
234.578	19.72
234.795	18.8
235.012	11.75
235.229	9.45
235.446	3.85
235.663	-2.98
235.879	-0.99
236.096	-6.02
236.313	-4.91
236.53	-7.16
236.747	-4.11
236.964	-1.23
237.181	-2.68
237.397	-8.11
237.614	-18.29
237.831	-12.95
238.048	-12.96
238.264	-25.93
238.481	-23.43
238.698	-23.68
238.915	-15.79
239.131	-19.8
239.348	-22.65
239.565	-13.25
239.781	-0.29
239.998	2.25
240.215	6.95
240.431	11.56
240.648	9.99
240.865	10.6
241.081	11.64
241.298	8.73
241.514	10.26
241.731	7.52
241.947	7.93
242.164	4.81
242.38	5.67
242.597	2.57
242.814	0.85
243.03	3.36
243.246	1.61
243.463	-0.11
243.679	2.18
243.896	0.95
244.112	4.09
244.329	2.7
244.545	5.54
244.762	7.53
244.978	6.21
245.194	6.24
245.411	5.08
245.627	7.39
245.843	9.27
246.06	8.78
246.276	8.51
246.492	8.67
246.709	7.96
246.925	7.95
247.141	7.86
247.357	10.03
247.574	9.32
247.79	9.37
248.006	9.34
248.222	9.01
248.439	8.67
248.655	7.23
248.871	6.22
249.087	6.7
249.303	4.84
249.519	3.62
249.736	0.71
249.952	-0.14
250.168	-1.71
250.384	-4
250.6	-4.68
250.816	-5.35
251.032	-3.96
251.248	-4.01
251.464	-2.95
251.68	-1.15
251.896	-1.46
252.112	-1.73
252.328	1.23
252.544	2.9
252.76	3.03
252.976	3.9
253.192	5.83
253.408	6.54
253.624	6.32
253.84	3.26
254.056	3.74
254.272	6.97
254.487	11.19
254.703	9.33
254.919	7.67
255.135	6.88
255.351	6.94
255.567	9.35
255.782	7.61
255.998	5.9
256.214	9.61
256.43	10.09
256.646	7.48
256.861	2.93
257.077	2.53
257.293	1.72
257.508	2.05
257.724	0.4
257.94	-2.02
258.155	-1.11
258.371	1.99
258.587	3.47
258.802	2.3
259.018	4.22
259.234	5.42
259.449	6.35
259.665	7
259.88	6.77
260.096	7.67
260.312	7.49
260.527	7.63
260.743	7.45
260.958	7
261.174	6.85
261.389	5.84
261.605	5.5
261.82	4.15
262.036	3.84
262.251	5.21
262.466	3.08
262.682	2.49
262.897	3.71
263.113	3.96
263.328	1.82
263.543	5.55
263.759	7.51
263.974	8.11
264.189	7.31
264.405	6.24
264.62	4.76
264.835	5.97
265.051	7.65
265.266	7.92
265.481	6.26
265.696	4.87
265.912	2.94
266.127	0.79
266.342	0.16
266.557	3.93
266.773	4.7
266.988	4.6
267.203	3.89
267.418	2.1
267.633	1.58
267.848	2.08
268.064	3.54
268.279	2.61
268.494	2.83
268.709	1.1
268.924	0.67
269.139	0.39
269.354	0.44
269.569	0.79
269.784	2.99
269.999	2.31
270.214	0.47
270.429	-0.47
270.644	0.55
270.859	-0.73
271.074	0.02
271.289	-1.77
271.504	-2.23
271.719	-2.92
271.934	-2.89
272.149	-5.7
272.363	-4.4
272.578	-3.41
272.793	-1.75
273.008	-1.67
273.223	-0.59
273.438	0.14
273.653	-0.75
273.867	-1.21
274.082	-0.32
274.297	1.03
274.512	1.19
274.726	0.92
274.941	1.8
275.156	2.71
275.371	4.17
275.585	2.12
275.8	0.91
276.015	2.16
276.229	3.2
276.444	2.9
276.659	3.5
276.873	5.15
277.088	4.42
277.302	5.73
277.517	4.63
277.732	0.92
277.946	3.78
278.161	5.38
278.375	5.56
278.59	7.67
278.804	8.03
279.019	5.42
279.233	7
279.448	5.66
279.662	5.39
279.877	4.47
280.091	6.97
280.306	7.75
280.52	7.9
280.735	8.67
280.949	8.22
281.163	7.99
281.378	8.91
281.592	7.62
281.806	8.75
282.021	6.95
282.235	8.07
282.449	8.42
282.664	7.98
282.878	7.9
283.092	7.71
283.307	6.75
283.521	6.5
283.735	5.83
283.949	7.16
284.164	5.64
284.378	5.74
284.592	4.62
284.806	4.26
285.02	3.12
285.234	6.08
285.449	6.21
285.663	6.19
285.877	6.55
286.091	8.38
286.305	6.81
286.519	9.52
286.733	10.15
286.947	10.2
287.161	11.09
287.375	12.9
287.589	8.13
287.803	8.07
288.017	6.51
288.231	4.61
288.445	2.6
288.659	3.01
288.873	0.69
289.087	1.35
289.301	3.52
289.515	0.91
289.729	1.49
289.943	2.54
290.157	2.54
290.371	4.01
290.584	5.46
290.798	6.3
291.012	6.26
291.226	7.4
291.44	5.77
291.654	3.82
291.867	3.83
292.081	4.17
292.295	3.01
292.509	1.54
292.722	1.59
292.936	0.61
293.15	-0.42
293.364	0.41
293.577	0.98
293.791	1.03
294.005	1.45
294.218	2.53
294.432	0.94
294.645	2.05
294.859	3.63
295.073	3.93
295.286	5.18
295.5	6.07
295.713	6.36
295.927	6.07
296.14	6.36
296.354	5.87
296.568	6.24
296.781	4.93
296.994	6.66
297.208	4.84
297.421	4.83
297.635	4.48
297.848	4.19
298.062	4.64
298.275	4.83
298.489	4.83
298.702	5.75
298.915	5.17
299.129	7.1
299.342	6.2
299.555	8.6
299.769	8.77
299.982	8.64
300.195	8.44
300.409	7.25
300.622	5.88
300.835	5.05
301.048	5.69
301.262	6.23
301.475	4.63
301.688	4.41
301.901	3.92
302.115	3.88
302.328	4.27
302.541	5.09
302.754	5.09
302.967	6.46
303.18	8.19
303.393	5.66
303.607	7.17
303.82	10.04
304.033	9.96
304.246	10.24
304.459	9.77
304.672	9.31
304.885	7.6
305.098	8.48
305.311	7.49
305.524	7.16
305.737	7.86
305.95	7.34
306.163	2.97
306.376	4.74
306.589	4.89
306.802	5.41
307.015	5.66
307.228	9.46
307.44	7.74
307.653	8.98
307.866	7.32
308.079	8.93
308.292	10.4
308.505	11.46
308.718	9.31
308.93	9.76
309.143	9.21
309.356	8.36
309.569	4.89
309.781	5.25
309.994	4.19
310.207	4.74
310.42	4.72
310.632	3.73
310.845	5.1
311.058	5.63
311.27	5.01
311.483	6.19
311.696	7.01
311.908	7.52
312.121	7.97
312.333	9.05
312.546	9.79
312.759	10.28
312.971	9.18
313.184	9.24
313.396	11.07
313.609	10.02
313.821	8.8
314.034	10.78
314.246	10.01
314.459	10.61
314.671	9.51
314.884	10.53
315.096	9.96
315.309	10.9
315.521	12.33
315.733	11.82
315.946	12.1
316.158	13.78
316.371	12.41
316.583	15.14
316.795	15
317.008	13.24
317.22	10.87
317.432	11.15
317.644	9.72
317.857	5.75
318.069	3.68
318.281	5.12
318.494	4.73
318.706	4.42
318.918	1.89
319.13	2.6
319.342	4.25
319.555	5.81
319.767	4.51
319.979	3.97
320.191	7.11
320.403	6.96
320.615	6.8
320.827	6.2
321.039	5.29
321.252	7.32
321.464	4.71
321.676	3.83
321.888	1.04
322.1	1.41
322.312	3.59
322.524	2.15
322.736	4.76
322.948	4.78
323.16	4.46
323.372	5.26
323.584	5
323.796	6.1
324.007	7.43
324.219	9.7
324.431	9.54
324.643	8.76
324.855	9.08
325.067	7.38
325.279	6.92
325.491	8.18
325.702	7.53
325.914	8.2
326.126	9.38
326.338	7.49
326.55	7.16
326.761	8.54
326.973	8.03
327.185	9.45
327.396	9.02
327.608	10.28
327.82	9.49
328.032	10.59
328.243	8.97
328.455	8.37
328.666	9.98
328.878	10.48
329.09	9.33
329.301	9.57
329.513	8.18
329.725	9.66
329.936	8.77
330.148	10.28
330.359	10.04
330.571	11.96
330.782	12.33
330.994	11.15
331.205	12.5
331.417	15.3
331.628	16.02
331.84	15.51
332.051	15.83
332.262	16.76
332.474	16.36
332.685	16.07
332.897	15.99
333.108	14.92
333.319	16.08
333.531	15.61
333.742	13.61
333.953	14.55
334.165	15.85
334.376	14.25
334.587	14.31
334.799	14.63
335.01	15.45
335.221	14.45
335.432	16.79
335.644	15.9
335.855	14.69
336.066	14.94
336.277	15.26
336.488	14.49
336.7	16.23
336.911	15.07
337.122	15.54
337.333	16.35
337.544	17.63
337.755	15.73
337.966	17.54
338.177	18.52
338.388	19.36
338.599	18.17
338.811	17.5
339.022	16.78
339.233	17.03
339.444	16.1
339.655	14.24
339.866	14.35
340.076	13.99
340.287	12.41
340.498	13.17
340.709	11.2
340.92	11.64
341.131	13.12
341.342	13.57
341.553	14.92
341.764	14.39
341.975	15.39
342.185	15.04
342.396	16.47
342.607	17.02
342.818	16.79
343.029	17.8
343.239	18.17
343.45	17.91
343.661	18.71
343.872	18.39
344.082	19.98
344.293	19.77
344.504	19.32
344.714	19.18
344.925	20.04
345.136	19.17
345.346	18.5
345.557	17.89
345.768	18.12
345.978	17.59
346.189	17.48
346.399	15.84
346.61	17.11
346.821	17.55
347.031	17.2
347.242	17.26
347.452	17.36
347.663	17.55
347.873	19.72
348.084	19.39
348.294	18.97
348.504	19.72
348.715	21.22
348.925	19.15
349.136	19.62
349.346	19.97
349.557	20.19
349.767	20.62
349.977	20.85
350.188	19.59
350.398	19.23
350.608	20.01
350.819	18.76
351.029	17.41
351.239	19.05
351.449	17.98
351.66	17.65
351.87	17.36
352.08	17.24
352.29	17.38
352.501	17.98
352.711	17.57
352.921	16.38
353.131	16.67
353.341	16.4
353.552	15.84
353.762	15.98
353.972	15.34
354.182	15.97
354.392	17.14
354.602	16.9
354.812	16.81
355.022	18.1
355.232	20.13
355.442	19.22
355.652	19.7
355.862	19.21
356.072	19.81
356.282	20.12
356.492	20.68
356.702	19.47
356.912	20.11
357.122	19.42
357.332	18.89
357.542	16.54
357.752	17.73
357.962	17.53
358.171	17.63
358.381	17.45
358.591	17.63
358.801	16.58
359.011	17.44
359.221	17.93
359.43	18.26
359.64	19.48
359.85	20.71
360.06	21.6
360.269	22.18
360.479	22.43
360.689	23.54
360.899	23.42
361.108	22.27
361.318	21.69
361.528	21.82
361.737	22.28
361.947	21.05
362.156	21.26
362.366	21.2
362.576	20.9
362.785	21.67
362.995	20.69
363.204	20.62
363.414	21.59
363.623	21.53
363.833	21.37
364.042	20.41
364.252	20.89
364.461	20.89
364.671	19.38
364.88	19.45
365.09	19.18
365.299	17.64
365.509	17.79
365.718	17.69
365.927	17.32
366.137	17.55
366.346	17.81
366.555	17.72
366.765	17.65
366.974	18.5
367.183	19.06
367.393	17.95
367.602	18.67
367.811	18.43
368.021	17.49
368.23	18.3
368.439	18.12
368.648	18.02
368.857	18.35
369.067	18.2
369.276	18.24
369.485	17.83
369.694	17.84
369.903	18.59
370.112	19.58
370.321	21.11
370.531	20.78
370.74	20.44
370.949	21.14
371.158	20.61
371.367	21.44
371.576	21.29
371.785	21.11
371.994	21.82
372.203	21.97
372.412	21.04
372.621	20.49
372.83	20.71
373.039	20.59
373.248	20.23
373.457	19.96
373.666	19.2
373.874	18.34
374.083	18.37
374.292	18.02
374.501	17.55
374.71	17.71
374.919	18.03
375.128	18.02
375.336	18.28
375.545	17.87
375.754	18.82
375.963	18.61
376.171	18.98
376.38	19.07
376.589	19.25
376.798	19.92
377.006	20.36
377.215	20.63
377.424	20.36
377.632	20.52
377.841	21.17
378.05	20.77
378.258	21.15
378.467	21.23
378.675	21.61
378.884	21.12
379.093	20.66
379.301	19.55
379.51	19.07
379.718	18.8
379.927	18.75
380.135	18.29
380.344	18.21
380.552	17.96
380.761	17.85
380.969	17.55
381.177	18.01
381.386	17.97
381.594	18.75
381.803	18.62
382.011	19.03
382.219	18.48
382.428	18.58
382.636	18.46
382.845	17.79
383.053	17.87
383.261	18.07
383.469	18.38
383.678	17.95
383.886	17.78
384.094	18.15
384.302	18.01
384.511	18.52
384.719	17.75
384.927	17.83
385.135	18.57
385.343	18.42
385.552	17.9
385.76	17.19
385.968	17.08
386.176	17.55
386.384	17.06
386.592	17.28
386.8	17.11
387.008	17.7
387.216	17.56
387.424	16.83
387.633	16.59
387.841	16.76
388.049	16.81
388.257	17.27
388.465	16.26
388.672	16.29
388.88	15.6
389.088	15.67
389.296	15.33
389.504	15.46
389.712	16.16
389.92	16.61
390.128	16.4
390.336	16.63
390.544	16.45
390.751	16.96
390.959	17.05
391.167	17.41
391.375	17.28
391.583	17.48
391.79	17.33
391.998	17.04
392.206	17.01
392.414	17.02
392.621	17.29
392.829	17.4
393.037	17.02
393.244	16.76
393.452	16.74
393.66	16.48
393.867	16.47
394.075	16.37
394.283	16.42
394.49	16.41
394.698	16.79
394.905	16.52
395.113	16.42
395.32	16.48
395.528	16.99
395.735	16.89
395.943	17.02
396.15	17.14
396.358	17.58
396.565	17.48
396.773	17.33
396.98	16.91
397.188	16.69
397.395	16.95
397.602	17.22
397.81	16.93
398.017	17.36
398.225	17.42
398.432	17.23
398.639	17.14
398.847	17.45
399.054	17.36
399.261	17.52
399.468	17.72
399.676	17.33
399.883	17.62
400.09	17.77
400.297	17.57
400.505	17.34
400.712	17.5
400.919	17.46
401.126	17.2
401.333	17.48
401.54	17.55
401.748	17.92
401.955	17.88
402.162	17.44
402.369	16.97
402.576	17.03
402.783	17.05
402.99	17.15
403.197	17.12
403.404	17.37
403.611	17.32
403.818	17.19
404.025	17.01
404.232	17.5
404.439	17.6
404.646	17.86
404.853	17.88
405.06	18.07
405.267	17.87
405.474	17.96
405.681	17.65
405.887	17.92
406.094	18.27
406.301	18.11
406.508	17.8
406.715	17.71
406.922	18.04
407.128	17.96
407.335	18.01
407.542	18.21
407.749	17.97
407.955	18.07
408.162	17.87
408.369	17.43
408.575	17.25
408.782	17.34
408.989	17.61
409.195	17.49
409.402	17.7
409.609	17.42
409.815	17.55
410.022	17.72
410.228	17.76
410.435	17.72
410.642	17.8
410.848	17.88
411.055	17.62
411.261	17.62
411.468	17.76
411.674	17.51
411.881	17.66
412.087	17.57
412.294	17.55
412.5	17.47
412.706	17.34
412.913	17.35
413.119	17.55
413.326	17.6
413.532	17.59
413.738	17.35
413.945	17.51
414.151	17.35
414.357	17.17
414.564	17.29
414.77	17.17
414.976	17.29
415.182	17.33
415.389	17.18
415.595	17.21
415.801	17.19
416.007	17.37
416.214	17.16
416.42	17.26
416.626	17.22
416.832	17.4
417.038	17.58
417.244	17.57
417.45	17.46
417.657	17.59
417.863	17.79
418.069	17.71
418.275	17.6
418.481	17.67
418.687	17.68
418.893	17.76
419.099	17.71
419.305	17.65
419.511	17.75
419.717	17.83
419.923	17.61
420.129	17.46
420.335	17.41
420.541	17.48
420.746	17.54
420.952	17.5
421.158	17.45
421.364	17.21
421.57	17.07
421.776	16.89
421.982	16.97
422.187	17.2
422.393	17.34
422.599	17.4
422.805	17.19
423.01	17.16
423.216	17.16
423.422	17.26
423.628	17.3
423.833	17.35
424.039	17.38
424.245	17.33
424.45	17.29
424.656	17.12
424.862	17.18
425.067	17.27
425.273	17.1
425.478	17.21
425.684	17.13
425.889	17.3
426.095	17.27
426.301	17.34
426.506	17.24
426.712	16.99
426.917	16.99
427.123	16.95
427.328	16.89
427.533	16.95
427.739	16.72
427.944	16.82
428.15	16.58
428.355	16.8
428.561	16.93
428.766	16.94
428.971	16.9
429.177	16.94
429.382	16.7
429.587	16.69
429.793	16.63
429.998	16.58
430.203	16.33
430.408	16.36
430.614	16.27
430.819	16.09
431.024	16.01
431.229	16.43
431.434	16.52
431.64	16.75
431.845	16.73
432.05	16.94
432.255	17.1
432.46	17.3
432.665	17.31
432.87	17.36
433.076	17.4
433.281	17.37
433.486	17.25
433.691	17.21
433.896	17.03
434.101	17.03
434.306	16.89
434.511	16.76
434.716	16.7
434.921	16.58
435.126	16.43
435.331	16.26
435.535	16.24
435.74	16.17
435.945	15.71
436.15	15.8
436.355	15.86
436.56	15.78
436.765	15.82
436.97	15.77
437.174	15.71
437.379	15.69
437.584	15.81
437.789	15.99
437.993	16.12
438.198	16.59
438.403	16.51
438.608	16.36
438.812	16.54
439.017	16.51
439.222	16.34
439.426	16.57
439.631	16.6
439.836	16.32
440.04	16.23
440.245	16.07
440.45	15.84
440.654	15.87
440.859	15.9
441.063	15.68
441.268	15.62
441.472	15.64
441.677	15.73
441.881	15.74
442.086	16
442.29	15.9
442.495	16.01
442.699	16.01
442.904	16.06
443.108	16.2
443.312	16.48
443.517	16.43
443.721	16.56
443.925	16.22
444.13	16.34
444.334	16.28
444.538	16.4
444.743	16.37
444.947	16.52
445.151	16.45
445.356	16.23
445.56	16.18
445.764	16.13
445.968	16.1
446.173	16.32
446.377	16.27
446.581	16.25
446.785	16.13
446.989	16.07
447.193	16.02
447.398	16.07
447.602	16.2
447.806	16.24
448.01	16.32
448.214	16.35
448.418	16.18
448.622	16.11
448.826	16.01
449.03	16.11
449.234	16.21
449.438	16.26
449.642	16.19
449.846	16.14
450.05	16.03
450.254	16.16
450.458	16.14
450.662	16.12
450.866	15.88
451.069	15.91
451.273	16.07
451.477	15.95
451.681	15.95
451.885	15.85
452.089	16.17
452.292	16.3
452.496	16.26
452.7	16.18
452.904	16.04
453.107	16.29
453.311	16.38
453.515	16.09
453.719	16.1
453.922	16.02
454.126	15.95
454.33	15.49
454.533	15.51
454.737	15.38
454.94	15.4
455.144	15.4
455.348	15.55
455.551	15.57
455.755	15.66
455.958	15.97
456.162	16.06
456.365	16.33
456.569	16.55
456.772	16.28
456.976	16.35
457.179	16.32
457.383	16.5
457.586	16.28
457.79	16.09
457.993	16.1
458.196	15.84
458.4	15.87
458.603	15.73
458.807	15.72
459.01	15.7
459.213	15.67
459.417	15.7
459.62	15.69
459.823	15.55
460.026	15.47
460.23	15.44
460.433	15.37
460.636	15.2
460.839	15.31
461.042	15.18
461.246	15.23
461.449	15.18
461.652	15.15
461.855	15.05
462.058	15.12
462.261	15.16
462.464	15.24
462.668	15.22
462.871	15.32
463.074	15.11
463.277	15.1
463.48	15.16
463.683	15.15
463.886	15.22
464.089	15.09
464.292	15.29
464.495	15.32
464.698	15.3
464.901	15.46
465.104	15.64
465.306	15.68
465.509	15.86
465.712	15.61
465.915	15.65
466.118	15.4
466.321	15.5
466.524	15.63
466.726	15.74
466.929	15.93
467.132	15.77
467.335	15.43
467.538	15.59
467.74	15.64
467.943	15.63
468.146	15.69
468.348	15.8
468.551	15.97
468.754	15.76
468.956	15.8
469.159	15.53
469.362	15.61
469.564	15.8
469.767	15.8
469.969	15.69
470.172	16.05
470.375	15.96
470.577	15.88
470.78	15.81
470.982	15.79
471.185	15.71
471.387	15.89
471.59	15.86
471.792	15.93
471.995	15.86
472.197	15.97
472.399	15.81
472.602	15.93
472.804	16.06
473.007	16.05
473.209	15.94
473.411	16.06
473.614	15.83
473.816	15.87
474.018	15.94
474.22	16.06
474.423	15.88
474.625	15.95
474.827	16
475.03	16
475.232	16.02
475.434	16.32
475.636	16.22
475.838	16.26
476.04	16.2
476.243	16.09
476.445	15.97
476.647	16.04
476.849	16
477.051	15.94
477.253	15.9
477.455	15.98
477.657	15.85
477.859	15.89
478.061	15.99
478.263	16.03
478.465	16.29
478.667	16.14
478.869	16.01
479.071	16.04
479.273	16.02
479.475	16.03
479.677	15.98
479.879	15.98
480.081	15.92
480.283	15.92
480.485	15.81
480.686	15.53
480.888	15.77
481.09	15.75
481.292	15.68
481.494	15.78
481.695	15.98
481.897	16.02
482.099	16.12
482.301	16.31
482.502	16.36
482.704	16.56
482.906	16.57
483.107	16.52
483.309	16.55
483.511	16.54
483.712	16.49
483.914	16.38
484.115	16.34
484.317	16.32
484.519	16.21
484.72	16.13
484.922	15.98
485.123	15.99
485.325	15.95
485.526	15.93
485.728	16
485.929	16.03
486.131	16.1
486.332	16.14
486.534	16.1
486.735	16.13
486.936	16.14
487.138	16.26
487.339	16.19
487.541	16.19
487.742	16.18
487.943	16.06
488.144	16.03
488.346	15.96
488.547	15.97
488.748	15.93
488.95	15.96
489.151	15.98
489.352	15.91
489.553	15.97
489.755	15.95
489.956	15.96
490.157	16
490.358	16.06
490.559	16.08
490.76	15.97
490.961	16.04
491.163	15.99
491.364	15.98
491.565	15.9
491.766	15.9
491.967	15.91
492.168	15.95
492.369	15.9
492.57	15.86
492.771	15.8
492.972	15.78
493.173	15.71
493.374	15.74
493.575	15.64
493.776	15.69
493.976	15.56
494.177	15.66
494.378	15.58
494.579	15.69
494.78	15.63
494.981	15.9
495.182	15.91
495.382	15.98
495.583	15.84
495.784	15.9
495.985	15.84
496.185	15.94
496.386	15.86
496.587	15.79
496.788	15.71
496.988	15.71
497.189	15.52
497.39	15.48
497.59	15.47
497.791	15.64
497.992	15.64
498.192	15.76
498.393	15.75
498.593	15.7
498.794	15.66
498.994	15.69
499.195	15.68
499.395	15.7
499.596	15.8
499.796	15.83
499.997	15.74
500.197	15.68
500.398	15.68
500.598	15.68
500.799	15.67
500.999	15.89
501.199	15.96
501.4	15.94
501.6	16.04
501.801	16.12
502.001	16.01
502.201	16.16
502.402	16.3
502.602	16.23
502.802	16.36
503.002	16.41
503.203	16.25
503.403	16.29
503.603	16.43
503.803	16.32
504.003	16.22
504.204	16.29
504.404	16.24
504.604	16.35
504.804	16.42
505.004	16.27
505.204	16.18
505.404	16.08
505.604	15.95
505.804	15.81
506.005	15.86
506.205	15.8
506.405	15.76
506.605	15.58
506.805	15.48
507.005	15.52
507.204	15.55
507.404	15.67
507.604	15.93
507.804	16.04
508.004	15.98
508.204	15.88
508.404	16.17
508.604	16.27
508.804	16.4
509.003	16.5
509.203	16.5
509.403	16.57
509.603	16.65
509.803	16.55
510.002	16.51
510.202	16.73
510.402	16.92
510.602	16.74
510.801	16.77
511.001	16.77
511.201	16.74
511.4	16.84
511.6	16.81
511.8	16.65
511.999	16.65
512.199	16.75
512.398	16.64
512.598	16.53
512.797	16.51
512.997	16.24
513.197	16.38
513.396	16.37
513.596	16.29
513.795	16.32
513.994	16.4
514.194	16.46
514.393	16.3
514.593	16.37
514.792	16.43
514.992	16.55
515.191	16.85
515.39	16.83
515.59	16.83
515.789	16.81
515.988	16.72
516.188	16.79
516.387	16.73
516.586	16.72
516.786	16.71
516.985	16.88
517.184	16.71
517.383	16.62
517.582	16.58
517.782	16.59
517.981	16.7
518.18	16.77
518.379	16.78
518.578	16.86
518.777	17.05
518.976	17.01
519.176	16.85
519.375	17.01
519.574	17.05
519.773	16.91
519.972	16.82
520.171	16.72
520.37	16.78
520.569	16.7
520.768	16.62
520.967	16.45
521.166	16.59
521.365	16.57
521.564	16.74
521.762	16.88
521.961	17.04
522.16	17.09
522.359	17.07
522.558	17.1
522.757	17.09
522.956	17.04
523.154	17.09
523.353	17.03
523.552	17.06
523.751	16.79
523.949	16.69
524.148	16.64
524.347	16.65
524.546	16.77
524.744	16.64
524.943	16.73
525.142	16.84
525.34	16.77
525.539	16.81
525.737	16.84
525.936	16.86
526.135	16.81
526.333	17
526.532	17.13
526.73	17.19
526.929	17.4
527.127	17.34
527.326	17.46
527.524	17.54
527.723	17.52
527.921	17.51
528.12	17.52
528.318	17.56
528.516	17.51
528.715	17.54
528.913	17.55
529.112	17.43
529.31	17.48
529.508	17.38
529.707	17.39
529.905	17.32
530.103	17.31
530.301	17.3
530.5	17.3
530.698	17.25
530.896	17.21
531.094	17.08
531.293	17.15
531.491	17.23
531.689	17.35
531.887	17.46
532.085	17.64
532.283	17.65
532.481	17.75
532.68	17.75
532.878	17.72
533.076	17.72
533.274	17.78
533.472	17.7
533.67	17.66
533.868	17.64
534.066	17.64
534.264	17.61
534.462	17.67
534.66	17.67
534.858	17.73
535.056	17.86
535.253	17.85
535.451	17.84
535.649	17.97
535.847	17.97
536.045	17.91
536.243	17.86
536.441	17.98
536.638	17.97
536.836	17.98
537.034	17.84
537.232	17.86
537.43	17.81
537.627	18.01
537.825	18
538.023	18.07
538.22	18.13
538.418	18.1
538.616	18.12
538.813	18.15
539.011	18.21
539.209	18.43
539.406	18.4
539.604	18.38
539.801	18.19
539.999	18.18
540.196	18.17
540.394	18.31
540.591	18.37
540.789	18.23
540.986	18.33
541.184	18.28
541.381	18.34
541.579	18.23
541.776	18.34
541.974	18.37
542.171	18.31
542.368	18.35
542.566	18.32
542.763	18.28
542.96	18.3
543.158	18.22
543.355	18.22
543.552	18.18
543.75	18.3
543.947	18.24
544.144	18.07
544.341	18.12
544.539	17.97
544.736	17.86
544.933	17.86
545.13	17.87
545.327	17.72
545.524	17.71
545.722	17.59
545.919	17.69
546.116	17.88
546.313	18.11
546.51	18.2
546.707	18.24
546.904	18.42
547.101	18.44
547.298	18.54
547.495	18.74
547.692	18.86
547.889	19.03
548.086	19
548.283	18.94
548.48	19.05
548.677	19.19
548.874	19.27
549.07	19.16
549.267	19.16
549.464	19.18
549.661	19.18
549.858	19.14
550.055	18.93
550.251	18.96
550.448	18.89
550.645	18.87
550.842	18.79
551.038	19.07
551.235	19.19
551.432	19.27
551.628	19.34
551.825	19.52
552.022	19.64
552.218	19.78
552.415	19.84
552.612	19.99
552.808	20.01
553.005	20.2
553.201	20.02
553.398	20.04
553.594	20
553.791	19.98
553.987	19.79
554.184	19.81
554.38	19.86
554.577	19.73
554.773	19.88
554.97	19.84
555.166	19.68
555.362	19.71
555.559	19.87
555.755	20.14
555.952	20.24
556.148	20.24
556.344	20.15
556.541	20.21
556.737	20.45
556.933	20.42
557.129	20.53
557.326	20.67
557.522	20.73
557.718	20.52
557.914	20.47
558.11	20.33
558.307	20.48
558.503	20.46
558.699	20.33
558.895	20.17
559.091	19.81
559.287	20
559.483	19.88
559.679	19.75
559.876	19.76
560.072	19.75
560.268	19.88
560.464	20.12
560.66	20.13
560.856	20.22
561.052	20.35
561.247	20.65
561.443	20.52
561.639	20.54
561.835	20.76
562.031	20.77
562.227	20.72
562.423	20.83
562.619	20.81
562.815	20.96
563.01	21.11
563.206	21.17
563.402	21.19
563.598	21.02
563.793	21.19
563.989	21.34
564.185	21.62
564.381	21.62
564.576	21.62
564.772	21.36
564.968	21.44
565.163	21.52
565.359	21.38
565.555	21.32
565.75	21.42
565.946	21.44
566.141	21.4
566.337	21.2
566.532	21.36
566.728	21.41
566.923	21.66
567.119	21.77
567.314	21.63
567.51	21.83
567.705	21.91
567.901	22.11
568.096	21.98
568.292	22.05
568.487	22.12
568.682	21.84
568.878	21.87
569.073	21.66
569.268	21.65
569.464	21.88
569.659	22.04
569.854	21.89
570.05	21.8
570.245	21.85
570.44	21.87
570.635	21.94
570.831	22.06
571.026	22
571.221	22.14
571.416	22.1
571.611	21.89
571.806	21.84
572.002	22
572.197	22.09
572.392	22.28
572.587	22.26
572.782	22.46
572.977	22.72
573.172	22.65
573.367	22.74
573.562	22.79
573.757	22.79
573.952	22.68
574.147	22.71
574.342	22.88
574.537	22.74
574.732	22.7
574.927	22.31
575.121	22.36
575.316	22.43
575.511	22.31
575.706	22.17
575.901	22.33
576.096	22.5
576.29	22.61
576.485	22.34
576.68	22.57
576.875	22.52
577.069	22.82
577.264	22.77
577.459	22.71
577.654	22.74
577.848	22.86
578.043	22.92
578.238	22.71
578.432	22.58
578.627	22.76
578.821	22.51
579.016	22.62
579.21	22.46
579.405	22.41
579.6	22.57
579.794	22.7
579.989	22.59
580.183	22.48
580.378	22.55
580.572	22.74
580.766	22.57
580.961	22.8
581.155	22.86
581.35	23.11
581.544	22.87
581.738	22.92
581.933	22.93
582.127	23.12
582.321	23.29
582.516	23.58
582.71	23.32
582.904	23.38
583.099	23.15
583.293	23.39
583.487	23.18
583.681	23.35
583.875	23.31
584.07	23.22
584.264	23.29
584.458	22.99
584.652	22.92
584.846	22.95
585.04	22.9
585.234	22.78
585.428	22.59
585.623	22.66
585.817	22.94
586.011	22.82
586.205	22.61
586.399	22.54
586.593	22.73
586.787	22.72
586.981	22.85
587.174	22.78
587.368	23.02
587.562	23.03
587.756	23.11
587.95	22.94
588.144	22.89
588.338	23.22
588.532	23.27
588.725	23.58
588.919	23.54
589.113	23.37
589.307	23.39
589.501	23.38
589.694	23.46
589.888	23.42
590.082	23.56
590.275	23.67
590.469	23.58
590.663	23.46
590.856	23.23
591.05	23.11
591.244	23.23
591.437	23.17
591.631	23.24
591.824	23.11
592.018	22.89
592.212	22.8
592.405	22.82
592.599	22.94
592.792	23.24
592.986	23.12
593.179	23.15
593.372	23.09
593.566	23.22
593.759	23.32
593.953	23.47
594.146	23.73
594.339	23.62
594.533	23.7
594.726	23.49
594.92	23.55
595.113	23.84
595.306	24.01
595.499	24.16
595.693	24.39
595.886	24.29
596.079	24.26
596.272	24.33
596.466	24.68
596.659	24.62
596.852	24.59
597.045	24.43
597.238	24.42
597.431	24.28
597.624	24.35
597.818	24.41
598.011	24.32
598.204	24.42
598.397	24.55
598.59	24.14
598.783	24.29
598.976	24.56
599.169	24.43
599.362	24.35
599.555	24.51
599.748	24.22
599.941	24.12
600.134	24.32
600.326	24.11
600.519	24
600.712	23.99
600.905	24.09
601.098	24.1
601.291	24.4
601.483	24.56
601.676	24.36
601.869	24.42
602.062	24.35
602.255	24.5
602.447	24.55
602.64	24.52
602.833	24.66
603.025	24.63
603.218	24.52
603.411	24.4
603.603	24.28
603.796	24.24
603.989	24.27
604.181	24.2
604.374	24.05
604.566	24.22
604.759	24.39
604.951	24.39
605.144	24.26
605.336	24.39
605.529	24.26
605.721	24.21
605.914	24.4
606.106	24.45
606.299	24.65
606.491	24.67
606.683	24.49
606.876	24.26
607.068	24.32
607.26	24.38
607.453	24.4
607.645	24.53
607.837	24.7
608.03	24.44
608.222	24.5
608.414	24.27
608.606	24.33
608.799	24.27
608.991	24.27
609.183	24.26
609.375	23.99
609.567	23.78
609.759	23.71
609.952	23.63
610.144	23.62
610.336	23.35
610.528	23.28
610.72	22.97
610.912	22.89
611.104	22.71
611.296	22.68
611.488	22.73
611.68	22.54
611.872	22.42
612.064	22.32
612.256	22.48
612.448	22.6
612.64	22.52
612.832	22.86
613.023	22.96
613.215	23.4
613.407	23.27
613.599	23.48
613.791	24.26
613.983	24.64
614.174	24.69
614.366	24.6
614.558	24.92
614.75	25.06
614.941	24.83
615.133	24.76
615.325	24.34
615.516	24.23
615.708	24.5
615.9	23.87
616.091	23.61
616.283	23.62
616.475	23.75
616.666	23.58
616.858	23.84
617.049	24.23
617.241	24.45
617.432	24.63
617.624	25.03
617.815	24.87
618.007	24.85
618.198	25.1
618.39	25.09
618.581	25.03
618.773	25.28
618.964	24.84
619.155	24.62
619.347	24.87
619.538	24.99
619.729	24.9
619.921	24.97
620.112	25.37
620.303	25.2
620.494	25.3
620.686	25.34
620.877	25.26
621.068	25.77
621.259	25.52
621.451	25.15
621.642	25.33
621.833	25.09
622.024	25.05
622.215	24.44
622.406	24.65
622.597	24.79
622.788	24.54
622.98	24.55
623.171	24.23
623.362	24.3
623.553	24.6
623.744	24.26
623.935	24.57
624.126	24.41
624.317	24.86
624.508	24.99
624.698	24.91
624.889	25.21
625.08	25.13
625.271	25.43
625.462	25.74
625.653	25.36
625.844	25.32
626.034	25.13
626.225	25.38
626.416	25.07
626.607	24.98
626.798	24.96
626.988	24.82
627.179	24.82
627.37	24.75
627.56	24.46
627.751	24.85
627.942	24.99
628.132	25.13
628.323	24.75
628.514	24.79
628.704	24.73
628.895	24.72
629.085	24.65
629.276	24.58
629.466	24.21
629.657	24.34
629.847	24.18
630.038	24.02
630.228	23.81
630.419	24.19
630.609	24.25
630.8	24.19
630.99	24.26
631.181	24.65
631.371	24.63
631.561	25
631.752	25.29
631.942	25.19
632.132	25.23
632.323	25.46
632.513	25.43
632.703	25.73
632.893	25.74
633.084	25.55
633.274	25.41
633.464	25.58
633.654	25.56
633.844	25.45
634.034	25.42
634.225	25.35
634.415	25.49
634.605	25.39
634.795	25.3
634.985	25.41
635.175	25.3
635.365	25.4
635.555	25.14
635.745	25.08
635.935	25.15
636.125	25.04
636.315	25
636.505	24.86
636.695	24.91
636.885	24.88
637.075	24.54
637.265	24.83
637.455	24.51
637.644	25.04
637.834	25.25
638.024	25.35
638.214	25.12
638.404	25.48
638.593	25.55
638.783	25.18
638.973	25.14
639.163	25.34
639.352	25.14
639.542	25.29
639.732	24.97
639.921	24.97
640.111	24.7
640.301	24.89
640.49	25.07
640.68	24.72
640.87	25.3
641.059	25.23
641.249	25.07
641.438	25.04
641.628	25.08
641.817	24.93
642.007	24.68
642.196	24.56
642.386	24.77
642.575	24.47
642.764	24.67
642.954	24.32
643.143	24.75
643.333	24.92
643.522	24.87
643.711	25.22
643.901	25.18
644.09	25.34
644.279	25.37
644.469	25.35
644.658	25.16
644.847	24.85
645.036	25.11
645.226	25.15
645.415	25.12
645.604	25.49
645.793	25.15
645.982	25.6
646.171	25.77
646.361	26.12
646.55	26.6
646.739	26.82
646.928	26.87
647.117	27.26
647.306	27.13
647.495	27.52
647.684	27.51
647.873	27.47
648.062	27.01
648.251	26.87
648.44	26.29
648.629	26.03
648.818	25.91
649.007	26.03
649.196	25.67
649.384	25.65
649.573	25.07
649.762	25.19
649.951	25.2
650.14	25.66
650.328	25.46
650.517	25.25
650.706	24.74
650.895	24.68
651.083	24.97
651.272	24.56
651.461	24.16
651.65	24.49
651.838	24.29
652.027	24.2
652.216	23.6
652.404	23.96
652.593	24.29
652.781	24.35
652.97	24.58
653.158	24.2
653.347	24.47
653.535	24.49
653.724	24.31
653.912	24.46
654.101	24.67
654.289	24.99
654.478	24.47
654.666	24.64
654.855	24.59
655.043	24.21
655.231	24.58
655.42	24.38
655.608	24.96
655.796	24.78
655.985	24.61
656.173	24.81
656.361	24.86
656.55	25.2
656.738	25.52
656.926	26.16
657.114	26.34
657.302	26.16
657.491	26.14
657.679	25.97
657.867	25.87
658.055	26.02
658.243	25.54
658.431	25.38
658.619	25.03
658.807	24.81
658.996	24.29
659.184	24.17
659.372	24.43
659.56	24.51
659.748	24.21
659.936	24.74
660.124	24.52
660.311	24.78
660.499	24.93
660.687	25.18
660.875	25.18
661.063	25.17
661.251	25.47
661.439	25.13
661.627	25.18
661.814	25.06
662.002	24.78
662.19	24.98
662.378	24.78
662.565	24.7
662.753	24.34
662.941	24.36
663.129	24.59
663.316	24.18
663.504	24.28
663.692	24.22
663.879	24.8
664.067	24.92
664.254	24.74
664.442	25.17
664.63	25.4
664.817	25.87
665.005	26.32
665.192	26.51
665.38	26.92
665.567	26.64
665.755	26.78
665.942	26.53
666.13	26.08
666.317	26.2
666.504	25.85
666.692	25.6
666.879	25.94
667.067	25.49
667.254	25.67
667.441	25.62
667.629	25.68
667.816	25.64
668.003	25.71
668.19	25.68
668.378	25.52
668.565	25.48
668.752	25.74
668.939	25.53
669.127	26.09
669.314	25.82
669.501	25.72
669.688	25.59
669.875	25.31
670.062	25.18
670.249	25.32
670.436	25.5
670.623	25.44
670.81	25.35
670.997	25.39
671.184	24.59
671.371	25.05
671.558	24.98
671.745	24.97
671.932	25.41
672.119	25.14
672.306	25.32
672.493	25.06
672.68	25.28
672.867	25.25
673.054	24.95
673.24	25.14
673.427	24.99
673.614	25.09
673.801	25.32
673.988	24.9
674.174	25.01
674.361	24.65
674.548	24.77
674.734	24.89
674.921	24.29
675.108	24.47
675.294	24.48
675.481	24.23
675.668	24.51
675.854	24.7
676.041	24.99
676.227	25.15
676.414	25.66
676.601	25.26
676.787	25.04
676.974	25.53
677.16	25.34
677.347	25.05
677.533	25.1
677.719	25.08
677.906	25.02
678.092	24.99
678.279	25.21
678.465	25.02
678.651	25.52
678.838	25.4
679.024	25.59
679.21	25.61
679.397	25.69
679.583	25.83
679.769	25.59
679.955	25.61
680.142	25.84
680.328	25.6
680.514	25.75
680.7	25.58
680.886	25.91
681.073	25.66
681.259	25.79
681.445	26.09
681.631	25.79
681.817	25.65
682.003	25.65
682.189	25.62
682.375	25.93
682.561	25.82
682.747	26.12
682.933	26.02
683.119	26.18
683.305	26.33
683.491	26.03
683.677	26.72
683.863	27.29
684.049	27.21
684.235	26.93
684.42	27.15
684.606	26.94
684.792	26.95
684.978	26.78
685.164	27.01
685.349	26.51
685.535	26.72
685.721	26.02
685.907	25.77
686.092	25.57
686.278	25.79
686.464	25.3
686.649	25.2
686.835	25.28
687.021	25.87
687.206	25.28
687.392	25.6
687.577	25.35
687.763	24.66
687.948	24.87
688.134	25.05
688.319	24.91
688.505	24.77
688.69	24.92
688.876	24.35
689.061	24.22
689.247	24.34
689.432	24.04
689.618	24.27
689.803	24.8
689.988	24.77
690.174	24.6
690.359	25.06
690.544	25.33
690.73	25.5
690.915	25.57
691.1	25.46
691.285	25.58
691.471	25.62
691.656	25.72
691.841	25.83
692.026	25.69
692.211	25.88
692.396	25.16
692.582	25.26
692.767	25.3
692.952	25.7
693.137	25.68
693.322	25.66
693.507	25.8
693.692	26.07
693.877	26.48
694.062	26.12
694.247	26.26
694.432	26.88
694.617	26.82
694.802	26.16
694.987	26.26
695.172	26.33
695.357	25.93
695.541	26.3
695.726	25.7
695.911	25.65
696.096	25.59
696.281	25.54
696.466	25.5
696.65	25.51
696.835	26.31
697.02	26.45
697.204	25.93
697.389	26.53
697.574	25.8
697.759	26.09
697.943	26.25
698.128	26.24
698.312	25.76
698.497	25.64
698.682	25.82
698.866	25.87
699.051	25.55
699.235	25.65
699.42	25.62
699.604	26.28
699.789	26.22
699.973	25.94
700.158	26.15
700.342	26.44
700.527	26.42
700.711	26.08
700.895	26.03
701.08	26.04
701.264	25.96
701.448	25.92
701.633	25.37
701.817	25.42
702.001	25.52
702.186	25.11
702.37	25.63
702.554	25.3
702.738	25.92
702.923	25.7
703.107	25.28
703.291	25.3
703.475	25.26
703.659	25.19
703.843	24.83
704.027	24.33
704.212	25.03
704.396	24.81
704.58	25.06
704.764	23.51
704.948	23.37
705.132	24.36
705.316	24.94
705.5	25.35
705.684	24.53
705.868	25.04
706.052	25.16
706.235	24.56
706.419	23.55
706.603	23.84
706.787	25.04
706.971	24.98
707.155	24.62
707.339	23.92
707.522	23.62
707.706	24.43
707.89	24.13
708.074	23.96
708.257	23.85
708.441	24.36
708.625	23.77
708.808	23.7
708.992	23.81
709.176	23.98
709.359	24.2
709.543	24.23
709.727	24.62
709.91	24.21
710.094	24.29
710.277	24.83
710.461	25.82
710.644	25.28
710.828	24.51
711.011	24.47
711.195	24.33
711.378	24.91
711.562	25
711.745	24.93
711.928	25.02
712.112	25.18
712.295	25.15
712.478	24.23
712.662	25.3
712.845	25.76
713.028	25.84
713.212	25.71
713.395	24.86
713.578	24.86
713.761	24.54
713.945	25.44
714.128	26.04
714.311	25.97
714.494	26.2
714.677	26.58
714.86	26.94
715.043	27.26
715.227	27.47
715.41	27.88
715.593	27.33
715.776	27.73
715.959	27.31
716.142	26.71
716.325	26.45
716.508	26.54
716.691	25.55
716.874	25.61
717.057	25.89
717.239	25.9
717.422	25.76
717.605	25.8
717.788	25.43
717.971	25.13
718.154	25.42
718.337	25.9
718.519	25.76
718.702	27.25
718.885	27.08
719.068	26.61
719.25	26.45
719.433	25.94
719.616	25.69
719.798	25.53
719.981	25.5
720.164	25.41
720.346	25.28
720.529	25.73
720.712	24.43
720.894	24.64
721.077	24.08
721.259	23.75
721.442	24.44
721.624	25.75
721.807	26.35
721.989	26.84
722.172	26.51
722.354	26.44
722.537	26.25
722.719	26.19
722.901	25.59
723.084	27.04
723.266	28.21
723.448	27.74
723.631	27.05
723.813	27.17
723.995	27.79
724.178	28.64
724.36	28.63
724.542	29.2
724.724	29.8
724.907	29.24
725.089	26.94
725.271	25.93
725.453	27.16
725.635	26.21
725.817	25.1
725.999	24.12
726.181	22.72
726.364	23.1
726.546	22.55
726.728	22.62
726.91	22.76
727.092	23.82
727.274	24.3
727.456	23.93
727.638	25.59
727.819	25.93
728.001	26.01
728.183	26.44
728.365	26.55
728.547	26.18
728.729	26.21
728.911	25.96
729.093	25.23
729.274	24.44
729.456	23.41
729.638	21.99
729.82	22.5
730.001	22.5
730.183	22.62
730.365	21.56
730.546	21.45
730.728	21.18
730.91	23.25
731.091	23.38
731.273	23.88
731.455	24.92
731.636	26.06
731.818	25.58
731.999	25.42
732.181	25.92
732.362	28.02
732.544	28.65
732.725	29.29
732.907	27.87
733.088	27.77
733.27	27.9
733.451	27.2
733.633	27.2
733.814	26.44
733.995	25.43
734.177	26.55
734.358	25.63
734.539	25.42
734.721	24.79
734.902	24.8
735.083	25.95
735.264	25.31
735.446	24.7
735.627	23.32
735.808	24.76
735.989	25.56
736.17	24.54
736.351	22.64
736.533	23.4
736.714	23.41
736.895	23.64
737.076	23.44
737.257	24.5
737.438	26.44
737.619	27.98
737.8	27.82
737.981	28.47
738.162	28.39
738.343	29.78
738.524	29.88
738.705	29.65
738.886	29.45
739.067	29.55
739.247	29.27
739.428	28.81
739.609	28.02
739.79	27.55
739.971	27.47
740.151	26.26
740.332	25.65
740.513	24.48
740.694	24.5
740.874	25.35
741.055	24.18
741.236	22.7
741.417	23.07
741.597	21.24
741.778	21.8
741.958	21.31
742.139	20.67
742.32	21.25
742.5	21.33
742.681	21.54
742.861	21.21
743.042	21.9
743.222	23.22
743.403	22.04
743.583	23.91
743.764	21.99
743.944	21.79
744.124	21.91
744.305	21.83
744.485	21.5
744.666	19.96
744.846	19.91
745.026	20.52
745.207	19.72
745.387	21.5
745.567	22.15
745.747	24.47
745.928	24.8
746.108	25.57
746.288	25.21
746.468	25.37
746.648	26.59
746.829	26.3
747.009	25.79
747.189	26.19
747.369	25.06
747.549	24.78
747.729	25.14
747.909	24.51
748.089	24.31
748.269	24.39
748.449	24.93
748.629	24.62
748.809	24.73
748.989	24.79
749.169	24.71
749.349	24.17
749.529	23.08
749.709	22.5
749.889	23.88
750.068	24.71
750.248	23.68
750.428	22.83
750.608	22.6
750.788	22.2
750.967	22.11
751.147	22.7
751.327	24.2
751.507	24.3
751.686	23.82
751.866	23.03
752.046	22.42
752.225	23.52
752.405	24.62
752.585	24.39
752.764	23.68
752.944	23.41
753.123	23.06
753.303	21.46
753.482	22.31
753.662	24.22
753.841	24.14
754.021	24.39
754.2	23.59
754.38	22.26
754.559	23.89
754.739	25.09
754.918	25.7
755.097	26.05
755.277	26.02
755.456	26.18
755.635	23.65
755.815	24.04
755.994	24.83
756.173	24.7
756.352	24.91
756.532	24.3
756.711	24.88
756.89	24.67
757.069	24.46
757.248	24.78
757.427	23.74
757.607	24.97
757.786	25
757.965	23.84
758.144	24.81
758.323	23.95
758.502	23.48
758.681	22.34
758.86	22.4
759.039	23.06
759.218	22.64
759.397	23.98
759.576	23.49
759.755	23.62
759.934	24.19
760.113	23.72
760.291	25.19
760.47	26.61
760.649	26.99
760.828	27.05
761.007	25.77
761.186	26.12
761.364	25.71
761.543	25.39
761.722	24.13
761.901	25
762.079	25.45
762.258	25.02
762.437	23.95
762.615	24.3
762.794	22.5
762.972	23
763.151	23.27
763.33	23.65
763.508	24.25
763.687	24.91
763.865	23.25
764.044	23.16
764.222	23.52
764.401	23.86
764.579	23.1
764.758	24.34
764.936	24.96
765.114	25.42
765.293	25.59
765.471	26.05
765.65	26.89
765.828	27.73
766.006	28.33
766.184	29.23
766.363	28.98
766.541	28.75
766.719	29.65
766.898	29.09
767.076	28.95
767.254	28.5
767.432	28.57
767.61	27.44
767.788	28.44
767.967	27.38
768.145	27.02
768.323	26.82
768.501	27.82
768.679	27.71
768.857	27.09
769.035	26.98
769.213	25.4
769.391	25.01
769.569	25.66
769.747	26.16
769.925	26.46
770.103	25.12
770.281	25.84
770.459	26.59
770.636	25.74
770.814	25.66
770.992	24.28
771.17	25.54
771.348	25.41
771.525	25.63
771.703	24.41
771.881	24.85
772.059	25.49
772.236	24.04
772.414	23.55
772.592	24
772.769	24.72
772.947	25.68
773.125	27.64
773.302	26.9
773.48	27.17
773.657	28.39
773.835	28.78
774.013	28.95
774.19	29.59
774.368	29.56
774.545	27.65
774.723	27.23
774.9	27.1
775.077	27.54
775.255	27.66
775.432	26.04
775.61	24.85
775.787	23.4
775.964	23.83
776.142	23.54
776.319	22.97
776.496	23.01
776.674	22.15
776.851	21.48
777.028	21.26
777.205	20.69
777.382	20.78
777.56	22.35
777.737	22.55
777.914	23.13
778.091	26.16
778.268	26.02
778.445	27.37
778.622	29.2
778.8	30.27
778.977	29.07
779.154	28.31
779.331	27.21
779.508	27.9
779.685	28.32
779.862	27.78
780.038	26.28
780.215	25.71
780.392	26.41
780.569	23.98
780.746	23.13
780.923	21.66
781.1	23.09
781.277	25.52
781.453	22.96
781.63	23.35
781.807	22.41
781.984	22.99
782.16	24.24
782.337	23.98
782.514	25.03
782.691	25.15
782.867	27.52
783.044	27.61
783.221	27.65
783.397	29.52
783.574	29.25
783.75	28.91
783.927	26.67
784.103	25.29
784.28	25.1
784.456	27.1
784.633	28.93
784.809	25.64
784.986	25.58
785.162	24.33
785.339	22.91
785.515	22.29
785.692	22.79
785.868	23.07
786.044	26.39
786.221	27.01
786.397	25.71
786.573	24.1
786.749	26.8
786.926	25.72
787.102	24.24
787.278	24.92
787.454	25.43
787.631	25.15
787.807	23.43
787.983	19.12
788.159	19.52
788.335	17.97
788.511	18.61
788.687	18.77
788.863	20.44
789.039	23.58
789.216	22.44
789.392	21.51
789.568	23.06
789.744	27.36
789.919	28.73
790.095	27.16
790.271	29.42
790.447	30.13
790.623	28.63
790.799	26.36
790.975	27.17
791.151	27.21
791.327	26.34
791.502	23.7
791.678	20.15
791.854	19.8
792.03	23.22
792.205	21.37
792.381	19.16
792.557	20.09
792.733	20.18
792.908	16.49
793.084	15.88
793.259	16.92
793.435	19.18
793.611	18.31
793.786	17.84
793.962	16.59
794.137	16.79
794.313	17.16
794.488	16.06
794.664	18.16
794.839	18.92
795.015	17.19
795.19	20.53
795.366	18.29
795.541	19.75
795.716	21.94
795.892	20.25
796.067	19.95
796.242	19.8
796.418	20.54
796.593	21.05
796.768	21.52
796.944	24.07
797.119	22.67
797.294	23.93
797.469	24.23
797.644	22.1
797.82	21.69
797.995	22.26
798.17	22.37
798.345	22.01
798.52	21.31
798.695	20.31
798.87	19.93
799.045	19.12
799.22	20.88
799.395	20.19
799.57	22.08
799.745	23.46
799.92	24.11
800.095	24.13
800.27	23.2
800.445	23.45
800.62	25.65
800.795	25.29
800.97	24.03
801.145	23.29
801.319	24.44
801.494	23.28
801.669	25.1
801.844	24.45
802.018	24.65
802.193	24.18
802.368	21.96
802.543	23.01
802.717	24.67
802.892	26.28
803.067	24.56
803.241	24.11
803.416	23.21
803.59	18.51
803.765	17.53
803.94	21.01
804.114	23.6
804.289	25.81
804.463	22.16
804.638	20.97
804.812	20.71
804.986	22.17
805.161	21.92
805.335	25.98
805.51	28.43
805.684	26.85
805.858	24.14
806.033	24.3
806.207	22.23
806.381	26.27
806.556	23.93
806.73	22.11
806.904	22.14
807.078	20.93
807.253	20.61
807.427	17.32
807.601	19.36
807.775	21.49
807.949	19.76
808.123	21.13
808.298	15.22
808.472	16.01
808.646	19.69
808.82	20.16
808.994	19.82
809.168	15.43
809.342	18.1
809.516	15.68
809.69	14.64
809.864	14.57
810.038	12.16
810.212	15.32
810.385	16.05
810.559	16.67
810.733	14.75
810.907	16.76
811.081	17.45
811.255	15.72
811.428	23.49
811.602	20.86
811.776	24.56
811.95	25.56
812.123	24.83
812.297	23.88
812.471	18.13
812.644	19.48
812.818	14.51
812.992	13.22
813.165	12.23
813.339	6.88
813.512	4.46
813.686	-2.46
813.86	-3.13
814.033	-3.47
814.207	-4.96
814.38	-1.72
814.554	-6.49
814.727	-0.04
814.9	-0.62
815.074	5.42
815.247	1.95
815.421	9.87
815.594	11.69
815.767	14.56
815.941	13.48
816.114	14.32
816.287	18.74
816.46	22.78
816.634	23.24
816.807	27.14
816.98	29.86
817.153	32.42
817.327	33.29
817.5	32.14
817.673	30.95
817.846	32.56
818.019	35.47
818.192	28.64
818.365	27.44
818.538	29.37
818.711	26.98
818.884	20.72
819.057	18.69
819.23	18.19
819.403	19.32
819.576	21.07
819.749	19.95
819.922	18.46
820.095	19.75
820.268	18.53
820.441	15.65
820.614	16.32
820.786	17.86
820.959	19.84
821.132	19.8
821.305	21.05
821.477	20.84
821.65	22.02
821.823	21.84
821.996	23.57
822.168	24.03
822.341	24.73
822.514	25.34
822.686	26.15
822.859	26.7
823.031	26.99
823.204	26.52
823.376	27.32
823.549	27.07
823.722	27.65
823.894	27.63
824.067	27.79
824.239	27.61
824.411	27.76
824.584	27.24
824.756	26.21
824.929	26.59
825.101	27.2
825.273	25.54
825.446	25.65
825.618	26.02
825.79	27.47
825.963	27.64
826.135	26.55
826.307	25.8
826.479	26.47
826.652	26.83
826.824	26.16
826.996	25.06
827.168	25.04
827.34	23.86
827.512	22.64
827.684	20.45
827.856	20.82
828.029	22.67
828.201	22.9
828.373	21.46
828.545	22.32
828.717	22.18
828.889	22.73
829.061	23.5
829.232	23.87
829.404	23.62
829.576	23.97
829.748	22.77
829.92	20.29
830.092	17.84
830.264	18.29
830.436	17.13
830.607	15.93
830.779	14.56
830.951	14.57
831.123	13.59
831.294	13.43
831.466	16.75
831.638	18.11
831.809	20.66
831.981	21.57
832.153	19.63
832.324	19.32
832.496	15.58
832.667	18.94
832.839	18.26
833.011	19.97
833.182	23.33
833.354	19.43
833.525	18.97
833.697	18.05
833.868	17.76
834.039	19.02
834.211	17.49
834.382	21.31
834.554	19.04
834.725	18.68
834.896	20.44
835.068	18.01
835.239	18.32
835.41	18.11
835.581	17.11
835.753	17.92
835.924	20.72
836.095	22.8
836.266	22.08
836.438	23.94
836.609	24.74
836.78	18.53
836.951	20.35
837.122	17.64
837.293	17.49
837.464	21.77
837.635	19.92
837.806	13.9
837.977	10.02
838.148	7.51
838.319	1.2
838.49	-4.95
838.661	0.82
838.832	-0.74
839.003	-0.34
839.174	-1.36
839.345	-9.7
839.516	-7.3
839.687	-2.07
839.857	3.76
840.028	3.63
840.199	8.35
840.37	15.31
840.54	17.15
840.711	14.92
840.882	15.01
841.053	17.48
841.223	23.61
841.394	27.18
841.564	20.64
841.735	16.14
841.906	17.17
842.076	16.75
842.247	12.66
842.417	6.68
842.588	9.09
842.758	11.28
842.929	8.86
843.099	3.3
843.27	-0.8
843.44	0.63
843.611	2.73
843.781	-10.41
843.951	-6.69
844.122	-6.48
844.292	0.67
844.462	-0.71
844.633	-10.02
844.803	-15.12
844.973	-10.69
845.144	-29.23
845.314	-35.52
845.484	-22.66
845.654	-15.59
845.824	-10.97
845.995	-7.72
846.165	-10.27
846.335	-20.66
846.505	-24.09
846.675	-37.97
846.845	-52.84
847.015	-27.07
847.185	-27.57
847.355	-53.57
847.525	-58.25
847.695	-93.43
847.865	-67.85
848.035	-54.44
848.205	-22.91
848.375	-5.68
848.545	-2.34
848.715	-5.57
848.884	-6.74
849.054	4.3
849.224	22.03
849.394	28.76
849.564	36.86
849.733	21.68
849.903	28.4
850.073	20.38
850.243	9.06
850.412	21.92
850.582	35.09
850.752	32.43
850.921	24.92
851.091	19.66
851.26	7.16
851.43	-10.32
851.599	-29.55
851.769	-62.51
851.939	-73.59
852.108	-49.52
852.278	-45.64
852.447	-61.77
852.616	-55.91
852.786	-66.1
852.955	-53.35
853.125	-44.42
853.294	-21.95
853.463	3.75
853.633	0.71
853.802	-7.39
853.971	-6.13
854.141	-6.08
854.31	-4.88
854.479	-9.72
854.648	-6.22
854.818	7.6
854.987	4.46
855.156	8.34
855.325	-0.77
855.494	15.16
855.663	33.28
855.832	34.65
856.001	27.83
856.171	29.07
856.34	35.27
856.509	48.35
856.678	25.59
856.847	25.83
857.016	23.71
857.185	10.64
857.353	13
857.522	3.53
857.691	0.75
857.86	3.27
858.029	-10.52
858.198	-14.08
858.367	-24.56
858.535	-16.09
858.704	-16.39
858.873	-17.78
859.042	-3.75
859.21	-19.22
859.379	-15.54
859.548	-18.44
859.717	-18.97
859.885	-8.38
860.054	-2.8
860.222	-8.19
860.391	5.05
860.56	-0.23
860.728	-5.46
860.897	2.69
861.065	5.09
861.234	18.08
861.402	23.84
861.571	20.97
861.739	34.41
861.908	28.78
862.076	25.4
862.244	24.44
862.413	32.07
862.581	38.52
862.749	48.36
862.918	49.71
863.086	46.82
863.254	32.95
863.423	43.53
863.591	45.3
863.759	40.2
863.927	40.78
864.096	39.38
864.264	36.5
864.432	27.26
864.6	6.26
864.768	-2.31
864.936	-31.34
865.104	-8.52
865.272	-18.19
865.44	-17.25
865.608	-29.63
865.776	-7.42
865.944	-30.28
866.112	-19.97
866.28	-18.19
866.448	-10.78
866.616	-3.74
866.784	20.72
866.952	2.25
867.12	-3.39
867.288	-3.82
867.455	-18.6
867.623	-20.51
867.791	-3.06
867.959	-9.55
868.127	5.08
868.294	-1.71
868.462	-7.15
868.63	-7.31
868.797	-1.79
868.965	10.31
869.133	1.98
869.3	16.39
869.468	14.53
869.636	10.13
869.803	17.51
869.971	11.34
870.138	25.78
870.306	31.84
870.473	24.74
870.641	12.02
870.808	8.08
870.975	5.01
871.143	-3.59
871.31	-9.98
871.478	-12.51
871.645	-3.21
871.812	-6.85
871.98	-23.76
872.147	-10.69
872.314	10.52
872.482	22.58
872.649	-19.99
872.816	-0.02
872.983	11.1
873.15	22.53
873.318	9.85
873.485	-7.38
873.652	17.88
873.819	15.49
873.986	-8.15
874.153	-35.29
874.32	-29.4
874.487	-22.39
874.654	-26.37
874.821	-22.79
874.988	-47.89
875.155	-56.9
875.322	-73.79
875.489	-115.6
875.656	-188.74
875.823	-106.85
875.99	-109.67
876.157	-117.78
876.324	-67.63
876.49	-41.66
876.657	-43.64
876.824	-30.46
876.991	-17.97
877.157	-15.14
877.324	-7.19
877.491	-5.37
877.658	-7.82
877.824	-9.29
877.991	-3.36
878.157	-2.03
878.324	-32.67
878.491	-24.69
878.657	-26.18
878.824	-59.17
878.99	-119.14
879.157	-44.05
879.323	-8.74
879.49	-0.54
879.656	-9.93
879.823	23.04
879.989	-8.7
880.156	12.51
880.322	-10.34
880.488	-5.42
880.655	-4.05
880.821	2.23
880.987	-21.24
881.154	-17.79
881.32	-23.22
881.486	-19.9
881.652	-20.63
881.819	-3.11
881.985	-0.52
882.151	5.04
882.317	7.28
882.483	12.41
882.649	16.65
882.816	20.62
882.982	20.71
883.148	22.84
883.314	25.87
883.48	22.99
883.646	20.49
883.812	22.53
883.978	24.1
884.144	25.48
884.31	29.16
884.476	27.57
884.642	24.62
884.807	23.78
884.973	23.3
885.139	27.71
885.305	33.08
885.471	36.36
885.637	32.95
885.802	29.68
885.968	26.59
886.134	18.7
886.3	22.26
886.465	24.73
886.631	24.1
886.797	27.52
886.962	25.59
887.128	24.59
887.293	17.89
887.459	25.34
887.625	33.12
887.79	31.97
887.956	34.24
888.121	31.14
888.287	35.14
888.452	41.65
888.618	33.41
888.783	16.85
