Data from 2938125_Reflection_1.txt Node
Date: Sat Jul 11 17:27:54 EDT 2015
User: robert
Spectrometer: USB4E03001
Autoset integration time: false
Trigger mode: 4
Integration Time (sec): 1.000000E-1
Scans to average: 10
Electric dark correction enabled: true
Nonlinearity correction enabled: false
Boxcar width: 5
Stray light correction enabled: false
XAxis mode: Wavelengths
Stop averaging: false
Number of Pixels in Spectrum: 3648
>>>>>Begin Spectral Data<<<<<
177.566	-18.23
177.785	620.59
178.005	-172.51
178.225	-937.5
178.445	87.11
178.665	73.79
178.885	-110.38
179.105	-323.7
179.324	309.62
179.544	114.86
179.764	149
179.984	127.88
180.204	154.12
180.423	136.59
180.643	102.32
180.863	151.41
181.083	156.66
181.302	164
181.522	166.57
181.742	209.96
181.961	268.61
182.181	265.81
182.401	258.92
182.621	331.92
182.84	338.84
183.06	364.54
183.279	300.41
183.499	335.7
183.719	323.89
183.938	345.6
184.158	288.14
184.377	234.68
184.597	202.46
184.816	184.2
185.036	153.66
185.256	148.55
185.475	153.9
185.695	155.97
185.914	143.55
186.134	164.58
186.353	146.09
186.572	146.68
186.792	129.12
187.011	147.89
187.231	159.52
187.45	163.61
187.67	154.2
187.889	151.69
188.108	152.68
188.328	143.95
188.547	136.75
188.766	161.36
188.986	159.2
189.205	173.41
189.424	156.96
189.644	171.03
189.863	197.16
190.082	192.66
190.302	171.67
190.521	154.7
190.74	172.89
190.959	173.44
191.178	159.66
191.398	164.02
191.617	175.3
191.836	175.47
192.055	131.26
192.274	119.28
192.494	103.16
192.713	109.64
192.932	122.92
193.151	107.85
193.37	92.65
193.589	102.46
193.808	101.73
194.027	107.52
194.246	120.85
194.465	145.32
194.685	141.17
194.904	182.23
195.123	247.62
195.342	217.51
195.561	272.47
195.78	435.24
195.999	289
196.218	231.96
196.436	214.3
196.655	165.95
196.874	164.01
197.093	133.44
197.312	118.75
197.531	99.21
197.75	96.67
197.969	89.71
198.188	87.21
198.407	79.08
198.625	73.24
198.844	85.3
199.063	86.39
199.282	82.72
199.501	88.29
199.719	85.8
199.938	98.79
200.157	100.52
200.376	102.11
200.594	92.16
200.813	99.75
201.032	117.85
201.251	107.07
201.469	116.95
201.688	121.7
201.907	114.7
202.125	124.6
202.344	103.21
202.563	106.29
202.781	108.86
203	123.8
203.218	121.73
203.437	116.49
203.656	114.94
203.874	107.5
204.093	117.07
204.311	131.1
204.53	133.19
204.748	166.75
204.967	175.01
205.185	155.85
205.404	136.88
205.622	130.99
205.841	120.34
206.059	141.5
206.278	165.94
206.496	129.36
206.715	133.34
206.933	113.73
207.151	108.63
207.37	107.21
207.588	118.34
207.806	129.74
208.025	126.5
208.243	133.75
208.461	120.89
208.68	104.95
208.898	118.48
209.116	113.16
209.335	141.98
209.553	161.32
209.771	149.57
209.989	153.98
210.208	139.16
210.426	173.57
210.644	188.99
210.862	193.26
211.081	230.18
211.299	200.79
211.517	193.96
211.735	166.78
211.953	138.09
212.171	128.27
212.39	116.58
212.608	124.3
212.826	118.1
213.044	126.25
213.262	142.9
213.48	129.46
213.698	137.57
213.916	147.71
214.134	155.61
214.352	177.58
214.57	213.86
214.788	271.84
215.006	224.46
215.224	201.51
215.442	165.39
215.66	171.71
215.878	150.87
216.096	147.68
216.314	122.27
216.532	131.86
216.75	130.51
216.968	126.45
217.185	119.15
217.403	157.75
217.621	153.01
217.839	151.67
218.057	144.5
218.275	177.94
218.492	168.71
218.71	199.56
218.928	231.07
219.146	215.82
219.363	224.67
219.581	224.3
219.799	189.81
220.017	193.87
220.234	178.5
220.452	175.76
220.67	160.16
220.887	158.01
221.105	144.6
221.323	158.42
221.54	150.17
221.758	127.39
221.976	126.23
222.193	147.13
222.411	153.9
222.629	163.63
222.846	168.83
223.064	174.39
223.281	189.57
223.499	183.87
223.716	132.41
223.934	144.03
224.151	154.36
224.369	147.51
224.586	114.96
224.804	101.52
225.021	97.46
225.239	92.69
225.456	79.34
225.674	69.63
225.891	73.28
226.108	76.41
226.326	68.98
226.543	57.11
226.76	46.01
226.978	53.27
227.195	52.51
227.413	41.75
227.63	38.47
227.847	39.87
228.064	37.98
228.282	33.54
228.499	33.64
228.716	32.69
228.934	29.23
229.151	32.09
229.368	31.12
229.585	32.83
229.802	35.26
230.02	38.39
230.237	38.78
230.454	39.73
230.671	43.34
230.888	42.05
231.105	44.29
231.323	50.17
231.54	52.15
231.757	51.91
231.974	50.27
232.191	50.02
232.408	50.33
232.625	49.11
232.842	52.6
233.059	49.74
233.276	47.95
233.493	46.81
233.71	45.27
233.927	45.84
234.144	49.44
234.361	46.73
234.578	49.35
234.795	46.27
235.012	47.91
235.229	44.28
235.446	50.36
235.663	53.44
235.879	56.06
236.096	55.71
236.313	55.52
236.53	49.98
236.747	58.52
236.964	58.26
237.181	55.2
237.397	51.71
237.614	55.62
237.831	46.77
238.048	44.45
238.264	42.51
238.481	45.14
238.698	44.92
238.915	42.29
239.131	37.32
239.348	35.53
239.565	39.45
239.781	40.39
239.998	38.17
240.215	43.05
240.431	44.65
240.648	40.92
240.865	38.43
241.081	35.19
241.298	34.47
241.514	33.29
241.731	32.31
241.947	28.97
242.164	27.6
242.38	27.11
242.597	24.63
242.814	22.55
243.03	22.7
243.246	23.59
243.463	22.52
243.679	25.33
243.896	25.6
244.112	24.91
244.329	27.68
244.545	28.54
244.762	29.09
244.978	30.43
245.194	29.18
245.411	28.03
245.627	25.02
245.843	27.03
246.06	24.02
246.276	22.98
246.492	22.07
246.709	21.74
246.925	19.88
247.141	19.2
247.357	18.44
247.574	19.04
247.79	19.48
248.006	19.41
248.222	18.73
248.439	19.26
248.655	19.94
248.871	19.93
249.087	20.14
249.303	21.95
249.519	22.77
249.736	24.49
249.952	24.47
250.168	26.83
250.384	29.14
250.6	28.41
250.816	29.09
251.032	27.96
251.248	29.31
251.464	26.66
251.68	24.82
251.896	24.67
252.112	23.84
252.328	25.81
252.544	24.9
252.76	23.91
252.976	24.79
253.192	24.84
253.408	24.79
253.624	25.16
253.84	27.46
254.056	29.45
254.272	28.05
254.487	27.79
254.703	26.43
254.919	25.49
255.135	24.07
255.351	23.14
255.567	23.14
255.782	23.35
255.998	21.33
256.214	18.09
256.43	18.13
256.646	18.13
256.861	16.52
257.077	17.33
257.293	17.84
257.508	18.34
257.724	19.07
257.94	16.75
258.155	16.99
258.371	17.93
258.587	16.81
258.802	16.04
259.018	15.98
259.234	15.77
259.449	15.23
259.665	14.92
259.88	15.12
260.096	14.75
260.312	15.34
260.527	15.2
260.743	15.03
260.958	15.51
261.174	15.48
261.389	16.33
261.605	17.76
261.82	17.89
262.036	18.39
262.251	18.62
262.466	19.34
262.682	20.63
262.897	21.87
263.113	22.2
263.328	23.37
263.543	23.62
263.759	23.19
263.974	22.89
264.189	24.14
264.405	24.74
264.62	25.6
264.835	25.45
265.051	24.06
265.266	24.39
265.481	24.89
265.696	26.31
265.912	25.8
266.127	25.78
266.342	23.69
266.557	22.15
266.773	20.51
266.988	19.61
267.203	19.74
267.418	19.98
267.633	18.88
267.848	19.6
268.064	18.7
268.279	19.76
268.494	19.15
268.709	20.19
268.924	20.57
269.139	20.58
269.354	21.35
269.569	20.99
269.784	19.65
269.999	19.5
270.214	18.19
270.429	19.56
270.644	17.67
270.859	18.41
271.074	16.79
271.289	18.92
271.504	20.06
271.719	19.76
271.934	20.18
272.149	19.87
272.363	19.46
272.578	19.32
272.793	18.07
273.008	19.39
273.223	18.87
273.438	20.66
273.653	19.27
273.867	19.69
274.082	19.32
274.297	18.83
274.512	20.86
274.726	21.48
274.941	21.67
275.156	21.72
275.371	22.47
275.585	23.46
275.8	24.53
276.015	25.79
276.229	25.24
276.444	26
276.659	25.18
276.873	23.75
277.088	25.03
277.302	25.75
277.517	25.14
277.732	25.33
277.946	24.14
278.161	23.45
278.375	22.81
278.59	23.09
278.804	20.42
279.019	24.13
279.233	24.29
279.448	22.15
279.662	20.52
279.877	20.65
280.091	20.34
280.306	20.82
280.52	19.97
280.735	19.31
280.949	18.99
281.163	21.7
281.378	19.39
281.592	19.01
281.806	20.04
282.021	21.3
282.235	22.31
282.449	22.74
282.664	21.01
282.878	20.93
283.092	20.06
283.307	19.68
283.521	19.07
283.735	19.93
283.949	19.63
284.164	18.84
284.378	17.3
284.592	17.62
284.806	16.69
285.02	18.72
285.234	18.84
285.449	19.58
285.663	19.21
285.877	19.36
286.091	19.16
286.305	21.17
286.519	21.59
286.733	21.59
286.947	21.24
287.161	20.73
287.375	19.95
287.589	20.19
287.803	19.55
288.017	20.42
288.231	19.01
288.445	17.82
288.659	15.49
288.873	15.84
289.087	17.95
289.301	16.89
289.515	17.02
289.729	16.67
289.943	15.81
290.157	15.16
290.371	14.34
290.584	14.97
290.798	15.54
291.012	16.99
291.226	15.79
291.44	15.37
291.654	16.07
291.867	15.82
292.081	16.24
292.295	16.71
292.509	18.18
292.722	19.28
292.936	19.37
293.15	19.37
293.364	18.68
293.577	19.75
293.791	20.28
294.005	21.08
294.218	22.06
294.432	22.44
294.645	23.2
294.859	22.34
295.073	21.15
295.286	20.55
295.5	21.22
295.713	21.05
295.927	21.94
296.14	21.27
296.354	19.56
296.568	18.08
296.781	18.35
296.994	17.77
297.208	18.04
297.421	19.35
297.635	20.1
297.848	18.97
298.062	18.02
298.275	16.95
298.489	17.74
298.702	18.85
298.915	19.19
299.129	20.13
299.342	21.46
299.555	22.22
299.769	22.01
299.982	22.45
300.195	23.47
300.409	25.95
300.622	27.4
300.835	25.35
301.048	25.54
301.262	28.64
301.475	27.8
301.688	26.26
301.901	25.12
302.115	24.98
302.328	25.17
302.541	25.61
302.754	24.57
302.967	24.69
303.18	25.85
303.393	26.36
303.607	25.24
303.82	25.01
304.033	24.34
304.246	24.59
304.459	23.91
304.672	23.1
304.885	22.91
305.098	23.91
305.311	24.35
305.524	23.46
305.737	21.74
305.95	21.3
306.163	21.14
306.376	22.14
306.589	22.88
306.802	23.93
307.015	25.97
307.228	24.99
307.44	23.8
307.653	22.45
307.866	22.68
308.079	24.09
308.292	22.79
308.505	22.51
308.718	22.65
308.93	22.49
309.143	22.71
309.356	20.86
309.569	21.5
309.781	21.67
309.994	21.65
310.207	22.34
310.42	21.73
310.632	22.39
310.845	22.5
311.058	22.85
311.27	23.42
311.483	23.65
311.696	24.4
311.908	24.97
312.121	25.1
312.333	25.19
312.546	25.42
312.759	26.02
312.971	26.9
313.184	26.81
313.396	27.29
313.609	27.45
313.821	26.87
314.034	27.13
314.246	27.47
314.459	28.16
314.671	28.13
314.884	27.56
315.096	28.86
315.309	29.8
315.521	28.79
315.733	28.95
315.946	27.07
316.158	27.54
316.371	25.74
316.583	24.6
316.795	23.82
317.008	24.65
317.22	25.36
317.432	23.93
317.644	21.65
317.857	24.01
318.069	23.65
318.281	24.66
318.494	22.6
318.706	23.46
318.918	23.57
319.13	22.99
319.342	21.24
319.555	20.92
319.767	20.63
319.979	20.64
320.191	20.57
320.403	20.49
320.615	21.17
320.827	21.68
321.039	22.53
321.252	23.57
321.464	25.28
321.676	26.58
321.888	25.44
322.1	25.94
322.312	23.38
322.524	23.12
322.736	22.54
322.948	21.6
323.16	21.02
323.372	20.41
323.584	20.33
323.796	19.51
324.007	17.62
324.219	17.74
324.431	17.6
324.643	19.74
324.855	18.79
325.067	18.38
325.279	18.02
325.491	19.09
325.702	18.72
325.914	17.94
326.126	18.94
326.338	19.79
326.55	18.87
326.761	19.65
326.973	20
327.185	21.12
327.396	22.83
327.608	23.26
327.82	24.36
328.032	24.76
328.243	26.43
328.455	24.99
328.666	25.61
328.878	27.34
329.09	25.68
329.301	26.73
329.513	26.97
329.725	25.33
329.936	26.54
330.148	26.17
330.359	26.62
330.571	26.34
330.782	26.31
330.994	25.53
331.205	26.04
331.417	25.51
331.628	24.63
331.84	24.8
332.051	24.58
332.262	24.95
332.474	22.82
332.685	23.22
332.897	21.55
333.108	22.92
333.319	24.66
333.531	23.36
333.742	24.2
333.953	24.22
334.165	23.82
334.376	24.84
334.587	23.81
334.799	24.51
335.01	23.85
335.221	23.84
335.432	22.05
335.644	20.59
335.855	20.78
336.066	21.52
336.277	20.77
336.488	20.65
336.7	19.97
336.911	21.47
337.122	21.44
337.333	20.48
337.544	21.15
337.755	20.89
337.966	20.63
338.177	22.24
338.388	21.54
338.599	22.38
338.811	21.4
339.022	20.01
339.233	17.71
339.444	18.21
339.655	18.79
339.866	19.34
340.076	21.09
340.287	22.6
340.498	21.64
340.709	20.89
340.92	21.01
341.131	21.68
341.342	22.75
341.553	23.1
341.764	22.93
341.975	23.81
342.185	22.39
342.396	21.16
342.607	20.1
342.818	20.12
343.029	21.14
343.239	20.52
343.45	20.37
343.661	18.59
343.872	18.62
344.082	17.93
344.293	16.34
344.504	17.53
344.714	17.74
344.925	18.75
345.136	18.26
345.346	17.51
345.557	17.38
345.768	17.4
345.978	20.25
346.189	20.04
346.399	19.5
346.61	19.36
346.821	18.78
347.031	19.05
347.242	18.77
347.452	18.92
347.663	19.5
347.873	19.44
348.084	18.75
348.294	18.04
348.504	18.41
348.715	18.96
348.925	20.62
349.136	20.17
349.346	20.3
349.557	19.45
349.767	19.23
349.977	19.44
350.188	18.7
350.398	19.34
350.608	18.18
350.819	18.44
351.029	19.76
351.239	19.76
351.449	21.04
351.66	21.18
351.87	21.71
352.08	21.18
352.29	21.67
352.501	22.49
352.711	22.79
352.921	24.36
353.131	23.6
353.341	22.91
353.552	22.43
353.762	21.01
353.972	19.02
354.182	17.85
354.392	18.65
354.602	17.81
354.812	17.27
355.022	16.6
355.232	16.08
355.442	16.19
355.652	15.96
355.862	15.5
356.072	15.9
356.282	17.6
356.492	18.19
356.702	17.99
356.912	17.99
357.122	18.23
357.332	18.11
357.542	17.7
357.752	17.83
357.962	17.91
358.171	17.7
358.381	17.53
358.591	17.73
358.801	18.37
359.011	17.84
359.221	17.48
359.43	17.45
359.64	16.97
359.85	17.89
360.06	17.86
360.269	16.8
360.479	16.78
360.689	16.7
360.899	16.73
361.108	15.68
361.318	16.59
361.528	16.5
361.737	16.45
361.947	17.35
362.156	16.81
362.366	16.6
362.576	16.56
362.785	16.88
362.995	16.89
363.204	16.64
363.414	17.3
363.623	16.7
363.833	17.64
364.042	17.28
364.252	17.39
364.461	17.16
364.671	16.88
364.88	18.13
365.09	17.69
365.299	17.59
365.509	16.36
365.718	16.28
365.927	16.2
366.137	15.24
366.346	15.09
366.555	14
366.765	14.94
366.974	14.88
367.183	13.72
367.393	13.8
367.602	13.35
367.811	14.61
368.021	13.88
368.23	13.35
368.439	13.3
368.648	14.11
368.857	14.53
369.067	13.62
369.276	14.59
369.485	15.56
369.694	15.83
369.903	16.72
370.112	16.38
370.321	16.17
370.531	15.76
370.74	16.51
370.949	15.78
371.158	15.05
371.367	14.39
371.576	13.73
371.785	13.29
371.994	12.7
372.203	12.51
372.412	12.4
372.621	13.37
372.83	13.93
373.039	13.66
373.248	14.09
373.457	14.4
373.666	14.7
373.874	14.6
374.083	14.45
374.292	14.41
374.501	14.15
374.71	13.93
374.919	13.58
375.128	13.05
375.336	11.94
375.545	11.61
375.754	11.72
375.963	11.72
376.171	11.16
376.38	11.09
376.589	11.58
376.798	11.21
377.006	11.61
377.215	11.54
377.424	11.28
377.632	11.49
377.841	11.09
378.05	10.82
378.258	10.51
378.467	11.23
378.675	11.23
378.884	10.76
379.093	10.91
379.301	10.36
379.51	9.93
379.718	10.59
379.927	10.38
380.135	10.72
380.344	10.68
380.552	10.44
380.761	10.38
380.969	10.22
381.177	10.85
381.386	10.93
381.594	11.15
381.803	11.1
382.011	10.83
382.219	10.94
382.428	10.73
382.636	10.48
382.845	10.68
383.053	10.54
383.261	10.11
383.469	10.01
383.678	9.94
383.886	9.59
384.094	9.4
384.302	9.67
384.511	9.83
384.719	9.81
384.927	9.8
385.135	10.66
385.343	10.6
385.552	11.13
385.76	10.66
385.968	10.86
386.176	10.87
386.384	11.03
386.592	10.42
386.8	10.49
387.008	10.83
387.216	10.9
387.424	10.56
387.633	10.18
387.841	9.74
388.049	9.73
388.257	9.32
388.465	9.17
388.672	9.27
388.88	9.45
389.088	9.41
389.296	9.02
389.504	9.11
389.712	8.63
389.92	8.73
390.128	8.88
390.336	8.58
390.544	8.68
390.751	8.35
390.959	8.15
391.167	8.27
391.375	8.15
391.583	7.85
391.79	7.66
391.998	7.69
392.206	7.73
392.414	7.52
392.621	7.58
392.829	7.23
393.037	7.63
393.244	7.6
393.452	7.44
393.66	7.24
393.867	7.66
394.075	7.68
394.283	7.67
394.49	7.7
394.698	7.85
394.905	7.77
395.113	7.79
395.32	7.63
395.528	8.05
395.735	8.11
395.943	7.89
396.15	7.75
396.358	7.51
396.565	7.22
396.773	6.93
396.98	6.97
397.188	7.22
397.395	6.99
397.602	7.09
397.81	6.63
398.017	6.58
398.225	6.76
398.432	6.51
398.639	6.74
398.847	6.86
399.054	6.84
399.261	7.26
399.468	7
399.676	7.27
399.883	7.04
400.09	7.19
400.297	7.33
400.505	7.51
400.712	7.7
400.919	7.55
401.126	7.44
401.333	7.64
401.54	7.01
401.748	6.83
401.955	6.63
402.162	6.79
402.369	6.49
402.576	5.83
402.783	5.53
402.99	5.36
403.197	5.16
403.404	5.32
403.611	5.18
403.818	5.38
404.025	5.58
404.232	5.83
404.439	5.74
404.646	5.82
404.853	6.29
405.06	6.13
405.267	6.03
405.474	6.12
405.681	5.97
405.887	5.88
406.094	5.79
406.301	6.11
406.508	5.83
406.715	5.99
406.922	6.23
407.128	5.83
407.335	5.81
407.542	6.13
407.749	6.38
407.955	6.81
408.162	6.78
408.369	6.82
408.575	6.7
408.782	7.14
408.989	6.93
409.195	6.74
409.402	7.13
409.609	7.28
409.815	7.03
410.022	7.02
410.228	6.44
410.435	6.62
410.642	6.32
410.848	5.91
411.055	5.51
411.261	5.65
411.468	5.39
411.674	5.26
411.881	5.38
412.087	5.31
412.294	5.3
412.5	5.64
412.706	5.43
412.913	5.43
413.119	5.67
413.326	5.87
413.532	5.57
413.738	5.75
413.945	5.92
414.151	5.81
414.357	5.86
414.564	5.83
414.77	5.64
414.976	5.68
415.182	5.75
415.389	5.44
415.595	5.12
415.801	5.32
416.007	5.15
416.214	4.87
416.42	4.95
416.626	4.81
416.832	4.74
417.038	4.85
417.244	4.81
417.45	4.78
417.657	4.92
417.863	4.95
418.069	4.8
418.275	4.97
418.481	4.89
418.687	4.77
418.893	4.7
419.099	4.53
419.305	4.39
419.511	4.41
419.717	4.45
419.923	4.29
420.129	4.41
420.335	4.47
420.541	4.37
420.746	4.3
420.952	4.37
421.158	4.26
421.364	4.33
421.57	4.47
421.776	4.38
421.982	4.37
422.187	4.47
422.393	4.31
422.599	4.27
422.805	4.31
423.01	4.38
423.216	4.3
423.422	4.41
423.628	4.34
423.833	4.16
424.039	4.32
424.245	4.31
424.45	4.41
424.656	4.47
424.862	4.35
425.067	4.23
425.273	4.25
425.478	4.18
425.684	4.15
425.889	4.29
426.095	4.5
426.301	4.47
426.506	4.41
426.712	4.31
426.917	4.36
427.123	4.33
427.328	4.48
427.533	4.44
427.739	4.51
427.944	4.59
428.15	4.59
428.355	4.37
428.561	4.43
428.766	4.66
428.971	4.73
429.177	4.56
429.382	4.67
429.587	4.47
429.793	4.67
429.998	4.87
430.203	5.05
430.408	4.94
430.614	5.05
430.819	4.98
431.024	4.93
431.229	4.95
431.434	5.01
431.64	5.21
431.845	5.52
432.05	5.43
432.255	5.3
432.46	5.09
432.665	5.18
432.87	5.17
433.076	5.13
433.281	5.11
433.486	4.89
433.691	5.01
433.896	4.64
434.101	4.59
434.306	4.43
434.511	4.48
434.716	4.63
434.921	4.64
435.126	4.4
435.331	4.32
435.535	4.18
435.74	4.12
435.945	4.03
436.15	4.06
436.355	4.1
436.56	4.21
436.765	4.2
436.97	4.1
437.174	3.97
437.379	4.08
437.584	4.16
437.789	4.17
437.993	4.45
438.198	4.44
438.403	4.76
438.608	4.55
438.812	4.66
439.017	4.54
439.222	4.64
439.426	4.65
439.631	4.62
439.836	4.47
440.04	4.42
440.245	4.47
440.45	4.48
440.654	4.42
440.859	4.51
441.063	4.3
441.268	4.38
441.472	4.26
441.677	4.32
441.881	4.51
442.086	4.58
442.29	4.57
442.495	4.45
442.699	4.56
442.904	4.49
443.108	4.39
443.312	4.41
443.517	4.24
443.721	4.14
443.925	4.06
444.13	3.88
444.334	3.89
444.538	3.97
444.743	3.79
444.947	3.59
445.151	3.62
445.356	3.71
445.56	3.72
445.764	3.72
445.968	3.79
446.173	3.65
446.377	3.58
446.581	3.58
446.785	3.61
446.989	3.66
447.193	3.68
447.398	3.62
447.602	3.57
447.806	3.62
448.01	3.72
448.214	3.63
448.418	3.74
448.622	4.07
448.826	4.18
449.03	4.03
449.234	3.99
449.438	4.11
449.642	4.23
449.846	4.13
450.05	4.1
450.254	4.12
450.458	4.08
450.662	3.98
450.866	3.48
451.069	3.21
451.273	3.32
451.477	3.32
451.681	3.19
451.885	3.23
452.089	3.51
452.292	3.47
452.496	3.67
452.7	3.9
452.904	4.06
453.107	4.38
453.311	4.36
453.515	4.4
453.719	4.46
453.922	4.45
454.126	4.41
454.33	4.22
454.533	4.38
454.737	4.14
454.94	4.26
455.144	4.2
455.348	4.02
455.551	4.19
455.755	4.28
455.958	4.42
456.162	4.53
456.365	4.65
456.569	4.63
456.772	4.48
456.976	4.61
457.179	4.4
457.383	4.22
457.586	4.2
457.79	4.15
457.993	4.03
458.196	4.03
458.4	4.09
458.603	4.07
458.807	4.03
459.01	4.06
459.213	3.85
459.417	3.84
459.62	4.03
459.823	4.06
460.026	4.06
460.23	4
460.433	3.93
460.636	3.87
460.839	3.76
461.042	3.8
461.246	3.81
461.449	3.82
461.652	3.9
461.855	3.83
462.058	3.92
462.261	3.96
462.464	4.07
462.668	4.13
462.871	4.26
463.074	4.33
463.277	4.36
463.48	4.48
463.683	4.69
463.886	4.66
464.089	4.48
464.292	4.22
464.495	4.19
464.698	4.15
464.901	4.15
465.104	4.03
465.306	3.98
465.509	4.12
465.712	3.82
465.915	3.63
466.118	3.54
466.321	3.78
466.524	3.77
466.726	3.78
466.929	3.75
467.132	3.7
467.335	3.79
467.538	3.96
467.74	3.98
467.943	4.05
468.146	4.17
468.348	4.26
468.551	4.22
468.754	4.33
468.956	4.33
469.159	4.29
469.362	4.35
469.564	4.13
469.767	3.99
469.969	3.85
470.172	4.03
470.375	4.14
470.577	4.25
470.78	4.27
470.982	4.42
471.185	4.61
471.387	4.47
471.59	4.42
471.792	4.61
471.995	4.72
472.197	4.58
472.399	4.57
472.602	4.49
472.804	4.47
473.007	4.46
473.209	4.35
473.411	4.25
473.614	4.41
473.816	4.52
474.018	4.5
474.22	4.2
474.423	4.44
474.625	4.38
474.827	4.45
475.03	4.35
475.232	4.26
475.434	4.31
475.636	4.24
475.838	4.11
476.04	3.98
476.243	3.94
476.445	3.94
476.647	3.99
476.849	4.04
477.051	3.97
477.253	3.98
477.455	4.01
477.657	3.83
477.859	3.83
478.061	3.77
478.263	3.8
478.465	3.81
478.667	3.95
478.869	3.7
479.071	3.67
479.273	3.65
479.475	3.62
479.677	3.54
479.879	3.8
480.081	3.73
480.283	3.92
480.485	4.01
480.686	4.15
480.888	4.1
481.09	4.28
481.292	4.18
481.494	4.04
481.695	4.02
481.897	4.05
482.099	3.87
482.301	3.89
482.502	3.82
482.704	3.73
482.906	3.52
483.107	3.5
483.309	3.34
483.511	3.32
483.712	3.3
483.914	3.3
484.115	3.26
484.317	3.27
484.519	3.25
484.72	3.26
484.922	3.22
485.123	3.3
485.325	3.31
485.526	3.43
485.728	3.49
485.929	3.52
486.131	3.44
486.332	3.46
486.534	3.49
486.735	3.43
486.936	3.41
487.138	3.45
487.339	3.44
487.541	3.37
487.742	3.32
487.943	3.27
488.144	3.28
488.346	3.36
488.547	3.39
488.748	3.33
488.95	3.39
489.151	3.4
489.352	3.44
489.553	3.45
489.755	3.46
489.956	3.46
490.157	3.52
490.358	3.54
490.559	3.61
490.76	3.67
490.961	3.67
491.163	3.62
491.364	3.6
491.565	3.59
491.766	3.61
491.967	3.67
492.168	3.66
492.369	3.64
492.57	3.61
492.771	3.5
492.972	3.44
493.173	3.41
493.374	3.45
493.575	3.45
493.776	3.38
493.976	3.4
494.177	3.37
494.378	3.45
494.579	3.52
494.78	3.58
494.981	3.59
495.182	3.45
495.382	3.56
495.583	3.62
495.784	3.7
495.985	3.76
496.185	3.75
496.386	3.71
496.587	3.82
496.788	3.79
496.988	3.75
497.189	3.93
497.39	4.13
497.59	4.17
497.791	4.28
497.992	4.26
498.192	4.26
498.393	4.15
498.593	4.2
498.794	4.08
498.994	4.13
499.195	4.24
499.395	4.29
499.596	4.26
499.796	4.35
499.997	4.37
500.197	4.31
500.398	4.44
500.598	4.63
500.799	4.77
500.999	4.82
501.199	4.76
501.4	4.76
501.6	4.79
501.801	4.77
502.001	4.63
502.201	4.54
502.402	4.59
502.602	4.44
502.802	4.37
503.002	4.27
503.203	4.33
503.403	4.3
503.603	4.2
503.803	4.06
504.003	4.21
504.204	4.18
504.404	4.08
504.604	4.22
504.804	4.23
505.004	4.28
505.204	4.35
505.404	4.25
505.604	4.42
505.804	4.56
506.005	4.67
506.205	4.5
506.405	4.5
506.605	4.58
506.805	4.49
507.005	4.51
507.204	4.5
507.404	4.43
507.604	4.43
507.804	4.25
508.004	4.2
508.204	4.12
508.404	4.25
508.604	4.35
508.804	4.41
509.003	4.26
509.203	4.26
509.403	4.14
509.603	4.29
509.803	4.42
510.002	4.56
510.202	4.57
510.402	4.55
510.602	4.38
510.801	4.31
511.001	4.22
511.201	4.35
511.4	4.44
511.6	4.57
511.8	4.52
511.999	4.43
512.199	4.45
512.398	4.47
512.598	4.44
512.797	4.68
512.997	4.64
513.197	4.56
513.396	4.55
513.596	4.46
513.795	4.61
513.994	4.44
514.194	4.33
514.393	4.26
514.593	4.38
514.792	4.43
514.992	4.27
515.191	4.39
515.39	4.59
515.59	4.46
515.789	4.5
515.988	4.4
516.188	4.42
516.387	4.5
516.586	4.38
516.786	4.35
516.985	4.47
517.184	4.56
517.383	4.62
517.582	4.62
517.782	4.7
517.981	4.78
518.18	4.75
518.379	4.77
518.578	4.85
518.777	4.88
518.976	4.78
519.176	4.77
519.375	4.71
519.574	4.61
519.773	4.57
519.972	4.7
520.171	4.68
520.37	4.58
520.569	4.61
520.768	4.66
520.967	4.79
521.166	4.84
521.365	4.72
521.564	4.85
521.762	4.9
521.961	4.9
522.16	4.74
522.359	4.77
522.558	4.92
522.757	5.02
522.956	4.89
523.154	4.88
523.353	4.89
523.552	4.8
523.751	4.77
523.949	4.7
524.148	4.73
524.347	4.86
524.546	4.76
524.744	4.77
524.943	4.73
525.142	4.74
525.34	4.72
525.539	4.78
525.737	4.88
525.936	4.76
526.135	4.77
526.333	4.74
526.532	4.75
526.73	4.81
526.929	4.72
527.127	4.7
527.326	4.62
527.524	4.64
527.723	4.59
527.921	4.6
528.12	4.61
528.318	4.68
528.516	4.66
528.715	4.55
528.913	4.55
529.112	4.52
529.31	4.52
529.508	4.52
529.707	4.49
529.905	4.46
530.103	4.42
530.301	4.45
530.5	4.48
530.698	4.51
530.896	4.64
531.094	4.68
531.293	4.74
531.491	4.85
531.689	4.9
531.887	4.97
532.085	5.05
532.283	5.11
532.481	5.21
532.68	5.14
532.878	5.17
533.076	5.07
533.274	4.94
533.472	4.94
533.67	4.94
533.868	4.98
534.066	4.96
534.264	5.01
534.462	4.98
534.66	4.9
534.858	4.87
535.056	4.89
535.253	5.04
535.451	5.23
535.649	5.3
535.847	5.23
536.045	5.27
536.243	5.26
536.441	5.31
536.638	5.3
536.836	5.21
537.034	5.25
537.232	5.27
537.43	5.3
537.627	5.27
537.825	5.38
538.023	5.45
538.22	5.54
538.418	5.71
538.616	5.79
538.813	5.86
539.011	6.1
539.209	6.21
539.406	6.18
539.604	6.19
539.801	6.29
539.999	6.22
540.196	6.17
540.394	6.13
540.591	6.07
540.789	5.99
540.986	6.06
541.184	6.01
541.381	6.03
541.579	6.03
541.776	5.99
541.974	5.89
542.171	5.92
542.368	5.98
542.566	5.98
542.763	6.02
542.96	6.05
543.158	6.1
543.355	6.17
543.552	6.13
543.75	6.2
543.947	6.18
544.144	6.24
544.341	6.35
544.539	6.43
544.736	6.55
544.933	6.57
545.13	6.55
545.327	6.45
545.524	6.49
545.722	6.59
545.919	6.69
546.116	6.86
546.313	6.81
546.51	6.62
546.707	6.51
546.904	6.59
547.101	6.68
547.298	6.8
547.495	6.91
547.692	6.95
547.889	6.95
548.086	6.94
548.283	7
548.48	7.34
548.677	7.61
548.874	7.69
549.07	7.82
549.267	7.84
549.464	7.92
549.661	8.05
549.858	8.07
550.055	8.22
550.251	8.12
550.448	8.16
550.645	8.03
550.842	7.93
551.038	7.89
551.235	7.8
551.432	7.87
551.628	7.83
551.825	7.85
552.022	7.84
552.218	7.89
552.415	7.83
552.612	7.95
552.808	8.15
553.005	8.17
553.201	8.22
553.398	8.29
553.594	8.28
553.791	8.46
553.987	8.44
554.184	8.39
554.38	8.43
554.577	8.72
554.773	8.77
554.97	8.65
555.166	8.9
555.362	8.95
555.559	8.9
555.755	9.06
555.952	9.01
556.148	9.27
556.344	9.44
556.541	9.32
556.737	9.27
556.933	9.21
557.129	9.42
557.326	9.22
557.522	9.42
557.718	9.61
557.914	9.62
558.11	9.69
558.307	9.44
558.503	9.54
558.699	9.58
558.895	9.67
559.091	9.74
559.287	9.69
559.483	9.91
559.679	10.11
559.876	10.05
560.072	9.98
560.268	9.89
560.464	10.12
560.66	10.11
560.856	10.21
561.052	10.24
561.247	10.26
561.443	10.26
561.639	10.29
561.835	10.17
562.031	10.1
562.227	10.07
562.423	10.02
562.619	10.22
562.815	10.45
563.01	10.5
563.206	10.51
563.402	10.47
563.598	10.32
563.793	10.39
563.989	10.26
564.185	10.49
564.381	10.59
564.576	10.58
564.772	10.22
564.968	10.35
565.163	10.46
565.359	10.44
565.555	10.36
565.75	10.62
565.946	10.47
566.141	10.71
566.337	10.74
566.532	10.84
566.728	10.93
566.923	11.02
567.119	11.04
567.314	11.16
567.51	11.24
567.705	11.34
567.901	11.33
568.096	11.6
568.292	11.61
568.487	11.62
568.682	11.52
568.878	11.74
569.073	11.88
569.268	11.78
569.464	11.7
569.659	11.8
569.854	11.83
570.05	11.77
570.245	11.63
570.44	11.53
570.635	11.52
570.831	11.5
571.026	11.44
571.221	11.55
571.416	11.46
571.611	11.55
571.806	11.56
572.002	11.83
572.197	11.84
572.392	11.99
572.587	12.03
572.782	12.22
572.977	12.35
573.172	12.49
573.367	12.53
573.562	12.63
573.757	12.59
573.952	12.63
574.147	12.52
574.342	12.5
574.537	12.57
574.732	12.63
574.927	12.53
575.121	12.52
575.316	12.4
575.511	12.4
575.706	12.37
575.901	12.61
576.096	12.74
576.29	12.62
576.485	12.73
576.68	12.82
576.875	12.77
577.069	12.86
577.264	12.88
577.459	12.98
577.654	13.03
577.848	13.23
578.043	13
578.238	12.98
578.432	13.3
578.627	13.37
578.821	13.07
579.016	13.31
579.21	13.29
579.405	13.44
579.6	13.52
579.794	13.54
579.989	13.65
580.183	13.84
580.378	13.88
580.572	13.92
580.766	13.89
580.961	13.97
581.155	13.77
581.35	13.8
581.544	13.59
581.738	13.96
581.933	14
582.127	14
582.321	13.79
582.516	13.79
582.71	13.5
582.904	13.58
583.099	13.57
583.293	13.75
583.487	13.66
583.681	13.93
583.875	13.46
584.07	13.5
584.264	13.57
584.458	13.76
584.652	13.73
584.846	14
585.04	13.92
585.234	14.16
585.428	14.08
585.623	14.15
585.817	13.95
586.011	14.2
586.205	14.23
586.399	14.13
586.593	14.11
586.787	13.99
586.981	13.7
587.174	13.67
587.368	13.71
587.562	13.96
587.756	14.1
587.95	14.12
588.144	14.09
588.338	13.96
588.532	13.93
588.725	13.89
588.919	14.24
589.113	14.47
589.307	14.47
589.501	14.42
589.694	14.43
589.888	14.4
590.082	14.69
590.275	14.7
590.469	14.66
590.663	14.7
590.856	14.64
591.05	14.46
591.244	14.6
591.437	14.67
591.631	14.6
591.824	14.65
592.018	14.6
592.212	14.36
592.405	14.46
592.599	14.82
592.792	14.94
592.986	15
593.179	15.09
593.372	14.93
593.566	15.11
593.759	15.44
593.953	15.32
594.146	15.33
594.339	15.45
594.533	15.3
594.726	14.95
594.92	15.01
595.113	15.22
595.306	15.06
595.499	15.17
595.693	15.24
595.886	14.86
596.079	14.84
596.272	14.95
596.466	15.12
596.659	14.97
596.852	15.07
597.045	14.9
597.238	14.83
597.431	14.94
597.624	14.91
597.818	14.75
598.011	15.01
598.204	15.08
598.397	14.89
598.59	14.78
598.783	14.89
598.976	14.86
599.169	14.94
599.362	14.88
599.555	14.91
599.748	14.92
599.941	15.16
600.134	15.09
600.326	14.97
600.519	15.09
600.712	15.08
600.905	15.11
601.098	15.26
601.291	15.43
601.483	15.46
601.676	15.48
601.869	15.44
602.062	15.34
602.255	15.38
602.447	15.37
602.64	15.41
602.833	15.55
603.025	15.72
603.218	15.62
603.411	15.53
603.603	15.52
603.796	15.58
603.989	15.5
604.181	15.47
604.374	15.25
604.566	15.1
604.759	15.07
604.951	15.02
605.144	14.98
605.336	14.92
605.529	14.76
605.721	14.86
605.914	14.63
606.106	14.83
606.299	14.9
606.491	14.95
606.683	15.25
606.876	15.19
607.068	15
607.26	14.87
607.453	14.99
607.645	15.3
607.837	15.13
608.03	15.25
608.222	14.74
608.414	14.52
608.606	14.69
608.799	14.7
608.991	14.77
609.183	14.91
609.375	14.91
609.567	14.79
609.759	14.38
609.952	14.23
610.144	14.23
610.336	14.6
610.528	14.53
610.72	14.49
610.912	14.17
611.104	14.24
611.296	14.11
611.488	14.18
611.68	14.34
611.872	14.67
612.064	14.92
612.256	15.09
612.448	14.94
612.64	15.14
612.832	15.14
613.023	15.47
613.215	15.5
613.407	15.61
613.599	15.63
613.791	15.75
613.983	15.76
614.174	15.73
614.366	15.81
614.558	15.81
614.75	15.71
614.941	15.63
615.133	15.69
615.325	15.7
615.516	15.68
615.708	15.76
615.9	15.83
616.091	15.91
616.283	15.88
616.475	15.48
616.666	15.83
616.858	15.96
617.049	15.8
617.241	15.87
617.432	15.42
617.624	15.78
617.815	15.54
618.007	15.04
618.198	14.78
618.39	14.75
618.581	14.71
618.773	14.52
618.964	14.69
619.155	15.01
619.347	14.84
619.538	15.31
619.729	15.15
619.921	15.34
620.112	15.71
620.303	15.86
620.494	15.9
620.686	15.94
620.877	16.09
621.068	16.07
621.259	16.06
621.451	16.3
621.642	16.07
621.833	15.99
622.024	15.83
622.215	15.9
622.406	16.05
622.597	16.4
622.788	16.47
622.98	16.31
623.171	16.28
623.362	16.12
623.553	15.93
623.744	15.88
623.935	15.9
624.126	15.69
624.317	15.42
624.508	15.41
624.698	15.35
624.889	15.5
625.08	15.75
625.271	15.94
625.462	15.94
625.653	16.04
625.844	16.26
626.034	15.96
626.225	16.17
626.416	16.34
626.607	16.54
626.798	16.36
626.988	16.39
627.179	16.27
627.37	15.77
627.56	16.05
627.751	16.07
627.942	16.04
628.132	16.27
628.323	16.55
628.514	16.59
628.704	16.21
628.895	16.14
629.085	15.95
629.276	16.06
629.466	16.52
629.657	16.48
629.847	16.16
630.038	16.32
630.228	16.35
630.419	16.22
630.609	16.05
630.8	16.31
630.99	16.51
631.181	16.61
631.371	16.56
631.561	16.59
631.752	16.49
631.942	16.89
632.132	16.82
632.323	16.7
632.513	16.52
632.703	16.63
632.893	16.61
633.084	16.61
633.274	16.89
633.464	16.72
633.654	16.73
633.844	16.86
634.034	16.79
634.225	16.65
634.415	16.4
634.605	16.35
634.795	16.36
634.985	16.35
635.175	16.39
635.365	16.29
635.555	16.47
635.745	16.43
635.935	16.48
636.125	16.36
636.315	16.56
636.505	16.9
636.695	16.9
636.885	16.96
637.075	16.74
637.265	16.48
637.455	16.29
637.644	16.3
637.834	16.14
638.024	15.9
638.214	16.21
638.404	15.91
638.593	16.08
638.783	16.09
638.973	16.08
639.163	16.34
639.352	16.34
639.542	16.81
639.732	16.61
639.921	16.47
640.111	16.53
640.301	16.23
640.49	16.44
640.68	16.37
640.87	16.14
641.059	16.34
641.249	16.44
641.438	16.7
641.628	16.38
641.817	16.89
642.007	17.31
642.196	17.31
642.386	17.3
642.575	17.36
642.764	17.38
642.954	17.81
643.143	17.82
643.333	17.6
643.522	17.39
643.711	17.74
643.901	17.68
644.09	17.48
644.279	17.54
644.469	17.4
644.658	17.45
644.847	17.53
645.036	17.37
645.226	17.05
645.415	17.23
645.604	17.46
645.793	17.18
645.982	16.65
646.171	16.86
646.361	16.52
646.55	16.87
646.739	16.61
646.928	16.87
647.117	17.11
647.306	16.92
647.495	16.42
647.684	16.41
647.873	16.09
648.062	16.25
648.251	16.41
648.44	16.67
648.629	16.48
648.818	16.44
649.007	16.13
649.196	16.38
649.384	16.73
649.573	16.96
649.762	16.73
649.951	16.92
650.14	17.2
650.328	17.05
650.517	16.95
650.706	17.33
650.895	17.36
651.083	17.47
651.272	17.16
651.461	16.86
651.65	16.73
651.838	16.98
652.027	17.18
652.216	17.02
652.404	16.95
652.593	17.54
652.781	17.48
652.97	17.64
653.158	17.58
653.347	17.86
653.535	17.93
653.724	18.41
653.912	18.38
654.101	18.33
654.289	18.24
654.478	18.26
654.666	17.95
654.855	18.07
655.043	18.41
655.231	18.25
655.42	18.28
655.608	18.4
655.796	18.18
655.985	18.26
656.173	18.33
656.361	18.26
656.55	17.97
656.738	18
656.926	17.62
657.114	17.2
657.302	17.58
657.491	17.35
657.679	17.22
657.867	17.22
658.055	17.04
658.243	17.11
658.431	17.1
658.619	17.59
658.807	17.46
658.996	17.42
659.184	17.4
659.372	17.3
659.56	17.17
659.748	17.28
659.936	17.21
660.124	17.65
660.311	17.61
660.499	17.48
660.687	17.25
660.875	17.51
661.063	17.7
661.251	17.92
661.439	17.89
661.627	18.07
661.814	18.14
662.002	17.94
662.19	17.58
662.378	17.48
662.565	17.96
662.753	17.81
662.941	17.55
663.129	16.87
663.316	16.73
663.504	16.86
663.692	17.02
663.879	17.55
664.067	17.84
664.254	17.77
664.442	17.95
664.63	17.81
664.817	18.01
665.005	17.87
665.192	18.76
665.38	18.97
665.567	18.79
665.755	18.79
665.942	18
666.13	18.19
666.317	18.31
666.504	18.05
666.692	17.96
666.879	18.3
667.067	17.98
667.254	17.75
667.441	17.58
667.629	17.78
667.816	17.65
668.003	17.52
668.19	17.14
668.378	17.23
668.565	17.16
668.752	17.33
668.939	16.65
669.127	16.98
669.314	17.06
669.501	16.88
669.688	16.75
669.875	16.39
670.062	17
670.249	17.5
670.436	17.16
670.623	17.41
670.81	17.51
670.997	17.97
671.184	17.97
671.371	17.92
671.558	18.1
671.745	17.93
671.932	18.62
672.119	18.45
672.306	18.28
672.493	18.1
672.68	18.1
672.867	17.51
673.054	17.32
673.24	17.65
673.427	17.22
673.614	17.02
673.801	16.94
673.988	16.5
674.174	16.67
674.361	16.53
674.548	16.81
674.734	16.73
674.921	16.62
675.108	16.73
675.294	16.55
675.481	17.24
675.668	17.69
675.854	18.38
676.041	18.56
676.227	18.24
676.414	18.79
676.601	18.88
676.787	18.94
676.974	19.96
677.16	19.76
677.347	19.36
677.533	19.24
677.719	19.48
677.906	19.1
678.092	18.99
678.279	18.96
678.465	18.31
678.651	18.27
678.838	18.74
679.024	18.23
679.21	18.38
679.397	18.71
679.583	18.39
679.769	17.81
679.955	17.87
680.142	17.96
680.328	18.35
680.514	18.44
680.7	18.51
680.886	17.97
681.073	18.19
681.259	17.95
681.445	18
681.631	18.36
681.817	18.53
682.003	18.37
682.189	18.57
682.375	18.47
682.561	18.79
682.747	18.92
682.933	19.08
683.119	18.72
683.305	18.81
683.491	18.54
683.677	18.24
683.863	18.75
684.049	19.23
684.235	18.83
684.42	18.69
684.606	18.64
684.792	18.84
684.978	18.91
685.164	18.98
685.349	19.07
685.535	19.46
685.721	19.49
685.907	18.98
686.092	18.48
686.278	18.93
686.464	18.99
686.649	18.82
686.835	18.87
687.021	18.96
687.206	19.13
687.392	19.18
687.577	19.07
687.763	19.11
687.948	18.92
688.134	19.44
688.319	19.05
688.505	18.91
688.69	18.79
688.876	18.96
689.061	18.5
689.247	18.54
689.432	18.86
689.618	18.63
689.803	18.79
689.988	19.31
690.174	18.77
690.359	19.33
690.544	19.58
690.73	20.17
690.915	19.55
691.1	19.61
691.285	20.28
691.471	19.69
691.656	19.93
691.841	20.27
692.026	20.1
692.211	20.61
692.396	19.8
692.582	20.33
692.767	20.46
692.952	20.76
693.137	21.35
693.322	20.58
693.507	21.36
693.692	21.7
693.877	20.97
694.062	20.91
694.247	20.56
694.432	21.19
694.617	20.69
694.802	20.23
694.987	20.14
695.172	19.74
695.357	19.82
695.541	19.49
695.726	19.4
695.911	19.57
696.096	19.54
696.281	19.32
696.466	18.99
696.65	19
696.835	19.11
697.02	19.32
697.204	19.52
697.389	19.79
697.574	19.66
697.759	19.11
697.943	19.17
698.128	19.12
698.312	19.41
698.497	19.03
698.682	18.77
698.866	18.8
699.051	18.43
699.235	18.28
699.42	17.66
699.604	17.83
699.789	18.15
699.973	18.09
700.158	18.37
700.342	18.06
700.527	18.28
700.711	18.3
700.895	18.27
701.08	18.26
701.264	18.37
701.448	19.17
701.633	18.53
701.817	18.38
702.001	18.22
702.186	18.5
702.37	18.72
702.554	18.95
702.738	19.53
702.923	19.26
703.107	19.64
703.291	19.5
703.475	18.92
703.659	20.27
703.843	20.8
704.027	20.94
704.212	19.72
704.396	19.66
704.58	19.81
704.764	18.9
704.948	19.21
705.132	18.97
705.316	19.3
705.5	19.67
705.684	19.72
705.868	19.67
706.052	19.95
706.235	21.23
706.419	21.6
706.603	21.78
706.787	22.47
706.971	22.38
707.155	22.19
707.339	22.35
707.522	22.17
707.706	21.92
707.89	21.5
708.074	21.89
708.257	20.94
708.441	20.96
708.625	20.88
708.808	21.47
708.992	21.22
709.176	21.54
709.359	21.07
709.543	21.07
709.727	20.62
709.91	20.61
710.094	20.24
710.277	20.3
710.461	19.83
710.644	20.26
710.828	19.79
711.011	19.81
711.195	20.02
711.378	20.39
711.562	20.23
711.745	20.54
711.928	21.21
712.112	20.69
712.295	21.26
712.478	21.86
712.662	21.76
712.845	21.57
713.028	21.25
713.212	20.63
713.395	20.22
713.578	20.14
713.761	19.63
713.945	18.87
714.128	19.8
714.311	19.48
714.494	19.03
714.677	18.55
714.86	18.72
715.043	19.5
715.227	19.84
715.41	20.29
715.593	20.71
715.776	21.01
715.959	21.58
716.142	21.46
716.325	21.6
716.508	22.06
716.691	22.27
716.874	22.51
717.057	22.22
717.239	23.06
717.422	22.6
717.605	22.87
717.788	22.66
717.971	22.57
718.154	21.91
718.337	22.29
718.519	21.43
718.702	21.95
718.885	21.31
719.068	21.93
719.25	21.96
719.433	22.59
719.616	22.36
719.798	22.9
719.981	23.45
720.164	23.74
720.346	24.29
720.529	25
720.712	24.69
720.894	25.49
721.077	24.67
721.259	24.66
721.442	25.11
721.624	24.45
721.807	24.58
721.989	23.79
722.172	24.64
722.354	24.6
722.537	24.11
722.719	24.18
722.901	24.19
723.084	24.55
723.266	24.05
723.448	23.82
723.631	25.09
723.813	25.13
723.995	25.6
724.178	24.87
724.36	24.57
724.542	24.91
724.724	24.52
724.907	24.04
725.089	24.44
725.271	24.12
725.453	24.53
725.635	24.01
725.817	23.42
725.999	22.92
726.181	23.93
726.364	23.29
726.546	22.96
726.728	23.15
726.91	23.7
727.092	23.83
727.274	24.66
727.456	24.01
727.638	24.61
727.819	24.62
728.001	24.61
728.183	23.99
728.365	23.89
728.547	24.06
728.729	24.57
728.911	22.88
729.093	22.45
729.274	20.99
729.456	20.16
729.638	19.04
729.82	19.69
730.001	20.7
730.183	20.28
730.365	20.18
730.546	20.33
730.728	19.36
730.91	20.94
731.091	21.48
731.273	22.84
731.455	23.77
731.636	23.6
731.818	22.1
731.999	21.81
732.181	22
732.362	22.42
732.544	21.06
732.725	21.51
732.907	21.22
733.088	19.75
733.27	19.69
733.451	19.01
733.633	19.87
733.814	20.96
733.995	20.55
734.177	19.82
734.358	18.93
734.539	19.96
734.721	20.14
734.902	19.9
735.083	20.73
735.264	19.67
735.446	20.54
735.627	19.33
735.808	19.79
735.989	20.06
736.17	20.48
736.351	21.31
736.533	21.06
736.714	21.63
736.895	22.79
737.076	23.16
737.257	23.68
737.438	23.38
737.619	25.62
737.8	24.99
737.981	25.57
738.162	26.37
738.343	26.79
738.524	28.01
738.705	27.83
738.886	26.4
739.067	25.76
739.247	25.05
739.428	25.37
739.609	24.98
739.79	25.24
739.971	23.25
740.151	23.87
740.332	23.7
740.513	23.4
740.694	22.39
740.874	23.04
741.055	24.26
741.236	25.31
741.417	25.29
741.597	24.51
741.778	25.2
741.958	26.7
742.139	25.88
742.32	25.75
742.5	26.34
742.681	27.2
742.861	26.83
743.042	26.39
743.222	24.78
743.403	24.02
743.583	23.07
743.764	22.15
743.944	22.13
744.124	22.35
744.305	21.92
744.485	21.55
744.666	21
744.846	22.65
745.026	21.43
745.207	23.35
745.387	24.16
745.567	24.56
745.747	24.8
745.928	24.9
746.108	25.66
746.288	25.93
746.468	25.6
746.648	25.69
746.829	24.49
747.009	25.62
747.189	24.76
747.369	24.25
747.549	24.99
747.729	24.72
747.909	24.87
748.089	23.8
748.269	22.67
748.449	22.95
748.629	23.65
748.809	23.91
748.989	23.71
749.169	25.26
749.349	25.84
749.529	26.13
749.709	25.19
749.889	25.12
750.068	24.82
750.248	26.27
750.428	26.22
750.608	25.06
750.788	24.43
750.967	24.26
751.147	22.79
751.327	22.64
751.507	21.28
751.686	22.82
751.866	23.14
752.046	23.01
752.225	22.08
752.405	22.78
752.585	23.26
752.764	23.6
752.944	23.05
753.123	24.41
753.303	24.23
753.482	24.7
753.662	23.22
753.841	23.51
754.021	24.52
754.2	23.92
754.38	23.33
754.559	24.16
754.739	24.44
754.918	25.22
755.097	24.64
755.277	24.58
755.456	25.4
755.635	26.42
755.815	26.01
755.994	26.34
756.173	27.94
756.352	27.9
756.532	27.16
756.711	26.92
756.89	27.37
757.069	27.6
757.248	28.12
757.427	27.12
757.607	27.66
757.786	28.06
757.965	27.06
758.144	26.26
758.323	25.79
758.502	26.37
758.681	26.88
758.86	26.03
759.039	27.12
759.218	27
759.397	27.95
759.576	27.06
759.755	27.7
759.934	27.9
760.113	28.77
760.291	27.11
760.47	26.77
760.649	26.67
760.828	27.04
761.007	25.78
761.186	25.67
761.364	24.94
761.543	25.48
761.722	23.97
761.901	24.37
762.079	22.87
762.258	24.73
762.437	24.63
762.615	24.52
762.794	24.22
762.972	25.12
763.151	24.95
763.33	24.71
763.508	24.42
763.687	24.37
763.865	24.8
764.044	25.28
764.222	25.51
764.401	25.37
764.579	25.71
764.758	26.59
764.936	25.68
765.114	26.33
765.293	27.81
765.471	27.79
765.65	28.21
765.828	27.97
766.006	28.64
766.184	28.33
766.363	29.88
766.541	29.87
766.719	29.98
766.898	30.87
767.076	29.74
767.254	28.48
767.432	28.44
767.61	28.76
767.788	28.39
767.967	27.87
768.145	29.14
768.323	28.49
768.501	27.97
768.679	27.59
768.857	26.29
769.035	27.13
769.213	28.2
769.391	30.05
769.569	28.73
769.747	28.93
769.925	30.29
770.103	28.67
770.281	28.39
770.459	28.75
770.636	28.48
770.814	28.58
770.992	27.74
771.17	27.02
771.348	26.47
771.525	26.38
771.703	26.56
771.881	28.01
772.059	29.86
772.236	29.18
772.414	29.16
772.592	29.29
772.769	31.08
772.947	31.08
773.125	32.09
773.302	31.17
773.48	32.49
773.657	32.39
773.835	30.32
774.013	30.02
774.19	32.39
774.368	32.62
774.545	32.88
774.723	32.51
774.9	33.9
775.077	33.26
775.255	33.53
775.432	35.85
775.61	38.08
775.787	38.83
775.964	39.7
776.142	38.67
776.319	39.06
776.496	41.5
776.674	41.59
776.851	42.94
777.028	41.29
777.205	41.99
777.382	39.06
777.56	36.84
777.737	36.38
777.914	33.12
778.091	33.18
778.268	32.87
778.445	32.54
778.622	30.93
778.8	30.91
778.977	32.27
779.154	31.71
779.331	32.73
779.508	34.87
779.685	34.24
779.862	36.99
780.038	37.59
780.215	38.06
780.392	35.46
780.569	38.47
780.746	40.2
780.923	40.42
781.1	40.84
781.277	41.52
781.453	39.3
781.63	38.51
781.807	39.24
781.984	38.1
782.16	39.44
782.337	39.52
782.514	38.08
782.691	33.78
782.867	34.83
783.044	36.32
783.221	36.26
783.397	36.58
783.574	37.59
783.75	35.87
783.927	36.14
784.103	36.66
784.28	37.7
784.456	37.95
784.633	38.62
784.809	36.95
784.986	34.81
785.162	36.15
785.339	37.2
785.515	37.6
785.692	37.87
785.868	36.56
786.044	33.86
786.221	31.93
786.397	30.6
786.573	30.35
786.749	31.23
786.926	33.53
787.102	32.82
787.278	34.01
787.454	34.57
787.631	33.23
787.807	31.83
787.983	29.88
788.159	31.45
788.335	32.38
788.511	31.25
788.687	31.85
788.863	30.2
789.039	31.52
789.216	29.99
789.392	30.3
789.568	32.93
789.744	37.63
789.919	39.63
790.095	39.44
790.271	39.31
790.447	40.42
790.623	40.9
790.799	41.32
790.975	39.39
791.151	38.68
791.327	38.49
791.502	35.78
791.678	33.84
791.854	33.14
792.03	32.75
792.205	30.14
792.381	30.6
792.557	29.98
792.733	27.62
792.908	25.38
793.084	24.08
793.259	23.29
793.435	26.19
793.611	24.55
793.786	26.45
793.962	27.79
794.137	31.12
794.313	29.94
794.488	28.44
794.664	31.37
794.839	33.46
795.015	35.45
795.19	35.62
795.366	37.38
795.541	39.17
795.716	38.88
795.892	37.59
796.067	37.29
796.242	37.28
796.418	37.43
796.593	38.12
796.768	38.86
796.944	37.71
797.119	36.43
797.294	34.33
797.469	34.17
797.644	31.32
797.82	29.04
797.995	28.85
798.17	30.1
798.345	31.63
798.52	29.49
798.695	30.5
798.87	29.2
799.045	30.36
799.22	28.26
799.395	28.31
799.57	32.01
799.745	33.16
799.92	32.8
800.095	35.07
800.27	33.86
800.445	36.07
800.62	34.11
800.795	37.1
800.97	35.31
801.145	37.2
801.319	37.48
801.494	35.09
801.669	38.96
801.844	40.57
802.018	39.2
802.193	41.25
802.368	37.84
802.543	38.28
802.717	39.72
802.892	40.97
803.067	41.24
803.241	38.82
803.416	43.32
803.59	42.22
803.765	40.2
803.94	39.95
804.114	37.89
804.289	40.29
804.463	41.17
804.638	38.64
804.812	41.22
804.986	40.93
805.161	43.91
805.335	41.95
805.51	40.92
805.684	43.29
805.858	42.54
806.033	44.79
806.207	44.29
806.381	40.6
806.556	38.84
806.73	40.03
806.904	41.78
807.078	39.69
807.253	38.19
807.427	38.42
807.601	36.77
807.775	38.98
807.949	37.56
808.123	37.41
808.298	40.32
808.472	43.4
808.646	40.25
808.82	38.81
808.994	37.4
809.168	38.44
809.342	41.72
809.516	43.91
809.69	44.04
809.864	45.56
810.038	44.87
810.212	44.41
810.385	43.02
810.559	45.77
810.733	47.76
810.907	49.66
811.081	51.11
811.255	47.6
811.428	48.08
811.602	48.26
811.776	48.12
811.95	51.49
812.123	50.73
812.297	51.46
812.471	51.19
812.644	48.02
812.818	50.41
812.992	48.26
813.165	45.97
813.339	45.91
813.512	44.4
813.686	44.48
813.86	43.55
814.033	44.79
814.207	45.68
814.38	44.75
814.554	48.12
814.727	44.1
814.9	45.22
815.074	47.86
815.247	45.11
815.421	44.88
815.594	44.16
815.767	42.47
815.941	42.5
816.114	43.75
816.287	46.34
816.46	45.5
816.634	45.71
816.807	47.06
816.98	44.76
817.153	47.02
817.327	45.14
817.5	45.4
817.673	47.62
817.846	47.33
818.019	42.92
818.192	39.7
818.365	37.05
818.538	37.54
818.711	35.52
818.884	36.19
819.057	34.12
819.23	36.15
819.403	34.6
819.576	31.38
819.749	29.46
819.922	34.46
820.095	33.12
820.268	33.86
820.441	35.55
820.614	33.72
820.786	32.13
820.959	31.52
821.132	28.86
821.305	27.58
821.477	26.37
821.65	27.14
821.823	25.88
821.996	24.59
822.168	24.11
822.341	22.26
822.514	22.49
822.686	22.77
822.859	22.87
823.031	22.66
823.204	23.44
823.376	24.38
823.549	23.92
823.722	23.34
823.894	24.28
824.067	24.39
824.239	25.25
824.411	24.91
824.584	24.6
824.756	24.2
824.929	24.88
825.101	24.36
825.273	23.66
825.446	23.66
825.618	24.46
825.79	24.7
825.963	25.31
826.135	25.87
826.307	25.85
826.479	26.79
826.652	26.38
826.824	27.16
826.996	27.29
827.168	28.02
827.34	28.65
827.512	27.72
827.684	28.22
827.856	28.05
828.029	28.24
828.201	29.73
828.373	29.92
828.545	30.85
828.717	29.71
828.889	30.16
829.061	30.81
829.232	30.56
829.404	33.52
829.576	32.58
829.748	33.23
829.92	34.55
830.092	35.28
830.264	35.73
830.436	37.13
830.607	39.3
830.779	39.64
830.951	39.35
831.123	41.44
831.294	39.84
831.466	40.41
831.638	37.21
831.809	32.89
831.981	35.5
832.153	37.14
832.324	36.55
832.496	38.54
832.667	40.82
832.839	41.55
833.011	41.43
833.182	40.3
833.354	40.25
833.525	43.88
833.697	44.98
833.868	40.86
834.039	41.1
834.211	38.98
834.382	38.27
834.554	36.6
834.725	35.69
834.896	36.41
835.068	35.66
835.239	37.36
835.41	37.53
835.581	39.77
835.753	41.57
835.924	39.44
836.095	41.51
836.266	40.68
836.438	43.04
836.609	42.86
836.78	39.55
836.951	40.61
837.122	39.97
837.293	41.15
837.464	38.81
837.635	40.15
837.806	40.37
837.977	42.27
838.148	44.79
838.319	43.21
838.49	41.4
838.661	47.62
838.832	49.14
839.003	51.89
839.174	48.72
839.345	47.86
839.516	42.25
839.687	46.85
839.857	48.7
840.028	43.45
840.199	44.72
840.37	49.25
840.54	46.99
840.711	43.34
840.882	39.93
841.053	41.4
841.223	47.13
841.394	47.56
841.564	47.79
841.735	47.07
841.906	50.71
842.076	52.14
842.247	52.18
842.417	53.13
842.588	58.85
842.758	61.83
842.929	62.52
843.099	61.4
843.27	66.99
843.44	61.85
843.611	59.64
843.781	65.05
843.951	67.66
844.122	64.73
844.292	68.09
844.462	73.02
844.633	72.57
844.803	75.65
844.973	74.03
845.144	74.89
845.314	87.63
845.484	89.88
845.654	87.47
845.824	87.52
845.995	93.64
846.165	82.74
846.335	78.01
846.505	83.09
846.675	79.1
846.845	80.9
847.015	73.07
847.185	67.05
847.355	61.55
847.525	60.12
847.695	55.49
847.865	53.29
848.035	62.45
848.205	65.47
848.375	65.01
848.545	75.7
848.715	77.22
848.884	83
849.054	78.35
849.224	87.83
849.394	83.34
849.564	84.86
849.733	84.91
849.903	80.63
850.073	82.29
850.243	71.5
850.412	67.02
850.582	66.96
850.752	73.44
850.921	73.9
851.091	69.34
851.26	71.06
851.43	60.36
851.599	60.26
851.769	69.94
851.939	63.8
852.108	64.28
852.278	62.9
852.447	64.4
852.616	65.5
852.786	68.6
852.955	69.02
853.125	63.26
853.294	80.64
853.463	80.61
853.633	75.44
853.802	83.91
853.971	92.11
854.141	93.01
854.31	94.28
854.479	89.15
854.648	88.03
854.818	85.81
854.987	90.34
855.156	90.61
855.325	91.19
855.494	96.02
855.663	97.45
855.832	90.8
856.001	98.76
856.171	96.5
856.34	88.73
856.509	90.56
856.678	91.62
856.847	90.09
857.016	81.06
857.185	74.51
857.353	76.48
857.522	74.65
857.691	78.75
857.86	76.55
858.029	73.52
858.198	76.26
858.367	72.78
858.535	72.85
858.704	81.8
858.873	87.99
859.042	86.42
859.21	80.01
859.379	77.06
859.548	68.35
859.717	59.71
859.885	54.52
860.054	58.28
860.222	62.01
860.391	66.43
860.56	64.84
860.728	64.21
860.897	65.92
861.065	62.78
861.234	58.84
861.402	70.17
861.571	74.95
861.739	77.6
861.908	79.09
862.076	67.28
862.244	61.39
862.413	58.84
862.581	62.67
862.749	67.57
862.918	72.99
863.086	82.12
863.254	77.34
863.423	80.38
863.591	85.33
863.759	78.1
863.927	85.64
864.096	80.86
864.264	85.36
864.432	83.19
864.6	83.44
864.768	78.1
864.936	82.71
865.104	82.27
865.272	81.38
865.44	84.47
865.608	87.06
865.776	85.63
865.944	98.39
866.112	84.23
866.28	99.32
866.448	93.99
866.616	99.23
866.784	96.38
866.952	93.95
867.12	82.38
867.288	76.31
867.455	82.21
867.623	84.55
867.791	82.38
867.959	91.05
868.127	79.43
868.294	80.07
868.462	76.6
868.63	74.1
868.797	74.27
868.965	90.32
869.133	96.35
869.3	85.55
869.468	87.56
869.636	91.32
869.803	85.23
869.971	87.05
870.138	92.51
870.306	90.36
870.473	87.81
870.641	96.36
870.808	89.96
870.975	79.91
871.143	87.46
871.31	81.19
871.478	76.36
871.645	82.09
871.812	84.99
871.98	85.59
872.147	91.3
872.314	96.51
872.482	90.69
872.649	89.5
872.816	92.13
872.983	87.93
873.15	90.26
873.318	87.16
873.485	85.97
873.652	83.18
873.819	81
873.986	89.01
874.153	93.87
874.32	106.62
874.487	99.18
874.654	110.12
874.821	130.3
874.988	122.46
875.155	150.18
875.322	151.19
875.489	180.35
875.656	179.52
875.823	128.51
875.99	123.17
876.157	112.02
876.324	111.33
876.49	104.43
876.657	91.28
876.824	90.76
876.991	82.51
877.157	85.64
877.324	72.93
877.491	70.32
877.658	70.53
877.824	67.01
877.991	67.58
878.157	71.01
878.324	68.46
878.491	67.07
878.657	73.63
878.824	77.51
878.99	80.17
879.157	87.5
879.323	89.41
879.49	89.93
879.656	88.23
879.823	94.59
879.989	90.39
880.156	99.82
880.322	105.08
880.488	105.66
880.655	101.28
880.821	98.9
880.987	100.89
881.154	100.21
881.32	98.28
881.486	92.1
881.652	80.21
881.819	74.77
881.985	67.51
882.151	59.76
882.317	55.38
882.483	53.23
882.649	52.09
882.816	46.78
882.982	43.05
883.148	42.56
883.314	42.77
883.48	42.19
883.646	41.13
883.812	39.72
883.978	43.05
884.144	43.49
884.31	43.54
884.476	43.1
884.642	43.06
884.807	44.89
884.973	42.65
885.139	44.78
885.305	46.73
885.471	48.95
885.637	51.51
885.802	50.58
885.968	52.24
886.134	52.13
886.3	53.21
886.465	59.41
886.631	60.16
886.797	66.14
886.962	66
887.128	67.17
887.293	71.44
887.459	69.62
887.625	69.37
887.79	64.22
887.956	59.72
888.121	60.44
888.287	52.94
888.452	55.17
888.618	48.66
888.783	46.12
