Data from 2938075_Reflection_1.txt Node
Date: Sat Jul 11 20:26:21 EDT 2015
User: robert
Spectrometer: USB4E03001
Autoset integration time: false
Trigger mode: 4
Integration Time (sec): 1.000000E-1
Scans to average: 10
Electric dark correction enabled: true
Nonlinearity correction enabled: false
Boxcar width: 5
Stray light correction enabled: false
XAxis mode: Wavelengths
Stop averaging: false
Number of Pixels in Spectrum: 3648
>>>>>Begin Spectral Data<<<<<
177.566	-231.87
177.785	-96.65
178.005	47.23
178.225	33.56
178.445	-4.38
178.665	54.52
178.885	-99.13
179.105	-38.08
179.324	5.43
179.544	120.82
179.764	84.73
179.984	105.51
180.204	80.17
180.423	95.33
180.643	105.03
180.863	261.59
181.083	59.18
181.302	3.77
181.522	31.29
181.742	23.77
181.961	25.14
182.181	-146.91
182.401	-118.95
182.621	-170.79
182.84	-396.09
183.06	-233.19
183.279	-2684.78
183.499	-482.95
183.719	496.47
183.938	438.69
184.158	276.87
184.377	325.8
184.597	64.98
184.816	24.06
185.036	29.13
185.256	36.9
185.475	86.49
185.695	247.46
185.914	129.87
186.134	0
186.353	-457.95
186.572	-83.66
186.792	-35.73
187.011	-53.39
187.231	19.78
187.45	69.49
187.67	143.63
187.889	267.36
188.108	392.98
188.328	153.01
188.547	145.44
188.766	-64.97
188.986	-52.16
189.205	-119.45
189.424	-239.69
189.644	2266.77
189.863	-237.8
190.082	-527.26
190.302	5190.3
190.521	620.43
190.74	534.62
190.959	728.26
191.178	446.1
191.398	437.12
191.617	410.92
191.836	1675.56
192.055	27.05
192.274	2208.85
192.494	233.89
192.713	41.65
192.932	77.79
193.151	59.12
193.37	54.93
193.589	95.52
193.808	42
194.027	-31.63
194.246	8.78
194.465	-54.01
194.685	-84.16
194.904	-164.15
195.123	-195.06
195.342	-124.05
195.561	-7577.14
195.78	278.93
195.999	313.5
196.218	109.59
196.436	40.37
196.655	-61.73
196.874	-181.13
197.093	-86.99
197.312	-287.83
197.531	-149.45
197.75	424.13
197.969	215.23
198.188	-350.86
198.407	-71.62
198.625	-14.26
198.844	-11.81
199.063	55.08
199.282	109.71
199.501	481.99
199.719	-482.02
199.938	60.33
200.157	62.9
200.376	45.07
200.594	99.44
200.813	106.73
201.032	-7150
201.251	-420.77
201.469	-132.9
201.688	-45.55
201.907	-12.98
202.125	-63.53
202.344	-24.5
202.563	-31.89
202.781	10.61
203	-55.01
203.218	19.3
203.437	44.78
203.656	89.99
203.874	136.14
204.093	331.2
204.311	95.44
204.53	177.77
204.748	-174.23
204.967	-358.62
205.185	315.86
205.404	-48.21
205.622	34.59
205.841	47.29
206.059	18.43
206.278	-132.95
206.496	520
206.715	-17018.18
206.933	161.92
207.151	1132.58
207.37	-213.09
207.588	-173.05
207.806	-136.9
208.025	31429.41
208.243	-260.73
208.461	-264.55
208.68	-42.67
208.898	2.99
209.116	30.22
209.335	42.54
209.553	43.2
209.771	46.71
209.989	66.38
210.208	39.54
210.426	39.71
210.644	15.45
210.862	-12.84
211.081	-49.48
211.299	-15.28
211.517	-74.63
211.735	-197.84
211.953	-90.51
212.171	-18.49
212.39	-24.97
212.608	-16.43
212.826	-6.61
213.044	8.6
213.262	18.54
213.48	21.17
213.698	21
213.916	42.05
214.134	26.51
214.352	18.53
214.57	1.03
214.788	28.22
215.006	-26.67
215.224	-6
215.442	-8.85
215.66	-18.8
215.878	-51.66
216.096	-165.41
216.314	5090.53
216.532	-234.35
216.75	-102.01
216.968	-78.49
217.185	-64.65
217.403	-2.68
217.621	-26.06
217.839	-26.87
218.057	-18.28
218.275	-33.95
218.492	-10.71
218.71	-32.33
218.928	-75.9
219.146	-136.64
219.363	-283.37
219.581	-128.02
219.799	-6.12
220.017	2.03
220.234	18.72
220.452	16.76
220.67	38.9
220.887	37.73
221.105	40.24
221.323	53.58
221.54	44.16
221.758	36.14
221.976	24.5
222.193	11.28
222.411	6.86
222.629	4.06
222.846	9.06
223.064	0
223.281	-16.26
223.499	-25.78
223.716	-25.79
223.934	10.65
224.151	16.71
224.369	26.83
224.586	36.6
224.804	31.24
225.021	65.42
225.239	108.49
225.456	78.92
225.674	85.14
225.891	78.87
226.108	58.46
226.326	52.97
226.543	53.39
226.76	51.95
226.978	41.28
227.195	43.04
227.413	27.2
227.63	20.26
227.847	13.45
228.064	14.79
228.282	19.36
228.499	19.67
228.716	15.49
228.934	16.51
229.151	16.53
229.368	14.88
229.585	16.99
229.802	18.42
230.02	15.03
230.237	17.98
230.454	14.35
230.671	12.73
230.888	14.56
231.105	19.78
231.323	18.54
231.54	17.13
231.757	17.21
231.974	17.65
232.191	17.39
232.408	25.65
232.625	27.61
232.842	25.34
233.059	29.02
233.276	21.98
233.493	21.6
233.71	19.68
233.927	17.71
234.144	20.96
234.361	12.16
234.578	18.23
234.795	16.36
235.012	15.53
235.229	15.78
235.446	11.23
235.663	12.58
235.879	8.86
236.096	10.98
236.313	15.46
236.53	17.36
236.747	21.81
236.964	17.26
237.181	17.51
237.397	5.98
237.614	10.09
237.831	9.17
238.048	8.03
238.264	10.95
238.481	12.17
238.698	11.98
238.915	0.05
239.131	-4.63
239.348	-5.09
239.565	0.64
239.781	12.67
239.998	11.8
240.215	14.84
240.431	18.23
240.648	20.01
240.865	17.6
241.081	17.44
241.298	17.03
241.514	18.62
241.731	19.4
241.947	17.99
242.164	16.04
242.38	15.2
242.597	13.51
242.814	12.08
243.03	10.3
243.246	11.47
243.463	10.88
243.679	12.82
243.896	11.52
244.112	10.55
244.329	10.29
244.545	10.55
244.762	12.27
244.978	12.56
245.194	14.9
245.411	14.67
245.627	12.46
245.843	11.7
246.06	10.91
246.276	9.57
246.492	8.78
246.709	8.71
246.925	8.91
247.141	8.84
247.357	9.19
247.574	8.73
247.79	9.18
248.006	10.28
248.222	11.02
248.439	11.44
248.655	12.25
248.871	12.07
249.087	11.73
249.303	12.7
249.519	13.1
249.736	14.69
249.952	14.63
250.168	15.16
250.384	14.59
250.6	12.07
250.816	9.88
251.032	8.98
251.248	9.77
251.464	14.32
251.68	12.84
251.896	12.31
252.112	10.31
252.328	11.82
252.544	10.32
252.76	10.17
252.976	8.26
253.192	8.69
253.408	9.3
253.624	9.12
253.84	4.54
254.056	4.5
254.272	1.75
254.487	2.77
254.703	0.12
254.919	2.56
255.135	3.36
255.351	6.93
255.567	9.33
255.782	9.63
255.998	10.94
256.214	12.02
256.43	12.91
256.646	14.29
256.861	13.69
257.077	16.54
257.293	17.5
257.508	14.26
257.724	14.69
257.94	11.02
258.155	13.3
258.371	14.26
258.587	14.31
258.802	12.27
259.018	12.16
259.234	12.22
259.449	10.15
259.665	8.2
259.88	9.13
260.096	9.63
260.312	10.16
260.527	9.74
260.743	9.84
260.958	9.37
261.174	10.22
261.389	9.6
261.605	9.33
261.82	9.93
262.036	10.55
262.251	11.08
262.466	9.62
262.682	9.75
262.897	8.75
263.113	8.66
263.328	8.08
263.543	6.69
263.759	9.59
263.974	9.7
264.189	9.68
264.405	10.68
264.62	8.95
264.835	10.38
265.051	10.88
265.266	12.29
265.481	10.99
265.696	13.18
265.912	13.84
266.127	11.81
266.342	10.76
266.557	10.74
266.773	11.74
266.988	11.98
267.203	11.5
267.418	10.78
267.633	10.26
267.848	11.74
268.064	11.57
268.279	11.34
268.494	11.26
268.709	12.14
268.924	12.28
269.139	11.41
269.354	11.28
269.569	11.51
269.784	13.08
269.999	11.88
270.214	9.18
270.429	9.89
270.644	10.73
270.859	11.79
271.074	10.29
271.289	9.38
271.504	8.31
271.719	7.55
271.934	6.83
272.149	4.97
272.363	5.14
272.578	6.34
272.793	5.62
273.008	3.57
273.223	2.69
273.438	2.6
273.653	2.67
273.867	3.56
274.082	3.94
274.297	4.27
274.512	4.61
274.726	4.85
274.941	4.29
275.156	2.84
275.371	3.16
275.585	2.4
275.8	2.5
276.015	2.41
276.229	1.84
276.444	2.02
276.659	2.3
276.873	3.12
277.088	2.68
277.302	3.89
277.517	5.08
277.732	5.94
277.946	7.29
278.161	8.49
278.375	9.36
278.59	10.06
278.804	10.5
279.019	10.81
279.233	10.65
279.448	11.43
279.662	11.01
279.877	11.06
280.091	11.81
280.306	11.7
280.52	11.24
280.735	11.14
280.949	10.31
281.163	9.45
281.378	8.92
281.592	8.52
281.806	8.76
282.021	8.93
282.235	7.62
282.449	7.47
282.664	7.44
282.878	7.86
283.092	6.73
283.307	7.63
283.521	8.42
283.735	7.75
283.949	7.33
284.164	6.69
284.378	6.73
284.592	7.55
284.806	6.38
285.02	6.16
285.234	5.18
285.449	5.85
285.663	4.58
285.877	4.97
286.091	6.38
286.305	7.35
286.519	8.17
286.733	6.96
286.947	6.58
287.161	6.63
287.375	6.78
287.589	7.01
287.803	7.3
288.017	8.31
288.231	7.42
288.445	7.51
288.659	9.55
288.873	8.29
289.087	9.73
289.301	9.68
289.515	10.67
289.729	10.74
289.943	11.58
290.157	10.94
290.371	10.95
290.584	11.12
290.798	10.16
291.012	7.76
291.226	7.21
291.44	6.05
291.654	6.71
291.867	5.63
292.081	7.14
292.295	8.43
292.509	8.85
292.722	7.83
292.936	9.11
293.15	12.05
293.364	12.27
293.577	13.5
293.791	14.08
294.005	14.61
294.218	15.07
294.432	13.52
294.645	12.71
294.859	13.46
295.073	13.77
295.286	13.48
295.5	11.06
295.713	12.31
295.927	10.94
296.14	10.91
296.354	10.16
296.568	10.62
296.781	11.99
296.994	11.85
297.208	11.38
297.421	11.42
297.635	10.6
297.848	10.4
298.062	8.64
298.275	10.02
298.489	10.27
298.702	9.41
298.915	8.48
299.129	7.97
299.342	7.04
299.555	7.18
299.769	6.89
299.982	8.23
300.195	10.05
300.409	11.09
300.622	9.88
300.835	9.48
301.048	10.51
301.262	11.5
301.475	9.39
301.688	8.83
301.901	8.81
302.115	6.99
302.328	5.15
302.541	2.62
302.754	3.6
302.967	5.47
303.18	5.65
303.393	5.31
303.607	5.57
303.82	6.59
304.033	6.88
304.246	6.3
304.459	8.57
304.672	9.06
304.885	10.92
305.098	10.03
305.311	9.12
305.524	9.31
305.737	9.57
305.95	11.11
306.163	11.39
306.376	12.42
306.589	11.64
306.802	11.99
307.015	12.35
307.228	11.19
307.44	10.48
307.653	10.76
307.866	9.82
308.079	10.91
308.292	10.22
308.505	9.79
308.718	9.4
308.93	10.34
309.143	10.82
309.356	10.35
309.569	10.8
309.781	10.99
309.994	10.17
310.207	8.73
310.42	8.9
310.632	7.79
310.845	8.01
311.058	7.5
311.27	6.86
311.483	5.65
311.696	7.15
311.908	7.82
312.121	7.26
312.333	7.58
312.546	10.13
312.759	8.64
312.971	9.22
313.184	9.59
313.396	10.42
313.609	11.02
313.821	11.79
314.034	9.08
314.246	8.14
314.459	9.56
314.671	9.08
314.884	8.72
315.096	9.61
315.309	9.05
315.521	9.42
315.733	8.64
315.946	9.14
316.158	7.83
316.371	9.81
316.583	10.32
316.795	10.9
317.008	12.87
317.22	11.43
317.432	12.87
317.644	13.81
317.857	14.28
318.069	16.4
318.281	16.23
318.494	17.37
318.706	17.9
318.918	18.77
319.13	17.6
319.342	16.23
319.555	16.88
319.767	16.55
319.979	15.25
320.191	14.24
320.403	12.16
320.615	11.63
320.827	11.68
321.039	11.43
321.252	10.34
321.464	10.34
321.676	10.21
321.888	9.34
322.1	8.34
322.312	8.45
322.524	8.58
322.736	9.2
322.948	8.93
323.16	9.47
323.372	8.5
323.584	7.75
323.796	9.48
324.007	9.35
324.219	9.52
324.431	8.65
324.643	7.98
324.855	7.77
325.067	7.95
325.279	7.51
325.491	6.68
325.702	6.67
325.914	7.13
326.126	4.79
326.338	5.37
326.55	6.64
326.761	7.75
326.973	8.71
327.185	7.99
327.396	8.23
327.608	9.09
327.82	9.07
328.032	10.3
328.243	10.78
328.455	11.25
328.666	10.52
328.878	9.81
329.09	9.34
329.301	7.91
329.513	8.91
329.725	8.35
329.936	8.7
330.148	9.07
330.359	7.56
330.571	6.38
330.782	7.78
330.994	7.77
331.205	7.27
331.417	8.39
331.628	10.82
331.84	9.76
332.051	9.9
332.262	8.63
332.474	9.59
332.685	9.77
332.897	12.09
333.108	11.24
333.319	11.69
333.531	11.03
333.742	9.91
333.953	9.96
334.165	11.03
334.376	11.28
334.587	13.46
334.799	12.15
335.01	12.43
335.221	11.5
335.432	12.31
335.644	12.3
335.855	12.53
336.066	11.44
336.277	11.78
336.488	11
336.7	11.89
336.911	11.95
337.122	12.95
337.333	13.02
337.544	11.41
337.755	10.14
337.966	9
338.177	9.45
338.388	11.84
338.599	10.84
338.811	11.74
339.022	9.86
339.233	8.51
339.444	8.38
339.655	7.22
339.866	8.47
340.076	8.19
340.287	8.89
340.498	8.75
340.709	8.54
340.92	8.48
341.131	7.79
341.342	8.09
341.553	7.48
341.764	6.96
341.975	8.5
342.185	8.5
342.396	9.93
342.607	10.51
342.818	10.33
343.029	10.02
343.239	9.94
343.45	9.52
343.661	9.62
343.872	10.43
344.082	10.71
344.293	9.75
344.504	10.1
344.714	9.66
344.925	8.54
345.136	9.26
345.346	10.02
345.557	9.81
345.768	10.26
345.978	9.33
346.189	9.04
346.399	8.16
346.61	9.18
346.821	8.83
347.031	8.56
347.242	9.3
347.452	10.02
347.663	8.34
347.873	7.94
348.084	7.99
348.294	8.78
348.504	9.41
348.715	10.23
348.925	9.87
349.136	10.12
349.346	9.25
349.557	9.19
349.767	8.52
349.977	8.94
350.188	9.05
350.398	9.41
350.608	10.22
350.819	10.11
351.029	10.49
351.239	9.85
351.449	9.39
351.66	9.08
351.87	9.15
352.08	9.61
352.29	9.61
352.501	11.22
352.711	10.72
352.921	10.38
353.131	9.98
353.341	9.24
353.552	9.28
353.762	8.42
353.972	9.33
354.182	9.45
354.392	8.79
354.602	8.32
354.812	6.83
355.022	7.52
355.232	7.72
355.442	7.53
355.652	8.13
355.862	8.21
356.072	8.96
356.282	8.95
356.492	9.26
356.702	8.77
356.912	8.5
357.122	7.99
357.332	7.81
357.542	7.97
357.752	7.29
357.962	7
358.171	6.06
358.381	5.93
358.591	5.79
358.801	5.67
359.011	5.64
359.221	6.79
359.43	7.92
359.64	7.79
359.85	7.6
360.06	7.84
360.269	8.25
360.479	8.65
360.689	8.71
360.899	8.89
361.108	8.81
361.318	8.84
361.528	8.47
361.737	7.87
361.947	7.97
362.156	7.79
362.366	7.4
362.576	6.44
362.785	7.12
362.995	6.81
363.204	6.81
363.414	6.61
363.623	6.35
363.833	6.49
364.042	6.54
364.252	5.82
364.461	5.59
364.671	6.05
364.88	6.61
365.09	5.95
365.299	6.32
365.509	6.6
365.718	6.76
365.927	7.5
366.137	7.6
366.346	7.49
366.555	7.18
366.765	6.6
366.974	6.3
367.183	6.56
367.393	6.83
367.602	6.55
367.811	6.34
368.021	6.22
368.23	6.53
368.439	5.69
368.648	5.65
368.857	6.16
369.067	7.5
369.276	8.4
369.485	8.24
369.694	7.72
369.903	7.81
370.112	6.97
370.321	6.07
370.531	4.55
370.74	4.77
370.949	5.59
371.158	6.01
371.367	5.51
371.576	4.74
371.785	4.26
371.994	4.55
372.203	4.49
372.412	4.37
372.621	5.33
372.83	5.9
373.039	5.56
373.248	4.44
373.457	4.39
373.666	4.67
373.874	4.84
374.083	4.69
374.292	4.63
374.501	4.88
374.71	5.14
374.919	4.67
375.128	5.44
375.336	5.73
375.545	6.68
375.754	6.25
375.963	6.08
376.171	5.9
376.38	6.42
376.589	6.59
376.798	6.07
377.006	6.46
377.215	6.86
377.424	5.99
377.632	5.99
377.841	5.45
378.05	5.99
378.258	5.18
378.467	5.22
378.675	5
378.884	5.05
379.093	5.21
379.301	4.65
379.51	4.23
379.718	4.54
379.927	4.69
380.135	4.96
380.344	4.76
380.552	5.53
380.761	6.11
380.969	5.88
381.177	5.98
381.386	5.88
381.594	5.85
381.803	5.9
382.011	5.69
382.219	5.81
382.428	5.77
382.636	5.54
382.845	5.8
383.053	5.8
383.261	5.76
383.469	4.88
383.678	4.77
383.886	5.01
384.094	5.06
384.302	5.16
384.511	4.93
384.719	4.68
384.927	4.54
385.135	3.9
385.343	3.5
385.552	3.1
385.76	3.15
385.968	3.34
386.176	3.47
386.384	3.4
386.592	3.3
386.8	3.13
387.008	3.71
387.216	3.62
387.424	3.64
387.633	3.78
387.841	4.31
388.049	4.71
388.257	4.83
388.465	4.63
388.672	4.38
388.88	4.63
389.088	4.89
389.296	4.32
389.504	4.43
389.712	4.1
389.92	3.7
390.128	3.72
390.336	3.5
390.544	3.43
390.751	3.7
390.959	3.83
391.167	3.69
391.375	3.21
391.583	3.29
391.79	3.28
391.998	3.47
392.206	3.51
392.414	3.73
392.621	3.81
392.829	3.9
393.037	3.44
393.244	3.69
393.452	3.61
393.66	3.86
393.867	3.81
394.075	3.78
394.283	4.13
394.49	4.2
394.698	3.64
394.905	3.78
395.113	3.64
395.32	4.05
395.528	3.41
395.735	2.76
395.943	2.84
396.15	2.7
396.358	2.48
396.565	2.33
396.773	2.26
396.98	2.55
397.188	2.3
397.395	1.97
397.602	1.96
397.81	2.36
398.017	2.77
398.225	2.69
398.432	2.66
398.639	2.7
398.847	2.32
399.054	2.44
399.261	2.27
399.468	2.22
399.676	2.41
399.883	1.86
400.09	1.88
400.297	1.74
400.505	1.36
400.712	1.43
400.919	1.58
401.126	1.91
401.333	1.69
401.54	1.92
401.748	1.76
401.955	1.71
402.162	1.99
402.369	2.18
402.576	2.27
402.783	2.61
402.99	2.73
403.197	2.55
403.404	2.41
403.611	2.79
403.818	2.8
404.025	3.15
404.232	3.07
404.439	2.94
404.646	2.51
404.853	2.65
405.06	2.5
405.267	2.48
405.474	2.43
405.681	2.49
405.887	2.05
406.094	2.11
406.301	2.02
406.508	2.27
406.715	2.49
406.922	2.88
407.128	3.32
407.335	3.41
407.542	3.41
407.749	3.5
407.955	3.54
408.162	3.61
408.369	3.16
408.575	3.38
408.782	3.31
408.989	3.26
409.195	2.69
409.402	2
409.609	2.02
409.815	1.86
410.022	1.92
410.228	1.9
410.435	2.21
410.642	2.33
410.848	1.85
411.055	1.65
411.261	1.88
411.468	2.18
411.674	2.61
411.881	2.54
412.087	2.58
412.294	2.54
412.5	2.35
412.706	2.3
412.913	2.12
413.119	2.12
413.326	2.24
413.532	1.89
413.738	1.77
413.945	1.67
414.151	1.79
414.357	1.72
414.564	1.84
414.77	2.13
414.976	2.15
415.182	2.3
415.389	2.46
415.595	2.34
415.801	2.63
416.007	2.71
416.214	2.59
416.42	2.51
416.626	2.61
416.832	2.37
417.038	2.48
417.244	2.54
417.45	2.7
417.657	2.78
417.863	3.1
418.069	3.04
418.275	2.74
418.481	2.82
418.687	2.74
418.893	2.85
419.099	2.99
419.305	2.81
419.511	2.53
419.717	2.42
419.923	2.37
420.129	2.27
420.335	2.14
420.541	2.39
420.746	2.47
420.952	2.48
421.158	2.37
421.364	2.32
421.57	2.35
421.776	2.46
421.982	2.57
422.187	2.62
422.393	2.47
422.599	2.47
422.805	2.56
423.01	2.49
423.216	2.4
423.422	2.35
423.628	2.45
423.833	2.34
424.039	2.3
424.245	2.24
424.45	2.22
424.656	2.37
424.862	2.36
425.067	2.25
425.273	2.33
425.478	2.45
425.684	2.55
425.889	2.54
426.095	2.76
426.301	2.82
426.506	2.66
426.712	2.57
426.917	2.39
427.123	2.58
427.328	2.61
427.533	2.54
427.739	2.66
427.944	2.56
428.15	2.41
428.355	2.18
428.561	2.07
428.766	2.33
428.971	2.23
429.177	2.44
429.382	2.44
429.587	2.33
429.793	2.12
429.998	2.23
430.203	2.11
430.408	2.14
430.614	2.22
430.819	2.43
431.024	2.33
431.229	2.5
431.434	2.39
431.64	2.13
431.845	2.24
432.05	2.39
432.255	2.12
432.46	2.38
432.665	2.33
432.87	2.14
433.076	2.21
433.281	2.21
433.486	2.24
433.691	2.25
433.896	2.22
434.101	2.1
434.306	2.16
434.511	2.19
434.716	2.14
434.921	2.12
435.126	2.43
435.331	2.15
435.535	2.21
435.74	2.19
435.945	2.05
436.15	2.17
436.355	2.22
436.56	2.17
436.765	2.37
436.97	2.34
437.174	2.4
437.379	2.21
437.584	2.25
437.789	2.17
437.993	2.07
438.198	2.25
438.403	2.24
438.608	2.34
438.812	2.34
439.017	2.26
439.222	2.38
439.426	2.38
439.631	2.31
439.836	2.43
440.04	2.35
440.245	2.42
440.45	2.37
440.654	2.3
440.859	2.22
441.063	2.11
441.268	1.96
441.472	1.86
441.677	1.91
441.881	2
442.086	1.85
442.29	2.01
442.495	2.13
442.699	2.14
442.904	2.37
443.108	2.45
443.312	2.56
443.517	2.6
443.721	2.56
443.925	2.48
444.13	2.42
444.334	2.66
444.538	2.67
444.743	2.67
444.947	2.7
445.151	2.51
445.356	2.44
445.56	2.31
445.764	2.38
445.968	2.43
446.173	2.54
446.377	2.66
446.581	2.47
446.785	2.45
446.989	2.32
447.193	2.28
447.398	2.38
447.602	2.39
447.806	2.46
448.01	2.46
448.214	2.41
448.418	2.23
448.622	2.13
448.826	2.18
449.03	2.11
449.234	2.01
449.438	1.91
449.642	1.88
449.846	1.87
450.05	1.87
450.254	1.93
450.458	1.92
450.662	2.09
450.866	2.12
451.069	2.13
451.273	2.18
451.477	2.3
451.681	2.52
451.885	2.36
452.089	2.24
452.292	2.24
452.496	2.16
452.7	2.2
452.904	2.17
453.107	2.17
453.311	2.15
453.515	2.13
453.719	2.13
453.922	1.92
454.126	2.08
454.33	2.26
454.533	2.3
454.737	2.08
454.94	2.11
455.144	2.03
455.348	2.07
455.551	2.06
455.755	1.82
455.958	1.8
456.162	1.65
456.365	1.55
456.569	1.58
456.772	1.52
456.976	1.85
457.179	1.93
457.383	1.98
457.586	1.97
457.79	2.05
457.993	2.09
458.196	2.03
458.4	2.12
458.603	2.21
458.807	2.22
459.01	2.27
459.213	2.21
459.417	2.13
459.62	2
459.823	1.92
460.026	1.95
460.23	1.94
460.433	2.06
460.636	2.13
460.839	1.94
461.042	1.97
461.246	1.97
461.449	2
461.652	2.03
461.855	2.23
462.058	2.32
462.261	2.22
462.464	2.59
462.668	2.39
462.871	2.5
463.074	2.73
463.277	2.59
463.48	2.41
463.683	2.32
463.886	2.03
464.089	2.16
464.292	2.12
464.495	2.24
464.698	2.03
464.901	2.15
465.104	2.04
465.306	2.12
465.509	2.13
465.712	2.28
465.915	2.31
466.118	2.68
466.321	2.59
466.524	2.65
466.726	2.57
466.929	2.61
467.132	2.63
467.335	2.67
467.538	2.47
467.74	2.57
467.943	2.54
468.146	2.61
468.348	2.44
468.551	2.38
468.754	2.31
468.956	2.38
469.159	2.13
469.362	2.12
469.564	2.1
469.767	2.07
469.969	2
470.172	2.03
470.375	1.99
470.577	2.04
470.78	2.18
470.982	2.02
471.185	2.05
471.387	2.25
471.59	2.08
471.792	2.05
471.995	2.12
472.197	2.12
472.399	2.23
472.602	2.14
472.804	2.32
473.007	1.94
473.209	2.03
473.411	2.02
473.614	2.18
473.816	2.35
474.018	2.25
474.22	2.41
474.423	2.34
474.625	2.21
474.827	2.5
475.03	2.21
475.232	2.39
475.434	2.59
475.636	2.55
475.838	2.32
476.04	2.14
476.243	2.47
476.445	2.36
476.647	2.29
476.849	2.26
477.051	1.91
477.253	1.83
477.455	1.82
477.657	1.85
477.859	1.9
478.061	1.88
478.263	1.95
478.465	1.68
478.667	1.78
478.869	1.95
479.071	1.89
479.273	1.98
479.475	2.11
479.677	2.33
479.879	2.11
480.081	2.01
480.283	2.11
480.485	2.24
480.686	2.12
480.888	1.94
481.09	1.86
481.292	1.86
481.494	1.84
481.695	1.83
481.897	1.72
482.099	1.81
482.301	1.82
482.502	1.74
482.704	1.73
482.906	1.85
483.107	1.9
483.309	1.93
483.511	1.96
483.712	2.03
483.914	2.04
484.115	2.02
484.317	2.02
484.519	2.02
484.72	2.05
484.922	2.06
485.123	2.07
485.325	2.09
485.526	2.07
485.728	2.09
485.929	2.07
486.131	2.08
486.332	2.07
486.534	2.11
486.735	2.12
486.936	2.1
487.138	2.06
487.339	1.99
487.541	1.99
487.742	2.03
487.943	2
488.144	1.95
488.346	1.96
488.547	1.97
488.748	1.95
488.95	1.93
489.151	1.89
489.352	1.95
489.553	1.99
489.755	1.97
489.956	1.93
490.157	2.02
490.358	2.09
490.559	2.09
490.76	2.11
490.961	2.11
491.163	2.17
491.364	2.26
491.565	2.16
491.766	2.11
491.967	2.07
492.168	2.1
492.369	2.03
492.57	2
492.771	1.98
492.972	1.91
493.173	1.8
493.374	1.69
493.575	1.57
493.776	1.63
493.976	1.71
494.177	1.82
494.378	1.81
494.579	1.87
494.78	1.75
494.981	1.77
495.182	1.74
495.382	1.89
495.583	2.06
495.784	2.16
495.985	2.18
496.185	2.11
496.386	2.12
496.587	1.95
496.788	1.91
496.988	2.04
497.189	2.08
497.39	2.2
497.59	2.11
497.791	2.16
497.992	2.12
498.192	2.16
498.393	2.21
498.593	2.03
498.794	2.13
498.994	2.21
499.195	2.29
499.395	2.17
499.596	2.22
499.796	2.28
499.997	2.18
500.197	2.13
500.398	2.11
500.598	2.04
500.799	2.21
500.999	2.3
501.199	2.22
501.4	2.15
501.6	2.06
501.801	2
502.001	1.88
502.201	1.87
502.402	1.91
502.602	2.04
502.802	2.22
503.002	2.24
503.203	2.17
503.403	2.21
503.603	2.14
503.803	2.29
504.003	2.45
504.204	2.62
504.404	2.7
504.604	2.77
504.804	2.66
505.004	2.59
505.204	2.56
505.404	2.5
505.604	2.42
505.804	2.18
506.005	2.23
506.205	2.06
506.405	2.08
506.605	2.05
506.805	2
507.005	1.98
507.204	1.86
507.404	1.81
507.604	1.84
507.804	2.03
508.004	2.23
508.204	2.19
508.404	2.16
508.604	2.02
508.804	2
509.003	1.94
509.203	1.99
509.403	2.16
509.603	2.11
509.803	2.16
510.002	1.91
510.202	2.1
510.402	2.19
510.602	2.21
510.801	2.28
511.001	2.26
511.201	2.28
511.4	2.21
511.6	2.23
511.8	2.2
511.999	2.15
512.199	2.39
512.398	2.26
512.598	2.2
512.797	2.25
512.997	2.22
513.197	2.31
513.396	2.45
513.596	2.48
513.795	2.4
513.994	2.45
514.194	2.43
514.393	2.35
514.593	2.49
514.792	2.51
514.992	2.46
515.191	2.65
515.39	2.78
515.59	2.57
515.789	2.59
515.988	2.65
516.188	2.75
516.387	2.78
516.586	2.75
516.786	2.7
516.985	2.61
517.184	2.7
517.383	2.48
517.582	2.44
517.782	2.5
517.981	2.63
518.18	2.56
518.379	2.67
518.578	2.67
518.777	2.69
518.976	2.64
519.176	2.6
519.375	2.64
519.574	2.81
519.773	2.72
519.972	2.75
520.171	2.63
520.37	2.69
520.569	2.62
520.768	2.71
520.967	2.78
521.166	2.79
521.365	2.95
521.564	2.8
521.762	2.71
521.961	2.72
522.16	2.82
522.359	2.76
522.558	2.73
522.757	2.66
522.956	2.59
523.154	2.54
523.353	2.55
523.552	2.58
523.751	2.73
523.949	2.76
524.148	2.77
524.347	2.64
524.546	2.83
524.744	2.86
524.943	2.86
525.142	2.78
525.34	2.79
525.539	2.63
525.737	2.56
525.936	2.58
526.135	2.65
526.333	2.63
526.532	2.68
526.73	2.59
526.929	2.54
527.127	2.65
527.326	2.67
527.524	2.64
527.723	2.84
527.921	2.86
528.12	2.84
528.318	2.79
528.516	2.79
528.715	2.79
528.913	2.79
529.112	2.83
529.31	2.73
529.508	2.77
529.707	2.81
529.905	2.72
530.103	2.73
530.301	2.71
530.5	2.71
530.698	2.75
530.896	2.74
531.094	2.86
531.293	2.88
531.491	2.97
531.689	2.96
531.887	2.95
532.085	3
532.283	3.05
532.481	3.06
532.68	3.05
532.878	2.95
533.076	3.02
533.274	2.86
533.472	2.85
533.67	2.85
533.868	2.83
534.066	2.8
534.264	2.75
534.462	2.7
534.66	2.69
534.858	2.74
535.056	2.87
535.253	2.85
535.451	3.03
535.649	3.08
535.847	3.05
536.045	3.09
536.243	3.16
536.441	3.27
536.638	3.29
536.836	3.35
537.034	3.37
537.232	3.35
537.43	3.43
537.627	3.4
537.825	3.44
538.023	3.42
538.22	3.47
538.418	3.42
538.616	3.29
538.813	3.29
539.011	3.35
539.209	3.41
539.406	3.44
539.604	3.37
539.801	3.35
539.999	3.35
540.196	3.54
540.394	3.54
540.591	3.55
540.789	3.59
540.986	3.59
541.184	3.6
541.381	3.56
541.579	3.55
541.776	3.59
541.974	3.59
542.171	3.55
542.368	3.54
542.566	3.56
542.763	3.6
542.96	3.65
543.158	3.63
543.355	3.58
543.552	3.56
543.75	3.5
543.947	3.48
544.144	3.56
544.341	3.57
544.539	3.55
544.736	3.54
544.933	3.61
545.13	3.68
545.327	3.71
545.524	3.93
545.722	3.96
545.919	4.12
546.116	4.1
546.313	4.14
546.51	4.16
546.707	4.14
546.904	4.23
547.101	4.23
547.298	4.19
547.495	4.22
547.692	4
547.889	4.07
548.086	4.12
548.283	4.1
548.48	3.98
548.677	3.96
548.874	4.11
549.07	4.07
549.267	4.06
549.464	4.12
549.661	4.34
549.858	4.46
550.055	4.59
550.251	4.59
550.448	4.8
550.645	5.02
550.842	5.2
551.038	5.15
551.235	5.2
551.432	5.39
551.628	5.38
551.825	5.23
552.022	5.25
552.218	5.09
552.415	5.07
552.612	5.02
552.808	4.82
553.005	4.82
553.201	4.92
553.398	4.98
553.594	4.99
553.791	5.07
553.987	5.29
554.184	5.28
554.38	5.5
554.577	5.43
554.773	5.44
554.97	5.63
555.166	5.74
555.362	5.68
555.559	5.62
555.755	5.48
555.952	5.56
556.148	5.56
556.344	5.46
556.541	5.47
556.737	5.45
556.933	5.76
557.129	5.86
557.326	5.96
557.522	6.14
557.718	6.27
557.914	6.19
558.11	6.2
558.307	6.12
558.503	6.46
558.699	6.64
558.895	6.85
559.091	6.68
559.287	6.42
559.483	6.37
559.679	6.11
559.876	6.11
560.072	6.26
560.268	6.16
560.464	6.15
560.66	5.93
560.856	5.72
561.052	5.74
561.247	5.75
561.443	6.03
561.639	6.1
561.835	6.26
562.031	6.29
562.227	6.42
562.423	6.32
562.619	6.11
562.815	6.45
563.01	6.62
563.206	6.6
563.402	6.81
563.598	6.71
563.793	6.73
563.989	6.66
564.185	6.59
564.381	6.63
564.576	6.68
564.772	7.05
564.968	6.86
565.163	6.8
565.359	6.78
565.555	6.69
565.75	6.66
565.946	6.48
566.141	6.49
566.337	6.62
566.532	6.49
566.728	6.7
566.923	6.62
567.119	6.71
567.314	6.71
567.51	6.76
567.705	6.56
567.901	6.68
568.096	6.95
568.292	7.03
568.487	7.11
568.682	7.49
568.878	7.44
569.073	7.53
569.268	7.6
569.464	7.85
569.659	7.98
569.854	8.24
570.05	8.19
570.245	7.99
570.44	7.96
570.635	7.9
570.831	7.69
571.026	7.87
571.221	7.79
571.416	7.55
571.611	7.18
571.806	7.21
572.002	7.22
572.197	7.36
572.392	7.61
572.587	7.68
572.782	7.59
572.977	7.59
573.172	7.46
573.367	7.57
573.562	7.75
573.757	8.11
573.952	7.95
574.147	7.97
574.342	7.88
574.537	7.9
574.732	7.94
574.927	8.12
575.121	8.11
575.316	8.13
575.511	8.15
575.706	8.23
575.901	8.09
576.096	8.27
576.29	8.38
576.485	8.48
576.68	8.23
576.875	8.21
577.069	8.24
577.264	8.3
577.459	8.39
577.654	8.41
577.848	8.44
578.043	8.65
578.238	8.57
578.432	8.36
578.627	8.3
578.821	8.37
579.016	8.56
579.21	8.42
579.405	8.48
579.6	8.69
579.794	8.9
579.989	8.98
580.183	8.84
580.378	8.97
580.572	8.82
580.766	8.53
580.961	8.46
581.155	8.25
581.35	8.34
581.544	8.36
581.738	8.23
581.933	7.9
582.127	7.63
582.321	7.33
582.516	7.23
582.71	7.56
582.904	7.91
583.099	8.03
583.293	7.87
583.487	7.8
583.681	7.67
583.875	7.68
584.07	7.86
584.264	8.04
584.458	8.21
584.652	8.19
584.846	8.11
585.04	8.07
585.234	8.22
585.428	8.42
585.623	8.42
585.817	8.5
586.011	8.26
586.205	8.3
586.399	8.16
586.593	8.15
586.787	8.25
586.981	8.45
587.174	8.64
587.368	8.48
587.562	8.62
587.756	8.84
587.95	8.83
588.144	8.99
588.338	8.97
588.532	9.06
588.725	8.97
588.919	9.02
589.113	8.95
589.307	8.8
589.501	8.94
589.694	9.15
589.888	9
590.082	8.95
590.275	9.13
590.469	8.98
590.663	9.03
590.856	9.19
591.05	9.34
591.244	9.28
591.437	9.44
591.631	9.25
591.824	8.85
592.018	8.77
592.212	8.82
592.405	8.63
592.599	8.78
592.792	8.5
592.986	8.92
593.179	8.61
593.372	8.89
593.566	8.84
593.759	8.86
593.953	8.95
594.146	9.14
594.339	9.19
594.533	9.3
594.726	9.08
594.92	9.29
595.113	8.97
595.306	8.96
595.499	8.59
595.693	8.71
595.886	8.91
596.079	9.19
596.272	9.08
596.466	9.15
596.659	8.98
596.852	9.11
597.045	9.15
597.238	9.19
597.431	9.25
597.624	9.45
597.818	9.23
598.011	9.28
598.204	9.14
598.397	9.26
598.59	9.35
598.783	9.56
598.976	9.81
599.169	9.88
599.362	9.57
599.555	9.75
599.748	9.7
599.941	9.77
600.134	9.71
600.326	9.89
600.519	9.91
600.712	9.63
600.905	9.33
601.098	9.28
601.291	9.42
601.483	9.62
601.676	9.46
601.869	9.45
602.062	9.76
602.255	9.75
602.447	9.68
602.64	9.74
602.833	9.84
603.025	9.94
603.218	9.96
603.411	9.81
603.603	9.86
603.796	9.9
603.989	9.9
604.181	9.68
604.374	9.62
604.566	9.5
604.759	9.34
604.951	9.29
605.144	9.34
605.336	9.21
605.529	9.21
605.721	9.12
605.914	9.24
606.106	9.18
606.299	9.44
606.491	9.67
606.683	9.64
606.876	9.74
607.068	9.76
607.26	9.76
607.453	9.89
607.645	9.91
607.837	9.97
608.03	9.7
608.222	9.93
608.414	9.66
608.606	9.34
608.799	9.31
608.991	9.24
609.183	9.31
609.375	9.2
609.567	9.04
609.759	9.05
609.952	9.11
610.144	9.34
610.336	9.12
610.528	9.08
610.72	9.19
610.912	9.29
611.104	9.39
611.296	9.22
611.488	9.29
611.68	9.4
611.872	9.08
612.064	8.91
612.256	8.81
612.448	8.96
612.64	8.83
612.832	8.6
613.023	8.41
613.215	8.06
613.407	8.08
613.599	7.93
613.791	8.13
613.983	8.39
614.174	8.44
614.366	8.39
614.558	8.24
614.75	8.32
614.941	8.49
615.133	8.72
615.325	8.98
615.516	9.09
615.708	9.5
615.9	9.14
616.091	9.23
616.283	9.46
616.475	9.36
616.666	9.41
616.858	9.58
617.049	9.71
617.241	9.89
617.432	9.82
617.624	9.73
617.815	9.56
618.007	9.55
618.198	9.48
618.39	9.19
618.581	9.27
618.773	9.1
618.964	8.94
619.155	9
619.347	8.79
619.538	8.96
619.729	9.26
619.921	9.06
620.112	9.32
620.303	9.33
620.494	9.52
620.686	9.64
620.877	9.69
621.068	9.73
621.259	9.76
621.451	9.61
621.642	9.7
621.833	9.57
622.024	9.84
622.215	9.57
622.406	9.23
622.597	9.16
622.788	9.02
622.98	9.06
623.171	9.05
623.362	8.96
623.553	9.1
623.744	9.02
623.935	9.21
624.126	9.2
624.317	9.25
624.508	9.74
624.698	9.7
624.889	9.62
625.08	9.88
625.271	10.17
625.462	10.06
625.653	9.91
625.844	9.99
626.034	9.76
626.225	9.44
626.416	9.54
626.607	9.56
626.798	9.49
626.988	9.58
627.179	9.65
627.37	9.56
627.56	9.67
627.751	9.78
627.942	9.64
628.132	9.85
628.323	9.82
628.514	9.74
628.704	9.58
628.895	9.69
629.085	9.85
629.276	9.48
629.466	9.35
629.657	9.06
629.847	9.02
630.038	9.02
630.228	8.95
630.419	9.19
630.609	9.22
630.8	9.34
630.99	9.57
631.181	9.02
631.371	9.02
631.561	9.17
631.752	9.46
631.942	9.63
632.132	9.71
632.323	9.93
632.513	9.78
632.703	9.93
632.893	9.91
633.084	9.64
633.274	9.98
633.464	10.19
633.654	10.16
633.844	10.22
634.034	10.09
634.225	10.35
634.415	10.13
634.605	10.34
634.795	10.26
634.985	10.32
635.175	10.38
635.365	10.37
635.555	10.03
635.745	10.14
635.935	10.08
636.125	9.73
636.315	9.26
636.505	9.25
636.695	9.34
636.885	9.59
637.075	9.54
637.265	9.42
637.455	9.27
637.644	9.66
637.834	9.52
638.024	8.93
638.214	9.32
638.404	9.43
638.593	8.91
638.783	8.92
638.973	8.68
639.163	8.8
639.352	8.88
639.542	9.18
639.732	8.69
639.921	8.31
640.111	9.01
640.301	9.25
640.49	9.41
640.68	9.74
640.87	9.65
641.059	9.26
641.249	9.43
641.438	9.44
641.628	9.62
641.817	10.57
642.007	10.92
642.196	10.5
642.386	10.24
642.575	10.1
642.764	10.04
642.954	10.08
643.143	10.17
643.333	10.07
643.522	10.31
643.711	10.17
643.901	9.76
644.09	9.67
644.279	9.66
644.469	9.59
644.658	9.49
644.847	9.62
645.036	9.33
645.226	9.58
645.415	9.69
645.604	9.61
645.793	9.32
645.982	9.44
646.171	9.3
646.361	10.02
646.55	10.4
646.739	10.53
646.928	10.45
647.117	10.76
647.306	10.55
647.495	10.39
647.684	10.55
647.873	10.57
648.062	10.73
648.251	11.14
648.44	10.93
648.629	10.57
648.818	10.58
649.007	10.34
649.196	10.54
649.384	10.56
649.573	10.45
649.762	10.43
649.951	10.75
650.14	10.7
650.328	10.52
650.517	10.25
650.706	10
650.895	9.88
651.083	10.33
651.272	9.87
651.461	9.9
651.65	9.93
651.838	9.89
652.027	9.5
652.216	9.28
652.404	9.37
652.593	9.49
652.781	10.11
652.97	10.3
653.158	10.21
653.347	10.64
653.535	11.02
653.724	10.95
653.912	10.71
654.101	11.11
654.289	10.92
654.478	10.96
654.666	11.05
654.855	10.69
655.043	10.4
655.231	10.7
655.42	10.39
655.608	10.43
655.796	10.48
655.985	10.34
656.173	10.24
656.361	10.21
656.55	10.08
656.738	9.84
656.926	9.92
657.114	10.1
657.302	9.89
657.491	10.17
657.679	10.14
657.867	10.37
658.055	10.63
658.243	10.64
658.431	10.8
658.619	10.78
658.807	10.85
658.996	10.99
659.184	11.06
659.372	11.05
659.56	10.95
659.748	10.58
659.936	10.53
660.124	10.3
660.311	10.27
660.499	10.19
660.687	10.35
660.875	10.03
661.063	9.84
661.251	9.83
661.439	9.9
661.627	9.87
661.814	10.08
662.002	9.84
662.19	10.19
662.378	9.82
662.565	10.41
662.753	10.18
662.941	10.45
663.129	10.2
663.316	10.25
663.504	10.3
663.692	10.35
663.879	10.26
664.067	10.9
664.254	10.95
664.442	11.05
664.63	10.63
664.817	10.47
665.005	10.18
665.192	10.62
665.38	10.36
665.567	10.31
665.755	10.31
665.942	10.6
666.13	9.93
666.317	9.5
666.504	9.93
666.692	9.45
666.879	9.93
667.067	10.58
667.254	10.46
667.441	10.83
667.629	10.81
667.816	10.67
668.003	10.24
668.19	10.38
668.378	10.36
668.565	10.13
668.752	10.69
668.939	10.88
669.127	10.67
669.314	10.73
669.501	10.33
669.688	10.37
669.875	10.41
670.062	10.22
670.249	10.48
670.436	10.59
670.623	10.7
670.81	10.49
670.997	9.98
671.184	10.02
671.371	9.77
671.558	9.34
671.745	8.62
671.932	8.46
672.119	9.12
672.306	8.58
672.493	9.02
672.68	9.36
672.867	9.42
673.054	9.02
673.24	9.27
673.427	9.69
673.614	10.45
673.801	10.78
673.988	10.89
674.174	10.88
674.361	11.23
674.548	11.05
674.734	10.31
674.921	10.19
675.108	10.73
675.294	10.2
675.481	10.04
675.668	9.99
675.854	10.17
676.041	10.36
676.227	10.18
676.414	10.27
676.601	10.27
676.787	10.52
676.974	10.32
677.16	10.41
677.347	10.74
677.533	10.46
677.719	10.76
677.906	11.02
678.092	10.64
678.279	11.16
678.465	11.3
678.651	11.13
678.838	11.77
679.024	12.17
679.21	12.26
679.397	12.18
679.583	12.6
679.769	12.06
679.955	11.92
680.142	12.22
680.328	11.96
680.514	11.5
680.7	11.59
680.886	11.14
681.073	10.97
681.259	10.71
681.445	10.44
681.631	10.13
681.817	10.27
682.003	10.33
682.189	10.4
682.375	10.49
682.561	10.77
682.747	10.67
682.933	10.36
683.119	10.49
683.305	10.6
683.491	11.24
683.677	11.22
683.863	11.64
684.049	12.02
684.235	11.74
684.42	11.31
684.606	11.07
684.792	11.11
684.978	11.59
685.164	10.99
685.349	10.89
685.535	10.87
685.721	10.77
685.907	10.72
686.092	10.36
686.278	9.92
686.464	9.78
686.649	10.21
686.835	10.31
687.021	9.96
687.206	10.11
687.392	10.28
687.577	10.03
687.763	10.03
687.948	9.2
688.134	9.18
688.319	9.84
688.505	10.33
688.69	10.23
688.876	10.33
689.061	10.52
689.247	10.73
689.432	10.35
689.618	10.41
689.803	10.59
689.988	10.98
690.174	10.74
690.359	10.46
690.544	10.22
690.73	10.21
690.915	10.29
691.1	10.16
691.285	10.34
691.471	10.41
691.656	10.61
691.841	10.82
692.026	11.09
692.211	11.26
692.396	11.5
692.582	11.33
692.767	11.03
692.952	10.24
693.137	10.08
693.322	10.49
693.507	11.13
693.692	10.08
693.877	9.83
694.062	9.39
694.247	9.65
694.432	9.42
694.617	8.82
694.802	9.12
694.987	9.32
695.172	9.93
695.357	9.33
695.541	9.02
695.726	9.5
695.911	9.76
696.096	9.75
696.281	9.43
696.466	9.59
696.65	10.21
696.835	9.46
697.02	9.62
697.204	9.75
697.389	10.01
697.574	10.08
697.759	10.44
697.943	10.14
698.128	10.11
698.312	9.88
698.497	10.07
698.682	10.42
698.866	11.17
699.051	11.44
699.235	11.13
699.42	11.29
699.604	11.13
699.789	11.07
699.973	10.83
700.158	11.26
700.342	11.81
700.527	11.89
700.711	11.45
700.895	11.65
701.08	11.62
701.264	11.65
701.448	11.74
701.633	11.36
701.817	10.42
702.001	11.5
702.186	11.3
702.37	10.87
702.554	10.84
702.738	10.9
702.923	10.02
703.107	10.03
703.291	10.23
703.475	10.28
703.659	10.47
703.843	10.84
704.027	10.82
704.212	10.65
704.396	10.35
704.58	10.39
704.764	10.91
704.948	10.96
705.132	10.32
705.316	10
705.5	9
705.684	8.88
705.868	10.08
706.052	9.69
706.235	9.54
706.419	9.29
706.603	8.83
706.787	9.49
706.971	9.55
707.155	10.12
707.339	10.28
707.522	10.62
707.706	11.36
707.89	10.87
708.074	10.38
708.257	11.1
708.441	11.93
708.625	11.92
708.808	10.98
708.992	10.87
709.176	10.62
709.359	10.57
709.543	10.84
709.727	10.39
709.91	9.9
710.094	9.96
710.277	9.63
710.461	9.53
710.644	9.24
710.828	8.7
711.011	9.09
711.195	9.32
711.378	9.7
711.562	9.48
711.745	10.01
711.928	10.37
712.112	10.66
712.295	10.24
712.478	9.72
712.662	9.67
712.845	10.35
713.028	9.8
713.212	9.13
713.395	8.31
713.578	8.42
713.761	8.06
713.945	8.3
714.128	8.12
714.311	8.61
714.494	9.5
714.677	9.83
714.86	9.98
715.043	10.48
715.227	11.47
715.41	12.1
715.593	12.06
715.776	12.08
715.959	12.14
716.142	11.89
716.325	11.56
716.508	11.14
716.691	10.89
716.874	10.86
717.057	10.75
717.239	9.49
717.422	9.68
717.605	8.69
717.788	8.4
717.971	8.84
718.154	8.67
718.337	9.22
718.519	9.18
718.702	8.74
718.885	8.82
719.068	9.45
719.25	9.98
719.433	9.85
719.616	11.16
719.798	11.57
719.981	11.2
720.164	11.97
720.346	11.64
720.529	11.12
720.712	11.63
720.894	11.76
721.077	10.77
721.259	10.93
721.442	10.2
721.624	10.52
721.807	10.51
721.989	10.36
722.172	10.32
722.354	11.56
722.537	12.67
722.719	13.54
722.901	13.28
723.084	13.37
723.266	13.35
723.448	13.44
723.631	13.66
723.813	13.3
723.995	12.96
724.178	12.43
724.36	10.59
724.542	9.91
724.724	8.52
724.907	8.64
725.089	8.78
725.271	9.57
725.453	10.15
725.635	9.04
725.817	9.5
725.999	9.17
726.181	9.14
726.364	8.98
726.546	8.29
726.728	9.9
726.91	9.52
727.092	9.27
727.274	7.92
727.456	7.13
727.638	7.09
727.819	7.18
728.001	8.09
728.183	8.48
728.365	9.5
728.547	11.12
728.729	10.7
728.911	11.12
729.093	10.98
729.274	12.45
729.456	13.09
729.638	13.64
729.82	14.21
730.001	14.59
730.183	13.56
730.365	13.36
730.546	12.45
730.728	12.79
730.91	13.1
731.091	13.85
731.273	14.09
731.455	13.83
731.636	13.56
731.818	12.78
731.999	11.6
732.181	13.4
732.362	13.26
732.544	13.34
732.725	13.19
732.907	12.59
733.088	12.18
733.27	12.1
733.451	12.43
733.633	12.36
733.814	12.25
733.995	12.29
734.177	11.26
734.358	11.92
734.539	11.27
734.721	10.29
734.902	10.73
735.083	11.02
735.264	9.82
735.446	9.68
735.627	9.62
735.808	10.6
735.989	10.99
736.17	10.4
736.351	9.39
736.533	10.71
736.714	11.66
736.895	11.99
737.076	12.16
737.257	13.25
737.438	12.71
737.619	13.41
737.8	12.01
737.981	11.6
738.162	13.24
738.343	13.65
738.524	13.17
738.705	12.8
738.886	11.06
739.067	10.63
739.247	9.36
739.428	9.58
739.609	9.09
739.79	10.8
739.971	11.5
740.151	10.26
740.332	10.81
740.513	10.25
740.694	10.24
740.874	12.88
741.055	13.18
741.236	14.12
741.417	14.03
741.597	13.24
741.778	12.09
741.958	11.72
742.139	12.84
742.32	12.1
742.5	13.61
742.681	13.87
742.861	11.62
743.042	10.82
743.222	10.36
743.403	10.83
743.583	11.92
743.764	11.62
743.944	11.83
744.124	10.64
744.305	11.87
744.485	10.18
744.666	11.04
744.846	11.07
745.026	11.77
745.207	11.65
745.387	11.14
745.567	10.67
745.747	10.43
745.928	10.39
746.108	12.37
746.288	11.2
746.468	12.64
746.648	11.95
746.829	10.71
747.009	12.18
747.189	11.54
747.369	11.53
747.549	12.52
747.729	12.89
747.909	12.87
748.089	12.08
748.269	12.81
748.449	11.75
748.629	10.76
748.809	13.03
748.989	11.5
749.169	12.22
749.349	12.8
749.529	12.18
749.709	12.63
749.889	12.7
750.068	11.77
750.248	11.92
750.428	13.39
750.608	14.45
750.788	13.4
750.967	13.24
751.147	13.7
751.327	14.31
751.507	14.11
751.686	12.75
751.866	11.99
752.046	11.99
752.225	11.37
752.405	9.24
752.585	9.64
752.764	9.83
752.944	9.31
753.123	7.41
753.303	6.94
753.482	7.48
753.662	8.19
753.841	9.13
754.021	8.59
754.2	7.57
754.38	7.45
754.559	5.59
754.739	6.09
754.918	6.79
755.097	9.01
755.277	9.13
755.456	9.46
755.635	9.49
755.815	9.97
755.994	11.51
756.173	13.3
756.352	14.07
756.532	14.31
756.711	13.11
756.89	12.74
757.069	12.18
757.248	12.42
757.427	11.79
757.607	12.42
757.786	11.23
757.965	12.04
758.144	11.02
758.323	11.13
758.502	11.09
758.681	10.74
758.86	9.9
759.039	8.76
759.218	8.38
759.397	8.37
759.576	7.32
759.755	8
759.934	5.5
760.113	6.43
760.291	7.48
760.47	8.81
760.649	11.15
760.828	14.23
761.007	15.8
761.186	16.36
761.364	17.96
761.543	18.72
761.722	19.13
761.901	20.38
762.079	19.5
762.258	18.85
762.437	18.71
762.615	16.98
762.794	15.48
762.972	15.22
763.151	13.82
763.33	12.24
763.508	11.86
763.687	12.04
763.865	12.4
764.044	13.31
764.222	13.34
764.401	13.65
764.579	13.22
764.758	12.88
764.936	13.22
765.114	14.6
765.293	15.21
765.471	15.19
765.65	14.13
765.828	13.34
766.006	12.93
766.184	11.99
766.363	11.16
766.541	12.35
766.719	13.36
766.898	13.67
767.076	13.48
767.254	13.29
767.432	14.52
767.61	15.76
767.788	16.12
767.967	15.72
768.145	17.33
768.323	15.98
768.501	17.15
768.679	15.98
768.857	14.74
769.035	13.66
769.213	12.82
769.391	11.8
769.569	9.69
769.747	9.14
769.925	8.16
770.103	6.9
770.281	7.91
770.459	5.82
770.636	6.1
770.814	4.95
770.992	6.23
771.17	6.52
771.348	7.62
771.525	9.08
771.703	8.66
771.881	9.5
772.059	10
772.236	9.4
772.414	10.27
772.592	11.33
772.769	13.5
772.947	13.46
773.125	13.09
773.302	12.49
773.48	12.14
773.657	13.23
773.835	13.31
774.013	11.84
774.19	12.48
774.368	11.64
774.545	10.32
774.723	9.6
774.9	6.99
775.077	8.24
775.255	7.36
775.432	7.4
775.61	6.13
775.787	4.72
775.964	5.15
776.142	6.91
776.319	8.72
776.496	8.7
776.674	6.16
776.851	8.42
777.028	7.63
777.205	7.89
777.382	8.04
777.56	8.64
777.737	9.87
777.914	12.43
778.091	11.92
778.268	11.87
778.445	11.36
778.622	13.6
778.8	13.99
778.977	13.59
779.154	14.8
779.331	15.22
779.508	16.74
779.685	15.94
779.862	13.15
780.038	13.47
780.215	12.61
780.392	13.54
780.569	16.46
780.746	17.53
780.923	20.71
781.1	20.16
781.277	19.51
781.453	19.21
781.63	19.6
781.807	20.2
781.984	18.96
782.16	21.11
782.337	22.46
782.514	18.31
782.691	17.73
782.867	16.17
783.044	16.48
783.221	17.13
783.397	17.96
783.574	20.86
783.75	22.78
783.927	26.35
784.103	25.05
784.28	25.04
784.456	26.15
784.633	24.44
784.809	24.25
784.986	25.09
785.162	23.88
785.339	20.86
785.515	17.52
785.692	14.28
785.868	11.16
786.044	5.66
786.221	3.71
786.397	5.84
786.573	5.36
786.749	3.79
786.926	2.66
787.102	5.23
787.278	7.3
787.454	8.37
787.631	7.95
787.807	7.36
787.983	9.66
788.159	9.1
788.335	8.34
788.511	7.24
788.687	10.82
788.863	10.41
789.039	10.23
789.216	9.86
789.392	11.81
789.568	15.11
789.744	15.25
789.919	16.39
790.095	16.84
790.271	16.35
790.447	18.25
790.623	17.6
790.799	17.55
790.975	14.99
791.151	17.67
791.327	17.09
791.502	18.03
791.678	18.62
791.854	19.92
792.03	20.46
792.205	20.72
792.381	21.18
792.557	19.74
792.733	19.35
792.908	19.33
793.084	18.81
793.259	15.69
793.435	10.04
793.611	10.34
793.786	11.51
793.962	10.32
794.137	11.51
794.313	12.69
794.488	10.94
794.664	10.3
794.839	12.78
795.015	12.19
795.19	13.01
795.366	14.85
795.541	14.7
795.716	11.46
795.892	13.33
796.067	12.09
796.242	9.29
796.418	9.62
796.593	9.5
796.768	7.54
796.944	7.45
797.119	9.97
797.294	11.33
797.469	10.5
797.644	8.84
797.82	6.98
797.995	6.63
798.17	5.56
798.345	7.44
798.52	6.01
798.695	6.53
798.87	5.3
799.045	3.75
799.22	4.03
799.395	6.41
799.57	11.18
799.745	12.94
799.92	15.03
800.095	19.29
800.27	20
800.445	22.1
800.62	21.52
800.795	20.56
800.97	21.44
801.145	22.24
801.319	18.98
801.494	17.95
801.669	18.74
801.844	15.27
802.018	13.21
802.193	10.93
802.368	10.54
802.543	11.06
802.717	11.63
802.892	13.07
803.067	11.44
803.241	14.85
803.416	12.83
803.59	7.2
803.765	10.22
803.94	7.05
804.114	7.56
804.289	7.75
804.463	5.16
804.638	6.07
804.812	2.48
804.986	0.15
805.161	-3.2
805.335	-1.58
805.51	6.1
805.684	2.27
805.858	8.17
806.033	6.84
806.207	8.72
806.381	11.59
806.556	10.38
806.73	10.91
806.904	14.28
807.078	14.92
807.253	13.54
807.427	11.38
807.601	16.38
807.775	10.99
807.949	12.73
808.123	10.42
808.298	12.53
808.472	16.78
808.646	16.15
808.82	13.41
808.994	15.65
809.168	16.33
809.342	13.93
809.516	12.73
809.69	13.87
809.864	13.61
810.038	11.15
810.212	11.41
810.385	8.44
810.559	12.46
810.733	11.55
810.907	8.8
811.081	9.51
811.255	12.95
811.428	13.14
811.602	15.06
811.776	14.02
811.95	19.37
812.123	20.68
812.297	19.08
812.471	15.64
812.644	19.59
812.818	20.49
812.992	18.55
813.165	14.22
813.339	13.19
813.512	13.39
813.686	16.77
813.86	18.03
814.033	17.72
814.207	17.67
814.38	17.12
814.554	16.54
814.727	15.8
814.9	19.27
815.074	22.41
815.247	21.36
815.421	22.44
815.594	26.68
815.767	24.29
815.941	19.3
816.114	19.42
816.287	18.53
816.46	19.12
816.634	17.81
816.807	18.22
816.98	14.91
817.153	16.11
817.327	14.47
817.5	10.33
817.673	9.35
817.846	12.72
818.019	11.48
818.192	14.42
818.365	9.51
818.538	9.63
818.711	10.19
818.884	11.98
819.057	12.29
819.23	14.27
819.403	13.49
819.576	12.15
819.749	12.55
819.922	14.24
820.095	11.88
820.268	14.5
820.441	13.77
820.614	11.33
820.786	13.13
820.959	12.82
821.132	11.4
821.305	10.01
821.477	12.5
821.65	12.54
821.823	12.73
821.996	13.48
822.168	13.22
822.341	13.93
822.514	14.72
822.686	14.04
822.859	14.13
823.031	14.36
823.204	14.63
823.376	14.09
823.549	13.85
823.722	13.66
823.894	13.68
824.067	13.45
824.239	13.03
824.411	13.18
824.584	13.61
824.756	14.23
824.929	14.73
825.101	14.81
825.273	15.9
825.446	16.1
825.618	16.96
825.79	16.6
825.963	17.72
826.135	18.79
826.307	18.02
826.479	19.03
826.652	17.64
826.824	17.7
826.996	16.5
827.168	14.36
827.34	14.04
827.512	13.67
827.684	13.41
827.856	12.57
828.029	12.86
828.201	11.51
828.373	10.24
828.545	12.37
828.717	11.76
828.889	14.16
829.061	15.81
829.232	15.37
829.404	15.67
829.576	16.15
829.748	19.58
829.92	17.39
830.092	19.31
830.264	18.72
830.436	17.25
830.607	17
830.779	17.19
830.951	15.87
831.123	17.24
831.294	18.56
831.466	15.24
831.638	12.37
831.809	12.53
831.981	11.28
832.153	8.49
832.324	5.41
832.496	-0.41
832.667	0.78
832.839	0.99
833.011	1.38
833.182	1.11
833.354	6.36
833.525	3.42
833.697	6.41
833.868	9.15
834.039	12.14
834.211	12.41
834.382	15.25
834.554	14.6
834.725	15.46
834.896	16.3
835.068	15.15
835.239	15.33
835.41	15.43
835.581	15.2
835.753	14.06
835.924	13.76
836.095	14.24
836.266	14.57
836.438	14.55
836.609	14.59
836.78	12.73
836.951	12.63
837.122	9.52
837.293	10.34
837.464	9.99
837.635	13.35
837.806	13.84
837.977	12.94
838.148	13.14
838.319	17.73
838.49	19.82
838.661	23.82
838.832	28.17
839.003	25.89
839.174	28.65
839.345	25.66
839.516	20.89
839.687	18.09
839.857	22.44
840.028	23.54
840.199	18.89
840.37	11.72
840.54	6.14
840.711	1.79
840.882	3.54
841.053	0.53
841.223	1.52
841.394	3.9
841.564	2.77
841.735	1.68
841.906	2.02
842.076	-0.96
842.247	0.74
842.417	-0.4
842.588	0.39
842.758	7.6
842.929	10.65
843.099	10.47
843.27	8.82
843.44	12.1
843.611	14.17
843.781	7.6
843.951	14.74
844.122	21.65
844.292	19.71
844.462	24.56
844.633	28.13
844.803	27.32
844.973	40.59
845.144	52.34
845.314	52.62
845.484	43.29
845.654	39.47
845.824	26.54
845.995	24.7
846.165	36.23
846.335	21.51
846.505	13.92
846.675	18.32
846.845	5.77
847.015	8.71
847.185	13.39
847.355	24.38
847.525	31.27
847.695	33.39
847.865	33.34
848.035	30.77
848.205	40.39
848.375	32.73
848.545	23.73
848.715	23.86
848.884	9.76
849.054	9.03
849.224	-11.02
849.394	-12.78
849.564	-15.22
849.733	-20.25
849.903	-13.09
850.073	-38.61
850.243	-15.66
850.412	-16.92
850.582	-39.6
850.752	-42.37
850.921	-42.27
851.091	-28.6
851.26	-29.64
851.43	-28.58
851.599	-29.3
851.769	-18.13
851.939	14.52
852.108	16.2
852.278	25.81
852.447	35.45
852.616	46.42
852.786	52.57
852.955	40.71
853.125	50.31
853.294	48.21
853.463	48.58
853.633	26.69
853.802	26.67
853.971	22.99
854.141	19.43
854.31	26.23
854.479	22.5
854.648	24.67
854.818	31.49
854.987	35.46
855.156	40.07
855.325	30.08
855.494	36.65
855.663	34.1
855.832	35.92
856.001	39.1
856.171	39.07
856.34	38.4
856.509	20.3
856.678	36.1
856.847	29.84
857.016	15.8
857.185	23.81
857.353	22.5
857.522	21.4
857.691	19.14
857.86	0.36
858.029	14.42
858.198	39.73
858.367	53.78
858.535	52.69
858.704	52.13
858.873	59.85
859.042	67.62
859.21	92.18
859.379	39.69
859.548	42.8
859.717	50.51
859.885	6.08
860.054	-29.89
860.222	-33.44
860.391	-34.81
860.56	-16.78
860.728	-14.33
860.897	-18.14
861.065	-11.01
861.234	-4.2
861.402	-19.05
861.571	-9.66
861.739	-2.63
861.908	5.73
862.076	13
862.244	10.84
862.413	-4.01
862.581	6.13
862.749	8.6
862.918	7.87
863.086	9.41
863.254	14.57
863.423	-0.86
863.591	-8.65
863.759	-8.15
863.927	-13.76
864.096	-3.12
864.264	4.22
864.432	-5.03
864.6	-8.03
864.768	-4.23
864.936	-4.35
865.104	0.97
865.272	16.35
865.44	27.16
865.608	36.47
865.776	21.43
865.944	12.41
866.112	14.87
866.28	19.27
866.448	5.84
866.616	18.31
866.784	21.04
866.952	0.96
867.12	-25.21
867.288	-23.37
867.455	-45.54
867.623	-34.6
867.791	-15.82
867.959	-22.1
868.127	-24.04
868.294	9.57
868.462	-5.01
868.63	2.32
868.797	23.57
868.965	48.56
869.133	34.38
869.3	13.13
869.468	17.26
869.636	-37.71
869.803	-4.83
869.971	1.03
870.138	-19.87
870.306	-28.79
870.473	-34.56
870.641	-25.48
870.808	-33.09
870.975	-4.77
871.143	-7.06
871.31	0.72
871.478	25.77
871.645	6.46
871.812	1.4
871.98	-1.05
872.147	2.55
872.314	2.68
872.482	7.95
872.649	26.01
872.816	16
872.983	37.34
873.15	32.59
873.318	33.15
873.485	62.46
873.652	77.18
873.819	60.9
873.986	67.41
874.153	51
874.32	33.47
874.487	39.31
874.654	40.46
874.821	32.47
874.988	22.14
875.155	18.01
875.322	-7.31
875.489	-3.48
875.656	6.18
875.823	-4.01
875.99	-2.3
876.157	-8.76
876.324	-29.69
876.49	-25.23
876.657	-29.57
876.824	-28.26
876.991	-37.06
877.157	-10.17
877.324	-9.11
877.491	-21.18
877.658	-12.26
877.824	2.48
877.991	15.88
878.157	14.46
878.324	7.53
878.491	34.56
878.657	46.79
878.824	56.19
878.99	37.48
879.157	38.87
879.323	36.31
879.49	39.12
879.656	37.31
879.823	28.86
879.989	28.07
880.156	25.91
880.322	21.36
880.488	16.41
880.655	19.68
880.821	28.5
880.987	32.75
881.154	43.3
881.32	30.15
881.486	25.39
881.652	29.84
881.819	34.93
881.985	32.32
882.151	26.7
882.317	25.69
882.483	25.08
882.649	20.03
882.816	16.59
882.982	8.45
883.148	12.37
883.314	14.16
883.48	11.54
883.646	8.85
883.812	11.84
883.978	15.63
884.144	17.06
884.31	16.16
884.476	19.85
884.642	20.74
884.807	25.41
884.973	27.36
885.139	26.45
885.305	27.64
885.471	28.03
885.637	25.32
885.802	27.08
885.968	25.95
886.134	26.83
886.3	22.85
886.465	22.78
886.631	19.6
886.797	13.53
886.962	14.71
887.128	18.41
887.293	17.31
887.459	17.79
887.625	13.25
887.79	15.44
887.956	14.74
888.121	20.74
888.287	21.67
888.452	24.02
888.618	31.36
888.783	32.04
