Data from 2938074_Reflection_1.txt Node
Date: Sat Jul 11 20:29:03 EDT 2015
User: robert
Spectrometer: USB4E03001
Autoset integration time: false
Trigger mode: 4
Integration Time (sec): 1.000000E-1
Scans to average: 10
Electric dark correction enabled: true
Nonlinearity correction enabled: false
Boxcar width: 5
Stray light correction enabled: false
XAxis mode: Wavelengths
Stop averaging: false
Number of Pixels in Spectrum: 3648
>>>>>Begin Spectral Data<<<<<
177.566	-27.56
177.785	-9.65
178.005	66.16
178.225	101.89
178.445	116.89
178.665	137.52
178.885	176.68
179.105	72.35
179.324	110.84
179.544	-154.45
179.764	32.53
179.984	24.96
180.204	43.41
180.423	32.28
180.643	72.91
180.863	84.53
181.083	129.79
181.302	187.44
181.522	147.26
181.742	142.33
181.961	350.44
182.181	-469.84
182.401	132.46
182.621	72.74
182.84	83.55
183.06	157.47
183.279	797.03
183.499	73.41
183.719	97.29
183.938	94.11
184.158	163.19
184.377	131.47
184.597	163.16
184.816	271.31
185.036	624.12
185.256	418.12
185.475	124.52
185.695	123.96
185.914	183.85
186.134	115.53
186.353	140.52
186.572	149.19
186.792	159.45
187.011	183.76
187.231	139.82
187.45	176.41
187.67	182.08
187.889	226.33
188.108	265.35
188.328	317.91
188.547	407.03
188.766	247.28
188.986	361.57
189.205	242.25
189.424	154.17
189.644	157.09
189.863	137.68
190.082	125.97
190.302	117.24
190.521	101.07
190.74	74.72
190.959	93.59
191.178	102.93
191.398	113.89
191.617	114.56
191.836	126.61
192.055	211.98
192.274	183.73
192.494	168.91
192.713	187.74
192.932	180.66
193.151	185.37
193.37	233.47
193.589	287.87
193.808	261.53
194.027	241.56
194.246	283.84
194.465	233.73
194.685	235.92
194.904	222.78
195.123	171.66
195.342	193.28
195.561	222.55
195.78	169.39
195.999	128.64
196.218	105.06
196.436	109.07
196.655	71.9
196.874	67.93
197.093	86.29
197.312	52.69
197.531	72.46
197.75	95.18
197.969	112.05
198.188	139.77
198.407	175.53
198.625	175.19
198.844	147.33
199.063	203.92
199.282	254.72
199.501	390.75
199.719	-234.6
199.938	-180.41
200.157	-259.44
200.376	-597.34
200.594	1013.86
200.813	11954.44
201.032	-760.67
201.251	-180.65
201.469	-170.71
201.688	-336.03
201.907	-658.87
202.125	2415.64
202.344	12070
202.563	1267.6
202.781	671.67
203	-1781.96
203.218	424.77
203.437	241.01
203.656	166.68
203.874	136.27
204.093	123.55
204.311	135.12
204.53	114.75
204.748	109.79
204.967	101.99
205.185	90.03
205.404	69.69
205.622	75.7
205.841	59.41
206.059	69.76
206.278	69
206.496	70.28
206.715	53.53
206.933	78.77
207.151	77.63
207.37	76.98
207.588	101.27
207.806	119.87
208.025	129.63
208.243	191.39
208.461	180.07
208.68	175.14
208.898	210.02
209.116	239.33
209.335	198.11
209.553	165.59
209.771	268.06
209.989	168.24
210.208	242.6
210.426	560.09
210.644	-60.33
210.862	-119.88
211.081	-50.97
211.299	-63.7
211.517	-279.01
211.735	-457.12
211.953	-422.47
212.171	888.82
212.39	-159.09
212.608	-312.79
212.826	-5985.87
213.044	351.88
213.262	473.51
213.48	207.81
213.698	105.08
213.916	146.59
214.134	155.08
214.352	143.21
214.57	1071.48
214.788	139.8
215.006	124.08
215.224	170.18
215.442	172.54
215.66	213.04
215.878	274.53
216.096	204.75
216.314	205.2
216.532	218.16
216.75	570.91
216.968	355.94
217.185	586.67
217.403	560.83
217.621	818.29
217.839	221.91
218.057	123.96
218.275	159.23
218.492	166.83
218.71	122.35
218.928	118.09
219.146	101.9
219.363	109.47
219.581	117.28
219.799	110.39
220.017	118.42
220.234	145.68
220.452	162.79
220.67	120.67
220.887	106.35
221.105	117.6
221.323	121.16
221.54	105.68
221.758	90.7
221.976	81.66
222.193	79.32
222.411	71.23
222.629	62.94
222.846	53.96
223.064	62.89
223.281	68.71
223.499	60.37
223.716	63.97
223.934	46.75
224.151	46.91
224.369	40.6
224.586	37.85
224.804	28.62
225.021	23.37
225.239	21.07
225.456	21.44
225.674	21.45
225.891	34.17
226.108	33.71
226.326	36.64
226.543	43.31
226.76	47.9
226.978	39.44
227.195	41.6
227.413	39.15
227.63	34.72
227.847	35.01
228.064	26.96
228.282	23.69
228.499	18.96
228.716	16.27
228.934	14.11
229.151	12.03
229.368	13.08
229.585	13.21
229.802	16.28
230.02	16.78
230.237	17.23
230.454	16.65
230.671	17.56
230.888	18.84
231.105	22.25
231.323	20.88
231.54	26.02
231.757	28.51
231.974	32.33
232.191	34.67
232.408	35.5
232.625	31.96
232.842	31.66
233.059	27.01
233.276	26.83
233.493	25.72
233.71	26.4
233.927	27.73
234.144	23.51
234.361	19.55
234.578	11.24
234.795	11.71
235.012	18.24
235.229	25.69
235.446	24.76
235.663	26.29
235.879	24.19
236.096	21.77
236.313	18.43
236.53	17.33
236.747	16.62
236.964	18.12
237.181	18.95
237.397	14.93
237.614	15
237.831	16.11
238.048	16.19
238.264	20.89
238.481	26.28
238.698	26.83
238.915	28.31
239.131	28.24
239.348	26.78
239.565	24.71
239.781	24.11
239.998	23.13
240.215	23.81
240.431	20.3
240.648	15.75
240.865	14.42
241.081	14.03
241.298	12.02
241.514	10.61
241.731	11.45
241.947	11.22
242.164	10.94
242.38	10.8
242.597	10.09
242.814	10.16
243.03	10.78
243.246	11.01
243.463	9.82
243.679	11.96
243.896	14
244.112	14.36
244.329	15.2
244.545	13.55
244.762	12.41
244.978	12.42
245.194	15.36
245.411	15.45
245.627	15.44
245.843	15.07
246.06	14.26
246.276	12.73
246.492	13.2
246.709	12.85
246.925	13.84
247.141	14.11
247.357	13.66
247.574	13.05
247.79	13.69
248.006	13.25
248.222	14
248.439	13.43
248.655	13
248.871	12.33
249.087	12.25
249.303	12.8
249.519	13.24
249.736	14.2
249.952	14.21
250.168	13.47
250.384	14.9
250.6	13.69
250.816	14.28
251.032	13.36
251.248	13.28
251.464	13.12
251.68	11.31
251.896	11.43
252.112	11.66
252.328	10.19
252.544	10.52
252.76	10.27
252.976	11.9
253.192	11.15
253.408	13.58
253.624	14.2
253.84	15.68
254.056	17.53
254.272	16.99
254.487	18.67
254.703	20.11
254.919	19.97
255.135	18.77
255.351	15.78
255.567	18.35
255.782	17.22
255.998	15.52
256.214	14.66
256.43	14.4
256.646	14.43
256.861	14.74
257.077	18.78
257.293	18.4
257.508	18.48
257.724	19.39
257.94	17.55
258.155	16
258.371	17.02
258.587	16.26
258.802	16.02
259.018	14.6
259.234	13.41
259.449	10.99
259.665	10.54
259.88	9.99
260.096	10.08
260.312	9.59
260.527	10.31
260.743	9.8
260.958	9.64
261.174	8.22
261.389	8.69
261.605	7.75
261.82	8.25
262.036	8.09
262.251	8.89
262.466	8.61
262.682	9.23
262.897	8.89
263.113	9.5
263.328	8.92
263.543	9.08
263.759	8.32
263.974	9.4
264.189	10.77
264.405	10.87
264.62	9.87
264.835	10.68
265.051	11.39
265.266	11.3
265.481	12.22
265.696	11.39
265.912	9.85
266.127	9.15
266.342	8.99
266.557	8.66
266.773	7.46
266.988	7.54
267.203	6.02
267.418	5.95
267.633	4.6
267.848	1.76
268.064	3.48
268.279	4.83
268.494	8.3
268.709	8.4
268.924	7.66
269.139	7.27
269.354	6.52
269.569	6.69
269.784	6.36
269.999	7.11
270.214	8.64
270.429	8.97
270.644	10.04
270.859	6
271.074	5.86
271.289	5.84
271.504	7.88
271.719	7.82
271.934	7.72
272.149	8.79
272.363	9.39
272.578	10.01
272.793	9.73
273.008	8.95
273.223	10.62
273.438	11.01
273.653	11.29
273.867	9.99
274.082	11.33
274.297	11.67
274.512	12.15
274.726	12.29
274.941	11.53
275.156	10.81
275.371	10.16
275.585	11.38
275.8	11.14
276.015	11.04
276.229	13.33
276.444	12.05
276.659	11.61
276.873	10.56
277.088	10.11
277.302	10.99
277.517	10.93
277.732	13.99
277.946	12.04
278.161	11.84
278.375	11.96
278.59	10.45
278.804	11.17
279.019	11.67
279.233	10.85
279.448	10.73
279.662	10.4
279.877	10.19
280.091	8
280.306	9.42
280.52	9.42
280.735	10.66
280.949	12.11
281.163	12.5
281.378	12.8
281.592	12.66
281.806	13.07
282.021	12.64
282.235	12.98
282.449	13.58
282.664	12.51
282.878	13.09
283.092	12.56
283.307	10.92
283.521	10.24
283.735	10.55
283.949	10.24
284.164	10.49
284.378	11.23
284.592	11.23
284.806	11.9
285.02	11.18
285.234	11.14
285.449	10.75
285.663	11.82
285.877	12.03
286.091	11.68
286.305	11.42
286.519	10.95
286.733	11.04
286.947	10.92
287.161	9.96
287.375	10.2
287.589	9.7
287.803	9.94
288.017	9.74
288.231	9.53
288.445	9.14
288.659	8.65
288.873	8.9
289.087	7.77
289.301	7.17
289.515	7.84
289.729	9.16
289.943	9.33
290.157	10.28
290.371	10.96
290.584	10.57
290.798	11.08
291.012	12.85
291.226	13.68
291.44	14.03
291.654	14.01
291.867	14.28
292.081	12.89
292.295	14.05
292.509	12.97
292.722	11.63
292.936	12.49
293.15	12.72
293.364	11.86
293.577	10.31
293.791	11.47
294.005	12.27
294.218	12.15
294.432	12.64
294.645	11.03
294.859	11.03
295.073	10.31
295.286	9.57
295.5	9.71
295.713	9.25
295.927	10.18
296.14	9.76
296.354	9.55
296.568	9.24
296.781	9.5
296.994	10.33
297.208	10.42
297.421	10.78
297.635	11.43
297.848	11.59
298.062	12.1
298.275	11.67
298.489	11.64
298.702	12.3
298.915	12.01
299.129	12.9
299.342	12.73
299.555	12.36
299.769	13.03
299.982	13.32
300.195	11.95
300.409	11.86
300.622	11.77
300.835	12.05
301.048	12.04
301.262	12.1
301.475	11.61
301.688	11.6
301.901	11.62
302.115	11.33
302.328	10.95
302.541	11.41
302.754	12.13
302.967	12.19
303.18	12.64
303.393	12.2
303.607	11.99
303.82	11.31
304.033	10.49
304.246	11.42
304.459	12.69
304.672	11.84
304.885	10.58
305.098	9.37
305.311	9.36
305.524	8.87
305.737	7.16
305.95	9.27
306.163	8.5
306.376	9.11
306.589	8.14
306.802	7.2
307.015	9.46
307.228	10.66
307.44	11.49
307.653	12.75
307.866	12.08
308.079	12.36
308.292	10.87
308.505	12.94
308.718	13.18
308.93	14.3
309.143	14.68
309.356	14.24
309.569	14.74
309.781	14.31
309.994	13.53
310.207	13.86
310.42	15.29
310.632	15.14
310.845	13.67
311.058	13.31
311.27	12.17
311.483	11.65
311.696	10.43
311.908	10.73
312.121	11.64
312.333	10.99
312.546	11.5
312.759	11.71
312.971	12.04
313.184	12.52
313.396	12.47
313.609	12.73
313.821	12.85
314.034	13.45
314.246	14.19
314.459	13.4
314.671	13.22
314.884	11.04
315.096	10.48
315.309	9.62
315.521	11.04
315.733	11.52
315.946	11.79
316.158	11.46
316.371	11.64
316.583	11.69
316.795	11.54
317.008	12.27
317.22	13.77
317.432	13.74
317.644	14.43
317.857	13.11
318.069	12.28
318.281	12.74
318.494	11.86
318.706	12.73
318.918	10.76
319.13	12.23
319.342	13.1
319.555	13.76
319.767	13.63
319.979	13.93
320.191	14.87
320.403	15.47
320.615	15.7
320.827	16.69
321.039	15.98
321.252	17.27
321.464	17.47
321.676	16.16
321.888	15.48
322.1	14.88
322.312	13.18
322.524	12.15
322.736	11.99
322.948	10.54
323.16	9.79
323.372	9.59
323.584	8.98
323.796	8.04
324.007	8.56
324.219	9.04
324.431	10.43
324.643	11.79
324.855	12.16
325.067	12.89
325.279	12.49
325.491	12.99
325.702	13.17
325.914	13.69
326.126	13.38
326.338	13.18
326.55	12.61
326.761	11.52
326.973	10.71
327.185	10.16
327.396	8.61
327.608	10.18
327.82	9.68
328.032	8.98
328.243	7.77
328.455	7.22
328.666	6.87
328.878	7.93
329.09	7.33
329.301	6.25
329.513	6.42
329.725	7.58
329.936	5.26
330.148	5.52
330.359	7.04
330.571	7.55
330.782	7.04
330.994	5.36
331.205	3.86
331.417	4.87
331.628	6.86
331.84	7.48
332.051	7.57
332.262	9.02
332.474	9.25
332.685	9.35
332.897	8.78
333.108	9.71
333.319	12.23
333.531	13
333.742	12.44
333.953	12.3
334.165	12.12
334.376	11.77
334.587	11.76
334.799	12.44
335.01	11.26
335.221	10.3
335.432	11.56
335.644	11.91
335.855	11.24
336.066	11.6
336.277	11.6
336.488	10.62
336.7	10.23
336.911	9.38
337.122	9.25
337.333	9.95
337.544	11.99
337.755	10.83
337.966	10.43
338.177	11.07
338.388	11.57
338.599	11.38
338.811	11.94
339.022	12.68
339.233	13.24
339.444	13.18
339.655	13.1
339.866	12.99
340.076	13.32
340.287	12.85
340.498	11.96
340.709	11.46
340.92	11.52
341.131	12.19
341.342	12.02
341.553	12.19
341.764	12
341.975	10.72
342.185	10.03
342.396	10.47
342.607	10.99
342.818	11.76
343.029	12.73
343.239	11.9
343.45	12.31
343.661	12.25
343.872	12.11
344.082	12.44
344.293	13.37
344.504	14.13
344.714	13.24
344.925	13.31
345.136	12.29
345.346	11.5
345.557	12.6
345.768	12.14
345.978	12.33
346.189	11.39
346.399	10.75
346.61	10.92
346.821	10.59
347.031	11.24
347.242	10.47
347.452	11
347.663	10.17
347.873	9.77
348.084	10.02
348.294	10.11
348.504	10.33
348.715	11.07
348.925	11.42
349.136	11.39
349.346	10.68
349.557	11.2
349.767	11.54
349.977	11.76
350.188	12.74
350.398	13.29
350.608	12.97
350.819	14
351.029	14.18
351.239	13.42
351.449	13.77
351.66	13.97
351.87	13.53
352.08	12.68
352.29	13.67
352.501	13.94
352.711	12.89
352.921	13.16
353.131	13.18
353.341	11.84
353.552	12.22
353.762	11.39
353.972	11.53
354.182	11.38
354.392	12.1
354.602	11.61
354.812	9.87
355.022	9.85
355.232	9.4
355.442	9.67
355.652	10.29
355.862	9.53
356.072	9.83
356.282	10.15
356.492	10.63
356.702	10.51
356.912	11.17
357.122	11.73
357.332	12.09
357.542	12.13
357.752	11.35
357.962	11.34
358.171	11.88
358.381	11.42
358.591	11.01
358.801	10.51
359.011	10.74
359.221	10
359.43	10.03
359.64	9.63
359.85	9.45
360.06	9.35
360.269	8.99
360.479	8.13
360.689	8.63
360.899	8.83
361.108	9.15
361.318	8.79
361.528	8.54
361.737	8.62
361.947	8.6
362.156	8.64
362.366	9.36
362.576	9.42
362.785	9.57
362.995	9.57
363.204	9.32
363.414	9
363.623	8.53
363.833	8.53
364.042	7.63
364.252	7.66
364.461	7.8
364.671	7.7
364.88	7.82
365.09	9.49
365.299	9.71
365.509	9.55
365.718	9.55
365.927	9.99
366.137	10.05
366.346	10.82
366.555	11.14
366.765	11.33
366.974	11.26
367.183	11.21
367.393	10.7
367.602	9.78
367.811	10.27
368.021	11.58
368.23	11.8
368.439	11.92
368.648	12.03
368.857	11.24
369.067	11.54
369.276	11.04
369.485	10.84
369.694	10.39
369.903	10.48
370.112	10.61
370.321	9.17
370.531	8.95
370.74	8.97
370.949	8.44
371.158	8.56
371.367	7.96
371.576	8.2
371.785	8.61
371.994	8.61
372.203	8.75
372.412	8.76
372.621	9.04
372.83	9.33
373.039	9.46
373.248	9.78
373.457	10.06
373.666	9.98
373.874	9.58
374.083	9.57
374.292	9.17
374.501	8.71
374.71	8.01
374.919	8.26
375.128	8.07
375.336	7.84
375.545	7.5
375.754	7
375.963	6.85
376.171	7.14
376.38	7.67
376.589	8.11
376.798	8.75
377.006	8.76
377.215	8.01
377.424	7.48
377.632	7.09
377.841	6.66
378.05	7.1
378.258	6.92
378.467	6.51
378.675	5.63
378.884	5.08
379.093	4.35
379.301	4.07
379.51	4.29
379.718	4.42
379.927	4.56
380.135	4.71
380.344	4.74
380.552	5.04
380.761	5.8
380.969	5.75
381.177	5.66
381.386	6.38
381.594	6.43
381.803	6.7
382.011	6.77
382.219	6.9
382.428	7.18
382.636	7.13
382.845	7.16
383.053	6.48
383.261	6.47
383.469	7.11
383.678	6.93
383.886	6.76
384.094	6.69
384.302	6.51
384.511	6.32
384.719	6.32
384.927	6.26
385.135	5.95
385.343	5.93
385.552	6.23
385.76	5.39
385.968	5.28
386.176	5.38
386.384	5.37
386.592	5.41
386.8	5.84
387.008	5.37
387.216	4.98
387.424	5.43
387.633	5.36
387.841	4.82
388.049	4.98
388.257	4.85
388.465	4.83
388.672	4.55
388.88	4.69
389.088	4.06
389.296	4.24
389.504	4.81
389.712	4.41
389.92	4.5
390.128	4.3
390.336	4.19
390.544	3.98
390.751	4.26
390.959	4.42
391.167	4.45
391.375	4.55
391.583	4.64
391.79	3.94
391.998	3.86
392.206	3.65
392.414	3.84
392.621	4.02
392.829	3.69
393.037	3.56
393.244	3.48
393.452	3.27
393.66	3.18
393.867	2.89
394.075	3.16
394.283	3.29
394.49	3.3
394.698	3.3
394.905	3.41
395.113	3.67
395.32	3.37
395.528	3.2
395.735	3.35
395.943	3.46
396.15	3.81
396.358	3.94
396.565	4
396.773	4.37
396.98	4.59
397.188	4.76
397.395	4.75
397.602	4.78
397.81	5.06
398.017	4.92
398.225	4.92
398.432	4.84
398.639	4.97
398.847	4.8
399.054	4.86
399.261	5
399.468	4.66
399.676	4.41
399.883	4.43
400.09	4.17
400.297	4.37
400.505	4.57
400.712	4.3
400.919	4.29
401.126	4.28
401.333	3.82
401.54	3.47
401.748	3.28
401.955	3.56
402.162	3.53
402.369	3.59
402.576	3.44
402.783	3.4
402.99	3.49
403.197	3.17
403.404	3.03
403.611	3.18
403.818	3.19
404.025	3.46
404.232	3.4
404.439	3.4
404.646	3.35
404.853	3.38
405.06	3.16
405.267	3.28
405.474	3.21
405.681	3.29
405.887	2.95
406.094	3.14
406.301	2.99
406.508	2.98
406.715	3.05
406.922	2.79
407.128	2.69
407.335	2.69
407.542	2.57
407.749	2.52
407.955	2.51
408.162	2.8
408.369	2.52
408.575	2.56
408.782	2.61
408.989	2.51
409.195	2.88
409.402	2.99
409.609	3.04
409.815	3.24
410.022	3.71
410.228	3.77
410.435	4.07
410.642	4.24
410.848	4.13
411.055	4.31
411.261	4.37
411.468	4.37
411.674	4.47
411.881	4.23
412.087	3.91
412.294	3.38
412.5	3.57
412.706	3.39
412.913	3.18
413.119	3.35
413.326	3.27
413.532	3.3
413.738	3.1
413.945	2.8
414.151	2.77
414.357	2.85
414.564	3.01
414.77	2.77
414.976	2.79
415.182	2.88
415.389	2.74
415.595	2.79
415.801	2.98
416.007	2.82
416.214	3.04
416.42	3.1
416.626	3.17
416.832	3.11
417.038	3.01
417.244	3
417.45	2.85
417.657	3.06
417.863	2.9
418.069	2.69
418.275	2.94
418.481	2.95
418.687	3.06
418.893	3.15
419.099	3.15
419.305	3.29
419.511	3.19
419.717	3.23
419.923	3.01
420.129	3.09
420.335	3.19
420.541	3.08
420.746	2.88
420.952	2.92
421.158	2.79
421.364	2.76
421.57	2.7
421.776	2.74
421.982	2.63
422.187	2.58
422.393	2.46
422.599	2.24
422.805	2.21
423.01	2.22
423.216	2.22
423.422	2.16
423.628	2.08
423.833	2.04
424.039	1.93
424.245	2.04
424.45	2.01
424.656	2.14
424.862	2.16
425.067	2.16
425.273	2.29
425.478	2.19
425.684	2.32
425.889	2.4
426.095	2.39
426.301	2.28
426.506	2.28
426.712	2.38
426.917	2.13
427.123	2.35
427.328	2.56
427.533	2.27
427.739	2.23
427.944	1.95
428.15	2.03
428.355	1.94
428.561	2.02
428.766	2.12
428.971	2.27
429.177	2.71
429.382	2.61
429.587	2.63
429.793	2.7
429.998	2.97
430.203	3.29
430.408	3.24
430.614	3.33
430.819	3.63
431.024	3.43
431.229	3.19
431.434	2.99
431.64	2.86
431.845	2.73
432.05	2.84
432.255	2.82
432.46	2.65
432.665	2.54
432.87	2.5
433.076	2.33
433.281	2.52
433.486	2.59
433.691	2.67
433.896	2.8
434.101	2.91
434.306	2.9
434.511	2.8
434.716	2.99
434.921	3.19
435.126	3.06
435.331	2.94
435.535	2.87
435.74	2.93
435.945	2.72
436.15	2.7
436.355	2.44
436.56	2.47
436.765	2.52
436.97	2.24
437.174	2.29
437.379	2.33
437.584	2.6
437.789	2.44
437.993	2.35
438.198	2.41
438.403	2.31
438.608	2.51
438.812	2.44
439.017	2.21
439.222	2.41
439.426	2.33
439.631	2.36
439.836	2.28
440.04	2.24
440.245	2.31
440.45	2.25
440.654	2.2
440.859	2.15
441.063	2.2
441.268	2.31
441.472	2.3
441.677	2.19
441.881	2.39
442.086	2.29
442.29	2.39
442.495	2.27
442.699	2.43
442.904	2.53
443.108	2.45
443.312	2.53
443.517	2.62
443.721	2.61
443.925	2.62
444.13	2.49
444.334	2.61
444.538	2.55
444.743	2.66
444.947	2.69
445.151	2.65
445.356	2.74
445.56	2.62
445.764	2.51
445.968	2.46
446.173	2.45
446.377	2.31
446.581	2.29
446.785	2.3
446.989	2.18
447.193	2.1
447.398	2.16
447.602	2.09
447.806	2.08
448.01	2.07
448.214	2.05
448.418	1.92
448.622	2.04
448.826	2.12
449.03	2.16
449.234	2.23
449.438	2.35
449.642	2.33
449.846	2.18
450.05	2.16
450.254	2.27
450.458	2.3
450.662	2.33
450.866	2.48
451.069	2.36
451.273	2.54
451.477	2.63
451.681	2.36
451.885	2.39
452.089	2.64
452.292	2.75
452.496	2.55
452.7	2.46
452.904	2.67
453.107	2.51
453.311	2.5
453.515	2.24
453.719	2.14
453.922	2.27
454.126	2.16
454.33	2.09
454.533	1.92
454.737	2.14
454.94	2.2
455.144	2.07
455.348	2.14
455.551	2.08
455.755	2.2
455.958	2.4
456.162	2.58
456.365	2.62
456.569	2.54
456.772	2.71
456.976	2.61
457.179	2.59
457.383	2.6
457.586	2.67
457.79	2.44
457.993	2.57
458.196	2.31
458.4	2.16
458.603	2.17
458.807	2.18
459.01	2.11
459.213	2.01
459.417	2.09
459.62	2.14
459.823	2.15
460.026	2.27
460.23	2.23
460.433	2.26
460.636	2.27
460.839	2.21
461.042	2.24
461.246	2.3
461.449	2.39
461.652	2.35
461.855	2.47
462.058	2.31
462.261	2.46
462.464	2.25
462.668	2.41
462.871	2.23
463.074	2.33
463.277	2.23
463.48	2.31
463.683	2.41
463.886	2.48
464.089	2.29
464.292	2.35
464.495	2.28
464.698	2.48
464.901	2.26
465.104	2.41
465.306	2.38
465.509	2.65
465.712	2.7
465.915	2.55
466.118	2.53
466.321	2.47
466.524	2.43
466.726	2.43
466.929	2.55
467.132	2.7
467.335	2.6
467.538	2.79
467.74	2.42
467.943	2.32
468.146	2.36
468.348	2.4
468.551	2.49
468.754	2.66
468.956	2.63
469.159	2.48
469.362	2.4
469.564	2.47
469.767	2.21
469.969	2.4
470.172	2.37
470.375	2.42
470.577	2.35
470.78	2.41
470.982	2.13
471.185	2.01
471.387	2.04
471.59	2.23
471.792	2.22
471.995	2.45
472.197	2.57
472.399	2.54
472.602	2.6
472.804	2.57
473.007	2.45
473.209	2.67
473.411	2.84
473.614	2.78
473.816	2.75
474.018	2.76
474.22	2.61
474.423	2.34
474.625	2.23
474.827	2.23
475.03	2.22
475.232	2.29
475.434	2.21
475.636	2.16
475.838	2.12
476.04	1.99
476.243	2
476.445	2.05
476.647	2
476.849	2.22
477.051	2.14
477.253	2.18
477.455	2.22
477.657	2.09
477.859	2.13
478.061	2.18
478.263	2.14
478.465	2.1
478.667	2.25
478.869	2.33
479.071	2.19
479.273	2.16
479.475	2.09
479.677	2.01
479.879	2.1
480.081	2.08
480.283	2.09
480.485	2.14
480.686	2.24
480.888	2.09
481.09	2.06
481.292	2.08
481.494	2.15
481.695	2.15
481.897	2.02
482.099	2.02
482.301	1.93
482.502	1.92
482.704	1.93
482.906	1.91
483.107	1.88
483.309	1.93
483.511	1.91
483.712	1.88
483.914	1.86
484.115	1.86
484.317	1.84
484.519	1.84
484.72	1.84
484.922	1.82
485.123	1.8
485.325	1.8
485.526	1.77
485.728	1.77
485.929	1.71
486.131	1.79
486.332	1.82
486.534	1.82
486.735	1.93
486.936	1.94
487.138	1.96
487.339	1.94
487.541	1.97
487.742	2.04
487.943	1.96
488.144	2.06
488.346	1.96
488.547	2
488.748	2.02
488.95	1.98
489.151	2.01
489.352	2
489.553	2.04
489.755	1.98
489.956	1.94
490.157	2.04
490.358	1.98
490.559	2.02
490.76	2
490.961	2.06
491.163	2.04
491.364	2
491.565	2.03
491.766	1.98
491.967	2.13
492.168	2.1
492.369	2.19
492.57	2.26
492.771	2.28
492.972	2.33
493.173	2.31
493.374	2.32
493.575	2.35
493.776	2.33
493.976	2.39
494.177	2.34
494.378	2.41
494.579	2.3
494.78	2.34
494.981	2.37
495.182	2.38
495.382	2.38
495.583	2.53
495.784	2.55
495.985	2.66
496.185	2.6
496.386	2.57
496.587	2.66
496.788	2.73
496.988	2.66
497.189	2.72
497.39	2.69
497.59	2.74
497.791	2.57
497.992	2.54
498.192	2.55
498.393	2.6
498.593	2.61
498.794	2.39
498.994	2.44
499.195	2.41
499.395	2.4
499.596	2.36
499.796	2.3
499.997	2.32
500.197	2.29
500.398	2.15
500.598	2.22
500.799	2.06
500.999	2.04
501.199	1.87
501.4	1.82
501.6	1.82
501.801	2.05
502.001	2.06
502.201	2.15
502.402	2.25
502.602	2.31
502.802	2.23
503.002	2.3
503.203	2.49
503.403	2.52
503.603	2.64
503.803	2.75
504.003	2.71
504.204	2.64
504.404	2.62
504.604	2.44
504.804	2.46
505.004	2.48
505.204	2.52
505.404	2.38
505.604	2.4
505.804	2.34
506.005	2.31
506.205	2.22
506.405	2.28
506.605	2.27
506.805	2.36
507.005	2.37
507.204	2.24
507.404	2.26
507.604	2.34
507.804	2.36
508.004	2.28
508.204	2.28
508.404	2.18
508.604	2.27
508.804	2.25
509.003	2.34
509.203	2.41
509.403	2.49
509.603	2.5
509.803	2.53
510.002	2.54
510.202	2.71
510.402	2.64
510.602	2.73
510.801	2.71
511.001	2.81
511.201	2.88
511.4	2.74
511.6	2.89
511.8	2.78
511.999	2.62
512.199	2.57
512.398	2.54
512.598	2.54
512.797	2.58
512.997	2.6
513.197	2.58
513.396	2.48
513.596	2.56
513.795	2.34
513.994	2.5
514.194	2.68
514.393	2.85
514.593	2.91
514.792	3.05
514.992	2.97
515.191	2.87
515.39	2.99
515.59	3.15
515.789	3.2
515.988	3.46
516.188	3.5
516.387	3.47
516.586	3.28
516.786	3.15
516.985	2.94
517.184	3.02
517.383	3.03
517.582	2.94
517.782	2.81
517.981	2.88
518.18	2.78
518.379	2.69
518.578	2.71
518.777	2.9
518.976	2.94
519.176	3.02
519.375	3.05
519.574	3.01
519.773	2.99
519.972	3.02
520.171	3.03
520.37	3.1
520.569	3.16
520.768	3.17
520.967	3.11
521.166	3.13
521.365	3.14
521.564	3.03
521.762	3.09
521.961	3.1
522.16	3.12
522.359	3.06
522.558	2.99
522.757	2.87
522.956	2.85
523.154	2.76
523.353	2.65
523.552	2.83
523.751	2.91
523.949	2.93
524.148	2.93
524.347	2.99
524.546	2.98
524.744	3.02
524.943	3.11
525.142	3.1
525.34	3.19
525.539	3.22
525.737	3.04
525.936	3.05
526.135	3.23
526.333	3.25
526.532	3.25
526.73	3.25
526.929	3.25
527.127	3.26
527.326	3.35
527.524	3.3
527.723	3.27
527.921	3.3
528.12	3.33
528.318	3.24
528.516	3.28
528.715	3.27
528.913	3.27
529.112	3.26
529.31	3.26
529.508	3.23
529.707	3.24
529.905	3.3
530.103	3.32
530.301	3.33
530.5	3.34
530.698	3.38
530.896	3.42
531.094	3.52
531.293	3.6
531.491	3.57
531.689	3.51
531.887	3.54
532.085	3.46
532.283	3.49
532.481	3.5
532.68	3.51
532.878	3.48
533.076	3.38
533.274	3.36
533.472	3.33
533.67	3.37
533.868	3.44
534.066	3.48
534.264	3.51
534.462	3.53
534.66	3.62
534.858	3.7
535.056	3.69
535.253	3.77
535.451	3.76
535.649	3.85
535.847	3.92
536.045	3.94
536.243	3.97
536.441	4.01
536.638	4.04
536.836	3.9
537.034	3.85
537.232	3.87
537.43	3.85
537.627	3.96
537.825	3.83
538.023	3.75
538.22	3.8
538.418	3.76
538.616	3.85
538.813	3.97
539.011	4.12
539.209	4.22
539.406	4.38
539.604	4.47
539.801	4.5
539.999	4.62
540.196	4.76
540.394	4.68
540.591	4.7
540.789	4.65
540.986	4.56
541.184	4.54
541.381	4.56
541.579	4.56
541.776	4.62
541.974	4.56
542.171	4.55
542.368	4.46
542.566	4.52
542.763	4.56
542.96	4.57
543.158	4.62
543.355	4.72
543.552	4.74
543.75	4.8
543.947	4.71
544.144	4.75
544.341	4.75
544.539	4.92
544.736	4.98
544.933	5.11
545.13	5.29
545.327	5.37
545.524	5.32
545.722	5.25
545.919	5.32
546.116	5.51
546.313	5.57
546.51	5.69
546.707	5.64
546.904	5.67
547.101	5.68
547.298	5.56
547.495	5.58
547.692	5.76
547.889	5.82
548.086	5.73
548.283	5.76
548.48	5.86
548.677	5.79
548.874	5.79
549.07	5.76
549.267	5.7
549.464	5.76
549.661	5.89
549.858	5.81
550.055	5.94
550.251	6.06
550.448	5.86
550.645	5.75
550.842	5.87
551.038	6.02
551.235	6.06
551.432	6.07
551.628	6.06
551.825	6.05
552.022	5.91
552.218	6.03
552.415	5.84
552.612	5.92
552.808	6.1
553.005	6.08
553.201	6.07
553.398	6.3
553.594	6.35
553.791	6.46
553.987	6.52
554.184	6.52
554.38	6.49
554.577	6.86
554.773	7.22
554.97	7.29
555.166	7.42
555.362	7.7
555.559	7.4
555.755	7.62
555.952	7.91
556.148	7.99
556.344	8.09
556.541	8.04
556.737	7.94
556.933	7.98
557.129	7.95
557.326	7.94
557.522	7.82
557.718	8.17
557.914	8.04
558.11	8
558.307	7.88
558.503	8.06
558.699	8.28
558.895	8.27
559.091	8.22
559.287	8.21
559.483	8.47
559.679	8.46
559.876	8.44
560.072	8.63
560.268	8.49
560.464	8.55
560.66	8.49
560.856	8.37
561.052	8.49
561.247	8.55
561.443	8.61
561.639	8.46
561.835	8.76
562.031	8.82
562.227	8.68
562.423	8.8
562.619	8.97
562.815	9.1
563.01	9.17
563.206	9.25
563.402	9.22
563.598	9.36
563.793	9.5
563.989	9.31
564.185	9.47
564.381	9.59
564.576	9.53
564.772	9.61
564.968	9.61
565.163	9.7
565.359	9.76
565.555	9.82
565.75	9.76
565.946	9.85
566.141	9.97
566.337	9.96
566.532	9.98
566.728	10.04
566.923	10.02
567.119	10.21
567.314	10.27
567.51	10.06
567.705	10.15
567.901	10.23
568.096	10.22
568.292	10.24
568.487	10.12
568.682	10.09
568.878	10.41
569.073	10.44
569.268	10.32
569.464	10.27
569.659	10.54
569.854	10.44
570.05	10.44
570.245	10.49
570.44	10.58
570.635	10.68
570.831	10.64
571.026	10.56
571.221	10.55
571.416	10.62
571.611	10.69
571.806	10.76
572.002	10.89
572.197	11.01
572.392	11.15
572.587	11.23
572.782	11.34
572.977	11.58
573.172	11.54
573.367	11.62
573.562	11.57
573.757	11.73
573.952	11.66
574.147	11.63
574.342	11.54
574.537	11.68
574.732	11.64
574.927	11.69
575.121	11.59
575.316	11.5
575.511	11.45
575.706	11.47
575.901	11.56
576.096	11.79
576.29	11.93
576.485	12.02
576.68	11.71
576.875	11.78
577.069	11.69
577.264	11.79
577.459	11.97
577.654	12.2
577.848	12.32
578.043	12.07
578.238	11.97
578.432	11.99
578.627	12.06
578.821	12.25
579.016	12.12
579.21	12.11
579.405	12.5
579.6	12.55
579.794	12.52
579.989	12.12
580.183	12.27
580.378	12.45
580.572	12.45
580.766	12.43
580.961	12.25
581.155	12.33
581.35	12.6
581.544	12.19
581.738	12.1
581.933	12.16
582.127	12.84
582.321	12.89
582.516	12.9
582.71	12.8
582.904	12.94
583.099	13.17
583.293	13
583.487	12.72
583.681	12.9
583.875	13.09
584.07	13.18
584.264	12.96
584.458	12.85
584.652	12.55
584.846	12.69
585.04	12.54
585.234	12.53
585.428	12.89
585.623	13.04
585.817	13.16
586.011	13.08
586.205	12.87
586.399	12.79
586.593	12.84
586.787	12.98
586.981	12.92
587.174	13.02
587.368	12.84
587.562	12.69
587.756	12.61
587.95	12.49
588.144	12.49
588.338	12.73
588.532	12.73
588.725	12.94
588.919	12.91
589.113	13
589.307	12.94
589.501	13.04
589.694	13.11
589.888	13.27
590.082	13.14
590.275	13.11
590.469	12.89
590.663	13.07
590.856	12.94
591.05	12.94
591.244	12.77
591.437	12.79
591.631	13.07
591.824	13.1
592.018	13.05
592.212	13.08
592.405	13.08
592.599	13.22
592.792	13.22
592.986	13.44
593.179	13.57
593.372	13.6
593.566	13.55
593.759	13.26
593.953	13.25
594.146	13.37
594.339	13.66
594.533	13.73
594.726	13.76
594.92	13.42
595.113	13.21
595.306	13.02
595.499	13.33
595.693	13.41
595.886	13.46
596.079	13.64
596.272	13.38
596.466	13.36
596.659	13.42
596.852	13.22
597.045	13.59
597.238	13.74
597.431	13.76
597.624	13.71
597.818	13.7
598.011	13.78
598.204	13.64
598.397	13.85
598.59	13.79
598.783	13.61
598.976	13.79
599.169	13.58
599.362	13.35
599.555	13.46
599.748	13.28
599.941	13.19
600.134	13.23
600.326	13.1
600.519	13.23
600.712	13.25
600.905	13.68
601.098	13.72
601.291	13.94
601.483	14.09
601.676	14.1
601.869	14.17
602.062	14.28
602.255	13.95
602.447	14.08
602.64	13.85
602.833	13.6
603.025	13.45
603.218	13.61
603.411	13.66
603.603	13.75
603.796	13.67
603.989	13.46
604.181	13.32
604.374	13.5
604.566	13.49
604.759	13.57
604.951	13.6
605.144	13.47
605.336	13.16
605.529	12.99
605.721	12.91
605.914	12.91
606.106	13.02
606.299	13.18
606.491	13.36
606.683	13.28
606.876	13.19
607.068	13.01
607.26	13.07
607.453	13.19
607.645	13.26
607.837	13.4
608.03	13.37
608.222	13.18
608.414	13.31
608.606	13.07
608.799	13.29
608.991	13.42
609.183	13.6
609.375	13.56
609.567	13.8
609.759	13.68
609.952	13.61
610.144	13.57
610.336	13.81
610.528	13.76
610.72	13.75
610.912	13.76
611.104	13.82
611.296	13.77
611.488	13.73
611.68	13.62
611.872	13.74
612.064	13.78
612.256	14.07
612.448	14.1
612.64	14.04
612.832	14.01
613.023	13.89
613.215	13.66
613.407	13.9
613.599	13.93
613.791	13.93
613.983	13.84
614.174	13.95
614.366	13.96
614.558	14.04
614.75	13.92
614.941	14.22
615.133	14.27
615.325	14.46
615.516	14.35
615.708	14.5
615.9	14.69
616.091	14.74
616.283	14.56
616.475	14.32
616.666	14.19
616.858	14.45
617.049	14.53
617.241	14.54
617.432	14.55
617.624	14.76
617.815	14.65
618.007	14.39
618.198	14.55
618.39	14.64
618.581	14.74
618.773	14.85
618.964	14.66
619.155	14.38
619.347	14.09
619.538	13.97
619.729	13.66
619.921	13.84
620.112	14.05
620.303	13.75
620.494	13.87
620.686	13.94
620.877	14.19
621.068	14.47
621.259	14.79
621.451	14.88
621.642	14.92
621.833	15.26
622.024	15.25
622.215	15.08
622.406	15.25
622.597	15.03
622.788	14.98
622.98	14.49
623.171	14.44
623.362	13.82
623.553	13.93
623.744	13.98
623.935	13.71
624.126	13.6
624.317	13.74
624.508	13.98
624.698	13.82
624.889	13.81
625.08	13.9
625.271	13.8
625.462	14.14
625.653	14.31
625.844	14.25
626.034	14.22
626.225	14.25
626.416	14.25
626.607	14.12
626.798	14.32
626.988	14.4
627.179	14.33
627.37	14.22
627.56	14.19
627.751	14.27
627.942	14.63
628.132	14.67
628.323	14.9
628.514	14.8
628.704	14.86
628.895	14.87
629.085	14.71
629.276	14.83
629.466	15.19
629.657	15.16
629.847	15.02
630.038	14.94
630.228	15.37
630.419	15.02
630.609	14.95
630.8	14.87
630.99	14.64
631.181	14.8
631.371	15.12
631.561	14.91
631.752	15.1
631.942	15.13
632.132	15.08
632.323	14.73
632.513	14.84
632.703	15.22
632.893	15.33
633.084	15.69
633.274	15.58
633.464	15.61
633.654	15.41
633.844	15.04
634.034	14.95
634.225	14.72
634.415	14.47
634.605	14.38
634.795	14.21
634.985	14.01
635.175	13.89
635.365	13.77
635.555	13.79
635.745	13.95
635.935	14.49
636.125	14.31
636.315	14.57
636.505	15.06
636.695	15.01
636.885	14.89
637.075	15.16
637.265	14.93
637.455	15.26
637.644	14.81
637.834	15.07
638.024	15.12
638.214	15.57
638.404	15.55
638.593	15.47
638.783	15.81
638.973	15.68
639.163	15.82
639.352	15.56
639.542	15.4
639.732	15.37
639.921	14.93
640.111	14.25
640.301	14.01
640.49	14.39
640.68	14.36
640.87	14.3
641.059	14.69
641.249	14.54
641.438	14.98
641.628	15.19
641.817	15.19
642.007	15.31
642.196	15.64
642.386	15.48
642.575	14.62
642.764	14.41
642.954	14.49
643.143	14.16
643.333	13.73
643.522	13.93
643.711	13.63
643.901	13.88
644.09	13.83
644.279	13.83
644.469	13.83
644.658	14.26
644.847	14.39
645.036	14.32
645.226	14.27
645.415	14.75
645.604	14.71
645.793	14.92
645.982	14.74
646.171	15.11
646.361	14.97
646.55	15.39
646.739	15.35
646.928	15.11
647.117	14.96
647.306	15.25
647.495	15.05
647.684	15.22
647.873	14.7
648.062	14.62
648.251	14.27
648.44	14.43
648.629	14.28
648.818	14.57
649.007	14.56
649.196	14.91
649.384	15.14
649.573	15.03
649.762	14.97
649.951	15.45
650.14	15.59
650.328	15.36
650.517	15.28
650.706	15.27
650.895	14.74
651.083	14.87
651.272	14.4
651.461	14.4
651.65	14.55
651.838	14.28
652.027	14.4
652.216	14.39
652.404	15
652.593	15.03
652.781	14.65
652.97	14.66
653.158	14.61
653.347	15.03
653.535	14.82
653.724	14.74
653.912	14.35
654.101	14.41
654.289	14.85
654.478	14.62
654.666	14.67
654.855	14.81
655.043	15.25
655.231	14.8
655.42	14.62
655.608	14.46
655.796	14.27
655.985	14.51
656.173	14.12
656.361	14.08
656.55	13.87
656.738	14.33
656.926	14.61
657.114	14.63
657.302	15.1
657.491	14.73
657.679	15.04
657.867	15
658.055	15.22
658.243	15.22
658.431	14.86
658.619	15.16
658.807	15.01
658.996	14.88
659.184	14.86
659.372	15
659.56	15.2
659.748	14.93
659.936	15.15
660.124	14.81
660.311	14.9
660.499	14.89
660.687	14.93
660.875	15.11
661.063	15.48
661.251	15.07
661.439	15.03
661.627	14.89
661.814	14.82
662.002	14.88
662.19	14.94
662.378	14.86
662.565	14.86
662.753	14.87
662.941	14.25
663.129	13.77
663.316	13.94
663.504	14.1
663.692	14.52
663.879	14.67
664.067	14.6
664.254	15.03
664.442	15.07
664.63	14.93
664.817	14.82
665.005	15.3
665.192	15.11
665.38	15
665.567	14.57
665.755	14.21
665.942	14.31
666.13	14.2
666.317	14.58
666.504	14.8
666.692	15.32
666.879	15.39
667.067	15.33
667.254	15.31
667.441	15.72
667.629	16.28
667.816	16.6
668.003	16.85
668.19	17.21
668.378	16.65
668.565	16.07
668.752	16.1
668.939	15.92
669.127	15.97
669.314	16.52
669.501	16.45
669.688	16.29
669.875	16.25
670.062	16.06
670.249	15.71
670.436	15.87
670.623	16.32
670.81	16.06
670.997	16.08
671.184	15.41
671.371	14.61
671.558	14.59
671.745	14.26
671.932	14.14
672.119	14.19
672.306	14.12
672.493	13.78
672.68	13.43
672.867	13.38
673.054	13.1
673.24	13.43
673.427	13.88
673.614	13.81
673.801	13.9
673.988	13.74
674.174	13.8
674.361	13.77
674.548	14.13
674.734	14.37
674.921	14.6
675.108	15.2
675.294	15.35
675.481	15.05
675.668	15.19
675.854	15.65
676.041	16.17
676.227	16.41
676.414	16.46
676.601	16.86
676.787	16.73
676.974	16.2
677.16	15.89
677.347	15.85
677.533	16.25
677.719	16.22
677.906	16.22
678.092	15.71
678.279	15.31
678.465	15.65
678.651	15.12
678.838	15.56
679.024	16.05
679.21	16.04
679.397	15.88
679.583	15.7
679.769	15.29
679.955	14.89
680.142	14.94
680.328	15.2
680.514	15.04
680.7	15.32
680.886	15.23
681.073	14.84
681.259	15.09
681.445	15.07
681.631	15.12
681.817	14.76
682.003	14.39
682.189	14.49
682.375	14.38
682.561	14.59
682.747	14.64
682.933	14.47
683.119	14.85
683.305	14.52
683.491	14.77
683.677	15.13
683.863	15.9
684.049	16.58
684.235	16.8
684.42	16.62
684.606	16.2
684.792	16.21
684.978	16.62
685.164	16.56
685.349	16.74
685.535	16.43
685.721	16.42
685.907	16.65
686.092	16.6
686.278	16.38
686.464	16.37
686.649	16.5
686.835	16.07
687.021	15.99
687.206	15.75
687.392	15.47
687.577	15.48
687.763	14.85
687.948	14.82
688.134	14.87
688.319	15.34
688.505	15.28
688.69	15.03
688.876	15.46
689.061	15.2
689.247	15.53
689.432	15.7
689.618	16.16
689.803	16.15
689.988	16.01
690.174	15.85
690.359	15.27
690.544	15.47
690.73	16.01
690.915	15.81
691.1	15.51
691.285	15.3
691.471	15.51
691.656	15.03
691.841	15.55
692.026	15.95
692.211	16.2
692.396	15.99
692.582	16.41
692.767	16.16
692.952	16.4
693.137	16.66
693.322	16.89
693.507	16.89
693.692	16.98
693.877	16.58
694.062	15.97
694.247	16.24
694.432	16.57
694.617	15.91
694.802	15.86
694.987	15.37
695.172	15.4
695.357	15.13
695.541	14.73
695.726	15.37
695.911	15.65
696.096	15.79
696.281	15.45
696.466	15.97
696.65	16.69
696.835	16.69
697.02	17.25
697.204	17.07
697.389	16.6
697.574	16.99
697.759	16.79
697.943	16.47
698.128	16.15
698.312	15.93
698.497	15.44
698.682	15.2
698.866	15.16
699.051	15.11
699.235	15.29
699.42	15.66
699.604	15.47
699.789	15.6
699.973	16.14
700.158	16.67
700.342	16.95
700.527	17.61
700.711	17.57
700.895	17.67
701.08	17.58
701.264	17.98
701.448	17.89
701.633	18.01
701.817	17.51
702.001	16.9
702.186	17.02
702.37	16.85
702.554	16.34
702.738	16.2
702.923	16.26
703.107	15.77
703.291	14.9
703.475	15.2
703.659	14.8
703.843	15.78
704.027	15.78
704.212	15.06
704.396	15.46
704.58	15.41
704.764	15.24
704.948	15.4
705.132	16.69
705.316	17.21
705.5	17.4
705.684	18.55
705.868	17.69
706.052	17.93
706.235	17.97
706.419	17.11
706.603	16.98
706.787	17.66
706.971	16.98
707.155	15.16
707.339	15.6
707.522	15.9
707.706	14.62
707.89	14.47
708.074	14.63
708.257	15.06
708.441	16.59
708.625	17.01
708.808	15.84
708.992	16.32
709.176	16.9
709.359	16.17
709.543	15.01
709.727	15.62
709.91	16.22
710.094	16.28
710.277	16.64
710.461	15.89
710.644	15.48
710.828	16.4
711.011	16.59
711.195	16.81
711.378	17.06
711.562	17.5
711.745	17.38
711.928	17.33
712.112	17.7
712.295	16.89
712.478	17.13
712.662	17.58
712.845	17.95
713.028	18.12
713.212	17.99
713.395	17.91
713.578	18.21
713.761	17.6
713.945	17.08
714.128	16.73
714.311	16.88
714.494	16.61
714.677	15.85
714.86	15.49
715.043	15.7
715.227	15.15
715.41	15.48
715.593	15.59
715.776	16.73
715.959	16.76
716.142	16.55
716.325	16.82
716.508	16.53
716.691	16.66
716.874	16.49
717.057	15.91
717.239	17.07
717.422	17.09
717.605	17
717.788	16.05
717.971	16.64
718.154	17.08
718.337	17.91
718.519	18.43
718.702	19.24
718.885	19.58
719.068	19.93
719.25	19.29
719.433	18.91
719.616	18.65
719.798	19.11
719.981	18.62
720.164	18.87
720.346	16.93
720.529	16.16
720.712	15.22
720.894	15.04
721.077	14.1
721.259	15.49
721.442	15.12
721.624	15.41
721.807	15.45
721.989	15.96
722.172	15.61
722.354	16.12
722.537	16.76
722.719	17.87
722.901	18.39
723.084	19.29
723.266	18.47
723.448	18.68
723.631	17.98
723.813	16.94
723.995	17.12
724.178	16.92
724.36	17.67
724.542	17.1
724.724	16.34
724.907	16.11
725.089	16.65
725.271	16.76
725.453	17.29
725.635	17.35
725.817	18.31
725.999	17.68
726.181	18.4
726.364	17.45
726.546	18.83
726.728	19.24
726.91	19.14
727.092	18.23
727.274	17.58
727.456	17.86
727.638	18.85
727.819	19.17
728.001	19.83
728.183	19.26
728.365	20.62
728.547	20
728.729	19.04
728.911	19.09
729.093	19.59
729.274	20.15
729.456	19.27
729.638	19.11
729.82	18.29
730.001	17.69
730.183	17.7
730.365	16.52
730.546	16.95
730.728	17.04
730.91	15.95
731.091	15.35
731.273	15.22
731.455	15.79
731.636	16.07
731.818	16.06
731.999	15.97
732.181	15.35
732.362	15.7
732.544	15.88
732.725	16.94
732.907	17.44
733.088	17.6
733.27	17.55
733.451	18.1
733.633	16.59
733.814	17.49
733.995	17.58
734.177	17.6
734.358	17.73
734.539	17.26
734.721	16.94
734.902	17.02
735.083	17.33
735.264	16.89
735.446	16.43
735.627	16.89
735.808	16.57
735.989	17.29
736.17	18.39
736.351	18.36
736.533	17.42
736.714	17.59
736.895	18.32
737.076	17.58
737.257	19.26
737.438	19.46
737.619	21.18
737.8	20.39
737.981	19.1
738.162	18.88
738.343	18.07
738.524	18.96
738.705	18.81
738.886	18.4
739.067	19.73
739.247	18.55
739.428	17.76
739.609	16.29
739.79	16.84
739.971	18.79
740.151	19.5
740.332	20.18
740.513	20.01
740.694	19.94
740.874	20.09
741.055	19.08
741.236	18.68
741.417	19.07
741.597	18.88
741.778	18.13
741.958	17.03
742.139	15.86
742.32	16.56
742.5	16.26
742.681	17.23
742.861	16.7
743.042	16.79
743.222	18.12
743.403	18.09
743.583	18.89
743.764	20.62
743.944	19.8
744.124	20.24
744.305	20.84
744.485	21.54
744.666	21.95
744.846	22.07
745.026	22.41
745.207	22.36
745.387	23.33
745.567	22.58
745.747	21.76
745.928	21.63
746.108	20.01
746.288	18.62
746.468	16.77
746.648	15.54
746.829	15.41
747.009	15.64
747.189	15.48
747.369	14.31
747.549	15.06
747.729	15.2
747.909	16.05
748.089	17.13
748.269	17.57
748.449	19.08
748.629	18
748.809	19.57
748.989	19.17
749.169	18.53
749.349	18.13
749.529	18.34
749.709	18.11
749.889	18.35
750.068	19.79
750.248	19.13
750.428	19.1
750.608	19.7
750.788	18.35
750.967	19.15
751.147	19.17
751.327	20.05
751.507	20.06
751.686	20.13
751.866	19.36
752.046	17.4
752.225	19.21
752.405	18.72
752.585	20.17
752.764	19.87
752.944	19.19
753.123	20.59
753.303	20.21
753.482	20.53
753.662	20.65
753.841	20.85
754.021	20.25
754.2	19.53
754.38	19.93
754.559	19.5
754.739	20.27
754.918	20.2
755.097	18.65
755.277	19.01
755.456	18.84
755.635	18.97
755.815	19.14
755.994	20.87
756.173	21.24
756.352	21.33
756.532	20.37
756.711	20.05
756.89	20.08
757.069	20.4
757.248	19.64
757.427	19.39
757.607	18.91
757.786	18.28
757.965	18.79
758.144	18.68
758.323	18.06
758.502	18.13
758.681	18.46
758.86	17.25
759.039	16.89
759.218	17.55
759.397	17.9
759.576	18.08
759.755	18.59
759.934	18.54
760.113	17.45
760.291	18.21
760.47	18.58
760.649	17.88
760.828	20.58
761.007	21.18
761.186	21.28
761.364	21.09
761.543	20.52
761.722	20.45
761.901	19.77
762.079	19.22
762.258	19.81
762.437	19.18
762.615	19.2
762.794	18.24
762.972	18.84
763.151	18.9
763.33	19.16
763.508	20.59
763.687	21.15
763.865	21.4
764.044	22.55
764.222	22.44
764.401	22.23
764.579	22.55
764.758	21.67
764.936	21.74
765.114	20.84
765.293	20.47
765.471	18.46
765.65	18.85
765.828	18.03
766.006	16.72
766.184	15.31
766.363	15.46
766.541	15.15
766.719	16.03
766.898	16.01
767.076	18.14
767.254	17.46
767.432	17.98
767.61	16.38
767.788	16.2
767.967	16.79
768.145	17.88
768.323	18.51
768.501	18.11
768.679	18.98
768.857	18.55
769.035	15.78
769.213	17.36
769.391	16.64
769.569	17.66
769.747	19.53
769.925	19.58
770.103	19.44
770.281	18.46
770.459	18.85
770.636	18.41
770.814	20.03
770.992	21.85
771.17	21.8
771.348	25.02
771.525	23.79
771.703	24.31
771.881	24.16
772.059	23.85
772.236	25.85
772.414	26.55
772.592	27.28
772.769	25.34
772.947	24.24
773.125	24.12
773.302	22.1
773.48	21.84
773.657	20.81
773.835	20.74
774.013	21.16
774.19	20.7
774.368	21.81
774.545	19.85
774.723	18.73
774.9	20.68
775.077	20.86
775.255	22.25
775.432	25.06
775.61	22.21
775.787	23.7
775.964	22.37
776.142	20.09
776.319	17.98
776.496	20.27
776.674	21.41
776.851	21.48
777.028	21.15
777.205	19.86
777.382	20.69
777.56	22.47
777.737	21.12
777.914	23.4
778.091	26.04
778.268	24.33
778.445	22.93
778.622	23.37
778.8	19.99
778.977	18.77
779.154	19.31
779.331	16.68
779.508	19.24
779.685	19.06
779.862	17.08
780.038	17.87
780.215	20.93
780.392	21.54
780.569	19.32
780.746	23.13
780.923	23.64
781.1	25.12
781.277	23.79
781.453	19.43
781.63	20.72
781.807	20.33
781.984	17.81
782.16	18.62
782.337	15.74
782.514	18
782.691	14.62
782.867	13.34
783.044	13.12
783.221	14.95
783.397	17.04
783.574	16.62
783.75	17.65
783.927	20.05
784.103	18.51
784.28	19.77
784.456	18
784.633	18.29
784.809	20.96
784.986	21.55
785.162	21.12
785.339	21.15
785.515	20.43
785.692	21.01
785.868	19.24
786.044	20.03
786.221	22.2
786.397	22.71
786.573	23.74
786.749	22.3
786.926	19.9
787.102	22.03
787.278	24.3
787.454	24.2
787.631	23.59
787.807	24.1
787.983	26.3
788.159	27.27
788.335	28.62
788.511	26.67
788.687	25.81
788.863	24.93
789.039	23.68
789.216	22.24
789.392	23.39
789.568	23.35
789.744	21.89
789.919	19.15
790.095	19.68
790.271	18.81
790.447	22.38
790.623	25.07
790.799	24.6
790.975	26.46
791.151	27.8
791.327	27.82
791.502	26.51
791.678	27.65
791.854	28.42
792.03	25.55
792.205	26.29
792.381	25.79
792.557	24.69
792.733	27.18
792.908	25.33
793.084	24.26
793.259	23.85
793.435	23.83
793.611	22.5
793.786	25.25
793.962	24.02
794.137	21.37
794.313	18.81
794.488	18.87
794.664	18.93
794.839	20.14
795.015	16.94
795.19	17.48
795.366	20.07
795.541	21.79
795.716	17.43
795.892	23.06
796.067	22.92
796.242	23.4
796.418	24.73
796.593	25.83
796.768	22.92
796.944	27.15
797.119	28.01
797.294	27.75
797.469	28.84
797.644	30.42
797.82	29.55
797.995	31.16
798.17	32.2
798.345	31.14
798.52	28.18
798.695	29.71
798.87	29.88
799.045	26.24
799.22	25.24
799.395	24.97
799.57	24.93
799.745	24.15
799.92	24.13
800.095	23.27
800.27	21.59
800.445	22.22
800.62	22.94
800.795	17.97
800.97	20.98
801.145	20.22
801.319	15.34
801.494	13.83
801.669	10.13
801.844	8.88
802.018	11.36
802.193	15.31
802.368	15.73
802.543	16.58
802.717	18.13
802.892	19.04
803.067	19.54
803.241	22.47
803.416	21.49
803.59	22.87
803.765	24.79
803.94	24.56
804.114	21.63
804.289	24.13
804.463	23.21
804.638	25.56
804.812	25.55
804.986	26.93
805.161	26.66
805.335	26.12
805.51	27.8
805.684	25.93
805.858	26.67
806.033	26.29
806.207	27.53
806.381	27.97
806.556	27.2
806.73	25.17
806.904	27.26
807.078	28.08
807.253	28.9
807.427	28.2
807.601	27.6
807.775	24.9
807.949	27.06
808.123	26.07
808.298	25.32
808.472	25.73
808.646	25.94
808.82	24.38
808.994	24.99
809.168	22.39
809.342	21.97
809.516	25.43
809.69	24.63
809.864	26.25
810.038	25.19
810.212	25.51
810.385	24.45
810.559	28.46
810.733	27.27
810.907	24.27
811.081	27.58
811.255	23.73
811.428	20.31
811.602	18.11
811.776	13.24
811.95	10.68
812.123	8.84
812.297	11.53
812.471	10.27
812.644	9.51
812.818	14.66
812.992	13.03
813.165	12.17
813.339	16.49
813.512	21.83
813.686	26.62
813.86	26.42
814.033	28.71
814.207	29.32
814.38	26.8
814.554	28.79
814.727	27.85
814.9	26.62
815.074	31.25
815.247	29.08
815.421	30.41
815.594	28.56
815.767	26.27
815.941	28.51
816.114	30.59
816.287	33.54
816.46	32.29
816.634	29.27
816.807	31.67
816.98	29.09
817.153	28.25
817.327	30.42
817.5	29
817.673	32.17
817.846	32.02
818.019	28.91
818.192	23.07
818.365	23.27
818.538	26.69
818.711	27.07
818.884	29.41
819.057	30.9
819.23	27.43
819.403	30.54
819.576	26.8
819.749	21.41
819.922	20.3
820.095	22.02
820.268	24.36
820.441	22.69
820.614	24.27
820.786	23.93
820.959	23.46
821.132	24.17
821.305	22.76
821.477	23.08
821.65	23.67
821.823	24.27
821.996	24.21
822.168	22.67
822.341	22.55
822.514	20.87
822.686	20.23
822.859	19.8
823.031	18.51
823.204	18.74
823.376	18.79
823.549	18.34
823.722	17.98
823.894	18.22
824.067	18.06
824.239	17.12
824.411	17.77
824.584	18.16
824.756	18.7
824.929	18.18
825.101	17.15
825.273	17.9
825.446	19.3
825.618	19.75
825.79	19.75
825.963	20.56
826.135	21.31
826.307	22.02
826.479	21.28
826.652	21.65
826.824	22.86
826.996	24.15
827.168	23.84
827.34	21.99
827.512	21.51
827.684	20.5
827.856	20.15
828.029	21.14
828.201	21.07
828.373	23.02
828.545	23.55
828.717	25.3
828.889	25.21
829.061	25.02
829.232	25.86
829.404	26.4
829.576	26.11
829.748	27.74
829.92	27.96
830.092	27.44
830.264	26.05
830.436	25.05
830.607	23.03
830.779	20.77
830.951	17.9
831.123	18.76
831.294	18.73
831.466	19.82
831.638	18.79
831.809	20.88
831.981	20.53
832.153	19.09
832.324	16.06
832.496	20.59
832.667	24.12
832.839	24.13
833.011	23.47
833.182	23.13
833.354	22.26
833.525	21.44
833.697	18.61
833.868	17.2
834.039	18.88
834.211	20.42
834.382	17.52
834.554	17.95
834.725	18.73
834.896	18.66
835.068	17.87
835.239	18.34
835.41	19.8
835.581	20.36
835.753	21.64
835.924	20.27
836.095	19.23
836.266	21.97
836.438	20.44
836.609	21.75
836.78	24.44
836.951	26.92
837.122	29.63
837.293	29.25
837.464	31.09
837.635	31.65
837.806	34.03
837.977	36.75
838.148	32.06
838.319	32.75
838.49	33.98
838.661	33.42
838.832	34.13
839.003	32.94
839.174	36.33
839.345	35.87
839.516	36.67
839.687	31.78
839.857	29.26
840.028	31.11
840.199	31.17
840.37	33.07
840.54	32.84
840.711	31.5
840.882	30.2
841.053	23.23
841.223	21.35
841.394	28.37
841.564	31.02
841.735	33
841.906	33.42
842.076	33.96
842.247	37.03
842.417	32.98
842.588	28.34
842.758	36.84
842.929	41.16
843.099	44.6
843.27	32.05
843.44	33.44
843.611	30.65
843.781	29.37
843.951	25.33
844.122	14.37
844.292	11.66
844.462	13.17
844.633	8.65
844.803	0.6
844.973	5.56
845.144	22.15
845.314	21.64
845.484	28.24
845.654	33.19
845.824	43.25
845.995	53.41
846.165	71.39
846.335	71.1
846.505	67.01
846.675	77.05
846.845	89.55
847.015	81.56
847.185	77.17
847.355	84.94
847.525	86.66
847.695	85.96
847.865	86.45
848.035	81.29
848.205	93.45
848.375	98.07
848.545	78.63
848.715	55.92
848.884	72.97
849.054	100.37
849.224	83.25
849.394	70.92
849.564	60.87
849.733	63.78
849.903	46.46
850.073	50.18
850.243	33.89
850.412	36.74
850.582	43
850.752	27.76
850.921	17.23
851.091	8.38
851.26	22.28
851.43	15.56
851.599	-14.89
851.769	-7.91
851.939	-13.77
852.108	4.04
852.278	8.46
852.447	3.17
852.616	4.33
852.786	0.99
852.955	26.14
853.125	23.57
853.294	11.94
853.463	29.78
853.633	28.19
853.802	38.31
853.971	41.58
854.141	50.84
854.31	50.28
854.479	49.79
854.648	58.27
854.818	50.4
854.987	44.74
855.156	57.18
855.325	62.75
855.494	58.87
855.663	58.6
855.832	61.31
856.001	70.49
856.171	75.44
856.34	75.54
856.509	80.08
856.678	85.2
856.847	92.17
857.016	90.78
857.185	81.65
857.353	83.15
857.522	77.07
857.691	73.24
857.86	70.05
858.029	84.74
858.198	80.85
858.367	81.41
858.535	88.77
858.704	81.69
858.873	74.9
859.042	82.84
859.21	93.43
859.379	87.44
859.548	81.99
859.717	59.9
859.885	47.93
860.054	51.2
860.222	39.17
860.391	40.23
860.56	52.86
860.728	56.71
860.897	53.87
861.065	52.08
861.234	58.53
861.402	73.55
861.571	89.7
861.739	111.82
861.908	95.65
862.076	95.39
862.244	90.83
862.413	91.24
862.581	80.52
862.749	68.98
862.918	58.31
863.086	60.16
863.254	49.54
863.423	46.08
863.591	36.59
863.759	37.26
863.927	48.26
864.096	60.95
864.264	57.77
864.432	65.53
864.6	68.15
864.768	98.48
864.936	114.88
865.104	104.78
865.272	111.77
865.44	103.36
865.608	87.47
865.776	88.89
865.944	79.51
866.112	76.83
866.28	82.98
866.448	88.26
866.616	64.72
866.784	52.04
866.952	57.16
867.12	52.19
867.288	62.53
867.455	77.16
867.623	56.67
867.791	56.13
867.959	55.62
868.127	48.36
868.294	36.46
868.462	53.67
868.63	47.23
868.797	47.59
868.965	44.69
869.133	26.85
869.3	30.76
869.468	53.28
869.636	44.7
869.803	52.99
869.971	65.28
870.138	80.82
870.306	74.06
870.473	86.43
870.641	90
870.808	94.75
870.975	96.79
871.143	95.95
871.31	105.35
871.478	109.11
871.645	115.99
871.812	108.17
871.98	101.87
872.147	116.71
872.314	115.55
872.482	115.41
872.649	147.1
872.816	152.02
872.983	108.57
873.15	111.58
873.318	140.09
873.485	104.87
873.652	88.73
873.819	107.76
873.986	56.27
874.153	82.49
874.32	78.37
874.487	70.77
874.654	55.52
874.821	87.58
874.988	89.51
875.155	61.9
875.322	72.39
875.489	67.15
875.656	66.82
875.823	63.32
875.99	59.48
876.157	46.31
876.324	48.72
876.49	53.31
876.657	46.83
876.824	45.47
876.991	48
877.157	40.69
877.324	40.38
877.491	31.38
877.658	39.52
877.824	30.82
877.991	40.08
878.157	39.97
878.324	34.95
878.491	33.28
878.657	34.23
878.824	38.35
878.99	28.08
879.157	15.52
879.323	37.58
879.49	35.24
879.656	81.87
879.823	70.54
879.989	64.6
880.156	61.65
880.322	69.62
880.488	51.35
880.655	53.85
880.821	60.24
880.987	69.01
881.154	59.88
881.32	57.75
881.486	44.25
881.652	47.74
881.819	45.76
881.985	45.25
882.151	43.06
882.317	46.57
882.483	42.72
882.649	42.24
882.816	39.89
882.982	37.7
883.148	35.47
883.314	37.03
883.48	34.22
883.646	34.96
883.812	37.13
883.978	37.2
884.144	36.82
884.31	37.04
884.476	35.59
884.642	37.57
884.807	37.23
884.973	38.38
885.139	37.66
885.305	38
885.471	39.93
885.637	38.73
885.802	38.31
885.968	37.38
886.134	37.15
886.3	38.69
886.465	34.86
886.631	39.21
886.797	37.49
886.962	40.24
887.128	37.62
887.293	36.79
887.459	40.74
887.625	33.15
887.79	37.67
887.956	42.12
888.121	42.02
888.287	43.7
888.452	43.6
888.618	46.72
888.783	50.46
