Data from 2938013_Reflection_2.txt Node
Date: Sun Jul 12 15:40:05 EDT 2015
User: robert
Spectrometer: USB4E03001
Autoset integration time: false
Trigger mode: 4
Integration Time (sec): 1.000000E-1
Scans to average: 10
Electric dark correction enabled: true
Nonlinearity correction enabled: false
Boxcar width: 5
Stray light correction enabled: false
XAxis mode: Wavelengths
Stop averaging: false
Number of Pixels in Spectrum: 3648
>>>>>Begin Spectral Data<<<<<
177.566	33.04
177.785	18.57
178.005	50.35
178.225	64.05
178.445	74.29
178.665	6.1
178.885	-212.55
179.105	-89.58
179.324	-49.06
179.544	-10.83
179.764	59.49
179.984	147.05
180.204	149.73
180.423	199.85
180.643	240.21
180.863	223.36
181.083	160.99
181.302	189.46
181.522	-166.96
181.742	-32.31
181.961	55.41
182.181	99.86
182.401	115.43
182.621	115.18
182.84	98.52
183.06	94.74
183.279	64
183.499	42.28
183.719	66.03
183.938	52.82
184.158	58.63
184.377	45.43
184.597	51.34
184.816	51.66
185.036	43.78
185.256	90.17
185.475	90.06
185.695	142.86
185.914	157.34
186.134	167.13
186.353	142.35
186.572	138.72
186.792	101.11
187.011	73.63
187.231	64.13
187.45	81.62
187.67	151.39
187.889	129.34
188.108	106.95
188.328	111.7
188.547	107.43
188.766	119.38
188.986	254.71
189.205	314.22
189.424	341.13
189.644	731.91
189.863	664.83
190.082	194.6
190.302	229.06
190.521	-6935.48
190.74	-249.86
190.959	-7.89
191.178	-77.97
191.398	-211.01
191.617	573.13
191.836	487.53
192.055	277.36
192.274	256.53
192.494	193.02
192.713	303.99
192.932	432.33
193.151	386.18
193.37	499.19
193.589	1046.12
193.808	624.88
194.027	526.3
194.246	1900.87
194.465	-1972.19
194.685	-6881.93
194.904	-254.5
195.123	-432.91
195.342	-1325.87
195.561	-259.33
195.78	-281
195.999	222.26
196.218	158.66
196.436	186.76
196.655	96.04
196.874	32.93
197.093	39.19
197.312	106.68
197.531	101.54
197.75	77.75
197.969	77.63
198.188	78.6
198.407	77.59
198.625	49.28
198.844	-38.11
199.063	-0.58
199.282	-1.09
199.501	6.26
199.719	-5.71
199.938	-66.51
200.157	-186.67
200.376	-14.32
200.594	-68.36
200.813	25.23
201.032	1.38
201.251	88.82
201.469	-1247.49
201.688	-310.85
201.907	-185.16
202.125	-58.88
202.344	12.95
202.563	7.33
202.781	65.38
203	60.23
203.218	121.03
203.437	76.74
203.656	72.82
203.874	56.67
204.093	70
204.311	94.39
204.53	54.97
204.748	44.96
204.967	22.43
205.185	-459.45
205.404	-884.02
205.622	4233.33
205.841	-1004.17
206.059	-1307.6
206.278	-542.57
206.496	-448.96
206.715	6428.11
206.933	539.36
207.151	398.59
207.37	557.18
207.588	646.38
207.806	286.04
208.025	609.58
208.243	199.23
208.461	112.69
208.68	-290.4
208.898	172.26
209.116	107.37
209.335	71.69
209.553	405.56
209.771	-160.71
209.989	-717.12
210.208	-335.66
210.426	-271.38
210.644	-621.71
210.862	-454.55
211.081	165.83
211.299	151.27
211.517	-346.06
211.735	37.48
211.953	-63.26
212.171	207.75
212.39	137.71
212.608	130.04
212.826	100.75
213.044	73.65
213.262	82.5
213.48	106.34
213.698	89.03
213.916	99.66
214.134	119.54
214.352	85.06
214.57	92.17
214.788	104.57
215.006	120.86
215.224	112.83
215.442	141.01
215.66	201.61
215.878	203.86
216.096	170.63
216.314	131.71
216.532	131.48
216.75	135.16
216.968	151.3
217.185	141.97
217.403	123.25
217.621	105.46
217.839	104.73
218.057	62.37
218.275	65.65
218.492	99.65
218.71	82.89
218.928	115.14
219.146	161.05
219.363	122.86
219.581	81.21
219.799	90.74
220.017	11166.67
220.234	54.88
220.452	24.01
220.67	-165
220.887	-45.64
221.105	-51.25
221.323	-185.77
221.54	-28.79
221.758	-125.35
221.976	7.04
222.193	55.41
222.411	69.73
222.629	63.16
222.846	74.14
223.064	52.08
223.281	-54.07
223.499	2.38
223.716	71.56
223.934	32.1
224.151	40.84
224.369	0.65
224.586	-25.68
224.804	-16.67
225.021	-33.42
225.239	-41.1
225.456	-14.91
225.674	24.2
225.891	27.02
226.108	31.99
226.326	38.97
226.543	32.11
226.76	44.53
226.978	41.55
227.195	29.42
227.413	39.93
227.63	47.16
227.847	36.54
228.064	29.12
228.282	21.04
228.499	17.3
228.716	19.35
228.934	22.06
229.151	21.08
229.368	22.68
229.585	23.39
229.802	21.56
230.02	19.62
230.237	24.47
230.454	24.41
230.671	27.89
230.888	22.42
231.105	18.04
231.323	18.61
231.54	14.26
231.757	13.76
231.974	11.8
232.191	11.7
232.408	12.17
232.625	14.12
232.842	11.84
233.059	7.51
233.276	20.09
233.493	18.35
233.71	17.85
233.927	15.48
234.144	10.98
234.361	19.5
234.578	13.25
234.795	13.23
235.012	13.45
235.229	19.92
235.446	24.23
235.663	23.87
235.879	27.2
236.096	22.99
236.313	21.93
236.53	21.63
236.747	19.35
236.964	30.43
237.181	29.85
237.397	35.28
237.614	33.99
237.831	36.61
238.048	29.28
238.264	23.26
238.481	23.87
238.698	30.93
238.915	32.64
239.131	34.36
239.348	31.8
239.565	28.77
239.781	22.78
239.998	24.26
240.215	17.6
240.431	26.31
240.648	31.35
240.865	28.83
241.081	26.88
241.298	23.39
241.514	22.08
241.731	17.57
241.947	19.3
242.164	12.8
242.38	9.97
242.597	12.18
242.814	11.46
243.03	10.34
243.246	12.41
243.463	13.03
243.679	15.72
243.896	13.12
244.112	17.14
244.329	19.03
244.545	23.46
244.762	24.55
244.978	26.47
245.194	27.39
245.411	24.39
245.627	26.03
245.843	26.89
246.06	24.29
246.276	25.33
246.492	23.09
246.709	20.14
246.925	18.92
247.141	18.14
247.357	17.08
247.574	15.29
247.79	16.01
248.006	14.53
248.222	13.62
248.439	12.71
248.655	12.16
248.871	11.66
249.087	12.5
249.303	14.14
249.519	16.89
249.736	18.44
249.952	20.86
250.168	20.64
250.384	20.91
250.6	20.72
250.816	21.14
251.032	22.96
251.248	21.54
251.464	22.17
251.68	23.48
251.896	18.35
252.112	18.65
252.328	18.82
252.544	19.39
252.76	20.14
252.976	19.61
253.192	20.93
253.408	20.97
253.624	23.41
253.84	23.52
254.056	22.53
254.272	28.29
254.487	28.49
254.703	27.81
254.919	31.28
255.135	29.09
255.351	28.8
255.567	30.46
255.782	29.4
255.998	30.92
256.214	29.02
256.43	28.83
256.646	26.46
256.861	22.83
257.077	23.95
257.293	16.7
257.508	18.49
257.724	20.82
257.94	18.05
258.155	16.04
258.371	13.2
258.587	13.87
258.802	13.75
259.018	13.03
259.234	13.65
259.449	13.95
259.665	15.83
259.88	14.82
260.096	15.35
260.312	14.79
260.527	14.74
260.743	15.08
260.958	14.83
261.174	13.36
261.389	13.48
261.605	13.07
261.82	12.71
262.036	12.22
262.251	12.94
262.466	10.66
262.682	12.56
262.897	13.16
263.113	13.72
263.328	13.41
263.543	15.4
263.759	13.72
263.974	12.57
264.189	11.35
264.405	12.92
264.62	13.82
264.835	12.79
265.051	11.5
265.266	10.2
265.481	6.8
265.696	8.94
265.912	8.14
266.127	8.38
266.342	9.53
266.557	9.8
266.773	9.9
266.988	12.35
267.203	13.44
267.418	14.61
267.633	14.45
267.848	16.16
268.064	15.52
268.279	17.57
268.494	18.01
268.709	17.89
268.924	17.44
269.139	17.05
269.354	15.06
269.569	16.36
269.784	17.26
269.999	17.99
270.214	19.52
270.429	19.85
270.644	19.37
270.859	19.63
271.074	18.58
271.289	17.6
271.504	16.06
271.719	16.41
271.934	14.88
272.149	13.25
272.363	13.11
272.578	12.5
272.793	10.85
273.008	11.62
273.223	12.69
273.438	13.98
273.653	12.84
273.867	14.59
274.082	14.01
274.297	14.6
274.512	16.04
274.726	17.53
274.941	18.06
275.156	18.9
275.371	17.37
275.585	15.63
275.8	14.48
276.015	18.93
276.229	20.11
276.444	20.45
276.659	21.53
276.873	20.11
277.088	18.07
277.302	17.15
277.517	17.16
277.732	18.53
277.946	19.99
278.161	19.91
278.375	18.96
278.59	17.53
278.804	16.47
279.019	14.24
279.233	16.67
279.448	18.44
279.662	16.35
279.877	18.29
280.091	17.34
280.306	14.09
280.52	14.5
280.735	12.71
280.949	12.96
281.163	13.91
281.378	14.05
281.592	11.73
281.806	11.94
282.021	13.21
282.235	11.78
282.449	12.04
282.664	13.13
282.878	13.78
283.092	14.65
283.307	13.33
283.521	12.92
283.735	13.52
283.949	14.78
284.164	13.9
284.378	15.36
284.592	15.01
284.806	15.82
285.02	16.58
285.234	15.05
285.449	14.84
285.663	14.99
285.877	16.32
286.091	16.03
286.305	15.99
286.519	15.87
286.733	15.6
286.947	16.36
287.161	15.23
287.375	15.44
287.589	17.79
287.803	18.42
288.017	19.29
288.231	15.05
288.445	17.05
288.659	15.96
288.873	17.44
289.087	17.25
289.301	16.6
289.515	15.31
289.729	15.11
289.943	14.71
290.157	13.85
290.371	13.56
290.584	17.23
290.798	15.97
291.012	15.46
291.226	14.9
291.44	14.03
291.654	14.39
291.867	16.15
292.081	16.13
292.295	14.52
292.509	15.48
292.722	16.1
292.936	12.84
293.15	12.97
293.364	13.64
293.577	13.88
293.791	16.38
294.005	15.52
294.218	15.18
294.432	13.31
294.645	14.68
294.859	15.5
295.073	15.15
295.286	18.01
295.5	16.58
295.713	15.38
295.927	15.16
296.14	13.33
296.354	13.77
296.568	14.29
296.781	15.65
296.994	15.77
297.208	15.25
297.421	15.82
297.635	16.05
297.848	18.21
298.062	20.92
298.275	21.72
298.489	22.24
298.702	23.58
298.915	23.33
299.129	23.21
299.342	21.37
299.555	22.06
299.769	19.94
299.982	19.87
300.195	17.96
300.409	17.09
300.622	14.24
300.835	13.69
301.048	13.98
301.262	12.74
301.475	13.64
301.688	16.47
301.901	14.55
302.115	15.83
302.328	13.49
302.541	13.35
302.754	11.04
302.967	13.04
303.18	16.17
303.393	14.11
303.607	15.54
303.82	14.54
304.033	14.73
304.246	16.15
304.459	16.94
304.672	18.85
304.885	19.3
305.098	21.66
305.311	20.94
305.524	19.29
305.737	20.25
305.95	20.5
306.163	21.67
306.376	21.1
306.589	20.36
306.802	22.89
307.015	23.69
307.228	23.45
307.44	21.55
307.653	22.42
307.866	19.58
308.079	16.96
308.292	17.06
308.505	16.79
308.718	14.34
308.93	15.89
309.143	13.68
309.356	11.59
309.569	12.5
309.781	13.63
309.994	14.1
310.207	16.79
310.42	17.8
310.632	16.24
310.845	15.2
311.058	18.72
311.27	17.09
311.483	16.56
311.696	18.58
311.908	17.41
312.121	17.38
312.333	16.21
312.546	15.51
312.759	15.77
312.971	16.58
313.184	16.59
313.396	15.74
313.609	17.1
313.821	17.9
314.034	15.47
314.246	18.54
314.459	17.63
314.671	18.57
314.884	19.25
315.096	20.21
315.309	19.57
315.521	21.27
315.733	20.03
315.946	19.47
316.158	20.07
316.371	19.86
316.583	18.01
316.795	17.8
317.008	18.38
317.22	19.05
317.432	16.79
317.644	16.99
317.857	14.88
318.069	15.43
318.281	13.76
318.494	12.56
318.706	15.88
318.918	17.52
319.13	16.63
319.342	16.91
319.555	15.63
319.767	16.25
319.979	15.1
320.191	18.42
320.403	19.25
320.615	20.7
320.827	20.8
321.039	18.31
321.252	16.91
321.464	17.05
321.676	14.63
321.888	14.4
322.1	15.53
322.312	15.21
322.524	11.65
322.736	10.92
322.948	9.88
323.16	9.64
323.372	11.43
323.584	8.57
323.796	11.12
324.007	11.37
324.219	12.78
324.431	12.31
324.643	14.7
324.855	18.7
325.067	18.85
325.279	20.31
325.491	20.78
325.702	19.82
325.914	20.56
326.126	19.51
326.338	21.75
326.55	22.1
326.761	24.15
326.973	24.58
327.185	21.22
327.396	22.44
327.608	23.36
327.82	24.27
328.032	24.12
328.243	23.29
328.455	21.73
328.666	19.76
328.878	18.09
329.09	17.31
329.301	16.73
329.513	19.06
329.725	17.85
329.936	17.71
330.148	15.01
330.359	15.2
330.571	16.76
330.782	17.59
330.994	17.3
331.205	17.65
331.417	16.67
331.628	15.55
331.84	15.19
332.051	14.73
332.262	12.82
332.474	12.99
332.685	13.76
332.897	15.04
333.108	15.9
333.319	17.05
333.531	17.18
333.742	17.7
333.953	19.27
334.165	18.52
334.376	17.98
334.587	20.43
334.799	22.83
335.01	22.7
335.221	22.74
335.432	23.16
335.644	23.69
335.855	23.18
336.066	22.32
336.277	21.74
336.488	20.76
336.7	21.88
336.911	19.59
337.122	17.79
337.333	18.95
337.544	17.79
337.755	17.34
337.966	16.74
338.177	17.8
338.388	18.06
338.599	17.91
338.811	20.27
339.022	20.41
339.233	21.61
339.444	22.55
339.655	22.37
339.866	23.4
340.076	24.05
340.287	22.24
340.498	22.97
340.709	23.38
340.92	23.72
341.131	22.36
341.342	20.98
341.553	21.18
341.764	21.81
341.975	21.12
342.185	21.38
342.396	22.49
342.607	23.73
342.818	23.36
343.029	23.01
343.239	24.18
343.45	24.21
343.661	26.29
343.872	26.22
344.082	25.56
344.293	25.73
344.504	26.29
344.714	25.24
344.925	25.28
345.136	26.12
345.346	27.34
345.557	26.14
345.768	25.39
345.978	22.99
346.189	21.53
346.399	22.53
346.61	22.45
346.821	20.52
347.031	20.58
347.242	20.4
347.452	19.37
347.663	17.29
347.873	17.8
348.084	18.78
348.294	18.92
348.504	21.7
348.715	18.77
348.925	17.51
349.136	18.9
349.346	19.88
349.557	20.71
349.767	19.66
349.977	21.6
350.188	20.08
350.398	19.23
350.608	20.4
350.819	19.45
351.029	21
351.239	21.7
351.449	21.07
351.66	20.03
351.87	19.07
352.08	19.06
352.29	19.95
352.501	20.99
352.711	22.03
352.921	22.17
353.131	21.89
353.341	20.83
353.552	20.51
353.762	21.01
353.972	21.62
354.182	20.56
354.392	22.18
354.602	19.31
354.812	19.35
355.022	18.24
355.232	17.97
355.442	18.5
355.652	18.13
355.862	18.74
356.072	18.05
356.282	16.07
356.492	16.96
356.702	17.76
356.912	18.6
357.122	18.39
357.332	18.65
357.542	18.83
357.752	17.3
357.962	17.51
358.171	17.39
358.381	17.77
358.591	17.87
358.801	18.43
359.011	16.24
359.221	16.14
359.43	16.28
359.64	16.77
359.85	16.6
360.06	16.63
360.269	16.79
360.479	17.3
360.689	17.51
360.899	18.26
361.108	17.74
361.318	18.55
361.528	19.14
361.737	18.67
361.947	18.44
362.156	18.21
362.366	18.39
362.576	18.6
362.785	18.51
362.995	18.6
363.204	19.14
363.414	19.13
363.623	18.19
363.833	17.62
364.042	18.12
364.252	18.47
364.461	19.33
364.671	19.79
364.88	20.75
365.09	20.45
365.299	20.01
365.509	19.21
365.718	20.13
365.927	19.52
366.137	19.45
366.346	19.34
366.555	18.4
366.765	17.81
366.974	18.24
367.183	17.34
367.393	17.16
367.602	17.52
367.811	16.87
368.021	16.72
368.23	18.09
368.439	17.52
368.648	17.34
368.857	17.39
369.067	17.1
369.276	15.86
369.485	15.36
369.694	15.47
369.903	14.94
370.112	14.98
370.321	14.51
370.531	13.94
370.74	13.4
370.949	13.96
371.158	14.44
371.367	14.4
371.576	15.06
371.785	15.69
371.994	15.67
372.203	16.41
372.412	16.12
372.621	15.44
372.83	15.3
373.039	16.08
373.248	15.01
373.457	14.54
373.666	14.2
373.874	13.1
374.083	12.94
374.292	12.77
374.501	11.12
374.71	11.09
374.919	11.96
375.128	12.23
375.336	12.32
375.545	12.93
375.754	13.79
375.963	13.9
376.171	14.82
376.38	15.08
376.589	15.15
376.798	16.04
377.006	16.2
377.215	16.03
377.424	16
377.632	16.2
377.841	16.4
378.05	16.28
378.258	16.57
378.467	16.39
378.675	15.62
378.884	15.78
379.093	15.19
379.301	15.26
379.51	14.8
379.718	14.41
379.927	13.82
380.135	12.99
380.344	13.01
380.552	13.06
380.761	12.71
380.969	12.4
381.177	12
381.386	12.74
381.594	13.21
381.803	13.41
382.011	13.25
382.219	12.86
382.428	13.28
382.636	12.75
382.845	12.12
383.053	12.79
383.261	12.52
383.469	12.7
383.678	11.61
383.886	11.06
384.094	11.17
384.302	11.32
384.511	11.73
384.719	11.88
384.927	11.82
385.135	12.03
385.343	11.17
385.552	10.97
385.76	10.57
385.968	11.57
386.176	11.14
386.384	10.57
386.592	10.83
386.8	10.7
387.008	9.84
387.216	9.61
387.424	9.55
387.633	9.46
387.841	10.09
388.049	9.91
388.257	9.47
388.465	9.29
388.672	9.61
388.88	9.3
389.088	9.03
389.296	9.54
389.504	10.04
389.712	9.63
389.92	9.55
390.128	9.22
390.336	9.72
390.544	9.19
390.751	9.4
390.959	9.72
391.167	9.41
391.375	9.8
391.583	9.47
391.79	9.2
391.998	9.41
392.206	9.32
392.414	9.4
392.621	9.32
392.829	9.9
393.037	9.93
393.244	9.75
393.452	9.94
393.66	9.89
393.867	10.57
394.075	10.57
394.283	10.64
394.49	11
394.698	11.1
394.905	10.97
395.113	10.65
395.32	10.29
395.528	9.76
395.735	8.93
395.943	8.45
396.15	8.08
396.358	7.07
396.565	6.87
396.773	6.56
396.98	6.28
397.188	6.01
397.395	6.11
397.602	6.01
397.81	6.42
398.017	6.8
398.225	6.68
398.432	6.65
398.639	7.65
398.847	8
399.054	8
399.261	8.79
399.468	9.29
399.676	9.41
399.883	10.11
400.09	9.95
400.297	10.4
400.505	10.45
400.712	10.22
400.919	9.81
401.126	9.21
401.333	9.16
401.54	8.67
401.748	7.89
401.955	7.49
402.162	7.27
402.369	7.11
402.576	7
402.783	7.35
402.99	7.65
403.197	7.91
403.404	8.17
403.611	8.41
403.818	8.45
404.025	8.32
404.232	8.56
404.439	8.32
404.646	8.15
404.853	8.37
405.06	8.38
405.267	8.26
405.474	7.98
405.681	7.83
405.887	7.57
406.094	7.1
406.301	7.52
406.508	7.4
406.715	7.55
406.922	7.78
407.128	7.4
407.335	7.13
407.542	7.02
407.749	7.56
407.955	7.75
408.162	8.29
408.369	8.85
408.575	8.58
408.782	8.74
408.989	8.59
409.195	8.48
409.402	8.37
409.609	8.7
409.815	8.69
410.022	7.9
410.228	7.72
410.435	6.98
410.642	6.62
410.848	6.9
411.055	6.81
411.261	7.28
411.468	7.02
411.674	7.01
411.881	6.88
412.087	6.61
412.294	7.15
412.5	7.18
412.706	7.25
412.913	7.13
413.119	6.64
413.326	6.58
413.532	5.89
413.738	6.32
413.945	6.38
414.151	6.15
414.357	6.45
414.564	6.37
414.77	6.31
414.976	6.57
415.182	6.8
415.389	7.37
415.595	7.34
415.801	7.81
416.007	7.67
416.214	7.69
416.42	7.64
416.626	7.34
416.832	7.24
417.038	7.05
417.244	6.94
417.45	6.94
417.657	6.91
417.863	6.93
418.069	6.99
418.275	6.87
418.481	6.79
418.687	6.78
418.893	7.01
419.099	7.04
419.305	7.13
419.511	7.19
419.717	7.23
419.923	6.93
420.129	6.82
420.335	6.74
420.541	6.82
420.746	6.93
420.952	7.03
421.158	6.87
421.364	6.69
421.57	6.57
421.776	6.37
421.982	6.22
422.187	6.17
422.393	6.12
422.599	6
422.805	5.84
423.01	5.96
423.216	5.9
423.422	5.89
423.628	5.98
423.833	6.04
424.039	6.27
424.245	6.24
424.45	6.42
424.656	6.53
424.862	6.52
425.067	6.6
425.273	6.3
425.478	6.25
425.684	6.29
425.889	6.26
426.095	6.19
426.301	5.95
426.506	6.1
426.712	6.07
426.917	6.11
427.123	6.23
427.328	6.36
427.533	6.48
427.739	6.4
427.944	6.44
428.15	6.63
428.355	6.74
428.561	6.85
428.766	7.07
428.971	7.04
429.177	6.99
429.382	6.72
429.587	6.77
429.793	6.71
429.998	7.02
430.203	7.06
430.408	7.19
430.614	7.45
430.819	7.7
431.024	7.44
431.229	7.4
431.434	7.47
431.64	7.84
431.845	7.52
432.05	7.42
432.255	7.32
432.46	7.09
432.665	6.85
432.87	6.62
433.076	6.44
433.281	6.36
433.486	6.52
433.691	6.67
433.896	6.26
434.101	6.18
434.306	6.37
434.511	6.4
434.716	6.61
434.921	6.71
435.126	6.82
435.331	6.83
435.535	6.92
435.74	6.56
435.945	6.15
436.15	6.17
436.355	6.41
436.56	6.35
436.765	6.21
436.97	6.14
437.174	5.89
437.379	5.91
437.584	5.8
437.789	5.57
437.993	5.64
438.198	5.88
438.403	6.04
438.608	5.96
438.812	5.89
439.017	5.98
439.222	5.94
439.426	6.18
439.631	6.15
439.836	6.26
440.04	6.13
440.245	6.29
440.45	6.07
440.654	6.15
440.859	6.27
441.063	6.43
441.268	6.39
441.472	6.25
441.677	6.17
441.881	6.13
442.086	6.04
442.29	6.28
442.495	6.21
442.699	6.24
442.904	6
443.108	5.81
443.312	5.68
443.517	5.64
443.721	5.88
443.925	5.77
444.13	5.8
444.334	6.1
444.538	6.08
444.743	6.09
444.947	5.99
445.151	6.19
445.356	6.21
445.56	6.15
445.764	6.15
445.968	6.15
446.173	6.12
446.377	6.04
446.581	5.9
446.785	5.93
446.989	6.01
447.193	6.04
447.398	6.09
447.602	6.21
447.806	6.16
448.01	6.16
448.214	6.25
448.418	6.31
448.622	6.37
448.826	6.25
449.03	6.39
449.234	6.18
449.438	6.45
449.642	6.17
449.846	6.05
450.05	6.28
450.254	6.27
450.458	6.16
450.662	6.2
450.866	6.45
451.069	6.78
451.273	6.65
451.477	6.87
451.681	6.79
451.885	6.82
452.089	6.9
452.292	6.76
452.496	6.8
452.7	6.66
452.904	6.62
453.107	6.2
453.311	6
453.515	6.15
453.719	6.17
453.922	6.04
454.126	6.13
454.33	6.02
454.533	5.87
454.737	5.76
454.94	5.64
455.144	5.59
455.348	5.61
455.551	5.54
455.755	5.12
455.958	4.99
456.162	5.14
456.365	5.04
456.569	5.2
456.772	5.36
456.976	5.37
457.179	5.31
457.383	5.23
457.586	5.2
457.79	5.2
457.993	5.35
458.196	5.24
458.4	5.19
458.603	5.49
458.807	5.31
459.01	5.42
459.213	5.34
459.417	5.58
459.62	5.66
459.823	5.71
460.026	5.95
460.23	5.88
460.433	6.15
460.636	6.27
460.839	6.05
461.042	6.19
461.246	6.17
461.449	6.18
461.652	6.17
461.855	6.17
462.058	6.11
462.261	5.92
462.464	6.15
462.668	5.78
462.871	5.66
463.074	5.86
463.277	5.6
463.48	5.56
463.683	5.57
463.886	5.66
464.089	5.6
464.292	5.73
464.495	5.63
464.698	5.68
464.901	5.73
465.104	5.69
465.306	5.49
465.509	5.92
465.712	6.08
465.915	6.13
466.118	5.91
466.321	5.91
466.524	6.04
466.726	6.19
466.929	6.01
467.132	6.31
467.335	6.27
467.538	6.45
467.74	6.23
467.943	5.83
468.146	6.03
468.348	6.13
468.551	6.19
468.754	6.16
468.956	6.01
469.159	5.9
469.362	5.78
469.564	5.84
469.767	5.71
469.969	5.73
470.172	5.79
470.375	5.85
470.577	5.67
470.78	5.92
470.982	6.16
471.185	6.17
471.387	6.43
471.59	6.57
471.792	6.65
471.995	6.8
472.197	6.74
472.399	7.11
472.602	6.84
472.804	6.85
473.007	6.76
473.209	6.63
473.411	6.41
473.614	6.18
473.816	5.99
474.018	5.92
474.22	5.68
474.423	5.84
474.625	5.57
474.827	5.8
475.03	5.97
475.232	5.8
475.434	5.76
475.636	5.87
475.838	5.92
476.04	5.75
476.243	5.59
476.445	5.67
476.647	5.7
476.849	5.72
477.051	5.48
477.253	5.52
477.455	5.41
477.657	5.32
477.859	5.42
478.061	5.3
478.263	5.29
478.465	5.43
478.667	5.36
478.869	5.14
479.071	5.08
479.273	5.13
479.475	5.1
479.677	5.13
479.879	5.23
480.081	5.43
480.283	5.57
480.485	5.6
480.686	5.54
480.888	5.71
481.09	5.8
481.292	5.74
481.494	5.74
481.695	5.81
481.897	5.97
482.099	5.79
482.301	5.64
482.502	5.61
482.704	5.63
482.906	5.61
483.107	5.57
483.309	5.59
483.511	5.64
483.712	5.68
483.914	5.58
484.115	5.53
484.317	5.47
484.519	5.44
484.72	5.45
484.922	5.45
485.123	5.47
485.325	5.45
485.526	5.35
485.728	5.32
485.929	5.24
486.131	5.23
486.332	5.28
486.534	5.38
486.735	5.46
486.936	5.45
487.138	5.37
487.339	5.4
487.541	5.48
487.742	5.6
487.943	5.62
488.144	5.6
488.346	5.59
488.547	5.55
488.748	5.65
488.95	5.61
489.151	5.63
489.352	5.71
489.553	5.69
489.755	5.64
489.956	5.62
490.157	5.68
490.358	5.77
490.559	5.89
490.76	5.92
490.961	5.78
491.163	5.69
491.364	5.65
491.565	5.53
491.766	5.45
491.967	5.46
492.168	5.42
492.369	5.34
492.57	5.24
492.771	5.2
492.972	5.22
493.173	5.18
493.374	5.28
493.575	5.33
493.776	5.45
493.976	5.43
494.177	5.43
494.378	5.49
494.579	5.46
494.78	5.8
494.981	5.81
495.182	5.79
495.382	6.05
495.583	6.1
495.784	6.11
495.985	6.09
496.185	6.23
496.386	6.13
496.587	6.26
496.788	6.27
496.988	6.05
497.189	6.02
497.39	5.8
497.59	5.87
497.791	5.85
497.992	5.92
498.192	6.01
498.393	6.01
498.593	5.92
498.794	5.73
498.994	5.71
499.195	5.74
499.395	5.75
499.596	5.83
499.796	5.67
499.997	5.67
500.197	5.6
500.398	5.55
500.598	5.47
500.799	5.7
500.999	5.9
501.199	5.89
501.4	5.89
501.6	5.9
501.801	6.09
502.001	5.97
502.201	6.04
502.402	5.89
502.602	5.84
502.802	5.85
503.002	5.74
503.203	5.6
503.403	5.72
503.603	5.82
503.803	5.71
504.003	5.45
504.204	5.57
504.404	5.5
504.604	5.53
504.804	5.7
505.004	5.83
505.204	5.69
505.404	5.64
505.604	5.76
505.804	5.59
506.005	5.84
506.205	5.98
506.405	5.94
506.605	6.19
506.805	6.16
507.005	5.97
507.204	5.86
507.404	6.05
507.604	6.11
507.804	6.05
508.004	6
508.204	5.74
508.404	5.65
508.604	5.57
508.804	5.34
509.003	5.4
509.203	5.62
509.403	5.71
509.603	5.87
509.803	5.67
510.002	5.63
510.202	5.81
510.402	5.85
510.602	5.93
510.801	6.21
511.001	6.19
511.201	6.22
511.4	6.32
511.6	6.27
511.8	6.06
511.999	6.25
512.199	6.2
512.398	6.09
512.598	6.34
512.797	6.26
512.997	5.91
513.197	6.02
513.396	6.02
513.596	5.7
513.795	5.61
513.994	5.7
514.194	5.78
514.393	5.98
514.593	6.18
514.792	5.96
514.992	5.82
515.191	6.09
515.39	5.92
515.59	5.74
515.789	5.87
515.988	5.91
516.188	5.95
516.387	5.79
516.586	5.74
516.786	5.66
516.985	5.7
517.184	5.82
517.383	5.77
517.582	5.75
517.782	5.95
517.981	5.83
518.18	5.81
518.379	5.65
518.578	5.78
518.777	5.71
518.976	5.65
519.176	5.72
519.375	5.77
519.574	5.77
519.773	5.76
519.972	5.76
520.171	5.92
520.37	5.91
520.569	6.06
520.768	5.97
520.967	5.93
521.166	5.97
521.365	6.11
521.564	6.27
521.762	6.29
521.961	6.42
522.16	6.3
522.359	6.1
522.558	6.12
522.757	6.21
522.956	6.35
523.154	6.24
523.353	6.37
523.552	6.25
523.751	6.15
523.949	6.09
524.148	6.26
524.347	6.23
524.546	6.43
524.744	6.55
524.943	6.43
525.142	6.33
525.34	6.41
525.539	6.26
525.737	6.1
525.936	6.14
526.135	6.2
526.333	6.17
526.532	6.3
526.73	6.13
526.929	6.04
527.127	6.04
527.326	6.19
527.524	6.25
527.723	6.28
527.921	6.38
528.12	6.38
528.318	6.47
528.516	6.41
528.715	6.36
528.913	6.39
529.112	6.48
529.31	6.52
529.508	6.52
529.707	6.5
529.905	6.54
530.103	6.55
530.301	6.51
530.5	6.34
530.698	6.39
530.896	6.52
531.094	6.48
531.293	6.4
531.491	6.4
531.689	6.32
531.887	6.4
532.085	6.34
532.283	6.33
532.481	6.41
532.68	6.45
532.878	6.45
533.076	6.48
533.274	6.59
533.472	6.58
533.67	6.43
533.868	6.34
534.066	6.36
534.264	6.46
534.462	6.48
534.66	6.42
534.858	6.59
535.056	6.57
535.253	6.52
535.451	6.49
535.649	6.53
535.847	6.7
536.045	6.86
536.243	6.83
536.441	6.88
536.638	6.87
536.836	6.92
537.034	6.76
537.232	6.81
537.43	6.81
537.627	7
537.825	7.1
538.023	7.17
538.22	7.2
538.418	7.3
538.616	7.16
538.813	7.23
539.011	7.24
539.209	7.38
539.406	7.39
539.604	7.29
539.801	7.12
539.999	7.1
540.196	7.03
540.394	7.15
540.591	7.13
540.789	7.18
540.986	7.32
541.184	7.45
541.381	7.45
541.579	7.44
541.776	7.38
541.974	7.46
542.171	7.55
542.368	7.58
542.566	7.46
542.763	7.44
542.96	7.59
543.158	7.58
543.355	7.59
543.552	7.58
543.75	7.57
543.947	7.79
544.144	7.76
544.341	7.75
544.539	7.96
544.736	8.12
544.933	8.26
545.13	8.09
545.327	7.88
545.524	7.82
545.722	7.84
545.919	7.87
546.116	7.89
546.313	7.85
546.51	7.91
546.707	7.81
546.904	7.82
547.101	7.8
547.298	7.86
547.495	8
547.692	8.09
547.889	7.93
548.086	8.01
548.283	7.9
548.48	8.06
548.677	8.05
548.874	8.14
549.07	8.01
549.267	7.91
549.464	7.84
549.661	7.86
549.858	7.67
550.055	7.85
550.251	7.91
550.448	8.05
550.645	8
550.842	7.94
551.038	7.8
551.235	7.96
551.432	8.13
551.628	8.61
551.825	8.56
552.022	8.71
552.218	9.17
552.415	9.11
552.612	9.4
552.808	9.59
553.005	9.57
553.201	9.61
553.398	9.58
553.594	9.86
553.791	9.57
553.987	9.57
554.184	9.73
554.38	9.57
554.577	9.79
554.773	9.83
554.97	9.69
555.166	9.63
555.362	9.94
555.559	10.13
555.755	10.34
555.952	10.46
556.148	10.49
556.344	10.43
556.541	10.58
556.737	10.77
556.933	10.74
557.129	11.01
557.326	11.45
557.522	11.43
557.718	11.28
557.914	10.94
558.11	10.92
558.307	11.19
558.503	11.28
558.699	11.17
558.895	11.18
559.091	11.25
559.287	11.2
559.483	10.96
559.679	10.82
559.876	11.17
560.072	11.34
560.268	11.65
560.464	11.62
560.66	11.73
560.856	11.64
561.052	11.68
561.247	11.27
561.443	11.39
561.639	11.59
561.835	11.73
562.031	11.73
562.227	11.65
562.423	11.41
562.619	11.45
562.815	11.23
563.01	11.59
563.206	11.52
563.402	11.71
563.598	11.62
563.793	11.55
563.989	11.26
564.185	11.25
564.381	11.15
564.576	11.54
564.772	11.52
564.968	11.6
565.163	11.19
565.359	11.44
565.555	11.6
565.75	11.79
565.946	11.81
566.141	11.99
566.337	12.15
566.532	12.09
566.728	11.97
566.923	12.12
567.119	12.38
567.314	12.65
567.51	12.47
567.705	12.58
567.901	12.67
568.096	12.83
568.292	12.92
568.487	12.57
568.682	12.85
568.878	12.82
569.073	12.99
569.268	12.91
569.464	13.24
569.659	13.55
569.854	13.73
570.05	13.64
570.245	13.67
570.44	14.01
570.635	14.29
570.831	14.2
571.026	14.25
571.221	14.12
571.416	14.26
571.611	13.95
571.806	13.84
572.002	13.63
572.197	13.62
572.392	13.52
572.587	13.18
572.782	13.18
572.977	13.18
573.172	13.09
573.367	13.11
573.562	13.21
573.757	13.45
573.952	13.2
574.147	13.36
574.342	13.43
574.537	13.45
574.732	13.72
574.927	13.72
575.121	13.93
575.316	14.11
575.511	14.36
575.706	14.27
575.901	14.34
576.096	14.7
576.29	14.67
576.485	14.82
576.68	14.94
576.875	14.63
577.069	14.79
577.264	14.77
577.459	14.79
577.654	14.62
577.848	14.51
578.043	14.53
578.238	14.33
578.432	14.23
578.627	14.17
578.821	14.24
579.016	14.64
579.21	14.47
579.405	14.59
579.6	14.53
579.794	14.49
579.989	14.66
580.183	14.9
580.378	14.89
580.572	15.07
580.766	14.85
580.961	14.83
581.155	14.56
581.35	14.51
581.544	14.38
581.738	14.62
581.933	14.95
582.127	14.89
582.321	14.67
582.516	15
582.71	14.81
582.904	14.96
583.099	14.9
583.293	15.08
583.487	15.58
583.681	15.87
583.875	15.91
584.07	15.6
584.264	15.43
584.458	15.36
584.652	14.92
584.846	15.47
585.04	15.8
585.234	15.93
585.428	16.09
585.623	15.7
585.817	15.81
586.011	15.65
586.205	15.87
586.399	16.03
586.593	15.89
586.787	16.46
586.981	16.19
587.174	16.07
587.368	15.99
587.562	15.87
587.756	16.28
587.95	15.97
588.144	15.97
588.338	15.98
588.532	16.11
588.725	16.11
588.919	15.9
589.113	15.88
589.307	15.54
589.501	15.87
589.694	15.83
589.888	15.51
590.082	15.7
590.275	15.8
590.469	15.78
590.663	15.51
590.856	15.73
591.05	15.56
591.244	15.65
591.437	15.96
591.631	15.76
591.824	15.94
592.018	15.99
592.212	15.73
592.405	15.7
592.599	15.98
592.792	16.33
592.986	16.28
593.179	16.42
593.372	16.43
593.566	16.27
593.759	16.41
593.953	16.36
594.146	16.55
594.339	16.49
594.533	16.33
594.726	16.03
594.92	15.97
595.113	16.14
595.306	16.11
595.499	15.85
595.693	15.99
595.886	15.98
596.079	15.87
596.272	15.75
596.466	15.96
596.659	16.05
596.852	16.04
597.045	15.8
597.238	15.83
597.431	15.73
597.624	15.83
597.818	15.81
598.011	16.05
598.204	16.23
598.397	16.07
598.59	16.24
598.783	16.19
598.976	16.39
599.169	16.86
599.362	16.71
599.555	16.99
599.748	17.11
599.941	17.22
600.134	16.99
600.326	17.03
600.519	17.12
600.712	16.8
600.905	16.94
601.098	16.71
601.291	16.77
601.483	17.29
601.676	17.2
601.869	16.78
602.062	16.75
602.255	16.48
602.447	16.22
602.64	16.41
602.833	16.6
603.025	16.81
603.218	16.87
603.411	16.83
603.603	16.54
603.796	16.66
603.989	16.87
604.181	16.83
604.374	16.77
604.566	16.93
604.759	16.58
604.951	16.5
605.144	16.2
605.336	16.27
605.529	16.1
605.721	16.04
605.914	16
606.106	15.98
606.299	15.99
606.491	16.2
606.683	16.25
606.876	16.5
607.068	16.43
607.26	16.53
607.453	16.33
607.645	16.47
607.837	16.13
608.03	16.38
608.222	16.68
608.414	16.64
608.606	16.74
608.799	16.82
608.991	16.98
609.183	17.28
609.375	17.34
609.567	17.49
609.759	17.38
609.952	17.62
610.144	17.29
610.336	17.17
610.528	17.12
610.72	17.07
610.912	17.1
611.104	16.92
611.296	16.41
611.488	16.32
611.68	16.35
611.872	16.29
612.064	16.38
612.256	16.4
612.448	16.12
612.64	16.4
612.832	16.47
613.023	16.43
613.215	16.42
613.407	16.68
613.599	16.68
613.791	16.52
613.983	16.78
614.174	16.68
614.366	17.09
614.558	17.46
614.75	17.6
614.941	17.14
615.133	17.06
615.325	16.84
615.516	17.06
615.708	17.24
615.9	17.47
616.091	17.38
616.283	17.33
616.475	16.6
616.666	16.58
616.858	16.18
617.049	16.56
617.241	16.66
617.432	17.01
617.624	16.8
617.815	16.59
618.007	16.5
618.198	16.29
618.39	16.28
618.581	16.66
618.773	16.72
618.964	16.67
619.155	16.44
619.347	16.1
619.538	16.21
619.729	16.28
619.921	16.16
620.112	16.3
620.303	16.43
620.494	16.58
620.686	16.67
620.877	16.37
621.068	16.7
621.259	16.69
621.451	16.96
621.642	16.79
621.833	17.06
622.024	16.95
622.215	16.99
622.406	16.84
622.597	16.89
622.788	16.8
622.98	17.39
623.171	17.04
623.362	16.77
623.553	16.9
623.744	16.9
623.935	16.72
624.126	16.94
624.317	16.37
624.508	16.39
624.698	16.24
624.889	16.08
625.08	15.61
625.271	15.8
625.462	16.42
625.653	16.26
625.844	16.6
626.034	16.76
626.225	16.94
626.416	17.13
626.607	17.31
626.798	17.29
626.988	17.67
627.179	17.79
627.37	17.83
627.56	17.68
627.751	17.89
627.942	18.07
628.132	17.59
628.323	17.49
628.514	17.85
628.704	18.06
628.895	18.28
629.085	17.75
629.276	17.77
629.466	17.62
629.657	17.53
629.847	17.19
630.038	16.91
630.228	17.16
630.419	17.02
630.609	17.09
630.8	16.92
630.99	16.89
631.181	16.87
631.371	17.03
631.561	17.03
631.752	17.28
631.942	17.51
632.132	17.52
632.323	17.6
632.513	17.79
632.703	17.4
632.893	17.14
633.084	16.92
633.274	17.13
633.464	16.77
633.654	16.6
633.844	16.4
634.034	16.39
634.225	16.05
634.415	16.04
634.605	16.18
634.795	16.24
634.985	16.44
635.175	16.28
635.365	16.28
635.555	16.59
635.745	17.24
635.935	17.45
636.125	17.21
636.315	17.49
636.505	17.57
636.695	17.12
636.885	16.89
637.075	16.79
637.265	17.11
637.455	17.16
637.644	17.27
637.834	17.05
638.024	16.56
638.214	16.79
638.404	16.79
638.593	16.65
638.783	16.91
638.973	17.28
639.163	17.65
639.352	17.57
639.542	17.56
639.732	17.54
639.921	17.48
640.111	17.88
640.301	17.9
640.49	17.78
640.68	17.93
640.87	17.87
641.059	17.22
641.249	17.32
641.438	17.24
641.628	17.37
641.817	17.32
642.007	16.99
642.196	16.9
642.386	16.99
642.575	17.11
642.764	17.1
642.954	17.06
643.143	17.5
643.333	17.17
643.522	17.74
643.711	18.03
643.901	17.4
644.09	17.39
644.279	17.6
644.469	17.54
644.658	17.63
644.847	17.68
645.036	17.69
645.226	17.82
645.415	17.51
645.604	16.75
645.793	16.54
645.982	16.74
646.171	16.82
646.361	16.41
646.55	15.88
646.739	15.71
646.928	15.78
647.117	15.64
647.306	15.62
647.495	15.84
647.684	15.82
647.873	15.76
648.062	16.2
648.251	16.44
648.44	16.71
648.629	16.97
648.818	17.08
649.007	17.46
649.196	17.81
649.384	17.7
649.573	17.94
649.762	18
649.951	18.21
650.14	17.95
650.328	17.76
650.517	17.92
650.706	18.18
650.895	17.9
651.083	17.14
651.272	16.92
651.461	17.39
651.65	17.28
651.838	17.36
652.027	17.19
652.216	17.69
652.404	18.25
652.593	18.2
652.781	18.15
652.97	18.45
653.158	18.97
653.347	18.94
653.535	19.01
653.724	18.55
653.912	18.72
654.101	18.8
654.289	18.27
654.478	17.99
654.666	17.93
654.855	17.4
655.043	17.38
655.231	17.43
655.42	18.31
655.608	17.76
655.796	18.35
655.985	17.77
656.173	18.21
656.361	18.83
656.55	18.42
656.738	18.2
656.926	18.28
657.114	18.1
657.302	17.89
657.491	17.33
657.679	17.65
657.867	17.61
658.055	18.16
658.243	17.67
658.431	17.37
658.619	17.74
658.807	17.91
658.996	18.23
659.184	18.77
659.372	18.96
659.56	18.87
659.748	19.02
659.936	19.28
660.124	19.07
660.311	19.23
660.499	18.95
660.687	19.12
660.875	19.17
661.063	19.05
661.251	18.4
661.439	18.07
661.627	18.25
661.814	17.76
662.002	16.81
662.19	17.33
662.378	16.78
662.565	17.06
662.753	16.79
662.941	17.03
663.129	17.11
663.316	17.34
663.504	17.67
663.692	17.75
663.879	17.83
664.067	18.1
664.254	18.14
664.442	18.53
664.63	18.32
664.817	18.41
665.005	18.33
665.192	18.58
665.38	18.96
665.567	18.71
665.755	18.56
665.942	18.68
666.13	19
666.317	18.79
666.504	18.83
666.692	18.68
666.879	18.67
667.067	18.83
667.254	18.92
667.441	18.79
667.629	19.04
667.816	19.1
668.003	19.21
668.19	19.17
668.378	18.8
668.565	19.18
668.752	19.4
668.939	19.31
669.127	19.19
669.314	19.57
669.501	20.02
669.688	19.65
669.875	19.98
670.062	20.11
670.249	20.41
670.436	20.63
670.623	20.21
670.81	20.48
670.997	20.59
671.184	20.47
671.371	19.62
671.558	18.77
671.745	18.65
671.932	18.47
672.119	18.14
672.306	17.36
672.493	18.05
672.68	17.69
672.867	17.48
673.054	17.04
673.24	17.36
673.427	17.67
673.614	18.01
673.801	17.94
673.988	18.37
674.174	18.32
674.361	18.98
674.548	18.63
674.734	19.31
674.921	19.07
675.108	19.47
675.294	19.66
675.481	19.35
675.668	20.16
675.854	20.96
676.041	20.31
676.227	20.39
676.414	20.13
676.601	19.89
676.787	20.09
676.974	20.29
677.16	19.93
677.347	19.75
677.533	20.21
677.719	19.36
677.906	19.05
678.092	19.61
678.279	19.43
678.465	19.95
678.651	19.72
678.838	19.3
679.024	19.58
679.21	19.97
679.397	20.14
679.583	19.89
679.769	20.18
679.955	20.34
680.142	19.64
680.328	19.95
680.514	19.53
680.7	19.67
680.886	19.76
681.073	19.49
681.259	19.19
681.445	18.72
681.631	18.47
681.817	18.1
682.003	17.92
682.189	17.81
682.375	17.35
682.561	17.88
682.747	18.2
682.933	18.02
683.119	17.89
683.305	18.19
683.491	18.12
683.677	18.56
683.863	18.14
684.049	18.17
684.235	18.05
684.42	18.94
684.606	18.43
684.792	17.49
684.978	17.77
685.164	18.38
685.349	18.48
685.535	19.11
685.721	18.85
685.907	19.41
686.092	19.65
686.278	20.52
686.464	20.13
686.649	20.28
686.835	20.93
687.021	21.33
687.206	21.34
687.392	20.94
687.577	19.9
687.763	20.26
687.948	20.02
688.134	19.72
688.319	19.27
688.505	18.86
688.69	19.39
688.876	19.73
689.061	19.1
689.247	18.4
689.432	18.23
689.618	18.73
689.803	18.66
689.988	19
690.174	18.78
690.359	18.73
690.544	18.67
690.73	17.94
690.915	17.65
691.1	17.25
691.285	17.93
691.471	18.52
691.656	18.3
691.841	18.59
692.026	18.65
692.211	18.46
692.396	18.25
692.582	18.17
692.767	18.19
692.952	17.84
693.137	18.57
693.322	18.34
693.507	18.4
693.692	19.27
693.877	19.18
694.062	19.23
694.247	20.02
694.432	20.81
694.617	21.52
694.802	21.58
694.987	22.06
695.172	21.11
695.357	20.98
695.541	21.17
695.726	20.2
695.911	20.24
696.096	20.13
696.281	19.74
696.466	19.26
696.65	19.21
696.835	18.63
697.02	18.96
697.204	20.07
697.389	19.16
697.574	18.79
697.759	19.11
697.943	18.64
698.128	18.83
698.312	19.08
698.497	18.97
698.682	18.61
698.866	19.14
699.051	18.1
699.235	17.67
699.42	18.54
699.604	18.79
699.789	18.77
699.973	19.05
700.158	18.66
700.342	18.51
700.527	18.91
700.711	18.9
700.895	18.74
701.08	19.96
701.264	20.22
701.448	20.01
701.633	19.85
701.817	20.55
702.001	19.83
702.186	19.99
702.37	19.9
702.554	18.91
702.738	20.19
702.923	19.82
703.107	20.27
703.291	20.11
703.475	20.39
703.659	20.58
703.843	19.78
704.027	20.34
704.212	20.17
704.396	21.14
704.58	21.82
704.764	20.95
704.948	21.01
705.132	20.11
705.316	20.76
705.5	20.19
705.684	20
705.868	20.57
706.052	20.85
706.235	20.76
706.419	19.87
706.603	19.92
706.787	20.08
706.971	20.42
707.155	21.4
707.339	21.1
707.522	21.01
707.706	21.26
707.89	20.36
708.074	19.94
708.257	19.51
708.441	20.13
708.625	20.06
708.808	19.44
708.992	19.65
709.176	18.74
709.359	18.27
709.543	18.35
709.727	17.77
709.91	17.96
710.094	18.33
710.277	19.36
710.461	18.66
710.644	19.48
710.828	19.73
711.011	20.19
711.195	19.57
711.378	18.92
711.562	19.16
711.745	19.61
711.928	20.41
712.112	20.1
712.295	18.9
712.478	18.96
712.662	17.51
712.845	17.45
713.028	17.35
713.212	17.58
713.395	18.06
713.578	18.41
713.761	17.99
713.945	16.92
714.128	16.77
714.311	17.13
714.494	16.8
714.677	17.36
714.86	18.02
715.043	17.19
715.227	17.52
715.41	17.69
715.593	18.01
715.776	18.18
715.959	18.78
716.142	18.58
716.325	19.52
716.508	19.95
716.691	20.35
716.874	20.15
717.057	19.68
717.239	19.98
717.422	20.11
717.605	19.72
717.788	19.37
717.971	18.93
718.154	19.87
718.337	19.07
718.519	19.4
718.702	18.72
718.885	19.03
719.068	20.15
719.25	20.11
719.433	19.26
719.616	20.07
719.798	20.04
719.981	20.51
720.164	20.44
720.346	21.18
720.529	22.48
720.712	23.3
720.894	22.9
721.077	22.6
721.259	22.28
721.442	23.77
721.624	23
721.807	23.04
721.989	23.05
722.172	22.53
722.354	21.56
722.537	20.34
722.719	19.09
722.901	18.98
723.084	21.39
723.266	21.99
723.448	22.22
723.631	22.89
723.813	23.5
723.995	23.02
724.178	23.82
724.36	24.6
724.542	24.15
724.724	25.85
724.907	25.68
725.089	23.71
725.271	23.03
725.453	23.08
725.635	20.76
725.817	20.14
725.999	20.6
726.181	19.97
726.364	19.78
726.546	18.88
726.728	18.5
726.91	18.91
727.092	18.78
727.274	17.95
727.456	16.96
727.638	18.61
727.819	19
728.001	19.01
728.183	18.46
728.365	18.68
728.547	18.57
728.729	17.95
728.911	17.74
729.093	17.57
729.274	19.61
729.456	20.15
729.638	19.54
729.82	19.48
730.001	19.24
730.183	19.81
730.365	20.03
730.546	20.75
730.728	20.9
730.91	20.64
731.091	21.17
731.273	19.64
731.455	19.04
731.636	18.73
731.818	19.66
731.999	19.34
732.181	19.46
732.362	20.12
732.544	20.59
732.725	20.65
732.907	20.34
733.088	19.86
733.27	21.88
733.451	21.58
733.633	22.57
733.814	21.97
733.995	22.21
734.177	22.39
734.358	22.01
734.539	21.52
734.721	22.16
734.902	22.89
735.083	22.98
735.264	21.04
735.446	21.43
735.627	20.72
735.808	20.77
735.989	21.01
736.17	20.86
736.351	20.72
736.533	22.32
736.714	22.17
736.895	21.97
737.076	20.39
737.257	18.95
737.438	19.54
737.619	19.73
737.8	19.95
737.981	20.14
738.162	20.01
738.343	19.22
738.524	18.2
738.705	17.66
738.886	17.42
739.067	19.51
739.247	21.01
739.428	20.76
739.609	20.34
739.79	19.57
739.971	19.99
740.151	20.71
740.332	21.71
740.513	21.74
740.694	22.08
740.874	22.29
741.055	21.8
741.236	22.38
741.417	22.97
741.597	24.18
741.778	24.58
741.958	23.89
742.139	23.95
742.32	22.25
742.5	22
742.681	20.79
742.861	20.35
743.042	21.24
743.222	20.32
743.403	20.32
743.583	20.22
743.764	20.52
743.944	21.92
744.124	20.19
744.305	20.63
744.485	20.62
744.666	22.06
744.846	24.09
745.026	22.16
745.207	21.89
745.387	21.7
745.567	21.52
745.747	20.71
745.928	19.35
746.108	19.25
746.288	19.7
746.468	19.84
746.648	20.57
746.829	18.72
747.009	19.27
747.189	18.59
747.369	18.98
747.549	17.95
747.729	18.25
747.909	17.87
748.089	19.37
748.269	18.9
748.449	18.61
748.629	17.98
748.809	19.77
748.989	19.43
749.169	21.44
749.349	20.15
749.529	19.02
749.709	17.92
749.889	17.61
750.068	17.66
750.248	18.07
750.428	17.82
750.608	17.85
750.788	16.4
750.967	18.88
751.147	18.83
751.327	19.71
751.507	21.1
751.686	21.79
751.866	22.5
752.046	22.79
752.225	21.02
752.405	21.93
752.585	21.53
752.764	21.83
752.944	19.5
753.123	20.86
753.303	20.31
753.482	20.42
753.662	21.76
753.841	21.91
754.021	21.02
754.2	23.54
754.38	22.62
754.559	21.2
754.739	20.76
754.918	20.95
755.097	19.5
755.277	19.91
755.456	19.82
755.635	20.13
755.815	20.52
755.994	20.76
756.173	19.82
756.352	20.92
756.532	22.02
756.711	20.49
756.89	21.87
757.069	22.76
757.248	21.98
757.427	23.71
757.607	23.93
757.786	22.42
757.965	22.48
758.144	21.56
758.323	21.34
758.502	22.3
758.681	22.62
758.86	22.51
759.039	20.47
759.218	20.78
759.397	19.84
759.576	16.86
759.755	17.39
759.934	17.32
760.113	17.88
760.291	16.78
760.47	15.46
760.649	15.45
760.828	16.46
761.007	17.99
761.186	17.42
761.364	16.35
761.543	18.62
761.722	19.17
761.901	20.15
762.079	20.21
762.258	20.48
762.437	21.1
762.615	22.64
762.794	20.84
762.972	21.99
763.151	22.85
763.33	23.15
763.508	22.15
763.687	21.75
763.865	20.88
764.044	21.68
764.222	21.62
764.401	22.15
764.579	21.67
764.758	21.92
764.936	21.25
765.114	20.76
765.293	20.68
765.471	21.07
765.65	22.18
765.828	21.88
766.006	20.82
766.184	21.18
766.363	19.81
766.541	18.35
766.719	18.73
766.898	18.41
767.076	19.68
767.254	19.15
767.432	19.4
767.61	16.76
767.788	17.07
767.967	17.06
768.145	17.85
768.323	19.53
768.501	20.98
768.679	20.72
768.857	20.5
769.035	19.44
769.213	20.86
769.391	21.19
769.569	24.09
769.747	25.78
769.925	27.65
770.103	27.15
770.281	27.22
770.459	28.29
770.636	30.46
770.814	28.75
770.992	29.96
771.17	29.84
771.348	30.22
771.525	30.53
771.703	28.16
771.881	25.69
772.059	25.45
772.236	22.28
772.414	22.21
772.592	20.79
772.769	21.14
772.947	21.22
773.125	21.57
773.302	21.61
773.48	21.4
773.657	22.86
773.835	22.86
774.013	24.2
774.19	27.08
774.368	27.42
774.545	23.6
774.723	23.28
774.9	22.51
775.077	22.4
775.255	22.54
775.432	23.77
775.61	25.86
775.787	26.35
775.964	24.35
776.142	23.74
776.319	22.75
776.496	28.11
776.674	27.91
776.851	26.53
777.028	23.05
777.205	18.42
777.382	16.13
777.56	13.54
777.737	14.99
777.914	16.96
778.091	15.92
778.268	16.79
778.445	14.96
778.622	16.61
778.8	17.9
778.977	18.92
779.154	21.81
779.331	21.54
779.508	21.59
779.685	21.89
779.862	19.47
780.038	18.61
780.215	18.45
780.392	18.49
780.569	18.85
780.746	14.69
780.923	12.95
781.1	13.11
781.277	13.46
781.453	13.06
781.63	11.88
781.807	11.85
781.984	12.65
782.16	10.56
782.337	10.86
782.514	10.82
782.691	13.25
782.867	17.47
783.044	16.79
783.221	14.2
783.397	14.34
783.574	15.15
783.75	14.73
783.927	15.3
784.103	17.06
784.28	15.84
784.456	15.1
784.633	16.42
784.809	14.82
784.986	16.2
785.162	20.63
785.339	20.12
785.515	18.39
785.692	21.61
785.868	25.17
786.044	25.89
786.221	29.15
786.397	30.28
786.573	28.5
786.749	28.88
786.926	26
787.102	23.39
787.278	23.79
787.454	22.54
787.631	20.21
787.807	17.1
787.983	16.7
788.159	11.22
788.335	7.78
788.511	9.47
788.687	8.27
788.863	12.95
789.039	13.32
789.216	14.64
789.392	17.71
789.568	18.05
789.744	17.2
789.919	16.69
790.095	19.59
790.271	22.69
790.447	24
790.623	26.22
790.799	25.26
790.975	28.32
791.151	27.6
791.327	25.67
791.502	28.99
791.678	29.4
791.854	26.8
792.03	23.89
792.205	21.56
792.381	18.47
792.557	21.22
792.733	21.97
792.908	15.79
793.084	14
793.259	13.85
793.435	10.07
793.611	8.59
793.786	6.57
793.962	11.39
794.137	10.98
794.313	11.74
794.488	7.54
794.664	8.35
794.839	14.19
795.015	18.66
795.19	22.56
795.366	25.68
795.541	28.83
795.716	32.61
795.892	29.66
796.067	33.61
796.242	30.36
796.418	30.61
796.593	28.02
796.768	26.58
796.944	25.05
797.119	23.95
797.294	20.74
797.469	19.01
797.644	16.74
797.82	18.1
797.995	16.86
798.17	20.1
798.345	20.92
798.52	21.57
798.695	24.28
798.87	28.48
799.045	27.28
799.22	25.36
799.395	29.44
799.57	29.68
799.745	30.49
799.92	30.41
800.095	32.05
800.27	30.68
800.445	28.41
800.62	24.95
800.795	19.51
800.97	22.8
801.145	28.44
801.319	24.88
801.494	27.05
801.669	27.94
801.844	27.03
802.018	25.03
802.193	26.67
802.368	30.21
802.543	31.74
802.717	33.22
802.892	30.68
803.067	27.29
803.241	29.46
803.416	25.98
803.59	25.79
803.765	25.15
803.94	25.07
804.114	22.93
804.289	20.33
804.463	18.9
804.638	17.02
804.812	14.78
804.986	18.92
805.161	19.07
805.335	16.21
805.51	15.14
805.684	15.44
805.858	14.95
806.033	17.42
806.207	19.63
806.381	19.64
806.556	20.04
806.73	21.68
806.904	23.79
807.078	23.44
807.253	32.22
807.427	33.03
807.601	34.89
807.775	38.63
807.949	37.77
808.123	34.1
808.298	33.58
808.472	29.61
808.646	33.13
808.82	27.74
808.994	22.38
809.168	19.16
809.342	21.64
809.516	21.68
809.69	19.27
809.864	22.09
810.038	27.39
810.212	30.57
810.385	36.48
810.559	33.91
810.733	34
810.907	34.77
811.081	34.11
811.255	33.09
811.428	29.2
811.602	27.06
811.776	22.56
811.95	21.69
812.123	19.6
812.297	15.37
812.471	18.56
812.644	13.07
812.818	17.63
812.992	23.3
813.165	24.66
813.339	31.61
813.512	34.36
813.686	33.96
813.86	31.44
814.033	31.04
814.207	33.56
814.38	28.75
814.554	31.15
814.727	30.4
814.9	27.47
815.074	26.86
815.247	28.31
815.421	24.93
815.594	34.4
815.767	38.21
815.941	36.83
816.114	35.63
816.287	38.58
816.46	40.68
816.634	36.7
816.807	35.51
816.98	32.61
817.153	25.79
817.327	31.2
817.5	29.05
817.673	33.95
817.846	38.04
818.019	32.4
818.192	30.21
818.365	34.54
818.538	37.68
818.711	37.01
818.884	41.71
819.057	43.07
819.23	39.54
819.403	35.67
819.576	30.86
819.749	28.52
819.922	31.92
820.095	26.62
820.268	22.78
820.441	22.7
820.614	21.73
820.786	19.91
820.959	20.37
821.132	19.74
821.305	21.41
821.477	22.29
821.65	23.26
821.823	23.75
821.996	25.84
822.168	26.08
822.341	25.54
822.514	25.26
822.686	24.35
822.859	24.49
823.031	24.61
823.204	23
823.376	22.66
823.549	22.47
823.722	22.14
823.894	22.23
824.067	23.03
824.239	22.94
824.411	22.4
824.584	21.73
824.756	21.56
824.929	21.62
825.101	23.19
825.273	24.22
825.446	23.43
825.618	24.18
825.79	23.95
825.963	24.19
826.135	24.27
826.307	26.11
826.479	28.21
826.652	28
826.824	29.56
826.996	29.64
827.168	28.8
827.34	27.77
827.512	24.92
827.684	25.53
827.856	24.38
828.029	25.48
828.201	24.79
828.373	23.4
828.545	22.71
828.717	19.8
828.889	19.23
829.061	20.73
829.232	23.02
829.404	26
829.576	25.1
829.748	22.74
829.92	20.2
830.092	19.42
830.264	21.06
830.436	20.69
830.607	20.45
830.779	21
830.951	16.06
831.123	17.15
831.294	18.05
831.466	18.5
831.638	19.15
831.809	20.56
831.981	28.58
832.153	31.14
832.324	30.6
832.496	35.18
832.667	33.89
832.839	31.92
833.011	30.03
833.182	26.14
833.354	28.53
833.525	28.62
833.697	26.53
833.868	21.87
834.039	21.48
834.211	23.27
834.382	21.19
834.554	23.24
834.725	24.22
834.896	23.55
835.068	27.69
835.239	24.98
835.41	27.41
835.581	32.34
835.753	32.94
835.924	27.04
836.095	26.95
836.266	28.05
836.438	27.93
836.609	25.42
836.78	25.29
836.951	19.86
837.122	22.03
837.293	20.24
837.464	14.83
837.635	6.32
837.806	15.86
837.977	16.41
838.148	17.25
838.319	18.71
838.49	19.25
838.661	20.56
838.832	21.53
839.003	17.55
839.174	10.95
839.345	12.54
839.516	16.3
839.687	10.33
839.857	7.53
840.028	13.39
840.199	6.11
840.37	17.55
840.54	22.18
840.711	24.34
840.882	23.15
841.053	32.93
841.223	36.13
841.394	43.6
841.564	44.99
841.735	42.67
841.906	42.68
842.076	46.04
842.247	40.03
842.417	28.61
842.588	25.08
842.758	31.7
842.929	25.27
843.099	21.35
843.27	17.91
843.44	26.57
843.611	36.22
843.781	30.43
843.951	30.85
844.122	32.38
844.292	42.56
844.462	41.03
844.633	47.83
844.803	53.08
844.973	48.03
845.144	47.17
845.314	43.15
845.484	44.58
845.654	57.02
845.824	47.19
845.995	46.07
846.165	45.93
846.335	58.12
846.505	48.08
846.675	40.64
846.845	33.56
847.015	32.52
847.185	25.97
847.355	29.34
847.525	32.78
847.695	39.05
847.865	33.02
848.035	34.4
848.205	36.53
848.375	34.07
848.545	35.11
848.715	44.29
848.884	34.83
849.054	34.68
849.224	19.52
849.394	19.29
849.564	23.71
849.733	49.09
849.903	59.33
850.073	37.81
850.243	41.86
850.412	47.95
850.582	56.1
850.752	65.34
850.921	59.21
851.091	68.84
851.26	61.24
851.43	88.6
851.599	50.33
851.769	4.83
851.939	24.5
852.108	14.39
852.278	17.42
852.447	15.93
852.616	19.72
852.786	19.13
852.955	17.47
853.125	10.18
853.294	0.05
853.463	-1.79
853.633	10.85
853.802	23.66
853.971	28.26
854.141	22.66
854.31	20.64
854.479	18.71
854.648	31.28
854.818	20.92
854.987	37.86
855.156	36.3
855.325	29.76
855.494	26.03
855.663	19.02
855.832	14.61
856.001	25.27
856.171	40.45
856.34	51.85
856.509	40.73
856.678	45.36
856.847	49.93
857.016	51.64
857.185	67.69
857.353	85.15
857.522	94.79
857.691	88.63
857.86	86.51
858.029	72.44
858.198	76.72
858.367	84.07
858.535	97.22
858.704	70.59
858.873	67.53
859.042	59.22
859.21	32.42
859.379	34.57
859.548	11.19
859.717	5.1
859.885	16.48
860.054	3.09
860.222	18.85
860.391	3.26
860.56	54.51
860.728	71.58
860.897	55.8
861.065	38.1
861.234	29.38
861.402	41.11
861.571	13.83
861.739	13.54
861.908	17.52
862.076	1.42
862.244	5.66
862.413	10.51
862.581	4.91
862.749	23.03
862.918	32.85
863.086	35.65
863.254	49.85
863.423	57.7
863.591	53.73
863.759	54.68
863.927	57.09
864.096	56.88
864.264	62.01
864.432	61.75
864.6	67.49
864.768	72.07
864.936	67.86
865.104	53.91
865.272	57.9
865.44	63.23
865.608	48.84
865.776	45.45
865.944	59.81
866.112	36.37
866.28	38.32
866.448	23.92
866.616	21.12
866.784	12.3
866.952	14.22
867.12	25.36
867.288	-5.29
867.455	3.42
867.623	2.56
867.791	-26.55
867.959	-2.18
868.127	-5.87
868.294	10.86
868.462	11.6
868.63	4.32
868.797	14.54
868.965	4.67
869.133	16.81
869.3	37.59
869.468	37.69
869.636	49.35
869.803	53.33
869.971	60.57
870.138	49.97
870.306	41.33
870.473	61.68
870.641	73.27
870.808	79.66
870.975	81.58
871.143	83
871.31	85.09
871.478	90.06
871.645	78.08
871.812	87.03
871.98	102.23
872.147	125
872.314	117.54
872.482	111.46
872.649	126.06
872.816	120.23
872.983	111.81
873.15	128.42
873.318	107.6
873.485	105.75
873.652	106.61
873.819	110.63
873.986	114.47
874.153	100.21
874.32	114.38
874.487	83.02
874.654	79.58
874.821	61.37
874.988	44.96
875.155	59.09
875.322	71.4
875.489	85.32
875.656	73.7
875.823	79.37
875.99	77.25
876.157	80.09
876.324	95.88
876.49	86.96
876.657	100.66
876.824	112.29
876.991	122.86
877.157	201.18
877.324	112.36
877.491	167.62
877.658	115.89
877.824	90.17
877.991	72.52
878.157	50.87
878.324	63.62
878.491	75.11
878.657	71.97
878.824	53.87
878.99	42.27
879.157	40.6
879.323	38.04
879.49	48.17
879.656	41.79
879.823	28.57
879.989	8.64
880.156	5.54
880.322	-13.82
880.488	-4.85
880.655	10.32
880.821	14.93
880.987	30.17
881.154	21.36
881.32	13.5
881.486	24.78
881.652	31.93
881.819	35.99
881.985	37.59
882.151	40.03
882.317	29.97
882.483	24.78
882.649	23.94
882.816	20.84
882.982	17.04
883.148	17.28
883.314	15.37
883.48	10.62
883.646	12.97
883.812	13.43
883.978	13.01
884.144	18.96
884.31	21.42
884.476	18.57
884.642	19.75
884.807	26.34
884.973	26.02
885.139	27.89
885.305	28.57
885.471	30.05
885.637	33.29
885.802	32
885.968	28.89
886.134	28.45
886.3	38.81
886.465	40.64
886.631	36.43
886.797	42.54
886.962	50.5
887.128	59.32
887.293	59.33
887.459	57.06
887.625	57.78
887.79	57.3
887.956	62.14
888.121	51.96
888.287	53.69
888.452	65.19
888.618	62.86
888.783	48.21
