Data from 2938077_Reflection_3.txt Node
Date: Sat Jul 11 20:21:19 EDT 2015
User: robert
Spectrometer: USB4E03001
Autoset integration time: false
Trigger mode: 4
Integration Time (sec): 1.000000E-1
Scans to average: 10
Electric dark correction enabled: true
Nonlinearity correction enabled: false
Boxcar width: 5
Stray light correction enabled: false
XAxis mode: Wavelengths
Stop averaging: false
Number of Pixels in Spectrum: 3648
>>>>>Begin Spectral Data<<<<<
177.566	181.75
177.785	150.34
178.005	2496.23
178.225	-695.65
178.445	-0.92
178.665	24.31
178.885	613.17
179.105	511.06
179.324	324.59
179.544	185.16
179.764	73.88
179.984	53.62
180.204	10.52
180.423	147.02
180.643	50.66
180.863	-124.51
181.083	-346.8
181.302	22.52
181.522	-98.9
181.742	2.61
181.961	-52.25
182.181	87.61
182.401	103
182.621	93.03
182.84	94.55
183.06	62.18
183.279	194.14
183.499	92.82
183.719	153.03
183.938	177.9
184.158	161.63
184.377	140.01
184.597	-587.13
184.816	-147.11
185.036	-13.79
185.256	14
185.475	-13.28
185.695	-57.56
185.914	-28.4
186.134	-3940
186.353	243.18
186.572	-344.1
186.792	-492.71
187.011	-158.14
187.231	2453.54
187.45	259.01
187.67	224.74
187.889	116.21
188.108	86.2
188.328	62.55
188.547	87.83
188.766	1011.02
188.986	202.97
189.205	-218.17
189.424	-206.43
189.644	-185.79
189.863	-28.62
190.082	-40.29
190.302	14.17
190.521	22.7
190.74	-80.99
190.959	160.42
191.178	262.92
191.398	222.62
191.617	-1784.17
191.836	213.32
192.055	102.64
192.274	18.58
192.494	152
192.713	72.8
192.932	74.68
193.151	61.84
193.37	27.21
193.589	18.91
193.808	38.22
194.027	24.16
194.246	7.17
194.465	-2.83
194.685	19.71
194.904	14.8
195.123	20.47
195.342	7.19
195.561	24.86
195.78	33
195.999	57.09
196.218	-0.62
196.436	41.26
196.655	161.89
196.874	474.78
197.093	805.75
197.312	145.04
197.531	91.5
197.75	71.24
197.969	21.86
198.188	42.07
198.407	119.67
198.625	-211.6
198.844	79.3
199.063	-657.04
199.282	-191.91
199.501	-2.63
199.719	-136.26
199.938	-16.69
200.157	134.29
200.376	295.91
200.594	169.17
200.813	235.53
201.032	222.37
201.251	175.43
201.469	147.25
201.688	135.88
201.907	141.73
202.125	144.83
202.344	87
202.563	82.69
202.781	59
203	80.4
203.218	44.82
203.437	31.7
203.656	117.45
203.874	-203.6
204.093	23.57
204.311	207.67
204.53	237.24
204.748	78.26
204.967	47.87
205.185	92.42
205.404	162.12
205.622	152.34
205.841	195.62
206.059	329.13
206.278	-261.73
206.496	-829.81
206.715	-168.01
206.933	289.9
207.151	-586.24
207.37	-15.6
207.588	40.67
207.806	70.74
208.025	87.2
208.243	65.09
208.461	58.98
208.68	65.12
208.898	84.56
209.116	91.97
209.335	50.69
209.553	52.2
209.771	62.79
209.989	5.22
210.208	20.47
210.426	24.6
210.644	43.89
210.862	53.9
211.081	50.47
211.299	39.11
211.517	37.81
211.735	51.96
211.953	52.11
212.171	51.88
212.39	57.85
212.608	64.51
212.826	58.64
213.044	59.11
213.262	62.51
213.48	43.69
213.698	53.94
213.916	16.33
214.134	22.06
214.352	22.17
214.57	47.56
214.788	72.83
215.006	47.2
215.224	56.74
215.442	82.66
215.66	73.81
215.878	89.03
216.096	93.84
216.314	135.36
216.532	134.99
216.75	128.67
216.968	80.59
217.185	65.2
217.403	63.62
217.621	36.06
217.839	33.8
218.057	41.4
218.275	44.25
218.492	16.65
218.71	22.67
218.928	46.3
219.146	38.63
219.363	65.07
219.581	66.05
219.799	73.59
220.017	112.19
220.234	95.35
220.452	92.74
220.67	74.71
220.887	54.64
221.105	49.31
221.323	52.52
221.54	47.77
221.758	13.43
221.976	7.33
222.193	0.69
222.411	0.48
222.629	3.33
222.846	6.93
223.064	12.81
223.281	42.58
223.499	35.01
223.716	10.7
223.934	34.87
224.151	51.7
224.369	52.8
224.586	51.61
224.804	42.48
225.021	13.56
225.239	-11.9
225.456	-19.99
225.674	-15.03
225.891	-15.47
226.108	-29.13
226.326	-23.88
226.543	-3.27
226.76	10.81
226.978	19.35
227.195	19.38
227.413	18.92
227.63	17.42
227.847	19.52
228.064	17.91
228.282	18.81
228.499	17.69
228.716	17.12
228.934	13.9
229.151	9.55
229.368	4.13
229.585	2.57
229.802	2.05
230.02	4.42
230.237	4
230.454	3.36
230.671	0.63
230.888	1.98
231.105	1.18
231.323	-0.15
231.54	3.14
231.757	8.72
231.974	7.95
232.191	10.14
232.408	8.58
232.625	11.18
232.842	14.27
233.059	13.75
233.276	14.64
233.493	6.02
233.71	4.64
233.927	1.08
234.144	1.09
234.361	-0.01
234.578	0.07
234.795	-0.64
235.012	-4.47
235.229	-13.61
235.446	-11.3
235.663	-11.96
235.879	-9.21
236.096	-9.99
236.313	-5.97
236.53	-9.95
236.747	-2.39
236.964	-2.06
237.181	-10.25
237.397	-13.39
237.614	-2.13
237.831	0.22
238.048	1.2
238.264	-1.25
238.481	5.62
238.698	3.36
238.915	2.6
239.131	5.37
239.348	6.42
239.565	10.87
239.781	14.22
239.998	10.3
240.215	6.8
240.431	3.99
240.648	2.97
240.865	4.3
241.081	4.8
241.298	6.02
241.514	0.8
241.731	0.65
241.947	4.04
242.164	4.22
242.38	5.31
242.597	6.64
242.814	8.62
243.03	11.64
243.246	12.34
243.463	11.1
243.679	13.56
243.896	15.05
244.112	14.97
244.329	14.76
244.545	15.23
244.762	14.94
244.978	14.14
245.194	12.16
245.411	8.52
245.627	5.22
245.843	5.46
246.06	4.06
246.276	3.04
246.492	4.06
246.709	2.57
246.925	2.83
247.141	1.94
247.357	1.54
247.574	2.25
247.79	1.82
248.006	2.51
248.222	2.51
248.439	2.28
248.655	4.36
248.871	4.66
249.087	5.28
249.303	5.69
249.519	7.54
249.736	8.73
249.952	10.05
250.168	12.24
250.384	11.64
250.6	13.71
250.816	13.11
251.032	8.7
251.248	9.11
251.464	10.46
251.68	6.72
251.896	4.5
252.112	5.73
252.328	3.22
252.544	3.03
252.76	0.94
252.976	-0.69
253.192	-0.85
253.408	0.69
253.624	-0.96
253.84	-2.87
254.056	-0.32
254.272	1.98
254.487	-2.73
254.703	-5.08
254.919	-4.46
255.135	2.1
255.351	2.38
255.567	1.42
255.782	0.18
255.998	1.03
256.214	1.37
256.43	-1.66
256.646	-3.01
256.861	-0.36
257.077	2.51
257.293	2.09
257.508	-1.35
257.724	-3.75
257.94	-2.64
258.155	0.41
258.371	0.95
258.587	0.21
258.802	2.08
259.018	2.39
259.234	2.12
259.449	1.88
259.665	1.87
259.88	1.9
260.096	3.62
260.312	4.79
260.527	4.51
260.743	5.53
260.958	6.34
261.174	5.68
261.389	5.89
261.605	6.73
261.82	7.21
262.036	7.84
262.251	8.22
262.466	6.8
262.682	5.61
262.897	6.67
263.113	5.7
263.328	6.53
263.543	9.81
263.759	10.14
263.974	9.31
264.189	8.75
264.405	8.09
264.62	8.8
264.835	7.98
265.051	7
265.266	5.55
265.481	5.83
265.696	3.67
265.912	1.17
266.127	2.32
266.342	2.47
266.557	2
266.773	2.9
266.988	4.23
267.203	4.53
267.418	5.82
267.633	6.38
267.848	5.36
268.064	5.7
268.279	5.17
268.494	4.87
268.709	5.44
268.924	4.67
269.139	4.74
269.354	2.47
269.569	1.96
269.784	1.14
269.999	-1.85
270.214	-0.9
270.429	0.14
270.644	2.76
270.859	2.3
271.074	0.41
271.289	1.07
271.504	1.45
271.719	3.21
271.934	5.61
272.149	5.89
272.363	7.57
272.578	7.47
272.793	6.9
273.008	6.07
273.223	6.98
273.438	7.99
273.653	9.41
273.867	8.74
274.082	8.16
274.297	6.98
274.512	7.16
274.726	7.77
274.941	7.86
275.156	8.16
275.371	7.49
275.585	7.44
275.8	7.51
276.015	7.82
276.229	8.33
276.444	9.59
276.659	9.82
276.873	7.95
277.088	7.87
277.302	7.83
277.517	5.64
277.732	7.54
277.946	5.09
278.161	5.77
278.375	6.22
278.59	7.29
278.804	7.24
279.019	7.11
279.233	9.7
279.448	7.56
279.662	8.37
279.877	10.87
280.091	9.36
280.306	10.28
280.52	11.85
280.735	11.17
280.949	9.86
281.163	8.77
281.378	9.24
281.592	8.2
281.806	7.4
282.021	6.32
282.235	6.44
282.449	6.78
282.664	6.82
282.878	5.24
283.092	4.94
283.307	6.59
283.521	6.72
283.735	6.68
283.949	5.72
284.164	5.63
284.378	4.37
284.592	4.2
284.806	4.86
285.02	4.43
285.234	4.77
285.449	5.52
285.663	3.9
285.877	3.35
286.091	3.24
286.305	2.91
286.519	4.72
286.733	5.34
286.947	5.41
287.161	4.57
287.375	4.72
287.589	3.68
287.803	2.16
288.017	2.23
288.231	3.58
288.445	3.46
288.659	5.41
288.873	4.44
289.087	4.69
289.301	5.3
289.515	6.42
289.729	7.28
289.943	8.37
290.157	9.15
290.371	9.58
290.584	10.29
290.798	11.6
291.012	11.1
291.226	10.51
291.44	11.49
291.654	10.33
291.867	9.11
292.081	8.91
292.295	8.54
292.509	9.53
292.722	8.36
292.936	7.52
293.15	5.43
293.364	4.86
293.577	6.24
293.791	6.42
294.005	8.02
294.218	9.58
294.432	9.99
294.645	10.92
294.859	10.04
295.073	11.34
295.286	11.94
295.5	12.29
295.713	12.84
295.927	12.47
296.14	11.8
296.354	10.77
296.568	10.79
296.781	10.77
296.994	9.95
297.208	10.09
297.421	9.66
297.635	9.04
297.848	8.27
298.062	8.26
298.275	8.55
298.489	7.53
298.702	8.51
298.915	7.62
299.129	8.73
299.342	9.29
299.555	9.98
299.769	9.98
299.982	9.22
300.195	10.73
300.409	10.59
300.622	10.87
300.835	11.19
301.048	10.15
301.262	12.22
301.475	10.88
301.688	10.83
301.901	9.97
302.115	9.47
302.328	9.22
302.541	9.24
302.754	9.39
302.967	8.56
303.18	9
303.393	8.89
303.607	7.7
303.82	6.74
304.033	6.7
304.246	6.99
304.459	9.73
304.672	11.24
304.885	11.62
305.098	11.06
305.311	11.56
305.524	13.38
305.737	14.39
305.95	13.85
306.163	15.61
306.376	14.66
306.589	15.61
306.802	14.75
307.015	13.76
307.228	12.76
307.44	14.68
307.653	15.54
307.866	13.47
308.079	13.91
308.292	14.17
308.505	14.09
308.718	16.18
308.93	15.64
309.143	14.73
309.356	14.78
309.569	15.15
309.781	15.1
309.994	14.97
310.207	16.03
310.42	15.41
310.632	15.12
310.845	14.49
311.058	13.86
311.27	13.43
311.483	13.88
311.696	14.46
311.908	15.55
312.121	14.02
312.333	13.16
312.546	13.02
312.759	13.09
312.971	13.03
313.184	13.05
313.396	13.55
313.609	13.41
313.821	12.21
314.034	12.29
314.246	11.23
314.459	10.53
314.671	11.01
314.884	10.4
315.096	9.04
315.309	9.09
315.521	8.79
315.733	7.2
315.946	6.5
316.158	7.1
316.371	7.78
316.583	7.29
316.795	9.15
317.008	9.92
317.22	10.61
317.432	11.5
317.644	12.89
317.857	12.53
318.069	12.24
318.281	11.8
318.494	9.71
318.706	9.43
318.918	8.54
319.13	9.26
319.342	9.03
319.555	8.44
319.767	9.84
319.979	7.36
320.191	8.93
320.403	7.87
320.615	9.72
320.827	13.97
321.039	12.25
321.252	13.12
321.464	11.49
321.676	10.81
321.888	11.47
322.1	10.81
322.312	11.78
322.524	11.61
322.736	13.71
322.948	12.42
323.16	10.69
323.372	11.64
323.584	12.3
323.796	14.5
324.007	15.12
324.219	15.65
324.431	14.94
324.643	14.85
324.855	14.75
325.067	16
325.279	16.63
325.491	17.37
325.702	16.61
325.914	16.42
326.126	15.04
326.338	13.25
326.55	12.48
326.761	14.3
326.973	14.42
327.185	14.26
327.396	14.26
327.608	15.55
327.82	13.88
328.032	15.76
328.243	15.32
328.455	16.68
328.666	19.32
328.878	20.42
329.09	20.33
329.301	21.74
329.513	22.93
329.725	23.32
329.936	23.08
330.148	24.4
330.359	23.3
330.571	24.18
330.782	24.21
330.994	23.81
331.205	23.35
331.417	22.52
331.628	20.64
331.84	20.71
332.051	19.51
332.262	20.96
332.474	21.24
332.685	21.38
332.897	21.47
333.108	23.84
333.319	24.17
333.531	23.64
333.742	24.86
333.953	27.44
334.165	26.6
334.376	26.53
334.587	26.27
334.799	27.45
335.01	28.67
335.221	29.64
335.432	28.25
335.644	28.91
335.855	30.26
336.066	30.46
336.277	29.26
336.488	29.96
336.7	31.21
336.911	30.58
337.122	29.57
337.333	29.03
337.544	29.45
337.755	28.72
337.966	28.19
338.177	27.08
338.388	26.9
338.599	28.1
338.811	28.77
339.022	28.85
339.233	29.01
339.444	29.7
339.655	30.44
339.866	28.99
340.076	28.92
340.287	29.82
340.498	31.3
340.709	31.16
340.92	30.74
341.131	30.03
341.342	28.75
341.553	28.98
341.764	29.74
341.975	29.58
342.185	29.69
342.396	30.87
342.607	30.18
342.818	28.16
343.029	28.55
343.239	28.32
343.45	27.88
343.661	27.6
343.872	27.34
344.082	26.31
344.293	26.22
344.504	27.62
344.714	26.4
344.925	27.28
345.136	28.47
345.346	28.2
345.557	28.53
345.768	29.66
345.978	30.69
346.189	31
346.399	30.66
346.61	30.75
346.821	29.76
347.031	30.23
347.242	29.82
347.452	30.55
347.663	30.2
347.873	30.34
348.084	29.83
348.294	29.77
348.504	30.13
348.715	30.33
348.925	30.3
349.136	30.64
349.346	31.6
349.557	32.44
349.767	31.53
349.977	32.92
350.188	32.75
350.398	31.93
350.608	32.54
350.819	32.28
351.029	32.85
351.239	32.45
351.449	32.67
351.66	32.12
351.87	31.43
352.08	31.61
352.29	30.41
352.501	29.31
352.711	30.16
352.921	30.54
353.131	29.91
353.341	29.7
353.552	30.79
353.762	30.68
353.972	30.29
354.182	30.38
354.392	31.17
354.602	31.66
354.812	33.37
355.022	34.13
355.232	34.04
355.442	34.94
355.652	35.65
355.862	35.4
356.072	34.96
356.282	34.12
356.492	33.57
356.702	32.93
356.912	33.4
357.122	32.83
357.332	32.74
357.542	32.97
357.752	33.14
357.962	32.89
358.171	32.88
358.381	33.58
358.591	34.48
358.801	34.7
359.011	34.24
359.221	33.44
359.43	33.62
359.64	33.07
359.85	31.58
360.06	29.83
360.269	29.96
360.479	31.02
360.689	30.34
360.899	30.18
361.108	30.38
361.318	31.12
361.528	30.92
361.737	30.88
361.947	31.37
362.156	31.6
362.366	33.37
362.576	33.96
362.785	33.14
362.995	33.72
363.204	34.15
363.414	34.08
363.623	33.94
363.833	34.42
364.042	33.93
364.252	33.98
364.461	33.78
364.671	32.9
364.88	31.65
365.09	32.13
365.299	31.48
365.509	30.9
365.718	30.43
365.927	30.45
366.137	29.83
366.346	31.09
366.555	31.31
366.765	32.19
366.974	31.95
367.183	31.66
367.393	29.84
367.602	30.09
367.811	30.35
368.021	31.58
368.23	31
368.439	32.12
368.648	31.25
368.857	30.56
369.067	30.07
369.276	30.57
369.485	31.22
369.694	32.87
369.903	32.84
370.112	32.3
370.321	31.5
370.531	32.36
370.74	31.59
370.949	31.74
371.158	31.82
371.367	31.96
371.576	31.44
371.785	31.83
371.994	31.63
372.203	31.54
372.412	32.2
372.621	31.71
372.83	31.78
373.039	31.66
373.248	31.51
373.457	30.49
373.666	30.65
373.874	31.13
374.083	30.54
374.292	30.56
374.501	29.99
374.71	28.86
374.919	29.28
375.128	28.53
375.336	28.89
375.545	28.71
375.754	29.05
375.963	28.51
376.171	27.95
376.38	27.85
376.589	27.8
376.798	27.78
377.006	28.82
377.215	28.13
377.424	28.58
377.632	28.29
377.841	28.53
378.05	28.52
378.258	28.5
378.467	28.82
378.675	28.72
378.884	28.51
379.093	28.65
379.301	28.42
379.51	28.98
379.718	28.72
379.927	28.71
380.135	28.52
380.344	28.71
380.552	28.55
380.761	27.95
380.969	28.48
381.177	28.57
381.386	28.83
381.594	28.39
381.803	28.11
382.011	27.33
382.219	27.35
382.428	27.23
382.636	27.2
382.845	26.92
383.053	27.11
383.261	26.07
383.469	26.52
383.678	26.12
383.886	26.18
384.094	26.42
384.302	26.55
384.511	26.27
384.719	26.39
384.927	26.08
385.135	26.17
385.343	26.5
385.552	26.79
385.76	26.07
385.968	26.65
386.176	26.97
386.384	26.81
386.592	27.07
386.8	27.4
387.008	27.45
387.216	27.81
387.424	27.67
387.633	27.61
387.841	27.5
388.049	27.26
388.257	27.21
388.465	27.15
388.672	26.85
388.88	26.71
389.088	26.63
389.296	26.36
389.504	25.96
389.712	26.07
389.92	25.63
390.128	25.77
390.336	25.84
390.544	25.36
390.751	25.24
390.959	25.39
391.167	25.28
391.375	25.2
391.583	25.41
391.79	25.84
391.998	26
392.206	26.09
392.414	26.14
392.621	26.38
392.829	26.31
393.037	26.11
393.244	26.24
393.452	26.36
393.66	26.46
393.867	26.54
394.075	26.18
394.283	26.17
394.49	26.47
394.698	26.49
394.905	26.52
395.113	26.86
395.32	26.88
395.528	27.23
395.735	27.61
395.943	27.39
396.15	27.2
396.358	27.41
396.565	27.38
396.773	27.47
396.98	27.16
397.188	27.05
397.395	27.07
397.602	27.59
397.81	27.1
398.017	27.05
398.225	27.09
398.432	27.39
398.639	27.46
398.847	27.63
399.054	27.21
399.261	27.64
399.468	27.75
399.676	27.56
399.883	27.58
400.09	27.64
400.297	27.48
400.505	27.86
400.712	28.15
400.919	28.06
401.126	27.98
401.333	28.18
401.54	28.16
401.748	27.84
401.955	27.96
402.162	27.51
402.369	27.65
402.576	27.76
402.783	27.57
402.99	27.66
403.197	27.84
403.404	28.12
403.611	28.27
403.818	28.32
404.025	28.62
404.232	28.73
404.439	28.83
404.646	29.13
404.853	29.15
405.06	29.21
405.267	28.76
405.474	28.97
405.681	28.9
405.887	28.96
406.094	29.28
406.301	29.35
406.508	29.24
406.715	29.09
406.922	28.76
407.128	28.74
407.335	28.5
407.542	28.66
407.749	28.44
407.955	28.68
408.162	28.27
408.369	27.87
408.575	27.98
408.782	27.96
408.989	28.15
409.195	28.15
409.402	28.22
409.609	28.51
409.815	28.46
410.022	28.44
410.228	28.21
410.435	28.58
410.642	28.8
410.848	28.8
411.055	28.85
411.261	28.88
411.468	29
411.674	28.72
411.881	28.65
412.087	28.83
412.294	28.71
412.5	28.55
412.706	28.48
412.913	28.63
413.119	28.91
413.326	28.97
413.532	29.19
413.738	28.77
413.945	29.02
414.151	29.25
414.357	29.02
414.564	29.17
414.77	29.54
414.976	29.53
415.182	29.35
415.389	29.09
415.595	28.78
415.801	28.49
416.007	28.58
416.214	28.4
416.42	28.22
416.626	28.34
416.832	28.13
417.038	27.86
417.244	27.65
417.45	27.56
417.657	27.48
417.863	27.69
418.069	27.63
418.275	27.81
418.481	27.72
418.687	27.7
418.893	27.58
419.099	27.77
419.305	27.63
419.511	27.52
419.717	27.53
419.923	27.55
420.129	27.39
420.335	27.47
420.541	27.45
420.746	27.56
420.952	27.51
421.158	27.41
421.364	27.29
421.57	27.38
421.776	27.49
421.982	27.34
422.187	27.2
422.393	27.35
422.599	27.22
422.805	27.15
423.01	26.93
423.216	26.92
423.422	26.97
423.628	26.99
423.833	27
424.039	26.89
424.245	26.89
424.45	27
424.656	26.97
424.862	26.99
425.067	26.91
425.273	27.17
425.478	27.04
425.684	26.95
425.889	26.81
426.095	26.71
426.301	26.85
426.506	26.87
426.712	26.78
426.917	26.83
427.123	26.83
427.328	26.87
427.533	26.76
427.739	26.75
427.944	26.92
428.15	27.09
428.355	27.07
428.561	26.98
428.766	27.11
428.971	27.06
429.177	26.83
429.382	26.86
429.587	26.9
429.793	26.97
429.998	27.07
430.203	26.92
430.408	26.89
430.614	27.06
430.819	27.46
431.024	27.34
431.229	27.25
431.434	27.34
431.64	27.55
431.845	27.55
432.05	27.46
432.255	27.32
432.46	27.54
432.665	27.4
432.87	27.25
433.076	27.02
433.281	27.14
433.486	27.05
433.691	26.9
433.896	26.89
434.101	26.89
434.306	26.86
434.511	27.17
434.716	27.03
434.921	27.15
435.126	27.36
435.331	27.32
435.535	27.19
435.74	27.32
435.945	27.5
436.15	27.35
436.355	27.14
436.56	26.91
436.765	26.63
436.97	26.47
437.174	26.22
437.379	26
437.584	25.82
437.789	25.83
437.993	25.82
438.198	25.7
438.403	25.71
438.608	25.74
438.812	25.88
439.017	25.9
439.222	25.99
439.426	26.18
439.631	26.2
439.836	26.42
440.04	26.42
440.245	26.33
440.45	26.3
440.654	26.37
440.859	26.59
441.063	26.68
441.268	26.78
441.472	26.87
441.677	26.96
441.881	26.94
442.086	26.76
442.29	26.73
442.495	26.83
442.699	26.93
442.904	26.82
443.108	26.66
443.312	26.59
443.517	26.54
443.721	26.35
443.925	26.12
444.13	26.11
444.334	26.14
444.538	26.14
444.743	26.17
444.947	26.23
445.151	26.18
445.356	26.14
445.56	26.15
445.764	26.12
445.968	26.2
446.173	26.31
446.377	26.24
446.581	26.22
446.785	26.1
446.989	26.06
447.193	25.89
447.398	25.86
447.602	25.86
447.806	25.75
448.01	25.76
448.214	25.67
448.418	25.65
448.622	25.58
448.826	25.51
449.03	25.74
449.234	25.69
449.438	25.76
449.642	25.81
449.846	25.68
450.05	25.53
450.254	25.5
450.458	25.66
450.662	25.62
450.866	25.69
451.069	25.94
451.273	25.7
451.477	25.76
451.681	25.89
451.885	25.83
452.089	25.88
452.292	26.05
452.496	26.11
452.7	25.96
452.904	25.99
453.107	26.02
453.311	25.83
453.515	25.83
453.719	25.85
453.922	25.74
454.126	25.6
454.33	25.75
454.533	25.74
454.737	25.46
454.94	25.31
455.144	25.21
455.348	25.29
455.551	25.1
455.755	25.1
455.958	24.98
456.162	24.96
456.365	25.21
456.569	25.09
456.772	25.03
456.976	25.25
457.179	25.41
457.383	25.25
457.586	25.13
457.79	25.22
457.993	25.28
458.196	25.05
458.4	25.08
458.603	25.05
458.807	25.05
459.01	25.2
459.213	25.18
459.417	25.28
459.62	25.32
459.823	25.39
460.026	25.5
460.23	25.38
460.433	25.54
460.636	25.54
460.839	25.51
461.042	25.5
461.246	25.41
461.449	25.41
461.652	25.35
461.855	25.43
462.058	25.5
462.261	25.55
462.464	25.64
462.668	25.67
462.871	25.89
463.074	25.92
463.277	26.12
463.48	26.05
463.683	26.07
463.886	25.96
464.089	26.03
464.292	26.15
464.495	26.03
464.698	26.1
464.901	26.17
465.104	26.06
465.306	26.16
465.509	26.3
465.712	26.62
465.915	26.66
466.118	26.57
466.321	26.7
466.524	26.71
466.726	26.8
466.929	26.87
467.132	26.81
467.335	26.78
467.538	26.77
467.74	26.74
467.943	26.77
468.146	26.62
468.348	26.8
468.551	26.61
468.754	26.68
468.956	26.52
469.159	26.43
469.362	26.53
469.564	26.56
469.767	26.69
469.969	26.58
470.172	26.48
470.375	26.55
470.577	26.6
470.78	26.61
470.982	26.32
471.185	26.44
471.387	26.53
471.59	26.78
471.792	26.74
471.995	26.55
472.197	26.46
472.399	26.26
472.602	26.31
472.804	26.35
473.007	26.59
473.209	26.71
473.411	26.8
473.614	26.75
473.816	26.41
474.018	26.5
474.22	26.41
474.423	26.54
474.625	26.51
474.827	26.5
475.03	26.44
475.232	26.27
475.434	26.16
475.636	26.12
475.838	26.33
476.04	26.62
476.243	26.53
476.445	26.72
476.647	26.66
476.849	26.74
477.051	26.73
477.253	26.69
477.455	26.73
477.657	26.86
477.859	26.75
478.061	26.5
478.263	26.27
478.465	26.22
478.667	26.07
478.869	26.2
479.071	26.22
479.273	26.31
479.475	26.4
479.677	26.23
479.879	26.24
480.081	26.41
480.283	26.5
480.485	26.52
480.686	26.49
480.888	26.55
481.09	26.32
481.292	26.39
481.494	26.37
481.695	26.35
481.897	26.36
482.099	26.22
482.301	26.15
482.502	26.11
482.704	26.17
482.906	26.24
483.107	26.27
483.309	26.31
483.511	26.24
483.712	26.24
483.914	26.25
484.115	26.28
484.317	26.34
484.519	26.36
484.72	26.38
484.922	26.37
485.123	26.35
485.325	26.31
485.526	26.34
485.728	26.4
485.929	26.4
486.131	26.41
486.332	26.38
486.534	26.32
486.735	26.32
486.936	26.3
487.138	26.27
487.339	26.3
487.541	26.31
487.742	26.34
487.943	26.3
488.144	26.34
488.346	26.38
488.547	26.48
488.748	26.46
488.95	26.33
489.151	26.41
489.352	26.38
489.553	26.34
489.755	26.34
489.956	26.3
490.157	26.35
490.358	26.33
490.559	26.23
490.76	26.1
490.961	26.22
491.163	26.39
491.364	26.35
491.565	26.4
491.766	26.5
491.967	26.56
492.168	26.51
492.369	26.52
492.57	26.49
492.771	26.58
492.972	26.63
493.173	26.58
493.374	26.61
493.575	26.62
493.776	26.64
493.976	26.56
494.177	26.57
494.378	26.71
494.579	26.7
494.78	26.83
494.981	26.61
495.182	26.59
495.382	26.69
495.583	26.81
495.784	26.87
495.985	26.82
496.185	26.89
496.386	26.84
496.587	26.8
496.788	26.73
496.988	26.68
497.189	26.65
497.39	26.64
497.59	26.49
497.791	26.37
497.992	26.34
498.192	26.42
498.393	26.47
498.593	26.63
498.794	26.68
498.994	26.74
499.195	26.8
499.395	27.08
499.596	27.13
499.796	27.27
499.997	27.22
500.197	27.22
500.398	27.39
500.598	27.23
500.799	27.08
500.999	27.06
501.199	26.95
501.4	26.83
501.6	26.85
501.801	26.75
502.001	26.65
502.201	26.87
502.402	26.99
502.602	26.94
502.802	27.15
503.002	27.41
503.203	27.3
503.403	27.47
503.603	27.52
503.803	27.34
504.003	27.57
504.204	27.79
504.404	27.66
504.604	27.79
504.804	27.56
505.004	27.5
505.204	27.39
505.404	27.62
505.604	27.73
505.804	27.85
506.005	28.13
506.205	28.13
506.405	28.11
506.605	28.19
506.805	28.06
507.005	28.2
507.204	28.31
507.404	28.33
507.604	28.29
507.804	28.25
508.004	28.26
508.204	28.04
508.404	28.19
508.604	28.35
508.804	28.37
509.003	28.52
509.203	28.64
509.403	28.67
509.603	28.66
509.803	28.77
510.002	28.8
510.202	28.78
510.402	28.92
510.602	28.83
510.801	28.77
511.001	28.91
511.201	28.81
511.4	28.7
511.6	28.82
511.8	28.8
511.999	28.7
512.199	28.8
512.398	28.89
512.598	28.82
512.797	28.91
512.997	28.95
513.197	29
513.396	29.19
513.596	29.32
513.795	29.27
513.994	29.43
514.194	29.48
514.393	29.49
514.593	29.4
514.792	29.56
514.992	29.63
515.191	29.71
515.39	29.86
515.59	29.87
515.789	30.02
515.988	30.11
516.188	30.15
516.387	30.22
516.586	30.35
516.786	30.45
516.985	30.66
517.184	30.74
517.383	30.8
517.582	30.77
517.782	30.75
517.981	30.8
518.18	30.84
518.379	30.9
518.578	30.93
518.777	30.86
518.976	31.03
519.176	30.97
519.375	31.04
519.574	31.15
519.773	31.03
519.972	31.06
520.171	31.03
520.37	31
520.569	31.01
520.768	31.18
520.967	31.35
521.166	31.26
521.365	31.35
521.564	31.31
521.762	31.19
521.961	31.21
522.16	31.37
522.359	31.34
522.558	31.53
522.757	31.53
522.956	31.45
523.154	31.57
523.353	31.61
523.552	31.66
523.751	31.7
523.949	31.69
524.148	31.8
524.347	31.64
524.546	31.87
524.744	31.77
524.943	32
525.142	32.04
525.34	32.04
525.539	32.13
525.737	32.15
525.936	32.12
526.135	32.22
526.333	32.31
526.532	32.4
526.73	32.49
526.929	32.54
527.127	32.44
527.326	32.45
527.524	32.39
527.723	32.4
527.921	32.45
528.12	32.53
528.318	32.56
528.516	32.61
528.715	32.65
528.913	32.57
529.112	32.58
529.31	32.63
529.508	32.66
529.707	32.69
529.905	32.67
530.103	32.64
530.301	32.54
530.5	32.53
530.698	32.49
530.896	32.61
531.094	32.65
531.293	32.7
531.491	32.7
531.689	32.65
531.887	32.68
532.085	32.77
532.283	32.77
532.481	32.87
532.68	32.88
532.878	32.91
533.076	32.83
533.274	32.82
533.472	32.83
533.67	32.86
533.868	32.96
534.066	32.98
534.264	33.06
534.462	33.1
534.66	33.13
534.858	33.13
535.056	33.14
535.253	33.16
535.451	33.29
535.649	33.24
535.847	33.25
536.045	33.29
536.243	33.46
536.441	33.54
536.638	33.62
536.836	33.77
537.034	33.88
537.232	33.88
537.43	33.88
537.627	33.79
537.825	33.83
538.023	33.88
538.22	33.81
538.418	33.61
538.616	33.49
538.813	33.46
539.011	33.44
539.209	33.32
539.406	33.35
539.604	33.37
539.801	33.41
539.999	33.44
540.196	33.44
540.394	33.51
540.591	33.65
540.789	33.7
540.986	33.76
541.184	33.68
541.381	33.78
541.579	33.81
541.776	33.83
541.974	33.88
542.171	33.9
542.368	33.97
542.566	33.98
542.763	33.93
542.96	33.96
543.158	33.92
543.355	33.96
543.552	33.98
543.75	34.04
543.947	34.09
544.144	34.21
544.341	34.29
544.539	34.28
544.736	34.32
544.933	34.54
545.13	34.56
545.327	34.64
545.524	34.65
545.722	34.69
545.919	34.59
546.116	34.67
546.313	34.53
546.51	34.54
546.707	34.46
546.904	34.48
547.101	34.38
547.298	34.25
547.495	34.32
547.692	34.34
547.889	34.35
548.086	34.44
548.283	34.36
548.48	34.33
548.677	34.23
548.874	34.29
549.07	34.27
549.267	34.2
549.464	34.38
549.661	34.36
549.858	34.27
550.055	34.13
550.251	34.1
550.448	34.06
550.645	34.24
550.842	34.3
551.038	34.12
551.235	34.1
551.432	34.09
551.628	33.97
551.825	33.92
552.022	34.1
552.218	34.13
552.415	34.15
552.612	34.08
552.808	33.94
553.005	33.83
553.201	34.03
553.398	33.95
553.594	34.03
553.791	33.98
553.987	33.84
554.184	33.67
554.38	33.71
554.577	33.62
554.773	33.66
554.97	33.65
555.166	33.77
555.362	33.83
555.559	33.86
555.755	33.7
555.952	33.69
556.148	33.75
556.344	33.79
556.541	33.87
556.737	34
556.933	34.09
557.129	34.14
557.326	34
557.522	33.88
557.718	34
557.914	33.97
558.11	33.94
558.307	33.81
558.503	33.77
558.699	33.66
558.895	33.57
559.091	33.32
559.287	33.2
559.483	33.2
559.679	33.26
559.876	33.08
560.072	32.98
560.268	33.08
560.464	33.21
560.66	33.06
560.856	33.03
561.052	33.22
561.247	33.5
561.443	33.59
561.639	33.86
561.835	33.83
562.031	33.85
562.227	34.07
562.423	34.31
562.619	34.31
562.815	34.65
563.01	34.66
563.206	34.4
563.402	34.38
563.598	34.48
563.793	34.33
563.989	34.12
564.185	34.21
564.381	34.22
564.576	34.04
564.772	34.02
564.968	33.89
565.163	33.88
565.359	33.95
565.555	33.78
565.75	33.6
565.946	33.52
566.141	33.65
566.337	33.66
566.532	33.52
566.728	33.5
566.923	33.58
567.119	33.63
567.314	33.83
567.51	33.7
567.705	33.69
567.901	33.88
568.096	34.02
568.292	34.02
568.487	33.95
568.682	34
568.878	34.02
569.073	33.95
569.268	33.78
569.464	33.37
569.659	33.57
569.854	33.54
570.05	33.56
570.245	33.44
570.44	33.52
570.635	33.68
570.831	33.82
571.026	33.72
571.221	33.74
571.416	33.77
571.611	33.99
571.806	34
572.002	34.05
572.197	33.81
572.392	33.88
572.587	33.96
572.782	33.95
572.977	33.93
573.172	33.96
573.367	33.9
573.562	33.89
573.757	33.81
573.952	33.61
574.147	33.74
574.342	33.82
574.537	33.68
574.732	33.42
574.927	33.45
575.121	33.38
575.316	33.51
575.511	33.53
575.706	33.58
575.901	33.63
576.096	33.76
576.29	33.64
576.485	33.63
576.68	33.85
576.875	34.17
577.069	34.06
577.264	34.05
577.459	33.9
577.654	33.84
577.848	33.95
578.043	34.16
578.238	34.08
578.432	34.03
578.627	34.05
578.821	34.03
579.016	33.82
579.21	33.67
579.405	33.56
579.6	33.59
579.794	33.88
579.989	34.01
580.183	33.83
580.378	34.13
580.572	34.21
580.766	34.52
580.961	34.31
581.155	34.39
581.35	34.5
581.544	34.58
581.738	34.89
581.933	34.94
582.127	34.64
582.321	34.64
582.516	34.4
582.71	34.46
582.904	34.3
583.099	34.52
583.293	34.45
583.487	34.56
583.681	34.63
583.875	34.58
584.07	34.34
584.264	34.47
584.458	34.35
584.652	34.41
584.846	34.34
585.04	34.27
585.234	34.15
585.428	34.03
585.623	33.84
585.817	33.86
586.011	33.76
586.205	33.88
586.399	33.91
586.593	34.12
586.787	34.23
586.981	34.27
587.174	34.38
587.368	34.34
587.562	34.57
587.756	34.82
587.95	35.1
588.144	35.02
588.338	34.94
588.532	35.12
588.725	34.96
588.919	35.01
589.113	35
589.307	34.72
589.501	34.69
589.694	34.83
589.888	34.63
590.082	34.45
590.275	34.37
590.469	34.34
590.663	34.02
590.856	34.1
591.05	33.93
591.244	34.01
591.437	34.01
591.631	34.26
591.824	34.08
592.018	34.14
592.212	34.03
592.405	34.24
592.599	34.23
592.792	34.53
592.986	34.59
593.179	34.78
593.372	34.61
593.566	34.83
593.759	34.67
593.953	34.38
594.146	34.45
594.339	34.4
594.533	34.27
594.726	34.35
594.92	33.94
595.113	33.98
595.306	33.85
595.499	34.11
595.693	34.08
595.886	33.93
596.079	34.22
596.272	34.17
596.466	34.09
596.659	34.06
596.852	33.91
597.045	34.21
597.238	34.25
597.431	34.12
597.624	33.96
597.818	34.04
598.011	34.32
598.204	34.2
598.397	34.07
598.59	34.23
598.783	34.31
598.976	34.44
599.169	34.33
599.362	34.06
599.555	34.23
599.748	34.25
599.941	34.11
600.134	33.96
600.326	34.11
600.519	34.24
600.712	34.12
600.905	33.79
601.098	33.87
601.291	33.92
601.483	33.86
601.676	33.82
601.869	33.89
602.062	34.27
602.255	34.47
602.447	34.42
602.64	34.63
602.833	34.37
603.025	34.5
603.218	34.52
603.411	34.48
603.603	34.68
603.796	34.66
603.989	34.61
604.181	34.43
604.374	34.28
604.566	34.27
604.759	34.01
604.951	34.3
605.144	34.4
605.336	34.27
605.529	34.17
605.721	34.12
605.914	34.27
606.106	34.19
606.299	34.06
606.491	34.05
606.683	34.07
606.876	34.23
607.068	34.4
607.26	34.27
607.453	34.33
607.645	34.55
607.837	34.63
608.03	34.54
608.222	34.73
608.414	34.88
608.606	35.13
608.799	35.2
608.991	35.2
609.183	35.22
609.375	35.66
609.567	35.94
609.759	36.21
609.952	36.3
610.144	36.79
610.336	36.85
610.528	37.01
610.72	37.11
610.912	37.28
611.104	37.55
611.296	37.48
611.488	37.46
611.68	37.37
611.872	37.41
612.064	37.54
612.256	37.39
612.448	37.35
612.64	37.29
612.832	37.14
613.023	36.94
613.215	36.53
613.407	36.67
613.599	36.38
613.791	36.24
613.983	35.84
614.174	35.64
614.366	35.24
614.558	35.03
614.75	34.76
614.941	34.73
615.133	34.73
615.325	35.08
615.516	35
615.708	35.15
615.9	35.17
616.091	35.26
616.283	35.76
616.475	35.54
616.666	36.06
616.858	36.33
617.049	36.18
617.241	36.26
617.432	36.28
617.624	36.07
617.815	35.79
618.007	35.54
618.198	35.47
618.39	34.68
618.581	34.88
618.773	34.58
618.964	34.29
619.155	34.27
619.347	34
619.538	33.9
619.729	34.06
619.921	34.04
620.112	34.38
620.303	34.23
620.494	34.71
620.686	34.75
620.877	34.95
621.068	35.05
621.259	35.31
621.451	35.44
621.642	35.41
621.833	35.28
622.024	35.41
622.215	35.45
622.406	35.66
622.597	35.45
622.788	35.11
622.98	34.82
623.171	34.86
623.362	34.41
623.553	34.3
623.744	34.36
623.935	34.37
624.126	34.25
624.317	34.15
624.508	34.23
624.698	34.09
624.889	34.16
625.08	34.2
625.271	34.38
625.462	34.77
625.653	34.9
625.844	34.72
626.034	34.98
626.225	34.79
626.416	34.59
626.607	34.47
626.798	34.35
626.988	34.47
627.179	34.46
627.37	34.34
627.56	34.3
627.751	34.29
627.942	34.31
628.132	34.01
628.323	34.27
628.514	34.36
628.704	34.43
628.895	34.62
629.085	34.84
629.276	35.07
629.466	35.14
629.657	35.05
629.847	34.99
630.038	35.24
630.228	35.2
630.419	35.24
630.609	35.31
630.8	35.05
630.99	35.35
631.181	35.02
631.371	34.76
631.561	34.91
631.752	35.06
631.942	35.18
632.132	34.87
632.323	35.15
632.513	35.31
632.703	35.33
632.893	35.45
633.084	35.12
633.274	35.24
633.464	35.23
633.654	34.79
633.844	34.66
634.034	34.64
634.225	34.46
634.415	34.3
634.605	34.06
634.795	33.99
634.985	33.85
635.175	33.86
635.365	33.99
635.555	33.85
635.745	34.01
635.935	33.96
636.125	33.94
636.315	34.29
636.505	34.39
636.695	34.48
636.885	34.58
637.075	34.8
637.265	34.72
637.455	34.71
637.644	35.08
637.834	35.03
638.024	35.34
638.214	35.16
638.404	34.95
638.593	34.69
638.783	34.63
638.973	34.69
639.163	34.64
639.352	34.81
639.542	34.27
639.732	34.29
639.921	34.52
640.111	34.04
640.301	34.03
640.49	33.95
640.68	33.93
640.87	34.05
641.059	33.78
641.249	33.52
641.438	33.13
641.628	34.15
641.817	33.82
642.007	33.8
642.196	34.04
642.386	34.11
642.575	34.34
642.764	34.1
642.954	33.87
643.143	34.27
643.333	34.39
643.522	34.79
643.711	34.2
643.901	34.25
644.09	34.07
644.279	34.13
644.469	34.09
644.658	34.38
644.847	34.54
645.036	34.61
645.226	34.09
645.415	34.12
645.604	33.89
645.793	33.83
645.982	33.55
646.171	33.76
646.361	33.68
646.55	33.55
646.739	33.57
646.928	33.74
647.117	33.65
647.306	34.01
647.495	34.45
647.684	34.95
647.873	34.84
648.062	35.12
648.251	35.07
648.44	35.09
648.629	35.37
648.818	35.24
649.007	35.43
649.196	35.73
649.384	35.33
649.573	34.97
649.762	34.55
649.951	34.68
650.14	34.75
650.328	34.77
650.517	34.68
650.706	34.45
650.895	33.89
651.083	33.79
651.272	33.14
651.461	33.64
651.65	33.68
651.838	33.74
652.027	33.63
652.216	33.55
652.404	33.68
652.593	34.13
652.781	34.17
652.97	34.53
653.158	34.48
653.347	35.1
653.535	34.93
653.724	35.07
653.912	34.75
654.101	34.51
654.289	34.44
654.478	33.98
654.666	33.47
654.855	33.54
655.043	33.09
655.231	33.38
655.42	33.12
655.608	33.18
655.796	32.77
655.985	33.32
656.173	33.35
656.361	33.26
656.55	33.32
656.738	33.21
656.926	33.27
657.114	33.54
657.302	33.52
657.491	33.54
657.679	33.72
657.867	34.07
658.055	33.9
658.243	33.72
658.431	34.07
658.619	34.31
658.807	34.63
658.996	34.34
659.184	34.75
659.372	34.57
659.56	34.42
659.748	34.04
659.936	33.93
660.124	33.89
660.311	34.43
660.499	34.39
660.687	34.39
660.875	34.62
661.063	35.08
661.251	34.83
661.439	34.94
661.627	35.53
661.814	35.92
662.002	36.02
662.19	36.13
662.378	35.47
662.565	35.06
662.753	34.78
662.941	34.39
663.129	34.35
663.316	34.53
663.504	34.43
663.692	33.97
663.879	33.52
664.067	33.43
664.254	33.07
664.442	33.61
664.63	33.59
664.817	33.64
665.005	33.52
665.192	33.25
665.38	33.3
665.567	33.23
665.755	33.34
665.942	33.43
666.13	33.53
666.317	33.88
666.504	33.85
666.692	34.3
666.879	34.31
667.067	34.21
667.254	33.71
667.441	33.85
667.629	34.1
667.816	34.06
668.003	34.29
668.19	34.47
668.378	34.43
668.565	34.33
668.752	34.48
668.939	34.71
669.127	35.41
669.314	35.65
669.501	35.23
669.688	35.1
669.875	34.86
670.062	34.94
670.249	34.73
670.436	34.79
670.623	34.82
670.81	34.64
670.997	34.08
671.184	33.54
671.371	34.31
671.558	34.49
671.745	34.71
671.932	34.82
672.119	34.9
672.306	35.03
672.493	34.5
672.68	34.43
672.867	34.1
673.054	34.22
673.24	34.03
673.427	33.63
673.614	34.05
673.801	34.1
673.988	34.63
674.174	34.61
674.361	34.99
674.548	35.25
674.734	35.69
674.921	35.93
675.108	36.49
675.294	36.44
675.481	36.43
675.668	35.75
675.854	35.81
676.041	35.81
676.227	35.78
676.414	35.86
676.601	36.08
676.787	36.07
676.974	35.6
677.16	35.74
677.347	36.57
677.533	36.4
677.719	36.65
677.906	36.63
678.092	35.89
678.279	35.79
678.465	35.33
678.651	35.27
678.838	35.2
679.024	35.35
679.21	35.27
679.397	34.38
679.583	34.48
679.769	34.38
679.955	33.96
680.142	34.18
680.328	33.83
680.514	33.59
680.7	33.49
680.886	33.61
681.073	33.56
681.259	33.02
681.445	33.31
681.631	32.94
681.817	32.89
682.003	32.75
682.189	32.72
682.375	33.23
682.561	33.35
682.747	33.54
682.933	33.28
683.119	33.48
683.305	33.71
683.491	33.42
683.677	33.7
683.863	33.19
684.049	33.58
684.235	33.45
684.42	33.48
684.606	33.49
684.792	33.32
684.978	33.34
685.164	33.75
685.349	33.2
685.535	33.39
685.721	33.6
685.907	34.38
686.092	34.23
686.278	34.83
686.464	34.37
686.649	34.3
686.835	34.71
687.021	34.5
687.206	34.55
687.392	35.26
687.577	35.49
687.763	35.12
687.948	34.7
688.134	34.62
688.319	34.11
688.505	34.1
688.69	34.46
688.876	33.89
689.061	33.61
689.247	32.83
689.432	32.71
689.618	32.61
689.803	32.6
689.988	32.33
690.174	32.55
690.359	32.71
690.544	32.74
690.73	32.03
690.915	32.21
691.1	31.94
691.285	32.57
691.471	32.8
691.656	32.22
691.841	32.44
692.026	32.83
692.211	33.38
692.396	33.73
692.582	34.09
692.767	34.81
692.952	34.81
693.137	35.65
693.322	35.45
693.507	35.19
693.692	35.82
693.877	35.59
694.062	35.88
694.247	35.17
694.432	34.58
694.617	33.98
694.802	33.88
694.987	33.92
695.172	33.73
695.357	33.42
695.541	33.17
695.726	33.71
695.911	34.14
696.096	33.62
696.281	33.43
696.466	33.44
696.65	33.54
696.835	32.96
697.02	33.08
697.204	32.58
697.389	32.75
697.574	33.15
697.759	32.74
697.943	32.55
698.128	32.63
698.312	33.01
698.497	33.11
698.682	32.76
698.866	33.19
699.051	33.45
699.235	33.92
699.42	33.54
699.604	33.47
699.789	33.27
699.973	33.57
700.158	33.62
700.342	33.14
700.527	33.18
700.711	33.54
700.895	33.3
701.08	32.86
701.264	32.97
701.448	32.92
701.633	33.34
701.817	33.05
702.001	32.15
702.186	32.22
702.37	32.36
702.554	31.97
702.738	32.2
702.923	32.23
703.107	32.15
703.291	31.63
703.475	32.38
703.659	31.88
703.843	32.32
704.027	32.55
704.212	31.88
704.396	32.29
704.58	32.92
704.764	32.98
704.948	33.49
705.132	33.1
705.316	33.29
705.5	33.14
705.684	33.13
705.868	33.59
706.052	33.49
706.235	32.91
706.419	32.91
706.603	32.76
706.787	32.87
706.971	32.89
707.155	33.34
707.339	32.93
707.522	33.98
707.706	34.47
707.89	33.51
708.074	34.39
708.257	35.13
708.441	34.73
708.625	34.14
708.808	34.18
708.992	34.12
709.176	34.33
709.359	34.6
709.543	33.71
709.727	33.14
709.91	33.68
710.094	33.89
710.277	34.66
710.461	34.95
710.644	35.51
710.828	34.84
711.011	34.51
711.195	33.73
711.378	33.28
711.562	33.01
711.745	32.95
711.928	33.21
712.112	32.96
712.295	32.53
712.478	32.48
712.662	32.56
712.845	33.25
713.028	33.2
713.212	33.5
713.395	33.92
713.578	34.37
713.761	34.1
713.945	34.01
714.128	33.43
714.311	33.61
714.494	33.5
714.677	33.39
714.86	33.33
715.043	33.77
715.227	33.31
715.41	33.4
715.593	32.9
715.776	33
715.959	33.43
716.142	33.67
716.325	33.55
716.508	33.44
716.691	32.92
716.874	33.12
717.057	32.14
717.239	33.31
717.422	33.34
717.605	33.32
717.788	33.58
717.971	33.47
718.154	33.94
718.337	33.73
718.519	34.28
718.702	34.77
718.885	34.25
719.068	33.74
719.25	33.21
719.433	32.46
719.616	33.46
719.798	33.01
719.981	32.38
720.164	31.95
720.346	32.05
720.529	31.36
720.712	31.46
720.894	31.76
721.077	32.83
721.259	32.39
721.442	33.14
721.624	33.04
721.807	33.33
721.989	33.37
722.172	33.43
722.354	34.44
722.537	34.14
722.719	33.52
722.901	33.21
723.084	32.76
723.266	33.65
723.448	33.05
723.631	32.75
723.813	33.4
723.995	32.58
724.178	31.57
724.36	31.53
724.542	31.81
724.724	32.41
724.907	33.11
725.089	34.75
725.271	34.12
725.453	34.26
725.635	33.53
725.817	31.86
725.999	32.57
726.181	33.35
726.364	32.83
726.546	32.55
726.728	32.74
726.91	32.87
727.092	32.14
727.274	31.88
727.456	32.8
727.638	33.3
727.819	34.94
728.001	35.11
728.183	35.12
728.365	35.65
728.547	36.05
728.729	35.98
728.911	35.41
729.093	35.27
729.274	35.56
729.456	35.3
729.638	35.73
729.82	35.06
730.001	34.86
730.183	34.41
730.365	33.58
730.546	33.91
730.728	33.28
730.91	33.78
731.091	33.84
731.273	34.37
731.455	34.05
731.636	33.8
731.818	32.99
731.999	33.01
732.181	32.94
732.362	33
732.544	33.39
732.725	33.55
732.907	33.5
733.088	33.01
733.27	32.58
733.451	33.19
733.633	33.33
733.814	33.5
733.995	33.69
734.177	35.01
734.358	34.55
734.539	33.33
734.721	32.6
734.902	32.84
735.083	33.26
735.264	33.55
735.446	32.94
735.627	31.77
735.808	32.57
735.989	32.07
736.17	31.56
736.351	32.65
736.533	32.24
736.714	33.73
736.895	33.08
737.076	32.29
737.257	31.13
737.438	30.72
737.619	31.76
737.8	32.06
737.981	31.87
738.162	31.24
738.343	31.06
738.524	32
738.705	31.34
738.886	31.52
739.067	32.45
739.247	33.28
739.428	33.35
739.609	33.31
739.79	32.28
739.971	32.16
740.151	31.86
740.332	30.64
740.513	29.92
740.694	30.92
740.874	30.17
741.055	29.78
741.236	28.47
741.417	28.52
741.597	26.92
741.778	27.78
741.958	29.36
742.139	29.22
742.32	31.02
742.5	31.82
742.681	31.21
742.861	31.31
743.042	31.2
743.222	33.54
743.403	33.88
743.583	35.29
743.764	35.7
743.944	35.05
744.124	36.03
744.305	35.49
744.485	35.28
744.666	35.69
744.846	36.2
745.026	35.57
745.207	33.58
745.387	34.46
745.567	35.01
745.747	35.23
745.928	34.79
746.108	34.22
746.288	33.87
746.468	33.28
746.648	30.84
746.829	31.25
747.009	32.32
747.189	33.39
747.369	32.06
747.549	31.36
747.729	30.15
747.909	30.94
748.089	30.91
748.269	31.09
748.449	31.48
748.629	32.4
748.809	31.98
748.989	31.85
749.169	32.2
749.349	32.55
749.529	32.14
749.709	31.96
749.889	31.18
750.068	31.69
750.248	31.73
750.428	32.36
750.608	32.26
750.788	31.47
750.967	31.26
751.147	30.45
751.327	31.27
751.507	32.98
751.686	35.08
751.866	35.12
752.046	35
752.225	35.52
752.405	35.63
752.585	36.76
752.764	37.43
752.944	37.81
753.123	37.52
753.303	37
753.482	36.43
753.662	35
753.841	34.43
754.021	35.25
754.2	35.12
754.38	35.44
754.559	33.93
754.739	34.06
754.918	34.91
755.097	35.23
755.277	34.9
755.456	33.95
755.635	34.7
755.815	35.15
755.994	33.22
756.173	33.1
756.352	31.41
756.532	32.51
756.711	32.55
756.89	31.74
757.069	32.42
757.248	31.54
757.427	32.07
757.607	30.41
757.786	29.83
757.965	31.78
758.144	31.09
758.323	32.7
758.502	31.97
758.681	32.18
758.86	32.44
759.039	31.4
759.218	30.93
759.397	30.52
759.576	31.63
759.755	31.89
759.934	31.32
760.113	31.76
760.291	30.11
760.47	31.82
760.649	31.58
760.828	31.85
761.007	33.48
761.186	33.78
761.364	33.27
761.543	32.34
761.722	33.34
761.901	33.31
762.079	33.06
762.258	32.78
762.437	32
762.615	32.48
762.794	31.31
762.972	31.24
763.151	32.12
763.33	32.44
763.508	32.63
763.687	32.34
763.865	31.97
764.044	31.83
764.222	33.18
764.401	32.44
764.579	31.87
764.758	32.4
764.936	32.52
765.114	33.5
765.293	33.24
765.471	33.68
765.65	32.63
765.828	33.11
766.006	33.08
766.184	32.69
766.363	33.33
766.541	33.52
766.719	33
766.898	32.46
767.076	32.12
767.254	33.56
767.432	34.35
767.61	34.86
767.788	34.43
767.967	34.61
768.145	33.88
768.323	34.14
768.501	34.66
768.679	33.43
768.857	33.53
769.035	33.29
769.213	32.11
769.391	30.4
769.569	31.2
769.747	31.51
769.925	30.88
770.103	31.05
770.281	31.63
770.459	30.62
770.636	30.93
770.814	31.14
770.992	30.89
771.17	30.74
771.348	31.19
771.525	31.61
771.703	31.66
771.881	32.42
772.059	32.04
772.236	30.13
772.414	29.29
772.592	31.36
772.769	31.01
772.947	33.04
773.125	34.43
773.302	33.76
773.48	33.86
773.657	34.36
773.835	34.93
774.013	37.15
774.19	37.92
774.368	38.97
774.545	36.49
774.723	38.52
774.9	35.96
775.077	32.95
775.255	32.71
775.432	32.26
775.61	29.72
775.787	29.35
775.964	28.11
776.142	27.65
776.319	27.9
776.496	30.68
776.674	26.99
776.851	26.26
777.028	26.13
777.205	27.3
777.382	27.13
777.56	27.97
777.737	25.98
777.914	24.05
778.091	24.42
778.268	24.32
778.445	22.69
778.622	22.98
778.8	23.37
778.977	25.25
779.154	25.42
779.331	25.19
779.508	25.93
779.685	27.76
779.862	31.99
780.038	34.16
780.215	33.76
780.392	34.11
780.569	33.51
780.746	31.45
780.923	32.22
781.1	29.74
781.277	31.88
781.453	32.18
781.63	33.15
781.807	30.59
781.984	27.85
782.16	28.57
782.337	28.97
782.514	30.34
782.691	32.22
782.867	31.35
783.044	33.43
783.221	31.49
783.397	32.85
783.574	33.3
783.75	32.24
783.927	32.39
784.103	32.57
784.28	34.93
784.456	34.76
784.633	34.84
784.809	34.63
784.986	35.48
785.162	37.47
785.339	34.64
785.515	31.92
785.692	35.77
785.868	38.4
786.044	37.49
786.221	34.93
786.397	34.49
786.573	32.66
786.749	31.46
786.926	30.93
787.102	30.11
787.278	28.59
787.454	27.58
787.631	23.43
787.807	22.79
787.983	22.62
788.159	21.64
788.335	20.73
788.511	21.23
788.687	22.26
788.863	22.47
789.039	24.8
789.216	27.55
789.392	29.44
789.568	30.85
789.744	31.62
789.919	31.76
790.095	30.55
790.271	32.23
790.447	33.95
790.623	33.24
790.799	30.41
790.975	27.47
791.151	26.73
791.327	29.08
791.502	27.92
791.678	27.15
791.854	25.97
792.03	27.05
792.205	25.15
792.381	27.36
792.557	29.2
792.733	34.32
792.908	32.51
793.084	34.31
793.259	30.39
793.435	33.11
793.611	31.21
793.786	33.34
793.962	35.56
794.137	36.29
794.313	31.34
794.488	31.94
794.664	28.98
794.839	28.52
795.015	28.15
795.19	31.07
795.366	28.02
795.541	28.39
795.716	26.79
795.892	26.03
796.067	26.4
796.242	29.87
796.418	28.35
796.593	29.53
796.768	32.43
796.944	31.07
797.119	26.62
797.294	27.54
797.469	28.14
797.644	28.22
797.82	31.16
797.995	31.42
798.17	27.57
798.345	28.74
798.52	28.05
798.695	24.73
798.87	23.78
799.045	28.33
799.22	29.61
799.395	29.33
799.57	29.58
799.745	24.9
799.92	22.7
800.095	24.16
800.27	23.69
800.445	23.92
800.62	27.02
800.795	25.94
800.97	24.39
801.145	22.54
801.319	24.97
801.494	24.78
801.669	23.22
801.844	22.81
802.018	24.1
802.193	23.11
802.368	19.96
802.543	16.14
802.717	21.81
802.892	23.71
803.067	21.63
803.241	17.19
803.416	15.64
803.59	18.6
803.765	21.33
803.94	23.43
804.114	24.89
804.289	28.8
804.463	30.62
804.638	26.03
804.812	23.49
804.986	26.21
805.161	30.61
805.335	32.92
805.51	32.06
805.684	30
805.858	28.62
806.033	27.33
806.207	24
806.381	27.32
806.556	27.23
806.73	27.14
806.904	30.88
807.078	27.03
807.253	24.31
807.427	22.95
807.601	23.35
807.775	22.63
807.949	27.09
808.123	25.48
808.298	21
808.472	26.85
808.646	26.22
808.82	20.36
808.994	24.25
809.168	31.55
809.342	32.81
809.516	36.48
809.69	37.87
809.864	33.7
810.038	37.09
810.212	36.99
810.385	31.85
810.559	30.76
810.733	27.97
810.907	22.59
811.081	16.56
811.255	17.25
811.428	11.57
811.602	9.31
811.776	11.14
811.95	16.28
812.123	18.58
812.297	21.87
812.471	24.53
812.644	31.78
812.818	34.53
812.992	33.47
813.165	34.56
813.339	41.45
813.512	39.67
813.686	39.34
813.86	38.73
814.033	38.56
814.207	35.81
814.38	38.27
814.554	35.65
814.727	33.79
814.9	39.95
815.074	40.86
815.247	35.83
815.421	37.56
815.594	43.06
815.767	41.88
815.941	40.33
816.114	42.34
816.287	39.52
816.46	37.81
816.634	43.22
816.807	35.44
816.98	30.13
817.153	28.11
817.327	27.65
817.5	21.21
817.673	20.71
817.846	23.32
818.019	22.3
818.192	23.42
818.365	24.55
818.538	24.29
818.711	26.22
818.884	29.4
819.057	30.19
819.23	31.75
819.403	33.34
819.576	31.17
819.749	31.41
819.922	29.22
820.095	31.9
820.268	32.8
820.441	31.28
820.614	32.9
820.786	33.41
820.959	34.7
821.132	34.67
821.305	33.9
821.477	35.33
821.65	34.74
821.823	35.26
821.996	33.98
822.168	32.85
822.341	33.04
822.514	33.27
822.686	32.34
822.859	32.65
823.031	32.16
823.204	31.5
823.376	31.48
823.549	31.04
823.722	30.89
823.894	30.14
824.067	30.17
824.239	29.44
824.411	28.98
824.584	30.06
824.756	29.63
824.929	29.71
825.101	30.6
825.273	30.65
825.446	30.35
825.618	30.45
825.79	31.96
825.963	34.45
826.135	35.36
826.307	35.04
826.479	34.25
826.652	33.42
826.824	34.27
826.996	35.29
827.168	35.33
827.34	35.62
827.512	35.77
827.684	35.87
827.856	33.98
828.029	34.58
828.201	35.05
828.373	37.02
828.545	36.47
828.717	34.91
828.889	34.21
829.061	34.27
829.232	35.37
829.404	34.95
829.576	34.85
829.748	35.62
829.92	35.12
830.092	33.48
830.264	31.52
830.436	33.54
830.607	35.65
830.779	34.53
830.951	33.75
831.123	33.05
831.294	38.22
831.466	35.8
831.638	38.7
831.809	40.16
831.981	39.1
832.153	38.95
832.324	35.29
832.496	35.78
832.667	35.08
832.839	33.36
833.011	32.45
833.182	31.69
833.354	30.85
833.525	28.46
833.697	26.3
833.868	29.23
834.039	28.29
834.211	29.35
834.382	26.26
834.554	27.64
834.725	29.49
834.896	30.31
835.068	27.8
835.239	30.79
835.41	29.08
835.581	30.95
835.753	28.98
835.924	30.78
836.095	31.87
836.266	35.31
836.438	36.86
836.609	33.7
836.78	35.88
836.951	37.19
837.122	34.73
837.293	37.03
837.464	36
837.635	39.34
837.806	36.32
837.977	34.91
838.148	30.49
838.319	28.81
838.49	31.39
838.661	24.36
838.832	21.96
839.003	22.63
839.174	17.91
839.345	9.68
839.516	12.9
839.687	13.23
839.857	15.66
840.028	20.76
840.199	20.49
840.37	24.67
840.54	28.02
840.711	26.34
840.882	27.11
841.053	28.63
841.223	34.15
841.394	32.28
841.564	29.88
841.735	29.04
841.906	27.76
842.076	21.54
842.247	19.12
842.417	15.91
842.588	15.24
842.758	14.04
842.929	13
843.099	14.46
843.27	14.68
843.44	18.43
843.611	12.78
843.781	4.21
843.951	9.71
844.122	18.23
844.292	18.01
844.462	28.02
844.633	23.76
844.803	31.87
844.973	33.98
845.144	36.1
845.314	43.75
845.484	54.91
845.654	61.48
845.824	58.93
845.995	45.41
846.165	43.74
846.335	27.06
846.505	35.84
846.675	35.84
846.845	32.11
847.015	32.17
847.185	30.43
847.355	37.89
847.525	39.81
847.695	36.24
847.865	36.09
848.035	35.81
848.205	33.28
848.375	22.03
848.545	13.6
848.715	8.59
848.884	13.51
849.054	8.19
849.224	-3.56
849.394	-14.42
849.564	3.91
849.733	-10.92
849.903	-4.73
850.073	35.93
850.243	49.92
850.412	58.12
850.582	60.38
850.752	53.73
850.921	55.94
851.091	50.14
851.26	47.78
851.43	35.51
851.599	42.23
851.769	51.55
851.939	38.64
852.108	40.73
852.278	39.44
852.447	53.58
852.616	39.27
852.786	49.1
852.955	53.83
853.125	54.59
853.294	66.1
853.463	54.57
853.633	52.12
853.802	53.2
853.971	50.73
854.141	49.1
854.31	40.2
854.479	33.83
854.648	23.96
854.818	24.28
854.987	6.81
855.156	9.52
855.325	24.54
855.494	26.88
855.663	28.12
855.832	33.32
856.001	29.37
856.171	36.79
856.34	55.67
856.509	55.86
856.678	53.73
856.847	55.8
857.016	53.68
857.185	65.48
857.353	63.85
857.522	69.4
857.691	55.9
857.86	51.06
858.029	56.32
858.198	49.66
858.367	53.2
858.535	56.22
858.704	51.65
858.873	57.36
859.042	51.27
859.21	59.78
859.379	61.09
859.548	78.89
859.717	96.06
859.885	81.92
860.054	76.81
860.222	80.16
860.391	83.21
860.56	86.7
860.728	71.35
860.897	71.93
861.065	47.72
861.234	44.64
861.402	38.4
861.571	28.59
861.739	23.53
861.908	11.38
862.076	-1.64
862.244	-7.52
862.413	3.88
862.581	9.75
862.749	14.8
862.918	29.25
863.086	17.19
863.254	23.31
863.423	32.1
863.591	31.2
863.759	40.37
863.927	59.07
864.096	48.15
864.264	41.37
864.432	31.2
864.6	42.83
864.768	41.32
864.936	52.7
865.104	50.76
865.272	21.87
865.44	5.2
865.608	9.08
865.776	0.62
865.944	-16.48
866.112	-31.93
866.28	1.74
866.448	-11.57
866.616	-44.34
866.784	-22.93
866.952	-27.13
867.12	-19.11
867.288	-4.32
867.455	12.94
867.623	33.71
867.791	42.61
867.959	55.48
868.127	42.9
868.294	24.74
868.462	7.87
868.63	25.47
868.797	26.8
868.965	24.68
869.133	51.78
869.3	58.22
869.468	30.27
869.636	49.1
869.803	51.89
869.971	78.55
870.138	84.14
870.306	84.24
870.473	62.89
870.641	69.49
870.808	76.18
870.975	68.74
871.143	62.88
871.31	61.04
871.478	51.25
871.645	35.04
871.812	22.53
871.98	23.63
872.147	3.48
872.314	-3.87
872.482	-30.9
872.649	-35.23
872.816	-45.85
872.983	-39.86
873.15	-72.75
873.318	-123.8
873.485	-108.28
873.652	-140.16
873.819	-65.15
873.986	-19.37
874.153	-12.55
874.32	1.85
874.487	-0.59
874.654	19.51
874.821	37.04
874.988	30.9
875.155	14.22
875.322	13.36
875.489	4.34
875.656	-21.16
875.823	-97.97
875.99	-56.28
876.157	-11.96
876.324	11.2
876.49	9.15
876.657	7.15
876.824	10.18
876.991	16.89
877.157	29.96
877.324	32.45
877.491	32.6
877.658	44.28
877.824	38.38
877.991	46.03
878.157	61.74
878.324	70.07
878.491	81.32
878.657	73.82
878.824	59.68
878.99	43.06
879.157	39.42
879.323	48.49
879.49	36.17
879.656	59.98
879.823	41.93
879.989	27.85
880.156	23.13
880.322	24.92
880.488	33.35
880.655	46.05
880.821	38.35
880.987	20.86
881.154	25.39
881.32	33.13
881.486	26.27
881.652	24.96
881.819	28.97
881.985	27.33
882.151	29.37
882.317	30.69
882.483	29.15
882.649	23.12
882.816	30.8
882.982	23.46
883.148	23.11
883.314	22.8
883.48	22.08
883.646	19.57
883.812	18.6
883.978	17.4
884.144	15.65
884.31	17.38
884.476	22.99
884.642	24.08
884.807	29.1
884.973	27.87
885.139	28.43
885.305	25.92
885.471	29.95
885.637	31.61
885.802	33.17
885.968	33.84
886.134	34.83
886.3	36.87
886.465	30.81
886.631	28.69
886.797	34.53
886.962	39.66
887.128	44.27
887.293	43.16
887.459	55.33
887.625	50.68
887.79	51.26
887.956	46.89
888.121	43.07
888.287	55.07
888.452	58.85
888.618	50.27
888.783	39.13
