Data from 2938115_Reflection_3.txt Node
Date: Sat Jul 11 18:14:08 EDT 2015
User: robert
Spectrometer: USB4E03001
Autoset integration time: false
Trigger mode: 4
Integration Time (sec): 1.000000E-1
Scans to average: 10
Electric dark correction enabled: true
Nonlinearity correction enabled: false
Boxcar width: 5
Stray light correction enabled: false
XAxis mode: Wavelengths
Stop averaging: false
Number of Pixels in Spectrum: 3648
>>>>>Begin Spectral Data<<<<<
177.566	92.5
177.785	174.3
178.005	-457.8
178.225	-143.63
178.445	-181.7
178.665	4577.42
178.885	362.17
179.105	84.96
179.324	108.82
179.544	97.63
179.764	45.36
179.984	842.56
180.204	-206.65
180.423	-11.66
180.643	11.53
180.863	1.09
181.083	-16.48
181.302	-24.54
181.522	-49.51
181.742	-92.97
181.961	-1625.36
182.181	568.79
182.401	496.63
182.621	309.86
182.84	280.59
183.06	426.09
183.279	319.2
183.499	298.35
183.719	209.65
183.938	305.89
184.158	434.91
184.377	244.27
184.597	336.71
184.816	203.99
185.036	215.42
185.256	277
185.475	141.91
185.695	121.29
185.914	79.56
186.134	155.05
186.353	79.06
186.572	9.97
186.792	-84.33
187.011	-100.32
187.231	-88.19
187.45	-22.18
187.67	-66.17
187.889	-7.16
188.108	-119.99
188.328	-163.78
188.547	-183.21
188.766	-168.19
188.986	1403.89
189.205	358.46
189.424	245.2
189.644	142.66
189.863	219.12
190.082	327.64
190.302	317.41
190.521	284.55
190.74	205.79
190.959	551.33
191.178	16952.38
191.398	3229.26
191.617	-255.27
191.836	-334.55
192.055	-322.76
192.274	-552.61
192.494	415.43
192.713	496.37
192.932	578.39
193.151	15900
193.37	-196780
193.589	410.76
193.808	376.38
194.027	198.27
194.246	191.86
194.465	133.45
194.685	213.63
194.904	271.45
195.123	334.86
195.342	159.82
195.561	102.55
195.78	69.17
195.999	92.74
196.218	57.77
196.436	27.6
196.655	36.33
196.874	77.68
197.093	75.75
197.312	86.05
197.531	53.39
197.75	32.61
197.969	67.22
198.188	77
198.407	102.5
198.625	132.96
198.844	229.87
199.063	235.63
199.282	-2252.29
199.501	494.58
199.719	6319.18
199.938	-1329.33
200.157	-456.6
200.376	282.45
200.594	608.25
200.813	878.6
201.032	201.7
201.251	238.36
201.469	207.23
201.688	149.03
201.907	170.26
202.125	123.25
202.344	112.83
202.563	137.59
202.781	197.68
203	181.21
203.218	204.23
203.437	190.63
203.656	479.24
203.874	484.24
204.093	368.46
204.311	255.08
204.53	223.53
204.748	246.3
204.967	256.08
205.185	210.11
205.404	172.33
205.622	190.36
205.841	429.94
206.059	185.15
206.278	163.75
206.496	195.28
206.715	167.7
206.933	209.27
207.151	-342.48
207.37	-263.53
207.588	-253.52
207.806	-173.92
208.025	-233.27
208.243	165.52
208.461	180.16
208.68	214.23
208.898	-424.88
209.116	-485.92
209.335	-166.6
209.553	361.22
209.771	596.74
209.989	294.78
210.208	430.86
210.426	-1253.5
210.644	-220.45
210.862	-258.43
211.081	-23.19
211.299	-83.55
211.517	-39.52
211.735	-86.85
211.953	-59.88
212.171	-29.12
212.39	0.84
212.608	4.56
212.826	-3.49
213.044	-30.08
213.262	-42.52
213.48	-113.17
213.698	-55.14
213.916	1.38
214.134	-56.77
214.352	-69.46
214.57	-179.21
214.788	-524.1
215.006	-5233.94
215.224	-32561.11
215.442	-1029.21
215.66	-1863.11
215.878	-53.41
216.096	-10.59
216.314	1038.95
216.532	-431.25
216.75	46.7
216.968	143.71
217.185	128.19
217.403	-72.04
217.621	-61.02
217.839	-103.59
218.057	-156.86
218.275	3550
218.492	1002.54
218.71	243.04
218.928	165.89
219.146	181.16
219.363	144.71
219.581	156.48
219.799	132.77
220.017	102.88
220.234	98.72
220.452	92
220.67	86.44
220.887	63.55
221.105	92.86
221.323	115.42
221.54	110.68
221.758	140.4
221.976	119.76
222.193	102.21
222.411	86.8
222.629	83.01
222.846	67.54
223.064	65.89
223.281	66.6
223.499	53.42
223.716	51.09
223.934	52.88
224.151	41.08
224.369	26.23
224.586	14.13
224.804	12.44
225.021	-11.38
225.239	12.8
225.456	19.82
225.674	19.99
225.891	22.65
226.108	20.18
226.326	7.43
226.543	-32.16
226.76	-2.45
226.978	4.82
227.195	26.97
227.413	36.35
227.63	22.15
227.847	13.17
228.064	8.48
228.282	3.22
228.499	0.6
228.716	4
228.934	12.13
229.151	13.38
229.368	18.25
229.585	11.87
229.802	11.35
230.02	13.47
230.237	15.93
230.454	18.01
230.671	17.96
230.888	16.86
231.105	16.57
231.323	17.74
231.54	13.38
231.757	7.64
231.974	11.86
232.191	10.89
232.408	16.25
232.625	15.56
232.842	23.67
233.059	26.98
233.276	37.47
233.493	40.04
233.71	36.58
233.927	35.9
234.144	35.51
234.361	34.86
234.578	31.79
234.795	29.61
235.012	27.03
235.229	17.94
235.446	15.93
235.663	11.66
235.879	14.01
236.096	14.48
236.313	25.06
236.53	25.4
236.747	25.52
236.964	29.66
237.181	22.8
237.397	27.44
237.614	26.59
237.831	31.47
238.048	22.86
238.264	16.75
238.481	13.22
238.698	7.09
238.915	13.12
239.131	10.46
239.348	12.52
239.565	13.05
239.781	9.9
239.998	6.49
240.215	9.03
240.431	15.9
240.648	16.48
240.865	19.88
241.081	21.37
241.298	16.73
241.514	17.87
241.731	14.88
241.947	15.18
242.164	12.88
242.38	15.69
242.597	12.37
242.814	10.35
243.03	10.8
243.246	8.75
243.463	7.59
243.679	8.59
243.896	4.23
244.112	5.46
244.329	5.12
244.545	4.66
244.762	0.4
244.978	1.52
245.194	3.81
245.411	4.15
245.627	3.69
245.843	3.41
246.06	3.1
246.276	5.75
246.492	7.14
246.709	6.28
246.925	7.68
247.141	8.54
247.357	8.18
247.574	7.65
247.79	8.09
248.006	7.66
248.222	7.7
248.439	8.01
248.655	6.78
248.871	5.31
249.087	6.68
249.303	6.27
249.519	6.1
249.736	6.3
249.952	6.21
250.168	3.84
250.384	8.32
250.6	8.93
250.816	7.7
251.032	10.8
251.248	8.74
251.464	6.95
251.68	5.37
251.896	6.03
252.112	6.74
252.328	7.39
252.544	6.9
252.76	4.49
252.976	5.89
253.192	8.79
253.408	6.27
253.624	7.97
253.84	7.8
254.056	10.45
254.272	11.98
254.487	13.45
254.703	11.05
254.919	12.78
255.135	14.08
255.351	12.09
255.567	14.99
255.782	16.79
255.998	14.14
256.214	12.65
256.43	12.99
256.646	13.54
256.861	12.95
257.077	14.02
257.293	11.98
257.508	11.65
257.724	9.29
257.94	5.19
258.155	6.13
258.371	6.42
258.587	7.9
258.802	5.48
259.018	6.04
259.234	5.4
259.449	6.47
259.665	6.43
259.88	6.47
260.096	7.97
260.312	7.93
260.527	7.95
260.743	8.41
260.958	7.86
261.174	8.61
261.389	7.5
261.605	7.58
261.82	6.76
262.036	7.65
262.251	7.56
262.466	5.84
262.682	5.3
262.897	6.32
263.113	6.96
263.328	8.16
263.543	10.63
263.759	12.42
263.974	13.34
264.189	12.72
264.405	12.04
264.62	11.93
264.835	13.46
265.051	17.16
265.266	18.44
265.481	17.5
265.696	16.17
265.912	13.18
266.127	10.82
266.342	9.55
266.557	11.96
266.773	10.53
266.988	9.71
267.203	11.16
267.418	8.7
267.633	7.64
267.848	8.53
268.064	9.82
268.279	11.45
268.494	12.27
268.709	12.95
268.924	11.2
269.139	13.3
269.354	15.15
269.569	13.11
269.784	13.64
269.999	13.63
270.214	12.77
270.429	11.04
270.644	9.67
270.859	10.36
271.074	9.77
271.289	9.14
271.504	7.85
271.719	6.39
271.934	5.16
272.149	2.09
272.363	1.15
272.578	1.8
272.793	3.27
273.008	3.96
273.223	4.01
273.438	4.74
273.653	2.9
273.867	3.16
274.082	4.87
274.297	6.07
274.512	8.23
274.726	8.86
274.941	10
275.156	8.76
275.371	7.79
275.585	5.25
275.8	4.57
276.015	8.19
276.229	6.99
276.444	4.53
276.659	2.22
276.873	2.45
277.088	2.73
277.302	2.61
277.517	3.27
277.732	3.91
277.946	8.24
278.161	9.93
278.375	9.54
278.59	11.32
278.804	12.24
279.019	12.48
279.233	13.32
279.448	12.29
279.662	11.53
279.877	11.37
280.091	12.68
280.306	10.88
280.52	8.93
280.735	7.82
280.949	8.34
281.163	7.49
281.378	8.8
281.592	8.49
281.806	9.77
282.021	8.62
282.235	9.37
282.449	9.82
282.664	10.31
282.878	10.41
283.092	12.15
283.307	12.48
283.521	13.45
283.735	12.57
283.949	12.67
284.164	11.42
284.378	11.88
284.592	11.06
284.806	9.29
285.02	7.87
285.234	9.54
285.449	7.59
285.663	6.89
285.877	6.28
286.091	8.38
286.305	8.02
286.519	9.33
286.733	8.76
286.947	8.49
287.161	10
287.375	11.03
287.589	9.16
287.803	10.27
288.017	8.52
288.231	8.52
288.445	5.64
288.659	5.12
288.873	4.65
289.087	5.87
289.301	6.45
289.515	4.93
289.729	5.75
289.943	5.38
290.157	5.35
290.371	6.57
290.584	6.63
290.798	8.8
291.012	9.47
291.226	9.93
291.44	8.9
291.654	9.48
291.867	9.37
292.081	9.15
292.295	9.21
292.509	9.06
292.722	10.89
292.936	11.61
293.15	10.33
293.364	10.98
293.577	11.3
293.791	12.84
294.005	13.8
294.218	14.41
294.432	13.46
294.645	13.59
294.859	15.82
295.073	13.98
295.286	12.74
295.5	12.76
295.713	10.85
295.927	11.55
296.14	11.82
296.354	9.96
296.568	9.2
296.781	9.22
296.994	9.13
297.208	5.89
297.421	5.68
297.635	5.61
297.848	5.39
298.062	6.47
298.275	5.78
298.489	3.74
298.702	4.19
298.915	4.81
299.129	4.34
299.342	5.44
299.555	7.53
299.769	8.74
299.982	10.19
300.195	11.57
300.409	10.91
300.622	9.69
300.835	10.95
301.048	10.55
301.262	8.96
301.475	9.23
301.688	9.05
301.901	9.97
302.115	7.94
302.328	7.44
302.541	6.78
302.754	5.88
302.967	7.42
303.18	8.65
303.393	6.88
303.607	10.64
303.82	13.38
304.033	14.25
304.246	13.96
304.459	14.5
304.672	13.86
304.885	12.25
305.098	13.96
305.311	11.96
305.524	12.31
305.737	15.23
305.95	13.2
306.163	9.47
306.376	9.48
306.589	9.54
306.802	10.18
307.015	9.76
307.228	12.2
307.44	11.93
307.653	12.51
307.866	11.13
308.079	9.66
308.292	12.28
308.505	12.49
308.718	12.07
308.93	11.48
309.143	12.27
309.356	14.72
309.569	14.51
309.781	13.96
309.994	12.97
310.207	12.29
310.42	13.44
310.632	11.8
310.845	12.43
311.058	11.57
311.27	10.64
311.483	11.5
311.696	10.33
311.908	9.77
312.121	11.47
312.333	13.75
312.546	16.13
312.759	16.71
312.971	16.35
313.184	17.4
313.396	19.05
313.609	20.02
313.821	18.34
314.034	17.01
314.246	15.92
314.459	14.04
314.671	13.06
314.884	9.99
315.096	10.66
315.309	11.25
315.521	12.35
315.733	12.22
315.946	12.14
316.158	13.4
316.371	15.7
316.583	17.01
316.795	16.76
317.008	16.9
317.22	18.32
317.432	16.29
317.644	15.2
317.857	11.86
318.069	11.73
318.281	13.61
318.494	12.54
318.706	11.94
318.918	10.96
319.13	13.32
319.342	13.78
319.555	12.93
319.767	12.63
319.979	13.18
320.191	16.16
320.403	13.82
320.615	12.2
320.827	12.85
321.039	11.25
321.252	13.25
321.464	9.41
321.676	7.94
321.888	7.87
322.1	8.07
322.312	6.61
322.524	4.73
322.736	7.76
322.948	8.16
323.16	9.97
323.372	13.06
323.584	13.53
323.796	14.85
324.007	15.42
324.219	16.61
324.431	16.86
324.643	17.98
324.855	18.25
325.067	18.32
325.279	19.38
325.491	18.79
325.702	19.17
325.914	18.94
326.126	20.86
326.338	20.26
326.55	19.74
326.761	21.19
326.973	21.65
327.185	22.25
327.396	21.2
327.608	20.38
327.82	20.07
328.032	19.17
328.243	17.68
328.455	17.26
328.666	17.55
328.878	17.7
329.09	17.66
329.301	17.8
329.513	18.21
329.725	19.24
329.936	20.35
330.148	20.4
330.359	20.64
330.571	23.95
330.782	24.42
330.994	26.33
331.205	27.21
331.417	28.09
331.628	28.51
331.84	28.71
332.051	28.97
332.262	28.55
332.474	29.1
332.685	28.88
332.897	27.72
333.108	26.07
333.319	26.53
333.531	26.92
333.742	27.08
333.953	28.03
334.165	26.77
334.376	27.04
334.587	27.2
334.799	28.51
335.01	29.41
335.221	30.1
335.432	32.46
335.644	31.27
335.855	30.67
336.066	30.09
336.277	30.86
336.488	31.33
336.7	32.13
336.911	32.23
337.122	31.87
337.333	31.52
337.544	31.28
337.755	29.39
337.966	29.94
338.177	31.22
338.388	30.57
338.599	29.02
338.811	29.39
339.022	28.91
339.233	28.72
339.444	27.66
339.655	27.36
339.866	27.38
340.076	27.98
340.287	28.08
340.498	28.18
340.709	28.13
340.92	29.02
341.131	30.27
341.342	31.13
341.553	29.69
341.764	30.58
341.975	31.27
342.185	31.81
342.396	31.78
342.607	30.63
342.818	31.5
343.029	32.13
343.239	32.57
343.45	32.17
343.661	30.37
343.872	33.42
344.082	33.82
344.293	34.81
344.504	34.98
344.714	35.02
344.925	37.29
345.136	36.19
345.346	35.35
345.557	33.59
345.768	33.54
345.978	35.72
346.189	34.95
346.399	34.96
346.61	33.99
346.821	33.71
347.031	34.66
347.242	33.3
347.452	32.34
347.663	33.56
347.873	36.04
348.084	36.71
348.294	35.25
348.504	35.9
348.715	36.43
348.925	35.83
349.136	35.98
349.346	35.57
349.557	36.44
349.767	38.72
349.977	37.17
350.188	35.78
350.398	34.23
350.608	35.7
350.819	33.44
351.029	31.85
351.239	32.98
351.449	33.62
351.66	32.84
351.87	32.57
352.08	30.83
352.29	32.03
352.501	31.94
352.711	32.72
352.921	32.22
353.131	33.96
353.341	34.42
353.552	34.7
353.762	33.25
353.972	32.96
354.182	32.82
354.392	32.05
354.602	31.87
354.812	32.57
355.022	33.16
355.232	34.16
355.442	34.03
355.652	33.21
355.862	32.64
356.072	34.82
356.282	36.13
356.492	36.83
356.702	36.99
356.912	37.74
357.122	36.19
357.332	35.64
357.542	33.92
357.752	34.29
357.962	34.8
358.171	34.05
358.381	32.77
358.591	32.74
358.801	31.47
359.011	32.71
359.221	32.33
359.43	33.8
359.64	34.87
359.85	34.77
360.06	34.28
360.269	35.36
360.479	35.71
360.689	35.68
360.899	34.77
361.108	35.1
361.318	34.32
361.528	34.31
361.737	34.37
361.947	33.76
362.156	33.53
362.366	33.82
362.576	33.3
362.785	33.98
362.995	34.03
363.204	34.83
363.414	34.79
363.623	34.95
363.833	35.45
364.042	35.75
364.252	35.89
364.461	36.76
364.671	36.38
364.88	36.31
365.09	35.88
365.299	36.34
365.509	36.07
365.718	37.54
365.927	38.2
366.137	38.76
366.346	38.81
366.555	38.35
366.765	38.03
366.974	37.44
367.183	37.56
367.393	37.28
367.602	36.06
367.811	36.5
368.021	35.16
368.23	34.25
368.439	33.56
368.648	33.25
368.857	34.21
369.067	33.53
369.276	33.97
369.485	33.37
369.694	33.45
369.903	34.09
370.112	32.95
370.321	33.45
370.531	33.35
370.74	33.82
370.949	32.81
371.158	31.25
371.367	31.44
371.576	31.64
371.785	31.57
371.994	31.71
372.203	31.43
372.412	31.9
372.621	30.98
372.83	31.69
373.039	30.46
373.248	31.27
373.457	31.6
373.666	31.9
373.874	31.74
374.083	32.31
374.292	32.22
374.501	31.78
374.71	31.19
374.919	31.83
375.128	30.64
375.336	30.89
375.545	30.68
375.754	31.27
375.963	31.24
376.171	30.76
376.38	30.58
376.589	30.8
376.798	31.58
377.006	31.57
377.215	31.68
377.424	32.26
377.632	32.25
377.841	32.11
378.05	31.68
378.258	31.75
378.467	32.14
378.675	32.32
378.884	32.6
379.093	31.79
379.301	31.61
379.51	31.11
379.718	30.85
379.927	30.36
380.135	30.29
380.344	30.73
380.552	30.03
380.761	29.41
380.969	29.46
381.177	29.21
381.386	29.73
381.594	30.68
381.803	30.9
382.011	31.58
382.219	31.87
382.428	32.3
382.636	31.91
382.845	31.98
383.053	32.38
383.261	32
383.469	31.34
383.678	30.46
383.886	29.79
384.094	29.87
384.302	29.48
384.511	29.54
384.719	28.42
384.927	28.47
385.135	28.52
385.343	28.56
385.552	28.44
385.76	28.55
385.968	29.03
386.176	29.58
386.384	29.65
386.592	29.57
386.8	29.71
387.008	29.99
387.216	29.65
387.424	29.23
387.633	29.01
387.841	28.85
388.049	28.59
388.257	28.72
388.465	28.06
388.672	27.64
388.88	27.66
389.088	27.55
389.296	27.2
389.504	27.3
389.712	27.58
389.92	27.26
390.128	27.11
390.336	27.25
390.544	26.75
390.751	27.28
390.959	26.98
391.167	26.74
391.375	26.49
391.583	26.86
391.79	26.67
391.998	26.67
392.206	27.17
392.414	27.24
392.621	27.3
392.829	27.33
393.037	26.87
393.244	26.96
393.452	27.14
393.66	27.18
393.867	27.18
394.075	27.49
394.283	27.68
394.49	27.44
394.698	27.49
394.905	27.52
395.113	27.74
395.32	27.89
395.528	27.92
395.735	27.87
395.943	28.1
396.15	28.4
396.358	28.37
396.565	28.09
396.773	28.44
396.98	28.5
397.188	28.73
397.395	28.59
397.602	28.61
397.81	28.99
398.017	29.12
398.225	29.13
398.432	28.59
398.639	28.64
398.847	28.97
399.054	28.58
399.261	28.36
399.468	28.08
399.676	28.36
399.883	28.33
400.09	28.23
400.297	28.24
400.505	27.88
400.712	28.32
400.919	28.12
401.126	28.29
401.333	28.79
401.54	29.07
401.748	29.1
401.955	29
402.162	28.98
402.369	28.93
402.576	28.57
402.783	28.78
402.99	28.75
403.197	29.05
403.404	29.13
403.611	28.68
403.818	28.48
404.025	28.68
404.232	28.82
404.439	28.71
404.646	28.89
404.853	29.14
405.06	29.24
405.267	29.24
405.474	29.26
405.681	28.84
405.887	29.2
406.094	29.49
406.301	29.32
406.508	29.19
406.715	29.23
406.922	29.47
407.128	29.35
407.335	29.16
407.542	29.18
407.749	28.92
407.955	29.11
408.162	28.66
408.369	28.73
408.575	28.84
408.782	28.73
408.989	29.17
409.195	29
409.402	29.1
409.609	29.17
409.815	29.14
410.022	29.23
410.228	29.1
410.435	29.31
410.642	29.18
410.848	29.2
411.055	29.08
411.261	29.01
411.468	28.77
411.674	28.56
411.881	28.51
412.087	28.46
412.294	28.21
412.5	28.2
412.706	28.12
412.913	27.89
413.119	27.87
413.326	27.83
413.532	27.73
413.738	27.87
413.945	28.06
414.151	28.16
414.357	27.86
414.564	28.09
414.77	28.03
414.976	28.18
415.182	28.03
415.389	27.65
415.595	27.61
415.801	27.3
416.007	27.09
416.214	26.98
416.42	26.93
416.626	27.23
416.832	27.34
417.038	27.32
417.244	27.24
417.45	27.44
417.657	27.49
417.863	27.59
418.069	27.67
418.275	27.64
418.481	27.59
418.687	27.53
418.893	27.4
419.099	27.37
419.305	27.48
419.511	27.53
419.717	27.45
419.923	27.33
420.129	27.34
420.335	27.2
420.541	27.16
420.746	27.3
420.952	27.25
421.158	27.35
421.364	27.23
421.57	26.98
421.776	26.77
421.982	26.9
422.187	27.09
422.393	27.13
422.599	27.27
422.805	27.21
423.01	27.08
423.216	27.02
423.422	26.92
423.628	26.84
423.833	27
424.039	27.07
424.245	26.95
424.45	26.93
424.656	26.78
424.862	26.82
425.067	27.05
425.273	27.06
425.478	27.12
425.684	27.04
425.889	27.18
426.095	27.11
426.301	27.2
426.506	27.26
426.712	27.1
426.917	27.21
427.123	27.09
427.328	26.77
427.533	26.79
427.739	26.86
427.944	27.08
428.15	26.9
428.355	26.99
428.561	26.92
428.766	26.86
428.971	26.88
429.177	26.92
429.382	26.76
429.587	26.79
429.793	26.58
429.998	26.44
430.203	26.24
430.408	26.35
430.614	26.28
430.819	26.3
431.024	26.19
431.229	26.54
431.434	26.5
431.64	26.69
431.845	26.88
432.05	27.11
432.255	27.12
432.46	27.15
432.665	27.16
432.87	26.98
433.076	26.84
433.281	26.86
433.486	26.63
433.691	26.62
433.896	26.41
434.101	26.26
434.306	26.08
434.511	26.02
434.716	26.01
434.921	25.95
435.126	26.07
435.331	26.19
435.535	26.19
435.74	26.14
435.945	25.78
436.15	26.02
436.355	26.06
436.56	26.02
436.765	26.01
436.97	26.01
437.174	26.03
437.379	26.04
437.584	25.91
437.789	26
437.993	26.1
438.198	26.34
438.403	26.24
438.608	26.2
438.812	26.36
439.017	26.48
439.222	26.25
439.426	26.26
439.631	26.25
439.836	26.21
440.04	26.07
440.245	25.9
440.45	25.79
440.654	25.8
440.859	25.76
441.063	25.77
441.268	25.67
441.472	25.79
441.677	25.81
441.881	25.75
442.086	25.79
442.29	25.91
442.495	25.94
442.699	26.05
442.904	26
443.108	26.04
443.312	25.95
443.517	25.95
443.721	26.02
443.925	25.93
444.13	25.92
444.334	25.9
444.538	25.78
444.743	25.97
444.947	25.92
445.151	25.93
445.356	25.86
445.56	25.87
445.764	25.86
445.968	25.84
446.173	25.81
446.377	25.94
446.581	25.85
446.785	25.84
446.989	25.65
447.193	25.81
447.398	25.74
447.602	25.83
447.806	25.9
448.01	25.92
448.214	25.87
448.418	25.91
448.622	25.84
448.826	25.96
449.03	26.09
449.234	26.41
449.438	26.44
449.642	26.57
449.846	26.58
450.05	26.51
450.254	26.5
450.458	26.49
450.662	26.35
450.866	26.04
451.069	26.03
451.273	25.95
451.477	25.71
451.681	25.51
451.885	25.35
452.089	25.37
452.292	25.58
452.496	25.63
452.7	25.68
452.904	25.61
453.107	25.85
453.311	25.87
453.515	25.77
453.719	25.61
453.922	25.58
454.126	25.68
454.33	25.64
454.533	25.63
454.737	25.58
454.94	25.73
455.144	25.74
455.348	25.88
455.551	25.62
455.755	25.57
455.958	25.61
456.162	25.47
456.365	25.49
456.569	25.47
456.772	25.17
456.976	25.28
457.179	24.85
457.383	25.11
457.586	24.88
457.79	25.01
457.993	25.12
458.196	25.21
458.4	25.47
458.603	25.43
458.807	25.65
459.01	25.48
459.213	25.37
459.417	25.43
459.62	25.35
459.823	25.3
460.026	25.22
460.23	25.18
460.433	25.17
460.636	25.05
460.839	25.14
461.042	24.91
461.246	25.12
461.449	25.11
461.652	25.17
461.855	25.12
462.058	25.17
462.261	25.42
462.464	25.55
462.668	25.65
462.871	25.58
463.074	25.58
463.277	25.51
463.48	25.67
463.683	25.72
463.886	25.84
464.089	26.03
464.292	26.09
464.495	25.96
464.698	25.97
464.901	25.81
465.104	25.94
465.306	25.84
465.509	25.88
465.712	25.74
465.915	25.71
466.118	25.48
466.321	25.42
466.524	25.46
466.726	25.5
466.929	25.52
467.132	25.5
467.335	25.53
467.538	25.6
467.74	25.84
467.943	25.82
468.146	26.03
468.348	26.06
468.551	26.15
468.754	26.08
468.956	26.06
469.159	26
469.362	26.18
469.564	26.32
469.767	26.42
469.969	26.27
470.172	26.3
470.375	26.12
470.577	26.13
470.78	26
470.982	26.21
471.185	26.14
471.387	26.44
471.59	26.35
471.792	26.33
471.995	26.22
472.197	26.36
472.399	26.26
472.602	26.39
472.804	26.46
473.007	26.54
473.209	26.33
473.411	26.53
473.614	26.37
473.816	26.29
474.018	26.13
474.22	26.18
474.423	26.06
474.625	26.34
474.827	26.17
475.03	26.3
475.232	26.33
475.434	26.57
475.636	26.45
475.838	26.28
476.04	26.42
476.243	26.34
476.445	26.51
476.647	26.41
476.849	26.28
477.051	26.4
477.253	26.25
477.455	26.1
477.657	26.06
477.859	26.02
478.061	26.11
478.263	26.02
478.465	26.28
478.667	26.02
478.869	26.05
479.071	25.92
479.273	25.86
479.475	26.05
479.677	26.18
479.879	26.09
480.081	26.13
480.283	26.1
480.485	26.18
480.686	25.98
480.888	26
481.09	25.93
481.292	25.85
481.494	25.91
481.695	25.89
481.897	25.84
482.099	25.9
482.301	26.01
482.502	26
482.704	26.02
482.906	26
483.107	25.98
483.309	26.02
483.511	26.06
483.712	26.02
483.914	25.92
484.115	25.88
484.317	25.9
484.519	25.89
484.72	25.85
484.922	25.84
485.123	25.85
485.325	25.87
485.526	25.87
485.728	25.84
485.929	25.88
486.131	25.98
486.332	26.05
486.534	26.02
486.735	25.92
486.936	25.89
487.138	25.86
487.339	25.84
487.541	25.85
487.742	25.86
487.943	25.82
488.144	25.82
488.346	25.77
488.547	25.83
488.748	25.86
488.95	25.94
489.151	25.91
489.352	25.91
489.553	25.96
489.755	25.88
489.956	25.77
490.157	25.82
490.358	25.77
490.559	25.77
490.76	25.64
490.961	25.57
491.163	25.54
491.364	25.66
491.565	25.61
491.766	25.62
491.967	25.66
492.168	25.73
492.369	25.77
492.57	25.84
492.771	25.92
492.972	25.92
493.173	25.85
493.374	25.9
493.575	25.94
493.776	25.98
493.976	25.96
494.177	25.99
494.378	25.91
494.579	25.85
494.78	25.7
494.981	25.79
495.182	25.92
495.382	26.04
495.583	26.01
495.784	25.86
495.985	25.76
496.185	25.71
496.386	25.81
496.587	26.04
496.788	25.97
496.988	26.1
497.189	25.86
497.39	25.69
497.59	25.68
497.791	25.75
497.992	25.87
498.192	25.95
498.393	26.1
498.593	26.08
498.794	25.87
498.994	26
499.195	25.94
499.395	25.96
499.596	26.1
499.796	26.16
499.997	26.19
500.197	26.21
500.398	26.2
500.598	26.3
500.799	26.34
500.999	26.62
501.199	26.61
501.4	26.6
501.6	26.83
501.801	26.95
502.001	26.96
502.201	26.84
502.402	26.71
502.602	26.9
502.802	26.83
503.002	26.8
503.203	26.57
503.403	26.64
503.603	26.54
503.803	26.56
504.003	26.4
504.204	26.45
504.404	26.52
504.604	26.67
504.804	26.59
505.004	26.51
505.204	26.33
505.404	26.34
505.604	26.31
505.804	26.53
506.005	26.39
506.205	26.5
506.405	26.59
506.605	26.56
506.805	26.53
507.005	26.61
507.204	26.5
507.404	26.72
507.604	26.81
507.804	26.83
508.004	26.78
508.204	26.71
508.404	26.74
508.604	26.69
508.804	26.82
509.003	26.79
509.203	26.88
509.403	27.12
509.603	27.17
509.803	27.21
510.002	27.27
510.202	27.31
510.402	27.49
510.602	27.58
510.801	27.61
511.001	27.46
511.201	27.61
511.4	27.69
511.6	27.66
511.8	27.62
511.999	27.6
512.199	27.66
512.398	27.69
512.598	27.7
512.797	27.68
512.997	27.62
513.197	27.85
513.396	27.96
513.596	27.88
513.795	27.76
513.994	27.86
514.194	27.91
514.393	27.81
514.593	27.78
514.792	27.75
514.992	27.91
515.191	28.16
515.39	28.01
515.59	28.01
515.789	28.03
515.988	28.1
516.188	28.2
516.387	28.17
516.586	28.28
516.786	28.31
516.985	28.61
517.184	28.4
517.383	28.22
517.582	28.32
517.782	28.23
517.981	28.24
518.18	28.28
518.379	28.27
518.578	28.37
518.777	28.39
518.976	28.49
519.176	28.35
519.375	28.39
519.574	28.6
519.773	28.51
519.972	28.43
520.171	28.41
520.37	28.41
520.569	28.34
520.768	28.42
520.967	28.47
521.166	28.37
521.365	28.4
521.564	28.6
521.762	28.53
521.961	28.65
522.16	28.83
522.359	28.93
522.558	29.16
522.757	29.07
522.956	28.91
523.154	29.03
523.353	29.13
523.552	28.99
523.751	28.86
523.949	28.91
524.148	28.92
524.347	28.93
524.546	28.82
524.744	28.8
524.943	28.79
525.142	28.94
525.34	28.88
525.539	28.91
525.737	29.12
525.936	29.11
526.135	29
526.333	29.06
526.532	29.09
526.73	29.21
526.929	29.19
527.127	29.3
527.326	29.4
527.524	29.41
527.723	29.33
527.921	29.3
528.12	29.27
528.318	29.24
528.516	29.24
528.715	29.23
528.913	29.25
529.112	29.25
529.31	29.26
529.508	29.17
529.707	29.17
529.905	29.22
530.103	29.22
530.301	29.3
530.5	29.4
530.698	29.38
530.896	29.42
531.094	29.4
531.293	29.39
531.491	29.39
531.689	29.45
531.887	29.49
532.085	29.62
532.283	29.48
532.481	29.56
532.68	29.55
532.878	29.63
533.076	29.72
533.274	29.76
533.472	29.83
533.67	29.88
533.868	30.01
534.066	30.05
534.264	29.98
534.462	30.19
534.66	30.14
534.858	30.17
535.056	30.15
535.253	30.17
535.451	30.19
535.649	30.19
535.847	30.14
536.045	30
536.243	29.98
536.441	30.1
536.638	30.03
536.836	29.99
537.034	29.97
537.232	30.02
537.43	29.88
537.627	30.01
537.825	30.01
538.023	30.07
538.22	30.03
538.418	30.02
538.616	30
538.813	29.94
539.011	30.11
539.209	30.29
539.406	30.3
539.604	30.38
539.801	30.25
539.999	30.19
540.196	30.12
540.394	30.29
540.591	30.29
540.789	30.25
540.986	30.31
541.184	30.31
541.381	30.23
541.579	30.15
541.776	30.16
541.974	30.16
542.171	30.19
542.368	30.2
542.566	30.15
542.763	30.04
542.96	29.97
543.158	29.89
543.355	29.73
543.552	29.72
543.75	29.82
543.947	29.76
544.144	29.63
544.341	29.64
544.539	29.55
544.736	29.44
544.933	29.46
545.13	29.57
545.327	29.51
545.524	29.58
545.722	29.64
545.919	29.5
546.116	29.52
546.313	29.63
546.51	29.61
546.707	29.8
546.904	29.93
547.101	30.08
547.298	30.06
547.495	30.19
547.692	30.38
547.889	30.43
548.086	30.68
548.283	30.68
548.48	30.84
548.677	30.85
548.874	30.81
549.07	30.83
549.267	30.82
549.464	30.97
549.661	30.98
549.858	30.76
550.055	30.55
550.251	30.32
550.448	30.46
550.645	30.22
550.842	30.38
551.038	30.55
551.235	30.63
551.432	30.68
551.628	30.69
551.825	30.97
552.022	31.15
552.218	31.31
552.415	31.42
552.612	31.38
552.808	31.51
553.005	31.58
553.201	31.39
553.398	31.38
553.594	31.41
553.791	31.38
553.987	31.14
554.184	31.04
554.38	30.97
554.577	30.98
554.773	31.03
554.97	30.94
555.166	30.95
555.362	31.02
555.559	31.05
555.755	31.09
555.952	31.1
556.148	31.24
556.344	31.25
556.541	31.23
556.737	31.25
556.933	31.37
557.129	31.59
557.326	31.52
557.522	31.6
557.718	31.48
557.914	31.33
558.11	31.39
558.307	31.29
558.503	31.45
558.699	31.59
558.895	31.6
559.091	31.65
559.287	31.88
559.483	32.07
559.679	32.05
559.876	32.16
560.072	32.34
560.268	32.34
560.464	32.51
560.66	32.34
560.856	32.28
561.052	32.28
561.247	32.09
561.443	31.84
561.639	31.55
561.835	31.66
562.031	31.73
562.227	31.68
562.423	31.72
562.619	31.85
562.815	31.9
563.01	31.94
563.206	31.97
563.402	32.24
563.598	32.37
563.793	32.62
563.989	32.5
564.185	32.35
564.381	32.44
564.576	32.17
564.772	31.99
564.968	31.97
565.163	31.95
565.359	32.03
565.555	31.87
565.75	31.73
565.946	31.78
566.141	31.98
566.337	31.86
566.532	31.95
566.728	32.24
566.923	32.3
567.119	32.5
567.314	32.57
567.51	32.53
567.705	32.55
567.901	32.75
568.096	32.58
568.292	32.54
568.487	32.69
568.682	32.43
568.878	32.27
569.073	32.13
569.268	32.16
569.464	32.26
569.659	32.37
569.854	32.13
570.05	32.06
570.245	32.01
570.44	31.98
570.635	32.01
570.831	32.14
571.026	32.23
571.221	32.37
571.416	32.21
571.611	32.02
571.806	31.93
572.002	31.98
572.197	31.99
572.392	32.23
572.587	32.19
572.782	32.22
572.977	32.29
573.172	32.05
573.367	32.14
573.562	32.3
573.757	32.15
573.952	32.19
574.147	32.45
574.342	32.6
574.537	32.5
574.732	32.56
574.927	32.56
575.121	32.55
575.316	32.8
575.511	32.57
575.706	32.61
575.901	32.95
576.096	33.08
576.29	33
576.485	32.9
576.68	32.8
576.875	32.68
577.069	32.58
577.264	32.71
577.459	32.79
577.654	32.72
577.848	32.58
578.043	32.74
578.238	32.51
578.432	32.56
578.627	32.5
578.821	32.4
579.016	32.4
579.21	32.4
579.405	32.53
579.6	32.34
579.794	32.62
579.989	32.65
580.183	32.35
580.378	32.58
580.572	32.58
580.766	32.59
580.961	32.94
581.155	33.12
581.35	33.22
581.544	32.66
581.738	32.72
581.933	32.43
582.127	32.52
582.321	32.69
582.516	32.57
582.71	32.74
582.904	32.67
583.099	32.64
583.293	32.5
583.487	32.48
583.681	32.79
583.875	32.79
584.07	33.18
584.264	32.96
584.458	32.7
584.652	32.86
584.846	32.53
585.04	32.51
585.234	32.33
585.428	32.38
585.623	32.51
585.817	32.53
586.011	32.57
586.205	32.19
586.399	32.43
586.593	32.57
586.787	32.53
586.981	32.68
587.174	32.78
587.368	33.18
587.562	33.31
587.756	33.21
587.95	33.14
588.144	32.96
588.338	33.46
588.532	33.51
588.725	33.3
588.919	33.15
589.113	33.2
589.307	33.21
589.501	32.97
589.694	32.72
589.888	32.78
590.082	32.86
590.275	33
590.469	32.93
590.663	32.67
590.856	33.01
591.05	33.03
591.244	32.95
591.437	32.71
591.631	32.68
591.824	32.85
592.018	32.71
592.212	32.72
592.405	33.07
592.599	33.06
592.792	33.32
592.986	33.22
593.179	33.51
593.372	33.42
593.566	33.5
593.759	33.55
593.953	33.64
594.146	33.86
594.339	33.79
594.533	33.7
594.726	33.55
594.92	33.65
595.113	33.75
595.306	33.54
595.499	33.73
595.693	33.97
595.886	33.81
596.079	33.87
596.272	33.89
596.466	34.01
596.659	33.85
596.852	33.87
597.045	33.64
597.238	33.65
597.431	33.64
597.624	33.68
597.818	33.68
598.011	33.33
598.204	33.29
598.397	33.29
598.59	33.24
598.783	33.24
598.976	33.4
599.169	33.56
599.362	33.7
599.555	33.82
599.748	33.69
599.941	33.72
600.134	34.16
600.326	34.11
600.519	34.17
600.712	33.93
600.905	33.83
601.098	33.72
601.291	33.71
601.483	33.53
601.676	33.35
601.869	33.6
602.062	33.61
602.255	33.74
602.447	33.87
602.64	33.59
602.833	33.74
603.025	33.97
603.218	33.79
603.411	33.77
603.603	33.78
603.796	33.91
603.989	33.89
604.181	33.51
604.374	33.61
604.566	33.6
604.759	33.89
604.951	33.85
605.144	33.73
605.336	34.12
605.529	34.17
605.721	34.19
605.914	34.2
606.106	34.24
606.299	34.77
606.491	34.74
606.683	34.66
606.876	34.51
607.068	34.73
607.26	34.87
607.453	34.64
607.645	34.64
607.837	34.61
608.03	34.56
608.222	34.38
608.414	34.21
608.606	34.18
608.799	33.84
608.991	33.68
609.183	33.86
609.375	33.72
609.567	33.44
609.759	33.3
609.952	33.27
610.144	33.17
610.336	33.02
610.528	32.75
610.72	32.57
610.912	32.51
611.104	32.55
611.296	32.06
611.488	32.01
611.68	31.93
611.872	31.91
612.064	31.83
612.256	31.92
612.448	31.75
612.64	31.97
612.832	31.91
613.023	32.2
613.215	32.21
613.407	32.61
613.599	32.65
613.791	33.05
613.983	33.29
614.174	33.35
614.366	33.18
614.558	33.59
614.75	33.55
614.941	33.81
615.133	33.8
615.325	34.06
615.516	33.48
615.708	33.61
615.9	33.41
616.091	33.31
616.283	33.28
616.475	33.34
616.666	33.5
616.858	33.62
617.049	33.72
617.241	33.92
617.432	33.56
617.624	34.23
617.815	34.29
618.007	34.16
618.198	34.05
618.39	34.37
618.581	34.48
618.773	34.12
618.964	33.92
619.155	33.81
619.347	33.7
619.538	34.08
619.729	33.89
619.921	33.73
620.112	34.39
620.303	34.37
620.494	34.1
620.686	34.11
620.877	34.28
621.068	34.61
621.259	34.42
621.451	34.37
621.642	34.11
621.833	33.91
622.024	34.14
622.215	33.78
622.406	33.75
622.597	33.87
622.788	33.8
622.98	33.65
623.171	33.44
623.362	33.81
623.553	34.25
623.744	34.44
623.935	34.6
624.126	34.41
624.317	34.27
624.508	34.53
624.698	34.44
624.889	34.65
625.08	34.98
625.271	35.2
625.462	34.88
625.653	34.33
625.844	34.14
626.034	33.91
626.225	33.97
626.416	33.85
626.607	33.93
626.798	34.09
626.988	33.91
627.179	33.57
627.37	33.61
627.56	33.56
627.751	33.8
627.942	33.85
628.132	34.21
628.323	34.05
628.514	34.24
628.704	34.27
628.895	34.46
629.085	34.58
629.276	34.52
629.466	34.18
629.657	34.42
629.847	34.56
630.038	34.82
630.228	34.69
630.419	34.83
630.609	34.55
630.8	34.17
630.99	33.75
631.181	33.89
631.371	34.32
631.561	34.55
631.752	34.58
631.942	34.36
632.132	34.12
632.323	33.98
632.513	34.13
632.703	34.68
632.893	34.84
633.084	34.99
633.274	35.28
633.464	35.15
633.654	35.08
633.844	35.05
634.034	35.07
634.225	35.04
634.415	35.33
634.605	34.96
634.795	35.03
634.985	35.31
635.175	35.37
635.365	34.96
635.555	35.05
635.745	34.99
635.935	35.05
636.125	34.92
636.315	34.76
636.505	34.82
636.695	34.96
636.885	34.77
637.075	34.76
637.265	34.79
637.455	34.7
637.644	34.61
637.834	34.68
638.024	34.62
638.214	34.59
638.404	35.14
638.593	34.97
638.783	34.91
638.973	35.01
639.163	34.87
639.352	34.57
639.542	34.36
639.732	34.53
639.921	34.54
640.111	34.74
640.301	34.63
640.49	34.35
640.68	34.12
640.87	34.24
641.059	33.89
641.249	33.35
641.438	33.33
641.628	33.78
641.817	33.44
642.007	33.87
642.196	33.65
642.386	33.69
642.575	33.5
642.764	33.6
642.954	33.63
643.143	33.71
643.333	34.28
643.522	34.51
643.711	34.73
643.901	34.92
644.09	34.55
644.279	34.55
644.469	35.24
644.658	35.48
644.847	35.48
645.036	35.77
645.226	35.76
645.415	35.61
645.604	35.62
645.793	35.51
645.982	35.61
646.171	35.54
646.361	35.79
646.55	35.75
646.739	35.8
646.928	35.94
647.117	36.1
647.306	36.41
647.495	36.43
647.684	36.32
647.873	36.08
648.062	35.69
648.251	36.04
648.44	35.87
648.629	35.54
648.818	35.78
649.007	35.56
649.196	35.25
649.384	34.84
649.573	34.72
649.762	34.74
649.951	34.88
650.14	35.5
650.328	35.31
650.517	35.15
650.706	35.17
650.895	35.21
651.083	35.56
651.272	35.19
651.461	35.12
651.65	35.24
651.838	35.08
652.027	34.99
652.216	34.65
652.404	34.72
652.593	35.21
652.781	35.24
652.97	34.9
653.158	34.66
653.347	34.91
653.535	34.79
653.724	34.51
653.912	34.8
654.101	35.12
654.289	34.9
654.478	34.5
654.666	33.99
654.855	33.74
655.043	33.9
655.231	33.95
655.42	34
655.608	34.4
655.796	34.56
655.985	34.44
656.173	34.41
656.361	34.43
656.55	34.8
656.738	34.96
656.926	35.23
657.114	35.14
657.302	34.92
657.491	34.99
657.679	35.15
657.867	35.14
658.055	35.11
658.243	35.11
658.431	35.18
658.619	35.02
658.807	34.71
658.996	34.38
659.184	34.32
659.372	34.49
659.56	34.52
659.748	34.56
659.936	34.87
660.124	34.98
660.311	34.87
660.499	34.96
660.687	35.08
660.875	35.31
661.063	35.36
661.251	35.53
661.439	35.48
661.627	35.6
661.814	35.25
662.002	34.95
662.19	35.11
662.378	34.84
662.565	34.82
662.753	34.67
662.941	34.47
663.129	34.84
663.316	34.7
663.504	34.57
663.692	34.27
663.879	34.82
664.067	34.53
664.254	34.67
664.442	34.97
664.63	34.75
664.817	34.58
665.005	34.95
665.192	34.54
665.38	34.39
665.567	34.51
665.755	34.64
665.942	34.12
666.13	34.36
666.317	33.79
666.504	33.4
666.692	33.56
666.879	33.89
667.067	33.47
667.254	33.4
667.441	33.53
667.629	33.94
667.816	33.69
668.003	33.72
668.19	33.55
668.378	33.35
668.565	33.57
668.752	33.73
668.939	33.28
669.127	34.35
669.314	34.62
669.501	34.46
669.688	33.93
669.875	34.02
670.062	33.98
670.249	33.82
670.436	33.88
670.623	34.09
670.81	33.64
670.997	34.17
671.184	33.19
671.371	33.52
671.558	33.38
671.745	33.44
671.932	33.65
672.119	33.38
672.306	33.93
672.493	33.71
672.68	33.55
672.867	34.13
673.054	33.82
673.24	33.79
673.427	33.59
673.614	33.79
673.801	34.15
673.988	34.25
674.174	34.66
674.361	34.4
674.548	34.79
674.734	34.7
674.921	34.68
675.108	35.16
675.294	35.23
675.481	34.92
675.668	34.98
675.854	34.7
676.041	34.67
676.227	34.94
676.414	35.46
676.601	35.72
676.787	35.96
676.974	35.81
677.16	35.84
677.347	35.99
677.533	36.19
677.719	36.47
677.906	36.58
678.092	36.47
678.279	35.99
678.465	35.82
678.651	35.83
678.838	35.77
679.024	35.83
679.21	35.56
679.397	35.57
679.583	35.61
679.769	36.09
679.955	36.09
680.142	36.03
680.328	36.4
680.514	35.92
680.7	35.75
680.886	35.94
681.073	35.58
681.259	35.58
681.445	35.92
681.631	36.11
681.817	35.75
682.003	35.85
682.189	35.7
682.375	35.72
682.561	36.27
682.747	36.39
682.933	36.38
683.119	36.7
683.305	36.58
683.491	36.6
683.677	36.58
683.863	36.36
684.049	36.53
684.235	36.9
684.42	36.47
684.606	36.24
684.792	36.43
684.978	36.35
685.164	36.52
685.349	36.25
685.535	35.81
685.721	35.41
685.907	35.43
686.092	35.02
686.278	35.07
686.464	35.09
686.649	35.24
686.835	35.24
687.021	34.64
687.206	34.41
687.392	34.25
687.577	34.39
687.763	34.2
687.948	34.29
688.134	34.54
688.319	34.72
688.505	34.66
688.69	34.04
688.876	33.75
689.061	33.85
689.247	33.91
689.432	34.31
689.618	34.3
689.803	34.72
689.988	34.58
690.174	34.36
690.359	34.21
690.544	34.2
690.73	34.71
690.915	35.19
691.1	35.36
691.285	35.32
691.471	35.95
691.656	36.21
691.841	36.16
692.026	35.78
692.211	35.9
692.396	35.04
692.582	35.11
692.767	34.97
692.952	34.56
693.137	34.86
693.322	35.18
693.507	34.5
693.692	34.48
693.877	34.96
694.062	35.37
694.247	35.31
694.432	36.08
694.617	36.37
694.802	36.45
694.987	36.91
695.172	37.34
695.357	36.49
695.541	36.81
695.726	36.71
695.911	36.48
696.096	36.42
696.281	36.76
696.466	36.94
696.65	36.98
696.835	36.98
697.02	36.7
697.204	36.28
697.389	36.68
697.574	36.36
697.759	35.97
697.943	35.78
698.128	35.96
698.312	35.25
698.497	35.06
698.682	35.08
698.866	35.25
699.051	35.07
699.235	34.95
699.42	34.91
699.604	35.11
699.789	35.08
699.973	34.65
700.158	34.34
700.342	34.58
700.527	34.41
700.711	34.26
700.895	34.15
701.08	33.8
701.264	34.18
701.448	35.04
701.633	34.67
701.817	34.8
702.001	35.98
702.186	35.89
702.37	36.39
702.554	36.47
702.738	36.43
702.923	36.64
703.107	36.98
703.291	36.24
703.475	35.55
703.659	36.03
703.843	36.13
704.027	36.04
704.212	36.4
704.396	36.26
704.58	36.28
704.764	35.85
704.948	35.81
705.132	36.28
705.316	36.36
705.5	36.2
705.684	35.58
705.868	35.92
706.052	35.43
706.235	35.66
706.419	35.59
706.603	36.05
706.787	36.24
706.971	35.84
707.155	35.95
707.339	36.33
707.522	35.99
707.706	35.99
707.89	36.25
708.074	35.7
708.257	34.79
708.441	34.95
708.625	34.11
708.808	34.19
708.992	34.56
709.176	34.84
709.359	34.46
709.543	34.46
709.727	35.83
709.91	35.09
710.094	35.07
710.277	35.46
710.461	35.19
710.644	35.06
710.828	35.26
711.011	34.82
711.195	34.1
711.378	34.8
711.562	35.2
711.745	34.03
711.928	34.16
712.112	34.53
712.295	34.51
712.478	34.74
712.662	35.51
712.845	35.79
713.028	36.09
713.212	35.97
713.395	35.48
713.578	35.07
713.761	35.15
713.945	35.54
714.128	35
714.311	35.28
714.494	34.67
714.677	34.62
714.86	34.76
715.043	34.37
715.227	34.69
715.41	34.32
715.593	34.41
715.776	34.86
715.959	34.56
716.142	35.32
716.325	35.07
716.508	35.61
716.691	35.62
716.874	34.71
717.057	35.41
717.239	35.2
717.422	35.47
717.605	35.4
717.788	35.93
717.971	35.6
718.154	35.45
718.337	35.77
718.519	35.86
718.702	35.91
718.885	36.02
719.068	35.84
719.25	36.28
719.433	36.13
719.616	35.85
719.798	35.36
719.981	35.57
720.164	35.47
720.346	35.77
720.529	35.12
720.712	33.89
720.894	34.87
721.077	34.44
721.259	33.96
721.442	34.15
721.624	34.53
721.807	34.53
721.989	34.35
722.172	33.97
722.354	33.03
722.537	33.86
722.719	34.91
722.901	34.31
723.084	35.33
723.266	36.08
723.448	36.28
723.631	36.81
723.813	36.27
723.995	37.79
724.178	38.06
724.36	38.93
724.542	38.61
724.724	38.72
724.907	38.33
725.089	37.58
725.271	37.06
725.453	37.36
725.635	36.6
725.817	36.74
725.999	35.26
726.181	35.45
726.364	35.54
726.546	35.62
726.728	35.72
726.91	36.41
727.092	36.35
727.274	36.87
727.456	37.03
727.638	37.27
727.819	37.13
728.001	37.88
728.183	37.76
728.365	38.23
728.547	39.15
728.729	39.01
728.911	39.34
729.093	39.55
729.274	38.14
729.456	36.4
729.638	36.11
729.82	35.73
730.001	34.66
730.183	35.34
730.365	33.99
730.546	33.38
730.728	33.59
730.91	33.77
731.091	33.17
731.273	34.66
731.455	36.37
731.636	36.75
731.818	37.19
731.999	38.06
732.181	37.3
732.362	38.18
732.544	38.18
732.725	37.43
732.907	36.65
733.088	37.24
733.27	35.98
733.451	35.7
733.633	36.19
733.814	35.35
733.995	34.86
734.177	35.89
734.358	36.17
734.539	35.74
734.721	36.21
734.902	35.85
735.083	36.06
735.264	36.11
735.446	35.64
735.627	34.11
735.808	34.59
735.989	34.13
736.17	32.65
736.351	32.11
736.533	33.46
736.714	33.57
736.895	33.56
737.076	32.55
737.257	33.39
737.438	34.44
737.619	35.8
737.8	36.22
737.981	37.54
738.162	37.36
738.343	37.51
738.524	36.21
738.705	36.17
738.886	36.76
739.067	37.4
739.247	37.46
739.428	36.92
739.609	36.26
739.79	36.5
739.971	36.19
740.151	35.89
740.332	34.65
740.513	34.57
740.694	34.16
740.874	33.57
741.055	32.82
741.236	31.74
741.417	31.43
741.597	30.86
741.778	30.82
741.958	31.29
742.139	31.89
742.32	32.89
742.5	32.94
742.681	32.79
742.861	33.37
743.042	33.75
743.222	34.5
743.403	35.36
743.583	36.41
743.764	35.9
743.944	34.57
744.124	35.32
744.305	35.56
744.485	36.12
744.666	36.2
744.846	36.63
745.026	36.98
745.207	36.47
745.387	36.36
745.567	36.08
745.747	35.42
745.928	35.69
746.108	34.42
746.288	33.95
746.468	33.64
746.648	34.94
746.829	34.77
747.009	34.54
747.189	34.99
747.369	34.5
747.549	34.01
747.729	35.93
747.909	35.05
748.089	35.83
748.269	36.24
748.449	35.38
748.629	34.33
748.809	33.71
748.989	32.82
749.169	32.76
749.349	32.35
749.529	32.2
749.709	31.28
749.889	32.24
750.068	31.73
750.248	30.55
750.428	30.4
750.608	31.22
750.788	31.9
750.967	32.64
751.147	32.78
751.327	34.1
751.507	34.83
751.686	35.21
751.866	34.79
752.046	34.57
752.225	34.73
752.405	35.64
752.585	35.42
752.764	34.34
752.944	34.79
753.123	34.79
753.303	32.44
753.482	33.62
753.662	34.64
753.841	34.92
754.021	35.93
754.2	35.85
754.38	35.86
754.559	35.87
754.739	36.69
754.918	36.66
755.097	37.29
755.277	37.84
755.456	36.56
755.635	35.03
755.815	36.02
755.994	36.32
756.173	35.94
756.352	35.55
756.532	35.31
756.711	35.13
756.89	34.52
757.069	33.87
757.248	34
757.427	34.83
757.607	35.87
757.786	34.92
757.965	34.71
758.144	36.24
758.323	36.48
758.502	35.39
758.681	35.2
758.86	35.51
759.039	35.99
759.218	36.38
759.397	35.04
759.576	33.69
759.755	34.29
759.934	34.48
760.113	35.03
760.291	34.25
760.47	37
760.649	36.73
760.828	36.42
761.007	36.69
761.186	36.77
761.364	37.43
761.543	38.39
761.722	38.46
761.901	37.81
762.079	36.49
762.258	37.62
762.437	36.37
762.615	37.66
762.794	36.65
762.972	36.29
763.151	36.56
763.33	36.47
763.508	36.55
763.687	36.42
763.865	36.03
764.044	35.57
764.222	35.12
764.401	35.42
764.579	33.81
764.758	34.65
764.936	34.69
765.114	34.24
765.293	34.18
765.471	33.75
765.65	33.95
765.828	34.04
766.006	35
766.184	36.27
766.363	36.25
766.541	37.65
766.719	38.82
766.898	38.85
767.076	39.23
767.254	40.15
767.432	41.67
767.61	40.67
767.788	43.14
767.967	43.04
768.145	42.31
768.323	41.34
768.501	40.54
768.679	39.56
768.857	38.21
769.035	38.42
769.213	36.81
769.391	35.27
769.569	34.71
769.747	32.39
769.925	33.16
770.103	32.87
770.281	34.51
770.459	35.53
770.636	35.83
770.814	37.1
770.992	36.26
771.17	36.21
771.348	36.16
771.525	38.27
771.703	37.37
771.881	36.32
772.059	37.26
772.236	35.22
772.414	34.49
772.592	35.57
772.769	35.73
772.947	36.95
773.125	38.03
773.302	37.3
773.48	38.14
773.657	41.2
773.835	42.15
774.013	42.19
774.19	43.99
774.368	45.35
774.545	43.56
774.723	43.82
774.9	42.73
775.077	44.46
775.255	45.22
775.432	42.86
775.61	39.81
775.787	39.55
775.964	39.28
776.142	38.99
776.319	38.51
776.496	38.04
776.674	36.67
776.851	36.76
777.028	35.38
777.205	34.53
777.382	35.26
777.56	38.9
777.737	39.16
777.914	36.1
778.091	33.45
778.268	34.29
778.445	36.67
778.622	37.07
778.8	38.16
778.977	36.49
779.154	37.32
779.331	36.85
779.508	35.71
779.685	34.25
779.862	38.13
780.038	40.5
780.215	39.26
780.392	39.15
780.569	37.07
780.746	37.09
780.923	37.69
781.1	37.47
781.277	37.48
781.453	36.03
781.63	37.43
781.807	35.79
781.984	36.72
782.16	38.29
782.337	36.54
782.514	39.57
782.691	37.91
782.867	37.85
783.044	35.9
783.221	36.97
783.397	39.1
783.574	38.53
783.75	36.78
783.927	36
784.103	33.73
784.28	35.18
784.456	34.4
784.633	37.9
784.809	40.28
784.986	41.39
785.162	40.89
785.339	38.07
785.515	38.99
785.692	41.28
785.868	40.71
786.044	41.92
786.221	41.17
786.397	41.9
786.573	37.51
786.749	37.1
786.926	38.01
787.102	37.68
787.278	38.53
787.454	36.28
787.631	36.24
787.807	35.27
787.983	33.04
788.159	32.52
788.335	32.08
788.511	32.36
788.687	31.76
788.863	31.17
789.039	32.85
789.216	31.04
789.392	29.98
789.568	29.91
789.744	33.03
789.919	34.83
790.095	35.08
790.271	37.12
790.447	39.96
790.623	39.91
790.799	39.21
790.975	39.78
791.151	41.22
791.327	43.81
791.502	42.84
791.678	41.33
791.854	41.12
792.03	43.49
792.205	41.5
792.381	41.24
792.557	41.27
792.733	43.32
792.908	39.68
793.084	39.74
793.259	40.67
793.435	41.65
793.611	39.91
793.786	41.05
793.962	39.48
794.137	38.5
794.313	37.58
794.488	36.91
794.664	36.14
794.839	36.69
795.015	37.48
795.19	37.84
795.366	36.33
795.541	38.35
795.716	38.39
795.892	37.88
796.067	38.53
796.242	36.32
796.418	35.69
796.593	37.71
796.768	36.66
796.944	38.2
797.119	37.37
797.294	37.31
797.469	35.97
797.644	33.51
797.82	33.27
797.995	33.33
798.17	35.38
798.345	33.31
798.52	32.08
798.695	33.16
798.87	31.44
799.045	30.81
799.22	33.25
799.395	35.78
799.57	39
799.745	41.12
799.92	41.21
800.095	43.06
800.27	47.05
800.445	45.01
800.62	43.66
800.795	42.52
800.97	42.31
801.145	40.63
801.319	39.83
801.494	37.38
801.669	37.22
801.844	39.11
802.018	35.78
802.193	33.91
802.368	35.82
802.543	37.25
802.717	39.05
802.892	38.94
803.067	43.08
803.241	40.24
803.416	41.85
803.59	41.48
803.765	39.89
803.94	43.74
804.114	45.85
804.289	47.36
804.463	47.78
804.638	48.6
804.812	48.33
804.986	46.57
805.161	45.43
805.335	46.09
805.51	47.14
805.684	46.06
805.858	44.13
806.033	43.3
806.207	40.97
806.381	41.47
806.556	40.08
806.73	40.58
806.904	40.07
807.078	44.9
807.253	46.55
807.427	41.45
807.601	41.42
807.775	44.55
807.949	45.45
808.123	43.24
808.298	43.03
808.472	42.79
808.646	44.55
808.82	42.59
808.994	40.88
809.168	35.96
809.342	39.77
809.516	37.93
809.69	34.6
809.864	31.03
810.038	31.07
810.212	28.67
810.385	31.15
810.559	30.56
810.733	29.79
810.907	33.65
811.081	36.04
811.255	31.17
811.428	37.78
811.602	37.79
811.776	41.67
811.95	44.27
812.123	47.1
812.297	44.09
812.471	43.82
812.644	48.11
812.818	40.44
812.992	39.79
813.165	45.22
813.339	42.59
813.512	37.2
813.686	33.72
813.86	35.27
814.033	34.36
814.207	33.47
814.38	35.37
814.554	33.61
814.727	39.93
814.9	35.28
815.074	34.8
815.247	32.73
815.421	40.14
815.594	45.61
815.767	42.98
815.941	45.06
816.114	46.89
816.287	45.46
816.46	49.05
816.634	47.83
816.807	47.69
816.98	45.57
817.153	45.69
817.327	45.85
817.5	42.53
817.673	42.43
817.846	42.93
818.019	40.35
818.192	41.23
818.365	36.04
818.538	37.94
818.711	40.22
818.884	40.14
819.057	42.45
819.23	40.44
819.403	39.05
819.576	41.59
819.749	40.34
819.922	41.83
820.095	40.05
820.268	39.11
820.441	35.08
820.614	35.85
820.786	33.28
820.959	33.03
821.132	32.98
821.305	32.63
821.477	32.33
821.65	32.41
821.823	32.22
821.996	31.3
822.168	31.04
822.341	31.45
822.514	31.52
822.686	32.96
822.859	32.44
823.031	33.08
823.204	33.46
823.376	33.43
823.549	33.8
823.722	33.82
823.894	35.07
824.067	35.58
824.239	35.88
824.411	35.71
824.584	34.49
824.756	34.4
824.929	34.46
825.101	34.37
825.273	34.15
825.446	33.67
825.618	33.96
825.79	34.09
825.963	34.14
826.135	34.98
826.307	36
826.479	37.48
826.652	39.01
826.824	38.71
826.996	38.94
827.168	39.02
827.34	39.14
827.512	39.51
827.684	38.44
827.856	38.15
828.029	38.39
828.201	39.4
828.373	39.02
828.545	39.34
828.717	40.04
828.889	40.17
829.061	41.17
829.232	40.67
829.404	41.74
829.576	43.13
829.748	45.08
829.92	44.76
830.092	44.38
830.264	45.03
830.436	44.51
830.607	43.59
830.779	45.03
830.951	44.78
831.123	46.12
831.294	44.28
831.466	44.06
831.638	42.82
831.809	42.58
831.981	41.43
832.153	42.58
832.324	42.11
832.496	41.78
832.667	37.94
832.839	38.64
833.011	37.5
833.182	35.99
833.354	35.65
833.525	36.66
833.697	34.23
833.868	33.89
834.039	35.15
834.211	34.24
834.382	34.17
834.554	37.62
834.725	34.05
834.896	35.71
835.068	36.13
835.239	35.91
835.41	36.43
835.581	39.09
835.753	39.36
835.924	37.54
836.095	37.64
836.266	36.52
836.438	35.49
836.609	40.79
836.78	40.15
836.951	43.18
837.122	40.65
837.293	37.8
837.464	36.5
837.635	38.54
837.806	37.22
837.977	37.77
838.148	39.13
838.319	37.38
838.49	33.02
838.661	30.78
838.832	27.61
839.003	32.93
839.174	38.64
839.345	41.61
839.516	35.85
839.687	41.7
839.857	38.25
840.028	41.79
840.199	38.49
840.37	41.07
840.54	43.71
840.711	43.24
840.882	41.56
841.053	38.71
841.223	33.76
841.394	37.25
841.564	31.16
841.735	36.43
841.906	31.9
842.076	37.17
842.247	34.98
842.417	35.49
842.588	40.53
842.758	44.15
842.929	48.48
843.099	49.66
843.27	47.08
843.44	51.07
843.611	55.99
843.781	57.32
843.951	63.49
844.122	67.57
844.292	60.89
844.462	56.5
844.633	47.83
844.803	43.99
844.973	50.16
845.144	51.58
845.314	55.76
845.484	44.82
845.654	54.25
845.824	51.6
845.995	51
846.165	50.71
846.335	48.26
846.505	47.85
846.675	41.55
846.845	38.25
847.015	42.43
847.185	33.28
847.355	34.31
847.525	33.8
847.695	25.84
847.865	52.48
848.035	79.18
848.205	80.14
848.375	88.25
848.545	88.25
848.715	79.37
848.884	68
849.054	100.03
849.224	89.87
849.394	71.33
849.564	76.39
849.733	60.22
849.903	54.62
850.073	57.65
850.243	65.68
850.412	74.63
850.582	78.29
850.752	79.17
850.921	61.85
851.091	73.47
851.26	84.8
851.43	84.43
851.599	94.94
851.769	96.61
851.939	79.11
852.108	62.38
852.278	57.32
852.447	52.43
852.616	40.09
852.786	35.38
852.955	14.46
853.125	7.64
853.294	-3.01
853.463	3.5
853.633	4.66
853.802	9.35
853.971	21.17
854.141	22.74
854.31	33.22
854.479	41.3
854.648	38.76
854.818	41.72
854.987	39.2
855.156	52.58
855.325	53.18
855.494	56.88
855.663	70.82
855.832	54.96
856.001	62.54
856.171	56.45
856.34	60.95
856.509	78.14
856.678	88.82
856.847	83.9
857.016	66.73
857.185	55.92
857.353	69.59
857.522	67.42
857.691	70.72
857.86	59.8
858.029	52.54
858.198	36.88
858.367	31.87
858.535	37.43
858.704	51.51
858.873	55.26
859.042	66.05
859.21	62.59
859.379	59.04
859.548	62.43
859.717	52.75
859.885	56.73
860.054	76.34
860.222	66.36
860.391	61.88
860.56	53.57
860.728	62.77
860.897	70.11
861.065	65.53
861.234	71.21
861.402	62.89
861.571	66.73
861.739	81.94
861.908	73.83
862.076	89.12
862.244	95.11
862.413	93.96
862.581	84.26
862.749	73.07
862.918	65.77
863.086	67.76
863.254	73.06
863.423	67.35
863.591	73.89
863.759	64.42
863.927	62.5
864.096	59.59
864.264	66.68
864.432	75.77
864.6	63.27
864.768	69.04
864.936	67.56
865.104	69.51
865.272	79.66
865.44	76.75
865.608	62.12
865.776	67.93
865.944	66.51
866.112	70.1
866.28	61.22
866.448	98.99
866.616	97.16
866.784	90.63
866.952	110.13
867.12	107.18
867.288	105.48
867.455	131.7
867.623	128.91
867.791	124.73
867.959	116.35
868.127	116.78
868.294	99.92
868.462	84.39
868.63	75.52
868.797	64.69
868.965	62.07
869.133	51.66
869.3	50.7
869.468	59.67
869.636	66.01
869.803	61.65
869.971	53.55
870.138	59.07
870.306	83.04
870.473	85.26
870.641	89.75
870.808	98.1
870.975	101.7
871.143	109.21
871.31	102.6
871.478	99.33
871.645	105.09
871.812	110.75
871.98	116.81
872.147	106.29
872.314	126.36
872.482	145.05
872.649	160.76
872.816	129.85
872.983	114.74
873.15	111.97
873.318	123.53
873.485	110.23
873.652	116.2
873.819	105.81
873.986	72.77
874.153	58.51
874.32	48.29
874.487	73.44
874.654	59.47
874.821	71.8
874.988	93.41
875.155	92.24
875.322	88.97
875.489	82.66
875.656	50.71
875.823	101.28
875.99	126.09
876.157	117.95
876.324	70.99
876.49	101.45
876.657	73.74
876.824	47.27
876.991	59.58
877.157	60.5
877.324	49.64
877.491	69.49
877.658	46.61
877.824	40.98
877.991	58.29
878.157	65.93
878.324	64.61
878.491	89.63
878.657	115.84
878.824	109.69
878.99	134.52
879.157	164.96
879.323	107.14
879.49	117.13
879.656	134.32
879.823	94.65
879.989	101.04
880.156	85.83
880.322	75.76
880.488	62.82
880.655	63.86
880.821	66.49
880.987	47.57
881.154	56.61
881.32	46.98
881.486	43.52
881.652	38.07
881.819	36.48
881.985	33.61
882.151	32.49
882.317	32.86
882.483	33.61
882.649	33.52
882.816	34.31
882.982	32.73
883.148	34.21
883.314	34.89
883.48	36.67
883.646	35.5
883.812	38.9
883.978	37.9
884.144	37.23
884.31	36.7
884.476	35.38
884.642	30.17
884.807	31.73
884.973	28.86
885.139	29.5
885.305	29.54
885.471	29.23
885.637	25.67
885.802	24.63
885.968	24.39
886.134	21.86
886.3	23.22
886.465	32.93
886.631	36.73
886.797	38.09
886.962	40.19
887.128	42.01
887.293	44.67
887.459	45.38
887.625	48.72
887.79	49.51
887.956	56.21
888.121	62.72
888.287	62.22
888.452	53.29
888.618	58.49
888.783	54.91
