Data from 2938111_Reflection_3.txt Node
Date: Sat Jul 11 18:25:45 EDT 2015
User: robert
Spectrometer: USB4E03001
Autoset integration time: false
Trigger mode: 4
Integration Time (sec): 1.000000E-1
Scans to average: 10
Electric dark correction enabled: true
Nonlinearity correction enabled: false
Boxcar width: 5
Stray light correction enabled: false
XAxis mode: Wavelengths
Stop averaging: false
Number of Pixels in Spectrum: 3648
>>>>>Begin Spectral Data<<<<<
177.566	154.62
177.785	332.82
178.005	-913.9
178.225	-277.11
178.445	-206.81
178.665	5229.03
178.885	-348.48
179.105	-179.7
179.324	-163.31
179.544	-54.48
179.764	-988.66
179.984	973.97
180.204	-258.59
180.423	3.05
180.643	34.64
180.863	33.81
181.083	52.03
181.302	105.12
181.522	139.91
181.742	207.61
181.961	624.2
182.181	-114.72
182.401	-102.45
182.621	-60.61
182.84	-21.62
183.06	14.49
183.279	-72.07
183.499	-12.24
183.719	18.05
183.938	19.91
184.158	86.07
184.377	-34.13
184.597	-304.15
184.816	-193.89
185.036	-6.19
185.256	11.27
185.475	0.57
185.695	65.38
185.914	43.71
186.134	50.57
186.353	66.18
186.572	181.65
186.792	-136.95
187.011	-197.6
187.231	-151.12
187.45	-35.83
187.67	-48.9
187.889	-56.21
188.108	-81.28
188.328	-46.76
188.547	2.39
188.766	21.45
188.986	181.27
189.205	83.15
189.424	64.87
189.644	46.34
189.863	60.48
190.082	22.36
190.302	-28.33
190.521	-300.93
190.74	-175.28
190.959	-273.56
191.178	328.57
191.398	404.8
191.617	-22.92
191.836	-45.89
192.055	-15.66
192.274	-163.15
192.494	200.06
192.713	278.1
192.932	493.5
193.151	12621.28
193.37	-124620
193.589	248.93
193.808	156.85
194.027	73.18
194.246	18.78
194.465	-8.17
194.685	-53.53
194.904	-194.18
195.123	-214.85
195.342	-60.65
195.561	19.66
195.78	32.14
195.999	35.12
196.218	47.37
196.436	10.97
196.655	16.03
196.874	57.97
197.093	41.45
197.312	46.88
197.531	50
197.75	52.3
197.969	11.58
198.188	-43.88
198.407	23.42
198.625	28.47
198.844	-21.39
199.063	-70.8
199.282	3037.61
199.501	-123.61
199.719	-83.56
199.938	477.14
200.157	236.33
200.376	-73.43
200.594	-439.18
200.813	-725.57
201.032	-74.62
201.251	52.94
201.469	43.05
201.688	37.06
201.907	36.25
202.125	21.06
202.344	74.61
202.563	77.41
202.781	103.36
203	126.68
203.218	134.73
203.437	163.57
203.656	298.34
203.874	335.67
204.093	299.57
204.311	147.97
204.53	109.85
204.748	40.75
204.967	56.77
205.185	77.51
205.404	75.68
205.622	91.22
205.841	139.41
206.059	57.52
206.278	56.64
206.496	45.95
206.715	92.35
206.933	153.1
207.151	-58.24
207.37	94.68
207.588	92.13
207.806	134.6
208.025	407.04
208.243	-260.87
208.461	-259.88
208.68	-201.79
208.898	409.45
209.116	128.42
209.335	108.53
209.553	82.73
209.771	438.59
209.989	393.27
210.208	545.54
210.426	-2576
210.644	-339.77
210.862	-275
211.081	-64.48
211.299	-99.55
211.517	-72.85
211.735	-179.31
211.953	-135.81
212.171	-33.97
212.39	69.02
212.608	64.04
212.826	147.09
213.044	129.89
213.262	135.91
213.48	226.85
213.698	217.42
213.916	235.6
214.134	164.85
214.352	160.1
214.57	197.76
214.788	245.6
215.006	2143.12
215.224	7777.78
215.442	13.48
215.66	-259.02
215.878	-36.15
216.096	-48.16
216.314	2246.32
216.532	3021.43
216.75	-180.01
216.968	-340.74
217.185	-506.46
217.403	-311.3
217.621	-169.05
217.839	-122.48
218.057	-154.29
218.275	3156.32
218.492	697
218.71	145.97
218.928	91.98
219.146	97.32
219.363	98.7
219.581	102.26
219.799	76.31
220.017	54.14
220.234	71.62
220.452	55.61
220.67	63.66
220.887	75.23
221.105	79.91
221.323	83.84
221.54	98.7
221.758	77.84
221.976	51.61
222.193	55.89
222.411	67.58
222.629	61.33
222.846	61.99
223.064	54.25
223.281	32.31
223.499	15.36
223.716	19.76
223.934	3.87
224.151	7.3
224.369	16.5
224.586	6.03
224.804	-13.38
225.021	-39.14
225.239	-55.73
225.456	-58.26
225.674	-62.09
225.891	-61.89
226.108	-44.21
226.326	-28.34
226.543	-49.15
226.76	-27.79
226.978	-18.52
227.195	0.21
227.413	9.77
227.63	7.52
227.847	6
228.064	6.72
228.282	10.47
228.499	8.36
228.716	8.84
228.934	15.72
229.151	16.1
229.368	17.29
229.585	14.96
229.802	12
230.02	15.76
230.237	16.15
230.454	16.6
230.671	18.49
230.888	16.62
231.105	12.83
231.323	8.81
231.54	7.01
231.757	-0.34
231.974	-1.92
232.191	5.75
232.408	2.54
232.625	5.57
232.842	11.98
233.059	9.75
233.276	17.62
233.493	24.82
233.71	23.15
233.927	17.63
234.144	20.82
234.361	26.94
234.578	26.96
234.795	30.77
235.012	31.95
235.229	19.64
235.446	17.55
235.663	8.63
235.879	10.42
236.096	13.51
236.313	17.41
236.53	19.77
236.747	18.69
236.964	17.88
237.181	10.14
237.397	6.12
237.614	10.85
237.831	15.98
238.048	12.31
238.264	1.98
238.481	-1.81
238.698	-8.74
238.915	-10.02
239.131	-12.77
239.348	-11.19
239.565	2.32
239.781	7.81
239.998	8.58
240.215	9.25
240.431	10.39
240.648	11.72
240.865	12.66
241.081	14.93
241.298	15.46
241.514	17.59
241.731	15.42
241.947	13.25
242.164	11.17
242.38	10.68
242.597	8.69
242.814	8.05
243.03	8.13
243.246	6.59
243.463	5.85
243.679	4.8
243.896	1.18
244.112	2.19
244.329	-0.89
244.545	-0.61
244.762	-0.8
244.978	-1.26
245.194	0.6
245.411	3.64
245.627	6.61
245.843	6.68
246.06	7.14
246.276	9.9
246.492	10.59
246.709	10.93
246.925	11.15
247.141	11.33
247.357	11.82
247.574	11.19
247.79	10.93
248.006	9.78
248.222	10.75
248.439	10.5
248.655	8.26
248.871	7.45
249.087	7.95
249.303	6.3
249.519	3.85
249.736	2.58
249.952	2.91
250.168	-0.23
250.384	0.69
250.6	-0.57
250.816	1.64
251.032	2.77
251.248	0.98
251.464	0.35
251.68	1.35
251.896	3.46
252.112	4.66
252.328	6.74
252.544	7.65
252.76	6.99
252.976	7.4
253.192	8.22
253.408	8.34
253.624	9.37
253.84	9.33
254.056	9.42
254.272	13.14
254.487	15.88
254.703	13.54
254.919	15.18
255.135	18.08
255.351	18.22
255.567	21.01
255.782	20.34
255.998	18.3
256.214	18.25
256.43	20.48
256.646	16.35
256.861	12.33
257.077	11.32
257.293	9.46
257.508	7.5
257.724	4.09
257.94	1.58
258.155	2.63
258.371	2.81
258.587	3.97
258.802	2.75
259.018	4.57
259.234	5.67
259.449	7.27
259.665	6.94
259.88	6.83
260.096	8.1
260.312	7.34
260.527	8.04
260.743	9.01
260.958	8.46
261.174	8.19
261.389	7.18
261.605	6.88
261.82	4.83
262.036	5.06
262.251	5.45
262.466	4.61
262.682	3.53
262.897	2.24
263.113	1.02
263.328	0.84
263.543	3.05
263.759	5.2
263.974	4.18
264.189	6.66
264.405	6
264.62	6.71
264.835	6.4
265.051	10.36
265.266	9.67
265.481	8.95
265.696	7.82
265.912	6.02
266.127	2.05
266.342	2.54
266.557	3.33
266.773	1.89
266.988	1.49
267.203	1.32
267.418	-2.33
267.633	-0.93
267.848	-1.6
268.064	-1.12
268.279	-1.67
268.494	-1.29
268.709	-1.23
268.924	-4.32
269.139	-0.81
269.354	-1.22
269.569	-1.06
269.784	3.13
269.999	3.4
270.214	4.66
270.429	4.41
270.644	7.23
270.859	8.56
271.074	7.87
271.289	9.88
271.504	8.65
271.719	8.56
271.934	8.5
272.149	5.36
272.363	4.44
272.578	4.82
272.793	5.77
273.008	4.92
273.223	4.72
273.438	5.59
273.653	3.96
273.867	3.05
274.082	3.09
274.297	4.08
274.512	6.12
274.726	6.19
274.941	7.2
275.156	6.07
275.371	6.39
275.585	5.81
275.8	4.53
276.015	6.02
276.229	5.8
276.444	5.22
276.659	3.9
276.873	3.67
277.088	5.13
277.302	4.39
277.517	5.45
277.732	4.25
277.946	4.68
278.161	6.93
278.375	7.69
278.59	10.62
278.804	11.37
279.019	7.97
279.233	8.13
279.448	6.35
279.662	5.8
279.877	5.98
280.091	8.54
280.306	9.1
280.52	7.32
280.735	5.19
280.949	5.48
281.163	5.47
281.378	8.75
281.592	8.82
281.806	10.94
282.021	10.2
282.235	10.76
282.449	10.15
282.664	10.25
282.878	10.62
283.092	13.52
283.307	13.01
283.521	13.35
283.735	11.95
283.949	11.55
284.164	8.54
284.378	8.88
284.592	7.77
284.806	6.03
285.02	6.02
285.234	5.87
285.449	4.84
285.663	4.29
285.877	3.45
286.091	5.11
286.305	5.66
286.519	8.15
286.733	8.73
286.947	8.32
287.161	9.31
287.375	10.35
287.589	10.47
287.803	10.95
288.017	9.71
288.231	8.77
288.445	8.27
288.659	7.08
288.873	5.45
289.087	5.68
289.301	7.35
289.515	6.61
289.729	6.1
289.943	6.12
290.157	5.34
290.371	6.55
290.584	7.32
290.798	8.44
291.012	7.84
291.226	8.51
291.44	6.75
291.654	5.94
291.867	5.49
292.081	6.04
292.295	5.01
292.509	5.42
292.722	4.64
292.936	5.93
293.15	5.09
293.364	7.1
293.577	7.24
293.791	8.69
294.005	9.13
294.218	10.2
294.432	9.98
294.645	9.42
294.859	11.06
295.073	11.31
295.286	10.37
295.5	8.89
295.713	7.74
295.927	10.25
296.14	9.99
296.354	10.78
296.568	11.35
296.781	11.33
296.994	13.59
297.208	11.45
297.421	11.28
297.635	10.6
297.848	11.96
298.062	13.21
298.275	11.5
298.489	11
298.702	11.1
298.915	10.65
299.129	9.29
299.342	8.8
299.555	9.3
299.769	9.36
299.982	9.98
300.195	8.53
300.409	8.15
300.622	6.96
300.835	6.99
301.048	6.53
301.262	8.54
301.475	11.61
301.688	10.75
301.901	12.2
302.115	13.53
302.328	14.22
302.541	17.89
302.754	16.23
302.967	18.3
303.18	20.25
303.393	19.16
303.607	18.73
303.82	18.43
304.033	19.21
304.246	18.55
304.459	18.5
304.672	18.63
304.885	15.15
305.098	16.56
305.311	16.09
305.524	15.79
305.737	17.17
305.95	16.67
306.163	13.46
306.376	13.68
306.589	14.26
306.802	12.32
307.015	11.24
307.228	13.97
307.44	13.55
307.653	13.31
307.866	12.98
308.079	11.66
308.292	11.22
308.505	12.54
308.718	11.03
308.93	11.87
309.143	13.92
309.356	15.82
309.569	14.23
309.781	13.78
309.994	13.03
310.207	12.38
310.42	12.96
310.632	13.81
310.845	14.05
311.058	14.14
311.27	14.31
311.483	13.35
311.696	13.24
311.908	13.58
312.121	14.28
312.333	14.87
312.546	14.78
312.759	15.55
312.971	14.22
313.184	15.99
313.396	17.11
313.609	14.38
313.821	13.78
314.034	14.67
314.246	14.39
314.459	14.87
314.671	14.82
314.884	15.92
315.096	15.71
315.309	16.43
315.521	16
315.733	16.07
315.946	18.98
316.158	22.35
316.371	21.19
316.583	21.88
316.795	21.59
317.008	20.55
317.22	20.99
317.432	20.6
317.644	20
317.857	16.72
318.069	17.28
318.281	16.66
318.494	14.47
318.706	12.94
318.918	12.91
319.13	13.23
319.342	13.61
319.555	12.74
319.767	13.39
319.979	13.17
320.191	15.27
320.403	12.95
320.615	12.96
320.827	14.26
321.039	14.35
321.252	15.16
321.464	13.81
321.676	13.98
321.888	13.27
322.1	12.69
322.312	13.09
322.524	11.64
322.736	14.27
322.948	13.86
323.16	12.47
323.372	13.81
323.584	12.58
323.796	14.34
324.007	14.45
324.219	15.44
324.431	15.15
324.643	15.16
324.855	16.21
325.067	16.31
325.279	17.19
325.491	19.04
325.702	19.59
325.914	20.75
326.126	20.47
326.338	19.62
326.55	20.05
326.761	20.92
326.973	21.43
327.185	22.05
327.396	21.4
327.608	20.86
327.82	22.77
328.032	21.91
328.243	21.1
328.455	23.32
328.666	25.21
328.878	25.17
329.09	26.44
329.301	27.5
329.513	29.14
329.725	30.53
329.936	30.03
330.148	28.42
330.359	30.11
330.571	31.89
330.782	30.68
330.994	29.87
331.205	32.24
331.417	30.6
331.628	31.81
331.84	31.67
332.051	31
332.262	33.99
332.474	32.64
332.685	33.68
332.897	34.16
333.108	35.06
333.319	36.47
333.531	35.17
333.742	36.47
333.953	37
334.165	37.34
334.376	38.13
334.587	36.98
334.799	39.4
335.01	40.34
335.221	40.29
335.432	40.35
335.644	40.86
335.855	41.17
336.066	42.26
336.277	42.51
336.488	42.43
336.7	41.63
336.911	41.3
337.122	41.11
337.333	39.96
337.544	39.2
337.755	39.38
337.966	38.92
338.177	39.78
338.388	39.31
338.599	39.01
338.811	38.21
339.022	40.25
339.233	40
339.444	39.43
339.655	37.94
339.866	39.43
340.076	38.38
340.287	38.44
340.498	39.52
340.709	39.74
340.92	39.95
341.131	40.77
341.342	39.3
341.553	40.43
341.764	40.09
341.975	42.67
342.185	41.54
342.396	43.06
342.607	43.7
342.818	43.47
343.029	43.27
343.239	43.73
343.45	43.11
343.661	43.4
343.872	43.68
344.082	45.1
344.293	44.9
344.504	45.97
344.714	44.85
344.925	45.99
345.136	45.38
345.346	44.55
345.557	43.26
345.768	43.48
345.978	45.08
346.189	44.87
346.399	44.56
346.61	43.91
346.821	44.03
347.031	45.54
347.242	44.86
347.452	44.02
347.663	45.17
347.873	48.2
348.084	48.47
348.294	46.71
348.504	48.6
348.715	48.37
348.925	49.65
349.136	48.72
349.346	48.76
349.557	48.29
349.767	50.03
349.977	49.74
350.188	46.25
350.398	45.69
350.608	46.27
350.819	44.26
351.029	43.43
351.239	42.61
351.449	42.91
351.66	42.42
351.87	42.78
352.08	42.73
352.29	43.2
352.501	43.79
352.711	44.62
352.921	45.71
353.131	45.7
353.341	46.25
353.552	46.13
353.762	44.97
353.972	44.87
354.182	45.53
354.392	44.5
354.602	43.79
354.812	44.39
355.022	44.13
355.232	44.62
355.442	44.51
355.652	43.66
355.862	43.51
356.072	44.6
356.282	44.82
356.492	44.34
356.702	44.32
356.912	44.69
357.122	43.82
357.332	44.47
357.542	42.66
357.752	43.27
357.962	43.65
358.171	43.36
358.381	43.48
358.591	43.38
358.801	42.05
359.011	42.71
359.221	43.31
359.43	44.8
359.64	45.27
359.85	44.98
360.06	44.99
360.269	45.43
360.479	46.85
360.689	46.93
360.899	46.09
361.108	46.47
361.318	45.82
361.528	45.15
361.737	44.88
361.947	44.32
362.156	45.58
362.366	45.13
362.576	45.29
362.785	43.98
362.995	43.75
363.204	43.59
363.414	44
363.623	44.41
363.833	43.99
364.042	42.79
364.252	42.68
364.461	42.57
364.671	42.7
364.88	42.64
365.09	43.27
365.299	43.27
365.509	44.3
365.718	43.19
365.927	42.85
366.137	44.35
366.346	46.17
366.555	45.63
366.765	44.82
366.974	44.68
367.183	44.38
367.393	45.03
367.602	44.1
367.811	44.25
368.021	44.84
368.23	45.27
368.439	44.43
368.648	43.35
368.857	43.66
369.067	42.88
369.276	43.28
369.485	43.09
369.694	41.35
369.903	41.69
370.112	40.19
370.321	40.53
370.531	40.13
370.74	40.42
370.949	40.96
371.158	40.29
371.367	41.15
371.576	40.57
371.785	40.5
371.994	41.44
372.203	41.65
372.412	41.76
372.621	41.27
372.83	41.56
373.039	40.84
373.248	40.1
373.457	40.89
373.666	40.48
373.874	40.66
374.083	40.56
374.292	40.08
374.501	38.91
374.71	39.09
374.919	39.46
375.128	38.76
375.336	38.63
375.545	38.59
375.754	37.88
375.963	37.65
376.171	37.06
376.38	37.01
376.589	37.07
376.798	37.69
377.006	37.72
377.215	37.7
377.424	37.4
377.632	38.42
377.841	38.41
378.05	38.67
378.258	38.45
378.467	38.51
378.675	38.92
378.884	38.87
379.093	38.81
379.301	38.71
379.51	38.2
379.718	37.83
379.927	36.42
380.135	36.14
380.344	36.68
380.552	36.97
380.761	36.65
380.969	36.4
381.177	36.62
381.386	36.2
381.594	35.78
381.803	35.51
382.011	35.56
382.219	35.85
382.428	35.63
382.636	34.9
382.845	34.14
383.053	34.28
383.261	33.99
383.469	33.61
383.678	33.99
383.886	34.03
384.094	34.12
384.302	34.36
384.511	34.08
384.719	33.43
384.927	32.91
385.135	32.94
385.343	32.9
385.552	32.03
385.76	31.79
385.968	31.3
386.176	31.68
386.384	31.25
386.592	31.16
386.8	31
387.008	30.97
387.216	30.78
387.424	30.36
387.633	29.95
387.841	30.94
388.049	30.66
388.257	30.87
388.465	29.97
388.672	29.92
388.88	29.21
389.088	29.37
389.296	29.3
389.504	29.18
389.712	29.68
389.92	30.03
390.128	28.77
390.336	28.66
390.544	28.3
390.751	28.75
390.959	28.75
391.167	28.78
391.375	28.63
391.583	28.93
391.79	29.08
391.998	28.65
392.206	28.41
392.414	28.49
392.621	28.43
392.829	28.26
393.037	27.92
393.244	27.65
393.452	27.55
393.66	27.54
393.867	27.54
394.075	27.22
394.283	27.38
394.49	27.51
394.698	27.74
394.905	27.84
395.113	27.8
395.32	27.65
395.528	27.97
395.735	28.33
395.943	28.17
396.15	28
396.358	28.3
396.565	28.23
396.773	27.97
396.98	28.19
397.188	27.96
397.395	28.21
397.602	28.2
397.81	28.23
398.017	28.42
398.225	28.48
398.432	28.35
398.639	28.09
398.847	27.88
399.054	27.74
399.261	27.46
399.468	27.48
399.676	27.54
399.883	27.61
400.09	27.46
400.297	27.16
400.505	27.14
400.712	27.28
400.919	27.46
401.126	27.94
401.333	28.3
401.54	28.57
401.748	28.81
401.955	28.43
402.162	28.3
402.369	28.22
402.576	27.98
402.783	27.63
402.99	27.59
403.197	27.57
403.404	27.47
403.611	26.93
403.818	26.62
404.025	26.57
404.232	26.95
404.439	27.04
404.646	27.18
404.853	27.55
405.06	27.61
405.267	27.54
405.474	27.61
405.681	27.43
405.887	27.58
406.094	27.7
406.301	27.51
406.508	27.33
406.715	27.49
406.922	27.59
407.128	27.34
407.335	27.42
407.542	27.53
407.749	27.3
407.955	27.21
408.162	27.53
408.369	27.38
408.575	27.38
408.782	27.18
408.989	27.17
409.195	26.77
409.402	26.78
409.609	26.5
409.815	26.37
410.022	26.45
410.228	26.61
410.435	26.38
410.642	26.54
410.848	26.44
411.055	26.61
411.261	26.42
411.468	26.45
411.674	26.05
411.881	26.26
412.087	26.38
412.294	26.24
412.5	25.94
412.706	25.89
412.913	25.73
413.119	25.92
413.326	25.8
413.532	25.72
413.738	25.87
413.945	26.07
414.151	26.04
414.357	25.84
414.564	25.95
414.77	26.08
414.976	26.32
415.182	26.33
415.389	25.96
415.595	26.1
415.801	26.24
416.007	26.28
416.214	26.28
416.42	26.15
416.626	26.05
416.832	26.27
417.038	26.06
417.244	25.85
417.45	25.77
417.657	25.83
417.863	25.7
418.069	25.71
418.275	25.61
418.481	25.7
418.687	25.84
418.893	25.99
419.099	25.7
419.305	25.78
419.511	25.76
419.717	25.89
419.923	25.91
420.129	25.81
420.335	25.68
420.541	25.68
420.746	25.61
420.952	25.55
421.158	25.65
421.364	25.7
421.57	25.58
421.776	25.54
421.982	25.46
422.187	25.58
422.393	25.62
422.599	25.68
422.805	25.55
423.01	25.45
423.216	25.53
423.422	25.27
423.628	25.16
423.833	25.23
424.039	25.31
424.245	25.23
424.45	25.09
424.656	25.09
424.862	25.13
425.067	25.31
425.273	25.37
425.478	25.37
425.684	25.41
425.889	25.52
426.095	25.6
426.301	25.6
426.506	25.54
426.712	25.53
426.917	25.47
427.123	25.45
427.328	25.25
427.533	25.11
427.739	24.88
427.944	24.92
428.15	24.73
428.355	24.54
428.561	24.47
428.766	24.6
428.971	24.56
429.177	24.6
429.382	24.47
429.587	24.5
429.793	24.5
429.998	24.62
430.203	24.39
430.408	24.61
430.614	24.81
430.819	24.71
431.024	24.53
431.229	24.94
431.434	25.16
431.64	25.25
431.845	25.21
432.05	25.44
432.255	25.39
432.46	25.46
432.665	25.37
432.87	25.24
433.076	25.33
433.281	25.41
433.486	25.16
433.691	25.01
433.896	24.95
434.101	25
434.306	25
434.511	25.12
434.716	25.26
434.921	25.31
435.126	25.47
435.331	25.43
435.535	25.42
435.74	25.32
435.945	25.07
436.15	24.98
436.355	24.86
436.56	24.75
436.765	24.84
436.97	24.79
437.174	24.77
437.379	24.58
437.584	24.47
437.789	24.53
437.993	24.6
438.198	24.8
438.403	24.69
438.608	24.79
438.812	24.7
439.017	24.38
439.222	24.2
439.426	24.33
439.631	24.46
439.836	24.41
440.04	24.4
440.245	24.34
440.45	24.33
440.654	24.52
440.859	24.39
441.063	24.59
441.268	24.64
441.472	24.71
441.677	24.69
441.881	24.67
442.086	24.79
442.29	24.81
442.495	24.83
442.699	24.74
442.904	24.64
443.108	24.72
443.312	24.38
443.517	24.32
443.721	24.32
443.925	24.08
444.13	24.08
444.334	23.99
444.538	23.81
444.743	24.07
444.947	24.23
445.151	24.2
445.356	24.21
445.56	24.29
445.764	24.28
445.968	24.39
446.173	24.61
446.377	24.57
446.581	24.65
446.785	24.62
446.989	24.34
447.193	24.36
447.398	24.43
447.602	24.45
447.806	24.55
448.01	24.62
448.214	24.54
448.418	24.33
448.622	24.35
448.826	24.22
449.03	24.33
449.234	24.38
449.438	24.26
449.642	24.29
449.846	24.27
450.05	24.08
450.254	24.18
450.458	24.31
450.662	24.3
450.866	24.1
451.069	23.98
451.273	24.1
451.477	24.19
451.681	24.26
451.885	24.1
452.089	24.12
452.292	24.28
452.496	23.95
452.7	23.68
452.904	23.62
453.107	23.61
453.311	23.72
453.515	23.57
453.719	23.53
453.922	23.34
454.126	23.31
454.33	23.33
454.533	23.19
454.737	23.31
454.94	23.5
455.144	23.76
455.348	24.15
455.551	24.27
455.755	24.44
455.958	24.64
456.162	24.65
456.365	24.78
456.569	24.55
456.772	24.71
456.976	24.82
457.179	24.5
457.383	24.52
457.586	24.26
457.79	24.17
457.993	24.09
458.196	23.92
458.4	23.99
458.603	24.02
458.807	24.14
459.01	24.03
459.213	23.99
459.417	23.99
459.62	23.94
459.823	23.9
460.026	23.83
460.23	23.7
460.433	23.6
460.636	23.48
460.839	23.47
461.042	23.36
461.246	23.32
461.449	23.2
461.652	23.3
461.855	23.16
462.058	22.93
462.261	23.12
462.464	23.33
462.668	23.5
462.871	23.49
463.074	23.43
463.277	23.6
463.48	23.6
463.683	23.89
463.886	23.97
464.089	24.05
464.292	24.43
464.495	24.25
464.698	24.17
464.901	24.1
465.104	24.13
465.306	24.03
465.509	23.99
465.712	24.01
465.915	23.87
466.118	23.82
466.321	23.69
466.524	23.7
466.726	23.75
466.929	23.97
467.132	24.03
467.335	24.21
467.538	24.28
467.74	24.4
467.943	24.44
468.146	24.54
468.348	24.57
468.551	24.77
468.754	24.66
468.956	24.71
469.159	24.46
469.362	24.6
469.564	24.55
469.767	24.59
469.969	24.39
470.172	24.53
470.375	24.46
470.577	24.43
470.78	24.32
470.982	24.48
471.185	24.45
471.387	24.71
471.59	24.62
471.792	24.77
471.995	24.79
472.197	25.01
472.399	24.93
472.602	25.08
472.804	25
473.007	25.04
473.209	24.92
473.411	25.03
473.614	24.79
473.816	24.56
474.018	24.55
474.22	24.49
474.423	24.48
474.625	24.57
474.827	24.3
475.03	24.37
475.232	24.44
475.434	24.47
475.636	24.32
475.838	24.38
476.04	24.49
476.243	24.39
476.445	24.51
476.647	24.46
476.849	24.45
477.051	24.6
477.253	24.62
477.455	24.46
477.657	24.64
477.859	24.62
478.061	24.64
478.263	24.61
478.465	24.75
478.667	24.42
478.869	24.38
479.071	24.22
479.273	24.19
479.475	24.3
479.677	24.49
479.879	24.45
480.081	24.61
480.283	24.58
480.485	24.56
480.686	24.36
480.888	24.59
481.09	24.45
481.292	24.44
481.494	24.41
481.695	24.33
481.897	24.16
482.099	24.21
482.301	24.2
482.502	24.25
482.704	24.32
482.906	24.33
483.107	24.39
483.309	24.48
483.511	24.51
483.712	24.54
483.914	24.54
484.115	24.59
484.317	24.58
484.519	24.58
484.72	24.55
484.922	24.5
485.123	24.57
485.325	24.55
485.526	24.53
485.728	24.52
485.929	24.55
486.131	24.57
486.332	24.54
486.534	24.38
486.735	24.41
486.936	24.45
487.138	24.52
487.339	24.41
487.541	24.38
487.742	24.43
487.943	24.43
488.144	24.36
488.346	24.35
488.547	24.42
488.748	24.52
488.95	24.54
489.151	24.5
489.352	24.42
489.553	24.54
489.755	24.59
489.956	24.52
490.157	24.54
490.358	24.51
490.559	24.54
490.76	24.41
490.961	24.38
491.163	24.3
491.364	24.35
491.565	24.47
491.766	24.45
491.967	24.42
492.168	24.47
492.369	24.46
492.57	24.52
492.771	24.54
492.972	24.66
493.173	24.63
493.374	24.68
493.575	24.63
493.776	24.59
493.976	24.58
494.177	24.69
494.378	24.65
494.579	24.74
494.78	24.64
494.981	24.6
495.182	24.51
495.382	24.64
495.583	24.66
495.784	24.75
495.985	24.78
496.185	24.76
496.386	24.8
496.587	24.9
496.788	24.87
496.988	25.06
497.189	25.08
497.39	24.97
497.59	24.96
497.791	24.88
497.992	24.91
498.192	25.02
498.393	25.08
498.593	25.09
498.794	25.04
498.994	25.03
499.195	24.92
499.395	25.08
499.596	25.31
499.796	25.39
499.997	25.55
500.197	25.55
500.398	25.55
500.598	25.55
500.799	25.52
500.999	25.69
501.199	25.86
501.4	25.97
501.6	25.96
501.801	26.05
502.001	26.16
502.201	26.14
502.402	26.08
502.602	25.97
502.802	26.2
503.002	26.22
503.203	26.14
503.403	26.17
503.603	26.19
503.803	26.22
504.003	26.2
504.204	26.15
504.404	26.12
504.604	26.32
504.804	26.38
505.004	26.24
505.204	26.07
505.404	26.08
505.604	25.96
505.804	26.04
506.005	26.1
506.205	26.01
506.405	26.16
506.605	26.3
506.805	26.37
507.005	26.45
507.204	26.56
507.404	26.79
507.604	26.96
507.804	26.92
508.004	26.91
508.204	26.84
508.404	27.14
508.604	27.15
508.804	27.31
509.003	27.26
509.203	27.41
509.403	27.48
509.603	27.55
509.803	27.59
510.002	27.82
510.202	27.95
510.402	28.13
510.602	28.2
510.801	28.32
511.001	28.25
511.201	28.33
511.4	28.38
511.6	28.38
511.8	28.41
511.999	28.43
512.199	28.41
512.398	28.43
512.598	28.3
512.797	28.16
512.997	28.07
513.197	28.15
513.396	28.22
513.596	28.27
513.795	28.37
513.994	28.45
514.194	28.55
514.393	28.62
514.593	28.7
514.792	28.84
514.992	29.11
515.191	29.27
515.39	29.38
515.59	29.56
515.789	29.59
515.988	29.69
516.188	29.79
516.387	29.81
516.586	29.98
516.786	30.06
516.985	30.17
517.184	30.09
517.383	30.13
517.582	30.14
517.782	30.08
517.981	30.14
518.18	30.23
518.379	30.31
518.578	30.36
518.777	30.4
518.976	30.43
519.176	30.39
519.375	30.46
519.574	30.55
519.773	30.56
519.972	30.58
520.171	30.6
520.37	30.65
520.569	30.68
520.768	30.74
520.967	30.89
521.166	30.86
521.365	31.15
521.564	31.33
521.762	31.39
521.961	31.42
522.16	31.55
522.359	31.71
522.558	31.64
522.757	31.72
522.956	31.65
523.154	31.49
523.353	31.68
523.552	31.35
523.751	31.18
523.949	31.2
524.148	31.32
524.347	31.32
524.546	31.16
524.744	31.08
524.943	30.95
525.142	31.07
525.34	31.19
525.539	31.22
525.737	31.42
525.936	31.54
526.135	31.37
526.333	31.37
526.532	31.46
526.73	31.68
526.929	31.88
527.127	31.95
527.326	32.05
527.524	32.07
527.723	32.09
527.921	32.07
528.12	32.08
528.318	32.2
528.516	32.26
528.715	32.27
528.913	32.27
529.112	32.31
529.31	32.39
529.508	32.36
529.707	32.41
529.905	32.46
530.103	32.51
530.301	32.58
530.5	32.61
530.698	32.65
530.896	32.73
531.094	32.72
531.293	32.73
531.491	32.71
531.689	32.81
531.887	32.82
532.085	32.87
532.283	32.88
532.481	32.87
532.68	32.93
532.878	32.99
533.076	32.91
533.274	32.96
533.472	32.95
533.67	32.97
533.868	33
534.066	32.93
534.264	32.88
534.462	33.03
534.66	33.09
534.858	33.16
535.056	33.2
535.253	33.29
535.451	33.35
535.649	33.43
535.847	33.52
536.045	33.38
536.243	33.51
536.441	33.61
536.638	33.46
536.836	33.48
537.034	33.32
537.232	33.29
537.43	33.29
537.627	33.37
537.825	33.33
538.023	33.4
538.22	33.54
538.418	33.69
538.616	33.8
538.813	33.89
539.011	33.92
539.209	34.17
539.406	34.24
539.604	34.3
539.801	34.09
539.999	34.19
540.196	34.3
540.394	34.38
540.591	34.32
540.789	34.28
540.986	34.47
541.184	34.54
541.381	34.56
541.579	34.59
541.776	34.64
541.974	34.76
542.171	34.78
542.368	34.72
542.566	34.77
542.763	34.82
542.96	34.87
543.158	34.81
543.355	34.78
543.552	34.86
543.75	34.95
543.947	35.01
544.144	35.02
544.341	35.11
544.539	35.27
544.736	35.32
544.933	35.27
545.13	35.29
545.327	35.23
545.524	35.3
545.722	35.33
545.919	35.24
546.116	35.25
546.313	35.32
546.51	35.27
546.707	35.08
546.904	34.98
547.101	35.11
547.298	35.04
547.495	35.11
547.692	35.21
547.889	35.12
548.086	35.17
548.283	35.02
548.48	35.01
548.677	34.98
548.874	35.11
549.07	35.07
549.267	35.01
549.464	35.07
549.661	34.96
549.858	34.96
550.055	34.95
550.251	34.82
550.448	34.86
550.645	34.76
550.842	34.91
551.038	34.84
551.235	34.89
551.432	34.81
551.628	34.92
551.825	35.01
552.022	34.86
552.218	34.76
552.415	34.91
552.612	34.95
552.808	35.02
553.005	34.96
553.201	35.02
553.398	35.1
553.594	35.2
553.791	35.09
553.987	35.06
554.184	35.08
554.38	35
554.577	34.88
554.773	35.05
554.97	35.04
555.166	34.99
555.362	34.9
555.559	34.8
555.755	34.61
555.952	34.6
556.148	34.63
556.344	34.49
556.541	34.69
556.737	34.78
556.933	34.63
557.129	34.63
557.326	34.69
557.522	34.69
557.718	34.58
557.914	34.63
558.11	34.52
558.307	34.51
558.503	34.49
558.699	34.31
558.895	34.21
559.091	33.94
559.287	34.13
559.483	33.99
559.679	33.89
559.876	34.25
560.072	34.32
560.268	34.52
560.464	34.68
560.66	34.65
560.856	34.67
561.052	34.78
561.247	34.89
561.443	34.89
561.639	35.04
561.835	35.24
562.031	35.01
562.227	35.06
562.423	34.98
562.619	34.8
562.815	35.08
563.01	35.37
563.206	35.4
563.402	35.48
563.598	35.24
563.793	35.11
563.989	35.15
564.185	35.15
564.381	35.17
564.576	34.88
564.772	34.89
564.968	34.77
565.163	34.6
565.359	34.53
565.555	34.66
565.75	34.85
565.946	35.01
566.141	35
566.337	35.05
566.532	35.01
566.728	35.46
566.923	35.49
567.119	35.71
567.314	35.79
567.51	35.74
567.705	35.68
567.901	35.66
568.096	35.55
568.292	35.52
568.487	35.64
568.682	35.47
568.878	35.14
569.073	35.12
569.268	34.9
569.464	34.94
569.659	35.15
569.854	35.08
570.05	35
570.245	35.09
570.44	35.19
570.635	35.28
570.831	35.54
571.026	35.72
571.221	35.83
571.416	35.81
571.611	35.56
571.806	35.42
572.002	35.41
572.197	35.47
572.392	35.59
572.587	35.57
572.782	35.5
572.977	35.47
573.172	35.32
573.367	35.29
573.562	35.37
573.757	35.61
573.952	35.64
574.147	35.83
574.342	35.89
574.537	35.84
574.732	35.93
574.927	35.75
575.121	35.85
575.316	36.11
575.511	36.19
575.706	36.32
575.901	36.33
576.096	36.64
576.29	36.56
576.485	36.58
576.68	36.44
576.875	36.24
577.069	36.23
577.264	36.28
577.459	36.2
577.654	36.05
577.848	35.89
578.043	35.9
578.238	35.8
578.432	35.84
578.627	35.9
578.821	36.09
579.016	36.19
579.21	36.39
579.405	36.49
579.6	36.66
579.794	36.83
579.989	36.88
580.183	36.57
580.378	36.23
580.572	36.27
580.766	36.25
580.961	36.26
581.155	36.31
581.35	36.22
581.544	35.99
581.738	35.81
581.933	35.66
582.127	35.61
582.321	36.03
582.516	36.28
582.71	36.34
582.904	36.2
583.099	36.01
583.293	36.05
583.487	36.09
583.681	36.37
583.875	36.24
584.07	36.45
584.264	36.66
584.458	36.43
584.652	36.57
584.846	36.55
585.04	36.43
585.234	36.34
585.428	36.55
585.623	36.68
585.817	36.55
586.011	36.65
586.205	36.32
586.399	36.31
586.593	36.41
586.787	36.3
586.981	36.44
587.174	36.57
587.368	36.89
587.562	36.79
587.756	36.86
587.95	37.01
588.144	36.97
588.338	37.37
588.532	37.29
588.725	37.61
588.919	37.24
589.113	37.03
589.307	37.01
589.501	36.82
589.694	36.76
589.888	36.62
590.082	36.45
590.275	36.39
590.469	36.32
590.663	36.1
590.856	35.89
591.05	35.96
591.244	35.96
591.437	36.03
591.631	36.08
591.824	36
592.018	35.93
592.212	35.85
592.405	36.17
592.599	36.11
592.792	36.32
592.986	36.43
593.179	36.74
593.372	36.71
593.566	36.7
593.759	36.8
593.953	36.83
594.146	36.99
594.339	37.05
594.533	36.86
594.726	36.71
594.92	36.7
595.113	36.65
595.306	36.6
595.499	36.66
595.693	36.67
595.886	36.46
596.079	36.6
596.272	36.78
596.466	36.98
596.659	37
596.852	37.04
597.045	36.87
597.238	36.99
597.431	36.99
597.624	37.1
597.818	37.03
598.011	37.09
598.204	37.02
598.397	36.84
598.59	36.48
598.783	36.58
598.976	36.62
599.169	36.82
599.362	36.73
599.555	36.57
599.748	36.13
599.941	36.33
600.134	36.47
600.326	36.23
600.519	35.94
600.712	36.04
600.905	36.09
601.098	36.13
601.291	36
601.483	36.13
601.676	36.11
601.869	36.36
602.062	36.4
602.255	36.38
602.447	36.54
602.64	36.57
602.833	36.61
603.025	36.59
603.218	36.72
603.411	36.86
603.603	36.7
603.796	36.82
603.989	36.83
604.181	36.61
604.374	36.72
604.566	36.81
604.759	37.01
604.951	37.02
605.144	36.83
605.336	36.69
605.529	36.65
605.721	36.53
605.914	36.55
606.106	36.77
606.299	37.06
606.491	37.03
606.683	37.07
606.876	36.95
607.068	36.97
607.26	37.21
607.453	37.19
607.645	37.21
607.837	37.46
608.03	37.58
608.222	37.45
608.414	37.37
608.606	37.49
608.799	37.42
608.991	37.6
609.183	37.82
609.375	37.97
609.567	38.27
609.759	38.45
609.952	38.88
610.144	39.03
610.336	39.04
610.528	39.3
610.72	39.45
610.912	39.65
611.104	39.85
611.296	39.79
611.488	39.88
611.68	39.73
611.872	39.86
612.064	39.64
612.256	39.61
612.448	39.76
612.64	39.48
612.832	39.3
613.023	39.09
613.215	38.97
613.407	39.06
613.599	38.94
613.791	39.06
613.983	39
614.174	38.82
614.366	38.78
614.558	38.8
614.75	38.87
614.941	38.78
615.133	38.68
615.325	38.62
615.516	38.24
615.708	38.11
615.9	37.91
616.091	37.55
616.283	37.25
616.475	37.22
616.666	37.19
616.858	37.04
617.049	37.06
617.241	37.33
617.432	37.16
617.624	37.51
617.815	37.39
618.007	37.27
618.198	37.43
618.39	37.7
618.581	37.32
618.773	37.1
618.964	37.02
619.155	37.13
619.347	37.07
619.538	37.27
619.729	37.23
619.921	37.11
620.112	37.39
620.303	37.2
620.494	37.19
620.686	37.55
620.877	37.6
621.068	37.92
621.259	37.66
621.451	37.54
621.642	37.51
621.833	37.33
622.024	37.31
622.215	37.14
622.406	37.08
622.597	37.24
622.788	36.97
622.98	36.59
623.171	36.26
623.362	36.36
623.553	36.49
623.744	36.34
623.935	36.61
624.126	36.83
624.317	36.95
624.508	37.19
624.698	36.87
624.889	37.25
625.08	37.84
625.271	38.25
625.462	37.82
625.653	37.69
625.844	37.83
626.034	37.31
626.225	37.32
626.416	37.01
626.607	37
626.798	37.03
626.988	36.73
627.179	36.45
627.37	36.32
627.56	36.61
627.751	36.6
627.942	36.47
628.132	36.79
628.323	36.51
628.514	36.63
628.704	36.62
628.895	36.76
629.085	36.81
629.276	37.02
629.466	36.84
629.657	36.85
629.847	36.85
630.038	36.75
630.228	36.68
630.419	37.1
630.609	37.14
630.8	37.17
630.99	37.07
631.181	37.19
631.371	37.13
631.561	37.18
631.752	37.22
631.942	37.05
632.132	37.31
632.323	37.06
632.513	36.68
632.703	36.62
632.893	36.4
633.084	36.62
633.274	36.6
633.464	36.72
633.654	36.54
633.844	36.44
634.034	36.64
634.225	36.29
634.415	36.59
634.605	36.84
634.795	37.1
634.985	37.2
635.175	36.93
635.365	36.81
635.555	36.48
635.745	36.49
635.935	36.8
636.125	36.69
636.315	36.92
636.505	36.89
636.695	36.78
636.885	36.65
637.075	36.93
637.265	37.06
637.455	37.05
637.644	37.46
637.834	37.84
638.024	37.78
638.214	37.72
638.404	37.88
638.593	37.9
638.783	37.41
638.973	37.26
639.163	37.15
639.352	37.01
639.542	37.02
639.732	36.83
639.921	36.72
640.111	36.36
640.301	36.27
640.49	36.12
640.68	36.17
640.87	36.71
641.059	36.71
641.249	36.46
641.438	36.49
641.628	36.41
641.817	36.29
642.007	36.71
642.196	36.92
642.386	37.09
642.575	36.6
642.764	36.64
642.954	36.68
643.143	37
643.333	37.22
643.522	37.09
643.711	37.42
643.901	37.57
644.09	37.01
644.279	36.81
644.469	36.8
644.658	37.18
644.847	36.71
645.036	36.71
645.226	36.88
645.415	36.91
645.604	37.02
645.793	36.92
645.982	36.78
646.171	36.72
646.361	37.09
646.55	37.52
646.739	37.5
646.928	37.83
647.117	37.81
647.306	37.72
647.495	37.92
647.684	38.25
647.873	38.21
648.062	38
648.251	38.12
648.44	37.6
648.629	37.54
648.818	37.75
649.007	38.02
649.196	38.17
649.384	37.9
649.573	37.37
649.762	37.24
649.951	37.25
650.14	37.73
650.328	37.67
650.517	37.79
650.706	37.47
650.895	37.19
651.083	36.83
651.272	36.68
651.461	36.75
651.65	36.91
651.838	36.31
652.027	36.16
652.216	35.85
652.404	36.1
652.593	36.33
652.781	36.25
652.97	36.28
653.158	36.14
653.347	36.49
653.535	36.4
653.724	36.27
653.912	36.65
654.101	36.56
654.289	36.21
654.478	36.12
654.666	35.98
654.855	35.32
655.043	35.22
655.231	35.41
655.42	35.25
655.608	35.51
655.796	35.37
655.985	35.37
656.173	35.42
656.361	35.96
656.55	35.92
656.738	36.1
656.926	37.1
657.114	37.27
657.302	37.43
657.491	37.08
657.679	37.29
657.867	37.23
658.055	37.44
658.243	37.34
658.431	37.07
658.619	36.78
658.807	36.56
658.996	36.29
659.184	36.36
659.372	36.16
659.56	36.35
659.748	35.84
659.936	36.25
660.124	35.95
660.311	36.15
660.499	36.16
660.687	36.45
660.875	36.58
661.063	36.35
661.251	36.04
661.439	36.08
661.627	35.79
661.814	36.04
662.002	35.94
662.19	36.37
662.378	36.37
662.565	36.38
662.753	35.72
662.941	35.91
663.129	36.26
663.316	36.28
663.504	36.27
663.692	36.5
663.879	36.37
664.067	36.05
664.254	35.8
664.442	36.02
664.63	36.49
664.817	37.27
665.005	37.33
665.192	37.11
665.38	36.97
665.567	36.7
665.755	36.53
665.942	36.53
666.13	36.4
666.317	36.85
666.504	36.35
666.692	35.92
666.879	35.94
667.067	35.47
667.254	35.41
667.441	35.8
667.629	36.32
667.816	36.37
668.003	36.28
668.19	36.58
668.378	36.39
668.565	36.5
668.752	36.8
668.939	36.73
669.127	36.84
669.314	37.01
669.501	37.35
669.688	37.07
669.875	36.89
670.062	36.89
670.249	36.77
670.436	36.58
670.623	36.76
670.81	36.73
670.997	36.9
671.184	36.76
671.371	36.83
671.558	36.08
671.745	36.09
671.932	36.55
672.119	36.6
672.306	36.69
672.493	36.74
672.68	36.92
672.867	37.21
673.054	36.44
673.24	36.84
673.427	37.53
673.614	37.75
673.801	37.65
673.988	37.15
674.174	37.3
674.361	37
674.548	37.06
674.734	36.49
674.921	35.64
675.108	36.19
675.294	36.23
675.481	35.37
675.668	35.68
675.854	35.94
676.041	36.34
676.227	36.49
676.414	36.97
676.601	36.73
676.787	37
676.974	37.26
677.16	37.14
677.347	36.69
677.533	36.56
677.719	36.13
677.906	35.99
678.092	35.98
678.279	35.7
678.465	35.33
678.651	35.67
678.838	35.89
679.024	36.39
679.21	36.46
679.397	36.32
679.583	36.75
679.769	37.08
679.955	37.27
680.142	36.96
680.328	37.25
680.514	37.45
680.7	37.11
680.886	36.94
681.073	36.58
681.259	36.48
681.445	36.79
681.631	36.57
681.817	36.34
682.003	36.04
682.189	36.13
682.375	35.77
682.561	35.73
682.747	36.05
682.933	35.96
683.119	36.14
683.305	35.82
683.491	35.73
683.677	35.78
683.863	36.09
684.049	36.71
684.235	36.83
684.42	37.53
684.606	37.51
684.792	37.16
684.978	37.47
685.164	36.96
685.349	37.25
685.535	36.96
685.721	36.86
685.907	37.07
686.092	36.35
686.278	36.8
686.464	36.3
686.649	36.35
686.835	37.01
687.021	36.65
687.206	37
687.392	36.93
687.577	36.75
687.763	36.44
687.948	36.87
688.134	37.34
688.319	37.01
688.505	37.14
688.69	37.16
688.876	36.65
689.061	36.6
689.247	36.57
689.432	36.73
689.618	37.18
689.803	37.53
689.988	36.83
690.174	36.22
690.359	36.04
690.544	35.66
690.73	35.93
690.915	36.06
691.1	36.4
691.285	36.41
691.471	36.83
691.656	36.65
691.841	36.81
692.026	37.02
692.211	37.11
692.396	36.88
692.582	37.35
692.767	36.76
692.952	36.63
693.137	36.28
693.322	36.52
693.507	36.07
693.692	36.73
693.877	37.11
694.062	36.58
694.247	36.99
694.432	37.81
694.617	37.24
694.802	37.76
694.987	38.38
695.172	38.53
695.357	38.02
695.541	37.81
695.726	37.14
695.911	36.98
696.096	37.32
696.281	37.57
696.466	37.19
696.65	37.57
696.835	37.62
697.02	37.7
697.204	37.52
697.389	37.92
697.574	37.96
697.759	37.9
697.943	37.96
698.128	37.64
698.312	37.2
698.497	37.54
698.682	37.25
698.866	37.17
699.051	36.85
699.235	37.01
699.42	36.85
699.604	36.8
699.789	36.93
699.973	36.29
700.158	36.16
700.342	36.39
700.527	35.68
700.711	35.66
700.895	35.38
701.08	35.05
701.264	34.64
701.448	34.97
701.633	34.56
701.817	34.64
702.001	35.12
702.186	35.34
702.37	35.53
702.554	36.64
702.738	37.47
702.923	38.08
703.107	38.37
703.291	38.35
703.475	37.59
703.659	38.58
703.843	39.26
704.027	39.13
704.212	39.82
704.396	39.81
704.58	39.31
704.764	38.37
704.948	37.75
705.132	37.96
705.316	38.32
705.5	39.08
705.684	38.05
705.868	37.63
706.052	37.57
706.235	37.35
706.419	37.04
706.603	36.27
706.787	36.86
706.971	37.37
707.155	37.46
707.339	37.94
707.522	37.51
707.706	37.66
707.89	37.41
708.074	37.49
708.257	36.64
708.441	36.9
708.625	36.91
708.808	37.31
708.992	37.19
709.176	37.28
709.359	37.2
709.543	37.15
709.727	37.61
709.91	37.47
710.094	37.24
710.277	37.61
710.461	38.03
710.644	37.99
710.828	37.09
711.011	36.89
711.195	36.37
711.378	36.74
711.562	36.71
711.745	36.75
711.928	36.73
712.112	37.39
712.295	37.58
712.478	36.83
712.662	37.4
712.845	37.59
713.028	37.36
713.212	37.09
713.395	35.99
713.578	36.38
713.761	36.34
713.945	37.12
714.128	36.75
714.311	36.8
714.494	36.68
714.677	36.76
714.86	36.73
715.043	37.79
715.227	37.98
715.41	38.31
715.593	37.6
715.776	37.4
715.959	36.54
716.142	36.36
716.325	35.8
716.508	35.85
716.691	35.07
716.874	35.18
717.057	34.14
717.239	33.99
717.422	33.83
717.605	34.33
717.788	34.27
717.971	34.75
718.154	35.06
718.337	35.87
718.519	36.07
718.702	36.88
718.885	37.13
719.068	37.66
719.25	38.77
719.433	38.78
719.616	37.73
719.798	38
719.981	37.8
720.164	38.16
720.346	37.59
720.529	36.52
720.712	35.53
720.894	35.52
721.077	35.23
721.259	34.08
721.442	33.79
721.624	34.68
721.807	34.63
721.989	34.18
722.172	33.67
722.354	34.53
722.537	34.93
722.719	35.53
722.901	35.74
723.084	35.17
723.266	35.8
723.448	36.46
723.631	36.44
723.813	36.63
723.995	37.08
724.178	36.47
724.36	36
724.542	36.58
724.724	36.39
724.907	36.14
725.089	36.35
725.271	35.44
725.453	35.79
725.635	36.22
725.817	35.84
725.999	35.8
726.181	36.17
726.364	36.86
726.546	37.47
726.728	38.67
726.91	38.11
727.092	37.98
727.274	39.13
727.456	38.61
727.638	38.65
727.819	39.04
728.001	39.13
728.183	38.34
728.365	37.89
728.547	36.75
728.729	36.58
728.911	37.25
729.093	37.45
729.274	35.98
729.456	36.28
729.638	35.98
729.82	35.91
730.001	35.88
730.183	36.73
730.365	35.95
730.546	36.48
730.728	35.65
730.91	34.84
731.091	34.88
731.273	34.77
731.455	35.05
731.636	34.65
731.818	34.71
731.999	34.48
732.181	34.21
732.362	34.17
732.544	34.73
732.725	34.96
732.907	35.17
733.088	34.47
733.27	35.03
733.451	33.98
733.633	34.62
733.814	33.92
733.995	33.83
734.177	35.42
734.358	35.92
734.539	35.83
734.721	36.49
734.902	36.02
735.083	36.52
735.264	36.34
735.446	36.44
735.627	35.45
735.808	36.48
735.989	36.31
736.17	34.41
736.351	34.59
736.533	36.01
736.714	35.38
736.895	35.66
737.076	35.61
737.257	36.88
737.438	38.26
737.619	38.86
737.8	36.89
737.981	36.8
738.162	37.14
738.343	37.42
738.524	35.41
738.705	35.74
738.886	35.99
739.067	36.67
739.247	36.46
739.428	35.71
739.609	35.24
739.79	36.16
739.971	37.16
740.151	36.41
740.332	35.57
740.513	36.13
740.694	35.72
740.874	35.92
741.055	35.32
741.236	34.4
741.417	34.37
741.597	34.45
741.778	34.62
741.958	35.05
742.139	36.08
742.32	36.58
742.5	36.25
742.681	36.21
742.861	35.26
743.042	33.95
743.222	34.12
743.403	34.5
743.583	35.01
743.764	34.24
743.944	33.73
744.124	33.46
744.305	33.19
744.485	33.39
744.666	32.81
744.846	34.57
745.026	36.29
745.207	36.41
745.387	36.6
745.567	37.04
745.747	37.97
745.928	36.95
746.108	36.92
746.288	37.49
746.468	38.25
746.648	38.77
746.829	38.6
747.009	39.71
747.189	40.05
747.369	39.2
747.549	39.63
747.729	40.18
747.909	40.69
748.089	41.17
748.269	40.51
748.449	39.33
748.629	39.38
748.809	39.26
748.989	37.66
749.169	37.5
749.349	38.39
749.529	37.42
749.709	37.16
749.889	37.67
750.068	37.52
750.248	36.47
750.428	36.75
750.608	36.44
750.788	36.04
750.967	37.07
751.147	35.82
751.327	36.11
751.507	35.73
751.686	35.92
751.866	34.12
752.046	34.16
752.225	35.95
752.405	36.81
752.585	36.6
752.764	35.96
752.944	34.7
753.123	35.81
753.303	34.71
753.482	35.97
753.662	35.85
753.841	36.39
754.021	36.6
754.2	34.97
754.38	32.87
754.559	33.92
754.739	34.79
754.918	36
755.097	36.56
755.277	35.58
755.456	34.78
755.635	33.98
755.815	35.42
755.994	35.21
756.173	36.15
756.352	36.53
756.532	35.99
756.711	35.36
756.89	34.25
757.069	33.24
757.248	34.41
757.427	34.3
757.607	35.3
757.786	33.92
757.965	33.54
758.144	33.83
758.323	33.57
758.502	32.7
758.681	32.76
758.86	33.49
759.039	33.36
759.218	31.96
759.397	31.28
759.576	30.8
759.755	32.48
759.934	32.59
760.113	32.93
760.291	33.77
760.47	36.2
760.649	35.75
760.828	35.11
761.007	35.47
761.186	36.34
761.364	37.49
761.543	37.81
761.722	36.82
761.901	36.72
762.079	36.1
762.258	37.06
762.437	36.14
762.615	36.79
762.794	36.34
762.972	36.76
763.151	36.74
763.33	36.21
763.508	36.14
763.687	37.35
763.865	37.21
764.044	37.51
764.222	37.24
764.401	36.8
764.579	36.61
764.758	37.11
764.936	37.89
765.114	38.27
765.293	38.36
765.471	38.11
765.65	37.26
765.828	37.53
766.006	36.86
766.184	36.8
766.363	37.02
766.541	37.06
766.719	36.82
766.898	35.87
767.076	36.01
767.254	35.79
767.432	35.51
767.61	35.1
767.788	35.36
767.967	35.71
768.145	35.78
768.323	34.53
768.501	34.09
768.679	34.8
768.857	34
769.035	33.46
769.213	33.21
769.391	34.32
769.569	33.33
769.747	33.58
769.925	35.36
770.103	34.59
770.281	36.52
770.459	37.33
770.636	38.75
770.814	38.93
770.992	40.11
771.17	40.88
771.348	40.92
771.525	40.67
771.703	38.59
771.881	35.74
772.059	36.65
772.236	35.34
772.414	34.98
772.592	34.23
772.769	34.02
772.947	33.09
773.125	33.5
773.302	32.84
773.48	34.26
773.657	37.23
773.835	39.12
774.013	38.31
774.19	38.65
774.368	39.56
774.545	37.97
774.723	37.76
774.9	38.48
775.077	39.72
775.255	39.49
775.432	39.98
775.61	38.26
775.787	38.96
775.964	39.4
776.142	38.35
776.319	38.7
776.496	40.9
776.674	39.25
776.851	36.88
777.028	34.65
777.205	33.32
777.382	31.16
777.56	33.17
777.737	29.82
777.914	27.71
778.091	30.78
778.268	30.51
778.445	30.59
778.622	34.04
778.8	33.95
778.977	33.96
779.154	34.71
779.331	35.42
779.508	33.05
779.685	33.98
779.862	36.38
780.038	34.52
780.215	32.16
780.392	31.22
780.569	28.67
780.746	31.56
780.923	31.4
781.1	30.97
781.277	32.28
781.453	32.41
781.63	34.11
781.807	31.86
781.984	31.66
782.16	32.45
782.337	31.19
782.514	33.58
782.691	33.75
782.867	34.55
783.044	34.54
783.221	35.42
783.397	35.26
783.574	34.37
783.75	35.1
783.927	34.47
784.103	34.16
784.28	34.38
784.456	33.6
784.633	31.08
784.809	31.62
784.986	31.44
785.162	28.78
785.339	28.88
785.515	29.71
785.692	30.91
785.868	33.79
786.044	37.01
786.221	38.16
786.397	37.94
786.573	37.17
786.749	38.24
786.926	40.78
787.102	41.19
787.278	41.07
787.454	37.84
787.631	36.13
787.807	31.94
787.983	29.18
788.159	29.17
788.335	28.76
788.511	30.27
788.687	29.98
788.863	27.97
789.039	29.74
789.216	29.31
789.392	31.74
789.568	33.93
789.744	38.23
789.919	38.27
790.095	37.63
790.271	37.7
790.447	38.64
790.623	38.96
790.799	40.26
790.975	39.35
791.151	37.7
791.327	37.64
791.502	36.44
791.678	34.38
791.854	34.52
792.03	36.05
792.205	37.42
792.381	35.79
792.557	34.13
792.733	31.25
792.908	28.08
793.084	28.28
793.259	27.69
793.435	28.19
793.611	27
793.786	29.86
793.962	28.65
794.137	27.21
794.313	29.15
794.488	28.58
794.664	32.65
794.839	34.31
795.015	38.12
795.19	38.36
795.366	37.87
795.541	35.52
795.716	33.81
795.892	33.96
796.067	31.61
796.242	29.97
796.418	31.03
796.593	29.73
796.768	30.71
796.944	31.46
797.119	31.57
797.294	29.82
797.469	32.17
797.644	32.31
797.82	29.26
797.995	33.56
798.17	34
798.345	33
798.52	31.11
798.695	31.46
798.87	31.27
799.045	29.41
799.22	31.28
799.395	31.26
799.57	33.99
799.745	37.36
799.92	36.42
800.095	38.24
800.27	38.57
800.445	40.35
800.62	38.18
800.795	37.35
800.97	40.29
801.145	41.65
801.319	43.77
801.494	37.19
801.669	37.63
801.844	36.69
802.018	33.6
802.193	32.95
802.368	31.95
802.543	35.41
802.717	34.34
802.892	29.46
803.067	29.2
803.241	28.44
803.416	29.85
803.59	28.8
803.765	25.48
803.94	28.21
804.114	30.5
804.289	31.29
804.463	30.35
804.638	32.02
804.812	34.68
804.986	32.94
805.161	30.83
805.335	32.54
805.51	33.39
805.684	34.97
805.858	33.52
806.033	35.38
806.207	35.22
806.381	36.65
806.556	36.52
806.73	34.53
806.904	36.32
807.078	38.8
807.253	39.9
807.427	37.21
807.601	36.33
807.775	38.25
807.949	35.4
808.123	35.41
808.298	31.58
808.472	28.35
808.646	31.08
808.82	30
808.994	29.16
809.168	28.99
809.342	29.73
809.516	31.35
809.69	31.4
809.864	30.32
810.038	30.4
810.212	30.31
810.385	28.9
810.559	29.14
810.733	27.98
810.907	30.46
811.081	26.45
811.255	23.44
811.428	24.59
811.602	20.79
811.776	23.47
811.95	18.8
812.123	18.18
812.297	21.56
812.471	19.56
812.644	22.17
812.818	17.51
812.992	20.39
813.165	19.09
813.339	20.29
813.512	19.21
813.686	16.01
813.86	23.36
814.033	25.91
814.207	27.89
814.38	31.56
814.554	28.52
814.727	34.36
814.9	38.34
815.074	42.04
815.247	35.07
815.421	36.78
815.594	36.79
815.767	33.28
815.941	34.62
816.114	32.28
816.287	31.16
816.46	32.59
816.634	25.05
816.807	23.21
816.98	23.14
817.153	28.95
817.327	30.99
817.5	32.9
817.673	33.66
817.846	33.16
818.019	32.81
818.192	30.35
818.365	26.39
818.538	33.71
818.711	29.34
818.884	30.45
819.057	27.51
819.23	23.57
819.403	19.91
819.576	22.97
819.749	22.14
819.922	23.88
820.095	26.74
820.268	30.04
820.441	28.63
820.614	32.71
820.786	32.56
820.959	35.64
821.132	37.02
821.305	37.39
821.477	35.81
821.65	36.35
821.823	36.17
821.996	35.75
822.168	34.84
822.341	34.65
822.514	34.15
822.686	34.85
822.859	34.26
823.031	34.32
823.204	34.41
823.376	34.37
823.549	34.15
823.722	34.37
823.894	34.26
824.067	34.05
824.239	33.55
824.411	33.13
824.584	32.84
824.756	32.32
824.929	32.09
825.101	33.23
825.273	33.79
825.446	33.47
825.618	33.91
825.79	35.07
825.963	35.54
826.135	37.21
826.307	38.16
826.479	38.11
826.652	37.83
826.824	37.97
826.996	36.91
827.168	36.24
827.34	36.23
827.512	35.41
827.684	35.44
827.856	35.8
828.029	35.04
828.201	35.84
828.373	35.44
828.545	35.45
828.717	35.33
828.889	34.54
829.061	33.94
829.232	34.15
829.404	33.55
829.576	32.34
829.748	32.05
829.92	30.89
830.092	30.66
830.264	28.61
830.436	28.62
830.607	30.02
830.779	27.6
830.951	28.13
831.123	27.94
831.294	28.25
831.466	29.12
831.638	29.67
831.809	28.11
831.981	26.98
832.153	30.28
832.324	27.54
832.496	20.54
832.667	20.09
832.839	19.18
833.011	18.94
833.182	21.63
833.354	19.76
833.525	21.4
833.697	23.4
833.868	20.91
834.039	21.27
834.211	24.61
834.382	30.46
834.554	34.5
834.725	35.89
834.896	36.54
835.068	33.49
835.239	31.9
835.41	30.3
835.581	30
835.753	31.49
835.924	31.38
836.095	28.24
836.266	26.65
836.438	24.08
836.609	24.07
836.78	22.25
836.951	26.38
837.122	28.92
837.293	29.71
837.464	28.32
837.635	30.43
837.806	27.92
837.977	30.45
838.148	30.14
838.319	26.37
838.49	28.42
838.661	28.57
838.832	28.12
839.003	27.04
839.174	25.1
839.345	31.85
839.516	26.52
839.687	30.33
839.857	31.14
840.028	30.8
840.199	35.96
840.37	35.57
840.54	39.04
840.711	36.91
840.882	37.23
841.053	38.79
841.223	36.71
841.394	39.53
841.564	35.26
841.735	34.12
841.906	33.91
842.076	37.52
842.247	39.81
842.417	36.45
842.588	44.61
842.758	47.16
842.929	54.9
843.099	55.24
843.27	54.7
843.44	59.07
843.611	66.16
843.781	66.43
843.951	60.64
844.122	55.63
844.292	57.35
844.462	46.69
844.633	44.37
844.803	39.13
844.973	42.31
845.144	35.15
845.314	30.01
845.484	26.23
845.654	36.31
845.824	40.35
845.995	43.31
846.165	38.19
846.335	32.86
846.505	40.33
846.675	35.25
846.845	20.41
847.015	29.8
847.185	36.49
847.355	26.26
847.525	12.85
847.695	11.34
847.865	5.36
848.035	11.28
848.205	18.46
848.375	10.33
848.545	-7.43
848.715	-2.86
848.884	-1.4
849.054	-6.13
849.224	13.47
849.394	16.38
849.564	16.39
849.733	28.67
849.903	34.83
850.073	24.43
850.243	20.37
850.412	36.5
850.582	43.79
850.752	43.9
850.921	43.2
851.091	42.49
851.26	38
851.43	40.95
851.599	36.67
851.769	30.17
851.939	44.59
852.108	27.41
852.278	13.02
852.447	-4.17
852.616	3.96
852.786	-5.4
852.955	-1.42
853.125	3.81
853.294	-8.48
853.463	2.74
853.633	7.49
853.802	13.2
853.971	26.26
854.141	30.94
854.31	38.2
854.479	36.11
854.648	30.39
854.818	36.28
854.987	39.9
855.156	49.71
855.325	46.48
855.494	39.21
855.663	47.91
855.832	51.97
856.001	53.87
856.171	45.27
856.34	52.15
856.509	72.04
856.678	57.28
856.847	49.64
857.016	42.4
857.185	19.37
857.353	37.25
857.522	28.62
857.691	19.28
857.86	23.22
858.029	43.29
858.198	22.15
858.367	11.64
858.535	25.93
858.704	33.02
858.873	39.05
859.042	38.78
859.21	33.49
859.379	37.75
859.548	34.23
859.717	18.26
859.885	12.55
860.054	22.35
860.222	18.46
860.391	32.52
860.56	21.37
860.728	9.95
860.897	27.4
861.065	25.16
861.234	32.84
861.402	39.25
861.571	29.59
861.739	25.84
861.908	16.42
862.076	21.72
862.244	7.5
862.413	22.04
862.581	34.77
862.749	38.07
862.918	22.42
863.086	15.81
863.254	14.05
863.423	40.72
863.591	52.86
863.759	59.07
863.927	62.44
864.096	56.32
864.264	66.03
864.432	75.61
864.6	71.98
864.768	78.64
864.936	64.23
865.104	70.04
865.272	69.11
865.44	87.63
865.608	86.01
865.776	83.51
865.944	84.63
866.112	86.79
866.28	60.12
866.448	87.84
866.616	65.22
866.784	76.53
866.952	71.02
867.12	66.44
867.288	52.52
867.455	40.82
867.623	24.02
867.791	14.2
867.959	10.08
868.127	17.01
868.294	2.05
868.462	-0.16
868.63	-0.62
868.797	11.26
868.965	17.25
869.133	24.37
869.3	33.61
869.468	43.03
869.636	54.66
869.803	61.61
869.971	60.01
870.138	64.72
870.306	87.66
870.473	83.63
870.641	85.21
870.808	79.94
870.975	55.07
871.143	52.91
871.31	54.37
871.478	37.32
871.645	35.07
871.812	37.38
871.98	27.92
872.147	18.81
872.314	34.63
872.482	18.46
872.649	-19.89
872.816	-9.04
872.983	-30.91
873.15	-14.48
873.318	5.61
873.485	-12.71
873.652	1.79
873.819	-4.81
873.986	-3.95
874.153	-4.01
874.32	-13.57
874.487	-14.18
874.654	-11.22
874.821	7.59
874.988	-23.81
875.155	-70.91
875.322	-98.04
875.489	-115.99
875.656	-166.76
875.823	-116.18
875.99	-140.39
876.157	-107.31
876.324	-53.97
876.49	-21.09
876.657	-24.54
876.824	-23.81
876.991	-6.15
877.157	11.35
877.324	5.24
877.491	18.97
877.658	13.49
877.824	10.46
877.991	22.05
878.157	19
878.324	-16.43
878.491	-3.81
878.657	-5.38
878.824	-4.01
878.99	-42.72
879.157	8.24
879.323	19.88
879.49	23.89
879.656	8.06
879.823	4.6
879.989	-2.29
880.156	-7.58
880.322	-1.95
880.488	-0.83
880.655	3.52
880.821	6.94
880.987	5.25
881.154	-7.46
881.32	7.84
881.486	21.62
881.652	26.22
881.819	23.22
881.985	33.11
882.151	27.76
882.317	27.8
882.483	27.85
882.649	30.23
882.816	27.16
882.982	30.71
883.148	29.4
883.314	30.6
883.48	27.05
883.646	26.53
883.812	25.88
883.978	25.17
884.144	24.93
884.31	24.96
884.476	23.71
884.642	20.73
884.807	21.07
884.973	20.37
885.139	21.79
885.305	25.14
885.471	25.08
885.637	22.39
885.802	24.37
885.968	21.89
886.134	19.44
886.3	18.33
886.465	20.04
886.631	19.12
886.797	15.32
886.962	10.21
887.128	7.44
887.293	3.18
887.459	8.58
887.625	9.64
887.79	16.57
887.956	18.6
888.121	19.92
888.287	26.98
888.452	21.39
888.618	24.31
888.783	21.89
