Data from 2938093_Reflection_3.txt Node
Date: Sat Jul 11 19:11:35 EDT 2015
User: robert
Spectrometer: USB4E03001
Autoset integration time: false
Trigger mode: 4
Integration Time (sec): 1.000000E-1
Scans to average: 10
Electric dark correction enabled: true
Nonlinearity correction enabled: false
Boxcar width: 5
Stray light correction enabled: false
XAxis mode: Wavelengths
Stop averaging: false
Number of Pixels in Spectrum: 3648
>>>>>Begin Spectral Data<<<<<
177.566	47.47
177.785	37.84
178.005	31.46
178.225	114.82
178.445	69.13
178.665	105.92
178.885	42.25
179.105	88.21
179.324	161.25
179.544	-99.7
179.764	-44.97
179.984	-20.93
180.204	-19.23
180.423	-338.54
180.643	706.04
180.863	424.81
181.083	213.74
181.302	205.16
181.522	383.37
181.742	-718.32
181.961	-152.28
182.181	-1653.37
182.401	-1067.37
182.621	310.64
182.84	-257.62
183.06	-223.85
183.279	216.72
183.499	306.93
183.719	137.09
183.938	70.22
184.158	35.21
184.377	51.04
184.597	58.26
184.816	53.09
185.036	57.77
185.256	48.96
185.475	44.53
185.695	38.51
185.914	42.07
186.134	51.23
186.353	59.01
186.572	97.71
186.792	71.99
187.011	75.11
187.231	75.7
187.45	76.08
187.67	116.92
187.889	110.51
188.108	116
188.328	111.29
188.547	105.02
188.766	110.33
188.986	109.6
189.205	112.6
189.424	98.24
189.644	101.3
189.863	106.66
190.082	72.28
190.302	120.89
190.521	116.47
190.74	193
190.959	435.31
191.178	3181.07
191.398	3693.41
191.617	1262.15
191.836	1686.88
192.055	364.47
192.274	1118.3
192.494	607.21
192.713	468.93
192.932	442.25
193.151	502.53
193.37	432.38
193.589	509.97
193.808	624.15
194.027	2639.86
194.246	3164.18
194.465	-10619.23
194.685	472.77
194.904	562.53
195.123	243.57
195.342	734.71
195.561	94.14
195.78	131.89
195.999	68.96
196.218	132.57
196.436	94.53
196.655	96.95
196.874	80.25
197.093	97.38
197.312	96.96
197.531	123.57
197.75	116.07
197.969	154.36
198.188	126.02
198.407	138.68
198.625	103.19
198.844	109.11
199.063	131.15
199.282	175.05
199.501	165.51
199.719	252.27
199.938	190.24
200.157	203.8
200.376	147.72
200.594	151.3
200.813	173.96
201.032	336.98
201.251	348.56
201.469	289.12
201.688	398.08
201.907	446.49
202.125	303.59
202.344	409.31
202.563	348.26
202.781	288.35
203	344.75
203.218	270.29
203.437	284.32
203.656	514.47
203.874	1411.54
204.093	220.72
204.311	467.59
204.53	-7030.77
204.748	1898.08
204.967	618.5
205.185	2874.15
205.404	1361.72
205.622	293.82
205.841	199.58
206.059	281.04
206.278	235.83
206.496	362.01
206.715	281.6
206.933	174.12
207.151	191.51
207.37	351.35
207.588	338.16
207.806	534.82
208.025	576.2
208.243	-2065.38
208.461	1090.64
208.68	783.97
208.898	1194.33
209.116	1396.6
209.335	-1503.75
209.553	871.58
209.771	236.44
209.989	474.85
210.208	521.21
210.426	-2944.34
210.644	1415.57
210.862	3318.62
211.081	-1049.26
211.299	24784.62
211.517	-1897.13
211.735	1279.92
211.953	731.32
212.171	745.63
212.39	299.13
212.608	258
212.826	217.18
213.044	193.75
213.262	175.29
213.48	150.66
213.698	151.86
213.916	152.34
214.134	221.97
214.352	223.38
214.57	252.98
214.788	266.88
215.006	224.45
215.224	246.62
215.442	395.86
215.66	274.63
215.878	374.71
216.096	283.34
216.314	281.45
216.532	183.98
216.75	214.34
216.968	251.12
217.185	306.88
217.403	253.7
217.621	275.93
217.839	229.93
218.057	309.66
218.275	274.29
218.492	166.52
218.71	142.97
218.928	176.06
219.146	172.49
219.363	126.94
219.581	97.43
219.799	115.36
220.017	139.27
220.234	100.15
220.452	68.26
220.67	85.1
220.887	128.01
221.105	71.24
221.323	54.04
221.54	71.3
221.758	99.76
221.976	105.21
222.193	102.55
222.411	88.71
222.629	104.16
222.846	112.13
223.064	104.98
223.281	102.26
223.499	111.75
223.716	120.55
223.934	127.12
224.151	138.6
224.369	130.38
224.586	121.84
224.804	112.62
225.021	70.06
225.239	64.45
225.456	78.61
225.674	103.23
225.891	89.53
226.108	93.01
226.326	59.93
226.543	28.43
226.76	29.93
226.978	28.34
227.195	39.91
227.413	42.09
227.63	29.14
227.847	25.53
228.064	20.89
228.282	22.57
228.499	21.87
228.716	21.7
228.934	26.92
229.151	25.8
229.368	24.82
229.585	23.07
229.802	21
230.02	25.03
230.237	26.46
230.454	24.53
230.671	28.76
230.888	29.65
231.105	36
231.323	32.15
231.54	33.76
231.757	37.74
231.974	34.5
232.191	35.89
232.408	33.25
232.625	29.61
232.842	35.02
233.059	27.47
233.276	28.36
233.493	21.73
233.71	25.61
233.927	30.28
234.144	28.23
234.361	36.92
234.578	34.46
234.795	38.23
235.012	38.31
235.229	35.63
235.446	37.04
235.663	34.63
235.879	31.97
236.096	34.29
236.313	33.61
236.53	33.44
236.747	29.95
236.964	34.43
237.181	35.99
237.397	47.01
237.614	44.49
237.831	42.1
238.048	46.36
238.264	49.45
238.481	54.72
238.698	53.57
238.915	47.52
239.131	50.8
239.348	45.8
239.565	45.77
239.781	39.69
239.998	43.98
240.215	40.31
240.431	35.57
240.648	30.24
240.865	25.69
241.081	23.4
241.298	22.72
241.514	20.09
241.731	19.95
241.947	18.2
242.164	17.18
242.38	15.33
242.597	16.18
242.814	15.7
243.03	18.62
243.246	18.04
243.463	16.58
243.679	18.35
243.896	17.61
244.112	19.54
244.329	19.04
244.545	19.06
244.762	18.37
244.978	17.5
245.194	19.06
245.411	15.12
245.627	15.15
245.843	16.31
246.06	15.55
246.276	16.16
246.492	14.58
246.709	13.35
246.925	13.93
247.141	13.38
247.357	12.65
247.574	13.13
247.79	13.95
248.006	13.35
248.222	12.36
248.439	10.64
248.655	10.13
248.871	9.25
249.087	10.65
249.303	10.34
249.519	11.38
249.736	12.98
249.952	10.67
250.168	9.61
250.384	8.66
250.6	10.45
250.816	13.6
251.032	16.12
251.248	18.43
251.464	18.62
251.68	15.45
251.896	15.31
252.112	14.62
252.328	16.45
252.544	16.29
252.76	17.48
252.976	18.82
253.192	19.26
253.408	16.52
253.624	15.42
253.84	14.99
254.056	19.92
254.272	20.32
254.487	20.09
254.703	22.88
254.919	22.23
255.135	21.18
255.351	21.63
255.567	18.61
255.782	17.83
255.998	16.67
256.214	19.5
256.43	15.1
256.646	11.33
256.861	13.44
257.077	10.87
257.293	11.05
257.508	11.63
257.724	10.4
257.94	12.52
258.155	13.1
258.371	14.93
258.587	13.18
258.802	13.36
259.018	12
259.234	11.85
259.449	11.51
259.665	10.87
259.88	10.84
260.096	10.92
260.312	9.97
260.527	10.46
260.743	9.98
260.958	10.01
261.174	9.6
261.389	11.37
261.605	11.92
261.82	12.92
262.036	14.63
262.251	14.5
262.466	14.96
262.682	17.39
262.897	17.23
263.113	17.03
263.328	16.6
263.543	18.86
263.759	19.74
263.974	18.86
264.189	17.05
264.405	15.88
264.62	18
264.835	19.47
265.051	18.68
265.266	18.59
265.481	21.12
265.696	20.18
265.912	20.43
266.127	18.51
266.342	17.39
266.557	18.08
266.773	18.2
266.988	17.72
267.203	14.22
267.418	14.63
267.633	14.56
267.848	13.23
268.064	12.92
268.279	10.39
268.494	11.75
268.709	11.85
268.924	9.65
269.139	8.1
269.354	8.92
269.569	10.76
269.784	9.29
269.999	9.41
270.214	9.94
270.429	10.64
270.644	11.87
270.859	10.35
271.074	11.31
271.289	11.79
271.504	13.42
271.719	12.41
271.934	12.81
272.149	13.78
272.363	13.56
272.578	13.93
272.793	13.74
273.008	14.22
273.223	13.08
273.438	11.98
273.653	11.98
273.867	13.01
274.082	13.89
274.297	14.27
274.512	13.53
274.726	14.76
274.941	14.17
275.156	15.98
275.371	15.02
275.585	17.23
275.8	17.69
276.015	19.5
276.229	17.14
276.444	15.27
276.659	15.34
276.873	16.39
277.088	14.87
277.302	15.06
277.517	15.19
277.732	15.9
277.946	16.18
278.161	16.61
278.375	14.9
278.59	18.09
278.804	18.09
279.019	18.39
279.233	16.42
279.448	18.04
279.662	17.67
279.877	15.84
280.091	14.99
280.306	13.14
280.52	13.87
280.735	15.18
280.949	13.45
281.163	13.97
281.378	13.53
281.592	15.97
281.806	15.57
282.021	16.56
282.235	16.76
282.449	16.18
282.664	17.6
282.878	18.21
283.092	17.26
283.307	17.15
283.521	18.83
283.735	17.11
283.949	15.68
284.164	17.33
284.378	15.81
284.592	15.15
284.806	15.17
285.02	14
285.234	13.62
285.449	14.9
285.663	13.09
285.877	11.27
286.091	12.61
286.305	12.97
286.519	10.99
286.733	11.33
286.947	11.23
287.161	11
287.375	11.49
287.589	10.33
287.803	9.42
288.017	12.24
288.231	14.03
288.445	13.17
288.659	13.72
288.873	12.91
289.087	13.29
289.301	13.42
289.515	14.85
289.729	14.75
289.943	15.59
290.157	14.65
290.371	11.99
290.584	10.59
290.798	10.14
291.012	9.75
291.226	12.2
291.44	11.51
291.654	13.14
291.867	13.1
292.081	13.57
292.295	13
292.509	13.25
292.722	15.24
292.936	15.74
293.15	15.49
293.364	15.48
293.577	14.88
293.791	14.67
294.005	13.36
294.218	13.26
294.432	12.08
294.645	12.96
294.859	13.93
295.073	14.4
295.286	13.14
295.5	14.25
295.713	14.17
295.927	14.15
296.14	14.33
296.354	15.31
296.568	15.42
296.781	16.54
296.994	17.12
297.208	16.42
297.421	16.21
297.635	16.93
297.848	17.15
298.062	17.71
298.275	17.32
298.489	17.22
298.702	16.55
298.915	17.62
299.129	18.17
299.342	18.26
299.555	19.12
299.769	18.93
299.982	19.04
300.195	17.38
300.409	18.4
300.622	16.33
300.835	18.34
301.048	17.7
301.262	15.2
301.475	14.32
301.688	13.19
301.901	11.43
302.115	11.23
302.328	11.28
302.541	14.6
302.754	11.99
302.967	15.13
303.18	14.83
303.393	15.24
303.607	16.35
303.82	16.41
304.033	15.79
304.246	17.34
304.459	17.28
304.672	17.68
304.885	17.65
305.098	19.67
305.311	19.7
305.524	18.7
305.737	20.52
305.95	21.14
306.163	21.94
306.376	21.04
306.589	19.74
306.802	20.96
307.015	21.37
307.228	20.48
307.44	19.07
307.653	18.53
307.866	18.9
308.079	18.46
308.292	17.43
308.505	16.66
308.718	18.18
308.93	19.2
309.143	18.04
309.356	18.68
309.569	18.23
309.781	19.24
309.994	19.5
310.207	18.93
310.42	18.74
310.632	18.96
310.845	19.58
311.058	20.23
311.27	20.38
311.483	20.38
311.696	19.51
311.908	20.71
312.121	19.11
312.333	18.75
312.546	19.52
312.759	19.8
312.971	19.11
313.184	18.29
313.396	17.58
313.609	15.43
313.821	16.81
314.034	16.9
314.246	16.85
314.459	18.57
314.671	19.04
314.884	19.12
315.096	19.12
315.309	19.06
315.521	18.72
315.733	17.9
315.946	20.07
316.158	19.25
316.371	20.37
316.583	18.66
316.795	18.21
317.008	17.98
317.22	18.45
317.432	19.53
317.644	19.48
317.857	22.01
318.069	23.88
318.281	24.34
318.494	24.49
318.706	24.01
318.918	24.12
319.13	23.28
319.342	22.41
319.555	21.88
319.767	19.98
319.979	21.92
320.191	21.86
320.403	22.5
320.615	23.37
320.827	24.04
321.039	26.1
321.252	24.95
321.464	26.57
321.676	28.34
321.888	29.37
322.1	30.02
322.312	32.24
322.524	30.65
322.736	28.68
322.948	28.21
323.16	27.89
323.372	26.46
323.584	27.33
323.796	27.2
324.007	26.12
324.219	25.78
324.431	26.62
324.643	23.61
324.855	23.76
325.067	24.39
325.279	24.63
325.491	25.43
325.702	25.28
325.914	26.08
326.126	27.65
326.338	26.34
326.55	26.06
326.761	24.22
326.973	25.54
327.185	25.9
327.396	24.81
327.608	25.05
327.82	23.94
328.032	23.37
328.243	23.32
328.455	20.66
328.666	23.33
328.878	23.73
329.09	24.79
329.301	25.41
329.513	24.3
329.725	25.8
329.936	25.44
330.148	26.69
330.359	28.38
330.571	29.04
330.782	30.15
330.994	29.13
331.205	29.43
331.417	30.31
331.628	29.22
331.84	31.01
332.051	31.33
332.262	30.5
332.474	30.91
332.685	29.94
332.897	29.94
333.108	31.23
333.319	31.36
333.531	30.79
333.742	30.49
333.953	31.47
334.165	31.25
334.376	30.24
334.587	31.21
334.799	30.65
335.01	31.49
335.221	31.32
335.432	31.53
335.644	32.16
335.855	32.96
336.066	32.5
336.277	31.54
336.488	32.6
336.7	33.97
336.911	35.29
337.122	34.42
337.333	33.92
337.544	32.85
337.755	30.98
337.966	30.56
338.177	30.55
338.388	31.13
338.599	32.1
338.811	31.01
339.022	30.2
339.233	29.76
339.444	30.48
339.655	30.52
339.866	30.55
340.076	30.84
340.287	31.32
340.498	31.31
340.709	32.19
340.92	32.12
341.131	31.72
341.342	31.92
341.553	31.01
341.764	31.16
341.975	31.91
342.185	32.4
342.396	33.59
342.607	33.33
342.818	33.97
343.029	32.66
343.239	33.51
343.45	35.1
343.661	35.76
343.872	35.6
344.082	35.48
344.293	33.79
344.504	33.93
344.714	32.37
344.925	32.09
345.136	30.83
345.346	31.21
345.557	30
345.768	28.09
345.978	27.3
346.189	27.27
346.399	28.15
346.61	29.64
346.821	29.85
347.031	31.17
347.242	31.71
347.452	32.85
347.663	32.7
347.873	33.28
348.084	33.42
348.294	33.7
348.504	33.9
348.715	34.37
348.925	33.58
349.136	33.12
349.346	33.17
349.557	33.51
349.767	33.24
349.977	33.09
350.188	32.56
350.398	32.5
350.608	32.9
350.819	33.92
351.029	31.86
351.239	32.12
351.449	33.28
351.66	33.05
351.87	31.98
352.08	31.23
352.29	32.23
352.501	32.64
352.711	34.74
352.921	33.97
353.131	32.98
353.341	32.4
353.552	31.87
353.762	30.74
353.972	30.73
354.182	32.11
354.392	32.55
354.602	31.58
354.812	31.63
355.022	30.73
355.232	30.74
355.442	30.24
355.652	31.85
355.862	32.84
356.072	33.22
356.282	33.22
356.492	32.5
356.702	32.04
356.912	31.85
357.122	31.36
357.332	30.75
357.542	30.98
357.752	31.67
357.962	30.51
358.171	30.89
358.381	31.3
358.591	30.97
358.801	30.72
359.011	31
359.221	30.81
359.43	30.67
359.64	30.5
359.85	31.34
360.06	30.32
360.269	30.25
360.479	28.41
360.689	27.15
360.899	27.12
361.108	27.06
361.318	26.88
361.528	27.03
361.737	26.22
361.947	26.07
362.156	24.82
362.366	24.98
362.576	24.63
362.785	24.96
362.995	25.45
363.204	25.84
363.414	25.92
363.623	25.37
363.833	25.8
364.042	26.46
364.252	26.51
364.461	27.16
364.671	27.57
364.88	28.01
365.09	28.28
365.299	29.05
365.509	28.48
365.718	27.21
365.927	27.66
366.137	26.82
366.346	26.11
366.555	26.14
366.765	25.64
366.974	25.2
367.183	24.98
367.393	24.63
367.602	23.68
367.811	24.06
368.021	24.8
368.23	24.14
368.439	24.45
368.648	25.41
368.857	25.96
369.067	26.94
369.276	26.98
369.485	26.89
369.694	27.36
369.903	27.29
370.112	26.71
370.321	26.75
370.531	26.96
370.74	26.46
370.949	25.74
371.158	24.74
371.367	23.88
371.576	23.92
371.785	24.2
371.994	23.73
372.203	24.65
372.412	24.88
372.621	24.83
372.83	25.02
373.039	25.27
373.248	25.86
373.457	25.7
373.666	25.65
373.874	25.3
374.083	25.28
374.292	25.19
374.501	23.92
374.71	22.96
374.919	22.97
375.128	22.86
375.336	22.39
375.545	22.25
375.754	22.49
375.963	22.42
376.171	21.85
376.38	21.32
376.589	21.24
376.798	21.19
377.006	21.76
377.215	21.26
377.424	21.09
377.632	21.5
377.841	21.23
378.05	21.38
378.258	21.28
378.467	21.72
378.675	22.31
378.884	22.82
379.093	22.97
379.301	22.35
379.51	22.47
379.718	22.01
379.927	21.24
380.135	20.87
380.344	20.43
380.552	20.17
380.761	19.72
380.969	18.52
381.177	18.4
381.386	18.64
381.594	18.61
381.803	18.82
382.011	18.76
382.219	19.29
382.428	18.95
382.636	19.06
382.845	18.61
383.053	18.51
383.261	18.54
383.469	18.21
383.678	17.52
383.886	17.3
384.094	16.93
384.302	17.02
384.511	16.54
384.719	17.07
384.927	16.91
385.135	17.25
385.343	17.39
385.552	17.23
385.76	17.37
385.968	17.74
386.176	16.99
386.384	17.1
386.592	17.12
386.8	16.6
387.008	16.32
387.216	16
387.424	15.6
387.633	15.68
387.841	15.32
388.049	14.67
388.257	14.29
388.465	15.08
388.672	14.43
388.88	14.36
389.088	14.59
389.296	14.17
389.504	14.31
389.712	14.39
389.92	14.26
390.128	14.67
390.336	14.68
390.544	15.23
390.751	15.01
390.959	15.21
391.167	14.88
391.375	14.85
391.583	15.14
391.79	15.2
391.998	15.09
392.206	14.75
392.414	14.79
392.621	14.57
392.829	13.76
393.037	14.03
393.244	13.82
393.452	13.68
393.66	13.83
393.867	13.73
394.075	13.35
394.283	13.31
394.49	13.29
394.698	13.07
394.905	13.27
395.113	13.35
395.32	13.02
395.528	13.01
395.735	13.25
395.943	12.9
396.15	12.5
396.358	12.38
396.565	12.64
396.773	12.72
396.98	13.14
397.188	12.88
397.395	12.66
397.602	12.79
397.81	12.62
398.017	12.89
398.225	13.07
398.432	13.37
398.639	13.62
398.847	13.37
399.054	13.19
399.261	12.93
399.468	13.08
399.676	12.87
399.883	12.42
400.09	12.49
400.297	11.84
400.505	11.72
400.712	11.22
400.919	11.34
401.126	11.17
401.333	11.06
401.54	10.64
401.748	10.62
401.955	10.85
402.162	11.03
402.369	11.13
402.576	10.85
402.783	11.18
402.99	11.55
403.197	11.24
403.404	11.34
403.611	11.8
403.818	12.18
404.025	12.19
404.232	12.36
404.439	12.35
404.646	12.26
404.853	12.62
405.06	12.19
405.267	11.96
405.474	12.06
405.681	12.05
405.887	11.77
406.094	11.72
406.301	11.57
406.508	11.54
406.715	11.69
406.922	11.58
407.128	11.79
407.335	11.8
407.542	11.91
407.749	12.16
407.955	12.07
408.162	11.88
408.369	12.03
408.575	12.1
408.782	11.86
408.989	11.82
409.195	11.91
409.402	11.7
409.609	11.97
409.815	11.92
410.022	11.55
410.228	11.27
410.435	11.32
410.642	10.88
410.848	10.92
411.055	10.96
411.261	10.88
411.468	10.9
411.674	10.88
411.881	10.76
412.087	10.8
412.294	10.78
412.5	10.94
412.706	11.11
412.913	11.32
413.119	11.44
413.326	11.53
413.532	11.48
413.738	11.51
413.945	11.59
414.151	11.63
414.357	11.78
414.564	11.58
414.77	11.57
414.976	11.56
415.182	11.22
415.389	11.11
415.595	11.12
415.801	10.96
416.007	10.78
416.214	10.7
416.42	10.45
416.626	10.36
416.832	10.5
417.038	10.37
417.244	10.26
417.45	10.32
417.657	10
417.863	9.79
418.069	9.9
418.275	10.01
418.481	9.98
418.687	10.19
418.893	9.92
419.099	9.87
419.305	10.07
419.511	9.97
419.717	9.96
419.923	10.08
420.129	10.02
420.335	10
420.541	9.9
420.746	9.75
420.952	9.53
421.158	9.67
421.364	9.63
421.57	9.57
421.776	9.45
421.982	9.43
422.187	9.38
422.393	9.49
422.599	9.35
422.805	9.23
423.01	9.38
423.216	9.45
423.422	9.41
423.628	9.34
423.833	9.34
424.039	9.41
424.245	9.39
424.45	9.43
424.656	9.32
424.862	9.36
425.067	9.53
425.273	9.48
425.478	9.5
425.684	9.57
425.889	9.65
426.095	9.57
426.301	9.69
426.506	9.67
426.712	9.67
426.917	9.78
427.123	9.43
427.328	9.5
427.533	9.49
427.739	9.33
427.944	9.36
428.15	9.27
428.355	9.13
428.561	9.05
428.766	9.06
428.971	9.27
429.177	9.32
429.382	9.71
429.587	9.7
429.793	9.61
429.998	9.63
430.203	9.7
430.408	9.65
430.614	9.9
430.819	9.79
431.024	9.95
431.229	9.62
431.434	9.47
431.64	9.18
431.845	9.02
432.05	9.18
432.255	9.27
432.46	9.16
432.665	9.31
432.87	9.21
433.076	9.17
433.281	9.14
433.486	9.18
433.691	9.26
433.896	9.33
434.101	9.44
434.306	9.4
434.511	9.51
434.716	9.59
434.921	9.54
435.126	9.58
435.331	9.61
435.535	9.7
435.74	9.66
435.945	9.76
436.15	10.14
436.355	10.12
436.56	9.93
436.765	9.74
436.97	9.52
437.174	9.67
437.379	9.6
437.584	9.73
437.789	9.5
437.993	9.39
438.198	9.31
438.403	9.27
438.608	9.28
438.812	9.57
439.017	9.59
439.222	9.56
439.426	9.32
439.631	9.22
439.836	9.33
440.04	9.23
440.245	9.26
440.45	9.26
440.654	9.19
440.859	9.23
441.063	9.13
441.268	9.1
441.472	9.2
441.677	9.33
441.881	9.5
442.086	9.45
442.29	9.53
442.495	9.69
442.699	9.6
442.904	9.61
443.108	9.49
443.312	9.54
443.517	9.59
443.721	9.58
443.925	9.71
444.13	9.57
444.334	9.2
444.538	9.33
444.743	9.15
444.947	9.16
445.151	9.14
445.356	9.11
445.56	9.01
445.764	8.92
445.968	8.82
446.173	8.69
446.377	8.69
446.581	8.73
446.785	8.74
446.989	8.72
447.193	8.66
447.398	8.6
447.602	8.5
447.806	8.49
448.01	8.58
448.214	8.48
448.418	8.49
448.622	8.51
448.826	8.58
449.03	8.54
449.234	8.64
449.438	8.72
449.642	8.67
449.846	8.79
450.05	8.8
450.254	8.69
450.458	8.9
450.662	8.93
450.866	8.95
451.069	8.92
451.273	8.81
451.477	8.92
451.681	9.02
451.885	9.19
452.089	9.3
452.292	9.25
452.496	9.54
452.7	9.52
452.904	9.51
453.107	9.53
453.311	9.75
453.515	9.74
453.719	9.59
453.922	9.47
454.126	9.3
454.33	9.24
454.533	9.23
454.737	9.06
454.94	8.97
455.144	8.87
455.348	8.92
455.551	8.87
455.755	8.95
455.958	9
456.162	8.93
456.365	9.01
456.569	8.96
456.772	8.85
456.976	8.79
457.179	8.83
457.383	8.84
457.586	8.69
457.79	8.63
457.993	8.63
458.196	8.56
458.4	8.57
458.603	8.6
458.807	8.47
459.01	8.45
459.213	8.53
459.417	8.59
459.62	8.66
459.823	8.63
460.026	8.64
460.23	8.59
460.433	8.76
460.636	8.75
460.839	8.75
461.042	8.76
461.246	8.74
461.449	8.58
461.652	8.4
461.855	8.35
462.058	8.43
462.261	8.43
462.464	8.41
462.668	8.27
462.871	8.39
463.074	8.4
463.277	8.5
463.48	8.69
463.683	8.71
463.886	8.92
464.089	8.87
464.292	8.76
464.495	8.86
464.698	8.99
464.901	9.08
465.104	9.04
465.306	9.13
465.509	9.14
465.712	8.99
465.915	9
466.118	8.96
466.321	9.08
466.524	9.22
466.726	9.17
466.929	9.12
467.132	9.05
467.335	9.05
467.538	8.91
467.74	8.98
467.943	9.15
468.146	9.29
468.348	9.08
468.551	8.92
468.754	8.95
468.956	8.87
469.159	8.84
469.362	8.71
469.564	8.6
469.767	8.53
469.969	8.53
470.172	8.57
470.375	8.56
470.577	8.93
470.78	9.03
470.982	9.03
471.185	9.15
471.387	9.3
471.59	9.41
471.792	9.6
471.995	9.89
472.197	9.91
472.399	9.96
472.602	9.99
472.804	9.89
473.007	9.88
473.209	9.66
473.411	9.61
473.614	9.66
473.816	9.6
474.018	9.45
474.22	9.31
474.423	9.19
474.625	9.03
474.827	9.17
475.03	9.11
475.232	9.08
475.434	9.21
475.636	9.2
475.838	9.13
476.04	9.23
476.243	9.37
476.445	9.18
476.647	9.21
476.849	9.1
477.051	8.93
477.253	8.9
477.455	8.86
477.657	8.8
477.859	8.6
478.061	8.49
478.263	8.46
478.465	8.54
478.667	8.71
478.869	8.67
479.071	8.74
479.273	8.75
479.475	8.75
479.677	8.81
479.879	8.95
480.081	9.04
480.283	9.04
480.485	9
480.686	8.8
480.888	8.48
481.09	8.53
481.292	8.64
481.494	8.68
481.695	8.67
481.897	8.66
482.099	8.56
482.301	8.63
482.502	8.6
482.704	8.53
482.906	8.52
483.107	8.59
483.309	8.56
483.511	8.48
483.712	8.43
483.914	8.45
484.115	8.48
484.317	8.5
484.519	8.44
484.72	8.45
484.922	8.5
485.123	8.49
485.325	8.52
485.526	8.53
485.728	8.62
485.929	8.58
486.131	8.56
486.332	8.51
486.534	8.48
486.735	8.48
486.936	8.44
487.138	8.38
487.339	8.49
487.541	8.47
487.742	8.43
487.943	8.42
488.144	8.43
488.346	8.42
488.547	8.36
488.748	8.37
488.95	8.45
489.151	8.44
489.352	8.53
489.553	8.47
489.755	8.58
489.956	8.63
490.157	8.59
490.358	8.6
490.559	8.62
490.76	8.67
490.961	8.7
491.163	8.67
491.364	8.74
491.565	8.65
491.766	8.56
491.967	8.47
492.168	8.42
492.369	8.48
492.57	8.53
492.771	8.5
492.972	8.52
493.173	8.53
493.374	8.51
493.575	8.49
493.776	8.64
493.976	8.72
494.177	8.85
494.378	9.02
494.579	8.84
494.78	8.76
494.981	9
495.182	8.99
495.382	9.03
495.583	8.99
495.784	9.01
495.985	8.97
496.185	8.95
496.386	8.83
496.587	8.82
496.788	8.94
496.988	8.97
497.189	8.87
497.39	8.96
497.59	9.07
497.791	9.24
497.992	9.08
498.192	9.14
498.393	9.26
498.593	9.39
498.794	9.39
498.994	9.42
499.195	9.45
499.395	9.49
499.596	9.44
499.796	9.29
499.997	9.26
500.197	9.46
500.398	9.32
500.598	9.15
500.799	9.06
500.999	9.11
501.199	9.02
501.4	9.15
501.6	9.06
501.801	9.04
502.001	8.96
502.201	8.86
502.402	8.7
502.602	8.82
502.802	9.13
503.002	9.08
503.203	9.1
503.403	9.13
503.603	9.13
503.803	9.32
504.003	9.36
504.204	9.59
504.404	9.6
504.604	9.8
504.804	9.76
505.004	9.69
505.204	9.89
505.404	9.84
505.604	10.07
505.804	10.08
506.005	9.95
506.205	10.07
506.405	10.02
506.605	10.18
506.805	10.13
507.005	10.11
507.204	10.14
507.404	10.08
507.604	10.26
507.804	10.25
508.004	10.33
508.204	10.49
508.404	10.43
508.604	10.54
508.804	10.49
509.003	10.58
509.203	10.77
509.403	10.75
509.603	10.79
509.803	10.72
510.002	10.66
510.202	10.57
510.402	10.49
510.602	10.55
510.801	10.42
511.001	10.47
511.201	10.55
511.4	10.5
511.6	10.53
511.8	10.49
511.999	10.53
512.199	10.64
512.398	10.78
512.598	10.88
512.797	10.87
512.997	10.92
513.197	10.98
513.396	11.04
513.596	11
513.795	11.22
513.994	11.27
514.194	11.35
514.393	11.38
514.593	11.44
514.792	11.46
514.992	11.55
515.191	11.6
515.39	11.69
515.59	11.66
515.789	11.72
515.988	11.54
516.188	11.58
516.387	11.59
516.586	11.5
516.786	11.36
516.985	11.43
517.184	11.45
517.383	11.42
517.582	11.36
517.782	11.4
517.981	11.44
518.18	11.52
518.379	11.6
518.578	11.59
518.777	11.64
518.976	11.71
519.176	11.57
519.375	11.66
519.574	11.81
519.773	11.95
519.972	11.9
520.171	12.05
520.37	11.98
520.569	11.94
520.768	12.04
520.967	12.07
521.166	12.3
521.365	12.47
521.564	12.4
521.762	12.35
521.961	12.3
522.16	12.35
522.359	12.32
522.558	12.47
522.757	12.46
522.956	12.45
523.154	12.57
523.353	12.44
523.552	12.53
523.751	12.54
523.949	12.66
524.148	12.68
524.347	12.64
524.546	12.78
524.744	12.76
524.943	12.87
525.142	12.74
525.34	12.72
525.539	12.69
525.737	12.63
525.936	12.65
526.135	12.54
526.333	12.41
526.532	12.47
526.73	12.36
526.929	12.36
527.127	12.31
527.326	12.34
527.524	12.36
527.723	12.37
527.921	12.45
528.12	12.48
528.318	12.6
528.516	12.71
528.715	12.77
528.913	12.75
529.112	12.76
529.31	12.79
529.508	12.87
529.707	12.94
529.905	12.98
530.103	12.94
530.301	12.97
530.5	12.95
530.698	12.89
530.896	12.86
531.094	12.92
531.293	12.95
531.491	13.04
531.689	13.05
531.887	13
532.085	12.92
532.283	12.93
532.481	12.93
532.68	13.02
532.878	13.14
533.076	13.1
533.274	13.1
533.472	13.17
533.67	13.15
533.868	13.18
534.066	13.17
534.264	13.2
534.462	13.32
534.66	13.4
534.858	13.36
535.056	13.49
535.253	13.62
535.451	13.63
535.649	13.64
535.847	13.68
536.045	13.64
536.243	13.75
536.441	13.84
536.638	13.8
536.836	13.73
537.034	13.68
537.232	13.49
537.43	13.36
537.627	13.38
537.825	13.31
538.023	13.41
538.22	13.6
538.418	13.65
538.616	13.85
538.813	13.96
539.011	14.07
539.209	14.3
539.406	14.46
539.604	14.67
539.801	14.76
539.999	14.9
540.196	14.84
540.394	14.79
540.591	14.79
540.789	14.8
540.986	14.76
541.184	14.79
541.381	14.86
541.579	14.86
541.776	14.9
541.974	14.96
542.171	15.07
542.368	15.19
542.566	15.3
542.763	15.44
542.96	15.43
543.158	15.62
543.355	15.68
543.552	15.74
543.75	15.82
543.947	15.87
544.144	16.06
544.341	16.12
544.539	16.12
544.736	16.19
544.933	16.22
545.13	16.35
545.327	16.29
545.524	16.44
545.722	16.31
545.919	16.34
546.116	16.43
546.313	16.31
546.51	16.32
546.707	16.34
546.904	16.32
547.101	16.1
547.298	16.13
547.495	16.14
547.692	16.05
547.889	16.21
548.086	16.44
548.283	16.39
548.48	16.4
548.677	16.39
548.874	16.43
549.07	16.61
549.267	16.79
549.464	16.76
549.661	16.93
549.858	17.03
550.055	16.97
550.251	16.7
550.448	16.58
550.645	16.59
550.842	16.7
551.038	16.9
551.235	16.78
551.432	16.89
551.628	16.92
551.825	16.98
552.022	17.05
552.218	17.3
552.415	17.38
552.612	17.6
552.808	17.77
553.005	17.66
553.201	17.52
553.398	17.49
553.594	17.58
553.791	17.52
553.987	17.53
554.184	17.64
554.38	17.48
554.577	17.43
554.773	17.61
554.97	17.49
555.166	17.68
555.362	17.8
555.559	17.86
555.755	17.87
555.952	18.38
556.148	18.47
556.344	18.39
556.541	18.24
556.737	18.47
556.933	18.46
557.129	18.9
557.326	18.8
557.522	18.91
557.718	18.94
557.914	19.12
558.11	18.87
558.307	18.99
558.503	19.12
558.699	19.43
558.895	19.3
559.091	19.41
559.287	19.28
559.483	19.44
559.679	19.48
559.876	19.59
560.072	19.71
560.268	19.92
560.464	19.74
560.66	19.82
560.856	19.77
561.052	19.97
561.247	19.99
561.443	20.13
561.639	20.12
561.835	20.08
562.031	20.29
562.227	20.37
562.423	20.27
562.619	20.48
562.815	20.59
563.01	20.83
563.206	20.97
563.402	21.2
563.598	21.1
563.793	21.11
563.989	21.17
564.185	21.23
564.381	20.97
564.576	20.92
564.772	20.97
564.968	20.82
565.163	20.68
565.359	20.71
565.555	20.71
565.75	20.72
565.946	20.85
566.141	20.99
566.337	21.03
566.532	21.29
566.728	21.45
566.923	21.5
567.119	21.57
567.314	21.75
567.51	21.72
567.705	21.79
567.901	21.97
568.096	22.09
568.292	22.22
568.487	22.24
568.682	22.04
568.878	22.2
569.073	22.27
569.268	22.4
569.464	22.54
569.659	22.68
569.854	22.45
570.05	22.35
570.245	22.38
570.44	22.24
570.635	22.31
570.831	22.55
571.026	22.45
571.221	22.56
571.416	22.62
571.611	22.73
571.806	22.89
572.002	23.1
572.197	23.24
572.392	23.17
572.587	23.34
572.782	23.28
572.977	23.3
573.172	23.27
573.367	23.29
573.562	23.25
573.757	23.29
573.952	23.21
574.147	23.14
574.342	23.01
574.537	23.13
574.732	23.15
574.927	23.18
575.121	23.23
575.316	23.29
575.511	23.35
575.706	23.48
575.901	23.41
576.096	23.61
576.29	23.71
576.485	23.77
576.68	23.78
576.875	23.79
577.069	24.11
577.264	24.09
577.459	24.3
577.654	24.32
577.848	24.41
578.043	24.44
578.238	24.17
578.432	24.37
578.627	24.49
578.821	24.64
579.016	24.84
579.21	24.44
579.405	24.55
579.6	24.27
579.794	24.56
579.989	24.62
580.183	24.85
580.378	25.29
580.572	25.41
580.766	25.66
580.961	25.78
581.155	25.61
581.35	26.02
581.544	25.97
581.738	26.35
581.933	26.17
582.127	26.24
582.321	26.22
582.516	26.09
582.71	25.94
582.904	25.99
583.099	26.14
583.293	26.21
583.487	26.38
583.681	26.6
583.875	26.76
584.07	26.66
584.264	26.62
584.458	26.35
584.652	26.15
584.846	26.31
585.04	26.09
585.234	26.14
585.428	26.1
585.623	25.79
585.817	26.14
586.011	25.96
586.205	26.11
586.399	25.93
586.593	25.96
586.787	26.17
586.981	26.03
587.174	26.02
587.368	25.86
587.562	25.95
587.756	26.05
587.95	25.65
588.144	25.84
588.338	25.82
588.532	25.96
588.725	26.04
588.919	25.89
589.113	25.91
589.307	25.85
589.501	25.71
589.694	25.78
589.888	25.65
590.082	25.68
590.275	25.58
590.469	25.72
590.663	26.06
590.856	26.05
591.05	26.35
591.244	26.54
591.437	26.83
591.631	26.91
591.824	27
592.018	27.08
592.212	27.11
592.405	27.13
592.599	27.03
592.792	26.91
592.986	26.95
593.179	26.84
593.372	26.71
593.566	26.63
593.759	26.57
593.953	26.63
594.146	26.7
594.339	26.45
594.533	26.37
594.726	26.3
594.92	26.28
595.113	26.42
595.306	26.52
595.499	26.43
595.693	26.57
595.886	26.57
596.079	26.43
596.272	26.27
596.466	26.39
596.659	26.52
596.852	26.37
597.045	26.29
597.238	26.19
597.431	26.08
597.624	26.11
597.818	26.16
598.011	26.24
598.204	26.3
598.397	26.27
598.59	26.21
598.783	26.1
598.976	26.23
599.169	26.31
599.362	26.44
599.555	26.5
599.748	26.55
599.941	26.54
600.134	26.78
600.326	26.7
600.519	26.9
600.712	26.93
600.905	26.91
601.098	27.18
601.291	27.13
601.483	26.98
601.676	27
601.869	27.12
602.062	27.14
602.255	26.76
602.447	26.81
602.64	26.98
602.833	27.19
603.025	27.23
603.218	27.3
603.411	27.26
603.603	27.39
603.796	27.32
603.989	27.34
604.181	27.14
604.374	27.26
604.566	27.21
604.759	27.08
604.951	27.03
605.144	27.12
605.336	26.85
605.529	26.81
605.721	26.9
605.914	26.89
606.106	26.91
606.299	27.06
606.491	27.13
606.683	27.14
606.876	27.32
607.068	27.36
607.26	27.38
607.453	27.37
607.645	27.65
607.837	27.63
608.03	27.94
608.222	27.88
608.414	27.68
608.606	27.63
608.799	27.69
608.991	27.72
609.183	27.9
609.375	27.89
609.567	28.3
609.759	28.19
609.952	28.38
610.144	28.48
610.336	28.73
610.528	29.24
610.72	29.66
610.912	29.89
611.104	30.14
611.296	30.41
611.488	30.53
611.68	30.49
611.872	30.6
612.064	30.58
612.256	30.53
612.448	30.33
612.64	30.2
612.832	30.04
613.023	30.24
613.215	30.06
613.407	29.86
613.599	29.81
613.791	29.78
613.983	29.88
614.174	29.92
614.366	29.5
614.558	29.44
614.75	29.31
614.941	29.28
615.133	29.04
615.325	28.9
615.516	28.71
615.708	28.98
615.9	28.83
616.091	28.97
616.283	28.92
616.475	29.17
616.666	29.25
616.858	29.07
617.049	28.98
617.241	28.97
617.432	29.23
617.624	29.14
617.815	28.88
618.007	28.89
618.198	28.53
618.39	28.33
618.581	28.1
618.773	28.27
618.964	28.43
619.155	28.39
619.347	28.09
619.538	28.14
619.729	28.45
619.921	28.49
620.112	28.54
620.303	28.7
620.494	28.58
620.686	28.82
620.877	28.72
621.068	28.5
621.259	28.51
621.451	28.86
621.642	28.66
621.833	28.54
622.024	28.53
622.215	28.59
622.406	28.38
622.597	28.64
622.788	28.88
622.98	28.66
623.171	28.66
623.362	28.78
623.553	28.67
623.744	28.4
623.935	28.26
624.126	28.17
624.317	27.92
624.508	28
624.698	28.02
624.889	27.67
625.08	28.09
625.271	28.14
625.462	27.92
625.653	27.97
625.844	28.36
626.034	28.47
626.225	28.49
626.416	28.51
626.607	28.57
626.798	28.42
626.988	28.82
627.179	28.72
627.37	28.74
627.56	28.8
627.751	28.56
627.942	28.4
628.132	28.05
628.323	28.12
628.514	28.2
628.704	28.2
628.895	28.38
629.085	28.06
629.276	28.02
629.466	28.07
629.657	28.04
629.847	28.01
630.038	28.18
630.228	28.42
630.419	28.36
630.609	28.4
630.8	28.57
630.99	28.71
631.181	28.69
631.371	28.69
631.561	28.57
631.752	28.68
631.942	28.63
632.132	28.43
632.323	28.62
632.513	28.74
632.703	28.66
632.893	28.43
633.084	27.69
633.274	27.81
633.464	27.84
633.654	28.17
633.844	28.17
634.034	27.85
634.225	27.91
634.415	27.89
634.605	28.05
634.795	28.19
634.985	28.23
635.175	28.71
635.365	28.81
635.555	28.56
635.745	28.37
635.935	28.75
636.125	29.31
636.315	29.35
636.505	29.21
636.695	28.79
636.885	28.64
637.075	28.68
637.265	28.68
637.455	28.74
637.644	28.78
637.834	28.77
638.024	28.12
638.214	28.29
638.404	28.05
638.593	28.02
638.783	28.11
638.973	28.25
639.163	28.31
639.352	28.02
639.542	27.46
639.732	27.55
639.921	27.26
640.111	27.53
640.301	27.3
640.49	27.71
640.68	27.73
640.87	27.88
641.059	28.01
641.249	28.17
641.438	28.44
641.628	28.94
641.817	29.16
642.007	29.55
642.196	29.89
642.386	29.9
642.575	29.87
642.764	29.69
642.954	29.86
643.143	29.79
643.333	29.61
643.522	29.58
643.711	29.58
643.901	29.46
644.09	29.37
644.279	29.28
644.469	29.65
644.658	29.36
644.847	29.83
645.036	29.9
645.226	29.7
645.415	29.68
645.604	30.13
645.793	30.09
645.982	30.04
646.171	30.04
646.361	30.07
646.55	29.9
646.739	29.87
646.928	29.62
647.117	29.41
647.306	29.5
647.495	29.53
647.684	29.02
647.873	28.97
648.062	29.21
648.251	29.39
648.44	29.08
648.629	29.38
648.818	29.23
649.007	29.42
649.196	29.61
649.384	29.54
649.573	29.29
649.762	29.45
649.951	29.21
650.14	29.22
650.328	28.96
650.517	28.97
650.706	28.64
650.895	28.71
651.083	28.38
651.272	28.47
651.461	28.23
651.65	28.4
651.838	28.49
652.027	28.63
652.216	28.58
652.404	28.46
652.593	28.6
652.781	28.64
652.97	29.14
653.158	29.35
653.347	29.18
653.535	29.71
653.724	29.89
653.912	29.64
654.101	29.4
654.289	28.93
654.478	29.07
654.666	28.58
654.855	28.52
655.043	28.37
655.231	28.49
655.42	28.23
655.608	28.16
655.796	28.23
655.985	28.63
656.173	28.6
656.361	28.93
656.55	29.12
656.738	29.46
656.926	29.31
657.114	28.98
657.302	28.81
657.491	28.54
657.679	28.34
657.867	28.09
658.055	27.9
658.243	28.22
658.431	28.02
658.619	27.73
658.807	28.02
658.996	28
659.184	28.28
659.372	28.1
659.56	28.52
659.748	28.58
659.936	28.97
660.124	29.09
660.311	28.81
660.499	29.32
660.687	29.38
660.875	28.85
661.063	28.96
661.251	28.74
661.439	29.21
661.627	29.11
661.814	29.49
662.002	29.41
662.19	29.05
662.378	29.57
662.565	28.99
662.753	29.13
662.941	29
663.129	28.5
663.316	28.64
663.504	28.86
663.692	29.06
663.879	28.58
664.067	28.33
664.254	28.88
664.442	29.07
664.63	29.12
664.817	29.22
665.005	29.55
665.192	30.3
665.38	30.2
665.567	29.73
665.755	29.04
665.942	28.95
666.13	29.43
666.317	29.41
666.504	29.08
666.692	29.03
666.879	28.69
667.067	28.53
667.254	28.49
667.441	28.68
667.629	28.69
667.816	29.63
668.003	29.88
668.19	29.5
668.378	29.71
668.565	30.26
668.752	30.16
668.939	30.76
669.127	31.19
669.314	30.95
669.501	30.77
669.688	30.99
669.875	31.21
670.062	31.23
670.249	31.09
670.436	30.62
670.623	29.96
670.81	30.36
670.997	29.83
671.184	29.73
671.371	30.07
671.558	30.14
671.745	29.79
671.932	29.66
672.119	29.92
672.306	30.27
672.493	30.42
672.68	30.46
672.867	30.41
673.054	30.59
673.24	30.76
673.427	30.68
673.614	30.87
673.801	31.35
673.988	30.92
674.174	30.29
674.361	30.02
674.548	30.08
674.734	30.07
674.921	29.82
675.108	29.9
675.294	29.63
675.481	29.82
675.668	29.75
675.854	29.75
676.041	29.67
676.227	29.74
676.414	30.32
676.601	30.21
676.787	30.25
676.974	30.37
677.16	30.66
677.347	31.21
677.533	30.76
677.719	30.71
677.906	30.22
678.092	30.21
678.279	30.59
678.465	30.45
678.651	30.59
678.838	30.73
679.024	30.69
679.21	30.41
679.397	30.03
679.583	30.28
679.769	30.34
679.955	30.66
680.142	30.92
680.328	31.09
680.514	30.5
680.7	30.29
680.886	30.43
681.073	30.25
681.259	30.34
681.445	30.16
681.631	30.73
681.817	30.51
682.003	30.09
682.189	29.76
682.375	29.61
682.561	29.92
682.747	29.87
682.933	30
683.119	30.41
683.305	30.25
683.491	30.19
683.677	29.62
683.863	29.41
684.049	29.44
684.235	29.42
684.42	29.02
684.606	28.65
684.792	28.85
684.978	28.66
685.164	28.72
685.349	29.06
685.535	28.89
685.721	28.77
685.907	29.68
686.092	29.44
686.278	29.55
686.464	30.43
686.649	30.75
686.835	30.14
687.021	29.74
687.206	29.58
687.392	28.92
687.577	29.39
687.763	29.48
687.948	29.13
688.134	29.42
688.319	29.48
688.505	29
688.69	28.97
688.876	29.48
689.061	29.77
689.247	29.87
689.432	30.17
689.618	30.29
689.803	30.38
689.988	30.14
690.174	30.07
690.359	29.8
690.544	29.69
690.73	29.55
690.915	29.93
691.1	29.77
691.285	29.82
691.471	29.91
691.656	29.87
691.841	29.86
692.026	30.12
692.211	30.89
692.396	30.72
692.582	30.23
692.767	30.43
692.952	30.08
693.137	30.61
693.322	30.63
693.507	31.28
693.692	30.62
693.877	30.7
694.062	30.85
694.247	30.74
694.432	31.12
694.617	31.07
694.802	31.17
694.987	31.25
695.172	30.69
695.357	30.09
695.541	29.62
695.726	30.25
695.911	29.71
696.096	29.92
696.281	29.51
696.466	29.78
696.65	30.6
696.835	30.73
697.02	30.67
697.204	31.08
697.389	31.39
697.574	31.54
697.759	31.47
697.943	31.66
698.128	31.39
698.312	31.4
698.497	31.14
698.682	30.59
698.866	30.38
699.051	29.92
699.235	29.65
699.42	29.82
699.604	29.53
699.789	29.48
699.973	29.59
700.158	29.08
700.342	29.14
700.527	29.29
700.711	29.79
700.895	30.02
701.08	30.68
701.264	30.52
701.448	30.38
701.633	30.4
701.817	30.38
702.001	30.27
702.186	30.76
702.37	30.74
702.554	30.83
702.738	30.15
702.923	30.03
703.107	29.99
703.291	29.62
703.475	29.72
703.659	30.12
703.843	30.77
704.027	31.24
704.212	31.21
704.396	32
704.58	31.95
704.764	32.6
704.948	32.87
705.132	33.34
705.316	33.47
705.5	33.29
705.684	33.18
705.868	32.63
706.052	32.44
706.235	33.13
706.419	33.03
706.603	32.83
706.787	32.82
706.971	32.19
707.155	31.56
707.339	32.27
707.522	32.43
707.706	32.71
707.89	32.87
708.074	33.02
708.257	32.08
708.441	31.07
708.625	31.09
708.808	30.07
708.992	30.09
709.176	30.62
709.359	30.43
709.543	30.71
709.727	30.12
709.91	29.83
710.094	29.49
710.277	29.57
710.461	29.88
710.644	29.88
710.828	30.45
711.011	30.58
711.195	30.39
711.378	30.96
711.562	30.9
711.745	30.93
711.928	30.96
712.112	30.82
712.295	31.11
712.478	31.12
712.662	30.83
712.845	31.26
713.028	30.98
713.212	30.81
713.395	30.39
713.578	30.48
713.761	30.64
713.945	30.97
714.128	30.48
714.311	30.87
714.494	30.74
714.677	31.39
714.86	31.03
715.043	31.86
715.227	31.75
715.41	31.35
715.593	30.97
715.776	31.75
715.959	31.16
716.142	32.19
716.325	31.44
716.508	32.33
716.691	31.92
716.874	32.22
717.057	31.74
717.239	32.01
717.422	31.94
717.605	32.25
717.788	31.23
717.971	31.02
718.154	30.56
718.337	31.62
718.519	30.45
718.702	30.56
718.885	30.98
719.068	30.31
719.25	30.54
719.433	31.44
719.616	30.85
719.798	30.72
719.981	31.9
720.164	31.78
720.346	31.87
720.529	31.7
720.712	31.55
720.894	30.94
721.077	32.06
721.259	32.16
721.442	32.01
721.624	31.84
721.807	31.57
721.989	30.95
722.172	31.27
722.354	29.89
722.537	30.83
722.719	32.18
722.901	31.5
723.084	31.31
723.266	30.64
723.448	29.7
723.631	29.37
723.813	30.37
723.995	30.65
724.178	30.13
724.36	30.87
724.542	30.88
724.724	29.7
724.907	30.96
725.089	31.3
725.271	31.73
725.453	32.1
725.635	32.92
725.817	31.87
725.999	32.1
726.181	32.22
726.364	31.86
726.546	32.37
726.728	32.8
726.91	31.65
727.092	31.41
727.274	30.88
727.456	31.71
727.638	31.57
727.819	32.12
728.001	31.66
728.183	32.04
728.365	32.24
728.547	31.99
728.729	31.64
728.911	31.96
729.093	32.32
729.274	33.19
729.456	32.1
729.638	32.67
729.82	32.34
730.001	31.78
730.183	31.88
730.365	31.39
730.546	31.9
730.728	32.53
730.91	33.42
731.091	33.19
731.273	32.5
731.455	33.03
731.636	32.84
731.818	33.53
731.999	33.86
732.181	33.27
732.362	33.26
732.544	32.33
732.725	32.56
732.907	30.83
733.088	30.6
733.27	31.15
733.451	30.89
733.633	30.83
733.814	31.08
733.995	30.79
734.177	31.48
734.358	31.27
734.539	30.75
734.721	30.69
734.902	31.79
735.083	31.58
735.264	31.24
735.446	32.47
735.627	33.65
735.808	32.86
735.989	34.66
736.17	35.11
736.351	36.71
736.533	37.29
736.714	36.65
736.895	35.75
737.076	36.56
737.257	36.42
737.438	35.34
737.619	33.67
737.8	34.38
737.981	33.55
738.162	33.85
738.343	32.64
738.524	33.5
738.705	34.18
738.886	34.84
739.067	34.37
739.247	34.25
739.428	34.48
739.609	33.91
739.79	33.67
739.971	33.99
740.151	32.85
740.332	33.51
740.513	32.59
740.694	32.25
740.874	33.43
741.055	33.32
741.236	34.6
741.417	34.45
741.597	35.28
741.778	35
741.958	34.28
742.139	34.93
742.32	34.8
742.5	35.37
742.681	34.63
742.861	33.25
743.042	33.07
743.222	30.97
743.403	32
743.583	31.42
743.764	31.58
743.944	32.59
744.124	30.93
744.305	30.84
744.485	31.27
744.666	30.88
744.846	31.8
745.026	32.05
745.207	32.75
745.387	32.76
745.567	33.49
745.747	33.34
745.928	33.02
746.108	33.89
746.288	34.82
746.468	33.13
746.648	33.77
746.829	34.31
747.009	34.8
747.189	34.9
747.369	34.53
747.549	35.37
747.729	35
747.909	34.05
748.089	34.46
748.269	33.86
748.449	34.4
748.629	34.89
748.809	33.92
748.989	33.2
749.169	33.78
749.349	32.93
749.529	32.65
749.709	33.26
749.889	32.97
750.068	33.18
750.248	32.26
750.428	32.82
750.608	31.79
750.788	32.81
750.967	33.01
751.147	32.28
751.327	32.65
751.507	33.45
751.686	33.65
751.866	34.7
752.046	34.75
752.225	35.94
752.405	36.65
752.585	36.78
752.764	37.03
752.944	36.86
753.123	37.1
753.303	36.63
753.482	34.1
753.662	33.87
753.841	34.02
754.021	32.94
754.2	32.11
754.38	31.93
754.559	32.92
754.739	32.17
754.918	32.52
755.097	32.91
755.277	33.67
755.456	35.21
755.635	35.4
755.815	35.36
755.994	36.97
756.173	38.44
756.352	36.17
756.532	35.79
756.711	34.83
756.89	34.46
757.069	34.73
757.248	34.85
757.427	35.17
757.607	34.91
757.786	33.62
757.965	33.46
758.144	32.74
758.323	34.35
758.502	33.49
758.681	34.26
758.86	34.88
759.039	33.51
759.218	33.14
759.397	32.93
759.576	33.58
759.755	34.96
759.934	33.8
760.113	33.11
760.291	33.11
760.47	33.55
760.649	33.05
760.828	33.24
761.007	33.78
761.186	34.75
761.364	34.27
761.543	33.78
761.722	33.07
761.901	33.39
762.079	34.48
762.258	34.52
762.437	34.73
762.615	34.67
762.794	34.45
762.972	34.5
763.151	33.07
763.33	32.58
763.508	31.84
763.687	31.98
763.865	31.84
764.044	31.03
764.222	31.32
764.401	30.53
764.579	31.55
764.758	30.94
764.936	30.68
765.114	31.97
765.293	32.71
765.471	34.02
765.65	34.71
765.828	34.5
766.006	34.14
766.184	33.35
766.363	34.11
766.541	32.16
766.719	33
766.898	33.57
767.076	31.49
767.254	31.42
767.432	31.19
767.61	31.63
767.788	31.64
767.967	33.39
768.145	32.85
768.323	34.04
768.501	35.24
768.679	35.85
768.857	35.96
769.035	39.41
769.213	38.6
769.391	39.12
769.569	37.71
769.747	38.5
769.925	36.64
770.103	39.41
770.281	38.67
770.459	39.27
770.636	37.97
770.814	37.68
770.992	37.1
771.17	38.42
771.348	39.59
771.525	40.93
771.703	41.49
771.881	43.48
772.059	43.11
772.236	42.41
772.414	41.72
772.592	40.84
772.769	42.75
772.947	41.16
773.125	40.58
773.302	39.18
773.48	37.77
773.657	37.91
773.835	37.11
774.013	36.5
774.19	37.93
774.368	38.58
774.545	38.41
774.723	37.08
774.9	36.88
775.077	37.54
775.255	37.11
775.432	38.3
775.61	40.01
775.787	39.28
775.964	38.16
776.142	36.74
776.319	33.3
776.496	34.86
776.674	35.49
776.851	36.69
777.028	36.03
777.205	36.71
777.382	36.08
777.56	34.14
777.737	34.8
777.914	34.1
778.091	32.8
778.268	35.75
778.445	36.68
778.622	36.31
778.8	36.32
778.977	36
779.154	34.43
779.331	33.69
779.508	34.35
779.685	33.25
779.862	32.72
780.038	34.61
780.215	34.71
780.392	32.69
780.569	33.08
780.746	31.44
780.923	32.24
781.1	33.8
781.277	33.01
781.453	31.97
781.63	32.64
781.807	38.8
781.984	41.1
782.16	40.56
782.337	41.44
782.514	41.02
782.691	40.67
782.867	40.86
783.044	40.6
783.221	42.22
783.397	43.93
783.574	45.38
783.75	42.8
783.927	38.77
784.103	38.89
784.28	38.34
784.456	40.83
784.633	42.72
784.809	43.09
784.986	42.1
785.162	42.89
785.339	42.31
785.515	43.2
785.692	41.53
785.868	43.65
786.044	44.53
786.221	43.51
786.397	43.21
786.573	41.32
786.749	42.68
786.926	45.55
787.102	44.27
787.278	43.73
787.454	39.89
787.631	41.74
787.807	38.09
787.983	36.76
788.159	38.67
788.335	35.56
788.511	36.13
788.687	33.37
788.863	31.07
789.039	31.26
789.216	30.6
789.392	33.29
789.568	32.34
789.744	37.4
789.919	37.41
790.095	34
790.271	32.84
790.447	32.25
790.623	34.82
790.799	35.34
790.975	36.74
791.151	36.47
791.327	35.69
791.502	37.42
791.678	34.16
791.854	34.67
792.03	37.48
792.205	39.52
792.381	41.2
792.557	40.9
792.733	38.75
792.908	39.4
793.084	41
793.259	38.71
793.435	36.31
793.611	36.49
793.786	36.21
793.962	35.38
794.137	35.7
794.313	37.07
794.488	36.37
794.664	37.46
794.839	36.37
795.015	38.23
795.19	40.49
795.366	41.47
795.541	42.26
795.716	42.59
795.892	45.71
796.067	46.14
796.242	45.49
796.418	43.91
796.593	44.91
796.768	44.29
796.944	40.02
797.119	41.43
797.294	38.97
797.469	38.43
797.644	36.63
797.82	35.93
797.995	35.36
798.17	34.04
798.345	37.07
798.52	37.25
798.695	37.35
798.87	38.22
799.045	35.17
799.22	35.53
799.395	37.52
799.57	40.91
799.745	38.84
799.92	36.33
800.095	36.59
800.27	35.38
800.445	36.99
800.62	36.61
800.795	38.8
800.97	41.16
801.145	41.01
801.319	36.87
801.494	36.75
801.669	39.16
801.844	45.18
802.018	43.78
802.193	47.08
802.368	45.45
802.543	43.16
802.717	40.73
802.892	42.57
803.067	42.85
803.241	49.43
803.416	47.55
803.59	48.6
803.765	45.22
803.94	43.23
804.114	38.71
804.289	37.08
804.463	40.84
804.638	44.04
804.812	40.38
804.986	44.15
805.161	41.22
805.335	42.9
805.51	39.52
805.684	41.48
805.858	45.94
806.033	46.54
806.207	48.25
806.381	49.03
806.556	49.48
806.73	49.69
806.904	45.26
807.078	45.35
807.253	46.94
807.427	48.63
807.601	46.1
807.775	43.87
807.949	41.2
808.123	44.7
808.298	43.5
808.472	44.64
808.646	41.28
808.82	43.3
808.994	45.73
809.168	44.32
809.342	46.35
809.516	47.79
809.69	47.51
809.864	48.9
810.038	41.91
810.212	40.65
810.385	38.11
810.559	44.46
810.733	47.62
810.907	46.01
811.081	44.93
811.255	45.21
811.428	41.64
811.602	42.37
811.776	45.7
811.95	45.72
812.123	45.91
812.297	43.92
812.471	45.55
812.644	40.05
812.818	43.14
812.992	42.88
813.165	43.39
813.339	46.14
813.512	43.33
813.686	43.96
813.86	45.26
814.033	47.01
814.207	52.19
814.38	46.95
814.554	52.89
814.727	48.09
814.9	44.74
815.074	43.34
815.247	42.13
815.421	47.89
815.594	47.14
815.767	49.07
815.941	45.73
816.114	44.5
816.287	46.69
816.46	40.43
816.634	38.84
816.807	42.03
816.98	40.88
817.153	44.97
817.327	44.04
817.5	42.03
817.673	44.54
817.846	47.7
818.019	45.25
818.192	45.87
818.365	47.11
818.538	47.37
818.711	49.59
818.884	46.9
819.057	44.93
819.23	46.17
819.403	45.13
819.576	42.15
819.749	39.95
819.922	41.28
820.095	39.28
820.268	38.47
820.441	37.17
820.614	35.07
820.786	35.3
820.959	32.98
821.132	30.38
821.305	30.01
821.477	31.22
821.65	32.63
821.823	32.25
821.996	31.91
822.168	32.92
822.341	33.75
822.514	32.85
822.686	32.84
822.859	33.05
823.031	33.59
823.204	33.32
823.376	33.5
823.549	33.15
823.722	33.73
823.894	34.44
824.067	34.39
824.239	33.43
824.411	34.97
824.584	35.42
824.756	35.89
824.929	35.64
825.101	36.35
825.273	35.5
825.446	35.94
825.618	35.28
825.79	35.58
825.963	35.66
826.135	37.98
826.307	37.04
826.479	37.26
826.652	35.99
826.824	37.2
826.996	36.66
827.168	36.99
827.34	36.65
827.512	35.73
827.684	33.86
827.856	33.47
828.029	31.7
828.201	31.48
828.373	31.64
828.545	33.93
828.717	31.95
828.889	32.03
829.061	31.61
829.232	30.1
829.404	32.21
829.576	33.47
829.748	35.53
829.92	36.16
830.092	36.6
830.264	35.84
830.436	35.35
830.607	39
830.779	42.36
830.951	44.13
831.123	46.36
831.294	46.87
831.466	48.43
831.638	45.82
831.809	45.1
831.981	44.53
832.153	45.94
832.324	44.65
832.496	42.32
832.667	44.2
832.839	42.98
833.011	41.6
833.182	41.27
833.354	39
833.525	38.12
833.697	39.97
833.868	41.62
834.039	41.35
834.211	40.25
834.382	38.98
834.554	36.34
834.725	36.57
834.896	37.23
835.068	32.98
835.239	33.52
835.41	31.96
835.581	31.94
835.753	31.13
835.924	30.14
836.095	31.91
836.266	30.62
836.438	32.24
836.609	33.41
836.78	34.5
836.951	37.16
837.122	36.76
837.293	37.22
837.464	39.36
837.635	38.41
837.806	37.3
837.977	37.6
838.148	39.89
838.319	38.73
838.49	35.68
838.661	36.23
838.832	36.38
839.003	40.31
839.174	44.88
839.345	38.71
839.516	40.96
839.687	46.75
839.857	46.48
840.028	45.73
840.199	42.26
840.37	44.65
840.54	42.04
840.711	46.53
840.882	43.62
841.053	48.08
841.223	47.77
841.394	47.54
841.564	45.43
841.735	50.81
841.906	55.73
842.076	59.57
842.247	60.8
842.417	63.56
842.588	66.1
842.758	71.84
842.929	66.94
843.099	73.38
843.27	77.85
843.44	77.43
843.611	65.72
843.781	64.77
843.951	57.64
844.122	52.58
844.292	52.3
844.462	44.42
844.633	40.39
844.803	48.12
844.973	46.19
845.144	39.02
845.314	40.34
845.484	47.69
845.654	53.07
845.824	61.16
845.995	65.34
846.165	76.16
846.335	74.22
846.505	80.16
846.675	70.71
846.845	65.27
847.015	67.8
847.185	64.24
847.355	62.67
847.525	55.68
847.695	54.61
847.865	57.51
848.035	49.24
848.205	52.8
848.375	48.65
848.545	61.68
848.715	70.74
848.884	72.35
849.054	68.68
849.224	73.26
849.394	77.11
849.564	81.23
849.733	79.32
849.903	68.86
850.073	56.51
850.243	54.23
850.412	61.4
850.582	78.42
850.752	75.62
850.921	72.21
851.091	67.64
851.26	64.39
851.43	53.66
851.599	52.82
851.769	61.41
851.939	68.6
852.108	69.62
852.278	53.49
852.447	42.92
852.616	43.08
852.786	46.57
852.955	43.95
853.125	42.26
853.294	40.44
853.463	46.64
853.633	51.31
853.802	45.54
853.971	53.65
854.141	71.55
854.31	64.29
854.479	72.54
854.648	68.08
854.818	71.11
854.987	67.25
855.156	72.58
855.325	64.49
855.494	56.18
855.663	74.08
855.832	61.98
856.001	47.31
856.171	51.87
856.34	44.04
856.509	41.19
856.678	36.51
856.847	39.48
857.016	47.75
857.185	55.21
857.353	46.09
857.522	31.22
857.691	35.14
857.86	51.11
858.029	62.95
858.198	62.45
858.367	66.04
858.535	70.71
858.704	74.24
858.873	72.33
859.042	65.34
859.21	75.7
859.379	81.18
859.548	74.5
859.717	75.72
859.885	67.46
860.054	72.85
860.222	83.34
860.391	77.35
860.56	76.2
860.728	77.57
860.897	72.29
861.065	74.02
861.234	63.42
861.402	71.53
861.571	68.55
861.739	69.18
861.908	69.67
862.076	62.8
862.244	81.19
862.413	82.63
862.581	76.25
862.749	88.53
862.918	94.82
863.086	97.44
863.254	106.05
863.423	108.21
863.591	99.23
863.759	107.67
863.927	100.49
864.096	70.49
864.264	69.58
864.432	74.67
864.6	76.23
864.768	68.21
864.936	75.23
865.104	71.47
865.272	72.54
865.44	71.53
865.608	57.86
865.776	61.57
865.944	65.76
866.112	57.28
866.28	58.2
866.448	53.07
866.616	54.42
866.784	64.04
866.952	60.62
867.12	55.11
867.288	61.61
867.455	66.94
867.623	61.52
867.791	68.47
867.959	76.45
868.127	75.71
868.294	81.6
868.462	78.5
868.63	64.2
868.797	76.94
868.965	77.51
869.133	71.99
869.3	70.94
869.468	89.51
869.636	82.25
869.803	98.38
869.971	96.25
870.138	102.21
870.306	102.71
870.473	109.02
870.641	107.84
870.808	111.45
870.975	126.68
871.143	121.36
871.31	109.64
871.478	100.82
871.645	86.19
871.812	97.15
871.98	89.74
872.147	106.93
872.314	114.74
872.482	100.63
872.649	117.9
872.816	123.74
872.983	127.13
873.15	108.26
873.318	133.5
873.485	119.65
873.652	98.67
873.819	93.26
873.986	80.21
874.153	75.5
874.32	76.35
874.487	70.04
874.654	53.83
874.821	51.42
874.988	69.72
875.155	59.56
875.322	52.9
875.489	63.82
875.656	47.62
875.823	48.79
875.99	49.19
876.157	36.22
876.324	29.52
876.49	27.99
876.657	38.49
876.824	32.21
876.991	38.66
877.157	43.11
877.324	43.49
877.491	52.01
877.658	53.22
877.824	53.3
877.991	62.91
878.157	80.85
878.324	91.92
878.491	90.08
878.657	101.57
878.824	106.93
878.99	116.71
879.157	119.41
879.323	130.24
879.49	126.32
879.656	124.85
879.823	131.29
879.989	107.66
880.156	114.94
880.322	115.68
880.488	107.95
880.655	95.34
880.821	76.94
880.987	57.45
881.154	47.91
881.32	59.16
881.486	60.4
881.652	51.41
881.819	43.18
881.985	34.54
882.151	36.77
882.317	34.23
882.483	39.31
882.649	41.34
882.816	41.72
882.982	41.78
883.148	36.62
883.314	32.79
883.48	33.76
883.646	37.72
883.812	38.17
883.978	37.03
884.144	38.27
884.31	37.72
884.476	36.85
884.642	35.6
884.807	37.69
884.973	35.47
885.139	38
885.305	36.61
885.471	37.95
885.637	39.98
885.802	43.13
885.968	44.77
886.134	44.83
886.3	44.78
886.465	50.74
886.631	55.07
886.797	66.15
886.962	62
887.128	63.69
887.293	61.57
887.459	62.89
887.625	61.41
887.79	57.25
887.956	56.84
888.121	57.91
888.287	57.74
888.452	49.59
888.618	42.76
888.783	52.27
