Data from 2938079_Reflection_1.txt Node
Date: Sat Jul 11 20:14:25 EDT 2015
User: robert
Spectrometer: USB4E03001
Autoset integration time: false
Trigger mode: 4
Integration Time (sec): 1.000000E-1
Scans to average: 10
Electric dark correction enabled: true
Nonlinearity correction enabled: false
Boxcar width: 5
Stray light correction enabled: false
XAxis mode: Wavelengths
Stop averaging: false
Number of Pixels in Spectrum: 3648
>>>>>Begin Spectral Data<<<<<
177.566	36.77
177.785	64.15
178.005	171.59
178.225	68.9
178.445	39.96
178.665	15.12
178.885	-46.16
179.105	57.06
179.324	126.94
179.544	-191.84
179.764	258.93
179.984	-1889.22
180.204	462.91
180.423	182.38
180.643	271.44
180.863	474.93
181.083	2045.86
181.302	6412.88
181.522	500.9
181.742	971.75
181.961	1052.56
182.181	-273
182.401	-222.54
182.621	-100.14
182.84	-44.87
183.06	-88.37
183.279	-433.93
183.499	276.87
183.719	189.78
183.938	153.59
184.158	195.61
184.377	110.87
184.597	114.04
184.816	115.35
185.036	117.91
185.256	138.67
185.475	126.08
185.695	157.68
185.914	194.22
186.134	326.2
186.353	289.77
186.572	307.13
186.792	402.12
187.011	-374.71
187.231	-465.49
187.45	-902.97
187.67	-310.16
187.889	-100.34
188.108	-124.9
188.328	-197.83
188.547	2521.25
188.766	-590.77
188.986	-185.73
189.205	-224.83
189.424	-283.4
189.644	-296.95
189.863	-447.16
190.082	468.86
190.302	687.25
190.521	-788.93
190.74	-496.65
190.959	-226.35
191.178	-298.28
191.398	-550.56
191.617	-603.53
191.836	233.99
192.055	298.97
192.274	-1160.24
192.494	-253.08
192.713	-505.93
192.932	-1167.58
193.151	-2181.63
193.37	-910.08
193.589	-360.21
193.808	-302.28
194.027	-258.15
194.246	-92.29
194.465	-145.03
194.685	-148.86
194.904	-297.4
195.123	-253.18
195.342	-358
195.561	-848.01
195.78	-2616.7
195.999	-1145.07
196.218	790.23
196.436	431.76
196.655	238.52
196.874	449.98
197.093	276.49
197.312	318.96
197.531	291.2
197.75	245.15
197.969	357.53
198.188	414.01
198.407	349.05
198.625	4383.68
198.844	-920.17
199.063	-750.67
199.282	1627.13
199.501	-289.14
199.719	-511.23
199.938	-5589.61
200.157	983.71
200.376	373.86
200.594	284.33
200.813	252.74
201.032	240.14
201.251	195.79
201.469	169.92
201.688	221.72
201.907	174.53
202.125	162.84
202.344	147.25
202.563	182.8
202.781	199.61
203	212.62
203.218	209.6
203.437	187.91
203.656	193.57
203.874	-418.84
204.093	-97.5
204.311	-252.12
204.53	-240.89
204.748	-390.12
204.967	-198.92
205.185	-164.66
205.404	-232.77
205.622	-156.98
205.841	-174.03
206.059	-4153.4
206.278	2211.37
206.496	-7050
206.715	-471.8
206.933	-236.81
207.151	-336.49
207.37	1479.17
207.588	575.03
207.806	936.09
208.025	-426.93
208.243	-382.18
208.461	-109.85
208.68	-198.88
208.898	1493.27
209.116	207.61
209.335	174.19
209.553	133.32
209.771	195.45
209.989	238.38
210.208	401.86
210.426	198.29
210.644	238.56
210.862	190.42
211.081	150.58
211.299	179.33
211.517	324.54
211.735	149.03
211.953	244.18
212.171	273.83
212.39	3497.17
212.608	188.16
212.826	3312.86
213.044	895.64
213.262	1413.9
213.48	-2014.59
213.698	1352.5
213.916	780.13
214.134	2254.95
214.352	-779.19
214.57	1232.52
214.788	501.55
215.006	2273.77
215.224	937.44
215.442	512.1
215.66	2656.81
215.878	286.52
216.096	281.86
216.314	179.24
216.532	255.46
216.75	225.29
216.968	414.09
217.185	-14880.95
217.403	942.69
217.621	588.83
217.839	626.34
218.057	398.38
218.275	1563.88
218.492	-1538.59
218.71	-1000.85
218.928	-2540.71
219.146	-948.27
219.363	-3322.71
219.581	1002.78
219.799	-822.05
220.017	584.9
220.234	755.73
220.452	1450.77
220.67	4469.88
220.887	-1038.01
221.105	-393.72
221.323	-652.63
221.54	-437.11
221.758	-358.82
221.976	-434.76
222.193	-973.48
222.411	-325.88
222.629	-291.2
222.846	-293.09
223.064	-308.6
223.281	-259.82
223.499	-198.62
223.716	-132.09
223.934	-188.23
224.151	-165.89
224.369	-170.61
224.586	-139.44
224.804	-156.94
225.021	-151.68
225.239	-132.61
225.456	-99.65
225.674	-129.88
225.891	-100.22
226.108	-60.07
226.326	-48.89
226.543	-67.96
226.76	-58.38
226.978	-35.61
227.195	-42.14
227.413	-36.55
227.63	-26.52
227.847	-23.42
228.064	-12.4
228.282	-11.9
228.499	-13.61
228.716	-13.43
228.934	-9.63
229.151	-8.51
229.368	-8.14
229.585	-1.14
229.802	1.07
230.02	-0.94
230.237	-0.14
230.454	-4.46
230.671	-2.92
230.888	-0.81
231.105	3.38
231.323	8.99
231.54	9.38
231.757	4.38
231.974	1.69
232.191	-5.44
232.408	-3.63
232.625	-5.16
232.842	-4.72
233.059	-9.35
233.276	-18.24
233.493	-23.93
233.71	-36.33
233.927	-38.77
234.144	-32.03
234.361	-31.45
234.578	-29.06
234.795	-27.99
235.012	-32.14
235.229	-30.79
235.446	-31
235.663	-24.97
235.879	-27.08
236.096	-17.8
236.313	-14.27
236.53	-12.36
236.747	-14.1
236.964	-20.61
237.181	-22.66
237.397	-23.15
237.614	-32.26
237.831	-30.68
238.048	-35.42
238.264	-31.38
238.481	-33.13
238.698	-31.88
238.915	-30.94
239.131	-18.55
239.348	-14.21
239.565	-13.26
239.781	-10.82
239.998	-7.16
240.215	-7.04
240.431	-4.08
240.648	-4.87
240.865	-4.93
241.081	-3.55
241.298	-1.4
241.514	-4.3
241.731	-2.81
241.947	-3.28
242.164	-4.97
242.38	-3.54
242.597	-2.51
242.814	-0.51
243.03	0.72
243.246	2.29
243.463	2.4
243.679	1.12
243.896	0.37
244.112	-1.72
244.329	-1.7
244.545	0.99
244.762	-0.93
244.978	-1.44
245.194	-2.35
245.411	-3.92
245.627	-2.65
245.843	-0.91
246.06	1.47
246.276	1.38
246.492	3.52
246.709	3.51
246.925	3.6
247.141	3.67
247.357	3.95
247.574	4.27
247.79	3.64
248.006	4.06
248.222	3.34
248.439	2.07
248.655	3.77
248.871	3.27
249.087	4.47
249.303	4.27
249.519	4.32
249.736	3.25
249.952	1.27
250.168	4.35
250.384	1.21
250.6	0.82
250.816	0.28
251.032	-3.67
251.248	-3.23
251.464	-3.57
251.68	-4.01
251.896	-4.66
252.112	-3.54
252.328	-2.95
252.544	-8.1
252.76	-6.42
252.976	-8.7
253.192	-5.71
253.408	-4.95
253.624	-6.47
253.84	-9.44
254.056	-11.69
254.272	-14.75
254.487	-15.47
254.703	-20.08
254.919	-14.98
255.135	-15.92
255.351	-16.59
255.567	-18.46
255.782	-17.89
255.998	-14.57
256.214	-12.79
256.43	-10.35
256.646	-6.2
256.861	-4.75
257.077	-2.64
257.293	-1.62
257.508	-4.67
257.724	1.97
257.94	2.79
258.155	2.25
258.371	0.56
258.587	-0.39
258.802	2.58
259.018	2.73
259.234	2.97
259.449	2.34
259.665	2.03
259.88	3.04
260.096	3.09
260.312	2.71
260.527	3.62
260.743	3.33
260.958	3.45
261.174	2.45
261.389	2.83
261.605	1.98
261.82	2.49
262.036	3.21
262.251	2.66
262.466	1.4
262.682	-0.07
262.897	-0.75
263.113	-0.77
263.328	0.87
263.543	-1.39
263.759	-2.48
263.974	0.17
264.189	1.19
264.405	-0.57
264.62	-0.46
264.835	-2.58
265.051	-1.88
265.266	-1.16
265.481	-0.46
265.696	-1.21
265.912	2.69
266.127	1.75
266.342	1
266.557	0.73
266.773	1.12
266.988	2.32
267.203	2.05
267.418	1.28
267.633	-0.69
267.848	-0.23
268.064	-0.26
268.279	-1.86
268.494	-0.56
268.709	-2.36
268.924	-1.72
269.139	0.02
269.354	-0.1
269.569	0.1
269.784	3.1
269.999	3.57
270.214	3.69
270.429	4.63
270.644	4.03
270.859	2.4
271.074	3.34
271.289	1.89
271.504	0.7
271.719	0.64
271.934	1.51
272.149	1.16
272.363	1.83
272.578	1.9
272.793	1.06
273.008	2.24
273.223	3.49
273.438	3.55
273.653	4.84
273.867	3.19
274.082	3.23
274.297	3.74
274.512	2.47
274.726	0.6
274.941	-0.08
275.156	-1.7
275.371	-4.18
275.585	-6.9
275.8	-8.06
276.015	-10.46
276.229	-9.78
276.444	-10.3
276.659	-11.42
276.873	-11.83
277.088	-11.48
277.302	-11.92
277.517	-10.64
277.732	-10.8
277.946	-8.96
278.161	-8.49
278.375	-6.3
278.59	-5.36
278.804	-4.51
279.019	-5.59
279.233	-3.35
279.448	-2.77
279.662	-2.24
279.877	-0.4
280.091	0.92
280.306	0.82
280.52	1.03
280.735	1.85
280.949	3.04
281.163	2.15
281.378	2.27
281.592	1.94
281.806	1.44
282.021	2.22
282.235	0.61
282.449	1.02
282.664	0.9
282.878	1.66
283.092	-0.36
283.307	-1.71
283.521	-1.97
283.735	-2.72
283.949	-2.94
284.164	-1.57
284.378	-3.52
284.592	-1.41
284.806	-0.76
285.02	-0.45
285.234	0.66
285.449	1.4
285.663	2.69
285.877	4.54
286.091	6.4
286.305	6.99
286.519	7.9
286.733	8.88
286.947	8.66
287.161	8.52
287.375	8.19
287.589	7.86
287.803	7.7
288.017	8.38
288.231	7.14
288.445	5.44
288.659	4.12
288.873	3.55
289.087	3.63
289.301	3.74
289.515	2.93
289.729	4.34
289.943	4.2
290.157	5.61
290.371	5.55
290.584	5.84
290.798	5.24
291.012	6.12
291.226	7.42
291.44	7.04
291.654	7.38
291.867	8.71
292.081	9.52
292.295	9.14
292.509	7.59
292.722	5.54
292.936	5.82
293.15	8.28
293.364	7.5
293.577	6.03
293.791	6.96
294.005	5.75
294.218	3.53
294.432	4.57
294.645	2.73
294.859	4.75
295.073	5.92
295.286	6.13
295.5	4.97
295.713	5.37
295.927	4.97
296.14	5.16
296.354	6.82
296.568	8.13
296.781	6.1
296.994	8.55
297.208	6.87
297.421	6.79
297.635	6.12
297.848	6.24
298.062	5.47
298.275	6.09
298.489	5.96
298.702	5.04
298.915	4.12
299.129	4.42
299.342	3.19
299.555	3.81
299.769	3.36
299.982	5.25
300.195	6.77
300.409	8.38
300.622	7.05
300.835	7.43
301.048	5.76
301.262	6.35
301.475	7.88
301.688	6.42
301.901	7.23
302.115	6.69
302.328	3.18
302.541	2.55
302.754	1.61
302.967	1.19
303.18	1.6
303.393	2.89
303.607	2.86
303.82	2.21
304.033	3.03
304.246	3.19
304.459	3.88
304.672	4.06
304.885	5.38
305.098	5.59
305.311	5.95
305.524	6.46
305.737	5.75
305.95	5.56
306.163	3.38
306.376	4.68
306.589	3.24
306.802	4.81
307.015	8.28
307.228	5.56
307.44	5.89
307.653	6.93
307.866	6.08
308.079	7.46
308.292	7.07
308.505	9.78
308.718	8.58
308.93	8.43
309.143	8.27
309.356	7.13
309.569	7.31
309.781	7.75
309.994	7.3
310.207	7.59
310.42	7.2
310.632	7.88
310.845	6.48
311.058	6.85
311.27	8.51
311.483	8
311.696	6.88
311.908	7.54
312.121	6.75
312.333	7.11
312.546	6.12
312.759	4.42
312.971	4.34
313.184	5.2
313.396	5.62
313.609	4.55
313.821	3.28
314.034	4.67
314.246	4.54
314.459	4.34
314.671	6.6
314.884	6.96
315.096	8.53
315.309	9.23
315.521	8.65
315.733	7.56
315.946	7.48
316.158	9.61
316.371	9.06
316.583	8.72
316.795	7.73
317.008	6.34
317.22	4.13
317.432	4.37
317.644	3.56
317.857	3.51
318.069	3.34
318.281	3.04
318.494	2.99
318.706	4.33
318.918	4.52
319.13	4.84
319.342	4.04
319.555	6.81
319.767	6.79
319.979	6.36
320.191	5.74
320.403	5.29
320.615	5.46
320.827	4.76
321.039	3.03
321.252	2.41
321.464	3.93
321.676	3.33
321.888	3.72
322.1	3.6
322.312	6.33
322.524	6.96
322.736	10.07
322.948	9.8
323.16	10.53
323.372	11.06
323.584	11.25
323.796	9.41
324.007	10.4
324.219	10.21
324.431	9.97
324.643	7.8
324.855	7.15
325.067	4.58
325.279	4.21
325.491	3.74
325.702	2.75
325.914	4.75
326.126	6.39
326.338	5.04
326.55	2.61
326.761	3.59
326.973	3.6
327.185	5.94
327.396	8.15
327.608	8.34
327.82	7.6
328.032	7.9
328.243	6.45
328.455	6.35
328.666	7.9
328.878	11.01
329.09	9.61
329.301	8.45
329.513	7.7
329.725	5.72
329.936	4.68
330.148	6.74
330.359	7.86
330.571	8.61
330.782	8
330.994	6.49
331.205	4.73
331.417	6.27
331.628	8.73
331.84	7.19
332.051	7.79
332.262	9.02
332.474	6.98
332.685	7.26
332.897	6.98
333.108	8.32
333.319	8.87
333.531	9.67
333.742	9.62
333.953	9.05
334.165	8.95
334.376	8.57
334.587	8.45
334.799	10.36
335.01	9.65
335.221	8.95
335.432	8.63
335.644	9.2
335.855	8.32
336.066	8.97
336.277	8.53
336.488	8.53
336.7	9.13
336.911	9.7
337.122	7.36
337.333	7.98
337.544	8.49
337.755	7.8
337.966	7.54
338.177	7.94
338.388	6.48
338.599	5.52
338.811	5.68
339.022	6.75
339.233	5.93
339.444	7.23
339.655	6.24
339.866	4.65
340.076	3.8
340.287	4.2
340.498	4.34
340.709	4.66
340.92	6.17
341.131	6.75
341.342	5.06
341.553	6.09
341.764	5.24
341.975	6.09
342.185	7.45
342.396	7.93
342.607	6.64
342.818	7.52
343.029	7.62
343.239	7.6
343.45	6.62
343.661	6.19
343.872	5.04
344.082	5.83
344.293	5.54
344.504	4.88
344.714	5.44
344.925	6.36
345.136	4.95
345.346	4.76
345.557	3.8
345.768	4.13
345.978	3.2
346.189	3.46
346.399	2.76
346.61	2.18
346.821	1.8
347.031	0.45
347.242	-0.26
347.452	1.27
347.663	2.29
347.873	4.88
348.084	5.11
348.294	8.17
348.504	9.2
348.715	9.45
348.925	10.41
349.136	10.55
349.346	10.73
349.557	10.35
349.767	10.7
349.977	9.04
350.188	6.81
350.398	6.34
350.608	5.25
350.819	4.65
351.029	4.55
351.239	3.91
351.449	4.41
351.66	5.9
351.87	6.09
352.08	4.13
352.29	6.04
352.501	7.11
352.711	7.25
352.921	6.55
353.131	6.09
353.341	5.29
353.552	6.09
353.762	4.97
353.972	4.41
354.182	5.25
354.392	5.27
354.602	6.93
354.812	6.53
355.022	6.89
355.232	6.59
355.442	6.53
355.652	8.4
355.862	7.59
356.072	8.04
356.282	8.55
356.492	7.54
356.702	7.89
356.912	5.36
357.122	5.04
357.332	5.19
357.542	5.99
357.752	6.51
357.962	5.22
358.171	5.6
358.381	5.95
358.591	5.92
358.801	5.78
359.011	6.31
359.221	7.38
359.43	8.3
359.64	8.54
359.85	8.52
360.06	8.04
360.269	8.11
360.479	7.68
360.689	8.82
360.899	8.07
361.108	8.55
361.318	8.39
361.528	7.33
361.737	7.46
361.947	7.35
362.156	6.63
362.366	6.61
362.576	6.9
362.785	7.96
362.995	7.26
363.204	7.42
363.414	8.06
363.623	7.5
363.833	7.71
364.042	6.54
364.252	6.44
364.461	6.71
364.671	7.02
364.88	6.89
365.09	6.07
365.299	5.55
365.509	5.88
365.718	5.15
365.927	5.32
366.137	5.61
366.346	6.13
366.555	5.46
366.765	5.81
366.974	5.38
367.183	5.47
367.393	5.14
367.602	5.02
367.811	5
368.021	5.5
368.23	5.42
368.439	5.42
368.648	5.66
368.857	6.03
369.067	6.62
369.276	7.13
369.485	6.4
369.694	5.53
369.903	5.39
370.112	5.27
370.321	5.02
370.531	5.72
370.74	5.19
370.949	5.13
371.158	5.82
371.367	5.46
371.576	5.27
371.785	5.98
371.994	6.31
372.203	6.67
372.412	6.42
372.621	6.03
372.83	5.18
373.039	5.39
373.248	4.82
373.457	4.73
373.666	4.39
373.874	4.25
374.083	4.75
374.292	5.39
374.501	5.52
374.71	5.84
374.919	5.9
375.128	6.71
375.336	7.58
375.545	8.31
375.754	7.07
375.963	7.26
376.171	6.67
376.38	6.68
376.589	6.08
376.798	6.27
377.006	6.39
377.215	5.84
377.424	5
377.632	4.25
377.841	3.71
378.05	4.45
378.258	4.21
378.467	4.38
378.675	3.79
378.884	4.3
379.093	3.95
379.301	3.88
379.51	4.15
379.718	4.39
379.927	4.48
380.135	4.26
380.344	4.04
380.552	3.95
380.761	4.87
380.969	4.52
381.177	4.47
381.386	4.14
381.594	3.82
381.803	4.49
382.011	4.85
382.219	4.72
382.428	4.99
382.636	5.22
382.845	5.41
383.053	4.76
383.261	4.56
383.469	4.07
383.678	4.17
383.886	4.31
384.094	3.77
384.302	3.94
384.511	4.14
384.719	3.85
384.927	3.51
385.135	3.63
385.343	3.52
385.552	4.05
385.76	4.12
385.968	4
386.176	3.94
386.384	4.02
386.592	3.89
386.8	4.15
387.008	4.21
387.216	4.71
387.424	4.42
387.633	4.56
387.841	4.44
388.049	4.38
388.257	4.38
388.465	4.88
388.672	4.74
388.88	4.73
389.088	4.4
389.296	4.03
389.504	3.58
389.712	4
389.92	3.63
390.128	3.84
390.336	3.92
390.544	3.87
390.751	3.41
390.959	3.35
391.167	3.49
391.375	3.54
391.583	3.75
391.79	3.73
391.998	3.41
392.206	3.45
392.414	3.35
392.621	3.79
392.829	3.87
393.037	4.01
393.244	3.95
393.452	3.75
393.66	3.74
393.867	3.58
394.075	3.59
394.283	3.48
394.49	3.54
394.698	3.94
394.905	3.66
395.113	3.61
395.32	3.58
395.528	4.03
395.735	3.75
395.943	3.81
396.15	4.13
396.358	4.11
396.565	4.27
396.773	3.97
396.98	3.33
397.188	3.05
397.395	3
397.602	2.81
397.81	2.62
398.017	2.77
398.225	2.65
398.432	2.88
398.639	3.1
398.847	3.31
399.054	3.75
399.261	3.95
399.468	4.13
399.676	3.9
399.883	3.77
400.09	3.39
400.297	3.38
400.505	3.58
400.712	3.15
400.919	2.66
401.126	2.55
401.333	2.57
401.54	2.66
401.748	2.91
401.955	3.18
402.162	3.35
402.369	3.87
402.576	4.08
402.783	4.22
402.99	4.31
403.197	4.28
403.404	4.33
403.611	4.46
403.818	4.34
404.025	3.97
404.232	4.06
404.439	4.05
404.646	3.94
404.853	3.64
405.06	3.52
405.267	3.56
405.474	3.67
405.681	3.53
405.887	3.52
406.094	3.22
406.301	3.33
406.508	3.33
406.715	3.43
406.922	3.17
407.128	2.98
407.335	2.69
407.542	2.5
407.749	2.51
407.955	2.46
408.162	2.14
408.369	2.1
408.575	2.12
408.782	1.96
408.989	1.81
409.195	1.99
409.402	2.42
409.609	2.53
409.815	2.7
410.022	3.04
410.228	3.29
410.435	3.52
410.642	3.94
410.848	4.18
411.055	4.21
411.261	3.89
411.468	3.97
411.674	3.8
411.881	4.06
412.087	4.14
412.294	3.97
412.5	3.52
412.706	3.45
412.913	3.02
413.119	2.99
413.326	3.18
413.532	3.56
413.738	3.35
413.945	3.25
414.151	2.94
414.357	2.81
414.564	2.66
414.77	2.74
414.976	2.61
415.182	2.98
415.389	2.74
415.595	2.63
415.801	2.57
416.007	2.6
416.214	2.69
416.42	2.93
416.626	3.07
416.832	3.21
417.038	3.34
417.244	3.59
417.45	3.56
417.657	3.38
417.863	3.48
418.069	3.48
418.275	3.64
418.481	3.73
418.687	3.72
418.893	3.83
419.099	3.88
419.305	3.71
419.511	3.65
419.717	3.63
419.923	3.68
420.129	3.54
420.335	3.56
420.541	3.52
420.746	3.56
420.952	3.46
421.158	3.39
421.364	3.21
421.57	3.41
421.776	3.32
421.982	3.28
422.187	3.47
422.393	3.45
422.599	3.47
422.805	3.4
423.01	3.37
423.216	3.36
423.422	3.34
423.628	3.57
423.833	3.47
424.039	3.72
424.245	3.68
424.45	3.6
424.656	3.76
424.862	3.71
425.067	3.76
425.273	3.77
425.478	3.83
425.684	3.79
425.889	3.68
426.095	3.61
426.301	3.45
426.506	3.27
426.712	3.14
426.917	2.92
427.123	2.87
427.328	2.79
427.533	2.71
427.739	2.56
427.944	2.91
428.15	2.72
428.355	2.8
428.561	2.51
428.766	2.82
428.971	2.93
429.177	3.17
429.382	3.36
429.587	3.37
429.793	3.23
429.998	3.1
430.203	2.73
430.408	2.89
430.614	2.98
430.819	3.18
431.024	3.11
431.229	2.93
431.434	2.84
431.64	2.7
431.845	2.78
432.05	2.88
432.255	3.18
432.46	3.18
432.665	3.31
432.87	3.22
433.076	3.22
433.281	3.25
433.486	3.29
433.691	3.27
433.896	3.32
434.101	3.21
434.306	3.31
434.511	3.09
434.716	3.02
434.921	2.87
435.126	2.78
435.331	2.61
435.535	2.67
435.74	2.76
435.945	2.7
436.15	2.68
436.355	2.61
436.56	2.54
436.765	2.65
436.97	2.64
437.174	2.83
437.379	2.93
437.584	3.12
437.789	3.04
437.993	3.01
438.198	3.07
438.403	3.26
438.608	3.3
438.812	3.42
439.017	3.31
439.222	3.42
439.426	3.26
439.631	3.13
439.836	3.11
440.04	3.1
440.245	3.01
440.45	2.88
440.654	2.77
440.859	2.78
441.063	2.64
441.268	2.82
441.472	2.7
441.677	2.72
441.881	2.8
442.086	2.77
442.29	2.85
442.495	3.12
442.699	3.19
442.904	3.28
443.108	3.2
443.312	3.21
443.517	3.2
443.721	3.23
443.925	3.17
444.13	3.33
444.334	3.37
444.538	3.23
444.743	3.1
444.947	3.17
445.151	3.02
445.356	3.19
445.56	3.09
445.764	3.02
445.968	3.06
446.173	3.1
446.377	3.04
446.581	2.98
446.785	2.99
446.989	3
447.193	3.02
447.398	3.04
447.602	2.96
447.806	3.2
448.01	3.21
448.214	3.15
448.418	3.09
448.622	2.95
448.826	3.07
449.03	3.02
449.234	2.87
449.438	2.76
449.642	2.85
449.846	2.94
450.05	2.72
450.254	2.49
450.458	2.52
450.662	2.62
450.866	2.57
451.069	2.47
451.273	2.84
451.477	2.96
451.681	3.14
451.885	3.42
452.089	3.42
452.292	3.42
452.496	3.75
452.7	3.89
452.904	3.77
453.107	3.97
453.311	3.81
453.515	3.46
453.719	3.33
453.922	3.16
454.126	2.68
454.33	2.65
454.533	2.88
454.737	2.72
454.94	2.44
455.144	2.46
455.348	2.35
455.551	2.37
455.755	2.31
455.958	2.52
456.162	2.42
456.365	2.58
456.569	2.61
456.772	2.31
456.976	2.18
457.179	2.3
457.383	2.35
457.586	2.3
457.79	2.47
457.993	2.87
458.196	2.72
458.4	2.86
458.603	2.9
458.807	2.92
459.01	2.99
459.213	3.09
459.417	3.12
459.62	3.05
459.823	2.97
460.026	2.84
460.23	2.69
460.433	2.83
460.636	2.94
460.839	2.77
461.042	2.76
461.246	2.89
461.449	2.89
461.652	2.9
461.855	3
462.058	3.25
462.261	3.39
462.464	3.39
462.668	3.16
462.871	2.9
463.074	3.17
463.277	2.92
463.48	2.78
463.683	2.76
463.886	2.66
464.089	2.54
464.292	2.48
464.495	2.41
464.698	2.23
464.901	2.44
465.104	2.57
465.306	2.44
465.509	2.6
465.712	2.54
465.915	2.63
466.118	2.76
466.321	3.04
466.524	3
466.726	2.98
466.929	3.14
467.132	3.07
467.335	2.93
467.538	2.75
467.74	2.78
467.943	2.75
468.146	2.66
468.348	2.64
468.551	2.25
468.754	2.33
468.956	2.42
469.159	2.46
469.362	2.27
469.564	2.31
469.767	2.38
469.969	2.37
470.172	2.31
470.375	2.32
470.577	2.37
470.78	2.59
470.982	2.25
471.185	2.18
471.387	2.16
471.59	2.3
471.792	2.47
471.995	2.67
472.197	2.72
472.399	2.74
472.602	2.86
472.804	2.55
473.007	2.61
473.209	2.8
473.411	2.86
473.614	2.74
473.816	2.89
474.018	2.83
474.22	2.74
474.423	2.76
474.625	2.75
474.827	2.87
475.03	2.9
475.232	2.8
475.434	2.87
475.636	2.77
475.838	2.9
476.04	2.8
476.243	2.78
476.445	2.89
476.647	2.78
476.849	2.87
477.051	2.62
477.253	2.75
477.455	2.69
477.657	2.68
477.859	2.86
478.061	2.89
478.263	3.06
478.465	3.17
478.667	3.07
478.869	3.17
479.071	3.21
479.273	3.36
479.475	3.28
479.677	3.36
479.879	3.41
480.081	3.27
480.283	3.42
480.485	3.24
480.686	3.24
480.888	3.29
481.09	3.16
481.292	3.17
481.494	2.98
481.695	3.12
481.897	3.27
482.099	3.19
482.301	3.31
482.502	3.21
482.704	3.24
482.906	3.21
483.107	3.28
483.309	3.27
483.511	3.28
483.712	3.31
483.914	3.31
484.115	3.24
484.317	3.3
484.519	3.2
484.72	3.22
484.922	3.19
485.123	3.18
485.325	3.12
485.526	3.16
485.728	3.16
485.929	3.17
486.131	3.13
486.332	3.09
486.534	3.07
486.735	3.13
486.936	3.16
487.138	3.17
487.339	3.12
487.541	3.09
487.742	3.17
487.943	3.13
488.144	3.22
488.346	3.25
488.547	3.29
488.748	3.31
488.95	3.29
489.151	3.2
489.352	3.24
489.553	3.33
489.755	3.3
489.956	3.24
490.157	3.28
490.358	3.13
490.559	3.08
490.76	3.08
490.961	3.1
491.163	3.22
491.364	3.22
491.565	3.17
491.766	3.14
491.967	3.09
492.168	3.01
492.369	2.92
492.57	2.93
492.771	2.9
492.972	2.95
493.173	2.8
493.374	2.7
493.575	2.64
493.776	2.66
493.976	2.62
494.177	2.68
494.378	2.68
494.579	2.77
494.78	2.92
494.981	2.97
495.182	2.95
495.382	3.09
495.583	3.09
495.784	3.21
495.985	3.18
496.185	3.26
496.386	3.33
496.587	3.37
496.788	3.24
496.988	3.16
497.189	3.19
497.39	3.12
497.59	3.15
497.791	3.05
497.992	3.07
498.192	3.03
498.393	3.14
498.593	3.17
498.794	3.3
498.994	3.4
499.195	3.32
499.395	3.28
499.596	3.37
499.796	3.22
499.997	3.45
500.197	3.34
500.398	3.29
500.598	3.02
500.799	2.94
500.999	2.87
501.199	2.9
501.4	2.85
501.6	2.85
501.801	2.79
502.001	2.84
502.201	2.62
502.402	2.8
502.602	2.9
502.802	2.87
503.002	2.86
503.203	2.7
503.403	2.74
503.603	2.61
503.803	2.64
504.003	2.55
504.204	2.63
504.404	2.69
504.604	2.56
504.804	2.59
505.004	2.84
505.204	2.98
505.404	3.1
505.604	3.11
505.804	3.18
506.005	3.34
506.205	3.29
506.405	3.31
506.605	3.27
506.805	3.51
507.005	3.49
507.204	3.39
507.404	3.47
507.604	3.39
507.804	3.44
508.004	3.7
508.204	3.62
508.404	3.77
508.604	3.8
508.804	3.86
509.003	3.53
509.203	3.63
509.403	3.65
509.603	3.59
509.803	3.71
510.002	3.58
510.202	3.46
510.402	3.44
510.602	3.4
510.801	3.23
511.001	3.24
511.201	3.43
511.4	3.34
511.6	3.27
511.8	3.15
511.999	3.05
512.199	3.22
512.398	3.21
512.598	3.23
512.797	3.33
512.997	3.52
513.197	3.53
513.396	3.61
513.596	3.59
513.795	3.68
513.994	3.78
514.194	3.84
514.393	3.78
514.593	3.82
514.792	3.79
514.992	3.75
515.191	3.76
515.39	3.64
515.59	3.66
515.789	3.76
515.988	3.82
516.188	3.97
516.387	3.87
516.586	3.86
516.786	3.92
516.985	3.93
517.184	3.94
517.383	3.89
517.582	4.08
517.782	3.95
517.981	3.96
518.18	4.01
518.379	3.79
518.578	3.82
518.777	3.76
518.976	3.76
519.176	3.86
519.375	3.87
519.574	3.82
519.773	3.75
519.972	3.82
520.171	3.76
520.37	3.69
520.569	3.84
520.768	3.95
520.967	4.11
521.166	3.99
521.365	3.9
521.564	3.82
521.762	3.79
521.961	3.72
522.16	3.72
522.359	3.84
522.558	3.76
522.757	3.6
522.956	3.57
523.154	3.54
523.353	3.7
523.552	3.73
523.751	3.87
523.949	4
524.148	3.98
524.347	3.99
524.546	3.89
524.744	3.95
524.943	4.05
525.142	4.09
525.34	4.14
525.539	4.12
525.737	3.97
525.936	3.82
526.135	3.87
526.333	4.02
526.532	4.11
526.73	4.15
526.929	4.27
527.127	4.48
527.326	4.49
527.524	4.46
527.723	4.49
527.921	4.62
528.12	4.69
528.318	4.64
528.516	4.58
528.715	4.55
528.913	4.54
529.112	4.51
529.31	4.37
529.508	4.34
529.707	4.37
529.905	4.41
530.103	4.38
530.301	4.36
530.5	4.46
530.698	4.46
530.896	4.47
531.094	4.49
531.293	4.41
531.491	4.4
531.689	4.47
531.887	4.52
532.085	4.44
532.283	4.56
532.481	4.54
532.68	4.44
532.878	4.44
533.076	4.5
533.274	4.55
533.472	4.63
533.67	4.72
533.868	4.75
534.066	4.68
534.264	4.74
534.462	4.71
534.66	4.75
534.858	4.77
535.056	4.84
535.253	4.87
535.451	4.88
535.649	4.81
535.847	4.75
536.045	4.67
536.243	4.61
536.441	4.57
536.638	4.54
536.836	4.62
537.034	4.59
537.232	4.66
537.43	4.56
537.627	4.59
537.825	4.69
538.023	4.72
538.22	4.71
538.418	4.9
538.616	4.94
538.813	4.89
539.011	4.77
539.209	4.89
539.406	4.79
539.604	4.87
539.801	4.91
539.999	4.91
540.196	4.89
540.394	4.99
540.591	5.01
540.789	5.09
540.986	5.16
541.184	5.28
541.381	5.26
541.579	5.33
541.776	5.41
541.974	5.45
542.171	5.5
542.368	5.51
542.566	5.47
542.763	5.43
542.96	5.36
543.158	5.4
543.355	5.33
543.552	5.36
543.75	5.38
543.947	5.27
544.144	5.09
544.341	4.95
544.539	4.94
544.736	4.94
544.933	5
545.13	5.07
545.327	5.07
545.524	5.17
545.722	5.19
545.919	5.17
546.116	5.38
546.313	5.47
546.51	5.62
546.707	5.7
546.904	5.84
547.101	5.81
547.298	5.86
547.495	6.08
547.692	6.05
547.889	6.21
548.086	6.22
548.283	6.15
548.48	6.3
548.677	6.3
548.874	6.41
549.07	6.38
549.267	6.43
549.464	6.44
549.661	6.34
549.858	6.57
550.055	6.51
550.251	6.66
550.448	6.47
550.645	6.39
550.842	6.56
551.038	6.59
551.235	6.65
551.432	6.7
551.628	6.71
551.825	6.67
552.022	6.77
552.218	6.69
552.415	6.67
552.612	7.03
552.808	7.38
553.005	7.32
553.201	7.51
553.398	7.47
553.594	7.71
553.791	7.67
553.987	7.87
554.184	7.66
554.38	7.78
554.577	7.83
554.773	7.77
554.97	7.47
555.166	7.66
555.362	7.45
555.559	7.52
555.755	7.53
555.952	7.84
556.148	7.74
556.344	7.77
556.541	7.71
556.737	7.72
556.933	7.83
557.129	8.02
557.326	7.94
557.522	8.02
557.718	8.34
557.914	8.24
558.11	8.24
558.307	8.28
558.503	8.31
558.699	8.71
558.895	8.84
559.091	8.85
559.287	8.83
559.483	9.04
559.679	8.99
559.876	8.86
560.072	8.94
560.268	9.02
560.464	8.95
560.66	9.12
560.856	9.02
561.052	9.13
561.247	8.91
561.443	8.97
561.639	9.05
561.835	9.21
562.031	9.19
562.227	9.04
562.423	8.92
562.619	9.16
562.815	9.27
563.01	9.34
563.206	9.27
563.402	9.58
563.598	9.67
563.793	9.66
563.989	9.73
564.185	9.97
564.381	10.25
564.576	10.22
564.772	10.3
564.968	10.26
565.163	10.43
565.359	10.56
565.555	10.6
565.75	10.52
565.946	10.53
566.141	10.54
566.337	10.72
566.532	10.69
566.728	10.86
566.923	10.75
567.119	10.76
567.314	10.8
567.51	10.65
567.705	10.81
567.901	11.03
568.096	10.94
568.292	11.05
568.487	10.89
568.682	10.99
568.878	11.14
569.073	11.23
569.268	11.4
569.464	11.44
569.659	11.77
569.854	11.59
570.05	11.6
570.245	11.92
570.44	12.1
570.635	12.27
570.831	12.29
571.026	12.21
571.221	12.28
571.416	12.11
571.611	12.07
571.806	11.96
572.002	12.16
572.197	12.13
572.392	12.02
572.587	11.9
572.782	11.94
572.977	11.97
573.172	12.08
573.367	12.18
573.562	12.2
573.757	12.1
573.952	12.17
574.147	11.97
574.342	12.09
574.537	11.97
574.732	12.03
574.927	11.98
575.121	11.9
575.316	11.68
575.511	11.46
575.706	11.51
575.901	11.39
576.096	11.29
576.29	11.27
576.485	11.43
576.68	11.54
576.875	11.41
577.069	11.23
577.264	11.46
577.459	11.63
577.654	11.78
577.848	11.84
578.043	12.08
578.238	12.14
578.432	12.17
578.627	12.1
578.821	12.23
579.016	12.14
579.21	12.2
579.405	11.9
579.6	11.8
579.794	11.9
579.989	12.06
580.183	12.19
580.378	12.1
580.572	12.41
580.766	12.12
580.961	12.04
581.155	12.37
581.35	12.53
581.544	12.92
581.738	13
581.933	12.91
582.127	12.75
582.321	12.79
582.516	13.04
582.71	12.66
582.904	12.71
583.099	12.86
583.293	12.76
583.487	12.6
583.681	12.52
583.875	12.53
584.07	12.6
584.264	12.86
584.458	12.77
584.652	12.73
584.846	12.87
585.04	12.82
585.234	12.61
585.428	12.69
585.623	12.63
585.817	12.63
586.011	12.69
586.205	12.5
586.399	12.39
586.593	12.1
586.787	12.17
586.981	12.45
587.174	12.76
587.368	12.93
587.562	12.8
587.756	13.08
587.95	12.94
588.144	13.25
588.338	13.52
588.532	13.44
588.725	13.61
588.919	13.61
589.113	13.1
589.307	13.09
589.501	12.92
589.694	13.05
589.888	13.2
590.082	13.24
590.275	12.93
590.469	12.86
590.663	13.09
590.856	12.98
591.05	12.87
591.244	13.47
591.437	13.6
591.631	14.02
591.824	14.2
592.018	13.92
592.212	13.99
592.405	14.24
592.599	14.02
592.792	13.82
592.986	14.26
593.179	14.38
593.372	14.01
593.566	13.67
593.759	13.39
593.953	13.03
594.146	13.18
594.339	12.95
594.533	12.87
594.726	13.16
594.92	13.16
595.113	12.87
595.306	12.9
595.499	13.08
595.693	13.36
595.886	13.45
596.079	13.57
596.272	13.51
596.466	13.65
596.659	13.67
596.852	13.73
597.045	13.83
597.238	13.93
597.431	13.99
597.624	14.03
597.818	13.76
598.011	13.83
598.204	13.86
598.397	13.94
598.59	14.09
598.783	14.04
598.976	13.94
599.169	13.69
599.362	13.62
599.555	13.79
599.748	13.62
599.941	13.85
600.134	13.57
600.326	13.56
600.519	13.63
600.712	13.53
600.905	13.26
601.098	13.44
601.291	13.89
601.483	13.98
601.676	13.64
601.869	13.63
602.062	13.42
602.255	13.46
602.447	13.56
602.64	13.44
602.833	13.69
603.025	14.23
603.218	14.13
603.411	14.28
603.603	14.23
603.796	14.31
603.989	14.46
604.181	14.73
604.374	14.8
604.566	14.84
604.759	14.64
604.951	14.27
605.144	13.99
605.336	14.22
605.529	13.94
605.721	14
605.914	14.04
606.106	14.05
606.299	13.89
606.491	13.88
606.683	13.77
606.876	13.88
607.068	14.19
607.26	14.47
607.453	14.22
607.645	14.17
607.837	14.26
608.03	14.21
608.222	14.15
608.414	14.16
608.606	14.24
608.799	14.26
608.991	14.2
609.183	14.17
609.375	13.82
609.567	13.68
609.759	13.35
609.952	12.98
610.144	12.82
610.336	12.73
610.528	12.47
610.72	12.19
610.912	12.15
611.104	11.94
611.296	11.63
611.488	11.82
611.68	11.75
611.872	11.76
612.064	11.85
612.256	11.76
612.448	11.68
612.64	11.82
612.832	11.87
613.023	11.74
613.215	11.99
613.407	12.31
613.599	12.19
613.791	12.27
613.983	12.7
614.174	12.82
614.366	13.24
614.558	13.32
614.75	13.46
614.941	13.52
615.133	13.43
615.325	13.57
615.516	13.38
615.708	13.77
615.9	13.75
616.091	13.76
616.283	13.81
616.475	13.47
616.666	13.43
616.858	13.6
617.049	13.61
617.241	13.65
617.432	13.33
617.624	13.48
617.815	13.13
618.007	12.75
618.198	12.4
618.39	12.37
618.581	12.57
618.773	12.84
618.964	12.71
619.155	12.7
619.347	12.69
619.538	13.04
619.729	13.02
619.921	13.16
620.112	13.94
620.303	14.64
620.494	14.62
620.686	14.47
620.877	14.18
621.068	14.32
621.259	14.22
621.451	14.42
621.642	14.51
621.833	14.66
622.024	14.42
622.215	14.02
622.406	13.54
622.597	13.6
622.788	13.57
622.98	13.6
623.171	13.36
623.362	13.5
623.553	13.45
623.744	13.19
623.935	13.02
624.126	13.16
624.317	13.3
624.508	13.58
624.698	13.9
624.889	14.4
625.08	14.72
625.271	14.68
625.462	14.75
625.653	14.78
625.844	14.69
626.034	14.79
626.225	14.89
626.416	14.92
626.607	14.76
626.798	14.54
626.988	14.17
627.179	14.02
627.37	14.08
627.56	14.15
627.751	14.07
627.942	14.09
628.132	13.97
628.323	13.75
628.514	13.83
628.704	13.88
628.895	13.89
629.085	13.96
629.276	14.16
629.466	14.15
629.657	14.11
629.847	14.01
630.038	14.14
630.228	14.38
630.419	14.43
630.609	14.26
630.8	14.25
630.99	14.33
631.181	14.43
631.371	14.26
631.561	14.66
631.752	14.68
631.942	14.84
632.132	14.89
632.323	14.59
632.513	14.75
632.703	14.81
632.893	14.87
633.084	15.01
633.274	14.94
633.464	14.89
633.654	14.61
633.844	14.45
634.034	14.6
634.225	14.54
634.415	14.53
634.605	14.31
634.795	14.16
634.985	14.16
635.175	13.9
635.365	13.98
635.555	14.12
635.745	13.85
635.935	14.47
636.125	14.33
636.315	14.68
636.505	14.93
636.695	15.12
636.885	15.42
637.075	15.38
637.265	15.69
637.455	15.49
637.644	15.09
637.834	15.4
638.024	14.93
638.214	15.07
638.404	14.48
638.593	14.42
638.783	14.36
638.973	14.41
639.163	14.12
639.352	13.73
639.542	13.79
639.732	13.93
639.921	13.68
640.111	13.63
640.301	13.59
640.49	14.3
640.68	14.01
640.87	13.94
641.059	13.68
641.249	14
641.438	14.1
641.628	14.02
641.817	14.13
642.007	14.49
642.196	14.55
642.386	14.47
642.575	13.96
642.764	14.29
642.954	14.75
643.143	14.73
643.333	14.45
643.522	13.9
643.711	14.34
643.901	14.39
644.09	13.94
644.279	13.73
644.469	13.94
644.658	14.27
644.847	14.36
645.036	13.96
645.226	13.75
645.415	13.87
645.604	14.54
645.793	13.95
645.982	14.15
646.171	14.34
646.361	14.6
646.55	14.46
646.739	14.69
646.928	14.38
647.117	14.52
647.306	14.71
647.495	15.14
647.684	14.93
647.873	14.77
648.062	14.5
648.251	14.18
648.44	14.1
648.629	14.03
648.818	13.3
649.007	13.43
649.196	13.31
649.384	13.59
649.573	13.4
649.762	13.2
649.951	13.95
650.14	13.98
650.328	14.41
650.517	14.46
650.706	14.57
650.895	14.82
651.083	14.83
651.272	14.4
651.461	14.37
651.65	14.42
651.838	14.59
652.027	14.51
652.216	14.69
652.404	14.95
652.593	14.76
652.781	14.72
652.97	14.73
653.158	14.38
653.347	14.74
653.535	14.69
653.724	14.71
653.912	14.8
654.101	14.43
654.289	14.09
654.478	14.01
654.666	14.19
654.855	14.12
655.043	14.35
655.231	14.39
655.42	14.43
655.608	14.35
655.796	14
655.985	14.16
656.173	14.56
656.361	14.61
656.55	14.24
656.738	14.92
656.926	15.17
657.114	14.66
657.302	14.74
657.491	14.35
657.679	14.13
657.867	14.49
658.055	14.24
658.243	14.02
658.431	14.09
658.619	14.43
658.807	13.88
658.996	13.78
659.184	14.14
659.372	14.33
659.56	14.86
659.748	15.32
659.936	15.57
660.124	15.67
660.311	15.73
660.499	15.62
660.687	15.72
660.875	15.96
661.063	15.74
661.251	15.63
661.439	15.66
661.627	15.19
661.814	15
662.002	14.61
662.19	14.3
662.378	14.3
662.565	14.46
662.753	14.05
662.941	13.91
663.129	14.18
663.316	14.59
663.504	14.25
663.692	14.65
663.879	14.62
664.067	14.37
664.254	14.72
664.442	14.43
664.63	14.57
664.817	14.81
665.005	14.87
665.192	14.88
665.38	14.38
665.567	15.08
665.755	15.65
665.942	15.37
666.13	15.7
666.317	16.14
666.504	16.38
666.692	16.08
666.879	16.02
667.067	15.95
667.254	16.07
667.441	16.36
667.629	15.95
667.816	15.16
668.003	15.44
668.19	15.53
668.378	15.19
668.565	15.48
668.752	15.47
668.939	15.35
669.127	15.13
669.314	15.1
669.501	14.77
669.688	15.06
669.875	14.97
670.062	14.51
670.249	14.34
670.436	14.88
670.623	15.05
670.81	15.17
670.997	15.39
671.184	15.74
671.371	15.88
671.558	15.86
671.745	15.65
671.932	15.71
672.119	15.76
672.306	15.66
672.493	15.33
672.68	15.27
672.867	15.6
673.054	15.29
673.24	14.81
673.427	14.35
673.614	15
673.801	14.57
673.988	14.67
674.174	14.96
674.361	14.95
674.548	15.03
674.734	14.67
674.921	14.42
675.108	14.58
675.294	15.14
675.481	15.06
675.668	14.54
675.854	14.7
676.041	14.8
676.227	14.63
676.414	15.06
676.601	14.93
676.787	15.33
676.974	15.48
677.16	15.64
677.347	15.26
677.533	15.7
677.719	15.85
677.906	15.58
678.092	15.29
678.279	15.7
678.465	15.31
678.651	15.34
678.838	15.66
679.024	15.24
679.21	15.02
679.397	15.22
679.583	15.24
679.769	15.65
679.955	16.15
680.142	16.51
680.328	16.33
680.514	16.11
680.7	16.14
680.886	15.38
681.073	15.38
681.259	15.21
681.445	14.94
681.631	14.73
681.817	14.5
682.003	14.47
682.189	14.69
682.375	14.64
682.561	14.89
682.747	14.63
682.933	14.67
683.119	15.13
683.305	15.82
683.491	15.84
683.677	15.56
683.863	15.63
684.049	15.47
684.235	14.83
684.42	14.68
684.606	14.52
684.792	15
684.978	15.21
685.164	14.85
685.349	14.34
685.535	14.84
685.721	14.94
685.907	15.01
686.092	14.89
686.278	14.96
686.464	14.87
686.649	15.14
686.835	14.42
687.021	14.4
687.206	14.28
687.392	14
687.577	13.6
687.763	14.18
687.948	14.05
688.134	14.64
688.319	14.7
688.505	14.54
688.69	14.24
688.876	14.66
689.061	14.63
689.247	14.38
689.432	14.96
689.618	14.89
689.803	14.73
689.988	14.82
690.174	14.55
690.359	14.48
690.544	15.38
690.73	15.2
690.915	15.09
691.1	15.32
691.285	15.99
691.471	15.97
691.656	16.36
691.841	15.89
692.026	15.94
692.211	15.82
692.396	15.92
692.582	15.36
692.767	15.52
692.952	15.07
693.137	14.76
693.322	14.34
693.507	13.96
693.692	13.81
693.877	14.33
694.062	14.13
694.247	14.21
694.432	14.3
694.617	13.92
694.802	14.04
694.987	14.9
695.172	14.53
695.357	14.65
695.541	15.37
695.726	15.6
695.911	15.42
696.096	14.8
696.281	15.18
696.466	15.22
696.65	15.28
696.835	15.55
697.02	15.28
697.204	15.49
697.389	16.03
697.574	15.66
697.759	15.42
697.943	15.08
698.128	15.52
698.312	15.6
698.497	15.68
698.682	15.71
698.866	15.51
699.051	15.5
699.235	15.76
699.42	15.57
699.604	15.34
699.789	15.36
699.973	15.86
700.158	15.82
700.342	15.83
700.527	15.57
700.711	15.73
700.895	15.77
701.08	15.72
701.264	15.67
701.448	15.51
701.633	15.33
701.817	15.21
702.001	15.04
702.186	14.9
702.37	14.05
702.554	13.54
702.738	13.65
702.923	13.57
703.107	13.64
703.291	13.53
703.475	13.51
703.659	14.28
703.843	14.2
704.027	13.91
704.212	13.12
704.396	13.2
704.58	14.51
704.764	14.55
704.948	14.76
705.132	14.45
705.316	14.59
705.5	13.75
705.684	12.96
705.868	13.48
706.052	13.28
706.235	14.03
706.419	14.67
706.603	14.08
706.787	13.8
706.971	13.7
707.155	13.34
707.339	13.35
707.522	14.49
707.706	14.4
707.89	13.7
708.074	14.19
708.257	13.71
708.441	13.5
708.625	13.87
708.808	13.9
708.992	14.27
709.176	14.09
709.359	14.18
709.543	13.77
709.727	14.49
709.91	15.16
710.094	15.33
710.277	16.04
710.461	15.98
710.644	16.05
710.828	15.39
711.011	15.47
711.195	16.07
711.378	16.16
711.562	15.93
711.745	15.71
711.928	14.79
712.112	14.34
712.295	14.17
712.478	13.34
712.662	13.19
712.845	13.12
713.028	12.61
713.212	12.61
713.395	12.25
713.578	12.49
713.761	12.15
713.945	12.18
714.128	12.24
714.311	11.97
714.494	12.48
714.677	12.36
714.86	12.35
715.043	12.65
715.227	12.67
715.41	12.88
715.593	13.27
715.776	13.75
715.959	15.13
716.142	15
716.325	15.24
716.508	15.36
716.691	14.57
716.874	15.57
717.057	15.13
717.239	15.67
717.422	15.49
717.605	14.89
717.788	15.14
717.971	13.91
718.154	13.73
718.337	13.67
718.519	13.85
718.702	15.53
718.885	14.37
719.068	14.93
719.25	14.48
719.433	14.08
719.616	14.37
719.798	13.51
719.981	13.74
720.164	14.31
720.346	13.68
720.529	12.67
720.712	11.79
720.894	13.05
721.077	13.19
721.259	12.76
721.442	12.26
721.624	13.2
721.807	13.72
721.989	13.77
722.172	13.29
722.354	14.75
722.537	15.75
722.719	15.67
722.901	13.95
723.084	13.6
723.266	13.94
723.448	15.53
723.631	14.21
723.813	15.02
723.995	14.52
724.178	15.3
724.36	13.31
724.542	12.74
724.724	13.15
724.907	14.53
725.089	13.23
725.271	13.38
725.453	12.34
725.635	12.96
725.817	12.34
725.999	13.84
726.181	13.32
726.364	14.14
726.546	14.82
726.728	13.22
726.91	12.76
727.092	12.62
727.274	12.87
727.456	13.6
727.638	12.96
727.819	12.87
728.001	11.56
728.183	12.56
728.365	12.32
728.547	11.34
728.729	11.93
728.911	12.75
729.093	14.83
729.274	14.81
729.456	13.86
729.638	14.2
729.82	13.87
730.001	14
730.183	11.77
730.365	12.27
730.546	12.87
730.728	13.69
730.91	14.28
731.091	13.93
731.273	13.26
731.455	13.12
731.636	12.02
731.818	11.52
731.999	12.06
732.181	13.42
732.362	12.92
732.544	12.89
732.725	12.53
732.907	11.62
733.088	11.69
733.27	11.59
733.451	12.57
733.633	13.7
733.814	15.09
733.995	14.63
734.177	15.73
734.358	16.61
734.539	17.58
734.721	17.31
734.902	17.44
735.083	15.95
735.264	15.38
735.446	14.55
735.627	13.92
735.808	13.19
735.989	14.13
736.17	12.56
736.351	12.25
736.533	11.12
736.714	12.38
736.895	11.83
737.076	13.01
737.257	13.83
737.438	13.13
737.619	13.89
737.8	13.19
737.981	12.44
738.162	12.56
738.343	12.8
738.524	13.12
738.705	11.78
738.886	11.65
739.067	10.23
739.247	9.79
739.428	10.89
739.609	11.13
739.79	11.13
739.971	10.76
740.151	10.87
740.332	10.34
740.513	9.98
740.694	9.55
740.874	10.04
741.055	10.3
741.236	10.3
741.417	10.94
741.597	9.62
741.778	9.95
741.958	9.33
742.139	9.13
742.32	8.79
742.5	9.84
742.681	11.76
742.861	11.88
743.042	12.56
743.222	12.36
743.403	9.57
743.583	11.37
743.764	10.86
743.944	11.05
744.124	10.52
744.305	11.26
744.485	10.68
744.666	9.45
744.846	9.59
745.026	9.57
745.207	9.48
745.387	11.09
745.567	9.47
745.747	9.39
745.928	10.06
746.108	10.45
746.288	9.98
746.468	8.59
746.648	9.63
746.829	9.71
747.009	11.01
747.189	11.78
747.369	13.29
747.549	12.45
747.729	13.68
747.909	13.97
748.089	14.62
748.269	14.46
748.449	15.28
748.629	14.36
748.809	13.66
748.989	13.05
749.169	13.45
749.349	12.38
749.529	12.25
749.709	11.54
749.889	11.88
750.068	11.6
750.248	12.3
750.428	11.25
750.608	9.87
750.788	10.24
750.967	9.99
751.147	10.61
751.327	10.68
751.507	12.12
751.686	11.85
751.866	11.53
752.046	11.13
752.225	10.22
752.405	10.82
752.585	11.8
752.764	11.32
752.944	11.42
753.123	10.31
753.303	11.11
753.482	11.09
753.662	12.35
753.841	12.09
754.021	12.29
754.2	12.66
754.38	14.45
754.559	14.6
754.739	16.2
754.918	15.17
755.097	15.61
755.277	14.96
755.456	13.96
755.635	11.8
755.815	11.87
755.994	11.36
756.173	10.45
756.352	9.62
756.532	9.74
756.711	7.17
756.89	7.29
757.069	6.91
757.248	6.27
757.427	6.8
757.607	8.31
757.786	9.22
757.965	8.31
758.144	9.55
758.323	8.29
758.502	8.52
758.681	9.5
758.86	10.22
759.039	9.58
759.218	9.24
759.397	10.71
759.576	9.93
759.755	8.81
759.934	9.66
760.113	10.24
760.291	10.44
760.47	10.63
760.649	12.02
760.828	12.46
761.007	13.69
761.186	14.86
761.364	13.79
761.543	13.79
761.722	14.84
761.901	15.34
762.079	14.32
762.258	14.85
762.437	14.89
762.615	14.38
762.794	14.26
762.972	14.96
763.151	14.86
763.33	15.35
763.508	15.55
763.687	15.41
763.865	15.27
764.044	15.79
764.222	15.02
764.401	14.96
764.579	15.01
764.758	14.28
764.936	13.92
765.114	13.3
765.293	13.1
765.471	12.97
765.65	12.11
765.828	11.75
766.006	11.17
766.184	11.35
766.363	10.93
766.541	10.33
766.719	11.44
766.898	11.97
767.076	12.21
767.254	12.26
767.432	12.16
767.61	11.21
767.788	10.58
767.967	9.37
768.145	9.74
768.323	10.15
768.501	10.34
768.679	9.5
768.857	7.7
769.035	7.56
769.213	7.74
769.391	8.15
769.569	10.79
769.747	11.98
769.925	12.27
770.103	12.67
770.281	12.85
770.459	11.92
770.636	13.48
770.814	14.6
770.992	16.11
771.17	15.49
771.348	16.51
771.525	15.13
771.703	16
771.881	16.51
772.059	16.15
772.236	14.88
772.414	18.28
772.592	18.21
772.769	15.88
772.947	13.28
773.125	14.02
773.302	13.72
773.48	12.81
773.657	11.18
773.835	9.93
774.013	7.72
774.19	7.59
774.368	5.36
774.545	4.43
774.723	4.31
774.9	6.69
775.077	4.57
775.255	4.54
775.432	7.02
775.61	8.07
775.787	10.1
775.964	12.53
776.142	11.14
776.319	9.93
776.496	9.19
776.674	9.91
776.851	8.99
777.028	7.23
777.205	7.59
777.382	5.32
777.56	4.56
777.737	4.3
777.914	4.24
778.091	5.78
778.268	5.29
778.445	2.71
778.622	3.05
778.8	4.05
778.977	7.1
779.154	6.27
779.331	5.02
779.508	4.83
779.685	4.78
779.862	3.65
780.038	3.46
780.215	4.55
780.392	8.87
780.569	8.4
780.746	6.74
780.923	4.36
781.1	3.9
781.277	6.3
781.453	8.37
781.63	6.14
781.807	5.11
781.984	7.95
782.16	8.28
782.337	8.22
782.514	9.17
782.691	9.46
782.867	11.16
783.044	10.97
783.221	8.37
783.397	5.45
783.574	7.16
783.75	8.39
783.927	5.69
784.103	3.81
784.28	-0.4
784.456	2.09
784.633	2.81
784.809	3.84
784.986	4.84
785.162	5.26
785.339	5.74
785.515	8
785.692	8.12
785.868	7.75
786.044	7.05
786.221	7.12
786.397	2.83
786.573	3.31
786.749	0.17
786.926	-0.12
787.102	0.43
787.278	0.17
787.454	-0.36
787.631	3.7
787.807	3.22
787.983	4.6
788.159	3.8
788.335	4.81
788.511	4.79
788.687	4.16
788.863	1.22
789.039	1.07
789.216	-1.09
789.392	-2.31
789.568	-9.35
789.744	-6.84
789.919	-8.03
790.095	-8.7
790.271	-10.01
790.447	-13.84
790.623	-10.91
790.799	-7.35
790.975	-4.65
791.151	-3.42
791.327	-3.6
791.502	2.4
791.678	1.78
791.854	3.18
792.03	7.64
792.205	10.02
792.381	10.79
792.557	10.4
792.733	6.75
792.908	6.12
793.084	8.09
793.259	8.65
793.435	5.2
793.611	2.45
793.786	-0.79
793.962	-4.15
794.137	-5.71
794.313	-2.13
794.488	-4.67
794.664	0.02
794.839	0.29
795.015	0.59
795.19	0.08
795.366	2.21
795.541	4.98
795.716	6.35
795.892	7.53
796.067	8.81
796.242	3.72
796.418	5.17
796.593	6.97
796.768	5.44
796.944	6.36
797.119	8.18
797.294	7.17
797.469	7.74
797.644	7.72
797.82	4.85
797.995	4.67
798.17	8.23
798.345	11.83
798.52	13.28
798.695	14.48
798.87	12.99
799.045	8.39
799.22	8.4
799.395	8.1
799.57	10.5
799.745	12.62
799.92	11.96
800.095	10.72
800.27	4.06
800.445	-1.85
800.62	-4.12
800.795	-8.07
800.97	-4.82
801.145	-5.74
801.319	-5.99
801.494	-11.74
801.669	-17.69
801.844	-22.19
802.018	-20.98
802.193	-17.46
802.368	-14.51
802.543	-12.31
802.717	-5.62
802.892	-4.2
803.067	-5.47
803.241	-8.06
803.416	-6.42
803.59	-1.35
803.765	-1.73
803.94	2.71
804.114	1.88
804.289	-1.76
804.463	-1.62
804.638	-4
804.812	-2.72
804.986	-1.12
805.161	1.41
805.335	2.03
805.51	4.04
805.684	6.3
805.858	6.24
806.033	11.76
806.207	12.6
806.381	12.29
806.556	10.82
806.73	9.52
806.904	6.52
807.078	6.02
807.253	3.73
807.427	3.13
807.601	6.96
807.775	2.53
807.949	0.37
808.123	4.18
808.298	-1.23
808.472	-1.45
808.646	-4.27
808.82	1.53
808.994	-0.59
809.168	1.98
809.342	1.14
809.516	-1.96
809.69	-2.14
809.864	-3.78
810.038	-7.74
810.212	0.19
810.385	0.66
810.559	5.18
810.733	1.03
810.907	-0.84
811.081	-0.68
811.255	-3.4
811.428	-8.1
811.602	-6.42
811.776	-7.77
811.95	-6.94
812.123	-11.4
812.297	-12.93
812.471	-14.59
812.644	-11.26
812.818	-9.04
812.992	-6.7
813.165	-4.21
813.339	-1.27
813.512	-1.77
813.686	-2.41
813.86	-0.49
814.033	2.94
814.207	5.72
814.38	-2.07
814.554	-2.18
814.727	3.4
814.9	0.38
815.074	-1.7
815.247	3.13
815.421	2.97
815.594	3.38
815.767	2.09
815.941	1.59
816.114	1.42
816.287	3.09
816.46	1.72
816.634	-3.35
816.807	-0.63
816.98	3.42
817.153	1.23
817.327	0.02
817.5	-2.34
817.673	-7.55
817.846	-9.51
818.019	-9.72
818.192	-4.68
818.365	-1.37
818.538	1.12
818.711	-1.27
818.884	-4.38
819.057	-4.82
819.23	-2.23
819.403	-0.45
819.576	5.83
819.749	6.37
819.922	7.52
820.095	6.03
820.268	6.22
820.441	4.56
820.614	4.85
820.786	3.11
820.959	3.06
821.132	4.75
821.305	7.69
821.477	8.46
821.65	9.8
821.823	11.06
821.996	12.65
822.168	13.48
822.341	14.39
822.514	15.68
822.686	16.46
822.859	17.6
823.031	17.78
823.204	17.27
823.376	18.09
823.549	17.21
823.722	17.59
823.894	17.56
824.067	17.61
824.239	17.17
824.411	16.22
824.584	16.19
824.756	14.47
824.929	14.21
825.101	14.12
825.273	12.21
825.446	12.91
825.618	12.15
825.79	10.89
825.963	9.4
826.135	10.93
826.307	11.15
826.479	11.58
826.652	13.18
826.824	13.16
826.996	13.58
827.168	14.28
827.34	13.47
827.512	12.81
827.684	13.97
827.856	14.46
828.029	12.7
828.201	13.56
828.373	13.85
828.545	13.05
828.717	10.56
828.889	10.29
829.061	10.74
829.232	12.7
829.404	13.74
829.576	11.88
829.748	9.65
829.92	11
830.092	8.6
830.264	5.38
830.436	4.57
830.607	5.68
830.779	4.7
830.951	2.81
831.123	-0.02
831.294	-6.25
831.466	-7.69
831.638	-6.43
831.809	-12.49
831.981	-7.82
832.153	-6.66
832.324	-4.85
832.496	0.95
832.667	-2.5
832.839	-0.35
833.011	-1.76
833.182	3.46
833.354	4.68
833.525	4.37
833.697	7.06
833.868	2.59
834.039	1.13
834.211	2.26
834.382	5.29
834.554	9.58
834.725	8.34
834.896	9.18
835.068	9.92
835.239	12.47
835.41	13.39
835.581	10.56
835.753	13.5
835.924	14.17
836.095	14.65
836.266	10.2
836.438	7.76
836.609	7.34
836.78	11.57
836.951	6.3
837.122	2.36
837.293	-1.32
837.464	2.43
837.635	-4.8
837.806	1.96
837.977	-1.05
838.148	-10.87
838.319	-12.63
838.49	-11.39
838.661	-19.81
838.832	-15.42
839.003	-12.57
839.174	-9.45
839.345	-7.16
839.516	-3.62
839.687	-12.95
839.857	-15.12
840.028	-11.19
840.199	-12.93
840.37	-23.06
840.54	-20.35
840.711	-22.71
840.882	-27.4
841.053	-25.52
841.223	-25.07
841.394	-20.86
841.564	-22.81
841.735	-20.09
841.906	-17.05
842.076	-6.49
842.247	4.61
842.417	4.5
842.588	12.63
842.758	2.41
842.929	2.88
843.099	-7.72
843.27	-19.61
843.44	-12.34
843.611	-23.25
843.781	-27.32
843.951	-36.3
844.122	-42.94
844.292	-43.04
844.462	-59.12
844.633	-61.86
844.803	-74.16
844.973	-73.2
845.144	-56.93
845.314	-73.07
845.484	-43.43
845.654	-40.63
845.824	-34.15
845.995	-24.37
846.165	-18.03
846.335	-5.04
846.505	-0.87
846.675	0.28
846.845	4.65
847.015	0.48
847.185	-0.67
847.355	-3.85
847.525	-11.79
847.695	-16.94
847.865	-21.78
848.035	-29.02
848.205	-55.65
848.375	-53.75
848.545	-82.39
848.715	-67.83
848.884	-53.16
849.054	-58.14
849.224	-92.46
849.394	-71.12
849.564	-75.81
849.733	-106.49
849.903	-97.95
850.073	-75.97
850.243	-89.38
850.412	-63.31
850.582	-63.39
850.752	-93.62
850.921	-62.36
851.091	-40.04
851.26	-48.6
851.43	-65.64
851.599	-45.9
851.769	-77.27
851.939	-69.91
852.108	-72.93
852.278	-63.68
852.447	-63.45
852.616	-85.63
852.786	-105.17
852.955	-105
853.125	-112.38
853.294	-82.15
853.463	-94.4
853.633	-81.42
853.802	-108.33
853.971	-98.92
854.141	-114.23
854.31	-93.18
854.479	-73.02
854.648	-54.97
854.818	-53.05
854.987	-64.17
855.156	-60.82
855.325	-57.89
855.494	-48.11
855.663	-35.65
855.832	-42.01
856.001	-14.67
856.171	-70.48
856.34	-57
856.509	-81.93
856.678	-97.41
856.847	-146.04
857.016	-175.82
857.185	-183.38
857.353	-186.59
857.522	-152.71
857.691	-153.38
857.86	-197.41
858.029	-111.63
858.198	-107.19
858.367	-106.35
858.535	-99.5
858.704	-56.65
858.873	-54.64
859.042	-65.8
859.21	-46.6
859.379	-64.37
859.548	-54.74
859.717	-53.58
859.885	-61.51
860.054	-81.83
860.222	-96.85
860.391	-82.93
860.56	-156.28
860.728	-153.38
860.897	-113.52
861.065	-108.66
861.234	-103.49
861.402	-76.66
861.571	-74.89
861.739	-103.92
861.908	-85.67
862.076	-77.77
862.244	-136.53
862.413	-76.06
862.581	-93.58
862.749	-80.12
862.918	-149.72
863.086	-150.21
863.254	-282.6
863.423	-267.13
863.591	-233.08
863.759	-342.42
863.927	-219.2
864.096	-149.67
864.264	-207.15
864.432	-128.98
864.6	-98.55
864.768	-66.32
864.936	-49.03
865.104	-67.94
865.272	-54.85
865.44	-114.24
865.608	-72.46
865.776	-86.45
865.944	-98.55
866.112	-102.88
866.28	-117.31
866.448	-137.92
866.616	-127.46
866.784	-156.33
866.952	-104.43
867.12	-108.76
867.288	-89.11
867.455	-74.24
867.623	-108.15
867.791	-161.68
867.959	-141.73
868.127	-98.16
868.294	-146.36
868.462	-196.93
868.63	-144.59
868.797	-255.08
868.965	-199.81
869.133	-181.78
869.3	-202.14
869.468	-202.46
869.636	-134.01
869.803	-109.98
869.971	-147.27
870.138	-193.07
870.306	-425.94
870.473	-431.53
870.641	-554.23
870.808	-362.43
870.975	-439.01
871.143	-316.66
871.31	-252.99
871.478	-321.74
871.645	-210.27
871.812	-149.01
871.98	-76.82
872.147	-71.35
872.314	-114.72
872.482	-57.85
872.649	-134.82
872.816	-152.53
872.983	-156.1
873.15	-127.73
873.318	-92.18
873.485	-108.08
873.652	-140.93
873.819	-176.11
873.986	-101.38
874.153	-86.8
874.32	-131.4
874.487	-63.15
874.654	-28.4
874.821	-21.54
874.988	-38.79
875.155	-9.62
875.322	-9.92
875.489	2.84
875.656	-4.99
875.823	-28.18
875.99	-61.25
876.157	-11.54
876.324	-17.94
876.49	-15.57
876.657	-24.84
876.824	-10.58
876.991	-59.4
877.157	-84.1
877.324	-85.99
877.491	-126.42
877.658	-86.66
877.824	-24.92
877.991	-66.23
878.157	-67.4
878.324	-111.84
878.491	-188.77
878.657	-66.31
878.824	-47.89
878.99	-39.45
879.157	-52.96
879.323	-38.56
879.49	-55.63
879.656	-63.8
879.823	-72.72
879.989	-49.75
880.156	-76.88
880.322	-89.73
880.488	-100.16
880.655	-91.51
880.821	-104.72
880.987	-73.48
881.154	-88.54
881.32	-84.54
881.486	-66.59
881.652	-53.48
881.819	-34.91
881.985	-13.68
882.151	-0.09
882.317	0.49
882.483	3.83
882.649	11.68
882.816	11.69
882.982	12.19
883.148	15.46
883.314	16.38
883.48	18.98
883.646	15.42
883.812	17.44
883.978	17.31
884.144	15.91
884.31	14.14
884.476	11.65
884.642	7.86
884.807	9.9
884.973	9.58
885.139	7.51
885.305	5.16
885.471	4.02
885.637	-1.49
885.802	-2.85
885.968	-5.53
886.134	-2.3
886.3	-2.05
886.465	-1.88
886.631	-9.09
886.797	-14.32
886.962	-15.48
887.128	-20.77
887.293	-24.74
887.459	-24.54
887.625	-43.38
887.79	-42.76
887.956	-56.19
888.121	-80.5
888.287	-92.45
888.452	-74.86
888.618	-76.42
888.783	-68
