Data from 2938111_Reflection_2.txt Node
Date: Sat Jul 11 18:25:34 EDT 2015
User: robert
Spectrometer: USB4E03001
Autoset integration time: false
Trigger mode: 4
Integration Time (sec): 1.000000E-1
Scans to average: 10
Electric dark correction enabled: true
Nonlinearity correction enabled: false
Boxcar width: 5
Stray light correction enabled: false
XAxis mode: Wavelengths
Stop averaging: false
Number of Pixels in Spectrum: 3648
>>>>>Begin Spectral Data<<<<<
177.566	37.92
177.785	154.45
178.005	-185.12
178.225	-28.51
178.445	6.92
178.665	-2551.61
178.885	-282.17
179.105	-19.3
179.324	-102.48
179.544	-86.41
179.764	-798.97
179.984	428.93
180.204	-201.18
180.423	17.17
180.643	0.51
180.863	6.6
181.083	17.32
181.302	14.51
181.522	-12.97
181.742	18.76
181.961	-97.96
182.181	126.39
182.401	169.44
182.621	126.41
182.84	137.35
183.06	118.3
183.279	38.75
183.499	60.11
183.719	38.97
183.938	74.85
184.158	60.49
184.377	0.45
184.597	-188.04
184.816	-224.19
185.036	-153.61
185.256	-396
185.475	-42.75
185.695	-14.61
185.914	-75.5
186.134	-177.09
186.353	-172.02
186.572	-364.4
186.792	247.91
187.011	63.13
187.231	51.23
187.45	26.66
187.67	47.91
187.889	98.63
188.108	49.18
188.328	27.85
188.547	95.96
188.766	77.62
188.986	233.58
189.205	268.59
189.424	160.66
189.644	112.72
189.863	101.35
190.082	114.4
190.302	143.33
190.521	217.23
190.74	155.64
190.959	505.11
191.178	9895.24
191.398	737.12
191.617	10.25
191.836	-10.2
192.055	-5.65
192.274	-234.05
192.494	263.21
192.713	140.5
192.932	134.47
193.151	3536.17
193.37	-37920
193.589	33.94
193.808	-25.58
194.027	24.42
194.246	14.03
194.465	2.18
194.685	-69.29
194.904	-186.05
195.123	-114.06
195.342	-17.7
195.561	27.8
195.78	16.41
195.999	15.86
196.218	-11.5
196.436	-24.83
196.655	-56.95
196.874	-57.21
197.093	-50.83
197.312	-40.47
197.531	-44.44
197.75	-82
197.969	-295.53
198.188	-346.97
198.407	-77.88
198.625	-45.8
198.844	-130.83
199.063	-248.42
199.282	3711.01
199.501	-305.55
199.719	-73.97
199.938	-227.43
200.157	-22.4
200.376	99
200.594	98.97
200.813	-202.27
201.032	-4.84
201.251	21.8
201.469	37.62
201.688	25.68
201.907	35.77
202.125	-15.5
202.344	-2.17
202.563	22.71
202.781	6.23
203	24.5
203.218	54.36
203.437	37.6
203.656	-31.48
203.874	110.59
204.093	160.69
204.311	85.18
204.53	119.63
204.748	129.43
204.967	138.68
205.185	136.22
205.404	99.58
205.622	125.3
205.841	227.61
206.059	114.8
206.278	73.74
206.496	111.01
206.715	126.34
206.933	187.7
207.151	-161.89
207.37	1.66
207.588	84.39
207.806	-0.58
208.025	163.82
208.243	-39.13
208.461	-88.06
208.68	50.05
208.898	84.33
209.116	143.16
209.335	133.88
209.553	-94.51
209.771	103.94
209.989	209.94
210.208	89.77
210.426	-1565.5
210.644	-123.15
210.862	-306.01
211.081	-31.36
211.299	-39.46
211.517	-14.95
211.735	-79.26
211.953	-20.76
212.171	20.37
212.39	52.53
212.608	40.28
212.826	128.72
213.044	68.69
213.262	143.62
213.48	115.39
213.698	174.99
213.916	157.52
214.134	86.49
214.352	33.58
214.57	47.79
214.788	201.86
215.006	2470.64
215.224	12577.78
215.442	1052.25
215.66	1845.08
215.878	291.93
216.096	337.11
216.314	-815.26
216.532	-2276.79
216.75	258.09
216.968	614.43
217.185	273.27
217.403	92.07
217.621	32.92
217.839	-16.08
218.057	-4.57
218.275	1086.84
218.492	342.03
218.71	41.31
218.928	51.89
219.146	65.6
219.363	81.85
219.581	49.88
219.799	17.87
220.017	-0.25
220.234	6.01
220.452	34.39
220.67	16.26
220.887	23.85
221.105	34.97
221.323	20.05
221.54	2.48
221.758	-11.62
221.976	-0.28
222.193	-7.06
222.411	-9.09
222.629	-7.72
222.846	-38.33
223.064	-9.94
223.281	-11.16
223.499	-5.82
223.716	-3.39
223.934	-13.42
224.151	-0.58
224.369	-3.21
224.586	7.45
224.804	-6.37
225.021	-32.69
225.239	-2.53
225.456	-28.5
225.674	-14.32
225.891	-33.87
226.108	-4.14
226.326	6.39
226.543	-42.63
226.76	-24.86
226.978	-23.76
227.195	2.32
227.413	22.28
227.63	4.38
227.847	10.26
228.064	5.43
228.282	5.75
228.499	-2.2
228.716	-1.32
228.934	9.28
229.151	12.12
229.368	16.74
229.585	13.44
229.802	11.77
230.02	18.71
230.237	17.15
230.454	19.17
230.671	20.13
230.888	19.05
231.105	20.67
231.323	18.78
231.54	16.21
231.757	12.96
231.974	16.68
232.191	14.09
232.408	7.93
232.625	16.55
232.842	16.47
233.059	16.4
233.276	25.53
233.493	24.33
233.71	27.07
233.927	23.31
234.144	18.34
234.361	17.87
234.578	24.18
234.795	25.14
235.012	22.35
235.229	14.58
235.446	8.96
235.663	5.46
235.879	10.03
236.096	10.09
236.313	17.51
236.53	12.12
236.747	12.78
236.964	11
237.181	3.86
237.397	0.76
237.614	-7.31
237.831	1.57
238.048	-2.68
238.264	-7.46
238.481	-5.37
238.698	-11.56
238.915	-1.05
239.131	-0.11
239.348	-1.97
239.565	7.2
239.781	10.89
239.998	18.59
240.215	17.03
240.431	18.22
240.648	18.41
240.865	17.32
241.081	20.22
241.298	19.01
241.514	17.8
241.731	18.12
241.947	17.29
242.164	17.26
242.38	16.2
242.597	15.06
242.814	13.61
243.03	13.13
243.246	11.05
243.463	10.63
243.679	12.18
243.896	12.14
244.112	12.77
244.329	11.91
244.545	11.06
244.762	11.32
244.978	12.05
245.194	12.74
245.411	13.44
245.627	13.93
245.843	12.02
246.06	11.49
246.276	11.18
246.492	11.36
246.709	12.47
246.925	12.37
247.141	12.45
247.357	12.12
247.574	11.95
247.79	12.51
248.006	11.06
248.222	11.71
248.439	11.42
248.655	11.09
248.871	10.66
249.087	10.26
249.303	9.94
249.519	8.37
249.736	8.59
249.952	7.74
250.168	5.02
250.384	9.2
250.6	7.29
250.816	10.08
251.032	11.92
251.248	8.36
251.464	7.33
251.68	8.04
251.896	11.76
252.112	12.16
252.328	13.34
252.544	12.64
252.76	11.39
252.976	12.33
253.192	10.1
253.408	8.35
253.624	8.64
253.84	8.44
254.056	8.53
254.272	7.34
254.487	9.76
254.703	10.93
254.919	12.99
255.135	13.84
255.351	13.46
255.567	17.91
255.782	17.21
255.998	16.99
256.214	16.7
256.43	15.36
256.646	15.61
256.861	11.84
257.077	11.29
257.293	8.79
257.508	9.91
257.724	7.81
257.94	4.49
258.155	5.67
258.371	6.67
258.587	6.38
258.802	5.85
259.018	6.97
259.234	7.36
259.449	8.2
259.665	10.25
259.88	9.77
260.096	10.76
260.312	10.44
260.527	11.35
260.743	12.23
260.958	12.73
261.174	13.22
261.389	12.01
261.605	12.11
261.82	11.45
262.036	10.29
262.251	9.24
262.466	8.98
262.682	8.67
262.897	7.06
263.113	5.59
263.328	4.25
263.543	5.4
263.759	7.18
263.974	8.4
264.189	9.42
264.405	8.58
264.62	10.86
264.835	11.46
265.051	13.08
265.266	12.09
265.481	10.51
265.696	10.3
265.912	10.31
266.127	10.76
266.342	8.74
266.557	9.46
266.773	9.39
266.988	8.04
267.203	7.98
267.418	7.5
267.633	9.57
267.848	10.16
268.064	9.67
268.279	8.66
268.494	6.96
268.709	7.76
268.924	7.2
269.139	8.85
269.354	9.98
269.569	9.36
269.784	10.52
269.999	10.64
270.214	10.29
270.429	11.49
270.644	11.85
270.859	10.83
271.074	11.34
271.289	11.57
271.504	11.31
271.719	10.69
271.934	11.25
272.149	8.54
272.363	7.83
272.578	8.67
272.793	9.8
273.008	10.38
273.223	11.98
273.438	11.88
273.653	10.17
273.867	9.61
274.082	11.35
274.297	11.18
274.512	13.07
274.726	13.1
274.941	13.73
275.156	11.41
275.371	10.06
275.585	7.73
275.8	6.81
276.015	9.7
276.229	8.65
276.444	5.61
276.659	2.3
276.873	1.97
277.088	4.12
277.302	3.96
277.517	5.99
277.732	5.15
277.946	8.23
278.161	8.41
278.375	5.37
278.59	3.9
278.804	4.62
279.019	7.34
279.233	5.71
279.448	2.72
279.662	2.55
279.877	2.17
280.091	5.06
280.306	4.16
280.52	5.35
280.735	5.88
280.949	10.51
281.163	10.84
281.378	11.76
281.592	14.57
281.806	15.7
282.021	15.43
282.235	15.36
282.449	15.11
282.664	15.21
282.878	15.72
283.092	17.33
283.307	15.03
283.521	16.17
283.735	15.18
283.949	13.81
284.164	12.59
284.378	13.23
284.592	12.57
284.806	12.39
285.02	11.98
285.234	10.52
285.449	9.63
285.663	10.12
285.877	8.68
286.091	9.94
286.305	9.66
286.519	10.73
286.733	10.22
286.947	10.85
287.161	9.92
287.375	10.67
287.589	10.55
287.803	10.63
288.017	9.02
288.231	8.42
288.445	6.38
288.659	8.73
288.873	8.27
289.087	7.66
289.301	7.95
289.515	9.71
289.729	10.43
289.943	9.98
290.157	9.9
290.371	11.87
290.584	13.39
290.798	15.01
291.012	12.4
291.226	12.24
291.44	13
291.654	13.51
291.867	12.16
292.081	12.09
292.295	11.84
292.509	11.44
292.722	10.71
292.936	11
293.15	10.42
293.364	11.88
293.577	11.26
293.791	11.48
294.005	10.84
294.218	12.01
294.432	11.43
294.645	13.59
294.859	14.96
295.073	14.22
295.286	13.85
295.5	13.35
295.713	12.26
295.927	14.38
296.14	15.19
296.354	14.5
296.568	14.09
296.781	13.96
296.994	13.58
297.208	11.28
297.421	12.29
297.635	10.83
297.848	9.94
298.062	11.3
298.275	10.37
298.489	9.42
298.702	9.96
298.915	8.62
299.129	9.15
299.342	8.81
299.555	9.06
299.769	7.41
299.982	8.8
300.195	10.52
300.409	10.46
300.622	9.08
300.835	8.41
301.048	9.39
301.262	10.47
301.475	9.03
301.688	9.46
301.901	10.8
302.115	10.59
302.328	9.62
302.541	10.56
302.754	9.29
302.967	10.15
303.18	10.47
303.393	9.33
303.607	10.51
303.82	11.93
304.033	11.59
304.246	12.96
304.459	13.04
304.672	12.08
304.885	9.02
305.098	9.8
305.311	9.6
305.524	9.89
305.737	10.84
305.95	10.34
306.163	8.35
306.376	10.35
306.589	8.19
306.802	8.46
307.015	10.53
307.228	14.96
307.44	14.21
307.653	16.01
307.866	16.57
308.079	16.13
308.292	18.39
308.505	19.33
308.718	17.16
308.93	18.65
309.143	18.79
309.356	19.98
309.569	16.78
309.781	17.31
309.994	15.91
310.207	14.2
310.42	13.68
310.632	12.09
310.845	12.02
311.058	11.81
311.27	10.76
311.483	13.08
311.696	12.07
311.908	13.55
312.121	13.2
312.333	14.84
312.546	15.72
312.759	17.56
312.971	15.53
313.184	16.05
313.396	16.47
313.609	16.7
313.821	14.92
314.034	16.01
314.246	14.41
314.459	14.27
314.671	11.8
314.884	12.62
315.096	10.89
315.309	12.64
315.521	13.73
315.733	14.73
315.946	15.44
316.158	16.59
316.371	16.39
316.583	16.72
316.795	14.59
317.008	12.71
317.22	11.9
317.432	11.64
317.644	10.57
317.857	6.95
318.069	7.41
318.281	7.32
318.494	5.21
318.706	3.54
318.918	4.19
319.13	8.11
319.342	10.02
319.555	11.1
319.767	10.22
319.979	9.91
320.191	11.64
320.403	9.34
320.615	8.37
320.827	9.74
321.039	8.22
321.252	9.43
321.464	5.91
321.676	4.6
321.888	1.22
322.1	2.07
322.312	3.44
322.524	3.82
322.736	5.61
322.948	7.32
323.16	6.14
323.372	8.99
323.584	8.61
323.796	8.98
324.007	10.44
324.219	11.19
324.431	9.55
324.643	10.06
324.855	9.98
325.067	10.16
325.279	10.2
325.491	11.09
325.702	9.9
325.914	9.13
326.126	9.6
326.338	8.37
326.55	8.27
326.761	9.75
326.973	8.74
327.185	9.18
327.396	6.93
327.608	6.37
327.82	5.88
328.032	5.88
328.243	5.82
328.455	6.85
328.666	6.83
328.878	7.16
329.09	6.77
329.301	7.43
329.513	7.08
329.725	10.06
329.936	10.46
330.148	11.85
330.359	13.49
330.571	14.14
330.782	15.79
330.994	17.57
331.205	17.96
331.417	19.14
331.628	20.1
331.84	18.04
332.051	16.81
332.262	17.44
332.474	16.05
332.685	15.16
332.897	13.25
333.108	9.52
333.319	8.39
333.531	10.07
333.742	10.54
333.953	9.67
334.165	11.11
334.376	11.58
334.587	10.88
334.799	11.89
335.01	12
335.221	13.39
335.432	15.97
335.644	16
335.855	14.2
336.066	13.34
336.277	14.62
336.488	14.32
336.7	13.33
336.911	13.76
337.122	12.2
337.333	12.74
337.544	11.67
337.755	9.77
337.966	10.64
338.177	11.67
338.388	11.02
338.599	9.33
338.811	8.54
339.022	9.27
339.233	7.28
339.444	7.98
339.655	5.46
339.866	6.55
340.076	6.64
340.287	5.67
340.498	5.53
340.709	4.63
340.92	4.2
341.131	5.62
341.342	5.73
341.553	5.12
341.764	5.11
341.975	5.95
342.185	7.09
342.396	8.32
342.607	8.38
342.818	8.35
343.029	8.71
343.239	9.54
343.45	8.09
343.661	7.78
343.872	9.94
344.082	10.04
344.293	9.88
344.504	10.4
344.714	9.56
344.925	10.02
345.136	9.2
345.346	7.71
345.557	7.35
345.768	8.59
345.978	7.9
346.189	7.25
346.399	7.95
346.61	8.25
346.821	6.56
347.031	6.9
347.242	6.27
347.452	7.09
347.663	7.91
347.873	10.04
348.084	10.11
348.294	9.67
348.504	9.68
348.715	8.99
348.925	9.38
349.136	10.19
349.346	11.09
349.557	11.97
349.767	11.03
349.977	13.33
350.188	11.44
350.398	11.22
350.608	12.7
350.819	11.3
351.029	10
351.239	10.91
351.449	10.18
351.66	9.84
351.87	9.09
352.08	10.54
352.29	8.79
352.501	10.79
352.711	11.33
352.921	10.1
353.131	10.25
353.341	11.87
353.552	11.2
353.762	10.62
353.972	8.93
354.182	9.92
354.392	8.36
354.602	9.49
354.812	7.58
355.022	7.89
355.232	9.67
355.442	9.52
355.652	9.03
355.862	8.3
356.072	8.78
356.282	9.58
356.492	8.93
356.702	8.83
356.912	8.74
357.122	7.92
357.332	6.43
357.542	5.09
357.752	7.56
357.962	8.22
358.171	9.19
358.381	9.79
358.591	10.11
358.801	9.33
359.011	10.12
359.221	10.46
359.43	12.42
359.64	13.07
359.85	13.11
360.06	11.67
360.269	12.04
360.479	12.11
360.689	11.77
360.899	11.38
361.108	11.48
361.318	11.36
361.528	10.29
361.737	9.44
361.947	8.71
362.156	8.67
362.366	8.96
362.576	8.81
362.785	8.67
362.995	8.87
363.204	9.13
363.414	10.32
363.623	9.75
363.833	10.4
364.042	9.54
364.252	10.58
364.461	11.46
364.671	10.85
364.88	9.89
365.09	10.53
365.299	9.99
365.509	10.18
365.718	9.47
365.927	9.55
366.137	10.36
366.346	12.79
366.555	11.61
366.765	11.32
366.974	11.8
367.183	11.57
367.393	10.28
367.602	9.9
367.811	9.78
368.021	8.86
368.23	8.86
368.439	8.15
368.648	7.22
368.857	8.46
369.067	7.14
369.276	7.18
369.485	7.59
369.694	6.84
369.903	7.12
370.112	6.3
370.321	6.82
370.531	6.57
370.74	6.55
370.949	5.42
371.158	4.63
371.367	6.09
371.576	5.95
371.785	6.46
371.994	7.51
372.203	7.31
372.412	7.99
372.621	8.2
372.83	9.2
373.039	8.57
373.248	9.05
373.457	8.42
373.666	8.06
373.874	7.75
374.083	7.73
374.292	7.14
374.501	6.94
374.71	5.79
374.919	5.9
375.128	5.44
375.336	6.57
375.545	6.08
375.754	7.57
375.963	6.97
376.171	6.85
376.38	5.63
376.589	5.51
376.798	5.99
377.006	6.96
377.215	7.14
377.424	7.05
377.632	6.76
377.841	7.24
378.05	7.15
378.258	8.07
378.467	7.87
378.675	8.91
378.884	9.18
379.093	8.66
379.301	7.49
379.51	7.54
379.718	7.28
379.927	7.02
380.135	7.01
380.344	6.48
380.552	5.61
380.761	5.9
380.969	5.42
381.177	5.34
381.386	5.42
381.594	6.12
381.803	5.74
382.011	6.22
382.219	5.94
382.428	6.06
382.636	5.86
382.845	5.65
383.053	6.08
383.261	6.09
383.469	5.79
383.678	5.8
383.886	5.73
384.094	5.77
384.302	5.46
384.511	5.1
384.719	4.2
384.927	4.11
385.135	4.37
385.343	4.11
385.552	3.69
385.76	3.83
385.968	3.75
386.176	3.96
386.384	3.87
386.592	3.82
386.8	4.57
387.008	4.82
387.216	4.98
387.424	4.52
387.633	4.36
387.841	4.33
388.049	4.13
388.257	4.18
388.465	3.58
388.672	3.11
388.88	2.4
389.088	2.18
389.296	2.43
389.504	2.42
389.712	2.82
389.92	2.85
390.128	3.03
390.336	3.06
390.544	3.12
390.751	3.51
390.959	3.78
391.167	4.46
391.375	4.34
391.583	4.2
391.79	4.11
391.998	4.32
392.206	4.39
392.414	4.08
392.621	4.59
392.829	4.63
393.037	4.26
393.244	4.08
393.452	3.94
393.66	3.6
393.867	3.6
394.075	3.3
394.283	3.16
394.49	3.19
394.698	3.38
394.905	2.86
395.113	2.56
395.32	3.1
395.528	3.31
395.735	3.35
395.943	3.44
396.15	3.52
396.358	3.8
396.565	3.61
396.773	3.21
396.98	3.57
397.188	3.52
397.395	3.33
397.602	3.02
397.81	3.16
398.017	3.07
398.225	3.48
398.432	3.05
398.639	3.15
398.847	3.17
399.054	3.3
399.261	2.81
399.468	2.83
399.676	3.33
399.883	3.39
400.09	2.96
400.297	2.89
400.505	2.21
400.712	2.29
400.919	2.29
401.126	2.35
401.333	2.46
401.54	2.86
401.748	3.16
401.955	2.78
402.162	2.85
402.369	2.72
402.576	2.56
402.783	3.01
402.99	3.41
403.197	3.52
403.404	3.53
403.611	3.14
403.818	2.72
404.025	2.77
404.232	2.81
404.439	2.72
404.646	2.86
404.853	3.03
405.06	2.92
405.267	2.69
405.474	2.9
405.681	2.84
405.887	3.13
406.094	3.39
406.301	3.02
406.508	3.22
406.715	2.92
406.922	3.33
407.128	3.47
407.335	3.52
407.542	3.64
407.749	3.26
407.955	3.04
408.162	3.17
408.369	3.3
408.575	3.41
408.782	3.19
408.989	3.56
409.195	3.41
409.402	3.33
409.609	3.22
409.815	3.17
410.022	3.08
410.228	3.15
410.435	3
410.642	2.69
410.848	2.29
411.055	2.27
411.261	2.36
411.468	2.51
411.674	2.13
411.881	2.49
412.087	2.3
412.294	2.1
412.5	2.15
412.706	1.94
412.913	2.02
413.119	2.52
413.326	2.36
413.532	2.14
413.738	1.89
413.945	2.27
414.151	2.16
414.357	2.18
414.564	2.43
414.77	2.27
414.976	2.52
415.182	2.59
415.389	2.17
415.595	2.22
415.801	2.1
416.007	2.24
416.214	2.04
416.42	1.96
416.626	1.91
416.832	2.02
417.038	2.15
417.244	2.13
417.45	1.98
417.657	2.12
417.863	2.42
418.069	2.63
418.275	2.55
418.481	2.55
418.687	2.68
418.893	2.78
419.099	2.7
419.305	2.68
419.511	2.76
419.717	2.7
419.923	2.63
420.129	2.41
420.335	2.27
420.541	2.3
420.746	2.32
420.952	2.24
421.158	2.26
421.364	2.2
421.57	2.08
421.776	1.9
421.982	2.16
422.187	2.3
422.393	2.39
422.599	2.49
422.805	2.31
423.01	2.4
423.216	2.29
423.422	2.31
423.628	2.26
423.833	2.32
424.039	2.39
424.245	2.22
424.45	2.08
424.656	2.08
424.862	2.14
425.067	2.18
425.273	2.07
425.478	2.23
425.684	2.14
425.889	2.33
426.095	2.21
426.301	2.3
426.506	2.31
426.712	2.29
426.917	2.32
427.123	2.01
427.328	1.95
427.533	1.91
427.739	1.56
427.944	2
428.15	1.77
428.355	2.11
428.561	1.97
428.766	2.07
428.971	2.04
429.177	2.03
429.382	2.09
429.587	2.32
429.793	2.26
429.998	2.52
430.203	2.02
430.408	2
430.614	1.94
430.819	2.05
431.024	1.87
431.229	2.41
431.434	2.38
431.64	2.6
431.845	2.64
432.05	2.64
432.255	2.69
432.46	2.77
432.665	2.8
432.87	2.68
433.076	2.48
433.281	2.69
433.486	2.41
433.691	2.37
433.896	2.27
434.101	2.08
434.306	2.23
434.511	2.16
434.716	2.1
434.921	2.04
435.126	2.23
435.331	2.33
435.535	1.98
435.74	1.9
435.945	1.67
436.15	1.67
436.355	1.67
436.56	1.47
436.765	1.47
436.97	1.69
437.174	1.74
437.379	1.53
437.584	1.51
437.789	1.6
437.993	1.74
438.198	2.08
438.403	2
438.608	2.17
438.812	2.24
439.017	2.2
439.222	1.87
439.426	2.04
439.631	2.11
439.836	1.97
440.04	2.02
440.245	2.04
440.45	1.92
440.654	2.03
440.859	2.06
441.063	2.12
441.268	2.05
441.472	2.2
441.677	2.1
441.881	2.18
442.086	2.42
442.29	2.47
442.495	2.43
442.699	2.45
442.904	2.19
443.108	2.08
443.312	2.24
443.517	2.19
443.721	2.13
443.925	2.06
444.13	2.04
444.334	1.85
444.538	1.81
444.743	1.94
444.947	1.85
445.151	2
445.356	1.92
445.56	1.77
445.764	1.75
445.968	1.67
446.173	1.8
446.377	1.71
446.581	1.77
446.785	1.75
446.989	1.53
447.193	1.71
447.398	1.73
447.602	1.67
447.806	1.81
448.01	1.89
448.214	1.96
448.418	1.85
448.622	1.87
448.826	1.93
449.03	1.91
449.234	2.16
449.438	2.12
449.642	2.1
449.846	2.23
450.05	2.12
450.254	2.25
450.458	2.23
450.662	2.23
450.866	2
451.069	1.71
451.273	1.86
451.477	1.86
451.681	1.86
451.885	1.8
452.089	2.06
452.292	2.17
452.496	1.98
452.7	2.01
452.904	1.99
453.107	2.27
453.311	2.4
453.515	2.34
453.719	2.36
453.922	2.31
454.126	2.32
454.33	2.09
454.533	1.88
454.737	1.97
454.94	2.08
455.144	1.91
455.348	2.06
455.551	2.22
455.755	2.2
455.958	2.25
456.162	2.17
456.365	2.22
456.569	2.33
456.772	2.4
456.976	2.45
457.179	2.31
457.383	2.72
457.586	2.26
457.79	2.06
457.993	1.99
458.196	1.92
458.4	2.13
458.603	2.14
458.807	1.99
459.01	1.98
459.213	1.9
459.417	1.94
459.62	1.82
459.823	1.86
460.026	1.85
460.23	1.84
460.433	1.74
460.636	1.55
460.839	1.6
461.042	1.56
461.246	1.51
461.449	1.61
461.652	1.58
461.855	1.52
462.058	1.46
462.261	1.51
462.464	1.59
462.668	1.55
462.871	1.62
463.074	1.43
463.277	1.41
463.48	1.53
463.683	1.46
463.886	1.53
464.089	1.34
464.292	1.52
464.495	1.45
464.698	1.42
464.901	1.64
465.104	1.53
465.306	1.6
465.509	1.66
465.712	1.6
465.915	1.59
466.118	1.48
466.321	1.6
466.524	1.61
466.726	1.84
466.929	1.95
467.132	1.8
467.335	1.77
467.538	1.87
467.74	1.93
467.943	1.84
468.146	1.96
468.348	1.9
468.551	2.03
468.754	2.09
468.956	1.92
469.159	1.66
469.362	1.66
469.564	1.85
469.767	1.67
469.969	1.63
470.172	1.74
470.375	1.6
470.577	1.54
470.78	1.36
470.982	1.29
471.185	1.29
471.387	1.73
471.59	1.56
471.792	1.46
471.995	1.69
472.197	1.71
472.399	1.68
472.602	1.74
472.804	1.95
473.007	2.04
473.209	1.92
473.411	2.06
473.614	1.81
473.816	1.86
474.018	1.92
474.22	1.8
474.423	1.76
474.625	1.92
474.827	1.77
475.03	1.71
475.232	1.7
475.434	1.91
475.636	1.8
475.838	1.78
476.04	1.85
476.243	1.68
476.445	1.8
476.647	1.95
476.849	1.95
477.051	2.06
477.253	2.01
477.455	1.94
477.657	1.95
477.859	1.91
478.061	1.98
478.263	1.79
478.465	2.13
478.667	1.83
478.869	1.65
479.071	1.54
479.273	1.34
479.475	1.35
479.677	1.42
479.879	1.33
480.081	1.57
480.283	1.48
480.485	1.62
480.686	1.29
480.888	1.47
481.09	1.47
481.292	1.34
481.494	1.45
481.695	1.55
481.897	1.63
482.099	1.69
482.301	1.59
482.502	1.69
482.704	1.8
482.906	1.92
483.107	1.96
483.309	2.02
483.511	2.03
483.712	2.03
483.914	2
484.115	1.94
484.317	1.98
484.519	2
484.72	1.97
484.922	1.89
485.123	1.81
485.325	1.81
485.526	1.81
485.728	1.87
485.929	1.87
486.131	1.91
486.332	1.96
486.534	1.85
486.735	1.82
486.936	1.81
487.138	1.86
487.339	1.89
487.541	1.83
487.742	1.75
487.943	1.69
488.144	1.74
488.346	1.68
488.547	1.69
488.748	1.77
488.95	1.77
489.151	1.78
489.352	1.77
489.553	1.8
489.755	1.88
489.956	1.93
490.157	1.9
490.358	1.8
490.559	1.85
490.76	1.8
490.961	1.78
491.163	1.68
491.364	1.64
491.565	1.58
491.766	1.54
491.967	1.48
492.168	1.48
492.369	1.51
492.57	1.61
492.771	1.57
492.972	1.52
493.173	1.45
493.374	1.58
493.575	1.55
493.776	1.67
493.976	1.66
494.177	1.73
494.378	1.72
494.579	1.68
494.78	1.46
494.981	1.63
495.182	1.65
495.382	1.74
495.583	1.75
495.784	1.82
495.985	1.71
496.185	1.77
496.386	1.81
496.587	1.84
496.788	1.84
496.988	1.92
497.189	1.76
497.39	1.6
497.59	1.61
497.791	1.59
497.992	1.64
498.192	1.75
498.393	1.89
498.593	1.66
498.794	1.55
498.994	1.59
499.195	1.63
499.395	1.74
499.596	1.94
499.796	1.88
499.997	1.85
500.197	1.73
500.398	1.85
500.598	1.7
500.799	1.82
500.999	2.02
501.199	2.03
501.4	1.9
501.6	1.92
501.801	2.01
502.001	1.99
502.201	1.93
502.402	1.95
502.602	1.84
502.802	2
503.002	2.02
503.203	1.91
503.403	2.08
503.603	2.08
503.803	1.99
504.003	1.94
504.204	2.01
504.404	2.01
504.604	2.1
504.804	2.04
505.004	1.87
505.204	1.81
505.404	1.7
505.604	1.49
505.804	1.59
506.005	1.49
506.205	1.42
506.405	1.51
506.605	1.41
506.805	1.51
507.005	1.57
507.204	1.66
507.404	1.73
507.604	1.96
507.804	1.96
508.004	1.89
508.204	1.91
508.404	2.04
508.604	1.97
508.804	2.27
509.003	2.05
509.203	1.91
509.403	1.88
509.603	1.94
509.803	1.87
510.002	1.91
510.202	2.08
510.402	2.28
510.602	2.26
510.801	2.17
511.001	2.06
511.201	2.1
511.4	2.26
511.6	2.2
511.8	2.06
511.999	2.15
512.199	2.09
512.398	1.88
512.598	1.66
512.797	1.5
512.997	1.5
513.197	1.51
513.396	1.64
513.596	1.56
513.795	1.45
513.994	1.53
514.194	1.51
514.393	1.6
514.593	1.76
514.792	1.74
514.992	1.95
515.191	2.09
515.39	2.04
515.59	1.94
515.789	1.95
515.988	2.01
516.188	1.98
516.387	1.86
516.586	1.79
516.786	1.72
516.985	1.97
517.184	1.8
517.383	1.69
517.582	1.75
517.782	1.82
517.981	1.92
518.18	1.98
518.379	2.04
518.578	2.02
518.777	2.13
518.976	2.16
519.176	2.06
519.375	2.13
519.574	2.2
519.773	2.1
519.972	2.05
520.171	2.01
520.37	2.03
520.569	2.04
520.768	2.13
520.967	2.03
521.166	1.94
521.365	1.85
521.564	2.03
521.762	2.08
521.961	2.17
522.16	2.29
522.359	2.43
522.558	2.58
522.757	2.55
522.956	2.48
523.154	2.45
523.353	2.54
523.552	2.64
523.751	2.4
523.949	2.45
524.148	2.39
524.347	2.27
524.546	2.11
524.744	1.9
524.943	1.87
525.142	1.88
525.34	1.96
525.539	1.98
525.737	1.96
525.936	2.06
526.135	1.9
526.333	1.99
526.532	1.94
526.73	2.03
526.929	2.15
527.127	2.11
527.326	2.21
527.524	2.23
527.723	2.19
527.921	2.24
528.12	2.19
528.318	2.28
528.516	2.29
528.715	2.38
528.913	2.37
529.112	2.37
529.31	2.45
529.508	2.36
529.707	2.37
529.905	2.4
530.103	2.37
530.301	2.39
530.5	2.36
530.698	2.29
530.896	2.31
531.094	2.21
531.293	2.22
531.491	2.19
531.689	2.26
531.887	2.29
532.085	2.29
532.283	2.27
532.481	2.32
532.68	2.32
532.878	2.36
533.076	2.29
533.274	2.36
533.472	2.3
533.67	2.33
533.868	2.39
534.066	2.47
534.264	2.45
534.462	2.49
534.66	2.51
534.858	2.56
535.056	2.6
535.253	2.71
535.451	2.67
535.649	2.79
535.847	2.75
536.045	2.66
536.243	2.61
536.441	2.74
536.638	2.78
536.836	2.79
537.034	2.65
537.232	2.75
537.43	2.72
537.627	2.84
537.825	2.79
538.023	2.83
538.22	2.89
538.418	2.88
538.616	2.96
538.813	2.93
539.011	2.91
539.209	3.23
539.406	3.08
539.604	2.93
539.801	2.83
539.999	2.77
540.196	2.9
540.394	3.08
540.591	3.11
540.789	3.03
540.986	3.1
541.184	3.07
541.381	2.91
541.579	2.93
541.776	3.09
541.974	3.2
542.171	3.21
542.368	3.12
542.566	3.08
542.763	3.02
542.96	3.02
543.158	3.03
543.355	3.1
543.552	3.27
543.75	3.34
543.947	3.26
544.144	3.12
544.341	3.19
544.539	3.26
544.736	3.13
544.933	3.23
545.13	3.24
545.327	3.12
545.524	3.14
545.722	3.06
545.919	3.04
546.116	3.23
546.313	3.38
546.51	3.37
546.707	3.35
546.904	3.4
547.101	3.41
547.298	3.45
547.495	3.54
547.692	3.65
547.889	3.73
548.086	3.82
548.283	3.73
548.48	3.82
548.677	3.95
548.874	4.05
549.07	4.22
549.267	4.23
549.464	4.36
549.661	4.36
549.858	4.46
550.055	4.36
550.251	4.32
550.448	4.39
550.645	4.19
550.842	4.3
551.038	4.34
551.235	4.27
551.432	4.36
551.628	4.25
551.825	4.46
552.022	4.29
552.218	4.36
552.415	4.3
552.612	4.33
552.808	4.61
553.005	4.56
553.201	4.46
553.398	4.51
553.594	4.58
553.791	4.66
553.987	4.67
554.184	4.8
554.38	4.84
554.577	4.96
554.773	4.99
554.97	4.96
555.166	5.05
555.362	5.11
555.559	5.11
555.755	5.07
555.952	5.17
556.148	5.09
556.344	4.84
556.541	4.92
556.737	5.06
556.933	5.08
557.129	5.16
557.326	5.22
557.522	5.35
557.718	5.36
557.914	5.48
558.11	5.45
558.307	5.6
558.503	5.76
558.699	5.76
558.895	5.48
559.091	5.47
559.287	5.5
559.483	5.26
559.679	5.01
559.876	5.27
560.072	5.21
560.268	5.41
560.464	5.42
560.66	5.37
560.856	5.27
561.052	5.67
561.247	5.55
561.443	5.47
561.639	5.66
561.835	6.13
562.031	5.94
562.227	5.82
562.423	5.76
562.619	5.74
562.815	5.95
563.01	6.01
563.206	6.02
563.402	6.29
563.598	6.29
563.793	6.43
563.989	6.46
564.185	6.56
564.381	6.64
564.576	6.64
564.772	6.7
564.968	6.91
565.163	7.18
565.359	7.24
565.555	7.31
565.75	7.42
565.946	7.47
566.141	7.37
566.337	7.33
566.532	7.5
566.728	7.66
566.923	7.63
567.119	7.65
567.314	7.55
567.51	7.44
567.705	7.38
567.901	7.43
568.096	7.31
568.292	7.29
568.487	7.31
568.682	7.12
568.878	6.99
569.073	7.09
569.268	7.16
569.464	7.32
569.659	7.64
569.854	7.51
570.05	7.42
570.245	7.49
570.44	7.65
570.635	7.75
570.831	7.83
571.026	7.99
571.221	7.98
571.416	7.87
571.611	7.68
571.806	7.6
572.002	7.69
572.197	7.8
572.392	7.98
572.587	7.88
572.782	8.02
572.977	8.15
573.172	7.88
573.367	8.05
573.562	8.05
573.757	8.14
573.952	8.03
574.147	8.07
574.342	8.25
574.537	8.1
574.732	8.24
574.927	8.08
575.121	8.22
575.316	8.43
575.511	8.26
575.706	8.34
575.901	8.59
576.096	8.93
576.29	8.99
576.485	8.8
576.68	8.83
576.875	8.69
577.069	8.8
577.264	8.82
577.459	8.83
577.654	8.74
577.848	8.51
578.043	8.33
578.238	8.11
578.432	8.18
578.627	8.25
578.821	8.28
579.016	8.51
579.21	8.4
579.405	8.29
579.6	8.36
579.794	8.63
579.989	8.81
580.183	8.49
580.378	8.6
580.572	8.52
580.766	8.74
580.961	8.86
581.155	8.81
581.35	8.74
581.544	8.56
581.738	8.38
581.933	8.14
582.127	8.15
582.321	8.61
582.516	8.38
582.71	8.45
582.904	8.04
583.099	8.04
583.293	8.1
583.487	8.34
583.681	8.46
583.875	8.7
584.07	8.98
584.264	9.01
584.458	8.77
584.652	8.96
584.846	8.83
585.04	8.94
585.234	8.93
585.428	8.86
585.623	8.97
585.817	9.25
586.011	9.08
586.205	8.93
586.399	9.05
586.593	9.2
586.787	9.12
586.981	9.15
587.174	9.2
587.368	9.12
587.562	9.41
587.756	9.19
587.95	8.82
588.144	8.98
588.338	9.13
588.532	9.31
588.725	9.19
588.919	9.1
589.113	9.02
589.307	9.06
589.501	8.98
589.694	8.84
589.888	9.02
590.082	9.35
590.275	9.14
590.469	9.24
590.663	8.9
590.856	9.11
591.05	9.16
591.244	9.24
591.437	9.23
591.631	9.49
591.824	9.14
592.018	8.87
592.212	8.85
592.405	9.17
592.599	9.04
592.792	9.37
592.986	9.16
593.179	9.27
593.372	9.36
593.566	9.47
593.759	9.45
593.953	9.74
594.146	9.83
594.339	9.69
594.533	9.6
594.726	9.43
594.92	9.56
595.113	9.74
595.306	9.82
595.499	9.98
595.693	10.01
595.886	9.99
596.079	9.95
596.272	10.09
596.466	10.33
596.659	10.25
596.852	10.4
597.045	10.13
597.238	10.12
597.431	10
597.624	9.9
597.818	9.91
598.011	9.74
598.204	9.66
598.397	9.69
598.59	9.49
598.783	9.56
598.976	9.44
599.169	9.23
599.362	9.13
599.555	9.16
599.748	9.05
599.941	9.12
600.134	9.21
600.326	9.38
600.519	9.34
600.712	8.98
600.905	8.92
601.098	8.77
601.291	8.84
601.483	9.16
601.676	9.22
601.869	9.36
602.062	9.28
602.255	9.33
602.447	9.29
602.64	9.19
602.833	9.48
603.025	9.6
603.218	9.77
603.411	9.8
603.603	9.56
603.796	9.42
603.989	9.51
604.181	9.23
604.374	9.17
604.566	9.24
604.759	9.38
604.951	9.43
605.144	9.38
605.336	9.55
605.529	9.89
605.721	9.85
605.914	10.04
606.106	9.99
606.299	10.33
606.491	10.48
606.683	10.45
606.876	10.24
607.068	10.31
607.26	10.37
607.453	10.29
607.645	9.88
607.837	9.95
608.03	9.88
608.222	9.75
608.414	9.47
608.606	9.6
608.799	9.47
608.991	9.49
609.183	9.62
609.375	9.36
609.567	9.25
609.759	9.21
609.952	9.25
610.144	9.22
610.336	8.91
610.528	8.79
610.72	8.56
610.912	8.54
611.104	8.38
611.296	8.05
611.488	8.21
611.68	8.12
611.872	7.98
612.064	7.91
612.256	7.92
612.448	8.28
612.64	8.57
612.832	8.62
613.023	8.61
613.215	8.79
613.407	8.97
613.599	8.92
613.791	9.12
613.983	9.41
614.174	9.57
614.366	9.41
614.558	9.55
614.75	9.58
614.941	9.63
615.133	9.64
615.325	9.86
615.516	9.37
615.708	9.62
615.9	9.17
616.091	9.14
616.283	9.02
616.475	9.31
616.666	9.15
616.858	9.21
617.049	9.58
617.241	9.94
617.432	9.61
617.624	10.06
617.815	10.01
618.007	10.43
618.198	10.59
618.39	10.87
618.581	10.76
618.773	10.81
618.964	10.52
619.155	10.26
619.347	10.05
619.538	10.3
619.729	10.28
619.921	10.31
620.112	10.55
620.303	10.36
620.494	10.1
620.686	10.07
620.877	10.07
621.068	10.42
621.259	10.17
621.451	10.04
621.642	9.97
621.833	9.9
622.024	9.57
622.215	8.84
622.406	8.91
622.597	8.9
622.788	8.88
622.98	8.84
623.171	8.58
623.362	8.71
623.553	8.98
623.744	9.34
623.935	9.58
624.126	9.77
624.317	9.98
624.508	10.12
624.698	10.28
624.889	10.35
625.08	10.49
625.271	10.23
625.462	10.42
625.653	10.43
625.844	10.34
626.034	10.07
626.225	9.93
626.416	9.95
626.607	9.82
626.798	9.82
626.988	9.74
627.179	9.65
627.37	10.13
627.56	10
627.751	9.95
627.942	9.76
628.132	9.88
628.323	9.76
628.514	9.74
628.704	9.85
628.895	9.9
629.085	10.04
629.276	10.24
629.466	10.06
629.657	9.96
629.847	9.97
630.038	10.04
630.228	10.15
630.419	10.55
630.609	10.7
630.8	10.71
630.99	10.5
631.181	10.4
631.371	10.37
631.561	10.04
631.752	10.16
631.942	10.05
632.132	9.77
632.323	9.53
632.513	9.43
632.703	9.43
632.893	9.04
633.084	9.2
633.274	9.27
633.464	9.14
633.654	9.49
633.844	9.32
634.034	9.45
634.225	9.62
634.415	9.71
634.605	9.81
634.795	10.05
634.985	10.2
635.175	9.94
635.365	9.91
635.555	10.05
635.745	9.82
635.935	10.19
636.125	10.14
636.315	10.06
636.505	9.95
636.695	9.68
636.885	9.25
637.075	9.19
637.265	9.76
637.455	9.75
637.644	9.87
637.834	10.33
638.024	10.22
638.214	10.05
638.404	10.46
638.593	10.84
638.783	10.74
638.973	11.16
639.163	11.6
639.352	11.07
639.542	10.9
639.732	10.68
639.921	10.76
640.111	10.56
640.301	10.44
640.49	10.16
640.68	9.86
640.87	10.06
641.059	9.57
641.249	9.21
641.438	9.11
641.628	9.17
641.817	9.21
642.007	8.83
642.196	9.03
642.386	9.16
642.575	8.96
642.764	9.09
642.954	9.12
643.143	9.36
643.333	9.54
643.522	9.95
643.711	10.35
643.901	10.48
644.09	10.63
644.279	10.46
644.469	10.98
644.658	11.35
644.847	11.29
645.036	11.57
645.226	11.9
645.415	11.76
645.604	11.85
645.793	11.16
645.982	10.86
646.171	10.8
646.361	10.74
646.55	10.62
646.739	10.7
646.928	10.63
647.117	10.74
647.306	10.72
647.495	10.7
647.684	10.6
647.873	10.91
648.062	11.29
648.251	11.64
648.44	11.8
648.629	11.95
648.818	11.35
649.007	11.38
649.196	11.02
649.384	10.69
649.573	10.66
649.762	10.56
649.951	10.62
650.14	10.54
650.328	10.34
650.517	9.96
650.706	9.44
650.895	9.99
651.083	10.17
651.272	10.12
651.461	10.21
651.65	10.38
651.838	10.14
652.027	9.81
652.216	9.32
652.404	9.13
652.593	9.23
652.781	9.22
652.97	9.3
653.158	9.23
653.347	9.28
653.535	9.54
653.724	9.35
653.912	9.61
654.101	9.7
654.289	9.97
654.478	9.88
654.666	10.1
654.855	9.9
655.043	9.36
655.231	9.47
655.42	9.39
655.608	9.25
655.796	9.46
655.985	9.43
656.173	9.76
656.361	9.61
656.55	9.84
656.738	10.12
656.926	10.47
657.114	10.47
657.302	10
657.491	10.05
657.679	10.15
657.867	10.14
658.055	9.99
658.243	10.28
658.431	10.47
658.619	10.31
658.807	9.93
658.996	9.63
659.184	9.7
659.372	9.95
659.56	9.96
659.748	9.62
659.936	9.58
660.124	9.44
660.311	9.02
660.499	8.89
660.687	8.97
660.875	9.17
661.063	8.94
661.251	9.22
661.439	9.13
661.627	8.89
661.814	9.08
662.002	8.86
662.19	9.19
662.378	9.34
662.565	9.3
662.753	9.45
662.941	9.23
663.129	9.93
663.316	9.96
663.504	9.77
663.692	9.95
663.879	10.2
664.067	10.37
664.254	10.54
664.442	10.63
664.63	10.9
664.817	10.99
665.005	11.14
665.192	10.99
665.38	10.91
665.567	11.32
665.755	11.37
665.942	10.87
666.13	10.67
666.317	10.57
666.504	10.72
666.692	10.23
666.879	9.83
667.067	9.42
667.254	9.34
667.441	9.33
667.629	8.98
667.816	8.86
668.003	8.93
668.19	9.33
668.378	9.33
668.565	8.82
668.752	9.05
668.939	9.29
669.127	9.9
669.314	10.12
669.501	10.07
669.688	9.91
669.875	9.92
670.062	9.97
670.249	9.75
670.436	9.28
670.623	9.68
670.81	9.56
670.997	9.53
671.184	9.09
671.371	9.11
671.558	8.58
671.745	8.37
671.932	8.37
672.119	8.69
672.306	8.73
672.493	9.12
672.68	9.04
672.867	9.24
673.054	8.85
673.24	9.37
673.427	9.71
673.614	10.27
673.801	10.69
673.988	10.72
674.174	10.26
674.361	9.82
674.548	10.23
674.734	10.74
674.921	10.77
675.108	10.82
675.294	10.41
675.481	10
675.668	10.08
675.854	10.27
676.041	10.58
676.227	11.17
676.414	11.8
676.601	11.75
676.787	10.96
676.974	10.71
677.16	10.79
677.347	10.87
677.533	10.85
677.719	10.54
677.906	10.26
678.092	10.42
678.279	10.05
678.465	9.98
678.651	9.63
678.838	9.72
679.024	9.82
679.21	9.96
679.397	10.03
679.583	10.27
679.769	10.39
679.955	10.71
680.142	10.39
680.328	10.52
680.514	10.58
680.7	10.68
680.886	10.88
681.073	10.96
681.259	10.98
681.445	11.26
681.631	10.91
681.817	11.07
682.003	11.37
682.189	11.26
682.375	11.38
682.561	11.34
682.747	11.49
682.933	11.66
683.119	11.82
683.305	11.76
683.491	11.43
683.677	11.51
683.863	11.09
684.049	11.03
684.235	11.47
684.42	11.37
684.606	11.54
684.792	11.25
684.978	10.77
685.164	10.91
685.349	10.84
685.535	10.72
685.721	10.08
685.907	10.6
686.092	10.15
686.278	10.42
686.464	9.63
686.649	9.44
686.835	9.54
687.021	10
687.206	9.39
687.392	9.42
687.577	9.45
687.763	9.76
687.948	9.83
688.134	9.57
688.319	9.14
688.505	9.98
688.69	9.61
688.876	9.61
689.061	8.99
689.247	9.29
689.432	9.23
689.618	8.96
689.803	9.38
689.988	8.83
690.174	9.16
690.359	9.1
690.544	9.3
690.73	9.4
690.915	9.5
691.1	9.79
691.285	9.63
691.471	9.84
691.656	10.42
691.841	10.6
692.026	10.76
692.211	10.84
692.396	10.5
692.582	9.95
692.767	9.78
692.952	9.7
693.137	9.5
693.322	9.88
693.507	9.75
693.692	9.71
693.877	10.48
694.062	10.06
694.247	9.67
694.432	10.2
694.617	10.32
694.802	10.53
694.987	10.53
695.172	11.18
695.357	10.76
695.541	11.27
695.726	11.03
695.911	10.07
696.096	10.71
696.281	11.11
696.466	11.3
696.65	11.5
696.835	11.29
697.02	11.21
697.204	10.59
697.389	11.05
697.574	10.52
697.759	11.1
697.943	11.57
698.128	11.48
698.312	11.26
698.497	10.74
698.682	10.73
698.866	11.24
699.051	10.94
699.235	11.34
699.42	10.98
699.604	11.33
699.789	10.76
699.973	10.45
700.158	10.32
700.342	10.42
700.527	10.54
700.711	10.52
700.895	10.37
701.08	10.93
701.264	10.76
701.448	11.52
701.633	11.03
701.817	11.45
702.001	11.19
702.186	11.06
702.37	11.47
702.554	11.99
702.738	11.96
702.923	12.17
703.107	11.78
703.291	11.72
703.475	10.94
703.659	11.3
703.843	10.99
704.027	10.51
704.212	10.79
704.396	10.48
704.58	10.27
704.764	10.15
704.948	9.57
705.132	9.54
705.316	9.74
705.5	9.97
705.684	9.39
705.868	9.29
706.052	9.44
706.235	9.11
706.419	8.66
706.603	8.86
706.787	9.22
706.971	8.87
707.155	9.68
707.339	9.67
707.522	9.58
707.706	9.63
707.89	9.97
708.074	10.34
708.257	10.39
708.441	10.52
708.625	10.25
708.808	9.99
708.992	11.04
709.176	10.63
709.359	10.61
709.543	10.49
709.727	10.82
709.91	10.62
710.094	9.78
710.277	10.15
710.461	10.68
710.644	10.3
710.828	9.63
711.011	8.98
711.195	8.72
711.378	8.94
711.562	9.43
711.745	9.32
711.928	8.98
712.112	9.81
712.295	9.68
712.478	9.26
712.662	10.78
712.845	11.22
713.028	11.65
713.212	12.09
713.395	11.93
713.578	11.99
713.761	11.95
713.945	12.46
714.128	12.46
714.311	12.48
714.494	11.96
714.677	11.36
714.86	11.71
715.043	12.3
715.227	11.96
715.41	12.01
715.593	11.62
715.776	11.79
715.959	11.69
716.142	11.71
716.325	11.61
716.508	12.86
716.691	11.77
716.874	12.09
717.057	11.66
717.239	11.55
717.422	11.43
717.605	11.13
717.788	11.47
717.971	11.51
718.154	11.67
718.337	12.32
718.519	11.55
718.702	12.98
718.885	13.21
719.068	12.93
719.25	13.56
719.433	13.16
719.616	12.81
719.798	12.82
719.981	12.56
720.164	12.7
720.346	12.2
720.529	11.71
720.712	10.75
720.894	9.99
721.077	9.73
721.259	9.9
721.442	10.5
721.624	11.19
721.807	10.7
721.989	10.9
722.172	10.49
722.354	10.5
722.537	11.2
722.719	11.7
722.901	11.92
723.084	11.77
723.266	11.19
723.448	9.7
723.631	10.37
723.813	10.57
723.995	11.54
724.178	11.41
724.36	10.98
724.542	10.74
724.724	11.18
724.907	11.47
725.089	11.41
725.271	11.64
725.453	13.48
725.635	12.5
725.817	11.86
725.999	10.63
726.181	9.91
726.364	10.24
726.546	11.12
726.728	10.87
726.91	10.05
727.092	10.5
727.274	10.77
727.456	9.98
727.638	10.72
727.819	11.17
728.001	12.23
728.183	12.69
728.365	13.4
728.547	12.42
728.729	11.03
728.911	10.59
729.093	10.24
729.274	9.22
729.456	9.72
729.638	8.68
729.82	8.76
730.001	7.59
730.183	8.19
730.365	6.75
730.546	6.88
730.728	7.68
730.91	9.34
731.091	9.04
731.273	9.8
731.455	10.23
731.636	10.25
731.818	10.08
731.999	10.43
732.181	9.97
732.362	10.92
732.544	11.26
732.725	11.58
732.907	10.69
733.088	11.37
733.27	11.82
733.451	10.82
733.633	11.54
733.814	10.74
733.995	10.83
734.177	12.82
734.358	13.28
734.539	13.31
734.721	12.72
734.902	12.86
735.083	13.54
735.264	11.82
735.446	11.93
735.627	11.04
735.808	12.34
735.989	11.84
736.17	10.72
736.351	9.44
736.533	9.26
736.714	9.72
736.895	9.33
737.076	7.85
737.257	8.89
737.438	10.02
737.619	12.42
737.8	12.4
737.981	13.5
738.162	12.51
738.343	13.06
738.524	12.98
738.705	12.34
738.886	12.4
739.067	12.39
739.247	11.53
739.428	10.4
739.609	9.01
739.79	9.17
739.971	9.47
740.151	10.34
740.332	9.19
740.513	9.86
740.694	10.82
740.874	11.21
741.055	10.83
741.236	10.78
741.417	11.03
741.597	10.75
741.778	11.08
741.958	10.36
742.139	9.07
742.32	10.4
742.5	9.17
742.681	8.12
742.861	8.06
743.042	8.43
743.222	9.4
743.403	9.72
743.583	9.56
743.764	8.8
743.944	9.25
744.124	9.41
744.305	9.65
744.485	10.38
744.666	9.32
744.846	8.79
745.026	9.67
745.207	9.83
745.387	9.94
745.567	11.75
745.747	12.47
745.928	11.28
746.108	12.13
746.288	12.79
746.468	12.47
746.648	14.22
746.829	14.34
747.009	14.91
747.189	14.13
747.369	13.68
747.549	12.71
747.729	12.96
747.909	12.58
748.089	11.05
748.269	10.62
748.449	11.59
748.629	11.96
748.809	12.34
748.989	11.7
749.169	11.55
749.349	12.71
749.529	11.37
749.709	10.66
749.889	11.9
750.068	13.51
750.248	12.97
750.428	12.53
750.608	11.92
750.788	11.68
750.967	11.02
751.147	11.81
751.327	11.92
751.507	11.32
751.686	11.62
751.866	10.08
752.046	9.89
752.225	9.65
752.405	9.45
752.585	9.08
752.764	8.39
752.944	7.61
753.123	7.12
753.303	5.28
753.482	7.51
753.662	7.29
753.841	8.14
754.021	7.09
754.2	6.1
754.38	5.1
754.559	7.43
754.739	8.97
754.918	10.06
755.097	10.76
755.277	11.04
755.456	10.17
755.635	8.59
755.815	8.4
755.994	10
756.173	10.38
756.352	10.13
756.532	8.53
756.711	7.44
756.89	7.6
757.069	7.68
757.248	7.74
757.427	7.94
757.607	9.86
757.786	9.86
757.965	10.21
758.144	10.22
758.323	9.87
758.502	8.66
758.681	9.14
758.86	9.6
759.039	9.73
759.218	10.36
759.397	10.34
759.576	9.06
759.755	9.64
759.934	9.21
760.113	11.32
760.291	11.66
760.47	14.39
760.649	14.93
760.828	14.83
761.007	13.43
761.186	13.96
761.364	13.87
761.543	14.88
761.722	14.86
761.901	13.37
762.079	12.97
762.258	13.66
762.437	12.42
762.615	12.86
762.794	12.15
762.972	13.38
763.151	12.84
763.33	12.62
763.508	12.23
763.687	12.63
763.865	13.23
764.044	12.48
764.222	12.13
764.401	12.02
764.579	10.34
764.758	10.88
764.936	10.9
765.114	11.62
765.293	12.23
765.471	12.91
765.65	12.89
765.828	12.66
766.006	13.06
766.184	14.31
766.363	15.16
766.541	14.85
766.719	14.45
766.898	14.66
767.076	14.32
767.254	14.3
767.432	14.6
767.61	13.95
767.788	14
767.967	13.48
768.145	12.94
768.323	11.23
768.501	12.46
768.679	12.8
768.857	11.86
769.035	11.96
769.213	11.27
769.391	10.82
769.569	9.94
769.747	10.71
769.925	11.55
770.103	11.2
770.281	13.84
770.459	14.37
770.636	14.31
770.814	14.54
770.992	13.82
771.17	14.03
771.348	14.32
771.525	15.7
771.703	14.73
771.881	14
772.059	14.85
772.236	12.17
772.414	11.87
772.592	13.61
772.769	11.97
772.947	11.94
773.125	13.12
773.302	13.05
773.48	12.65
773.657	14.48
773.835	14.91
774.013	14.02
774.19	16.32
774.368	16.65
774.545	14.85
774.723	15.74
774.9	17.69
775.077	18.61
775.255	17.12
775.432	16.38
775.61	13.82
775.787	14.77
775.964	16.23
776.142	15.28
776.319	15.25
776.496	14.7
776.674	14.1
776.851	10.28
777.028	7.82
777.205	8.4
777.382	10
777.56	12.25
777.737	11.79
777.914	8.59
778.091	7.37
778.268	7.8
778.445	8.87
778.622	11.6
778.8	14.68
778.977	15.9
779.154	14.97
779.331	13.36
779.508	14.57
779.685	13.84
779.862	16.2
780.038	17.31
780.215	16.52
780.392	16.7
780.569	13.42
780.746	12.35
780.923	12.84
781.1	13.56
781.277	15.43
781.453	14.5
781.63	16.2
781.807	15.22
781.984	15.95
782.16	16.48
782.337	15.82
782.514	19
782.691	17.11
782.867	17.48
783.044	18.56
783.221	18.83
783.397	19.22
783.574	18.16
783.75	18.21
783.927	19.54
784.103	19.21
784.28	18.02
784.456	19.84
784.633	22.34
784.809	22.12
784.986	20.99
785.162	19.05
785.339	15.89
785.515	16.55
785.692	16.89
785.868	13.59
786.044	16.06
786.221	15.51
786.397	11.93
786.573	11.7
786.749	10.56
786.926	10.16
787.102	11.79
787.278	13.87
787.454	12.39
787.631	11.63
787.807	13.24
787.983	11.05
788.159	13.24
788.335	11.9
788.511	11.35
788.687	11.31
788.863	11.71
789.039	10.89
789.216	11.44
789.392	12.73
789.568	14.76
789.744	17.96
789.919	17.67
790.095	17.39
790.271	19.72
790.447	20.52
790.623	19.34
790.799	21.16
790.975	21.36
791.151	21.49
791.327	18.73
791.502	15.82
791.678	11.12
791.854	10.96
792.03	13.05
792.205	14.7
792.381	13.59
792.557	13.75
792.733	12.6
792.908	12.06
793.084	9.22
793.259	11.44
793.435	14.8
793.611	13.23
793.786	14.08
793.962	10.76
794.137	6.68
794.313	7.75
794.488	4.38
794.664	4.57
794.839	2.77
795.015	4.14
795.19	4.28
795.366	2.49
795.541	2.1
795.716	1.7
795.892	4.59
796.067	3.86
796.242	3.64
796.418	6.76
796.593	5.3
796.768	8.8
796.944	12.45
797.119	11.06
797.294	13.13
797.469	14.97
797.644	14.15
797.82	12.74
797.995	17.04
798.17	16.83
798.345	17.26
798.52	17.93
798.695	18.02
798.87	14.37
799.045	15.85
799.22	14.02
799.395	14.97
799.57	17.2
799.745	18.39
799.92	16.79
800.095	17.88
800.27	16.85
800.445	14.72
800.62	12.61
800.795	11.12
800.97	10.4
801.145	12.04
801.319	11.73
801.494	10.94
801.669	10.84
801.844	9.31
802.018	7.78
802.193	5.41
802.368	7.8
802.543	9.38
802.717	12.81
802.892	10.87
803.067	9.26
803.241	11.18
803.416	9.29
803.59	6.44
803.765	6.59
803.94	9.52
804.114	16.07
804.289	15.21
804.463	14.44
804.638	12.5
804.812	13.57
804.986	16.31
805.161	15.27
805.335	19.53
805.51	23.1
805.684	26.11
805.858	25.02
806.033	22.84
806.207	22.47
806.381	23.11
806.556	21.17
806.73	21.02
806.904	19.24
807.078	15.79
807.253	14.27
807.427	9.62
807.601	9.26
807.775	8.11
807.949	7.76
808.123	9.84
808.298	8.46
808.472	8.61
808.646	7.65
808.82	8.26
808.994	11.73
809.168	10.43
809.342	11.65
809.516	11.89
809.69	13.13
809.864	14.01
810.038	10.82
810.212	8.91
810.385	10.96
810.559	13.01
810.733	16.37
810.907	15.98
811.081	16.47
811.255	15.69
811.428	14.54
811.602	11.96
811.776	13.01
811.95	13.53
812.123	14.98
812.297	14.25
812.471	11.99
812.644	8.92
812.818	7.16
812.992	3.24
813.165	5.38
813.339	2.09
813.512	0.52
813.686	-4.57
813.86	-5.05
814.033	-7.7
814.207	-8.35
814.38	-1.4
814.554	-3.92
814.727	-3.21
814.9	0.79
815.074	7.53
815.247	9.95
815.421	16.16
815.594	19.01
815.767	19.17
815.941	20
816.114	22.76
816.287	24.44
816.46	28.15
816.634	27.91
816.807	27.61
816.98	24.27
817.153	24.42
817.327	19.39
817.5	18.74
817.673	18.42
817.846	19.11
818.019	16.84
818.192	11.5
818.365	7.05
818.538	9.41
818.711	8.33
818.884	6.31
819.057	5.82
819.23	7.81
819.403	5.51
819.576	6.23
819.749	5.82
819.922	8.12
820.095	11.3
820.268	10.54
820.441	8.23
820.614	8.26
820.786	6.94
820.959	9.48
821.132	11.23
821.305	13.76
821.477	14.49
821.65	15.31
821.823	14.41
821.996	14.34
822.168	15.07
822.341	15.69
822.514	15.03
822.686	15.38
822.859	15.17
823.031	14.73
823.204	14.45
823.376	14.94
823.549	15.83
823.722	16.21
823.894	15.98
824.067	15.67
824.239	15.71
824.411	16.44
824.584	16.14
824.756	15.55
824.929	16.25
825.101	16.43
825.273	15.26
825.446	13.25
825.618	13.79
825.79	15.77
825.963	16.28
826.135	16.05
826.307	16.69
826.479	17.98
826.652	17.56
826.824	16.38
826.996	16.43
827.168	16.89
827.34	17.91
827.512	16.86
827.684	15.2
827.856	15.02
828.029	15.49
828.201	15.07
828.373	14.8
828.545	15.67
828.717	17.06
828.889	15.98
829.061	16.43
829.232	15.24
829.404	15.16
829.576	14.86
829.748	14.86
829.92	14.29
830.092	13.42
830.264	11.78
830.436	10.01
830.607	10
830.779	9.47
830.951	10.56
831.123	9.53
831.294	8.81
831.466	7.75
831.638	6.53
831.809	6.07
831.981	5.06
832.153	9.89
832.324	8.25
832.496	5.66
832.667	6.72
832.839	5.04
833.011	4.45
833.182	4.5
833.354	3.67
833.525	6.73
833.697	5.5
833.868	4.22
834.039	2.96
834.211	6.88
834.382	6.76
834.554	9.88
834.725	9.91
834.896	13.13
835.068	11.16
835.239	11.34
835.41	10.44
835.581	10.92
835.753	12.6
835.924	14.27
836.095	12
836.266	11.48
836.438	8.03
836.609	8.58
836.78	5.3
836.951	6.72
837.122	8.18
837.293	8.81
837.464	13.15
837.635	14.86
837.806	12.03
837.977	11.78
838.148	13.73
838.319	15.62
838.49	13.38
838.661	12.05
838.832	18.24
839.003	20.89
839.174	18.68
839.345	18.96
839.516	16.2
839.687	17.33
839.857	19.91
840.028	29.08
840.199	27.74
840.37	29.23
840.54	33.49
840.711	32.31
840.882	28.79
841.053	29.75
841.223	21.52
841.394	26.41
841.564	24.78
841.735	25.74
841.906	17.45
842.076	19.83
842.247	18.99
842.417	18.1
842.588	16.38
842.758	19.6
842.929	22.58
843.099	30.55
843.27	24.26
843.44	27.78
843.611	28.54
843.781	18.33
843.951	14.12
844.122	8.82
844.292	11.19
844.462	17.21
844.633	8.26
844.803	-8.05
844.973	-8.85
845.144	-16.16
845.314	-19.11
845.484	-10.06
845.654	9.68
845.824	16.96
845.995	25.41
846.165	28.32
846.335	20.5
846.505	26.44
846.675	30.67
846.845	19.3
847.015	30.18
847.185	25.85
847.355	15.17
847.525	19.06
847.695	2.71
847.865	3.53
848.035	7.56
848.205	10.91
848.375	14.91
848.545	27.27
848.715	25.13
848.884	15.89
849.054	22.32
849.224	28.15
849.394	20.95
849.564	28.12
849.733	20.96
849.903	10.02
850.073	20.63
850.243	14.08
850.412	9.38
850.582	13.52
850.752	17.3
850.921	16.33
851.091	13.84
851.26	5.18
851.43	2.75
851.599	-16.8
851.769	-23.44
851.939	-74.6
852.108	-62.19
852.278	-55.13
852.447	-67.53
852.616	-67.57
852.786	-88.22
852.955	-65.61
853.125	-65.86
853.294	-53.85
853.463	-18.53
853.633	-6.69
853.802	4.14
853.971	20.63
854.141	18.14
854.31	21.88
854.479	19.86
854.648	18.31
854.818	23.66
854.987	27.46
855.156	35.17
855.325	32.59
855.494	26.38
855.663	38.41
855.832	25.06
856.001	29.09
856.171	29.94
856.34	40.91
856.509	52.22
856.678	40.32
856.847	34.46
857.016	29.26
857.185	7.76
857.353	16.64
857.522	25.13
857.691	31.24
857.86	42.54
858.029	44.93
858.198	32.16
858.367	18.22
858.535	27.39
858.704	22.73
858.873	24.26
859.042	47.87
859.21	39.4
859.379	26.08
859.548	15.67
859.717	-6.34
859.885	2.03
860.054	8.1
860.222	4.44
860.391	2.73
860.56	-5.42
860.728	-9.45
860.897	-14.56
861.065	-6.91
861.234	-0.61
861.402	-9.54
861.571	-4.43
861.739	-1.78
861.908	-14.25
862.076	-0.45
862.244	-6.58
862.413	11.58
862.581	9.82
862.749	28.11
862.918	8.64
863.086	8.17
863.254	27.91
863.423	24.02
863.591	11.98
863.759	20.29
863.927	12.63
864.096	30.57
864.264	21.56
864.432	15.72
864.6	1.97
864.768	19.29
864.936	5.31
865.104	5.82
865.272	15.05
865.44	18.86
865.608	21.83
865.776	40.78
865.944	21.03
866.112	56.66
866.28	52.97
866.448	65.04
866.616	43.62
866.784	53.67
866.952	42.62
867.12	39.48
867.288	35.18
867.455	35.85
867.623	24.86
867.791	28.43
867.959	22.33
868.127	38.69
868.294	32.37
868.462	29.02
868.63	26.06
868.797	32.22
868.965	35.82
869.133	34.44
869.3	28.45
869.468	25.88
869.636	33.4
869.803	25.83
869.971	15.51
870.138	27.38
870.306	41.51
870.473	39.78
870.641	24.15
870.808	22.64
870.975	24.5
871.143	18.69
871.31	16.12
871.478	12.72
871.645	27.68
871.812	33.96
871.98	19.99
872.147	17.82
872.314	29.01
872.482	40.13
872.649	55.07
872.816	59.27
872.983	64.3
873.15	56.25
873.318	42.83
873.485	8.85
873.652	27.25
873.819	45.59
873.986	33.38
874.153	32.91
874.32	31.08
874.487	19.46
874.654	15.84
874.821	24.29
874.988	43.05
875.155	32.31
875.322	30.63
875.489	11.16
875.656	-81.92
875.823	-68.39
875.99	-95.59
876.157	-104.32
876.324	-66.62
876.49	-49.35
876.657	-52.18
876.824	-57.28
876.991	-23.1
877.157	-4.85
877.324	-8.45
877.491	5.46
877.658	1.26
877.824	6.14
877.991	35.32
878.157	49.42
878.324	43.71
878.491	48.16
878.657	42.45
878.824	13.25
878.99	-26.13
879.157	4.28
879.323	24.7
879.49	32.18
879.656	30.78
879.823	6.46
879.989	-10.38
880.156	4.24
880.322	-10.22
880.488	-2.61
880.655	-0.66
880.821	-1.14
880.987	-3.25
881.154	-3.98
881.32	6.76
881.486	5.15
881.652	7.34
881.819	10.66
881.985	6.85
882.151	15.15
882.317	14.67
882.483	15.67
882.649	18.71
882.816	20.54
882.982	22.4
883.148	22.5
883.314	22.75
883.48	25.53
883.646	22.97
883.812	24.19
883.978	22.18
884.144	23.3
884.31	24.63
884.476	24.55
884.642	19.18
884.807	16.38
884.973	12.54
885.139	17.72
885.305	16.85
885.471	17.89
885.637	13.77
885.802	14.7
885.968	10.94
886.134	8.08
886.3	8.58
886.465	11.89
886.631	12.31
886.797	16.16
886.962	11.79
887.128	10.41
887.293	8.39
887.459	20.16
887.625	20.54
887.79	31.22
887.956	37
888.121	39.32
888.287	48.67
888.452	52.89
888.618	52.32
888.783	58.6
