Data from 2938038_Reflection_3.txt Node
Date: Sun Jul 12 14:44:24 EDT 2015
User: robert
Spectrometer: USB4E03001
Autoset integration time: false
Trigger mode: 4
Integration Time (sec): 1.000000E-1
Scans to average: 10
Electric dark correction enabled: true
Nonlinearity correction enabled: false
Boxcar width: 5
Stray light correction enabled: false
XAxis mode: Wavelengths
Stop averaging: false
Number of Pixels in Spectrum: 3648
>>>>>Begin Spectral Data<<<<<
177.566	127.32
177.785	118.46
178.005	-142.67
178.225	-1.16
178.445	8.25
178.665	-3.79
178.885	-89.45
179.105	-232.56
179.324	96.91
179.544	-400.92
179.764	31.67
179.984	96.51
180.204	80.21
180.423	-11.55
180.643	65.91
180.863	42.42
181.083	12.06
181.302	2.23
181.522	45.55
181.742	54.8
181.961	49.62
182.181	-2.31
182.401	23.92
182.621	26.53
182.84	32.42
183.06	25.21
183.279	39.08
183.499	34.3
183.719	44.3
183.938	23.49
184.158	9.02
184.377	23.56
184.597	55.4
184.816	41.74
185.036	28.1
185.256	76.44
185.475	46.72
185.695	-17.9
185.914	73.88
186.134	70.09
186.353	78.36
186.572	76.21
186.792	16.94
187.011	46.78
187.231	36.62
187.45	87.59
187.67	2.41
187.889	71.4
188.108	125.06
188.328	90.71
188.547	135.91
188.766	97.45
188.986	121.39
189.205	118.45
189.424	99.76
189.644	185.82
189.863	92.3
190.082	93.67
190.302	54.11
190.521	46.91
190.74	29.83
190.959	5.79
191.178	-4.79
191.398	-20.9
191.617	-52.89
191.836	8.03
192.055	4.31
192.274	4.57
192.494	-8.54
192.713	19.3
192.932	25.21
193.151	26.01
193.37	23.86
193.589	37.53
193.808	22.92
194.027	50.51
194.246	43.61
194.465	47.6
194.685	41.41
194.904	33.89
195.123	24.77
195.342	28.4
195.561	33.18
195.78	41.45
195.999	75.03
196.218	88.4
196.436	134.04
196.655	378.93
196.874	297.25
197.093	122.73
197.312	117.07
197.531	112.71
197.75	97.45
197.969	102.66
198.188	102.23
198.407	90.08
198.625	85.42
198.844	92.86
199.063	32.07
199.282	70.98
199.501	80.41
199.719	86.54
199.938	82.47
200.157	66.47
200.376	82.67
200.594	99.58
200.813	77.41
201.032	81.05
201.251	73.85
201.469	82.12
201.688	64.3
201.907	45.73
202.125	-31.31
202.344	-879.28
202.563	18.21
202.781	49.51
203	60.66
203.218	82.42
203.437	65.03
203.656	50.86
203.874	104.28
204.093	96.95
204.311	132.8
204.53	192.58
204.748	234.02
204.967	296.89
205.185	170.11
205.404	123.89
205.622	105.5
205.841	67.78
206.059	65.08
206.278	21.51
206.496	32.81
206.715	39.64
206.933	-0.59
207.151	-17
207.37	28.96
207.588	13.22
207.806	41.72
208.025	22.33
208.243	34.88
208.461	55.97
208.68	46.59
208.898	62.51
209.116	35.3
209.335	40.58
209.553	74.73
209.771	106.66
209.989	223.49
210.208	384.93
210.426	392.05
210.644	215.91
210.862	518.67
211.081	265.49
211.299	162.18
211.517	129.86
211.735	168.56
211.953	154.31
212.171	125.87
212.39	92.05
212.608	71.53
212.826	97.96
213.044	111.77
213.262	74.7
213.48	82.03
213.698	83.83
213.916	82.18
214.134	79.23
214.352	71.99
214.57	53.05
214.788	29.33
215.006	7.77
215.224	2.85
215.442	8.6
215.66	7.48
215.878	-7.47
216.096	-2.03
216.314	7.62
216.532	5.04
216.75	14.33
216.968	15.09
217.185	30.43
217.403	33.22
217.621	44.19
217.839	41.91
218.057	56.04
218.275	51.9
218.492	40.98
218.71	36.06
218.928	27.1
219.146	22.5
219.363	39.54
219.581	49.39
219.799	66.6
220.017	51.99
220.234	60.15
220.452	48.44
220.67	54.76
220.887	48.51
221.105	41.32
221.323	40.75
221.54	46.1
221.758	37.61
221.976	28.62
222.193	19.3
222.411	14.11
222.629	18.82
222.846	36.23
223.064	15.19
223.281	29.59
223.499	44.63
223.716	50.02
223.934	51.01
224.151	55.62
224.369	29.41
224.586	42.59
224.804	41.88
225.021	22.69
225.239	-25.27
225.456	-2.38
225.674	-19.66
225.891	-27.46
226.108	-29.58
226.326	-7.85
226.543	-9.11
226.76	10.9
226.978	5.8
227.195	1.91
227.413	-0.03
227.63	4.61
227.847	7.94
228.064	7.21
228.282	9.17
228.499	9.39
228.716	6.92
228.934	8.38
229.151	4.9
229.368	1.95
229.585	4.83
229.802	5.99
230.02	8.6
230.237	7.42
230.454	9.27
230.671	8.52
230.888	4.76
231.105	4.26
231.323	4.19
231.54	3.53
231.757	7.22
231.974	8.07
232.191	4.3
232.408	-1.49
232.625	-4.63
232.842	-9.37
233.059	-11.74
233.276	-6.15
233.493	-0.8
233.71	-0.68
233.927	-0.53
234.144	-2.23
234.361	-5.85
234.578	1.76
234.795	0.86
235.012	2.53
235.229	2.84
235.446	5.11
235.663	5.73
235.879	4.42
236.096	-0.28
236.313	-1.54
236.53	4.78
236.747	3.95
236.964	1.18
237.181	1.66
237.397	2.74
237.614	7.33
237.831	5.49
238.048	2.32
238.264	3.37
238.481	7.18
238.698	10.13
238.915	7.91
239.131	6.83
239.348	7.6
239.565	10.13
239.781	12.92
239.998	5.36
240.215	6.96
240.431	9.54
240.648	6.99
240.865	5.42
241.081	2.5
241.298	2.46
241.514	3.25
241.731	2.36
241.947	1.94
242.164	0.49
242.38	3.26
242.597	1.43
242.814	1.98
243.03	2.54
243.246	4.36
243.463	6.85
243.679	4.97
243.896	5.7
244.112	6.98
244.329	5.92
244.545	6.19
244.762	4.22
244.978	2.99
245.194	2.77
245.411	4.62
245.627	3
245.843	3.51
246.06	3.61
246.276	3.65
246.492	3.84
246.709	5.63
246.925	5.11
247.141	5
247.357	5.65
247.574	5.43
247.79	4.91
248.006	5.09
248.222	4.58
248.439	5.3
248.655	5.48
248.871	4.64
249.087	3.05
249.303	2.85
249.519	2.29
249.736	2.48
249.952	1.27
250.168	0.1
250.384	-1.19
250.6	-1.06
250.816	-1.04
251.032	-2.55
251.248	-0.73
251.464	0.96
251.68	3.62
251.896	5.75
252.112	4.04
252.328	3.85
252.544	4.3
252.76	4.96
252.976	4.84
253.192	4.35
253.408	6.42
253.624	5.21
253.84	4.22
254.056	2.2
254.272	1.05
254.487	3.26
254.703	3.84
254.919	4.79
255.135	5.21
255.351	7.91
255.567	9.58
255.782	4.58
255.998	4.36
256.214	5.42
256.43	6.18
256.646	8.09
256.861	6.88
257.077	8.19
257.293	6.3
257.508	4.94
257.724	3.83
257.94	2.31
258.155	3.16
258.371	3.62
258.587	4.67
258.802	4.16
259.018	3.63
259.234	4.25
259.449	3.79
259.665	3.55
259.88	3.86
260.096	3.09
260.312	3.07
260.527	2.79
260.743	2.45
260.958	2.09
261.174	2.77
261.389	3.22
261.605	1.9
261.82	1.53
262.036	2.18
262.251	1.67
262.466	2.6
262.682	3
262.897	1.85
263.113	3.91
263.328	1.97
263.543	2.17
263.759	-0.25
263.974	1.19
264.189	3.49
264.405	1.54
264.62	2.3
264.835	3.42
265.051	3.27
265.266	5.43
265.481	4.95
265.696	7.9
265.912	4.94
266.127	4.77
266.342	4.19
266.557	3.2
266.773	3.02
266.988	2.91
267.203	1.22
267.418	1.74
267.633	3.86
267.848	2.96
268.064	2.54
268.279	1.5
268.494	2.3
268.709	3.46
268.924	2.85
269.139	3.5
269.354	3.76
269.569	4.01
269.784	3.45
269.999	3.71
270.214	2.94
270.429	2.59
270.644	4.5
270.859	3.81
271.074	3.81
271.289	4.53
271.504	4.4
271.719	4.18
271.934	3.93
272.149	4.05
272.363	2.45
272.578	1.98
272.793	1.12
273.008	0.76
273.223	2.16
273.438	1.28
273.653	-0.52
273.867	0.25
274.082	0.29
274.297	0.51
274.512	1
274.726	1.47
274.941	3.71
275.156	4.56
275.371	3.71
275.585	2.8
275.8	4.47
276.015	5.07
276.229	5.21
276.444	5.01
276.659	5.38
276.873	5.52
277.088	5.93
277.302	5.6
277.517	5.16
277.732	7.02
277.946	6.26
278.161	6.23
278.375	7.62
278.59	6.52
278.804	6.1
279.019	5.88
279.233	4.09
279.448	3.67
279.662	2.15
279.877	4.93
280.091	5.84
280.306	5.84
280.52	4.42
280.735	3.66
280.949	4.6
281.163	4.75
281.378	3.48
281.592	4.48
281.806	3.9
282.021	5.18
282.235	2.49
282.449	1.33
282.664	2.87
282.878	3.2
283.092	4.12
283.307	5.14
283.521	4.62
283.735	6.46
283.949	6.89
284.164	7.3
284.378	6.46
284.592	6.92
284.806	6.89
285.02	5.61
285.234	5.26
285.449	5.05
285.663	3.6
285.877	4.36
286.091	3.56
286.305	3.39
286.519	2.98
286.733	2.53
286.947	3.16
287.161	3.62
287.375	4.47
287.589	4.67
287.803	4.52
288.017	5.24
288.231	6.09
288.445	6.81
288.659	5.76
288.873	5.65
289.087	6.7
289.301	5.85
289.515	5.69
289.729	5.51
289.943	4.75
290.157	4.94
290.371	4.49
290.584	3.36
290.798	2.67
291.012	4.84
291.226	5.92
291.44	5.59
291.654	6.81
291.867	7.02
292.081	6.03
292.295	6.98
292.509	6.64
292.722	8.18
292.936	8.76
293.15	8.63
293.364	6.38
293.577	8.03
293.791	7.07
294.005	8.36
294.218	9.56
294.432	10.27
294.645	9.69
294.859	11.14
295.073	10.1
295.286	10.54
295.5	10.68
295.713	11.73
295.927	9.83
296.14	9.34
296.354	8.02
296.568	6.43
296.781	6.49
296.994	7.98
297.208	6.52
297.421	7.29
297.635	7.4
297.848	8.25
298.062	7.6
298.275	7.41
298.489	7.89
298.702	7.46
298.915	7.97
299.129	8.31
299.342	7.67
299.555	8.29
299.769	7.15
299.982	6.01
300.195	4.83
300.409	5.62
300.622	6.6
300.835	6.83
301.048	7.67
301.262	8.69
301.475	9.62
301.688	10.38
301.901	10.32
302.115	10.88
302.328	10.98
302.541	10.48
302.754	9.95
302.967	9.38
303.18	10.24
303.393	11.39
303.607	10.85
303.82	9.15
304.033	9.42
304.246	8.35
304.459	8.72
304.672	8.06
304.885	10.66
305.098	12.65
305.311	12.07
305.524	12.46
305.737	10.3
305.95	9.34
306.163	11.79
306.376	9.08
306.589	10.26
306.802	10.33
307.015	10.82
307.228	10.55
307.44	9.49
307.653	11.88
307.866	12.17
308.079	13.23
308.292	14.76
308.505	12.08
308.718	14.44
308.93	14.6
309.143	14.68
309.356	16.15
309.569	15.03
309.781	14.83
309.994	14.55
310.207	15.13
310.42	14.66
310.632	14.42
310.845	15.3
311.058	15.26
311.27	16.1
311.483	16.75
311.696	15.31
311.908	15.27
312.121	14.77
312.333	15.05
312.546	14.1
312.759	14.95
312.971	13.72
313.184	14.08
313.396	14.42
313.609	14
313.821	13.83
314.034	15.61
314.246	17
314.459	17.66
314.671	17.92
314.884	18.36
315.096	18.82
315.309	18.09
315.521	17.09
315.733	17.64
315.946	17.96
316.158	16.59
316.371	16.77
316.583	15.66
316.795	14.41
317.008	13.43
317.22	12.07
317.432	11.48
317.644	13.63
317.857	14.5
318.069	14.67
318.281	13.39
318.494	14
318.706	12.77
318.918	12.11
319.13	13.7
319.342	14.15
319.555	16.05
319.767	16.95
319.979	17.74
320.191	17.73
320.403	16.21
320.615	17.51
320.827	17.89
321.039	17.17
321.252	18.98
321.464	19.72
321.676	18.66
321.888	18.15
322.1	17.84
322.312	16.32
322.524	17.4
322.736	18.29
322.948	17.14
323.16	17.86
323.372	20.03
323.584	18.97
323.796	19.29
324.007	19.51
324.219	19.28
324.431	18.63
324.643	19.32
324.855	18.42
325.067	17.97
325.279	17.33
325.491	17.4
325.702	16.02
325.914	15.86
326.126	15.03
326.338	14.71
326.55	14.1
326.761	15.5
326.973	15.49
327.185	15.67
327.396	15.96
327.608	16.47
327.82	14.77
328.032	15.42
328.243	17.09
328.455	18.88
328.666	19.01
328.878	21.07
329.09	19.76
329.301	20.47
329.513	21.4
329.725	22.99
329.936	24.09
330.148	26.39
330.359	26.42
330.571	24.43
330.782	22.37
330.994	23.27
331.205	23.49
331.417	22.63
331.628	22.92
331.84	23.34
332.051	22.96
332.262	23.16
332.474	22.38
332.685	22.55
332.897	23.78
333.108	24.09
333.319	24.76
333.531	24.39
333.742	26.26
333.953	26.78
334.165	26.21
334.376	27.78
334.587	27.96
334.799	28.5
335.01	28.78
335.221	29.85
335.432	30.52
335.644	30.94
335.855	32.61
336.066	32.32
336.277	31.14
336.488	30.89
336.7	29.67
336.911	30.23
337.122	30.37
337.333	31.76
337.544	30.48
337.755	30.38
337.966	30.51
338.177	29.22
338.388	29.72
338.599	31.72
338.811	33.42
339.022	34.82
339.233	36.61
339.444	37.15
339.655	37.85
339.866	37.51
340.076	37.44
340.287	35.77
340.498	36.64
340.709	36.48
340.92	36.09
341.131	34.73
341.342	33.06
341.553	30.49
341.764	30.92
341.975	30.53
342.185	31.08
342.396	31.74
342.607	33.56
342.818	32.95
343.029	33.99
343.239	33.2
343.45	33.23
343.661	33.74
343.872	34.41
344.082	33.67
344.293	33.33
344.504	33.4
344.714	32.54
344.925	32.6
345.136	33.07
345.346	33.12
345.557	34.92
345.768	35.43
345.978	34.84
346.189	35.47
346.399	35.49
346.61	35.25
346.821	35.76
347.031	36.79
347.242	36.57
347.452	36.71
347.663	35.64
347.873	33.83
348.084	34.39
348.294	34.81
348.504	34.86
348.715	35.13
348.925	35.33
349.136	34.98
349.346	35.58
349.557	34.7
349.767	35.17
349.977	35.23
350.188	35.89
350.398	35.54
350.608	35.77
350.819	36.09
351.029	35.79
351.239	36.79
351.449	37.41
351.66	36.59
351.87	37.45
352.08	35.65
352.29	35.96
352.501	35.22
352.711	34.71
352.921	35.06
353.131	34.55
353.341	34.28
353.552	33.24
353.762	32.96
353.972	32.18
354.182	32.3
354.392	33.13
354.602	33.04
354.812	34.1
355.022	34.6
355.232	35.57
355.442	35.19
355.652	34.99
355.862	35.66
356.072	35.92
356.282	36.52
356.492	36.6
356.702	37.05
356.912	37.4
357.122	37.38
357.332	37.51
357.542	35.74
357.752	36.38
357.962	36.71
358.171	36.03
358.381	36.37
358.591	36.66
358.801	36.57
359.011	36.61
359.221	36.58
359.43	35.83
359.64	35.5
359.85	36.66
360.06	36.82
360.269	37.88
360.479	38.71
360.689	38.05
360.899	37.15
361.108	37.15
361.318	36.44
361.528	36.74
361.737	37.44
361.947	37.36
362.156	36.66
362.366	36.12
362.576	35.36
362.785	34.47
362.995	34.96
363.204	36.17
363.414	36.54
363.623	36.68
363.833	36.24
364.042	34.75
364.252	34.5
364.461	34.79
364.671	34.91
364.88	35.4
365.09	35.54
365.299	35.05
365.509	34.13
365.718	34.27
365.927	33.21
366.137	32.5
366.346	33.58
366.555	34.46
366.765	34.51
366.974	34
367.183	33.53
367.393	34.09
367.602	34.62
367.811	34.47
368.021	33.77
368.23	35.4
368.439	36.43
368.648	36.2
368.857	35.03
369.067	35.01
369.276	35.79
369.485	35.61
369.694	35.29
369.903	34.06
370.112	33.76
370.321	33.22
370.531	32.77
370.74	32.37
370.949	32.57
371.158	32.17
371.367	31.45
371.576	31.43
371.785	31.14
371.994	30.25
372.203	30.62
372.412	31.41
372.621	31.96
372.83	32.04
373.039	32.27
373.248	32
373.457	32.86
373.666	33.82
373.874	32.87
374.083	33.65
374.292	34.18
374.501	34.67
374.71	33.83
374.919	33.24
375.128	32.45
375.336	31.8
375.545	32.25
375.754	31.37
375.963	30.29
376.171	30.57
376.38	29.3
376.589	28.79
376.798	28.24
377.006	28.8
377.215	29.24
377.424	29.46
377.632	29.41
377.841	29.25
378.05	29.42
378.258	30.06
378.467	29.84
378.675	30.56
378.884	31.1
379.093	30.97
379.301	30.62
379.51	30.01
379.718	29.33
379.927	29.59
380.135	28.47
380.344	29.08
380.552	28.32
380.761	28.39
380.969	27.83
381.177	27.58
381.386	27.29
381.594	27.25
381.803	27.42
382.011	27.8
382.219	27.69
382.428	28.21
382.636	27.93
382.845	28.3
383.053	28.18
383.261	29.1
383.469	28.98
383.678	29.03
383.886	28.69
384.094	28.28
384.302	28.72
384.511	28.39
384.719	28.5
384.927	28.32
385.135	28.31
385.343	28.45
385.552	27.92
385.76	27.83
385.968	27.91
386.176	27.98
386.384	28.14
386.592	27.91
386.8	27.7
387.008	27.27
387.216	26.7
387.424	25.89
387.633	25.69
387.841	25.44
388.049	25.15
388.257	24.82
388.465	24.45
388.672	24.38
388.88	24.16
389.088	24.43
389.296	24.89
389.504	24.92
389.712	25.77
389.92	25.57
390.128	25.64
390.336	25.55
390.544	25.88
390.751	26.38
390.959	26.36
391.167	26.32
391.375	25.96
391.583	25.78
391.79	25.66
391.998	25.08
392.206	24.98
392.414	24.97
392.621	25.12
392.829	24.67
393.037	24.76
393.244	24.84
393.452	24.79
393.66	25.27
393.867	25.29
394.075	25.53
394.283	26.17
394.49	26.17
394.698	26.01
394.905	26.08
395.113	26.27
395.32	25.78
395.528	25.51
395.735	25.56
395.943	25.33
396.15	25.4
396.358	25.48
396.565	24.95
396.773	24.99
396.98	24.97
397.188	25.02
397.395	24.98
397.602	25.44
397.81	25.81
398.017	25.45
398.225	25.09
398.432	24.89
398.639	25.12
398.847	25.23
399.054	24.88
399.261	25.19
399.468	24.9
399.676	24.97
399.883	24.63
400.09	24.39
400.297	24.63
400.505	24.76
400.712	24.51
400.919	24.21
401.126	24.28
401.333	24.27
401.54	24
401.748	23.86
401.955	24
402.162	24.23
402.369	24.38
402.576	24.46
402.783	24.49
402.99	24.72
403.197	24.74
403.404	24.61
403.611	24.67
403.818	24.58
404.025	24.73
404.232	24.49
404.439	24.16
404.646	23.95
404.853	24.11
405.06	24.17
405.267	24.24
405.474	24.49
405.681	24.79
405.887	25
406.094	25.1
406.301	25.39
406.508	25.25
406.715	25.45
406.922	25.63
407.128	25.26
407.335	25.44
407.542	25.23
407.749	25.18
407.955	24.75
408.162	24.69
408.369	24.58
408.575	24.21
408.782	24.37
408.989	24.35
409.195	23.89
409.402	23.67
409.609	23.29
409.815	23.17
410.022	22.73
410.228	22.99
410.435	22.97
410.642	23.1
410.848	23.38
411.055	23.39
411.261	23.29
411.468	23.66
411.674	24.07
411.881	24.16
412.087	24.43
412.294	24.72
412.5	24.34
412.706	24.23
412.913	23.86
413.119	23.69
413.326	23.76
413.532	23.99
413.738	23.99
413.945	23.78
414.151	23.8
414.357	23.48
414.564	23.36
414.77	23.67
414.976	23.75
415.182	24.24
415.389	23.96
415.595	23.91
415.801	23.68
416.007	23.39
416.214	23.34
416.42	23.45
416.626	23.5
416.832	23.6
417.038	23.21
417.244	23.48
417.45	23.25
417.657	23.35
417.863	23.2
418.069	23.2
418.275	23.18
418.481	23.24
418.687	23.27
418.893	23.15
419.099	22.94
419.305	22.94
419.511	22.62
419.717	22.53
419.923	22.6
420.129	22.59
420.335	22.27
420.541	22.32
420.746	22.29
420.952	22.08
421.158	22.21
421.364	22.23
421.57	22.38
421.776	22.44
421.982	22.45
422.187	22.26
422.393	22.27
422.599	22.39
422.805	22.24
423.01	22.22
423.216	22.27
423.422	22.09
423.628	22.07
423.833	21.93
424.039	21.72
424.245	21.56
424.45	21.54
424.656	21.56
424.862	21.55
425.067	21.59
425.273	21.41
425.478	21.25
425.684	21.34
425.889	21.36
426.095	21.32
426.301	21.32
426.506	21.41
426.712	21.29
426.917	21.32
427.123	21.51
427.328	21.6
427.533	21.79
427.739	21.97
427.944	21.93
428.15	21.97
428.355	21.99
428.561	22.02
428.766	22.09
428.971	22.09
429.177	21.88
429.382	21.8
429.587	21.78
429.793	21.71
429.998	21.41
430.203	21.43
430.408	21.31
430.614	21.3
430.819	21.4
431.024	21.43
431.229	21.46
431.434	21.33
431.64	21.01
431.845	21.21
432.05	21.08
432.255	21.44
432.46	21.38
432.665	21.26
432.87	21.51
433.076	21.42
433.281	21.36
433.486	21.31
433.691	21.38
433.896	21.63
434.101	21.42
434.306	21.59
434.511	21.57
434.716	21.45
434.921	21.43
435.126	21.23
435.331	21.43
435.535	21.33
435.74	21.41
435.945	21.5
436.15	21.37
436.355	21.49
436.56	21.39
436.765	21.29
436.97	21.48
437.174	21.66
437.379	21.66
437.584	21.54
437.789	21.57
437.993	21.57
438.198	21.51
438.403	21.56
438.608	21.41
438.812	21.45
439.017	21.48
439.222	21.41
439.426	21.25
439.631	21.11
439.836	21.26
440.04	21.2
440.245	21.29
440.45	21.21
440.654	21.13
440.859	21.03
441.063	20.89
441.268	20.75
441.472	20.69
441.677	20.72
441.881	20.82
442.086	20.57
442.29	20.66
442.495	20.55
442.699	20.53
442.904	20.54
443.108	20.68
443.312	20.8
443.517	20.89
443.721	21.06
443.925	20.99
444.13	21.1
444.334	21.13
444.538	21.08
444.743	21.21
444.947	21.27
445.151	21.29
445.356	21.28
445.56	21.13
445.764	21.01
445.968	20.93
446.173	21.01
446.377	21.01
446.581	21.09
446.785	21.1
446.989	20.9
447.193	20.76
447.398	20.72
447.602	20.62
447.806	20.65
448.01	20.69
448.214	20.55
448.418	20.5
448.622	20.35
448.826	20.16
449.03	20.12
449.234	20.2
449.438	20.38
449.642	20.38
449.846	20.42
450.05	20.52
450.254	20.43
450.458	20.26
450.662	20.1
450.866	20.21
451.069	20.19
451.273	20.16
451.477	20.12
451.681	20.07
451.885	20.06
452.089	20.22
452.292	20.21
452.496	20.53
452.7	20.71
452.904	20.69
453.107	20.56
453.311	20.65
453.515	20.68
453.719	20.7
453.922	20.59
454.126	20.6
454.33	20.49
454.533	20.56
454.737	20.2
454.94	20.07
455.144	20.29
455.348	20.34
455.551	20.32
455.755	20.36
455.958	20.33
456.162	20.27
456.365	20.15
456.569	20.06
456.772	19.9
456.976	19.93
457.179	20.01
457.383	20.05
457.586	20.01
457.79	20.12
457.993	20.05
458.196	20.17
458.4	20.22
458.603	20.34
458.807	20.44
459.01	20.28
459.213	20.42
459.417	20.54
459.62	20.43
459.823	20.35
460.026	20.23
460.23	20.41
460.433	20.33
460.636	20.41
460.839	20.25
461.042	20.07
461.246	20.21
461.449	20.15
461.652	20.07
461.855	20.08
462.058	20.24
462.261	20.31
462.464	20.12
462.668	20.23
462.871	20.21
463.074	20.32
463.277	20.59
463.48	20.58
463.683	20.62
463.886	20.46
464.089	20.54
464.292	20.47
464.495	20.39
464.698	20.41
464.901	20.29
465.104	20.44
465.306	20.69
465.509	20.46
465.712	20.55
465.915	20.46
466.118	20.73
466.321	20.68
466.524	20.7
466.726	20.9
466.929	20.85
467.132	20.77
467.335	20.76
467.538	20.66
467.74	20.68
467.943	20.82
468.146	21
468.348	20.89
468.551	20.88
468.754	20.95
468.956	20.85
469.159	20.85
469.362	20.94
469.564	20.8
469.767	20.84
469.969	20.97
470.172	20.66
470.375	20.61
470.577	20.8
470.78	20.96
470.982	20.77
471.185	20.78
471.387	20.76
471.59	20.78
471.792	20.98
471.995	20.86
472.197	20.95
472.399	21.01
472.602	21.04
472.804	21.02
473.007	20.92
473.209	21.1
473.411	21.3
473.614	21.53
473.816	21.61
474.018	21.53
474.22	21.57
474.423	21.51
474.625	21.55
474.827	21.5
475.03	21.36
475.232	21.35
475.434	21.26
475.636	21.19
475.838	21.08
476.04	20.98
476.243	20.99
476.445	21.12
476.647	21.18
476.849	21.22
477.051	21.15
477.253	21.23
477.455	21.22
477.657	21.47
477.859	21.37
478.061	21.49
478.263	21.53
478.465	21.56
478.667	21.46
478.869	21.38
479.071	21.39
479.273	21.35
479.475	21.25
479.677	21.43
479.879	21.15
480.081	21.21
480.283	21.05
480.485	21.16
480.686	21.04
480.888	21.01
481.09	21.06
481.292	21.06
481.494	21.18
481.695	21.29
481.897	21.15
482.099	21.17
482.301	21.16
482.502	21.13
482.704	21.09
482.906	21.09
483.107	21.01
483.309	20.93
483.511	20.9
483.712	20.84
483.914	20.74
484.115	20.7
484.317	20.74
484.519	20.7
484.72	20.76
484.922	20.72
485.123	20.65
485.325	20.7
485.526	20.74
485.728	20.72
485.929	20.75
486.131	20.81
486.332	20.85
486.534	20.87
486.735	20.92
486.936	20.88
487.138	20.9
487.339	20.91
487.541	20.9
487.742	20.87
487.943	20.88
488.144	20.94
488.346	20.9
488.547	20.89
488.748	20.84
488.95	20.83
489.151	20.8
489.352	20.85
489.553	20.92
489.755	21.04
489.956	21.06
490.157	21.13
490.358	21.09
490.559	21.23
490.76	21.3
490.961	21.38
491.163	21.32
491.364	21.28
491.565	21.23
491.766	21.26
491.967	21.2
492.168	21.19
492.369	21.19
492.57	21.12
492.771	21.06
492.972	21.05
493.173	21.01
493.374	21.06
493.575	21.12
493.776	21.04
493.976	20.95
494.177	21.02
494.378	21.1
494.579	21.17
494.78	21.21
494.981	21.24
495.182	21.29
495.382	21.3
495.583	21.43
495.784	21.57
495.985	21.72
496.185	21.86
496.386	21.73
496.587	21.78
496.788	21.7
496.988	21.79
497.189	21.78
497.39	21.84
497.59	21.76
497.791	21.66
497.992	21.6
498.192	21.54
498.393	21.58
498.593	21.72
498.794	21.74
498.994	21.93
499.195	21.87
499.395	21.96
499.596	21.95
499.796	22.16
499.997	22.3
500.197	22.4
500.398	22.6
500.598	22.61
500.799	22.58
500.999	22.63
501.199	22.59
501.4	22.74
501.6	22.91
501.801	22.8
502.001	22.74
502.201	22.64
502.402	22.66
502.602	22.64
502.802	22.62
503.002	22.71
503.203	22.73
503.403	22.85
503.603	22.91
503.803	22.93
504.003	23.07
504.204	23.07
504.404	23.16
504.604	22.99
504.804	23.02
505.004	23.17
505.204	23.23
505.404	23.3
505.604	23.24
505.804	23.07
506.005	22.95
506.205	23.1
506.405	23.26
506.605	23.33
506.805	23.52
507.005	23.57
507.204	23.62
507.404	23.75
507.604	23.78
507.804	23.79
508.004	23.84
508.204	24
508.404	24.05
508.604	24.07
508.804	24.13
509.003	24.34
509.203	24.46
509.403	24.58
509.603	24.48
509.803	24.63
510.002	24.71
510.202	25.02
510.402	25.09
510.602	25.04
510.801	25.08
511.001	25.2
511.201	25.14
511.4	25.05
511.6	24.95
511.8	24.99
511.999	24.89
512.199	25.05
512.398	25.04
512.598	25.14
512.797	25.37
512.997	25.54
513.197	25.66
513.396	25.86
513.596	26.12
513.795	26.25
513.994	26.46
514.194	26.58
514.393	26.62
514.593	26.78
514.792	26.88
514.992	26.75
515.191	26.68
515.39	26.66
515.59	26.67
515.789	26.67
515.988	26.82
516.188	26.88
516.387	26.96
516.586	26.94
516.786	26.92
516.985	26.86
517.184	27.07
517.383	27.26
517.582	27.23
517.782	27.2
517.981	27.31
518.18	27.39
518.379	27.5
518.578	27.62
518.777	27.84
518.976	27.96
519.176	28.03
519.375	28.07
519.574	28.14
519.773	28.37
519.972	28.59
520.171	28.69
520.37	28.67
520.569	28.85
520.768	28.95
520.967	28.98
521.166	28.92
521.365	29.19
521.564	29.22
521.762	29.27
521.961	29.42
522.16	29.47
522.359	29.45
522.558	29.65
522.757	29.58
522.956	29.73
523.154	29.93
523.353	30.11
523.552	30.14
523.751	30.41
523.949	30.61
524.148	30.58
524.347	30.79
524.546	30.98
524.744	31.08
524.943	31.23
525.142	31.19
525.34	31.18
525.539	31.27
525.737	31.32
525.936	31.35
526.135	31.39
526.333	31.43
526.532	31.34
526.73	31.33
526.929	31.4
527.127	31.43
527.326	31.42
527.524	31.47
527.723	31.5
527.921	31.54
528.12	31.6
528.318	31.72
528.516	31.76
528.715	31.84
528.913	31.84
529.112	31.86
529.31	31.97
529.508	32.06
529.707	32.13
529.905	32.21
530.103	32.31
530.301	32.41
530.5	32.43
530.698	32.55
530.896	32.62
531.094	32.87
531.293	32.89
531.491	32.8
531.689	32.94
531.887	33.06
532.085	33.13
532.283	33.14
532.481	33.19
532.68	33.13
532.878	33.02
533.076	33.01
533.274	33.02
533.472	33.17
533.67	33.21
533.868	33.21
534.066	33.24
534.264	33.25
534.462	33.24
534.66	33.18
534.858	33.36
535.056	33.55
535.253	33.58
535.451	33.63
535.649	33.58
535.847	33.73
536.045	33.73
536.243	33.67
536.441	33.73
536.638	33.79
536.836	33.87
537.034	33.77
537.232	33.76
537.43	33.91
537.627	33.85
537.825	33.88
538.023	33.99
538.22	34.09
538.418	34.12
538.616	34.1
538.813	34.13
539.011	34.17
539.209	34.23
539.406	34.33
539.604	34.4
539.801	34.52
539.999	34.53
540.196	34.39
540.394	34.4
540.591	34.47
540.789	34.52
540.986	34.6
541.184	34.58
541.381	34.58
541.579	34.55
541.776	34.55
541.974	34.56
542.171	34.66
542.368	34.74
542.566	34.81
542.763	34.83
542.96	34.81
543.158	34.87
543.355	34.92
543.552	35.06
543.75	35.21
543.947	35.16
544.144	35.18
544.341	35.2
544.539	35.25
544.736	35.34
544.933	35.51
545.13	35.64
545.327	35.7
545.524	35.72
545.722	35.79
545.919	35.69
546.116	35.8
546.313	35.91
546.51	35.91
546.707	35.99
546.904	35.97
547.101	35.94
547.298	35.88
547.495	35.76
547.692	35.78
547.889	35.78
548.086	35.95
548.283	36.06
548.48	36.03
548.677	36.21
548.874	36.25
549.07	36.31
549.267	36.32
549.464	36.57
549.661	36.81
549.858	37.02
550.055	36.81
550.251	36.72
550.448	36.88
550.645	36.93
550.842	36.55
551.038	36.6
551.235	36.53
551.432	36.51
551.628	36.43
551.825	36.35
552.022	36.3
552.218	36.36
552.415	36.48
552.612	36.36
552.808	36.44
553.005	36.75
553.201	36.61
553.398	36.71
553.594	36.82
553.791	36.83
553.987	36.91
554.184	37.04
554.38	37.18
554.577	37.16
554.773	37.04
554.97	37
555.166	36.99
555.362	37.25
555.559	37.22
555.755	37.17
555.952	37.25
556.148	37.37
556.344	37.44
556.541	37.54
556.737	37.55
556.933	37.83
557.129	37.86
557.326	37.8
557.522	37.88
557.718	37.98
557.914	37.94
558.11	37.98
558.307	37.78
558.503	37.68
558.699	37.56
558.895	37.76
559.091	37.61
559.287	37.87
559.483	37.85
559.679	37.77
559.876	37.84
560.072	38.01
560.268	37.87
560.464	37.93
560.66	37.87
560.856	37.68
561.052	37.58
561.247	37.75
561.443	37.65
561.639	37.61
561.835	37.55
562.031	37.5
562.227	37.64
562.423	37.67
562.619	37.68
562.815	37.75
563.01	37.99
563.206	37.72
563.402	37.54
563.598	37.47
563.793	37.6
563.989	37.62
564.185	37.56
564.381	37.42
564.576	37.5
564.772	37.48
564.968	37.66
565.163	37.86
565.359	38.01
565.555	38.1
565.75	38.13
565.946	38.17
566.141	38.21
566.337	38.39
566.532	38.44
566.728	38.67
566.923	38.82
567.119	38.65
567.314	38.46
567.51	38.61
567.705	38.58
567.901	38.52
568.096	38.55
568.292	38.45
568.487	38.41
568.682	38.29
568.878	38.07
569.073	38.06
569.268	38.21
569.464	38.34
569.659	38.37
569.854	38.27
570.05	38.49
570.245	38.67
570.44	38.74
570.635	38.69
570.831	38.68
571.026	38.83
571.221	38.82
571.416	38.8
571.611	38.81
571.806	38.73
572.002	38.8
572.197	38.81
572.392	38.52
572.587	38.65
572.782	38.64
572.977	38.85
573.172	38.67
573.367	38.73
573.562	38.71
573.757	38.75
573.952	38.72
574.147	38.79
574.342	38.79
574.537	38.92
574.732	38.81
574.927	38.94
575.121	38.64
575.316	38.93
575.511	38.91
575.706	38.82
575.901	38.94
576.096	39.1
576.29	39.28
576.485	39.11
576.68	38.96
576.875	39.01
577.069	38.73
577.264	39.07
577.459	38.88
577.654	38.69
577.848	38.74
578.043	38.5
578.238	38.46
578.432	38.39
578.627	38.43
578.821	38.74
579.016	38.9
579.21	39.27
579.405	39.11
579.6	39.21
579.794	39.52
579.989	39.57
580.183	39.65
580.378	39.7
580.572	39.51
580.766	39.55
580.961	39.49
581.155	39.25
581.35	39.17
581.544	39.17
581.738	39.1
581.933	39.06
582.127	39.32
582.321	39.51
582.516	39.43
582.71	39.59
582.904	39.6
583.099	39.65
583.293	39.78
583.487	39.81
583.681	39.79
583.875	39.94
584.07	39.82
584.264	39.67
584.458	39.34
584.652	39.72
584.846	39.55
585.04	39.78
585.234	39.77
585.428	40.05
585.623	39.94
585.817	39.98
586.011	39.85
586.205	39.79
586.399	39.48
586.593	39.86
586.787	39.41
586.981	39.45
587.174	39.43
587.368	39.48
587.562	39.05
587.756	39.22
587.95	39.39
588.144	39.35
588.338	39.64
588.532	40.02
588.725	40.04
588.919	40.23
589.113	40.4
589.307	40.27
589.501	40.09
589.694	40.23
589.888	40.08
590.082	39.77
590.275	39.97
590.469	39.74
590.663	39.79
590.856	39.47
591.05	39.45
591.244	39.54
591.437	39.35
591.631	39.45
591.824	39.14
592.018	38.95
592.212	39.29
592.405	39.14
592.599	39.19
592.792	39.21
592.986	39.43
593.179	39.24
593.372	39.17
593.566	39.35
593.759	39.28
593.953	39.74
594.146	39.91
594.339	39.88
594.533	39.85
594.726	40.03
594.92	39.83
595.113	39.81
595.306	39.79
595.499	39.69
595.693	39.8
595.886	39.69
596.079	39.55
596.272	39.7
596.466	39.64
596.659	39.9
596.852	40.13
597.045	40.11
597.238	40.25
597.431	40.44
597.624	40.55
597.818	40.47
598.011	40.64
598.204	40.72
598.397	40.75
598.59	40.8
598.783	40.77
598.976	40.5
599.169	40.61
599.362	40.53
599.555	40.43
599.748	40.28
599.941	40.29
600.134	40.6
600.326	40.48
600.519	40.44
600.712	40.44
600.905	40.31
601.098	40.48
601.291	40.32
601.483	40.14
601.676	40.19
601.869	40.22
602.062	39.94
602.255	39.55
602.447	39.95
602.64	39.57
602.833	39.59
603.025	39.46
603.218	39.21
603.411	39.29
603.603	39.51
603.796	39.68
603.989	39.86
604.181	40.22
604.374	40.49
604.566	40.24
604.759	40.54
604.951	40.69
605.144	40.95
605.336	40.9
605.529	41.05
605.721	41.07
605.914	41.03
606.106	41.12
606.299	40.91
606.491	40.66
606.683	40.84
606.876	40.78
607.068	40.51
607.26	40.26
607.453	40.51
607.645	40.44
607.837	40.34
608.03	40.36
608.222	40.23
608.414	40.65
608.606	40.78
608.799	40.67
608.991	40.6
609.183	40.7
609.375	41.04
609.567	41.04
609.759	41.1
609.952	41.2
610.144	41.08
610.336	41.09
610.528	40.88
610.72	40.88
610.912	41
611.104	40.98
611.296	41.12
611.488	40.98
611.68	40.78
611.872	40.67
612.064	40.74
612.256	40.56
612.448	40.63
612.64	40.63
612.832	40.41
613.023	40.23
613.215	40.46
613.407	40.37
613.599	40.53
613.791	40.89
613.983	40.77
614.174	40.59
614.366	40.89
614.558	40.84
614.75	40.59
614.941	40.9
615.133	41.03
615.325	40.78
615.516	40.83
615.708	40.55
615.9	40.58
616.091	40.91
616.283	40.95
616.475	40.94
616.666	40.78
616.858	41.22
617.049	40.91
617.241	40.96
617.432	41.28
617.624	41.3
617.815	41.23
618.007	41.24
618.198	41.02
618.39	40.97
618.581	41.15
618.773	41.23
618.964	40.94
619.155	41.24
619.347	40.95
619.538	40.89
619.729	40.78
619.921	40.78
620.112	40.33
620.303	40.59
620.494	40.44
620.686	40.34
620.877	40.23
621.068	40.81
621.259	40.75
621.451	40.75
621.642	40.95
621.833	41.03
622.024	40.9
622.215	41.18
622.406	40.99
622.597	41.05
622.788	41.16
622.98	41.02
623.171	40.18
623.362	40.25
623.553	40.34
623.744	39.99
623.935	40.12
624.126	40.41
624.317	40.13
624.508	40.16
624.698	40.42
624.889	39.95
625.08	40.37
625.271	40.9
625.462	40.9
625.653	41.12
625.844	41.38
626.034	41.25
626.225	41.04
626.416	41.15
626.607	41.03
626.798	41
626.988	41.19
627.179	41.21
627.37	41.18
627.56	41.3
627.751	41.38
627.942	41.44
628.132	41.47
628.323	41.81
628.514	41.89
628.704	42.07
628.895	41.77
629.085	42.01
629.276	41.6
629.466	41.53
629.657	41.52
629.847	41.42
630.038	40.98
630.228	41.06
630.419	40.66
630.609	40.72
630.8	40.43
630.99	40.63
631.181	40.12
631.371	40.57
631.561	40.5
631.752	40.59
631.942	40.42
632.132	40.52
632.323	40.52
632.513	40.64
632.703	40.57
632.893	40.9
633.084	40.97
633.274	41.46
633.464	41.21
633.654	41.31
633.844	41.1
634.034	41.21
634.225	41.23
634.415	41.15
634.605	40.99
634.795	40.93
634.985	40.68
635.175	40.67
635.365	40.7
635.555	40.77
635.745	40.65
635.935	40.67
636.125	40.35
636.315	40.26
636.505	40.4
636.695	40.29
636.885	40.33
637.075	40.35
637.265	40.1
637.455	40.17
637.644	40.25
637.834	40.66
638.024	40.54
638.214	41.01
638.404	40.98
638.593	40.87
638.783	41.39
638.973	41.52
639.163	41.83
639.352	41.76
639.542	41.14
639.732	40.9
639.921	40.89
640.111	41.08
640.301	41.01
640.49	41.59
640.68	41.72
640.87	41.55
641.059	41.39
641.249	41.2
641.438	41.72
641.628	42.07
641.817	42.13
642.007	41.7
642.196	41.43
642.386	41.33
642.575	40.86
642.764	40.7
642.954	40.53
643.143	40.61
643.333	40.81
643.522	40.48
643.711	40.26
643.901	40.28
644.09	40.38
644.279	40.63
644.469	40.6
644.658	40.79
644.847	40.74
645.036	40.77
645.226	40.97
645.415	40.8
645.604	40.95
645.793	41.43
645.982	41.02
646.171	40.87
646.361	41
646.55	40.85
646.739	40.96
646.928	40.83
647.117	40.77
647.306	40.62
647.495	40.7
647.684	40.75
647.873	40.45
648.062	40.99
648.251	41.45
648.44	41.06
648.629	41.2
648.818	40.96
649.007	41.31
649.196	42.01
649.384	41.7
649.573	41.33
649.762	41.11
649.951	41.32
650.14	40.96
650.328	40.63
650.517	41.15
650.706	41.43
650.895	41.49
651.083	41.33
651.272	40.96
651.461	41.41
651.65	41.68
651.838	41.94
652.027	41.67
652.216	42.03
652.404	41.93
652.593	41.55
652.781	41.4
652.97	41.25
653.158	41.22
653.347	41.12
653.535	40.96
653.724	40.94
653.912	41.02
654.101	40.86
654.289	40.81
654.478	40.94
654.666	41.28
654.855	41.37
655.043	41.38
655.231	41.6
655.42	42
655.608	41.68
655.796	41.65
655.985	41.13
656.173	41.31
656.361	41.11
656.55	41.25
656.738	40.9
656.926	40.64
657.114	41.31
657.302	40.82
657.491	40.39
657.679	40.28
657.867	40.6
658.055	40.68
658.243	40.94
658.431	41.03
658.619	40.95
658.807	40.85
658.996	41.01
659.184	40.47
659.372	40.84
659.56	40.89
659.748	41.16
659.936	41.12
660.124	41.32
660.311	40.97
660.499	41.01
660.687	41.08
660.875	41.36
661.063	41.46
661.251	41.44
661.439	41.11
661.627	40.99
661.814	41.28
662.002	41.37
662.19	40.99
662.378	41
662.565	40.86
662.753	40.96
662.941	40.89
663.129	40.37
663.316	40.47
663.504	40.46
663.692	40.63
663.879	40.51
664.067	40.31
664.254	40.51
664.442	40.35
664.63	40.1
664.817	40.16
665.005	40.25
665.192	40.73
665.38	40.36
665.567	40.55
665.755	40.34
665.942	40.12
666.13	39.87
666.317	40.17
666.504	40.77
666.692	41
666.879	40.84
667.067	40.6
667.254	40.35
667.441	40.79
667.629	41.05
667.816	41.07
668.003	41.51
668.19	41.7
668.378	41.51
668.565	41.67
668.752	41.89
668.939	41.96
669.127	41.85
669.314	41.6
669.501	41.31
669.688	40.52
669.875	40.72
670.062	40.72
670.249	41.21
670.436	41.22
670.623	40.74
670.81	40.79
670.997	40.38
671.184	40.42
671.371	40.28
671.558	40.53
671.745	41.05
671.932	41.23
672.119	40.66
672.306	40.18
672.493	40.63
672.68	40.81
672.867	41.13
673.054	41.15
673.24	41.26
673.427	41.91
673.614	41.94
673.801	41.83
673.988	41.37
674.174	41.51
674.361	41.56
674.548	41.32
674.734	41.3
674.921	40.92
675.108	41.07
675.294	41.06
675.481	40.65
675.668	40.86
675.854	40.59
676.041	41.31
676.227	40.99
676.414	40.8
676.601	40.3
676.787	40.24
676.974	40
677.16	40.11
677.347	39.81
677.533	39.91
677.719	39.59
677.906	40.31
678.092	40.01
678.279	40.34
678.465	40.63
678.651	40.99
678.838	41.09
679.024	40.74
679.21	41.12
679.397	41.54
679.583	41.34
679.769	41.58
679.955	41.54
680.142	41.49
680.328	41.1
680.514	41.09
680.7	40.92
680.886	41.18
681.073	41.63
681.259	41.17
681.445	41.28
681.631	41.56
681.817	41.47
682.003	41.38
682.189	41.3
682.375	41.8
682.561	41.51
682.747	41.31
682.933	40.9
683.119	40.83
683.305	41.04
683.491	40.68
683.677	41.31
683.863	41.33
684.049	41.19
684.235	41.27
684.42	40.92
684.606	41.19
684.792	41.19
684.978	41.1
685.164	41.5
685.349	41.43
685.535	41.86
685.721	41.63
685.907	41.34
686.092	41.39
686.278	41.25
686.464	41.71
686.649	41.1
686.835	41.2
687.021	41.3
687.206	41.4
687.392	41.84
687.577	41.29
687.763	40.87
687.948	40.8
688.134	41.08
688.319	40.74
688.505	40.69
688.69	41.23
688.876	41.22
689.061	41.22
689.247	40.89
689.432	40.64
689.618	41.14
689.803	41.11
689.988	41.47
690.174	40.91
690.359	41.47
690.544	41.39
690.73	41.32
690.915	41.73
691.1	41.71
691.285	42.02
691.471	42.05
691.656	42.03
691.841	42.45
692.026	42.94
692.211	42.89
692.396	43.23
692.582	42.86
692.767	43.04
692.952	42.93
693.137	42.85
693.322	42.64
693.507	41.88
693.692	41.54
693.877	41.43
694.062	40.57
694.247	40.82
694.432	40.22
694.617	40.43
694.802	40.01
694.987	39.65
695.172	40.17
695.357	40.24
695.541	40.67
695.726	40.53
695.911	40.16
696.096	40.61
696.281	40.6
696.466	40.55
696.65	40.69
696.835	40.82
697.02	41.12
697.204	40.81
697.389	40.68
697.574	40.34
697.759	40.58
697.943	40.68
698.128	40.52
698.312	40.72
698.497	40.71
698.682	40.92
698.866	40.72
699.051	40.72
699.235	40.78
699.42	40.7
699.604	40.75
699.789	40.86
699.973	40.74
700.158	40.64
700.342	40.64
700.527	40.75
700.711	40.39
700.895	40.56
701.08	40.65
701.264	40.28
701.448	40.54
701.633	40.98
701.817	40.61
702.001	40.48
702.186	40.65
702.37	40.13
702.554	39.64
702.738	40.19
702.923	40.18
703.107	40.4
703.291	40.46
703.475	39.78
703.659	39.38
703.843	39.28
704.027	39.4
704.212	39
704.396	38.44
704.58	38.99
704.764	38.85
704.948	39.06
705.132	38.89
705.316	39.72
705.5	40.11
705.684	40.54
705.868	40.66
706.052	40.67
706.235	41.28
706.419	42.03
706.603	41.63
706.787	41.18
706.971	40.69
707.155	40.33
707.339	40.06
707.522	40.05
707.706	39.11
707.89	39.35
708.074	39.78
708.257	40.21
708.441	40.97
708.625	41.34
708.808	41.35
708.992	41.83
709.176	42.62
709.359	41.95
709.543	42.14
709.727	42.56
709.91	43.09
710.094	42.81
710.277	42.21
710.461	40.77
710.644	40.17
710.828	40.2
711.011	40.1
711.195	38.95
711.378	39.34
711.562	38.9
711.745	38.93
711.928	38.26
712.112	38.13
712.295	38.54
712.478	39.4
712.662	39.2
712.845	39.36
713.028	39.33
713.212	39.39
713.395	39.28
713.578	39.18
713.761	39.29
713.945	39.56
714.128	39.66
714.311	38.47
714.494	37.96
714.677	39.01
714.86	38.98
715.043	39.66
715.227	40.06
715.41	40.26
715.593	40.54
715.776	40.67
715.959	40.64
716.142	40.53
716.325	41.66
716.508	42.63
716.691	41.84
716.874	41.43
717.057	40.52
717.239	40.31
717.422	40.16
717.605	39.86
717.788	39.39
717.971	39.27
718.154	38.79
718.337	38.08
718.519	37.87
718.702	38.87
718.885	39.04
719.068	38.08
719.25	38.17
719.433	37.41
719.616	37.14
719.798	36.65
719.981	35.91
720.164	36.33
720.346	36.79
720.529	36.35
720.712	36.06
720.894	36.52
721.077	37.29
721.259	36.66
721.442	36.67
721.624	37.61
721.807	38.64
721.989	38.89
722.172	38.69
722.354	38.22
722.537	37.87
722.719	37.56
722.901	37.15
723.084	37.85
723.266	39.13
723.448	40.79
723.631	40.73
723.813	40.26
723.995	41.29
724.178	41.59
724.36	41.57
724.542	41.02
724.724	40.71
724.907	42.16
725.089	41.89
725.271	42
725.453	41.11
725.635	40.58
725.817	41.37
725.999	40.27
726.181	40.38
726.364	40.37
726.546	41.59
726.728	42.21
726.91	39.93
727.092	40.03
727.274	38.72
727.456	38.8
727.638	38.63
727.819	38.49
728.001	38.42
728.183	38.55
728.365	38.36
728.547	38.18
728.729	37.84
728.911	38.94
729.093	38.48
729.274	39.12
729.456	38.57
729.638	38.48
729.82	38.1
730.001	38.96
730.183	38.99
730.365	39.45
730.546	39.41
730.728	39.63
730.91	39.17
731.091	39.17
731.273	39.65
731.455	40.5
731.636	40.25
731.818	40.57
731.999	40.15
732.181	39.2
732.362	39.8
732.544	39.12
732.725	38.58
732.907	39.25
733.088	39.29
733.27	39.07
733.451	39.69
733.633	40.08
733.814	39.36
733.995	39
734.177	39.74
734.358	39.07
734.539	39.48
734.721	39.8
734.902	39.2
735.083	39.73
735.264	40.15
735.446	39.02
735.627	38.69
735.808	39.79
735.989	40.17
736.17	40.44
736.351	40.52
736.533	40.28
736.714	39.24
736.895	40.23
737.076	40.08
737.257	38.9
737.438	38.75
737.619	40.33
737.8	39.5
737.981	38.36
738.162	38.54
738.343	38.66
738.524	39.81
738.705	40.8
738.886	39.65
739.067	39.18
739.247	39.93
739.428	40.84
739.609	39.57
739.79	39.54
739.971	41.2
740.151	40.09
740.332	39.59
740.513	39.31
740.694	39.59
740.874	40.18
741.055	40.66
741.236	39.92
741.417	40.02
741.597	40.05
741.778	39.02
741.958	38.54
742.139	40.44
742.32	41.35
742.5	41.62
742.681	40.78
742.861	39.61
743.042	39.07
743.222	40.58
743.403	39.49
743.583	39.99
743.764	42.23
743.944	42.33
744.124	41.51
744.305	39.55
744.485	38.69
744.666	39.19
744.846	41.13
745.026	42.15
745.207	41
745.387	41.31
745.567	42.2
745.747	41.64
745.928	41.88
746.108	40.69
746.288	42.26
746.468	42.29
746.648	43.26
746.829	42.73
747.009	41.27
747.189	42.18
747.369	42.2
747.549	41.08
747.729	40.38
747.909	37.66
748.089	39.51
748.269	39.14
748.449	38.36
748.629	36.52
748.809	36.67
748.989	37.35
749.169	36.07
749.349	35.06
749.529	35.55
749.709	35.54
749.889	36.58
750.068	36.15
750.248	37.14
750.428	36.34
750.608	36.96
750.788	37.03
750.967	36.18
751.147	36.67
751.327	37.17
751.507	37.61
751.686	37.31
751.866	38.35
752.046	37.67
752.225	36.52
752.405	37.8
752.585	36.85
752.764	34.93
752.944	36.52
753.123	36.8
753.303	36.67
753.482	36.55
753.662	37.08
753.841	37.1
754.021	37.18
754.2	37.56
754.38	37.44
754.559	38.68
754.739	40.05
754.918	39
755.097	38.24
755.277	38.62
755.456	38.37
755.635	38.15
755.815	37.83
755.994	38.9
756.173	37.96
756.352	38.2
756.532	37.83
756.711	39.01
756.89	38.82
757.069	38.37
757.248	38.49
757.427	38.42
757.607	38.24
757.786	37.81
757.965	35.38
758.144	37
758.323	36.77
758.502	36.85
758.681	34.15
758.86	35.74
759.039	37.06
759.218	35.93
759.397	35.32
759.576	35.05
759.755	35.94
759.934	37.57
760.113	36.31
760.291	36.41
760.47	35.63
760.649	38.05
760.828	37.98
761.007	36.99
761.186	38.45
761.364	37.84
761.543	38.05
761.722	37.99
761.901	37.09
762.079	38.35
762.258	37.74
762.437	38.79
762.615	37.61
762.794	36.2
762.972	36.09
763.151	35.24
763.33	36.17
763.508	36.48
763.687	36.63
763.865	36.7
764.044	36.64
764.222	37.38
764.401	36.92
764.579	36.85
764.758	37.47
764.936	37.98
765.114	38.59
765.293	38.4
765.471	38.23
765.65	37.45
765.828	37.52
766.006	36.6
766.184	35.6
766.363	35.21
766.541	34.85
766.719	35.79
766.898	36
767.076	35.9
767.254	35.62
767.432	34.89
767.61	35.92
767.788	36.85
767.967	36.41
768.145	37.1
768.323	37.66
768.501	38.44
768.679	38.37
768.857	39.21
769.035	39.12
769.213	39.3
769.391	41.09
769.569	41.94
769.747	41.54
769.925	41.34
770.103	42.77
770.281	42.92
770.459	43.32
770.636	41.8
770.814	42.05
770.992	42.17
771.17	40.47
771.348	39
771.525	36.49
771.703	37.25
771.881	38.7
772.059	37.39
772.236	37.35
772.414	36.78
772.592	36.78
772.769	34.96
772.947	34.67
773.125	38.15
773.302	39.59
773.48	39.91
773.657	38.76
773.835	39.22
774.013	39.27
774.19	38.38
774.368	39.04
774.545	37.58
774.723	38.92
774.9	39.31
775.077	37.96
775.255	38.38
775.432	38.79
775.61	39.26
775.787	39.22
775.964	39.84
776.142	38.42
776.319	38.99
776.496	41.28
776.674	40.09
776.851	40.21
777.028	39.23
777.205	38.98
777.382	37.54
777.56	35.48
777.737	34.28
777.914	32.99
778.091	36.4
778.268	34.8
778.445	34.64
778.622	34.44
778.8	36.07
778.977	37.28
779.154	34.72
779.331	35.18
779.508	38.62
779.685	39.45
779.862	38.14
780.038	39.1
780.215	39.21
780.392	38.89
780.569	39.74
780.746	40.56
780.923	38.84
781.1	40.65
781.277	41.54
781.453	40.79
781.63	42.02
781.807	45.72
781.984	43.51
782.16	44.83
782.337	44.34
782.514	45.63
782.691	43.96
782.867	43.9
783.044	43.43
783.221	44.38
783.397	43.64
783.574	43.97
783.75	42.85
783.927	43.68
784.103	42.7
784.28	42.56
784.456	41.99
784.633	40.77
784.809	38.7
784.986	38.22
785.162	37.99
785.339	36.06
785.515	35.74
785.692	35.94
785.868	36.66
786.044	36.05
786.221	36.64
786.397	37.98
786.573	38.65
786.749	43.13
786.926	44.32
787.102	47.18
787.278	49.16
787.454	46.88
787.631	46.08
787.807	43.57
787.983	44.21
788.159	44.89
788.335	41.24
788.511	41.01
788.687	40.7
788.863	41.09
789.039	38.87
789.216	39.42
789.392	40.01
789.568	40.01
789.744	40.37
789.919	38.4
790.095	37.89
790.271	39.63
790.447	40.08
790.623	38.6
790.799	37.48
790.975	35.88
791.151	35.69
791.327	34.06
791.502	33.93
791.678	36.06
791.854	38.54
792.03	36.54
792.205	37.29
792.381	36.87
792.557	38.18
792.733	37.52
792.908	37.1
793.084	35.39
793.259	38.78
793.435	37.93
793.611	34.72
793.786	35.06
793.962	37.85
794.137	36.64
794.313	36.4
794.488	33.92
794.664	34.68
794.839	36.64
795.015	39.37
795.19	37.87
795.366	38.62
795.541	41.4
795.716	39.46
795.892	36.78
796.067	37.82
796.242	36.65
796.418	36.32
796.593	34.51
796.768	32.87
796.944	31.54
797.119	30.92
797.294	31.22
797.469	29.73
797.644	29.21
797.82	30.6
797.995	29.94
798.17	33.28
798.345	34.75
798.52	36.3
798.695	34.74
798.87	34.67
799.045	35.8
799.22	35.66
799.395	32.96
799.57	33.74
799.745	33.43
799.92	32.85
800.095	32.37
800.27	32.19
800.445	31.74
800.62	35.01
800.795	34.57
800.97	33.05
801.145	35.99
801.319	41.39
801.494	44.23
801.669	45.42
801.844	42.23
802.018	40.31
802.193	41.66
802.368	43.47
802.543	42.89
802.717	50.79
802.892	51.04
803.067	46.55
803.241	47.84
803.416	47.13
803.59	44.52
803.765	47.87
803.94	44.63
804.114	43.12
804.289	42.1
804.463	43.88
804.638	33.85
804.812	34.01
804.986	31.65
805.161	27.89
805.335	27.84
805.51	31.57
805.684	28.21
805.858	29.23
806.033	27.62
806.207	27.5
806.381	25.83
806.556	27.07
806.73	26.24
806.904	29.55
807.078	29.18
807.253	24.3
807.427	21.88
807.601	24.5
807.775	26.32
807.949	28.76
808.123	28.73
808.298	27.74
808.472	27
808.646	26.36
808.82	24.47
808.994	23.22
809.168	26.55
809.342	31.38
809.516	33.78
809.69	31.89
809.864	32.87
810.038	28.22
810.212	28.34
810.385	33.2
810.559	37.64
810.733	40.09
810.907	41.88
811.081	41.02
811.255	38.9
811.428	38.13
811.602	40.77
811.776	40.66
811.95	45.57
812.123	49.91
812.297	46.43
812.471	42.85
812.644	41.24
812.818	44.24
812.992	47.67
813.165	47.98
813.339	45.58
813.512	40.05
813.686	38.04
813.86	37.55
814.033	33.99
814.207	34.33
814.38	34.94
814.554	36.12
814.727	33.04
814.9	32.91
815.074	31.92
815.247	33.79
815.421	38.57
815.594	43.28
815.767	43.67
815.941	42.69
816.114	45.5
816.287	43.53
816.46	45.11
816.634	44.98
816.807	42.22
816.98	40.7
817.153	36.88
817.327	37.48
817.5	35.83
817.673	35.68
817.846	40.17
818.019	35.95
818.192	37.68
818.365	38.76
818.538	36.63
818.711	36.01
818.884	35.42
819.057	37.88
819.23	37.63
819.403	37.58
819.576	34.25
819.749	33.08
819.922	35.45
820.095	37.16
820.268	36.61
820.441	39.09
820.614	40.49
820.786	41.45
820.959	40.47
821.132	41.11
821.305	41.35
821.477	41.7
821.65	40.39
821.823	39.91
821.996	39.28
822.168	38.1
822.341	37.97
822.514	38.06
822.686	37.7
822.859	37.92
823.031	37.22
823.204	36.43
823.376	36.72
823.549	36.66
823.722	36.19
823.894	36.05
824.067	36.75
824.239	36.91
824.411	36.16
824.584	36.3
824.756	35.83
824.929	36.21
825.101	36.39
825.273	35.88
825.446	36.29
825.618	37.39
825.79	38.04
825.963	36.94
826.135	36.1
826.307	35.08
826.479	34
826.652	33.46
826.824	32.64
826.996	32.54
827.168	34.27
827.34	34.31
827.512	32.3
827.684	31.02
827.856	29.88
828.029	29.17
828.201	30.16
828.373	30.45
828.545	32.31
828.717	32.55
828.889	33.67
829.061	30.43
829.232	29.64
829.404	30.6
829.576	31.63
829.748	33.73
829.92	33.87
830.092	33.57
830.264	34.05
830.436	31.73
830.607	33.44
830.779	29.63
830.951	32.28
831.123	33.72
831.294	35.59
831.466	37.35
831.638	33.85
831.809	37.35
831.981	40.26
832.153	39.56
832.324	39.13
832.496	33.57
832.667	33.11
832.839	31
833.011	29.27
833.182	29.16
833.354	25.15
833.525	28.53
833.697	30.21
833.868	28.11
834.039	30.31
834.211	31.54
834.382	33.67
834.554	36.25
834.725	37.8
834.896	36.93
835.068	37.38
835.239	35.77
835.41	37.09
835.581	36.26
835.753	37.53
835.924	33.87
836.095	33.12
836.266	33.09
836.438	30.11
836.609	28.61
836.78	32.41
836.951	28.36
837.122	31.49
837.293	31.96
837.464	28.87
837.635	26.55
837.806	28.09
837.977	28.11
838.148	31.24
838.319	34.08
838.49	28.81
838.661	22.18
838.832	28.35
839.003	28.15
839.174	26.39
839.345	30.51
839.516	33.29
839.687	36.29
839.857	39.81
840.028	42.66
840.199	43.37
840.37	45.45
840.54	50.69
840.711	53.07
840.882	55.19
841.053	48.96
841.223	44.91
841.394	39.4
841.564	40.73
841.735	36.99
841.906	31.1
842.076	33.66
842.247	39.38
842.417	32.18
842.588	23.93
842.758	20.4
842.929	25.21
843.099	25.62
843.27	26.05
843.44	23.96
843.611	24.63
843.781	19.67
843.951	10
844.122	5.34
844.292	13.22
844.462	15.53
844.633	19.42
844.803	20.19
844.973	31.56
845.144	34.18
845.314	34.76
845.484	39.84
845.654	41.76
845.824	44.65
845.995	38.99
846.165	39.63
846.335	45.09
846.505	51.63
846.675	51.89
846.845	43.03
847.015	43.9
847.185	36.13
847.355	36.43
847.525	38.86
847.695	35.38
847.865	35.35
848.035	33.09
848.205	27.81
848.375	19.51
848.545	22.46
848.715	26.82
848.884	32.01
849.054	45.61
849.224	42.56
849.394	34.74
849.564	36.46
849.733	40.88
849.903	42.2
850.073	44.44
850.243	49.44
850.412	54.12
850.582	51.71
850.752	47.73
850.921	49.21
851.091	43.11
851.26	53.37
851.43	52.82
851.599	53.58
851.769	40.21
851.939	50.37
852.108	39.26
852.278	25.84
852.447	16.79
852.616	16.35
852.786	0.57
852.955	4.87
853.125	1.5
853.294	18.4
853.463	7.38
853.633	27.07
853.802	37.22
853.971	48.51
854.141	49.21
854.31	62.97
854.479	55.93
854.648	65.5
854.818	73.25
854.987	64.72
855.156	62.94
855.325	81.68
855.494	77.09
855.663	63.44
855.832	52.33
856.001	54.6
856.171	50.79
856.34	51.67
856.509	44.1
856.678	47.81
856.847	55.55
857.016	53.04
857.185	37.85
857.353	35.48
857.522	37.02
857.691	39.88
857.86	36.49
858.029	33.79
858.198	45.62
858.367	56.87
858.535	38.88
858.704	35.08
858.873	30.49
859.042	30.38
859.21	33.18
859.379	39.06
859.548	46.22
859.717	45.97
859.885	41.14
860.054	34.46
860.222	30.89
860.391	40.52
860.56	34.28
860.728	32.52
860.897	28.01
861.065	20.35
861.234	17.49
861.402	-6.39
861.571	-6.04
861.739	-0.21
861.908	-11.11
862.076	-8.32
862.244	-5.33
862.413	12.27
862.581	15.47
862.749	21.05
862.918	28.61
863.086	25.42
863.254	38.68
863.423	43.52
863.591	37.17
863.759	31.47
863.927	22.58
864.096	21.12
864.264	-4.43
864.432	12.48
864.6	16.01
864.768	9.95
864.936	5.21
865.104	0.19
865.272	-13.55
865.44	10.19
865.608	33.61
865.776	40.23
865.944	39.75
866.112	46.74
866.28	41.72
866.448	46.37
866.616	47.61
866.784	49.12
866.952	66.5
867.12	78.75
867.288	67.44
867.455	76.64
867.623	71.23
867.791	77.07
867.959	84.27
868.127	69.95
868.294	48.13
868.462	54.27
868.63	68.27
868.797	82.37
868.965	66.54
869.133	96.65
869.3	89.94
869.468	87.34
869.636	103.28
869.803	65.7
869.971	73.45
870.138	95.07
870.306	94.21
870.473	62.4
870.641	39.25
870.808	43.53
870.975	43.71
871.143	45.48
871.31	29.92
871.478	19.67
871.645	39.15
871.812	24.37
871.98	33.3
872.147	28.2
872.314	32.22
872.482	28.12
872.649	28.36
872.816	15.95
872.983	10.1
873.15	25.56
873.318	25.41
873.485	28.83
873.652	29.07
873.819	26.37
873.986	27.37
874.153	29.38
874.32	38.07
874.487	30.16
874.654	44.62
874.821	57.09
874.988	30.41
875.155	54.14
875.322	20.72
875.489	35.5
875.656	32.48
875.823	48.06
875.99	39.72
876.157	32.79
876.324	40.53
876.49	44.6
876.657	31.04
876.824	40.28
876.991	31.82
877.157	46.41
877.324	42.38
877.491	49.27
877.658	47.35
877.824	38.41
877.991	20.77
878.157	29.83
878.324	21.64
878.491	40.99
878.657	35.99
878.824	43.65
878.99	32.27
879.157	17.6
879.323	19.57
879.49	14.7
879.656	29.82
879.823	49.68
879.989	39.31
880.156	43.3
880.322	32.67
880.488	26.42
880.655	4.69
880.821	14.51
880.987	26.96
881.154	11.67
881.32	20.87
881.486	14.44
881.652	10.89
881.819	12.92
881.985	14.53
882.151	20.2
882.317	22.4
882.483	28.56
882.649	28.73
882.816	26.14
882.982	28.41
883.148	29.79
883.314	33.77
883.48	36.24
883.646	35.58
883.812	33.73
883.978	32.76
884.144	32.68
884.31	31.24
884.476	31.06
884.642	30.82
884.807	33.42
884.973	33.75
885.139	34.16
885.305	31.35
885.471	31.55
885.637	31.17
885.802	30.58
885.968	28.24
886.134	31.31
886.3	33.36
886.465	33.22
886.631	29.88
886.797	28.21
886.962	22.65
887.128	23.66
887.293	20.67
887.459	25.02
887.625	23.06
887.79	30.95
887.956	22.48
888.121	17.66
888.287	20.69
888.452	22.48
888.618	9.61
888.783	7.02
