Data from 2938049_Reflection_1.txt Node
Date: Sun Jul 12 14:17:43 EDT 2015
User: robert
Spectrometer: USB4E03001
Autoset integration time: false
Trigger mode: 4
Integration Time (sec): 1.000000E-1
Scans to average: 10
Electric dark correction enabled: true
Nonlinearity correction enabled: false
Boxcar width: 5
Stray light correction enabled: false
XAxis mode: Wavelengths
Stop averaging: false
Number of Pixels in Spectrum: 3648
>>>>>Begin Spectral Data<<<<<
177.566	402.06
177.785	640.74
178.005	166.78
178.225	95.47
178.445	177.86
178.665	830.52
178.885	1868.52
179.105	-1440.26
179.324	312.64
179.544	116.55
179.764	119.84
179.984	152.06
180.204	157.12
180.423	156.23
180.643	182.39
180.863	213.55
181.083	209.65
181.302	168.07
181.522	196.86
181.742	232.22
181.961	225.35
182.181	202.86
182.401	223.28
182.621	278.08
182.84	261.92
183.06	162.16
183.279	168.54
183.499	247.15
183.719	-79.28
183.938	-425.4
184.158	94.98
184.377	-97.8
184.597	59.49
184.816	21.28
185.036	561.04
185.256	108.01
185.475	87.86
185.695	131.8
185.914	105.26
186.134	171.76
186.353	240.64
186.572	561.08
186.792	425.8
187.011	269.01
187.231	305
187.45	393.68
187.67	591.42
187.889	2134.44
188.108	1533.94
188.328	609.81
188.547	257.12
188.766	225.52
188.986	226.49
189.205	198.16
189.424	253.04
189.644	306.58
189.863	273.61
190.082	327.74
190.302	224.25
190.521	137.58
190.74	286.01
190.959	239.28
191.178	183.56
191.398	201.94
191.617	134.06
191.836	112.28
192.055	125.87
192.274	50.78
192.494	59.4
192.713	94.55
192.932	73.47
193.151	92.73
193.37	76.17
193.589	88.73
193.808	88.24
194.027	111.9
194.246	148.16
194.465	136.1
194.685	237.22
194.904	313.13
195.123	263.37
195.342	3428.93
195.561	1340.37
195.78	385.54
195.999	300.97
196.218	251.26
196.436	228.99
196.655	142.72
196.874	88.88
197.093	85.88
197.312	74.2
197.531	73.38
197.75	74.76
197.969	83.19
198.188	120.13
198.407	134.9
198.625	106.4
198.844	118.97
199.063	164.4
199.282	666.49
199.501	957.14
199.719	51.38
199.938	721.45
200.157	225.68
200.376	-14.46
200.594	-245.47
200.813	-333.68
201.032	108.47
201.251	55.06
201.469	48.59
201.688	-471.89
201.907	8.35
202.125	185.74
202.344	251.9
202.563	157.59
202.781	139.6
203	92.16
203.218	69.7
203.437	51.93
203.656	48.34
203.874	52.89
204.093	77.25
204.311	54.54
204.53	53.44
204.748	73.27
204.967	132.25
205.185	165.36
205.404	111.01
205.622	134.57
205.841	161.36
206.059	83.27
206.278	70.12
206.496	89.78
206.715	151.18
206.933	101.07
207.151	58.64
207.37	-7.23
207.588	-130.83
207.806	-4.75
208.025	-178.38
208.243	53.07
208.461	-16.79
208.68	-49.66
208.898	7.33
209.116	-50.18
209.335	-85.36
209.553	-83.37
209.771	-269.93
209.989	812.84
210.208	-229.03
210.426	-322.37
210.644	-135.77
210.862	-2087.21
211.081	1508.2
211.299	373.36
211.517	121.38
211.735	77.65
211.953	59.02
212.171	75.16
212.39	45.73
212.608	57.26
212.826	48.71
213.044	40.45
213.262	16.36
213.48	6.4
213.698	7.31
213.916	60.37
214.134	75.18
214.352	81.44
214.57	82.48
214.788	83.8
215.006	100.14
215.224	89.42
215.442	126.59
215.66	145.04
215.878	184.9
216.096	286.76
216.314	78.63
216.532	91.66
216.75	172.91
216.968	107.48
217.185	134.2
217.403	50.15
217.621	79.65
217.839	86.24
218.057	95.06
218.275	96.1
218.492	91.65
218.71	107.86
218.928	97.88
219.146	85.83
219.363	113.93
219.581	96.71
219.799	167.26
220.017	148.39
220.234	118.89
220.452	128.6
220.67	129.97
220.887	155.44
221.105	113.58
221.323	115.52
221.54	91.77
221.758	52.63
221.976	89.06
222.193	60.25
222.411	72.38
222.629	68.3
222.846	62.91
223.064	68.26
223.281	72.38
223.499	84.22
223.716	90.09
223.934	83.96
224.151	107.32
224.369	99.2
224.586	109.14
224.804	83.23
225.021	88.27
225.239	75.11
225.456	51
225.674	24.1
225.891	17.87
226.108	21.3
226.326	14.14
226.543	20.33
226.76	18.98
226.978	21.24
227.195	24.28
227.413	15.53
227.63	30.09
227.847	31.49
228.064	31.2
228.282	29.94
228.499	23.14
228.716	28.89
228.934	26.19
229.151	23.05
229.368	17.26
229.585	18.25
229.802	20.49
230.02	16.98
230.237	17.78
230.454	19.79
230.671	18.57
230.888	20.7
231.105	15.41
231.323	13.88
231.54	20.57
231.757	25.82
231.974	31.86
232.191	33.08
232.408	34.49
232.625	37.83
232.842	30.46
233.059	30.39
233.276	34.51
233.493	42.43
233.71	40.07
233.927	36.15
234.144	41.71
234.361	35.56
234.578	39.26
234.795	36.38
235.012	25.42
235.229	29.92
235.446	30.86
235.663	26.69
235.879	26.18
236.096	33.97
236.313	30.31
236.53	23.3
236.747	15.02
236.964	5.47
237.181	-0.53
237.397	9.79
237.614	5.61
237.831	1.97
238.048	13.32
238.264	8.47
238.481	8.34
238.698	9.1
238.915	15.7
239.131	30.14
239.348	32.22
239.565	34.75
239.781	32.65
239.998	41.09
240.215	45.46
240.431	40.46
240.648	39.93
240.865	41.04
241.081	40.3
241.298	34.09
241.514	30.9
241.731	28.78
241.947	29.81
242.164	29.07
242.38	26.46
242.597	26.31
242.814	27.87
243.03	28.13
243.246	27.02
243.463	25.85
243.679	26.81
243.896	24.6
244.112	26.35
244.329	24.62
244.545	25.6
244.762	24.13
244.978	20.37
245.194	15.99
245.411	18.21
245.627	15.6
245.843	17.07
246.06	19.02
246.276	18
246.492	18.87
246.709	19.98
246.925	18.68
247.141	19.71
247.357	20.74
247.574	20.86
247.79	20.2
248.006	19.86
248.222	19.55
248.439	17.53
248.655	18.57
248.871	18.55
249.087	17.87
249.303	18.48
249.519	16.83
249.736	16.59
249.952	16.87
250.168	17.74
250.384	18.61
250.6	18.1
250.816	19.65
251.032	18.21
251.248	16.87
251.464	12.12
251.68	10.21
251.896	11.97
252.112	13.06
252.328	14.78
252.544	12.3
252.76	11.77
252.976	13.01
253.192	13.66
253.408	13.55
253.624	11.53
253.84	16.39
254.056	19.02
254.272	23.22
254.487	26.44
254.703	24.18
254.919	25.56
255.135	29.36
255.351	28.1
255.567	28.26
255.782	32.76
255.998	36.46
256.214	33.68
256.43	31.41
256.646	27.38
256.861	22.5
257.077	20.91
257.293	22.53
257.508	20.66
257.724	19.55
257.94	19.27
258.155	16.39
258.371	13.19
258.587	13.24
258.802	12.74
259.018	13.8
259.234	14.2
259.449	14.64
259.665	13.92
259.88	13.08
260.096	13.52
260.312	12.7
260.527	13.26
260.743	14.92
260.958	14.04
261.174	13.85
261.389	12.91
261.605	13.36
261.82	14.44
262.036	14.17
262.251	15.53
262.466	14.04
262.682	16.52
262.897	15.76
263.113	14.72
263.328	18.05
263.543	19.8
263.759	20.41
263.974	18.13
264.189	15.87
264.405	17.99
264.62	17.11
264.835	19.51
265.051	17.78
265.266	17.51
265.481	16.05
265.696	14.64
265.912	12.45
266.127	13.31
266.342	13.06
266.557	14.62
266.773	12.25
266.988	12.69
267.203	13.12
267.418	13.09
267.633	12.07
267.848	13.78
268.064	14.65
268.279	16.42
268.494	14.35
268.709	15.71
268.924	15.38
269.139	17.24
269.354	17.42
269.569	15.39
269.784	16.52
269.999	19.33
270.214	18.66
270.429	18.34
270.644	17.29
270.859	19.02
271.074	18.87
271.289	19.7
271.504	18.86
271.719	18
271.934	18.66
272.149	18.32
272.363	18.16
272.578	18.48
272.793	16.5
273.008	16.61
273.223	16.99
273.438	16.71
273.653	16.19
273.867	14.89
274.082	16.6
274.297	17.93
274.512	17.4
274.726	17.33
274.941	15.84
275.156	17.47
275.371	18.3
275.585	17.64
275.8	19.46
276.015	17.22
276.229	19.37
276.444	18.99
276.659	17.39
276.873	17.39
277.088	16.44
277.302	18.36
277.517	19.39
277.732	17.89
277.946	15.98
278.161	14.52
278.375	15.75
278.59	14.97
278.804	13.39
279.019	13.35
279.233	11.08
279.448	10.06
279.662	7.18
279.877	5.09
280.091	7.72
280.306	8.6
280.52	6.02
280.735	9.63
280.949	8.78
281.163	10.99
281.378	12.55
281.592	15.25
281.806	16.03
282.021	15.88
282.235	16.75
282.449	16.78
282.664	16.99
282.878	19.28
283.092	18.72
283.307	19.39
283.521	19.11
283.735	18.24
283.949	18.49
284.164	16.89
284.378	17.87
284.592	18.05
284.806	18.87
285.02	20.08
285.234	19.59
285.449	17.53
285.663	18.27
285.877	16.94
286.091	16.81
286.305	16.45
286.519	16.24
286.733	15.84
286.947	13.03
287.161	9.75
287.375	9.05
287.589	9.08
287.803	9.04
288.017	8.23
288.231	7.64
288.445	9.3
288.659	9.18
288.873	11.67
289.087	11.91
289.301	14.63
289.515	16.02
289.729	14.61
289.943	13.46
290.157	14.36
290.371	14.24
290.584	16.71
290.798	15.14
291.012	15.79
291.226	15.06
291.44	16.33
291.654	16.75
291.867	15.76
292.081	18.39
292.295	20.2
292.509	18.15
292.722	20.21
292.936	17.72
293.15	19.11
293.364	17.99
293.577	16.93
293.791	15.96
294.005	16.38
294.218	17.57
294.432	16.17
294.645	14.73
294.859	16.86
295.073	15.6
295.286	16.4
295.5	15.03
295.713	14.22
295.927	14.23
296.14	14.03
296.354	13.76
296.568	13.65
296.781	13.59
296.994	13.85
297.208	12.24
297.421	11.61
297.635	12.49
297.848	12.44
298.062	13.45
298.275	14.8
298.489	14.98
298.702	13.81
298.915	14.33
299.129	14.44
299.342	16.51
299.555	19.35
299.769	19.8
299.982	20.44
300.195	22.6
300.409	22.3
300.622	20.97
300.835	21.38
301.048	23.32
301.262	23.32
301.475	22.65
301.688	21.45
301.901	21.44
302.115	21.91
302.328	21.05
302.541	19.83
302.754	21.23
302.967	20.45
303.18	19.61
303.393	19.27
303.607	18.14
303.82	18.77
304.033	17.6
304.246	15.77
304.459	15.96
304.672	17.79
304.885	17.17
305.098	16.92
305.311	18.41
305.524	18.37
305.737	18.61
305.95	19
306.163	19.47
306.376	18.38
306.589	18.39
306.802	18.16
307.015	18.33
307.228	17.03
307.44	16.78
307.653	17.22
307.866	17.33
308.079	18.67
308.292	19.58
308.505	18.42
308.718	19.29
308.93	19.15
309.143	19.1
309.356	17.17
309.569	20.07
309.781	18.97
309.994	19.44
310.207	20.1
310.42	19.07
310.632	19.16
310.845	19.79
311.058	20.25
311.27	20.84
311.483	21.91
311.696	20.83
311.908	19.17
312.121	20.32
312.333	19.43
312.546	19.27
312.759	18.85
312.971	19.31
313.184	17.56
313.396	17.43
313.609	17.17
313.821	15.85
314.034	16.52
314.246	18.89
314.459	17.52
314.671	19.01
314.884	19.27
315.096	21.05
315.309	19.58
315.521	22.14
315.733	22.96
315.946	22.13
316.158	23.49
316.371	23.1
316.583	20.84
316.795	19.71
317.008	19.48
317.22	19.55
317.432	19.19
317.644	20.56
317.857	20.35
318.069	19.95
318.281	20.57
318.494	22.24
318.706	21.8
318.918	22.01
319.13	23.07
319.342	22.49
319.555	21.64
319.767	20.52
319.979	19.05
320.191	17.67
320.403	16.47
320.615	17.35
320.827	14.59
321.039	17.89
321.252	19.89
321.464	22.01
321.676	23.27
321.888	22.97
322.1	21.17
322.312	22.96
322.524	23.5
322.736	25.71
322.948	24.01
323.16	22.46
323.372	20.54
323.584	20.71
323.796	18.91
324.007	17.91
324.219	18.26
324.431	19.93
324.643	18.32
324.855	18.94
325.067	17.08
325.279	16.38
325.491	16.68
325.702	17.92
325.914	15.97
326.126	15.32
326.338	15.36
326.55	14.86
326.761	15.21
326.973	16.79
327.185	15.21
327.396	16.15
327.608	17.34
327.82	16.95
328.032	16.13
328.243	16.67
328.455	18.08
328.666	18.49
328.878	18.6
329.09	17.62
329.301	15.96
329.513	17.08
329.725	17.64
329.936	16.33
330.148	18.23
330.359	17.07
330.571	16.62
330.782	15.97
330.994	14.98
331.205	16.09
331.417	16.62
331.628	18.09
331.84	19.98
332.051	18.98
332.262	19.99
332.474	20.66
332.685	20.93
332.897	22.1
333.108	21.84
333.319	22.28
333.531	21.61
333.742	22.57
333.953	22.56
334.165	21.4
334.376	22.47
334.587	23.65
334.799	23.83
335.01	24.35
335.221	23.37
335.432	24.53
335.644	24.2
335.855	23.43
336.066	21.44
336.277	20.74
336.488	21.18
336.7	20.01
336.911	17.58
337.122	16.61
337.333	16.31
337.544	16.3
337.755	15.7
337.966	15.48
338.177	16.39
338.388	16.86
338.599	17.08
338.811	16.83
339.022	17.46
339.233	19
339.444	18.23
339.655	19.09
339.866	20.07
340.076	19.6
340.287	19.92
340.498	21
340.709	22.65
340.92	22.98
341.131	21.82
341.342	21.89
341.553	20.49
341.764	20.44
341.975	20.29
342.185	19.28
342.396	19.92
342.607	19.57
342.818	18.22
343.029	16.64
343.239	16.41
343.45	17.17
343.661	16.29
343.872	17.6
344.082	17.31
344.293	16.32
344.504	17.42
344.714	16.85
344.925	17.36
345.136	17.89
345.346	17.7
345.557	17.8
345.768	17.63
345.978	16.7
346.189	17.18
346.399	18.17
346.61	19.03
346.821	18.39
347.031	17.97
347.242	17.08
347.452	15.7
347.663	15.18
347.873	15.46
348.084	14.71
348.294	16.62
348.504	14.43
348.715	13.56
348.925	12.9
349.136	10.99
349.346	10.66
349.557	11.77
349.767	12.73
349.977	13.8
350.188	13.57
350.398	13.98
350.608	13.7
350.819	14.53
351.029	14.1
351.239	13.74
351.449	14.36
351.66	15.94
351.87	14.34
352.08	13.42
352.29	13.54
352.501	13.15
352.711	13.36
352.921	12.91
353.131	14.16
353.341	14.9
353.552	16.29
353.762	17.65
353.972	17.28
354.182	17.99
354.392	19.24
354.602	18.89
354.812	19.18
355.022	19.63
355.232	20.01
355.442	19.87
355.652	20.59
355.862	19.26
356.072	20.07
356.282	18.88
356.492	19.43
356.702	17.84
356.912	17.2
357.122	15.95
357.332	15.3
357.542	15.69
357.752	16.18
357.962	15.29
358.171	15.92
358.381	15.12
358.591	15.84
358.801	15.43
359.011	15.99
359.221	16.69
359.43	17.15
359.64	16.67
359.85	15.89
360.06	15.05
360.269	15.33
360.479	14.7
360.689	13.41
360.899	13
361.108	12.66
361.318	13.15
361.528	13.51
361.737	13.37
361.947	13.87
362.156	13.45
362.366	13.05
362.576	12.55
362.785	13.33
362.995	14.37
363.204	15.16
363.414	15.48
363.623	16.02
363.833	15.45
364.042	16.1
364.252	15.95
364.461	16.85
364.671	17.58
364.88	18.61
365.09	18.51
365.299	17.9
365.509	17.28
365.718	17.23
365.927	16.75
366.137	16.24
366.346	15.72
366.555	15.52
366.765	15.16
366.974	14.88
367.183	14.83
367.393	13.4
367.602	13.65
367.811	13.59
368.021	12.94
368.23	12.28
368.439	12.02
368.648	11.92
368.857	12.16
369.067	11.54
369.276	10.52
369.485	9.66
369.694	9.29
369.903	9.47
370.112	9.9
370.321	9.78
370.531	9.98
370.74	10.33
370.949	10.66
371.158	10.14
371.367	10.35
371.576	11.07
371.785	11.32
371.994	12.56
372.203	12.6
372.412	12.74
372.621	13.01
372.83	12.89
373.039	13.68
373.248	12.89
373.457	13.22
373.666	13.8
373.874	13.23
374.083	12.86
374.292	12.37
374.501	11.82
374.71	11.45
374.919	11.12
375.128	11.69
375.336	11.47
375.545	11.75
375.754	11.75
375.963	11.99
376.171	11.48
376.38	12.27
376.589	12.35
376.798	11.82
377.006	11.23
377.215	11.03
377.424	10.94
377.632	10.4
377.841	10.09
378.05	10.24
378.258	8.85
378.467	9.31
378.675	8.7
378.884	8.62
379.093	9.16
379.301	9.3
379.51	9.45
379.718	9.14
379.927	9.28
380.135	9.21
380.344	9.39
380.552	10.26
380.761	9.72
380.969	9.37
381.177	9.05
381.386	8.73
381.594	8.35
381.803	8.96
382.011	8.77
382.219	8.52
382.428	8.39
382.636	7.83
382.845	7.75
383.053	8.1
383.261	8.52
383.469	9
383.678	9.02
383.886	8.61
384.094	8.41
384.302	8.22
384.511	8.3
384.719	9.14
384.927	9.16
385.135	9.18
385.343	9.29
385.552	9.35
385.76	8.79
385.968	9.19
386.176	9.42
386.384	9.04
386.592	9.13
386.8	9.33
387.008	9.07
387.216	8.26
387.424	8.11
387.633	7.82
387.841	7.29
388.049	7.77
388.257	7.34
388.465	7.3
388.672	7.3
388.88	7.13
389.088	7.03
389.296	6.67
389.504	7.22
389.712	7.02
389.92	6.99
390.128	7.17
390.336	6.65
390.544	7.11
390.751	7.75
390.959	7.69
391.167	7.65
391.375	7.28
391.583	7.42
391.79	7.24
391.998	7.17
392.206	7.19
392.414	7.17
392.621	7.46
392.829	6.97
393.037	6.85
393.244	6.62
393.452	6.86
393.66	7.26
393.867	7.1
394.075	7.24
394.283	7.38
394.49	7.94
394.698	7.79
394.905	7.25
395.113	7.44
395.32	6.83
395.528	7.07
395.735	6.58
395.943	6.33
396.15	6.52
396.358	6.72
396.565	6.57
396.773	5.91
396.98	6.05
397.188	6.51
397.395	6.21
397.602	6.31
397.81	6.18
398.017	6.58
398.225	6.56
398.432	6.18
398.639	6.06
398.847	6.1
399.054	6.05
399.261	5.73
399.468	5.54
399.676	5.5
399.883	5.65
400.09	5.58
400.297	5.64
400.505	5.59
400.712	5.64
400.919	5.36
401.126	5.22
401.333	5.4
401.54	5.5
401.748	5.39
401.955	5.47
402.162	5.45
402.369	5.69
402.576	5.71
402.783	5.97
402.99	6.05
403.197	5.82
403.404	5.97
403.611	5.92
403.818	5.88
404.025	5.84
404.232	5.72
404.439	5.89
404.646	5.96
404.853	5.84
405.06	5.46
405.267	5.63
405.474	6.11
405.681	6.12
405.887	6.19
406.094	6.4
406.301	6.48
406.508	6.7
406.715	6.75
406.922	6.42
407.128	6.27
407.335	6.49
407.542	6.33
407.749	6.14
407.955	6.02
408.162	5.69
408.369	5.51
408.575	5.78
408.782	5.82
408.989	5.89
409.195	5.93
409.402	5.83
409.609	5.83
409.815	5.83
410.022	5.92
410.228	5.77
410.435	6.24
410.642	6.08
410.848	6.04
411.055	5.84
411.261	5.51
411.468	5.53
411.674	5.76
411.881	5.77
412.087	5.88
412.294	5.87
412.5	5.9
412.706	5.72
412.913	5.89
413.119	5.99
413.326	6.1
413.532	6.2
413.738	6.25
413.945	5.95
414.151	5.78
414.357	5.71
414.564	5.56
414.77	5.74
414.976	5.5
415.182	5.26
415.389	4.92
415.595	4.62
415.801	4.32
416.007	4.25
416.214	4.25
416.42	4.15
416.626	4.2
416.832	4.22
417.038	4.02
417.244	4.29
417.45	4.66
417.657	4.6
417.863	4.87
418.069	5.05
418.275	5.04
418.481	5.16
418.687	5.24
418.893	5.03
419.099	4.99
419.305	4.96
419.511	4.89
419.717	4.76
419.923	4.66
420.129	4.51
420.335	4.59
420.541	4.44
420.746	4.38
420.952	4.33
421.158	4.49
421.364	4.52
421.57	4.62
421.776	4.53
421.982	4.47
422.187	4.65
422.393	4.77
422.599	4.74
422.805	4.92
423.01	5.06
423.216	5.07
423.422	4.93
423.628	4.86
423.833	4.8
424.039	4.83
424.245	4.79
424.45	4.83
424.656	4.85
424.862	4.85
425.067	4.84
425.273	4.84
425.478	4.93
425.684	5
425.889	5.08
426.095	5.12
426.301	5.1
426.506	5.22
426.712	5.22
426.917	5.06
427.123	5.05
427.328	5.09
427.533	4.95
427.739	4.71
427.944	4.81
428.15	4.72
428.355	4.84
428.561	4.96
428.766	4.74
428.971	4.62
429.177	4.78
429.382	4.58
429.587	4.45
429.793	4.45
429.998	4.61
430.203	4.63
430.408	4.79
430.614	4.6
430.819	4.65
431.024	4.75
431.229	4.63
431.434	4.74
431.64	4.87
431.845	5.02
432.05	5.02
432.255	5.03
432.46	4.99
432.665	5.03
432.87	5.01
433.076	4.94
433.281	4.75
433.486	4.92
433.691	4.75
433.896	4.76
434.101	4.85
434.306	4.96
434.511	5.13
434.716	5.15
434.921	5.22
435.126	5.32
435.331	5.14
435.535	5.45
435.74	5.28
435.945	5.27
436.15	5.13
436.355	4.89
436.56	4.6
436.765	4.34
436.97	4.35
437.174	4.29
437.379	4.37
437.584	4.5
437.789	4.2
437.993	4.34
438.198	4.34
438.403	4.38
438.608	4.39
438.812	4.57
439.017	4.68
439.222	4.72
439.426	4.74
439.631	4.76
439.836	4.85
440.04	5.04
440.245	5.03
440.45	5.13
440.654	5.18
440.859	5.35
441.063	5.36
441.268	5.35
441.472	5.23
441.677	5.12
441.881	4.92
442.086	4.79
442.29	4.6
442.495	4.51
442.699	4.45
442.904	4.43
443.108	4.33
443.312	4.33
443.517	4.42
443.721	4.36
443.925	4.38
444.13	4.47
444.334	4.64
444.538	4.86
444.743	4.89
444.947	4.9
445.151	4.86
445.356	4.98
445.56	4.89
445.764	4.71
445.968	4.68
446.173	4.62
446.377	4.58
446.581	4.51
446.785	4.46
446.989	4.59
447.193	4.53
447.398	4.62
447.602	4.39
447.806	4.5
448.01	4.47
448.214	4.47
448.418	4.35
448.622	4.38
448.826	4.4
449.03	4.27
449.234	4.11
449.438	4.02
449.642	3.99
449.846	4.12
450.05	3.77
450.254	3.8
450.458	3.9
450.662	4.01
450.866	4.16
451.069	4.17
451.273	4.3
451.477	4.36
451.681	4.58
451.885	4.36
452.089	4.38
452.292	4.53
452.496	4.64
452.7	4.59
452.904	4.6
453.107	4.42
453.311	4.33
453.515	4.28
453.719	4.11
453.922	4.02
454.126	4.03
454.33	3.89
454.533	3.97
454.737	3.84
454.94	4.02
455.144	4.08
455.348	4.07
455.551	4.02
455.755	4.07
455.958	4.14
456.162	4.13
456.365	4.21
456.569	4.2
456.772	4.1
456.976	4.14
457.179	4.11
457.383	3.96
457.586	4.04
457.79	4.04
457.993	3.99
458.196	4.06
458.4	4.1
458.603	4.12
458.807	4.36
459.01	4.46
459.213	4.45
459.417	4.35
459.62	4.48
459.823	4.54
460.026	4.74
460.23	4.72
460.433	4.56
460.636	4.57
460.839	4.66
461.042	4.56
461.246	4.66
461.449	4.65
461.652	4.76
461.855	4.7
462.058	4.68
462.261	4.48
462.464	4.71
462.668	4.94
462.871	5
463.074	4.91
463.277	4.8
463.48	4.59
463.683	4.67
463.886	4.41
464.089	4.47
464.292	4.46
464.495	4.4
464.698	4.33
464.901	4.23
465.104	4.12
465.306	4.3
465.509	4.32
465.712	4.28
465.915	4.12
466.118	4.12
466.321	4.21
466.524	4
466.726	4.21
466.929	4.1
467.132	4.13
467.335	4.09
467.538	3.93
467.74	3.88
467.943	3.98
468.146	3.94
468.348	4.13
468.551	3.77
468.754	3.87
468.956	3.58
469.159	3.54
469.362	3.74
469.564	3.79
469.767	3.68
469.969	3.9
470.172	4
470.375	4.15
470.577	4.18
470.78	4.5
470.982	4.55
471.185	4.49
471.387	4.59
471.59	4.45
471.792	4.54
471.995	4.72
472.197	4.68
472.399	4.51
472.602	4.45
472.804	4.41
473.007	4.34
473.209	4.3
473.411	4.56
473.614	4.71
473.816	4.59
474.018	4.42
474.22	4.41
474.423	4.12
474.625	4.15
474.827	4.27
475.03	4.27
475.232	4.34
475.434	4.39
475.636	4.36
475.838	4.26
476.04	4.17
476.243	4.14
476.445	4.27
476.647	4.44
476.849	4.53
477.051	4.68
477.253	4.64
477.455	4.58
477.657	4.67
477.859	4.5
478.061	4.49
478.263	4.75
478.465	4.78
478.667	4.58
478.869	4.56
479.071	4.5
479.273	4.37
479.475	4.29
479.677	4.34
479.879	4.15
480.081	4.38
480.283	4.35
480.485	4.28
480.686	4.27
480.888	4.27
481.09	4.28
481.292	4.26
481.494	4.1
481.695	4.19
481.897	4.2
482.099	4.21
482.301	4.18
482.502	4.21
482.704	4.16
482.906	4.15
483.107	4.16
483.309	4.13
483.511	4.09
483.712	4.12
483.914	4.05
484.115	4.02
484.317	4.02
484.519	3.99
484.72	3.96
484.922	3.95
485.123	3.93
485.325	3.9
485.526	3.87
485.728	3.88
485.929	3.95
486.131	3.94
486.332	3.98
486.534	4.03
486.735	4.04
486.936	4.04
487.138	4.02
487.339	4.05
487.541	4.1
487.742	4.12
487.943	4.17
488.144	4.14
488.346	4.21
488.547	4.21
488.748	4.22
488.95	4.23
489.151	4.23
489.352	4.34
489.553	4.37
489.755	4.34
489.956	4.39
490.157	4.33
490.358	4.24
490.559	4.23
490.76	4.21
490.961	4.17
491.163	4.19
491.364	4.2
491.565	4.12
491.766	4.14
491.967	4.17
492.168	4.04
492.369	4.05
492.57	4.19
492.771	4.2
492.972	4.19
493.173	4.18
493.374	4.16
493.575	4.17
493.776	4.2
493.976	4.15
494.177	4.17
494.378	4.47
494.579	4.42
494.78	4.37
494.981	4.31
495.182	4.24
495.382	4.23
495.583	4.14
495.784	4.31
495.985	4.24
496.185	4.19
496.386	4.08
496.587	3.97
496.788	4.13
496.988	4.1
497.189	4.02
497.39	4.02
497.59	4.04
497.791	4.14
497.992	4.1
498.192	4.19
498.393	4.36
498.593	4.38
498.794	4.35
498.994	4.18
499.195	4.11
499.395	4.19
499.596	4.29
499.796	4.37
499.997	4.3
500.197	4.1
500.398	4.04
500.598	3.89
500.799	4
500.999	4.13
501.199	4.32
501.4	4.47
501.6	4.55
501.801	4.56
502.001	4.59
502.201	4.65
502.402	4.79
502.602	4.9
502.802	5.07
503.002	4.85
503.203	4.82
503.403	4.76
503.603	4.58
503.803	4.54
504.003	4.57
504.204	4.57
504.404	4.35
504.604	4.38
504.804	4.3
505.004	4.24
505.204	4.32
505.404	4.33
505.604	4.33
505.804	4.48
506.005	4.53
506.205	4.48
506.405	4.45
506.605	4.66
506.805	4.58
507.005	4.62
507.204	4.7
507.404	4.89
507.604	4.97
507.804	4.87
508.004	4.8
508.204	4.78
508.404	4.78
508.604	4.79
508.804	4.77
509.003	4.82
509.203	4.92
509.403	4.95
509.603	4.94
509.803	4.86
510.002	4.92
510.202	5.05
510.402	5.23
510.602	5.29
510.801	5.36
511.001	5.33
511.201	5.33
511.4	5.3
511.6	5.29
511.8	5.2
511.999	5.22
512.199	5.28
512.398	4.96
512.598	4.87
512.797	4.93
512.997	4.89
513.197	5.01
513.396	4.93
513.596	4.88
513.795	4.81
513.994	4.85
514.194	4.84
514.393	4.94
514.593	5.21
514.792	5.19
514.992	5.12
515.191	5.07
515.39	5.06
515.59	5.16
515.789	5.36
515.988	5.35
516.188	5.19
516.387	5.28
516.586	5.05
516.786	4.95
516.985	5.04
517.184	5.03
517.383	5.09
517.582	5.07
517.782	5.08
517.981	4.85
518.18	4.82
518.379	4.95
518.578	4.86
518.777	4.98
518.976	4.99
519.176	4.9
519.375	4.93
519.574	5.01
519.773	5.05
519.972	5.02
520.171	5.14
520.37	5.13
520.569	5.24
520.768	5.34
520.967	5.29
521.166	5.34
521.365	5.28
521.564	5.36
521.762	5.17
521.961	5.26
522.16	5.2
522.359	5.21
522.558	5.24
522.757	5.29
522.956	5.34
523.154	5.51
523.353	5.62
523.552	5.57
523.751	5.42
523.949	5.53
524.148	5.49
524.347	5.6
524.546	5.66
524.744	5.7
524.943	5.55
525.142	5.54
525.34	5.51
525.539	5.42
525.737	5.53
525.936	5.57
526.135	5.54
526.333	5.55
526.532	5.58
526.73	5.52
526.929	5.55
527.127	5.61
527.326	5.66
527.524	5.61
527.723	5.61
527.921	5.61
528.12	5.63
528.318	5.63
528.516	5.62
528.715	5.64
528.913	5.63
529.112	5.65
529.31	5.66
529.508	5.61
529.707	5.6
529.905	5.65
530.103	5.68
530.301	5.83
530.5	5.93
530.698	5.94
530.896	5.94
531.094	6.06
531.293	5.99
531.491	5.96
531.689	6.09
531.887	6.19
532.085	6.23
532.283	6.22
532.481	6.09
532.68	5.98
532.878	6.12
533.076	6.15
533.274	6.14
533.472	6.22
533.67	6.27
533.868	6.24
534.066	6.24
534.264	6.17
534.462	6.23
534.66	6.24
534.858	6.44
535.056	6.32
535.253	6.37
535.451	6.36
535.649	6.29
535.847	6.3
536.045	6.32
536.243	6.32
536.441	6.44
536.638	6.38
536.836	6.43
537.034	6.4
537.232	6.49
537.43	6.51
537.627	6.56
537.825	6.67
538.023	6.79
538.22	6.77
538.418	6.87
538.616	6.93
538.813	7.19
539.011	7.18
539.209	7.09
539.406	7.22
539.604	7.1
539.801	7.21
539.999	7.27
540.196	7.18
540.394	7.24
540.591	7.16
540.789	7.14
540.986	7.06
541.184	7.1
541.381	7.14
541.579	7.04
541.776	7.11
541.974	7.08
542.171	7.05
542.368	7.14
542.566	7.24
542.763	7.32
542.96	7.36
543.158	7.38
543.355	7.43
543.552	7.57
543.75	7.78
543.947	7.83
544.144	7.88
544.341	7.93
544.539	8
544.736	7.85
544.933	7.84
545.13	7.92
545.327	7.98
545.524	8.1
545.722	8.03
545.919	8.04
546.116	8.16
546.313	8.27
546.51	8.4
546.707	8.45
546.904	8.66
547.101	8.71
547.298	8.73
547.495	8.74
547.692	8.67
547.889	8.72
548.086	8.7
548.283	8.68
548.48	8.71
548.677	8.9
548.874	8.98
549.07	8.92
549.267	9.06
549.464	9.01
549.661	9.22
549.858	9.36
550.055	9.45
550.251	9.52
550.448	9.49
550.645	9.6
550.842	9.5
551.038	9.41
551.235	9.64
551.432	9.51
551.628	9.89
551.825	9.72
552.022	9.53
552.218	9.71
552.415	9.65
552.612	9.82
552.808	9.53
553.005	9.51
553.201	9.38
553.398	9.49
553.594	9.77
553.791	9.68
553.987	9.82
554.184	10.19
554.38	10.23
554.577	10.35
554.773	10.36
554.97	10.66
555.166	10.73
555.362	10.92
555.559	10.76
555.755	10.68
555.952	10.67
556.148	10.74
556.344	10.72
556.541	10.66
556.737	10.77
556.933	10.72
557.129	10.96
557.326	11.16
557.522	11.16
557.718	11.38
557.914	11.48
558.11	11.57
558.307	11.56
558.503	11.62
558.699	11.75
558.895	11.85
559.091	11.95
559.287	11.85
559.483	11.83
559.679	12
559.876	12
560.072	12.08
560.268	12.1
560.464	12.25
560.66	12.25
560.856	12.29
561.052	12.2
561.247	12.3
561.443	12.46
561.639	12.43
561.835	12.59
562.031	12.56
562.227	12.61
562.423	12.61
562.619	12.61
562.815	12.63
563.01	12.6
563.206	12.62
563.402	12.68
563.598	12.75
563.793	12.93
563.989	13.09
564.185	13.2
564.381	13.15
564.576	13.23
564.772	13.27
564.968	13.17
565.163	13.34
565.359	13.46
565.555	13.35
565.75	13.43
565.946	13.44
566.141	13.44
566.337	13.49
566.532	13.72
566.728	13.85
566.923	13.98
567.119	14.24
567.314	14.33
567.51	14.47
567.705	14.67
567.901	14.43
568.096	14.64
568.292	14.58
568.487	14.71
568.682	14.67
568.878	14.81
569.073	15
569.268	14.91
569.464	14.76
569.659	14.88
569.854	15.03
570.05	15.33
570.245	15.27
570.44	15.36
570.635	15.26
570.831	15.41
571.026	15.41
571.221	15.56
571.416	15.67
571.611	15.91
571.806	15.8
572.002	15.8
572.197	15.83
572.392	16.02
572.587	16.06
572.782	16.15
572.977	16.21
573.172	16.05
573.367	15.95
573.562	16.12
573.757	15.97
573.952	16.13
574.147	16.18
574.342	16.33
574.537	16.16
574.732	16.26
574.927	16.28
575.121	16.28
575.316	16.39
575.511	16.49
575.706	16.16
575.901	16.12
576.096	15.99
576.29	16.1
576.485	16.01
576.68	16.08
576.875	16.25
577.069	16.21
577.264	16.14
577.459	16.37
577.654	16.23
577.848	16.62
578.043	16.93
578.238	16.87
578.432	16.82
578.627	16.79
578.821	16.74
579.016	16.66
579.21	16.97
579.405	17.05
579.6	16.91
579.794	16.72
579.989	16.63
580.183	16.71
580.378	16.74
580.572	16.72
580.766	16.62
580.961	17
581.155	16.9
581.35	16.7
581.544	16.59
581.738	16.84
581.933	17.21
582.127	17.4
582.321	17.13
582.516	17.45
582.71	17.48
582.904	17.68
583.099	17.37
583.293	17.74
583.487	17.92
583.681	18.03
583.875	17.75
584.07	17.69
584.264	17.46
584.458	17.67
584.652	17.72
584.846	17.58
585.04	17.41
585.234	17.51
585.428	17.07
585.623	17.05
585.817	17.05
586.011	17.17
586.205	17.25
586.399	17.4
586.593	17.29
586.787	17.21
586.981	17.5
587.174	17.68
587.368	17.67
587.562	17.78
587.756	17.58
587.95	17.87
588.144	18.18
588.338	17.97
588.532	17.84
588.725	17.77
588.919	17.95
589.113	18
589.307	17.98
589.501	18.03
589.694	18.17
589.888	18.13
590.082	18.27
590.275	18.13
590.469	18.16
590.663	18.26
590.856	18.43
591.05	18.1
591.244	17.8
591.437	17.68
591.631	17.52
591.824	17.33
592.018	17.55
592.212	17.27
592.405	17.09
592.599	17.32
592.792	17.29
592.986	17.42
593.179	17.73
593.372	18.21
593.566	18.29
593.759	18.24
593.953	18.34
594.146	18.38
594.339	18.26
594.533	18.46
594.726	18.37
594.92	18.37
595.113	18.25
595.306	18.08
595.499	17.74
595.693	17.9
595.886	18.16
596.079	18.14
596.272	18.03
596.466	18.21
596.659	18.04
596.852	17.96
597.045	18
597.238	17.9
597.431	18.1
597.624	18.18
597.818	18.13
598.011	17.91
598.204	17.77
598.397	17.99
598.59	17.96
598.783	17.98
598.976	18.13
599.169	18.32
599.362	18.43
599.555	18.32
599.748	18.11
599.941	18.16
600.134	18.2
600.326	18.7
600.519	18.54
600.712	18.33
600.905	18.48
601.098	18.26
601.291	18.17
601.483	18.32
601.676	18.07
601.869	18.08
602.062	18.05
602.255	18.35
602.447	18.01
602.64	18.01
602.833	18.26
603.025	18.15
603.218	18.24
603.411	18.1
603.603	17.91
603.796	18.26
603.989	18.65
604.181	18.58
604.374	18.45
604.566	18.58
604.759	18.54
604.951	18.57
605.144	18.49
605.336	18.8
605.529	18.85
605.721	18.93
605.914	18.77
606.106	18.61
606.299	18.81
606.491	18.96
606.683	19
606.876	19.21
607.068	19.03
607.26	19.29
607.453	19.01
607.645	18.93
607.837	19.11
608.03	18.97
608.222	19.12
608.414	18.98
608.606	18.86
608.799	18.97
608.991	18.93
609.183	18.87
609.375	18.97
609.567	18.79
609.759	18.94
609.952	18.96
610.144	19.08
610.336	18.84
610.528	18.7
610.72	18.84
610.912	18.69
611.104	18.76
611.296	18.75
611.488	18.46
611.68	18.65
611.872	18.46
612.064	18.32
612.256	18.51
612.448	18.81
612.64	19.13
612.832	19.27
613.023	19.29
613.215	19.01
613.407	18.89
613.599	19.18
613.791	19.19
613.983	19.23
614.174	19.61
614.366	19.46
614.558	19.22
614.75	19.08
614.941	18.76
615.133	18.84
615.325	19.05
615.516	19.48
615.708	19.25
615.9	19.13
616.091	19.16
616.283	18.78
616.475	18.67
616.666	18.56
616.858	18.62
617.049	18.53
617.241	18.44
617.432	18.53
617.624	18.38
617.815	18.58
618.007	18.63
618.198	18.69
618.39	18.9
618.581	19.11
618.773	19.31
618.964	19.09
619.155	19
619.347	18.82
619.538	18.79
619.729	18.87
619.921	18.91
620.112	19.04
620.303	19.22
620.494	19.17
620.686	19.03
620.877	18.76
621.068	18.76
621.259	19
621.451	19.17
621.642	18.92
621.833	19.05
622.024	19.25
622.215	19.05
622.406	18.76
622.597	18.56
622.788	18.28
622.98	18.65
623.171	18.6
623.362	18.58
623.553	18.78
623.744	18.82
623.935	18.6
624.126	17.75
624.317	17.73
624.508	18.08
624.698	17.87
624.889	18.31
625.08	18.16
625.271	18.44
625.462	18.7
625.653	18.25
625.844	18.55
626.034	18.72
626.225	19.28
626.416	19.19
626.607	18.88
626.798	19.26
626.988	19.26
627.179	19.38
627.37	19.24
627.56	19.01
627.751	19.26
627.942	19
628.132	19.04
628.323	18.78
628.514	18.92
628.704	19.46
628.895	19.14
629.085	19.04
629.276	19.1
629.466	19.1
629.657	19.25
629.847	19.22
630.038	19.43
630.228	19.31
630.419	19.49
630.609	19.47
630.8	18.99
630.99	19.16
631.181	19.24
631.371	19.1
631.561	19.3
631.752	19.41
631.942	19.49
632.132	19.15
632.323	18.94
632.513	19.2
632.703	19.06
632.893	19.3
633.084	19.36
633.274	19.19
633.464	19.28
633.654	19.22
633.844	18.61
634.034	18.44
634.225	18.67
634.415	18.95
634.605	18.55
634.795	18.82
634.985	18.71
635.175	18.6
635.365	18.69
635.555	18.49
635.745	18.29
635.935	18.68
636.125	18.79
636.315	18.75
636.505	18.64
636.695	18.73
636.885	18.55
637.075	18.31
637.265	18.12
637.455	18.37
637.644	18.72
637.834	19.17
638.024	18.98
638.214	18.96
638.404	19.18
638.593	18.76
638.783	18.85
638.973	19.11
639.163	19.5
639.352	19.73
639.542	19.5
639.732	19.04
639.921	18.67
640.111	18.78
640.301	18.62
640.49	18.51
640.68	18.67
640.87	18.77
641.059	18.76
641.249	18.52
641.438	18.57
641.628	18.45
641.817	19.02
642.007	19.37
642.196	19.67
642.386	19.86
642.575	19.17
642.764	19.56
642.954	19.46
643.143	19.37
643.333	19.44
643.522	19.68
643.711	19.45
643.901	19.15
644.09	18.66
644.279	18.66
644.469	18.74
644.658	19.5
644.847	19.66
645.036	19.8
645.226	20.36
645.415	20.43
645.604	20.33
645.793	20.45
645.982	20.48
646.171	20.96
646.361	21.34
646.55	21.37
646.739	21.13
646.928	21.25
647.117	21.25
647.306	20.43
647.495	20.66
647.684	20.6
647.873	20.92
648.062	20.84
648.251	20.95
648.44	20.36
648.629	20.17
648.818	20.05
649.007	19.4
649.196	19.16
649.384	19.36
649.573	19.09
649.762	19.02
649.951	19.26
650.14	19.67
650.328	19.33
650.517	19.63
650.706	19.69
650.895	19.88
651.083	19.84
651.272	19.98
651.461	20.33
651.65	20.37
651.838	20.45
652.027	20.16
652.216	19.45
652.404	19.55
652.593	19.19
652.781	19.33
652.97	19.28
653.158	19.39
653.347	19.82
653.535	19.2
653.724	19.19
653.912	18.93
654.101	18.09
654.289	18.31
654.478	18.49
654.666	18.61
654.855	18.74
655.043	18.81
655.231	19.1
655.42	18.97
655.608	19
655.796	18.7
655.985	18.73
656.173	19.7
656.361	19.87
656.55	19.86
656.738	20.12
656.926	20.01
657.114	20.14
657.302	20.32
657.491	20.24
657.679	20.26
657.867	20.61
658.055	20.68
658.243	20.55
658.431	20.37
658.619	20.27
658.807	20.26
658.996	20.4
659.184	20.19
659.372	19.92
659.56	19.8
659.748	20.11
659.936	19.67
660.124	19.77
660.311	19.65
660.499	19.97
660.687	19.97
660.875	19.98
661.063	19.73
661.251	19.95
661.439	20.18
661.627	20.31
661.814	20.02
662.002	20.49
662.19	20.32
662.378	20.24
662.565	20.28
662.753	20.29
662.941	19.99
663.129	19.94
663.316	19.9
663.504	19.41
663.692	19.15
663.879	19.29
664.067	19.39
664.254	19.49
664.442	19.78
664.63	19.51
664.817	19.24
665.005	19.47
665.192	19.62
665.38	19.42
665.567	19.77
665.755	19.96
665.942	19.99
666.13	19.65
666.317	19.56
666.504	19.28
666.692	19.66
666.879	19.33
667.067	19.23
667.254	19.3
667.441	20.1
667.629	20.11
667.816	19.88
668.003	19.75
668.19	20.08
668.378	20.68
668.565	20.74
668.752	20.13
668.939	20.42
669.127	19.82
669.314	19.75
669.501	19.23
669.688	18.98
669.875	19.3
670.062	19.21
670.249	19.31
670.436	18.58
670.623	18.86
670.81	19.33
670.997	19.41
671.184	19.84
671.371	20.03
671.558	19.53
671.745	19.65
671.932	19.28
672.119	19.71
672.306	19.58
672.493	19.98
672.68	20.17
672.867	19.84
673.054	19.91
673.24	19.8
673.427	19.82
673.614	20.38
673.801	20.09
673.988	20.23
674.174	20.11
674.361	20.27
674.548	19.99
674.734	19.85
674.921	19.85
675.108	19.76
675.294	19.87
675.481	19.61
675.668	19.2
675.854	19.37
676.041	19.22
676.227	18.84
676.414	18.53
676.601	19.08
676.787	18.95
676.974	19.2
677.16	19.46
677.347	19.17
677.533	19.53
677.719	19.89
677.906	19.81
678.092	19.8
678.279	19.82
678.465	20.09
678.651	19.76
678.838	19.79
679.024	19.62
679.21	19.32
679.397	20.03
679.583	19.64
679.769	19.67
679.955	19.98
680.142	19.79
680.328	19.99
680.514	19.72
680.7	19.52
680.886	19.26
681.073	19.15
681.259	19.14
681.445	18.43
681.631	18.68
681.817	18.35
682.003	17.97
682.189	18.34
682.375	18.66
682.561	18.57
682.747	18.84
682.933	19.64
683.119	19.43
683.305	19.46
683.491	19.87
683.677	19.87
683.863	20.02
684.049	20.38
684.235	20.75
684.42	20.52
684.606	20.58
684.792	20.61
684.978	20.44
685.164	20.71
685.349	20.84
685.535	21.14
685.721	20.79
685.907	20.81
686.092	21.14
686.278	20.94
686.464	19.98
686.649	20.31
686.835	20.17
687.021	19.73
687.206	20.31
687.392	20.27
687.577	20.1
687.763	19.99
687.948	20.16
688.134	19.52
688.319	19.36
688.505	19.98
688.69	19.55
688.876	19.91
689.061	19.68
689.247	18.95
689.432	18.83
689.618	18.68
689.803	18.91
689.988	19.12
690.174	19.5
690.359	19.49
690.544	19.59
690.73	19.8
690.915	19.67
691.1	20.25
691.285	20.32
691.471	20.42
691.656	20.45
691.841	20.32
692.026	20.05
692.211	20.21
692.396	20.48
692.582	21.1
692.767	21.51
692.952	21.15
693.137	20.34
693.322	20.59
693.507	21.09
693.692	21.4
693.877	21.59
694.062	21.63
694.247	21.48
694.432	20.89
694.617	20.64
694.802	20.64
694.987	20.95
695.172	21.37
695.357	22.03
695.541	21.47
695.726	20.81
695.911	21
696.096	21.01
696.281	20.61
696.466	20.81
696.65	21.08
696.835	20.75
697.02	20.24
697.204	20.2
697.389	19.61
697.574	20.1
697.759	20.41
697.943	20.1
698.128	19.99
698.312	20.19
698.497	20.34
698.682	20.03
698.866	19.9
699.051	20.26
699.235	20.24
699.42	20.36
699.604	20.05
699.789	20.23
699.973	20.03
700.158	20.05
700.342	19.54
700.527	19.47
700.711	19.4
700.895	19.64
701.08	19.28
701.264	19.41
701.448	19.24
701.633	19.31
701.817	19.44
702.001	20.06
702.186	19.88
702.37	20.5
702.554	20.58
702.738	20.52
702.923	20.39
703.107	20.51
703.291	20
703.475	20.12
703.659	20.9
703.843	21.35
704.027	22.14
704.212	22.32
704.396	22.52
704.58	23.07
704.764	23.38
704.948	23.25
705.132	23.92
705.316	24.47
705.5	25.1
705.684	23.85
705.868	23.08
706.052	22.08
706.235	22.4
706.419	22.43
706.603	22.1
706.787	21.57
706.971	21.9
707.155	21.14
707.339	20.63
707.522	20.03
707.706	19.93
707.89	19.56
708.074	19.16
708.257	19.3
708.441	19.43
708.625	19.05
708.808	19.36
708.992	19.47
709.176	19.93
709.359	20.09
709.543	20.42
709.727	20.32
709.91	20.71
710.094	21.26
710.277	20.43
710.461	19.99
710.644	20.06
710.828	19.99
711.011	19.72
711.195	19.26
711.378	20.31
711.562	20.16
711.745	21.1
711.928	21.19
712.112	21.73
712.295	21.68
712.478	21.76
712.662	21.52
712.845	21.79
713.028	21.91
713.212	22.09
713.395	21.4
713.578	20.92
713.761	20.61
713.945	19.93
714.128	19.39
714.311	19.52
714.494	19.65
714.677	19.75
714.86	19.19
715.043	19.07
715.227	19.2
715.41	20.07
715.593	19.53
715.776	18.77
715.959	19.44
716.142	19.81
716.325	20.38
716.508	20.33
716.691	20.07
716.874	20.94
717.057	20.71
717.239	21.55
717.422	20.29
717.605	21.09
717.788	21.91
717.971	21.89
718.154	21.67
718.337	21
718.519	21.21
718.702	21.9
718.885	21.16
719.068	21.07
719.25	21.14
719.433	21.77
719.616	22.01
719.798	22.24
719.981	22.51
720.164	22.85
720.346	23.75
720.529	23.16
720.712	23.38
720.894	23.96
721.077	24.57
721.259	24.01
721.442	24.09
721.624	24.66
721.807	25.64
721.989	24.97
722.172	24.46
722.354	24.67
722.537	25.12
722.719	24.62
722.901	24.33
723.084	23.9
723.266	22.78
723.448	22.21
723.631	21.55
723.813	20.56
723.995	19.84
724.178	20.28
724.36	20.2
724.542	20.43
724.724	20.93
724.907	21.19
725.089	22.04
725.271	23.14
725.453	23.5
725.635	23.37
725.817	23.88
725.999	24.53
726.181	24.47
726.364	23.29
726.546	23.53
726.728	23.24
726.91	23.02
727.092	23.98
727.274	23.51
727.456	23.61
727.638	24.24
727.819	24.1
728.001	24.14
728.183	23.75
728.365	24.17
728.547	24.2
728.729	23.33
728.911	23.34
729.093	22.12
729.274	21.74
729.456	21.98
729.638	21.42
729.82	21.19
730.001	21.33
730.183	21.61
730.365	21.95
730.546	21.88
730.728	22.77
730.91	23.05
731.091	22.72
731.273	23.45
731.455	22.43
731.636	22.16
731.818	22.34
731.999	23.16
732.181	23.31
732.362	23.18
732.544	23.81
732.725	24.23
732.907	24.43
733.088	24.25
733.27	24.65
733.451	26.23
733.633	26.98
733.814	27.44
733.995	26.92
734.177	26.02
734.358	25.56
734.539	24.74
734.721	23.37
734.902	22.16
735.083	23.02
735.264	22.76
735.446	22.12
735.627	22.41
735.808	21.74
735.989	20.71
736.17	21.56
736.351	22.33
736.533	21.96
736.714	22.43
736.895	22.96
737.076	23.68
737.257	22.15
737.438	22.89
737.619	21.27
737.8	21.66
737.981	22.79
738.162	23.09
738.343	23.69
738.524	23.32
738.705	23.97
738.886	23.51
739.067	22.95
739.247	23.94
739.428	22.23
739.609	23.73
739.79	21.71
739.971	20.71
740.151	19.28
740.332	19.11
740.513	20.11
740.694	20.74
740.874	21.81
741.055	21.08
741.236	21.3
741.417	21.7
741.597	20.5
741.778	22.44
741.958	22.64
742.139	24.06
742.32	23.91
742.5	24.23
742.681	23.52
742.861	24.67
743.042	24.55
743.222	25.19
743.403	25.92
743.583	25.84
743.764	26.45
743.944	27.14
744.124	26.45
744.305	25.58
744.485	24.84
744.666	25.98
744.846	24.48
745.026	24.63
745.207	24.29
745.387	23.02
745.567	23.68
745.747	22.49
745.928	21.44
746.108	22.1
746.288	21.5
746.468	22.62
746.648	21.54
746.829	21.91
747.009	22.79
747.189	21.77
747.369	22.93
747.549	23.25
747.729	22.34
747.909	23.33
748.089	22.48
748.269	23.07
748.449	23.75
748.629	23.03
748.809	23.14
748.989	22.52
749.169	23.14
749.349	22.76
749.529	22.65
749.709	23.22
749.889	22.78
750.068	23.18
750.248	24.52
750.428	24.16
750.608	24.72
750.788	24.86
750.967	24.8
751.147	24.78
751.327	24.54
751.507	24.66
751.686	25.4
751.866	26.13
752.046	26.56
752.225	25.52
752.405	24.28
752.585	23.78
752.764	22.99
752.944	23.43
753.123	24.42
753.303	24.8
753.482	24.69
753.662	23.37
753.841	22.84
754.021	22.61
754.2	22.99
754.38	22.44
754.559	22.33
754.739	22.83
754.918	22.6
755.097	20.87
755.277	20.92
755.456	19.8
755.635	20.76
755.815	20.3
755.994	19.63
756.173	20.18
756.352	21.05
756.532	21.34
756.711	21.15
756.89	19.97
757.069	21.12
757.248	21.96
757.427	22.57
757.607	22.54
757.786	22
757.965	21.3
758.144	20.29
758.323	19.25
758.502	19.76
758.681	19.76
758.86	20.69
759.039	19.98
759.218	19.89
759.397	21.45
759.576	21.4
759.755	21.91
759.934	21.97
760.113	22.38
760.291	23.68
760.47	23.51
760.649	22.74
760.828	23.74
761.007	24.18
761.186	23.97
761.364	22.64
761.543	23.34
761.722	24.24
761.901	24.84
762.079	24.16
762.258	22.95
762.437	21.76
762.615	22.45
762.794	22.13
762.972	21.76
763.151	20.8
763.33	20.7
763.508	20.46
763.687	20.45
763.865	20.62
764.044	20.53
764.222	21.46
764.401	22.09
764.579	22.12
764.758	21.9
764.936	22.05
765.114	22.21
765.293	22.94
765.471	22.77
765.65	23.02
765.828	21.88
766.006	21.84
766.184	20.84
766.363	21.53
766.541	21.43
766.719	21.72
766.898	22.71
767.076	23.01
767.254	22.85
767.432	23.68
767.61	23.95
767.788	23.9
767.967	25.16
768.145	26.78
768.323	25.41
768.501	25.83
768.679	25.49
768.857	23.53
769.035	22.23
769.213	22.46
769.391	19.87
769.569	18.25
769.747	20.12
769.925	19.06
770.103	19.41
770.281	20.19
770.459	19.74
770.636	18.39
770.814	18.82
770.992	20.87
771.17	19.32
771.348	20.54
771.525	19.83
771.703	21.14
771.881	21.93
772.059	21.46
772.236	23.21
772.414	23.27
772.592	24.3
772.769	25.1
772.947	24.47
773.125	24.28
773.302	25.07
773.48	26.45
773.657	25.01
773.835	23.52
774.013	22.9
774.19	22.72
774.368	22.36
774.545	23.49
774.723	24.14
774.9	24.53
775.077	25.59
775.255	26.01
775.432	26.61
775.61	28.05
775.787	29.43
775.964	30.31
776.142	27.71
776.319	28.66
776.496	28.32
776.674	28.68
776.851	29.98
777.028	29.36
777.205	29.86
777.382	29.98
777.56	29.96
777.737	29.52
777.914	26.79
778.091	26.73
778.268	26.96
778.445	25.89
778.622	26.81
778.8	26.93
778.977	27.4
779.154	26.96
779.331	26.33
779.508	25.17
779.685	24.44
779.862	26.14
780.038	25.95
780.215	26.88
780.392	26.42
780.569	24.81
780.746	24.03
780.923	23.37
781.1	23.6
781.277	25.3
781.453	23.71
781.63	23.94
781.807	23
781.984	25.55
782.16	22.7
782.337	24.5
782.514	24.09
782.691	24.72
782.867	26.27
783.044	27.61
783.221	26.38
783.397	26.15
783.574	28.43
783.75	29.61
783.927	28.38
784.103	29.91
784.28	31.03
784.456	29.94
784.633	26
784.809	25.65
784.986	25.7
785.162	25.3
785.339	25.05
785.515	21.47
785.692	20.43
785.868	20.76
786.044	21.48
786.221	18.66
786.397	19.47
786.573	22.4
786.749	22.89
786.926	21.93
787.102	19.66
787.278	23.53
787.454	27.61
787.631	29.06
787.807	28.26
787.983	27.35
788.159	26.85
788.335	27.91
788.511	29.65
788.687	30.84
788.863	29.54
789.039	32.36
789.216	32.18
789.392	30.84
789.568	29.22
789.744	28.42
789.919	26.68
790.095	27.01
790.271	28.01
790.447	25.34
790.623	23.71
790.799	24.45
790.975	24.07
791.151	25.18
791.327	23.34
791.502	23.66
791.678	25.18
791.854	27.88
792.03	29.09
792.205	27.71
792.381	28.89
792.557	27.8
792.733	24.93
792.908	27.7
793.084	24.01
793.259	27.34
793.435	25.94
793.611	25.26
793.786	25.16
793.962	24.69
794.137	24.27
794.313	25.14
794.488	26.41
794.664	28.13
794.839	25.4
795.015	28.16
795.19	24.6
795.366	28.51
795.541	27.12
795.716	24.63
795.892	26.31
796.067	25.8
796.242	28.43
796.418	26.66
796.593	30.08
796.768	30.05
796.944	28.09
797.119	28.73
797.294	26.31
797.469	28.37
797.644	30.69
797.82	32.02
797.995	31.34
798.17	27.75
798.345	27.35
798.52	22.61
798.695	22.07
798.87	21.82
799.045	25.6
799.22	25.36
799.395	26
799.57	23.27
799.745	22.57
799.92	23.58
800.095	25.21
800.27	26.78
800.445	28.22
800.62	28.01
800.795	28.51
800.97	25.25
801.145	28.24
801.319	31.4
801.494	35.89
801.669	33.06
801.844	31.51
802.018	31.76
802.193	30.31
802.368	27.56
802.543	25.24
802.717	23.85
802.892	27.6
803.067	26.65
803.241	22.6
803.416	21.98
803.59	21.87
803.765	23.27
803.94	20.99
804.114	23.19
804.289	26.28
804.463	28.17
804.638	32.38
804.812	27.31
804.986	27.19
805.161	26.35
805.335	27.3
805.51	27.2
805.684	25.53
805.858	24.83
806.033	26.82
806.207	26.26
806.381	28.48
806.556	26.77
806.73	32.75
806.904	31.44
807.078	32.47
807.253	30.81
807.427	29.42
807.601	32.59
807.775	35.1
807.949	32.33
808.123	27.8
808.298	23.65
808.472	22.74
808.646	19.31
808.82	21.14
808.994	14.78
809.168	13.29
809.342	14.87
809.516	10.59
809.69	8.85
809.864	9.61
810.038	20.06
810.212	23.78
810.385	19.71
810.559	20.02
810.733	20.14
810.907	24.51
811.081	26.35
811.255	25.69
811.428	28.1
811.602	28.2
811.776	31.31
811.95	27.24
812.123	30.74
812.297	34.1
812.471	34.59
812.644	32.83
812.818	32.76
812.992	33.05
813.165	35.2
813.339	34.61
813.512	32.4
813.686	33.23
813.86	30.81
814.033	29.29
814.207	29.32
814.38	27.04
814.554	26.12
814.727	27.52
814.9	28.16
815.074	26.6
815.247	30.47
815.421	32.2
815.594	27.94
815.767	29.82
815.941	28.26
816.114	27.36
816.287	27.65
816.46	27.14
816.634	28.78
816.807	30.33
816.98	34.58
817.153	33.79
817.327	35.22
817.5	37.51
817.673	33.52
817.846	31.75
818.019	32.97
818.192	33.01
818.365	36.65
818.538	36.34
818.711	35.34
818.884	27.4
819.057	25.02
819.23	23.24
819.403	19.2
819.576	17.97
819.749	19.37
819.922	22.92
820.095	21.92
820.268	22.24
820.441	21.04
820.614	18.53
820.786	21.26
820.959	22.16
821.132	22.07
821.305	23.78
821.477	24.6
821.65	23.49
821.823	21.45
821.996	22.71
822.168	22.45
822.341	21.29
822.514	20.56
822.686	21.56
822.859	21.27
823.031	21.15
823.204	21.52
823.376	21.59
823.549	20.94
823.722	21.28
823.894	21.24
824.067	20.96
824.239	21.88
824.411	22.95
824.584	22.36
824.756	22.89
824.929	22.9
825.101	22.89
825.273	21.76
825.446	23.82
825.618	23.94
825.79	24.23
825.963	24.4
826.135	24.5
826.307	23.83
826.479	23.39
826.652	23.87
826.824	25.18
826.996	23.26
827.168	24.68
827.34	23.06
827.512	23.48
827.684	23.22
827.856	24.72
828.029	25.4
828.201	26.52
828.373	27.86
828.545	27.59
828.717	28.36
828.889	29.99
829.061	30.41
829.232	32.39
829.404	29.71
829.576	28.77
829.748	27.04
829.92	26.95
830.092	27.09
830.264	26.82
830.436	24.55
830.607	21.78
830.779	23.03
830.951	24.78
831.123	19.3
831.294	23.45
831.466	28.08
831.638	26.75
831.809	27.18
831.981	25.75
832.153	25.56
832.324	27.06
832.496	30.43
832.667	26.12
832.839	27.98
833.011	30.77
833.182	30.82
833.354	28.37
833.525	31.55
833.697	29.57
833.868	32.53
834.039	31.73
834.211	30.83
834.382	28.51
834.554	27.94
834.725	26.77
834.896	25.11
835.068	24.72
835.239	22.19
835.41	19.73
835.581	22.04
835.753	19.04
835.924	19.74
836.095	20.22
836.266	20.03
836.438	21.34
836.609	20.17
836.78	20.05
836.951	19.15
837.122	19.39
837.293	20.15
837.464	17.23
837.635	19.64
837.806	18.33
837.977	17.32
838.148	23.04
838.319	22.98
838.49	20.1
838.661	27.46
838.832	37.28
839.003	46.25
839.174	48.29
839.345	47.49
839.516	48.21
839.687	46.38
839.857	51.04
840.028	48.31
840.199	51.03
840.37	55.25
840.54	53.4
840.711	40.38
840.882	38.56
841.053	36.94
841.223	38.54
841.394	41.52
841.564	41.55
841.735	39.17
841.906	34.51
842.076	28.23
842.247	30.9
842.417	31.36
842.588	37.58
842.758	38.88
842.929	32.86
843.099	36.69
843.27	30.37
843.44	38.69
843.611	51.37
843.781	60.22
843.951	74.43
844.122	79.14
844.292	77.29
844.462	81.56
844.633	80.79
844.803	99.95
844.973	89.98
845.144	113.5
845.314	97.04
845.484	82.21
845.654	88.31
845.824	82.97
845.995	70.99
846.165	64.8
846.335	60.91
846.505	55.99
846.675	59.92
846.845	71.75
847.015	51.5
847.185	61.06
847.355	65.5
847.525	60.25
847.695	55.72
847.865	52.92
848.035	56.02
848.205	63.16
848.375	68.92
848.545	53.38
848.715	32.88
848.884	46.82
849.054	24.9
849.224	29.66
849.394	26.65
849.564	41.87
849.733	47.47
849.903	37.62
850.073	21.1
850.243	21.2
850.412	20.76
850.582	26.04
850.752	26.6
850.921	34.64
851.091	30.27
851.26	35.63
851.43	25.48
851.599	27.88
851.769	37.01
851.939	60.86
852.108	69.05
852.278	72.77
852.447	82.32
852.616	78.8
852.786	79.73
852.955	75.83
853.125	63.55
853.294	62.07
853.463	73.8
853.633	107.7
853.802	102.01
853.971	76.37
854.141	102.98
854.31	86.86
854.479	79.59
854.648	83.49
854.818	84.98
854.987	91.52
855.156	95.67
855.325	80.35
855.494	63.66
855.663	67.48
855.832	82.35
856.001	78.74
856.171	77.03
856.34	72.71
856.509	57.99
856.678	40.57
856.847	48.93
857.016	32.34
857.185	57.02
857.353	71.46
857.522	55.2
857.691	46.63
857.86	46.09
858.029	62.47
858.198	63.15
858.367	85.35
858.535	92.54
858.704	71.69
858.873	94.98
859.042	86.54
859.21	79.12
859.379	79.23
859.548	93.6
859.717	74.83
859.885	50.61
860.054	66.25
860.222	68.49
860.391	77.87
860.56	84.5
860.728	82.95
860.897	69.9
861.065	62.97
861.234	60.54
861.402	43.15
861.571	25.9
861.739	37.01
861.908	28.36
862.076	8.59
862.244	-0.78
862.413	21.43
862.581	14.25
862.749	19.98
862.918	15.79
863.086	24.9
863.254	23.63
863.423	38.73
863.591	53.33
863.759	70.4
863.927	83.92
864.096	91.92
864.264	93.72
864.432	103.07
864.6	124.83
864.768	148.74
864.936	168.11
865.104	170.13
865.272	171.25
865.44	338.36
865.608	205.57
865.776	183.17
865.944	157.4
866.112	109.76
866.28	106.23
866.448	105.01
866.616	92.66
866.784	86.6
866.952	87.02
867.12	87.75
867.288	78.99
867.455	72.61
867.623	76.1
867.791	91.77
867.959	108.62
868.127	115.71
868.294	119.72
868.462	123.9
868.63	137.6
868.797	165.12
868.965	184.94
869.133	129.06
869.3	117.42
869.468	122.96
869.636	69.44
869.803	61.54
869.971	50.19
870.138	66.7
870.306	56.88
870.473	60.38
870.641	38.01
870.808	31.28
870.975	35.32
871.143	54.88
871.31	46.13
871.478	40.58
871.645	65.41
871.812	44.89
871.98	29.33
872.147	36.91
872.314	33.59
872.482	48.24
872.649	47.8
872.816	39.81
872.983	41.49
873.15	24.24
873.318	11.63
873.485	-13.36
873.652	-37.08
873.819	-49.81
873.986	-36.91
874.153	-26.45
874.32	4.41
874.487	16.68
874.654	42.74
874.821	39.74
874.988	88.35
875.155	123.79
875.322	112.08
875.489	102.8
875.656	126.93
875.823	118.64
875.99	118.65
876.157	79.86
876.324	76.32
876.49	53.29
876.657	41.14
876.824	39.36
876.991	36.37
877.157	21.98
877.324	40.89
877.491	39.42
877.658	20.5
877.824	9.44
877.991	34.86
878.157	32.95
878.324	55.77
878.491	54.09
878.657	52.96
878.824	40.71
878.99	52.88
879.157	39.28
879.323	53.51
879.49	58.38
879.656	67.64
879.823	49.8
879.989	36.06
880.156	53.93
880.322	73.46
880.488	61.25
880.655	69.14
880.821	63.7
880.987	59.87
881.154	54.18
881.32	53.49
881.486	45.56
881.652	47.2
881.819	49.85
881.985	41.79
882.151	37.09
882.317	36.55
882.483	33.93
882.649	28.94
882.816	21.17
882.982	19.9
883.148	19.96
883.314	22.81
883.48	21.15
883.646	19.64
883.812	21.26
883.978	22.16
884.144	23.02
884.31	24.33
884.476	26.12
884.642	31.69
884.807	33.44
884.973	35.19
885.139	35.96
885.305	35.35
885.471	33.38
885.637	33.25
885.802	34.91
885.968	32.38
886.134	31.03
886.3	33.24
886.465	30.85
886.631	32.65
886.797	31.3
886.962	28.65
887.128	31.93
887.293	37.42
887.459	33.31
887.625	29.43
887.79	33.23
887.956	44.06
888.121	39.16
888.287	41.85
888.452	35.13
888.618	36.67
888.783	41.99
