Data from 2938063_Reflection_3.txt Node
Date: Sun Jul 12 13:45:40 EDT 2015
User: robert
Spectrometer: USB4E03001
Autoset integration time: false
Trigger mode: 4
Integration Time (sec): 1.000000E-1
Scans to average: 10
Electric dark correction enabled: true
Nonlinearity correction enabled: false
Boxcar width: 5
Stray light correction enabled: false
XAxis mode: Wavelengths
Stop averaging: false
Number of Pixels in Spectrum: 3648
>>>>>Begin Spectral Data<<<<<
177.566	16.32
177.785	-267.75
178.005	-112.01
178.225	-113.98
178.445	-35.58
178.665	-52.04
178.885	16.21
179.105	-106.67
179.324	112.44
179.544	1045.16
179.764	-212.61
179.984	-127.59
180.204	85.01
180.423	82.96
180.643	114.35
180.863	128.89
181.083	106.91
181.302	175.5
181.522	157.69
181.742	127.72
181.961	101.95
182.181	70.05
182.401	47.12
182.621	-16.2
182.84	-6.03
183.06	-76.36
183.279	-261.01
183.499	-58.05
183.719	-154.38
183.938	-170.15
184.158	-148.08
184.377	-361.11
184.597	851.3
184.816	243.41
185.036	192.94
185.256	541.85
185.475	244.85
185.695	96.76
185.914	100.27
186.134	74.87
186.353	92.59
186.572	116.76
186.792	93.54
187.011	74.17
187.231	100.09
187.45	117.05
187.67	73.56
187.889	87.17
188.108	-245.22
188.328	-67.88
188.547	-31.54
188.766	61.65
188.986	60.36
189.205	-1.64
189.424	36.93
189.644	13.53
189.863	-5.09
190.082	70.66
190.302	51.59
190.521	73.97
190.74	75.22
190.959	78.16
191.178	40.46
191.398	-36.4
191.617	-60.94
191.836	-220.73
192.055	353.21
192.274	838.36
192.494	995.5
192.713	314.5
192.932	431.7
193.151	236.76
193.37	126.6
193.589	237.56
193.808	-468.77
194.027	105
194.246	120.61
194.465	172.76
194.685	86.95
194.904	4349.02
195.123	2991.67
195.342	452.19
195.561	-118.85
195.78	-415.64
195.999	535.48
196.218	853.34
196.436	-163.36
196.655	-285.81
196.874	-844.61
197.093	-234.5
197.312	-955.29
197.531	-332.33
197.75	-725.52
197.969	3936.43
198.188	-129.66
198.407	-81.87
198.625	-71.87
198.844	-73.68
199.063	-37.79
199.282	-208.52
199.501	-63.57
199.719	-49.58
199.938	-96.51
200.157	-22.11
200.376	2.76
200.594	0.36
200.813	-11.09
201.032	-27.96
201.251	-41.55
201.469	-79.1
201.688	-19.77
201.907	-51.94
202.125	-14.51
202.344	9.71
202.563	-58.51
202.781	-138.44
203	-76.42
203.218	-39.79
203.437	-52.3
203.656	-124
203.874	-3.2
204.093	193.17
204.311	53.1
204.53	33.47
204.748	-22.89
204.967	8.22
205.185	-218.66
205.404	-182.47
205.622	-107.25
205.841	-69.28
206.059	-1614.79
206.278	-580.72
206.496	156.79
206.715	107.96
206.933	85.6
207.151	97.51
207.37	115.03
207.588	144.11
207.806	40.15
208.025	43.02
208.243	48.14
208.461	53.47
208.68	40.56
208.898	-1.43
209.116	-94.99
209.335	224.47
209.553	115.41
209.771	17.47
209.989	144.62
210.208	-16.18
210.426	16.99
210.644	59.08
210.862	64.24
211.081	68.58
211.299	2.28
211.517	87.06
211.735	-135.97
211.953	-122.14
212.171	-74.67
212.39	-130.4
212.608	-33.94
212.826	-21.66
213.044	-78.72
213.262	-222.72
213.48	-94.06
213.698	753.61
213.916	846.67
214.134	-846.73
214.352	-4963.29
214.57	-292.57
214.788	-233.13
215.006	-427.29
215.224	-4154.2
215.442	-159.27
215.66	-113.33
215.878	-179.06
216.096	-29.66
216.314	-15.36
216.532	-212.35
216.75	-6294.34
216.968	209.32
217.185	190.31
217.403	87.68
217.621	107.77
217.839	54.5
218.057	92.51
218.275	193.02
218.492	123.05
218.71	154.83
218.928	335.07
219.146	102.41
219.363	27.53
219.581	78.13
219.799	-23.35
220.017	-9.32
220.234	-24.67
220.452	-5.87
220.67	56.48
220.887	68.91
221.105	89.28
221.323	111.99
221.54	48.25
221.758	-9.66
221.976	-22.15
222.193	19.79
222.411	25.4
222.629	-25.28
222.846	-1018.32
223.064	572.22
223.281	-318.09
223.499	-290.44
223.716	-133.79
223.934	-257.84
224.151	811.79
224.369	-1235.88
224.586	-261.86
224.804	78.35
225.021	32.89
225.239	35.17
225.456	36.76
225.674	49.97
225.891	14.3
226.108	13.07
226.326	16.34
226.543	7.82
226.76	5.2
226.978	-2.95
227.195	-13.92
227.413	-11.11
227.63	1
227.847	0.95
228.064	-0.39
228.282	6.12
228.499	8.03
228.716	0.78
228.934	-4.92
229.151	-3.95
229.368	-1.5
229.585	-1.57
229.802	4.28
230.02	-1.78
230.237	-3.3
230.454	-0.53
230.671	1.35
230.888	-0.81
231.105	1.1
231.323	3.65
231.54	5.19
231.757	6.25
231.974	5.72
232.191	4.21
232.408	15.25
232.625	17.94
232.842	7.39
233.059	-0.63
233.276	-10.32
233.493	-1.79
233.71	8.71
233.927	9.54
234.144	19.94
234.361	14.59
234.578	13.85
234.795	10.8
235.012	2.49
235.229	6.55
235.446	17.2
235.663	19.28
235.879	19.63
236.096	21.08
236.313	20.32
236.53	6.93
236.747	10.05
236.964	11.59
237.181	6.54
237.397	15.27
237.614	13.05
237.831	8.47
238.048	0.88
238.264	-6.13
238.481	-9.88
238.698	-9.5
238.915	-0.55
239.131	-1.25
239.348	-3.31
239.565	-4.62
239.781	-5.03
239.998	3.87
240.215	8.54
240.431	10.48
240.648	10.6
240.865	10.93
241.081	10.91
241.298	10.22
241.514	9.87
241.731	6.89
241.947	8.14
242.164	8.72
242.38	7.91
242.597	3.7
242.814	7.76
243.03	9.95
243.246	9.41
243.463	7.19
243.679	6.09
243.896	6.82
244.112	8.56
244.329	7.57
244.545	5.65
244.762	5.95
244.978	6.71
245.194	-1.25
245.411	-2.49
245.627	-3.66
245.843	-1.84
246.06	-2.22
246.276	-4.11
246.492	-4.58
246.709	-4.14
246.925	-1.82
247.141	-3.11
247.357	-3.13
247.574	-0.65
247.79	-1.03
248.006	0.71
248.222	0.56
248.439	1.43
248.655	2.35
248.871	2.49
249.087	3.6
249.303	2.52
249.519	2.73
249.736	2.5
249.952	0.01
250.168	-0.24
250.384	-4.42
250.6	-1.25
250.816	-1.46
251.032	-1.23
251.248	0.44
251.464	0.9
251.68	-0.13
251.896	-0.72
252.112	1.91
252.328	4.91
252.544	3.82
252.76	7.28
252.976	4.98
253.192	4.23
253.408	2.59
253.624	3.47
253.84	5.51
254.056	4.86
254.272	10.8
254.487	7.97
254.703	4.07
254.919	6.19
255.135	-1.95
255.351	-0.47
255.567	1.59
255.782	5.3
255.998	7.06
256.214	2.57
256.43	3.27
256.646	0.85
256.861	-1.33
257.077	-0.14
257.293	-1.01
257.508	2.62
257.724	1.26
257.94	-0.79
258.155	0.19
258.371	-1.17
258.587	0.31
258.802	0.87
259.018	1.3
259.234	1.53
259.449	1.04
259.665	2.69
259.88	2.19
260.096	1.27
260.312	2.03
260.527	2.3
260.743	3.55
260.958	2.46
261.174	3.53
261.389	2.47
261.605	2.12
261.82	4.25
262.036	1.76
262.251	2.67
262.466	3.44
262.682	3.71
262.897	3.41
263.113	1.81
263.328	4.62
263.543	2.54
263.759	3.1
263.974	7.51
264.189	4.57
264.405	8.08
264.62	7.31
264.835	9.45
265.051	10.72
265.266	8.89
265.481	6.09
265.696	5.32
265.912	2.85
266.127	3.75
266.342	4.31
266.557	1.51
266.773	1.52
266.988	1.1
267.203	-0.84
267.418	-4.18
267.633	-4.31
267.848	-3.53
268.064	-5.38
268.279	-0.99
268.494	-0.15
268.709	-1.75
268.924	1.19
269.139	0.79
269.354	2.47
269.569	3.47
269.784	6.96
269.999	6.66
270.214	5.27
270.429	6.72
270.644	4.39
270.859	2.26
271.074	3.39
271.289	2.43
271.504	2.61
271.719	2.73
271.934	3.48
272.149	2.16
272.363	4.73
272.578	7.36
272.793	5.43
273.008	4.14
273.223	2.75
273.438	3.04
273.653	3.62
273.867	4.98
274.082	5.16
274.297	2.97
274.512	2.14
274.726	-0.19
274.941	-2.59
275.156	-0.96
275.371	-0.3
275.585	1.34
275.8	-0.36
276.015	1.95
276.229	0.94
276.444	0.26
276.659	2.18
276.873	2.23
277.088	2.75
277.302	2.85
277.517	4.53
277.732	4.78
277.946	6.94
278.161	7.94
278.375	6.77
278.59	5.96
278.804	4.18
279.019	3.72
279.233	4.97
279.448	3.97
279.662	3.72
279.877	2.97
280.091	5.43
280.306	5.03
280.52	4.19
280.735	2.46
280.949	2.86
281.163	4.77
281.378	4.8
281.592	2.68
281.806	3.92
282.021	4.57
282.235	3.09
282.449	0.08
282.664	0.76
282.878	0.12
283.092	0.06
283.307	-0.31
283.521	-1.72
283.735	-1.18
283.949	1.02
284.164	1.31
284.378	-0.96
284.592	1.22
284.806	1.8
285.02	0.3
285.234	1.21
285.449	1.43
285.663	0.48
285.877	0.65
286.091	0.4
286.305	-0.29
286.519	-1
286.733	0.68
286.947	-0.21
287.161	0.18
287.375	-0.18
287.589	0.56
287.803	0.48
288.017	-0.91
288.231	2.61
288.445	1.85
288.659	2.85
288.873	2
289.087	3.19
289.301	4.31
289.515	6.57
289.729	8.28
289.943	6.13
290.157	6.35
290.371	8.23
290.584	6.19
290.798	6.7
291.012	6.16
291.226	7.41
291.44	6.73
291.654	7.54
291.867	3.25
292.081	2.51
292.295	4.19
292.509	6.03
292.722	7.19
292.936	4.79
293.15	4.12
293.364	2.08
293.577	1.95
293.791	3.02
294.005	2.31
294.218	6.66
294.432	8.52
294.645	7.08
294.859	5.98
295.073	6.45
295.286	9.15
295.5	10.31
295.713	11.56
295.927	12.13
296.14	10.26
296.354	9.11
296.568	6.93
296.781	5.23
296.994	6.26
297.208	6.01
297.421	5.52
297.635	4.5
297.848	4.94
298.062	6.03
298.275	7.37
298.489	7.35
298.702	8.68
298.915	8.32
299.129	8.45
299.342	8.86
299.555	8.43
299.769	7.38
299.982	9.93
300.195	9.52
300.409	9.71
300.622	6.15
300.835	7.07
301.048	5.87
301.262	6.27
301.475	5.99
301.688	4.53
301.901	5.58
302.115	5.39
302.328	4.27
302.541	5.19
302.754	4.53
302.967	4.68
303.18	4.02
303.393	3.32
303.607	5.15
303.82	4.49
304.033	4.04
304.246	5.32
304.459	4.92
304.672	3.45
304.885	3.08
305.098	2.01
305.311	2.44
305.524	1.75
305.737	2.54
305.95	3.69
306.163	5.46
306.376	6.81
306.589	5
306.802	6.7
307.015	7.58
307.228	7.53
307.44	6.87
307.653	7.45
307.866	9.14
308.079	8.68
308.292	7.14
308.505	5.5
308.718	4.79
308.93	7.6
309.143	6.18
309.356	5.76
309.569	4.81
309.781	5.14
309.994	5.35
310.207	3.54
310.42	4.35
310.632	5.19
310.845	6.14
311.058	6.88
311.27	5.04
311.483	5.17
311.696	5.92
311.908	8.31
312.121	10.13
312.333	11.01
312.546	12.1
312.759	13.75
312.971	12.49
313.184	11.4
313.396	9.07
313.609	9.56
313.821	8.88
314.034	7.69
314.246	7.11
314.459	4.29
314.671	6.16
314.884	6.4
315.096	3.34
315.309	3.02
315.521	3.83
315.733	6.3
315.946	5.44
316.158	7.25
316.371	5.44
316.583	2.07
316.795	3.56
317.008	-1.44
317.22	-0.76
317.432	-0.3
317.644	0.36
317.857	1.6
318.069	2.59
318.281	5.3
318.494	3.4
318.706	5.74
318.918	6.53
319.13	5.79
319.342	5.73
319.555	3.8
319.767	3.94
319.979	5.48
320.191	4.5
320.403	5.47
320.615	0.88
320.827	2.25
321.039	2.12
321.252	3.92
321.464	5.75
321.676	6.45
321.888	6.95
322.1	6.67
322.312	4.85
322.524	5.42
322.736	3.96
322.948	5.19
323.16	5.28
323.372	5.92
323.584	6.39
323.796	5.27
324.007	5.34
324.219	7.22
324.431	6.87
324.643	7.88
324.855	7.1
325.067	7.32
325.279	7.91
325.491	9.28
325.702	7.29
325.914	6.41
326.126	5.21
326.338	6.22
326.55	5.15
326.761	5.53
326.973	4.4
327.185	4.72
327.396	5.33
327.608	4.8
327.82	3.72
328.032	3.23
328.243	2.14
328.455	5.34
328.666	4.79
328.878	4.15
329.09	4.97
329.301	4.92
329.513	6.58
329.725	5.86
329.936	6.25
330.148	7.81
330.359	9.75
330.571	12.02
330.782	11.69
330.994	12.93
331.205	13.24
331.417	11.57
331.628	12.98
331.84	10.55
332.051	8.48
332.262	9.69
332.474	9.56
332.685	10.54
332.897	8.67
333.108	8.06
333.319	5.89
333.531	5.68
333.742	7.69
333.953	7.28
334.165	6.72
334.376	8.19
334.587	8.16
334.799	4.8
335.01	2.48
335.221	2.47
335.432	1.5
335.644	1.57
335.855	3.13
336.066	3.29
336.277	4.48
336.488	5.62
336.7	5.71
336.911	3.33
337.122	4.66
337.333	6.7
337.544	8.47
337.755	9.14
337.966	9.2
338.177	8.31
338.388	7.48
338.599	7.96
338.811	7.22
339.022	6.62
339.233	9.36
339.444	10.19
339.655	10.06
339.866	9.32
340.076	9
340.287	9.77
340.498	10.47
340.709	11.44
340.92	10.63
341.131	11.18
341.342	11.46
341.553	10.42
341.764	8.89
341.975	9.3
342.185	8.59
342.396	10.14
342.607	10.59
342.818	11.09
343.029	12.09
343.239	10.91
343.45	10.79
343.661	11.31
343.872	10.53
344.082	11.99
344.293	11.75
344.504	11.96
344.714	11.09
344.925	10.77
345.136	10.12
345.346	7.43
345.557	7.77
345.768	9.34
345.978	8.76
346.189	10.12
346.399	10.52
346.61	10.92
346.821	11.44
347.031	11.58
347.242	11.61
347.452	11.12
347.663	12.74
347.873	13.17
348.084	11.51
348.294	13.16
348.504	14.05
348.715	13.1
348.925	12.15
349.136	11.73
349.346	10.62
349.557	11.63
349.767	12.79
349.977	13.14
350.188	14.75
350.398	14.23
350.608	12.52
350.819	11.18
351.029	11.28
351.239	11.38
351.449	10.6
351.66	10.97
351.87	10.03
352.08	9.76
352.29	9.66
352.501	7.73
352.711	8.59
352.921	9.61
353.131	9.6
353.341	10.12
353.552	10.12
353.762	11.46
353.972	11.83
354.182	12.81
354.392	12.68
354.602	11.98
354.812	12.33
355.022	12.72
355.232	13.16
355.442	13.44
355.652	14.66
355.862	14.22
356.072	13.36
356.282	13.01
356.492	13.11
356.702	12.89
356.912	13.23
357.122	13.83
357.332	14.74
357.542	14.36
357.752	14.41
357.962	13.55
358.171	14.32
358.381	14.17
358.591	15
358.801	15.03
359.011	14.43
359.221	14.32
359.43	13.61
359.64	12.97
359.85	13.51
360.06	13.06
360.269	12.56
360.479	12.07
360.689	13.08
360.899	13.46
361.108	12.97
361.318	13.64
361.528	13.97
361.737	14.27
361.947	14.5
362.156	13.67
362.366	13.97
362.576	14.1
362.785	14.24
362.995	13.62
363.204	12.83
363.414	12.96
363.623	12.42
363.833	12.27
364.042	12.59
364.252	12.31
364.461	13.41
364.671	13.57
364.88	14.53
365.09	14.96
365.299	15.04
365.509	15.19
365.718	15.29
365.927	15.54
366.137	14.8
366.346	15.31
366.555	15.05
366.765	14.9
366.974	14.82
367.183	13.62
367.393	13.13
367.602	13.59
367.811	14.46
368.021	14.79
368.23	15.4
368.439	17.01
368.648	16.17
368.857	16.8
369.067	16.51
369.276	16.19
369.485	17.53
369.694	17.64
369.903	17.39
370.112	17.32
370.321	16.54
370.531	15.73
370.74	15.35
370.949	15.39
371.158	15.01
371.367	14.56
371.576	15.3
371.785	14.89
371.994	16.04
372.203	16.04
372.412	15.45
372.621	15.43
372.83	16.5
373.039	15.55
373.248	15.46
373.457	15.74
373.666	16.3
373.874	15.13
374.083	15.2
374.292	14.44
374.501	14.78
374.71	15.14
374.919	15.42
375.128	15.44
375.336	15.67
375.545	16
375.754	15.82
375.963	15.64
376.171	15.95
376.38	15.56
376.589	15.74
376.798	15.41
377.006	15.75
377.215	16.08
377.424	16.16
377.632	16.61
377.841	16.61
378.05	16.3
378.258	16.64
378.467	17.3
378.675	17.65
378.884	17.31
379.093	17.32
379.301	17.57
379.51	18.42
379.718	17.95
379.927	18.1
380.135	17.24
380.344	17.81
380.552	17.41
380.761	17.08
380.969	17.61
381.177	17.6
381.386	18.18
381.594	17.43
381.803	16.81
382.011	16.66
382.219	16.93
382.428	18.07
382.636	17.93
382.845	17.84
383.053	18.24
383.261	17.78
383.469	18.05
383.678	18.37
383.886	18.93
384.094	18.51
384.302	19.32
384.511	19.31
384.719	19.24
384.927	19.78
385.135	20.69
385.343	21.3
385.552	21.69
385.76	22.22
385.968	22.1
386.176	21.72
386.384	22.44
386.592	22.16
386.8	22.34
387.008	22.5
387.216	22.64
387.424	22.25
387.633	21.73
387.841	21.77
388.049	21.21
388.257	21.46
388.465	21.73
388.672	21.22
388.88	21.66
389.088	21.74
389.296	21.41
389.504	21.16
389.712	21.05
389.92	21.32
390.128	21.59
390.336	22.25
390.544	22.07
390.751	22.6
390.959	23.12
391.167	22.81
391.375	22.46
391.583	23.12
391.79	23.48
391.998	23.95
392.206	24.3
392.414	23.88
392.621	23.79
392.829	24.16
393.037	23.85
393.244	23.95
393.452	24.45
393.66	24.83
393.867	24.73
394.075	24.74
394.283	24.98
394.49	25.01
394.698	25.2
394.905	25.25
395.113	25.22
395.32	25.75
395.528	25.75
395.735	26.02
395.943	26.2
396.15	26.35
396.358	26.37
396.565	25.9
396.773	25.93
396.98	26.3
397.188	26.56
397.395	26.82
397.602	26.89
397.81	27.01
398.017	26.66
398.225	26.92
398.432	26.91
398.639	27.32
398.847	27.94
399.054	28.32
399.261	28.51
399.468	28.59
399.676	28.82
399.883	29.14
400.09	29.14
400.297	29.43
400.505	29.4
400.712	29.44
400.919	29.46
401.126	29.49
401.333	29.36
401.54	29.38
401.748	29.69
401.955	29.57
402.162	29.47
402.369	29.76
402.576	29.83
402.783	29.85
402.99	30.47
403.197	30.25
403.404	30.48
403.611	30.33
403.818	30.58
404.025	30.78
404.232	30.82
404.439	30.7
404.646	30.53
404.853	30.56
405.06	30.69
405.267	30.56
405.474	30.74
405.681	30.53
405.887	30.88
406.094	30.81
406.301	30.74
406.508	30.8
406.715	31.09
406.922	31.42
407.128	31.47
407.335	31.81
407.542	31.88
407.749	31.9
407.955	32
408.162	31.77
408.369	32.09
408.575	31.68
408.782	32.03
408.989	31.94
409.195	31.77
409.402	31.88
409.609	31.77
409.815	31.68
410.022	31.96
410.228	31.99
410.435	32.12
410.642	31.6
410.848	31.92
411.055	31.66
411.261	31.74
411.468	32.02
411.674	32.02
411.881	32.01
412.087	31.92
412.294	31.72
412.5	31.75
412.706	31.83
412.913	32.08
413.119	31.83
413.326	31.61
413.532	31.46
413.738	31.55
413.945	31.27
414.151	31.18
414.357	31.22
414.564	31.15
414.77	31.28
414.976	31.05
415.182	31.45
415.389	31.59
415.595	31.42
415.801	31.25
416.007	30.96
416.214	31.25
416.42	31.33
416.626	31.28
416.832	31.37
417.038	31.26
417.244	31.08
417.45	30.72
417.657	30.94
417.863	31.12
418.069	31.42
418.275	31.4
418.481	31.34
418.687	31.16
418.893	31.11
419.099	31.06
419.305	31.04
419.511	31.17
419.717	31.28
419.923	31.28
420.129	31.31
420.335	31.24
420.541	31.3
420.746	31.08
420.952	31.22
421.158	31.37
421.364	31.37
421.57	31.38
421.776	31.32
421.982	31.29
422.187	31.16
422.393	31.15
422.599	31
422.805	30.97
423.01	31.21
423.216	31.08
423.422	31.08
423.628	31.07
423.833	31
424.039	31.14
424.245	30.97
424.45	30.93
424.656	30.89
424.862	30.98
425.067	30.83
425.273	30.69
425.478	30.72
425.684	30.5
425.889	30.62
426.095	30.81
426.301	30.71
426.506	30.87
426.712	30.78
426.917	30.77
427.123	30.69
427.328	30.74
427.533	30.84
427.739	30.66
427.944	30.87
428.15	30.69
428.355	30.47
428.561	30.61
428.766	30.51
428.971	30.64
429.177	30.45
429.382	30.41
429.587	30.5
429.793	30.5
429.998	30.73
430.203	30.41
430.408	30.27
430.614	30.21
430.819	30.08
431.024	29.96
431.229	29.91
431.434	30.16
431.64	29.99
431.845	29.9
432.05	29.71
432.255	29.64
432.46	29.75
432.665	29.96
432.87	29.79
433.076	29.79
433.281	30.12
433.486	30.23
433.691	30.13
433.896	30.38
434.101	30.45
434.306	30.51
434.511	30.57
434.716	30.63
434.921	30.51
435.126	30.68
435.331	30.67
435.535	30.28
435.74	30.36
435.945	30.23
436.15	30.36
436.355	30.48
436.56	30.4
436.765	30.35
436.97	30.44
437.174	30.31
437.379	30.29
437.584	30.32
437.789	30.52
437.993	30.24
438.198	30.44
438.403	30.23
438.608	30.19
438.812	30.29
439.017	30.36
439.222	30.26
439.426	30.32
439.631	30.24
439.836	30.22
440.04	30.23
440.245	30.11
440.45	30.19
440.654	30.3
440.859	30.15
441.063	30.23
441.268	30.12
441.472	30.12
441.677	30.09
441.881	30.15
442.086	30.1
442.29	30.14
442.495	30.11
442.699	29.94
442.904	29.67
443.108	29.72
443.312	29.47
443.517	29.43
443.721	29.44
443.925	29.43
444.13	29.49
444.334	29.42
444.538	29.27
444.743	29.59
444.947	29.55
445.151	29.73
445.356	29.8
445.56	29.82
445.764	29.79
445.968	29.75
446.173	29.74
446.377	29.66
446.581	29.67
446.785	29.68
446.989	29.58
447.193	29.62
447.398	29.5
447.602	29.24
447.806	29.14
448.01	29.17
448.214	29.28
448.418	29.28
448.622	29.36
448.826	29.35
449.03	29.11
449.234	29
449.438	28.98
449.642	29
449.846	29.15
450.05	29.36
450.254	29.42
450.458	29.27
450.662	29.15
450.866	28.93
451.069	29.01
451.273	29.42
451.477	29.43
451.681	29.47
451.885	29.58
452.089	29.72
452.292	29.74
452.496	29.56
452.7	29.48
452.904	29.46
453.107	29.53
453.311	29.42
453.515	29.23
453.719	29.26
453.922	29.08
454.126	28.87
454.33	28.86
454.533	28.74
454.737	28.58
454.94	28.69
455.144	28.84
455.348	28.82
455.551	28.87
455.755	29.03
455.958	29.02
456.162	28.99
456.365	29.01
456.569	28.93
456.772	29.19
456.976	29.56
457.179	29.44
457.383	29.29
457.586	29.23
457.79	29.11
457.993	28.93
458.196	28.91
458.4	28.96
458.603	29.05
458.807	28.95
459.01	28.72
459.213	28.6
459.417	28.58
459.62	28.76
459.823	28.88
460.026	28.88
460.23	28.84
460.433	28.84
460.636	28.86
460.839	28.85
461.042	28.83
461.246	28.94
461.449	28.96
461.652	28.98
461.855	28.91
462.058	28.9
462.261	29
462.464	28.94
462.668	29.07
462.871	29.28
463.074	29.16
463.277	29.2
463.48	29.03
463.683	29.18
463.886	29.29
464.089	29.05
464.292	29.06
464.495	28.95
464.698	29.02
464.901	28.8
465.104	28.6
465.306	28.63
465.509	28.8
465.712	29.01
465.915	28.78
466.118	28.86
466.321	29.1
466.524	29.24
466.726	29.39
466.929	29.48
467.132	29.68
467.335	29.65
467.538	29.87
467.74	29.81
467.943	29.69
468.146	29.73
468.348	29.62
468.551	29.67
468.754	29.55
468.956	29.48
469.159	29.66
469.362	29.7
469.564	29.69
469.767	29.59
469.969	29.65
470.172	29.69
470.375	29.8
470.577	30.05
470.78	29.92
470.982	29.85
471.185	29.83
471.387	29.76
471.59	29.84
471.792	29.76
471.995	29.67
472.197	29.53
472.399	29.61
472.602	29.49
472.804	29.01
473.007	28.96
473.209	29.06
473.411	29.1
473.614	29.02
473.816	28.97
474.018	29.06
474.22	29.31
474.423	29.47
474.625	29.41
474.827	29.53
475.03	29.84
475.232	30.01
475.434	29.93
475.636	30.01
475.838	30.02
476.04	29.87
476.243	29.97
476.445	29.67
476.647	29.58
476.849	29.63
477.051	29.54
477.253	29.49
477.455	29.4
477.657	29.63
477.859	29.51
478.061	29.38
478.263	29.41
478.465	29.37
478.667	29.62
478.869	29.66
479.071	29.58
479.273	29.49
479.475	29.61
479.677	29.61
479.879	29.37
480.081	29.39
480.283	29.47
480.485	29.54
480.686	29.63
480.888	29.62
481.09	29.63
481.292	29.79
481.494	29.96
481.695	29.79
481.897	29.87
482.099	29.94
482.301	29.98
482.502	30
482.704	29.92
482.906	29.78
483.107	29.74
483.309	29.82
483.511	29.76
483.712	29.77
483.914	29.85
484.115	29.83
484.317	29.85
484.519	29.84
484.72	29.84
484.922	29.87
485.123	29.96
485.325	30.02
485.526	30.01
485.728	30.08
485.929	30.07
486.131	30.1
486.332	30.03
486.534	30.01
486.735	30.08
486.936	30.03
487.138	30.09
487.339	30.01
487.541	29.94
487.742	29.9
487.943	29.84
488.144	29.86
488.346	29.82
488.547	29.9
488.748	29.95
488.95	29.92
489.151	29.93
489.352	29.89
489.553	29.95
489.755	29.99
489.956	29.95
490.157	29.97
490.358	29.95
490.559	29.95
490.76	29.97
490.961	29.9
491.163	29.89
491.364	29.9
491.565	29.81
491.766	29.78
491.967	29.8
492.168	29.84
492.369	29.76
492.57	29.7
492.771	29.7
492.972	29.63
493.173	29.6
493.374	29.55
493.575	29.51
493.776	29.56
493.976	29.62
494.177	29.46
494.378	29.48
494.579	29.53
494.78	29.37
494.981	29.24
495.182	29.26
495.382	29.19
495.583	29.14
495.784	29.31
495.985	29.29
496.185	29.29
496.386	29.34
496.587	29.21
496.788	29.3
496.988	29.62
497.189	29.68
497.39	29.7
497.59	29.75
497.791	29.69
497.992	29.69
498.192	29.75
498.393	29.75
498.593	29.66
498.794	29.81
498.994	29.74
499.195	29.46
499.395	29.46
499.596	29.33
499.796	29.23
499.997	29.3
500.197	29.25
500.398	29.26
500.598	29.21
500.799	29.28
500.999	29.18
501.199	29.26
501.4	29.47
501.6	29.28
501.801	29.35
502.001	29.55
502.201	29.59
502.402	29.46
502.602	29.28
502.802	29.46
503.002	29.6
503.203	29.51
503.403	29.53
503.603	29.41
503.803	29.65
504.003	29.59
504.204	29.47
504.404	29.46
504.604	29.45
504.804	29.76
505.004	29.61
505.204	29.5
505.404	29.51
505.604	29.53
505.804	29.69
506.005	29.86
506.205	29.77
506.405	29.81
506.605	29.99
506.805	30
507.005	29.86
507.204	29.97
507.404	30.08
507.604	30.08
507.804	30
508.004	29.92
508.204	29.69
508.404	29.87
508.604	29.77
508.804	29.67
509.003	29.78
509.203	29.75
509.403	29.74
509.603	29.68
509.803	29.75
510.002	29.87
510.202	29.87
510.402	29.8
510.602	29.72
510.801	29.69
511.001	29.65
511.201	29.53
511.4	29.35
511.6	29.16
511.8	29.03
511.999	29
512.199	28.95
512.398	28.96
512.598	29.13
512.797	29.17
512.997	29.24
513.197	29.21
513.396	29.26
513.596	29.39
513.795	29.48
513.994	29.41
514.194	29.36
514.393	29.22
514.593	29.11
514.792	28.77
514.992	28.72
515.191	28.76
515.39	28.8
515.59	28.62
515.789	28.61
515.988	28.75
516.188	28.88
516.387	28.88
516.586	28.88
516.786	28.97
516.985	29.26
517.184	29.26
517.383	29.26
517.582	29.35
517.782	29.4
517.981	29.42
518.18	29.32
518.379	29.23
518.578	29.22
518.777	29.19
518.976	29.18
519.176	29.15
519.375	29.11
519.574	29.11
519.773	28.97
519.972	29.08
520.171	29.1
520.37	29.09
520.569	29.25
520.768	29.28
520.967	29.36
521.166	29.22
521.365	29.18
521.564	29.12
521.762	29.2
521.961	29.26
522.16	29.29
522.359	29.21
522.558	29.23
522.757	29.28
522.956	29.2
523.154	29.15
523.353	29.28
523.552	29.16
523.751	29.32
523.949	29.32
524.148	29.29
524.347	29.27
524.546	29.32
524.744	29.31
524.943	29.22
525.142	29.39
525.34	29.46
525.539	29.44
525.737	29.4
525.936	29.19
526.135	29
526.333	29.11
526.532	29.1
526.73	29.09
526.929	29.09
527.127	29.16
527.326	28.98
527.524	29.01
527.723	29
527.921	29.08
528.12	29.21
528.318	29.21
528.516	29.12
528.715	29.16
528.913	29.16
529.112	29.13
529.31	29.06
529.508	29.11
529.707	29.09
529.905	29.08
530.103	29.09
530.301	29.1
530.5	29.13
530.698	29.15
530.896	29.1
531.094	29.09
531.293	29.08
531.491	29.06
531.689	29
531.887	28.98
532.085	29.04
532.283	29.03
532.481	28.89
532.68	29
532.878	29.05
533.076	28.96
533.274	28.89
533.472	28.97
533.67	29.06
533.868	29.13
534.066	29.1
534.264	29.02
534.462	28.98
534.66	29.08
534.858	28.88
535.056	28.86
535.253	28.96
535.451	28.99
535.649	28.99
535.847	28.95
536.045	28.98
536.243	29
536.441	29.18
536.638	29.26
536.836	29.22
537.034	29.41
537.232	29.44
537.43	29.45
537.627	29.43
537.825	29.26
538.023	29.2
538.22	29.14
538.418	29.19
538.616	29.08
538.813	29.14
539.011	29.22
539.209	29.12
539.406	29.05
539.604	28.9
539.801	29.05
539.999	29.11
540.196	29.09
540.394	29.2
540.591	29.12
540.789	29.21
540.986	29.04
541.184	28.98
541.381	29.11
541.579	29.14
541.776	29.22
541.974	29.17
542.171	29.19
542.368	29.23
542.566	29.18
542.763	29.19
542.96	29.09
543.158	29.26
543.355	29.32
543.552	29.12
543.75	29.08
543.947	29.02
544.144	29.03
544.341	29.12
544.539	29.07
544.736	29.13
544.933	29.16
545.13	29.15
545.327	29.03
545.524	29.07
545.722	29.26
545.919	29.24
546.116	29.12
546.313	29.05
546.51	28.93
546.707	28.83
546.904	28.83
547.101	28.76
547.298	28.78
547.495	28.73
547.692	28.63
547.889	28.54
548.086	28.4
548.283	28.63
548.48	28.69
548.677	28.64
548.874	28.84
549.07	28.88
549.267	28.88
549.464	28.81
549.661	28.8
549.858	28.58
550.055	28.77
550.251	28.79
550.448	28.81
550.645	28.79
550.842	28.86
551.038	28.83
551.235	28.68
551.432	28.72
551.628	28.7
551.825	28.91
552.022	28.95
552.218	28.85
552.415	29.12
552.612	29.02
552.808	28.95
553.005	29.02
553.201	28.98
553.398	28.95
553.594	28.98
553.791	29.04
553.987	28.79
554.184	28.92
554.38	28.69
554.577	28.62
554.773	28.52
554.97	28.51
555.166	28.44
555.362	28.44
555.559	28.44
555.755	28.44
555.952	28.47
556.148	28.42
556.344	28.44
556.541	28.4
556.737	28.35
556.933	28.5
557.129	28.49
557.326	28.52
557.522	28.44
557.718	28.41
557.914	28.65
558.11	28.58
558.307	28.73
558.503	28.86
558.699	28.98
558.895	29.05
559.091	29.24
559.287	29.22
559.483	29.2
559.679	29.42
559.876	29.26
560.072	28.96
560.268	28.98
560.464	28.87
560.66	28.77
560.856	28.74
561.052	28.64
561.247	28.38
561.443	28.46
561.639	28.5
561.835	28.32
562.031	28.49
562.227	28.66
562.423	28.66
562.619	28.96
562.815	28.96
563.01	29.04
563.206	29.17
563.402	29.21
563.598	29.24
563.793	29.17
563.989	29.22
564.185	29.24
564.381	29.28
564.576	29.37
564.772	29.2
564.968	29.32
565.163	29.44
565.359	29.28
565.555	29.2
565.75	29.25
565.946	29.27
566.141	29.53
566.337	29.52
566.532	29.37
566.728	29.38
566.923	29.47
567.119	29.54
567.314	29.58
567.51	29.67
567.705	29.76
567.901	29.85
568.096	29.74
568.292	29.38
568.487	29.49
568.682	29.51
568.878	29.22
569.073	29.18
569.268	28.91
569.464	28.83
569.659	28.62
569.854	28.57
570.05	28.36
570.245	28.59
570.44	28.61
570.635	28.5
570.831	28.43
571.026	28.52
571.221	28.42
571.416	28.57
571.611	28.41
571.806	28.53
572.002	28.56
572.197	28.66
572.392	28.51
572.587	28.53
572.782	28.59
572.977	28.54
573.172	28.64
573.367	28.71
573.562	28.57
573.757	28.58
573.952	28.56
574.147	28.62
574.342	28.51
574.537	28.65
574.732	28.59
574.927	28.65
575.121	28.98
575.316	29.03
575.511	28.82
575.706	28.89
575.901	28.9
576.096	29
576.29	28.84
576.485	28.86
576.68	28.6
576.875	28.75
577.069	28.63
577.264	28.41
577.459	28.28
577.654	28.22
577.848	28.25
578.043	28.26
578.238	28.38
578.432	28.5
578.627	28.62
578.821	28.93
579.016	28.73
579.21	28.78
579.405	28.69
579.6	28.74
579.794	29.05
579.989	29.09
580.183	29.46
580.378	29.01
580.572	29.22
580.766	29.12
580.961	28.94
581.155	29.24
581.35	29.28
581.544	29.29
581.738	29.39
581.933	29.45
582.127	29.3
582.321	29.2
582.516	29.3
582.71	29.13
582.904	28.97
583.099	28.8
583.293	28.77
583.487	28.86
583.681	28.81
583.875	28.57
584.07	28.71
584.264	28.84
584.458	28.44
584.652	28.67
584.846	28.75
585.04	28.95
585.234	29.17
585.428	29.36
585.623	29.02
585.817	29.07
586.011	29.04
586.205	28.73
586.399	28.5
586.593	28.85
586.787	28.75
586.981	28.5
587.174	28.43
587.368	28.57
587.562	28.15
587.756	28.14
587.95	28.37
588.144	28.8
588.338	28.94
588.532	28.98
588.725	28.79
588.919	28.63
589.113	28.7
589.307	28.76
589.501	28.43
589.694	28.76
589.888	28.78
590.082	28.77
590.275	28.49
590.469	28.52
590.663	28.56
590.856	28.61
591.05	28.78
591.244	28.69
591.437	28.69
591.631	29.15
591.824	29.12
592.018	29.26
592.212	29.08
592.405	29.27
592.599	29.37
592.792	29.35
592.986	29.28
593.179	29.53
593.372	29.62
593.566	29.79
593.759	29.65
593.953	29.65
594.146	29.63
594.339	29.61
594.533	29.62
594.726	29.43
594.92	29.48
595.113	29.58
595.306	29.48
595.499	29.56
595.693	29.61
595.886	29.32
596.079	29.15
596.272	29.16
596.466	29.34
596.659	29.23
596.852	29.32
597.045	29.37
597.238	29.13
597.431	29.07
597.624	29.17
597.818	29.22
598.011	29.31
598.204	29.4
598.397	29.6
598.59	29.44
598.783	29.38
598.976	29.33
599.169	29.41
599.362	29.8
599.555	29.75
599.748	29.51
599.941	29.03
600.134	28.99
600.326	28.73
600.519	28.73
600.712	28.97
600.905	29.11
601.098	29.13
601.291	29.07
601.483	29.15
601.676	29.11
601.869	29.1
602.062	29.35
602.255	29.82
602.447	30.13
602.64	29.83
602.833	29.52
603.025	29.29
603.218	29.2
603.411	29.19
603.603	29.12
603.796	29.08
603.989	29.15
604.181	28.97
604.374	28.62
604.566	28.52
604.759	28.67
604.951	28.67
605.144	28.68
605.336	28.56
605.529	28.4
605.721	28.34
605.914	28.24
606.106	28.18
606.299	28.34
606.491	28.29
606.683	28.4
606.876	28.24
607.068	28.51
607.26	28.63
607.453	28.98
607.645	29.23
607.837	29.21
608.03	29.44
608.222	29.67
608.414	29.57
608.606	29.6
608.799	29.26
608.991	29.25
609.183	29.02
609.375	28.95
609.567	28.96
609.759	28.96
609.952	28.87
610.144	28.85
610.336	28.74
610.528	28.67
610.72	28.71
610.912	28.8
611.104	28.64
611.296	28.5
611.488	28.7
611.68	28.52
611.872	28.33
612.064	28.27
612.256	28.38
612.448	28.32
612.64	28.49
612.832	28.53
613.023	28.69
613.215	29
613.407	29.31
613.599	29.4
613.791	29.36
613.983	29.39
614.174	29.61
614.366	29.57
614.558	29.47
614.75	29.27
614.941	29.22
615.133	29.24
615.325	28.87
615.516	28.88
615.708	28.86
615.9	28.89
616.091	29.03
616.283	29.28
616.475	29.21
616.666	29.2
616.858	29.48
617.049	29.41
617.241	29.17
617.432	29.37
617.624	29.16
617.815	28.9
618.007	28.7
618.198	28.4
618.39	28.15
618.581	28
618.773	27.97
618.964	27.64
619.155	27.85
619.347	27.97
619.538	28.29
619.729	28.58
619.921	28.25
620.112	28.57
620.303	28.49
620.494	28.51
620.686	28.68
620.877	28.72
621.068	28.96
621.259	28.81
621.451	28.74
621.642	28.18
621.833	28.05
622.024	28.33
622.215	28.23
622.406	28.37
622.597	28.18
622.788	28.24
622.98	28.24
623.171	28.05
623.362	28.06
623.553	28.12
623.744	28.27
623.935	28.27
624.126	28.67
624.317	28.74
624.508	28.93
624.698	28.84
624.889	28.76
625.08	28.97
625.271	29.13
625.462	29.36
625.653	29.09
625.844	29.2
626.034	29.06
626.225	29.22
626.416	28.99
626.607	28.95
626.798	29.21
626.988	28.95
627.179	28.56
627.37	28.58
627.56	28.34
627.751	28.49
627.942	28.45
628.132	28.62
628.323	28.39
628.514	28.31
628.704	28.56
628.895	28.48
629.085	28.68
629.276	29.27
629.466	29.16
629.657	29.37
629.847	29.7
630.038	29.75
630.228	29.59
630.419	29.51
630.609	29.64
630.8	29.5
630.99	29.37
631.181	29.6
631.371	29.06
631.561	28.95
631.752	28.6
631.942	28.61
632.132	28.78
632.323	29.14
632.513	29.02
632.703	29.3
632.893	29.31
633.084	29.51
633.274	29.56
633.464	29.66
633.654	29.91
633.844	30.35
634.034	30.39
634.225	30.12
634.415	29.83
634.605	30.02
634.795	29.95
634.985	29.98
635.175	30.07
635.365	29.93
635.555	29.98
635.745	29.87
635.935	29.38
636.125	28.98
636.315	29.05
636.505	29.05
636.695	29.05
636.885	29.07
637.075	28.87
637.265	28.63
637.455	28.62
637.644	28.93
637.834	28.92
638.024	28.99
638.214	28.87
638.404	28.45
638.593	28.19
638.783	28.16
638.973	27.83
639.163	27.88
639.352	27.89
639.542	27.69
639.732	27.54
639.921	27.62
640.111	28.02
640.301	28.25
640.49	28.5
640.68	28.55
640.87	28.04
641.059	28.26
641.249	28.18
641.438	28.25
641.628	28.21
641.817	27.84
642.007	28.22
642.196	27.9
642.386	28.11
642.575	28.32
642.764	28.14
642.954	28.37
643.143	28.47
643.333	28.44
643.522	28.39
643.711	28.52
643.901	28.49
644.09	28.38
644.279	28.42
644.469	28.33
644.658	28.39
644.847	28.83
645.036	28.76
645.226	28.79
645.415	28.69
645.604	28.71
645.793	28.7
645.982	28.99
646.171	28.6
646.361	28.87
646.55	29.09
646.739	28.85
646.928	28.95
647.117	28.94
647.306	28.89
647.495	29.03
647.684	28.74
647.873	28.58
648.062	28.37
648.251	28.66
648.44	28.44
648.629	27.91
648.818	27.79
649.007	27.73
649.196	27.83
649.384	27.91
649.573	27.99
649.762	28.19
649.951	28.33
650.14	28.49
650.328	28.15
650.517	27.88
650.706	28
650.895	28.59
651.083	28.68
651.272	28.73
651.461	28.84
651.65	28.91
651.838	29.16
652.027	29.16
652.216	29.51
652.404	29.18
652.593	29.34
652.781	29.4
652.97	29.17
653.158	29.56
653.347	29.9
653.535	29.35
653.724	29.12
653.912	28.99
654.101	29.11
654.289	28.95
654.478	29.5
654.666	29.28
654.855	29.51
655.043	29.22
655.231	29.31
655.42	29.31
655.608	29.56
655.796	29.97
655.985	29.55
656.173	29.45
656.361	29.08
656.55	28.87
656.738	29.06
656.926	28.61
657.114	28.89
657.302	28.52
657.491	28.18
657.679	28.43
657.867	28.31
658.055	28.74
658.243	29.2
658.431	29.6
658.619	29.59
658.807	29.49
658.996	29.52
659.184	29.56
659.372	29.52
659.56	29.62
659.748	29.45
659.936	29.18
660.124	28.99
660.311	28.58
660.499	28.5
660.687	28.79
660.875	29.23
661.063	29.34
661.251	29.37
661.439	29.43
661.627	29.42
661.814	29.58
662.002	29.82
662.19	30.32
662.378	30.25
662.565	30.21
662.753	29.95
662.941	29.44
663.129	29.45
663.316	29.36
663.504	28.43
663.692	28.66
663.879	28.66
664.067	28.49
664.254	27.88
664.442	28.03
664.63	27.87
664.817	27.67
665.005	28.1
665.192	28.29
665.38	28.05
665.567	28.53
665.755	27.84
665.942	27.82
666.13	27.74
666.317	27.69
666.504	27.49
666.692	27.33
666.879	27.7
667.067	27.54
667.254	27.54
667.441	27.9
667.629	27.94
667.816	28.31
668.003	28.11
668.19	28.31
668.378	28.31
668.565	29.01
668.752	29.12
668.939	28.94
669.127	28.94
669.314	29.06
669.501	28.85
669.688	29.09
669.875	28.91
670.062	29.28
670.249	29.26
670.436	29.3
670.623	28.33
670.81	28.38
670.997	28.95
671.184	28.78
671.371	28.52
671.558	28.51
671.745	28.93
671.932	29.84
672.119	29.38
672.306	29.3
672.493	29.72
672.68	30.42
672.867	30.73
673.054	30.19
673.24	30.12
673.427	30.21
673.614	30.2
673.801	29.34
673.988	28.8
674.174	28.78
674.361	28.93
674.548	28.56
674.734	28.8
674.921	28.48
675.108	28.44
675.294	28.45
675.481	28.73
675.668	29.02
675.854	29.6
676.041	29.19
676.227	29.35
676.414	29.62
676.601	29.65
676.787	29.47
676.974	29.64
677.16	30.06
677.347	30.33
677.533	30.22
677.719	29.65
677.906	29.59
678.092	29.67
678.279	29.79
678.465	29.83
678.651	30.08
678.838	30.27
679.024	29.63
679.21	29.4
679.397	29.52
679.583	28.86
679.769	28.84
679.955	28.84
680.142	29.14
680.328	28.92
680.514	28.77
680.7	28.61
680.886	28.6
681.073	28.55
681.259	28.61
681.445	28.5
681.631	28.94
681.817	29.51
682.003	29.26
682.189	29.55
682.375	29.99
682.561	30.13
682.747	30.17
682.933	29.49
683.119	29.98
683.305	29.82
683.491	29.84
683.677	30.01
683.863	29.84
684.049	30.34
684.235	29.75
684.42	29.36
684.606	29.37
684.792	28.92
684.978	29.06
685.164	29.2
685.349	29.58
685.535	29.22
685.721	29.16
685.907	29.06
686.092	28.86
686.278	28.85
686.464	28.77
686.649	28.5
686.835	28.5
687.021	29.07
687.206	29.24
687.392	29.04
687.577	29.08
687.763	28.82
687.948	28.57
688.134	29
688.319	29.46
688.505	29.18
688.69	29.09
688.876	29.94
689.061	29.41
689.247	29.48
689.432	29.19
689.618	29.43
689.803	29.62
689.988	29.85
690.174	29.12
690.359	28.42
690.544	28.88
690.73	29.04
690.915	28.62
691.1	28.95
691.285	28.54
691.471	28.29
691.656	28.71
691.841	28.43
692.026	28.45
692.211	28.51
692.396	29.1
692.582	29.34
692.767	29.4
692.952	29.42
693.137	29.42
693.322	29.69
693.507	30.4
693.692	30.07
693.877	29.88
694.062	29.93
694.247	30.33
694.432	29.53
694.617	29.59
694.802	29.74
694.987	29.67
695.172	29.05
695.357	28.91
695.541	28.71
695.726	28.71
695.911	29.06
696.096	29.31
696.281	28.77
696.466	29.56
696.65	29
696.835	28.67
697.02	28.92
697.204	29.35
697.389	29.75
697.574	30.06
697.759	29.9
697.943	29.64
698.128	29.24
698.312	29.31
698.497	29.42
698.682	29.53
698.866	29.55
699.051	29.65
699.235	29.63
699.42	29.16
699.604	28.79
699.789	28.81
699.973	28.97
700.158	29.16
700.342	28.96
700.527	28.38
700.711	28.25
700.895	28.1
701.08	27.51
701.264	27.71
701.448	27.69
701.633	27.46
701.817	27.66
702.001	27.82
702.186	27.03
702.37	27.9
702.554	28.1
702.738	28.37
702.923	28.7
703.107	28.89
703.291	28.12
703.475	28.42
703.659	28.51
703.843	27.65
704.027	27.22
704.212	28.13
704.396	27.62
704.58	28.21
704.764	27.06
704.948	26.11
705.132	26.1
705.316	26.91
705.5	26.67
705.684	26.91
705.868	27.45
706.052	27.55
706.235	27.53
706.419	27.32
706.603	26.83
706.787	28.34
706.971	29.09
707.155	28.82
707.339	28.35
707.522	28.08
707.706	28.27
707.89	28.19
708.074	29.09
708.257	28.73
708.441	29.35
708.625	29.46
708.808	29.15
708.992	29.02
709.176	29.36
709.359	29.68
709.543	30.13
709.727	29.73
709.91	29.71
710.094	29.13
710.277	29.41
710.461	28.93
710.644	29.36
710.828	29.58
711.011	29.99
711.195	30.05
711.378	29.51
711.562	28.93
711.745	29
711.928	29.51
712.112	29.71
712.295	29.89
712.478	29.94
712.662	29.32
712.845	29
713.028	29.27
713.212	29.16
713.395	29.38
713.578	30.04
713.761	30.33
713.945	30.35
714.128	29.89
714.311	30.03
714.494	30.02
714.677	30.23
714.86	29.65
715.043	29.31
715.227	29.74
715.41	29.79
715.593	29.94
715.776	29.72
715.959	29.72
716.142	29.75
716.325	29.16
716.508	28.93
716.691	28.41
716.874	28.54
717.057	28.15
717.239	27.48
717.422	27.82
717.605	27.83
717.788	27.88
717.971	27.06
718.154	27.65
718.337	27.33
718.519	27.45
718.702	27.65
718.885	28.68
719.068	29.32
719.25	29.21
719.433	28.76
719.616	28.03
719.798	27.94
719.981	28.5
720.164	28.05
720.346	28.2
720.529	27.81
720.712	27.48
720.894	27.04
721.077	26.19
721.259	26.47
721.442	25.99
721.624	26.68
721.807	26.21
721.989	26.22
722.172	25.94
722.354	26.81
722.537	27.52
722.719	28.1
722.901	28.16
723.084	28.44
723.266	28.34
723.448	28.6
723.631	28.58
723.813	29.56
723.995	28.96
724.178	28.9
724.36	28.58
724.542	28.07
724.724	28.08
724.907	27.43
725.089	27.35
725.271	28.33
725.453	29.02
725.635	27.98
725.817	27.69
725.999	28.33
726.181	29.36
726.364	29.58
726.546	30.05
726.728	29.96
726.91	30.22
727.092	30.89
727.274	29.7
727.456	29.19
727.638	30.2
727.819	30.66
728.001	30.49
728.183	29.42
728.365	28.55
728.547	28.37
728.729	28.42
728.911	28.41
729.093	28.24
729.274	28.7
729.456	29.42
729.638	28.6
729.82	27.43
730.001	26.88
730.183	27.47
730.365	28.28
730.546	27.95
730.728	28.01
730.91	27.83
731.091	27.23
731.273	27.58
731.455	27.26
731.636	27.46
731.818	27.52
731.999	26.97
732.181	26.56
732.362	27.21
732.544	28.07
732.725	27.85
732.907	28.21
733.088	28.98
733.27	28.42
733.451	27.66
733.633	28.7
733.814	28.9
733.995	30.11
734.177	30.39
734.358	30.44
734.539	29.06
734.721	29.47
734.902	30.04
735.083	28.9
735.264	29.21
735.446	28.46
735.627	27.9
735.808	26.72
735.989	26.58
736.17	26.13
736.351	24.66
736.533	26.72
736.714	25.82
736.895	23.41
737.076	23.75
737.257	23.86
737.438	25.42
737.619	24.48
737.8	26.34
737.981	25.25
738.162	25.2
738.343	25.72
738.524	24.04
738.705	25
738.886	26.27
739.067	26.68
739.247	25.7
739.428	25.57
739.609	25.51
739.79	26.17
739.971	26.25
740.151	26.73
740.332	26.29
740.513	26.03
740.694	26.14
740.874	26.39
741.055	27.1
741.236	27.82
741.417	28.17
741.597	28.73
741.778	27.43
741.958	28.23
742.139	28.1
742.32	27.55
742.5	27.62
742.681	27.66
742.861	28.5
743.042	27.66
743.222	27.99
743.403	28.15
743.583	28.7
743.764	29.17
743.944	28.86
744.124	29.13
744.305	29.08
744.485	30.5
744.666	29.45
744.846	27.33
745.026	26.71
745.207	26.59
745.387	25.51
745.567	25.65
745.747	25.58
745.928	27.07
746.108	27.74
746.288	28.71
746.468	28.85
746.648	29.77
746.829	31.03
747.009	32.24
747.189	31.38
747.369	31.4
747.549	28.95
747.729	29.1
747.909	28.49
748.089	28.11
748.269	28.22
748.449	26.31
748.629	25.98
748.809	26.19
748.989	25.63
749.169	24.61
749.349	24.18
749.529	25.77
749.709	25.63
749.889	25.88
750.068	25.09
750.248	25.7
750.428	27.69
750.608	28.12
750.788	27.36
750.967	26.28
751.147	28.26
751.327	28.03
751.507	27.37
751.686	27.13
751.866	27.72
752.046	28.29
752.225	27.11
752.405	25.74
752.585	25.29
752.764	25.6
752.944	25.22
753.123	26.63
753.303	28.21
753.482	28.91
753.662	29.11
753.841	28.23
754.021	27.9
754.2	28.97
754.38	28.93
754.559	28.72
754.739	29.02
754.918	29.82
755.097	28.56
755.277	28.03
755.456	27.07
755.635	26.94
755.815	26.43
755.994	25.61
756.173	25.09
756.352	25.12
756.532	24.8
756.711	25.59
756.89	25.54
757.069	25.22
757.248	24.56
757.427	25.94
757.607	25.74
757.786	25.99
757.965	26.41
758.144	26.67
758.323	26.85
758.502	26.75
758.681	25.94
758.86	26.16
759.039	26.69
759.218	27.43
759.397	27.74
759.576	28.22
759.755	29.59
759.934	29.46
760.113	29.63
760.291	30.29
760.47	31.24
760.649	32.97
760.828	32.28
761.007	31.07
761.186	31.3
761.364	28.99
761.543	29.49
761.722	27.95
761.901	28.42
762.079	28.57
762.258	27.92
762.437	27.02
762.615	25.04
762.794	25.57
762.972	25.1
763.151	24.35
763.33	25.25
763.508	25.45
763.687	26.2
763.865	25.91
764.044	25.73
764.222	25.82
764.401	27.26
764.579	27.77
764.758	28.02
764.936	29.1
765.114	29.09
765.293	29.65
765.471	28.65
765.65	28
765.828	28.89
766.006	28.82
766.184	29.09
766.363	27.21
766.541	27.14
766.719	27.05
766.898	26.47
767.076	26.26
767.254	26.54
767.432	26.56
767.61	26.9
767.788	25.23
767.967	23.66
768.145	23
768.323	23.55
768.501	24.56
768.679	24.34
768.857	23.87
769.035	26.63
769.213	25.44
769.391	26.42
769.569	25.62
769.747	27.12
769.925	29.46
770.103	31.36
770.281	31.4
770.459	30.68
770.636	29.89
770.814	31.99
770.992	27.69
771.17	28.61
771.348	28.76
771.525	27.6
771.703	26.92
771.881	25.39
772.059	24.93
772.236	25.36
772.414	23.99
772.592	24.37
772.769	25.11
772.947	28.12
773.125	28.17
773.302	25.17
773.48	29.33
773.657	28.74
773.835	29.04
774.013	28.45
774.19	28.53
774.368	28.75
774.545	28.51
774.723	28.46
774.9	27.82
775.077	26.82
775.255	30.29
775.432	26.33
775.61	26.88
775.787	27.29
775.964	27.83
776.142	27.34
776.319	26.12
776.496	24.98
776.674	20.76
776.851	19.62
777.028	19.19
777.205	17.13
777.382	17.94
777.56	19.29
777.737	21.93
777.914	20.96
778.091	21.58
778.268	23.55
778.445	24.98
778.622	26.84
778.8	28.59
778.977	30.04
779.154	30.35
779.331	31.9
779.508	32.39
779.685	30.12
779.862	30.68
780.038	28.28
780.215	29.13
780.392	30.08
780.569	30.9
780.746	32.88
780.923	33.77
781.1	35.56
781.277	33.07
781.453	33.31
781.63	32.59
781.807	33.5
781.984	35.59
782.16	35.53
782.337	34.81
782.514	34.52
782.691	31.03
782.867	28.94
783.044	26.76
783.221	27.23
783.397	28.3
783.574	29.37
783.75	29.05
783.927	28.59
784.103	28.2
784.28	28.55
784.456	28.27
784.633	26.82
784.809	27.93
784.986	27.93
785.162	28.36
785.339	26.22
785.515	28.13
785.692	25.85
785.868	23.48
786.044	23.87
786.221	22.59
786.397	24.04
786.573	24.04
786.749	23.14
786.926	24.14
787.102	24.3
787.278	25.4
787.454	24.58
787.631	26.52
787.807	29.03
787.983	28.07
788.159	29.71
788.335	29.1
788.511	29.35
788.687	27.96
788.863	27.69
789.039	26.37
789.216	24.09
789.392	22.61
789.568	24.58
789.744	23.57
789.919	22.38
790.095	22.87
790.271	22.88
790.447	24.34
790.623	23.75
790.799	25.32
790.975	28.88
791.151	28.76
791.327	27.92
791.502	24.16
791.678	27.25
791.854	28.59
792.03	27.91
792.205	26.44
792.381	25.09
792.557	27.52
792.733	26.33
792.908	24
793.084	25.14
793.259	26.03
793.435	28.75
793.611	27.38
793.786	26.81
793.962	24.24
794.137	26.57
794.313	28.2
794.488	26.11
794.664	23.81
794.839	22.25
795.015	21.86
795.19	22.46
795.366	21.58
795.541	22.13
795.716	24.16
795.892	25.72
796.067	25.78
796.242	23.61
796.418	24.67
796.593	26.26
796.768	29.19
796.944	29.65
797.119	30.5
797.294	29.73
797.469	28.08
797.644	24.61
797.82	25.07
797.995	23.98
798.17	25.11
798.345	25.73
798.52	25.46
798.695	23.96
798.87	19.84
799.045	19.48
799.22	20.57
799.395	19.25
799.57	19.71
799.745	20.03
799.92	21.47
800.095	22.1
800.27	19.15
800.445	21.4
800.62	22.06
800.795	24.19
800.97	22.54
801.145	20.64
801.319	20.83
801.494	22.4
801.669	22.23
801.844	19.65
802.018	17.59
802.193	18.48
802.368	18.27
802.543	15.95
802.717	15.8
802.892	18.98
803.067	20.04
803.241	23.57
803.416	18.21
803.59	20.87
803.765	19.92
803.94	20.75
804.114	24.28
804.289	21.26
804.463	24.42
804.638	27.12
804.812	24.71
804.986	23.2
805.161	19.16
805.335	25.12
805.51	21.97
805.684	26.59
805.858	24.92
806.033	25.46
806.207	29.02
806.381	29.95
806.556	29.2
806.73	32.18
806.904	35.1
807.078	34.38
807.253	30.24
807.427	31.7
807.601	30.15
807.775	32.72
807.949	30.42
808.123	28.45
808.298	29.45
808.472	26.58
808.646	21.15
808.82	15.87
808.994	17.73
809.168	18.2
809.342	17.41
809.516	17.12
809.69	16.27
809.864	18.7
810.038	17.58
810.212	14.35
810.385	17.09
810.559	19.09
810.733	23.45
810.907	24.82
811.081	26.25
811.255	26.34
811.428	26.12
811.602	28.48
811.776	28.01
811.95	24.4
812.123	26.88
812.297	27.23
812.471	31.41
812.644	27.86
812.818	29.78
812.992	32.36
813.165	32.02
813.339	33.18
813.512	32.24
813.686	30.77
813.86	33.58
814.033	33.4
814.207	34.68
814.38	32.38
814.554	35.4
814.727	31.73
814.9	23.91
815.074	23.53
815.247	18.29
815.421	16.7
815.594	18.7
815.767	21.64
815.941	20.4
816.114	15.22
816.287	10.12
816.46	9.41
816.634	12.42
816.807	16.62
816.98	14.19
817.153	22.59
817.327	22.04
817.5	22.81
817.673	22.26
817.846	21.06
818.019	26.6
818.192	29.25
818.365	33.58
818.538	30.99
818.711	33.86
818.884	36.99
819.057	39.03
819.23	39.75
819.403	38.66
819.576	38.95
819.749	37.76
819.922	34.46
820.095	35.28
820.268	30.21
820.441	35.28
820.614	34.25
820.786	32.31
820.959	27.12
821.132	27.94
821.305	26.38
821.477	26.51
821.65	27.71
821.823	29.32
821.996	29.21
822.168	29.43
822.341	28.26
822.514	27.88
822.686	28.93
822.859	28.69
823.031	28.39
823.204	28.8
823.376	28.98
823.549	28.34
823.722	27.4
823.894	27.08
824.067	27.37
824.239	27.41
824.411	26.73
824.584	26.06
824.756	26.95
824.929	26.45
825.101	25.87
825.273	25.43
825.446	26.28
825.618	26.02
825.79	26.74
825.963	26.62
826.135	26.73
826.307	29.07
826.479	28.5
826.652	28.92
826.824	29.63
826.996	31.06
827.168	31.69
827.34	30.71
827.512	31.76
827.684	30.4
827.856	29.54
828.029	29.48
828.201	28.3
828.373	29.16
828.545	27.75
828.717	27.6
828.889	27.88
829.061	27.34
829.232	28.46
829.404	27.22
829.576	27.43
829.748	29.51
829.92	28.33
830.092	30.02
830.264	29.06
830.436	30
830.607	32.52
830.779	31.9
830.951	32.35
831.123	30.94
831.294	32
831.466	34.27
831.638	34.15
831.809	36.59
831.981	35.01
832.153	36.83
832.324	35.54
832.496	33.65
832.667	26.5
832.839	24.78
833.011	27.81
833.182	27.7
833.354	26.43
833.525	27.16
833.697	27.43
833.868	27.09
834.039	27.47
834.211	27.64
834.382	25.92
834.554	29
834.725	28.47
834.896	26.73
835.068	26.84
835.239	27.63
835.41	24.21
835.581	22.81
835.753	20.67
835.924	15.86
836.095	12.98
836.266	15.2
836.438	16.76
836.609	18.26
836.78	18.62
836.951	20.1
837.122	20.43
837.293	24.3
837.464	26.73
837.635	27.45
837.806	30
837.977	37.81
838.148	32.72
838.319	36.01
838.49	34.07
838.661	31.38
838.832	25.26
839.003	21.62
839.174	16.17
839.345	6.04
839.516	3.04
839.687	1.79
839.857	-2.88
840.028	2.5
840.199	-1.14
840.37	0.43
840.54	4.27
840.711	5.16
840.882	4.04
841.053	7.4
841.223	18.75
841.394	25.07
841.564	29.54
841.735	25.89
841.906	21.96
842.076	22.32
842.247	22.37
842.417	25.31
842.588	22.55
842.758	23.98
842.929	20.08
843.099	16.24
843.27	15.32
843.44	16.44
843.611	11.89
843.781	16.94
843.951	10.01
844.122	6.14
844.292	-0.54
844.462	10.8
844.633	6.54
844.803	8.61
844.973	6.3
845.144	9.05
845.314	11.69
845.484	26.08
845.654	32.9
845.824	34.74
845.995	38.91
846.165	40.88
846.335	38.85
846.505	37.61
846.675	32.02
846.845	18.4
847.015	3.2
847.185	-2.81
847.355	-6.03
847.525	-11.7
847.695	17.38
847.865	20.45
848.035	18.99
848.205	12.78
848.375	27.32
848.545	47.6
848.715	43.81
848.884	49.34
849.054	44.06
849.224	49.12
849.394	46.18
849.564	28.13
849.733	39.81
849.903	40.18
850.073	42.63
850.243	42.21
850.412	47
850.582	55.08
850.752	50.33
850.921	55.33
851.091	36.71
851.26	24.3
851.43	20.66
851.599	6.51
851.769	11.21
851.939	1.26
852.108	4.74
852.278	-12.79
852.447	-7.3
852.616	-11.21
852.786	-41.91
852.955	-29.9
853.125	-9.72
853.294	-12.65
853.463	-13.35
853.633	-27.52
853.802	-16.4
853.971	-12.08
854.141	4.18
854.31	-0.4
854.479	9.58
854.648	33.99
854.818	31.09
854.987	42.07
855.156	44.61
855.325	58.14
855.494	59.81
855.663	61.82
855.832	79.05
856.001	71.2
856.171	66.17
856.34	73.41
856.509	62.96
856.678	71.64
856.847	55.82
857.016	57.38
857.185	54.97
857.353	51.8
857.522	64.46
857.691	32.19
857.86	44.59
858.029	39.73
858.198	28.36
858.367	50.2
858.535	29.03
858.704	23.74
858.873	-6.14
859.042	-58.5
859.21	-72.08
859.379	-17.59
859.548	15.59
859.717	7.29
859.885	15.12
860.054	17.38
860.222	14.92
860.391	25.59
860.56	22.79
860.728	24.76
860.897	33.05
861.065	33.43
861.234	38.62
861.402	25.52
861.571	21.85
861.739	26.73
861.908	29.66
862.076	8.89
862.244	6.87
862.413	26.84
862.581	38.43
862.749	39.4
862.918	58.8
863.086	52.64
863.254	65.08
863.423	70.82
863.591	30.67
863.759	24.61
863.927	27.51
864.096	21.22
864.264	7.64
864.432	-12.98
864.6	-5.24
864.768	-46.12
864.936	-24.73
865.104	-34.5
865.272	-1.43
865.44	26.78
865.608	29.14
865.776	73.49
865.944	81.29
866.112	55.3
866.28	50.57
866.448	60.41
866.616	51.4
866.784	39.89
866.952	34.61
867.12	19.42
867.288	15.47
867.455	8.45
867.623	-6.39
867.791	0.73
867.959	12.95
868.127	21.25
868.294	13.97
868.462	26.27
868.63	6.86
868.797	7.8
868.965	-0.26
869.133	-13.52
869.3	7.24
869.468	-2.03
869.636	3.58
869.803	9.65
869.971	0.73
870.138	-0.28
870.306	10.05
870.473	6.19
870.641	3.89
870.808	18.34
870.975	25.07
871.143	18.74
871.31	14.1
871.478	22.69
871.645	24.32
871.812	27.45
871.98	36.48
872.147	26.68
872.314	34.8
872.482	29.18
872.649	18.43
872.816	12.14
872.983	10.47
873.15	20.81
873.318	8.6
873.485	6.11
873.652	-13.08
873.819	-8.67
873.986	6.94
874.153	13.29
874.32	19.52
874.487	23.71
874.654	33.69
874.821	26.96
874.988	26.57
875.155	20.15
875.322	9.13
875.489	27
875.656	15.82
875.823	14.42
875.99	5.18
876.157	4.38
876.324	-1.5
876.49	-13.51
876.657	-1.09
876.824	-8.13
876.991	-6.61
877.157	-5.07
877.324	-12.2
877.491	-0.16
877.658	-11.26
877.824	-1.84
877.991	1.5
878.157	17.25
878.324	13.26
878.491	5.17
878.657	21.86
878.824	19.04
878.99	33.48
879.157	20.29
879.323	7.55
879.49	11.61
879.656	25.19
879.823	-8.21
879.989	-71.09
880.156	-75.45
880.322	-64.93
880.488	-80.04
880.655	-50.12
880.821	-57.85
880.987	-1.66
881.154	-10.37
881.32	8.62
881.486	8.3
881.652	21.3
881.819	31.39
881.985	33.66
882.151	33.71
882.317	35.77
882.483	33
882.649	33.67
882.816	26.63
882.982	26.08
883.148	23.48
883.314	20.22
883.48	21.19
883.646	19.37
883.812	19.62
883.978	18.32
884.144	20.79
884.31	21.73
884.476	21.74
884.642	21.23
884.807	22.93
884.973	25.67
885.139	29.85
885.305	29.24
885.471	30.44
885.637	28.15
885.802	30.16
885.968	27.77
886.134	28.2
886.3	28.1
886.465	27.59
886.631	30.59
886.797	24.28
886.962	25.57
887.128	20.67
887.293	17.74
887.459	20.31
887.625	16.65
887.79	12.4
887.956	15.2
888.121	14.54
888.287	17.84
888.452	11.99
888.618	22.72
888.783	11.66
