Data from 2938050_Reflection_1.txt Node
Date: Sun Jul 12 14:15:46 EDT 2015
User: robert
Spectrometer: USB4E03001
Autoset integration time: false
Trigger mode: 4
Integration Time (sec): 1.000000E-1
Scans to average: 10
Electric dark correction enabled: true
Nonlinearity correction enabled: false
Boxcar width: 5
Stray light correction enabled: false
XAxis mode: Wavelengths
Stop averaging: false
Number of Pixels in Spectrum: 3648
>>>>>Begin Spectral Data<<<<<
177.566	46.89
177.785	210.07
178.005	230.49
178.225	387.26
178.445	-229.28
178.665	0.14
178.885	105.92
179.105	59.41
179.324	80.02
179.544	109.2
179.764	94.97
179.984	79.89
180.204	167.54
180.423	193.57
180.643	258.48
180.863	279.72
181.083	133.82
181.302	68.3
181.522	50.83
181.742	56.77
181.961	-3.9
182.181	-12.16
182.401	3.36
182.621	12.51
182.84	32.42
183.06	-10.53
183.279	14.78
183.499	35.19
183.719	52.58
183.938	66.72
184.158	38.33
184.377	28.83
184.597	27.03
184.816	21.07
185.036	1.55
185.256	0.31
185.475	21.27
185.695	18.39
185.914	2.02
186.134	0.19
186.353	18.36
186.572	42.29
186.792	54.87
187.011	55.6
187.231	67.03
187.45	78.56
187.67	60.35
187.889	52.62
188.108	65.51
188.328	82.54
188.547	79.96
188.766	76.98
188.986	68.92
189.205	84.5
189.424	79.68
189.644	56.57
189.863	57.97
190.082	69.7
190.302	84.52
190.521	65.91
190.74	62.61
190.959	68.85
191.178	95.21
191.398	-546.56
191.617	-39.06
191.836	-100.92
192.055	-45.89
192.274	-115.68
192.494	-117.01
192.713	-150.27
192.932	-161.76
193.151	-68.02
193.37	27.59
193.589	93.16
193.808	-55.85
194.027	-126.37
194.246	-77.42
194.465	-6.7
194.685	37.36
194.904	14.56
195.123	-36.08
195.342	-18.86
195.561	-8.9
195.78	33.14
195.999	46.76
196.218	43.08
196.436	61.19
196.655	40.46
196.874	17.97
197.093	0.58
197.312	6.74
197.531	41.55
197.75	35.64
197.969	38.69
198.188	33.82
198.407	6.41
198.625	44.53
198.844	50.96
199.063	78.12
199.282	123.65
199.501	124.4
199.719	110.08
199.938	108.56
200.157	106.41
200.376	143.59
200.594	163.95
200.813	148.94
201.032	60.41
201.251	-88.7
201.469	-65.18
201.688	-83.6
201.907	-30.38
202.125	-29.06
202.344	-0.63
202.563	-25.27
202.781	-13.9
203	6.47
203.218	-7.08
203.437	27.12
203.656	56.67
203.874	21.21
204.093	0.5
204.311	-21.04
204.53	-55.36
204.748	-46.74
204.967	-36.01
205.185	-72.83
205.404	-109.49
205.622	-62.67
205.841	-20.18
206.059	8.38
206.278	68.93
206.496	91.86
206.715	37.65
206.933	40.4
207.151	32.98
207.37	52.38
207.588	31.59
207.806	40.15
208.025	30.67
208.243	18.64
208.461	8.97
208.68	30.18
208.898	18.25
209.116	14.57
209.335	6.69
209.553	24.94
209.771	15.12
209.989	50.05
210.208	74.26
210.426	85.47
210.644	79.08
210.862	85.67
211.081	66.7
211.299	80.75
211.517	74.7
211.735	77.24
211.953	63.79
212.171	41.86
212.39	43.41
212.608	28.59
212.826	34.85
213.044	15.36
213.262	-10.32
213.48	-31.82
213.698	-18.87
213.916	-24.52
214.134	-8.75
214.352	-21.29
214.57	4.98
214.788	-5.51
215.006	-19.06
215.224	-17.62
215.442	-22.81
215.66	23.15
215.878	54.19
216.096	42.6
216.314	58.12
216.532	43.08
216.75	51.5
216.968	58.83
217.185	59.7
217.403	68.17
217.621	68.24
217.839	83.44
218.057	69.39
218.275	63.11
218.492	65.85
218.71	58.4
218.928	57.69
219.146	55.69
219.363	51.93
219.581	55.55
219.799	79.22
220.017	66.46
220.234	62.28
220.452	50.78
220.67	34.68
220.887	23.23
221.105	25.83
221.323	30.04
221.54	54.64
221.758	53.62
221.976	44.55
222.193	23.32
222.411	34.93
222.629	35.05
222.846	41.8
223.064	53.86
223.281	53.28
223.499	53.2
223.716	53.07
223.934	39.38
224.151	28.35
224.369	27.42
224.586	28.4
224.804	23.23
225.021	27.59
225.239	29.39
225.456	37.8
225.674	38.78
225.891	39.66
226.108	36.02
226.326	32.34
226.543	35.86
226.76	37.16
226.978	34.94
227.195	33.46
227.413	28.19
227.63	23.97
227.847	20.6
228.064	18.19
228.282	14.25
228.499	14.88
228.716	11.92
228.934	10.36
229.151	9.37
229.368	8.28
229.585	8.71
229.802	10.22
230.02	9.95
230.237	7.39
230.454	7.93
230.671	10.18
230.888	9.82
231.105	10.62
231.323	12.42
231.54	14.49
231.757	16.18
231.974	15.36
232.191	11.11
232.408	13.94
232.625	15.74
232.842	13.88
233.059	12.42
233.276	10.93
233.493	14.39
233.71	10.64
233.927	7.4
234.144	9.63
234.361	8.03
234.578	9.93
234.795	4.87
235.012	4.79
235.229	2.23
235.446	2.9
235.663	5.31
235.879	2.69
236.096	5.91
236.313	6.98
236.53	8.72
236.747	8.12
236.964	2.7
237.181	9.46
237.397	8.08
237.614	14.15
237.831	13.98
238.048	14.94
238.264	16.78
238.481	13.77
238.698	12.62
238.915	11.05
239.131	11.62
239.348	16.69
239.565	13.83
239.781	17.19
239.998	15.25
240.215	14.37
240.431	10.43
240.648	8.06
240.865	7.16
241.081	8
241.298	7.33
241.514	10.15
241.731	10.14
241.947	10.15
242.164	8.02
242.38	7.18
242.597	5.95
242.814	7.07
243.03	8.49
243.246	9.43
243.463	8.63
243.679	10.13
243.896	8.9
244.112	8.95
244.329	9.03
244.545	11.05
244.762	12.78
244.978	14.28
245.194	13.97
245.411	14.93
245.627	15.06
245.843	13.68
246.06	11.57
246.276	12.12
246.492	12.18
246.709	10.83
246.925	10.34
247.141	8.86
247.357	9.31
247.574	9.42
247.79	8.5
248.006	8.33
248.222	9.26
248.439	9.66
248.655	9.23
248.871	8.5
249.087	9.78
249.303	8.83
249.519	9.56
249.736	8.95
249.952	8.7
250.168	8.72
250.384	8.59
250.6	7.75
250.816	7.22
251.032	7.06
251.248	6.26
251.464	4.95
251.68	7.72
251.896	7.98
252.112	7.4
252.328	6.15
252.544	7.57
252.76	7.87
252.976	7.56
253.192	7.75
253.408	7.64
253.624	8.57
253.84	8.27
254.056	6.85
254.272	6.39
254.487	5.29
254.703	5.97
254.919	5.74
255.135	6.66
255.351	4.56
255.567	6.69
255.782	8.15
255.998	7.58
256.214	8.72
256.43	8.69
256.646	7.39
256.861	10.34
257.077	10.65
257.293	9.43
257.508	8.8
257.724	9.97
257.94	8.46
258.155	8.2
258.371	7.86
258.587	7.46
258.802	7.02
259.018	6.93
259.234	6.04
259.449	5.79
259.665	5.78
259.88	5
260.096	5
260.312	4.62
260.527	4.15
260.743	4.78
260.958	4.74
261.174	4.65
261.389	5.34
261.605	5.66
261.82	5.29
262.036	4.63
262.251	5.71
262.466	5.44
262.682	6.39
262.897	6.52
263.113	5.59
263.328	4.73
263.543	3.95
263.759	4.03
263.974	4.56
264.189	5.49
264.405	6.44
264.62	5.87
264.835	6.73
265.051	5.57
265.266	6.02
265.481	5.7
265.696	5.61
265.912	6.13
266.127	5.63
266.342	4.7
266.557	5.5
266.773	6.6
266.988	5.86
267.203	5.92
267.418	6.09
267.633	6.39
267.848	6.41
268.064	6.7
268.279	7.73
268.494	7.93
268.709	7.26
268.924	7.16
269.139	7.24
269.354	7.86
269.569	6.75
269.784	7.43
269.999	6.53
270.214	6.08
270.429	6.19
270.644	5.9
270.859	6.1
271.074	6.74
271.289	6.63
271.504	6.23
271.719	6.22
271.934	6.97
272.149	6.63
272.363	6.82
272.578	7.13
272.793	7.63
273.008	8.2
273.223	8.62
273.438	7.83
273.653	7.04
273.867	6.62
274.082	6.24
274.297	6.37
274.512	5.73
274.726	5.73
274.941	6.34
275.156	6.06
275.371	6.01
275.585	5.58
275.8	5.04
276.015	6.87
276.229	6.88
276.444	6.98
276.659	6.71
276.873	7.15
277.088	7.83
277.302	8.27
277.517	8.76
277.732	7.79
277.946	7.62
278.161	8.88
278.375	6.69
278.59	5.73
278.804	6.31
279.019	7.68
279.233	7.88
279.448	7.64
279.662	6.35
279.877	5.89
280.091	6.78
280.306	7.47
280.52	7.23
280.735	7.53
280.949	8.56
281.163	8.8
281.378	6.9
281.592	7.28
281.806	5.47
282.021	5.9
282.235	6.72
282.449	6.68
282.664	5.35
282.878	6.39
283.092	7.18
283.307	8.43
283.521	8.2
283.735	8.6
283.949	7.86
284.164	9.32
284.378	9.92
284.592	9.06
284.806	8.36
285.02	8.93
285.234	8.58
285.449	8.32
285.663	8.5
285.877	8.28
286.091	8.82
286.305	10.16
286.519	9.7
286.733	9.69
286.947	10.21
287.161	10.31
287.375	10.09
287.589	10.39
287.803	10.24
288.017	8.59
288.231	8.5
288.445	8.35
288.659	7.69
288.873	8.87
289.087	7.78
289.301	7.21
289.515	7.58
289.729	7.09
289.943	7.4
290.157	7.47
290.371	8.04
290.584	7.66
290.798	8.15
291.012	7.08
291.226	6.82
291.44	7.75
291.654	7.04
291.867	7.06
292.081	7.57
292.295	6.55
292.509	6.92
292.722	7.38
292.936	8.15
293.15	7.5
293.364	8.19
293.577	7.4
293.791	7.44
294.005	8.78
294.218	9.18
294.432	9.81
294.645	11.04
294.859	10.84
295.073	10.24
295.286	10.64
295.5	10.45
295.713	10.78
295.927	10.97
296.14	10.42
296.354	10.79
296.568	10.32
296.781	10.13
296.994	9.02
297.208	9.05
297.421	9.38
297.635	9.06
297.848	9.12
298.062	8.54
298.275	9.24
298.489	9.32
298.702	8.67
298.915	8.93
299.129	8.07
299.342	8.7
299.555	9.23
299.769	8.75
299.982	8.91
300.195	8.16
300.409	9.41
300.622	7.22
300.835	8.27
301.048	8.9
301.262	9.48
301.475	10.58
301.688	10.06
301.901	9.6
302.115	10.48
302.328	10.24
302.541	10.98
302.754	10.59
302.967	12.68
303.18	11.59
303.393	11.62
303.607	10.3
303.82	10.47
304.033	11.27
304.246	10.94
304.459	10.41
304.672	11.42
304.885	11.21
305.098	11.34
305.311	11.15
305.524	11.73
305.737	11
305.95	11.61
306.163	10.87
306.376	11.61
306.589	12.59
306.802	11.35
307.015	11.07
307.228	11.2
307.44	11.76
307.653	10.26
307.866	9.77
308.079	9.05
308.292	8.9
308.505	7.89
308.718	7.69
308.93	7.8
309.143	8.65
309.356	8.37
309.569	8.9
309.781	8.12
309.994	10.23
310.207	9.42
310.42	11.25
310.632	10.83
310.845	12.4
311.058	12.64
311.27	12.33
311.483	12.79
311.696	12.57
311.908	13.23
312.121	13.9
312.333	13.14
312.546	14.01
312.759	13.24
312.971	14.1
313.184	13.56
313.396	13.22
313.609	13.23
313.821	12.26
314.034	12.87
314.246	12.56
314.459	12.49
314.671	12.4
314.884	11.46
315.096	12.16
315.309	10.03
315.521	9.82
315.733	9.14
315.946	8.57
316.158	9.9
316.371	9.43
316.583	9.28
316.795	8.45
317.008	8.11
317.22	9.03
317.432	7.49
317.644	10.42
317.857	10.53
318.069	11.34
318.281	12.54
318.494	13.63
318.706	13.46
318.918	12.67
319.13	13.84
319.342	13.07
319.555	13.61
319.767	13.66
319.979	12.17
320.191	13.25
320.403	12.15
320.615	10.71
320.827	8.85
321.039	8.68
321.252	8.97
321.464	7.84
321.676	9.25
321.888	8.56
322.1	8.46
322.312	8.29
322.524	8.5
322.736	9.96
322.948	10.3
323.16	9.49
323.372	9.94
323.584	9.79
323.796	10.72
324.007	10.83
324.219	11.36
324.431	11.98
324.643	12.74
324.855	11.79
325.067	11.53
325.279	12.84
325.491	13.66
325.702	13.64
325.914	14.1
326.126	13.95
326.338	13.21
326.55	12.61
326.761	11.82
326.973	11.86
327.185	12.13
327.396	11.9
327.608	11.29
327.82	10.13
328.032	10
328.243	10.45
328.455	10.01
328.666	10.48
328.878	11.11
329.09	11.77
329.301	11.28
329.513	11.64
329.725	11.8
329.936	12.24
330.148	13.32
330.359	12.96
330.571	12.3
330.782	10.92
330.994	10.16
331.205	10.71
331.417	9.16
331.628	9.36
331.84	8.45
332.051	8.1
332.262	8.65
332.474	7.85
332.685	8
332.897	7.39
333.108	8.26
333.319	8.22
333.531	6.94
333.742	8.54
333.953	9.25
334.165	9.89
334.376	9.76
334.587	7.27
334.799	8.32
335.01	7.6
335.221	8.05
335.432	8.5
335.644	9.22
335.855	9.83
336.066	9.94
336.277	8.92
336.488	8.63
336.7	8.53
336.911	8.96
337.122	8.66
337.333	9.7
337.544	9.4
337.755	8.71
337.966	8.59
338.177	8.98
338.388	7.39
338.599	8.68
338.811	8.21
339.022	8.61
339.233	9.33
339.444	10.06
339.655	9.73
339.866	9.38
340.076	10.2
340.287	9.92
340.498	9.1
340.709	10.14
340.92	9.35
341.131	10.28
341.342	10.45
341.553	10.02
341.764	9.68
341.975	9.64
342.185	10.83
342.396	10.52
342.607	10.76
342.818	11.45
343.029	11.22
343.239	11.62
343.45	10.82
343.661	10.93
343.872	11.11
344.082	11.25
344.293	11.35
344.504	11.41
344.714	11.76
344.925	11.29
345.136	10.54
345.346	11.77
345.557	11.96
345.768	11.88
345.978	11.83
346.189	12.07
346.399	11.41
346.61	10.92
346.821	10.18
347.031	9.82
347.242	9.98
347.452	10.78
347.663	9.77
347.873	8.9
348.084	9.09
348.294	8.72
348.504	8.69
348.715	8.97
348.925	9.34
349.136	9.55
349.346	8.97
349.557	9.12
349.767	8.15
349.977	8.23
350.188	7.88
350.398	8.16
350.608	9.08
350.819	9.06
351.029	8.84
351.239	8
351.449	7.93
351.66	7.47
351.87	7.52
352.08	7.97
352.29	7.95
352.501	8.92
352.711	9.38
352.921	7.94
353.131	7.88
353.341	8.14
353.552	9.73
353.762	10.07
353.972	11.27
354.182	11.53
354.392	11.6
354.602	12.27
354.812	11.48
355.022	11.13
355.232	12.04
355.442	11.75
355.652	11.29
355.862	10.83
356.072	10.91
356.282	10.61
356.492	10.09
356.702	10.47
356.912	9.3
357.122	9.4
357.332	9.3
357.542	8.99
357.752	9.71
357.962	9.52
358.171	8.92
358.381	8.3
358.591	8.15
358.801	8.38
359.011	7.62
359.221	8.18
359.43	7.74
359.64	7.71
359.85	7.59
360.06	6.98
360.269	7.48
360.479	7.39
360.689	7.15
360.899	7.51
361.108	7.51
361.318	7.95
361.528	7.69
361.737	8.19
361.947	8.19
362.156	8.27
362.366	8.61
362.576	8.26
362.785	8.2
362.995	8.41
363.204	7.76
363.414	7.94
363.623	7.88
363.833	7.44
364.042	8.01
364.252	7.9
364.461	7.96
364.671	7.23
364.88	7.36
365.09	7.92
365.299	8.25
365.509	8.43
365.718	8.48
365.927	8.7
366.137	9.23
366.346	8.54
366.555	8.49
366.765	8.15
366.974	8.5
367.183	8.34
367.393	8.18
367.602	8.3
367.811	8.89
368.021	8.61
368.23	8.2
368.439	7.61
368.648	7.45
368.857	7.6
369.067	6.93
369.276	7.38
369.485	7.21
369.694	6.61
369.903	5.31
370.112	4.59
370.321	4.61
370.531	4.46
370.74	5.3
370.949	5.15
371.158	4.73
371.367	5.62
371.576	5.26
371.785	5.82
371.994	6.28
372.203	7.09
372.412	6.81
372.621	6.9
372.83	7.1
373.039	6.7
373.248	7.02
373.457	7.63
373.666	7.41
373.874	7.8
374.083	8
374.292	7.91
374.501	8.15
374.71	8.48
374.919	8.71
375.128	9.01
375.336	9.66
375.545	9.84
375.754	9.61
375.963	9.7
376.171	9.01
376.38	8.59
376.589	8.3
376.798	8.07
377.006	8.49
377.215	8.36
377.424	7.64
377.632	6.83
377.841	7
378.05	6.84
378.258	6.95
378.467	7.53
378.675	7.59
378.884	8.13
379.093	8.13
379.301	7.24
379.51	6.88
379.718	7.22
379.927	7.5
380.135	6.97
380.344	6.67
380.552	7.19
380.761	7.47
380.969	7.35
381.177	7.07
381.386	6.99
381.594	7.57
381.803	7.73
382.011	7.9
382.219	7.88
382.428	8.55
382.636	8.93
382.845	8.61
383.053	7.55
383.261	8.03
383.469	8.05
383.678	7.91
383.886	8.14
384.094	7.86
384.302	7.97
384.511	8.37
384.719	7.66
384.927	7.26
385.135	6.87
385.343	6.74
385.552	6.42
385.76	6.22
385.968	6.43
386.176	6.04
386.384	6.15
386.592	5.88
386.8	5.45
387.008	5.53
387.216	5.76
387.424	5.57
387.633	6.07
387.841	6.17
388.049	6.8
388.257	6.81
388.465	7.12
388.672	6.71
388.88	6.6
389.088	6.23
389.296	6.3
389.504	6.3
389.712	6.45
389.92	6.46
390.128	6.38
390.336	5.24
390.544	5.2
390.751	4.89
390.959	5.39
391.167	5.31
391.375	5.68
391.583	5.68
391.79	5.38
391.998	5.45
392.206	5.23
392.414	5.04
392.621	5.51
392.829	5.59
393.037	5.42
393.244	5.48
393.452	5.71
393.66	5.64
393.867	5.5
394.075	5.47
394.283	5.15
394.49	4.99
394.698	4.95
394.905	4.81
395.113	4.78
395.32	4.92
395.528	5.02
395.735	4.96
395.943	4.83
396.15	5.01
396.358	5.13
396.565	5.33
396.773	5.47
396.98	5.26
397.188	5.48
397.395	5.28
397.602	5.34
397.81	4.8
398.017	4.96
398.225	5.32
398.432	5.36
398.639	5.48
398.847	5.52
399.054	5.75
399.261	5.85
399.468	5.72
399.676	5.63
399.883	5.81
400.09	6.18
400.297	5.83
400.505	5.48
400.712	5.43
400.919	5.66
401.126	5.6
401.333	5.44
401.54	5.46
401.748	5.45
401.955	5.28
402.162	5.3
402.369	5.38
402.576	5.28
402.783	5.16
402.99	5.28
403.197	4.79
403.404	4.7
403.611	4.66
403.818	4.88
404.025	5.09
404.232	5.4
404.439	5.12
404.646	4.68
404.853	4.77
405.06	4.67
405.267	4.35
405.474	4.47
405.681	4.53
405.887	4.5
406.094	4.31
406.301	3.98
406.508	3.87
406.715	4.12
406.922	4.17
407.128	4.08
407.335	4.4
407.542	4.48
407.749	4.65
407.955	4.75
408.162	4.98
408.369	5.11
408.575	5.35
408.782	5.34
408.989	4.9
409.195	4.8
409.402	4.84
409.609	4.83
409.815	4.79
410.022	4.79
410.228	4.48
410.435	4.28
410.642	4.46
410.848	4.38
411.055	4.45
411.261	4.83
411.468	4.96
411.674	5.3
411.881	5.28
412.087	5.27
412.294	5.21
412.5	5.48
412.706	5.35
412.913	5.16
413.119	4.98
413.326	4.73
413.532	4.65
413.738	4.8
413.945	4.64
414.151	4.53
414.357	4.6
414.564	4.41
414.77	4.44
414.976	4.59
415.182	4.6
415.389	4.7
415.595	4.84
415.801	4.92
416.007	5.11
416.214	5.18
416.42	5.33
416.626	5.38
416.832	5.65
417.038	5.79
417.244	5.82
417.45	5.74
417.657	5.71
417.863	5.7
418.069	5.67
418.275	5.33
418.481	5.25
418.687	5.2
418.893	5.08
419.099	4.96
419.305	4.81
419.511	4.62
419.717	4.62
419.923	4.6
420.129	4.58
420.335	4.58
420.541	4.68
420.746	4.57
420.952	4.34
421.158	4.29
421.364	4.24
421.57	4.08
421.776	4.18
421.982	4.23
422.187	4.3
422.393	4.23
422.599	4.13
422.805	4.08
423.01	4.2
423.216	4.35
423.422	4.42
423.628	4.56
423.833	4.57
424.039	4.66
424.245	4.62
424.45	4.55
424.656	4.67
424.862	4.67
425.067	4.66
425.273	4.5
425.478	4.62
425.684	4.57
425.889	4.49
426.095	4.49
426.301	4.39
426.506	4.32
426.712	4.3
426.917	4.27
427.123	4.26
427.328	4.39
427.533	4.48
427.739	4.36
427.944	4.41
428.15	4.57
428.355	4.71
428.561	4.5
428.766	4.51
428.971	4.74
429.177	4.52
429.382	4.5
429.587	4.32
429.793	4.3
429.998	4.47
430.203	4.5
430.408	4.42
430.614	4.52
430.819	4.71
431.024	4.86
431.229	4.71
431.434	4.98
431.64	5.07
431.845	5.09
432.05	5.14
432.255	4.98
432.46	4.87
432.665	4.8
432.87	4.76
433.076	4.94
433.281	4.86
433.486	4.97
433.691	5
433.896	5.09
434.101	5.21
434.306	5.31
434.511	5.22
434.716	5.36
434.921	5.26
435.126	5.21
435.331	4.99
435.535	4.9
435.74	4.86
435.945	4.66
436.15	4.58
436.355	4.53
436.56	4.47
436.765	4.59
436.97	4.59
437.174	4.61
437.379	4.69
437.584	4.63
437.789	4.71
437.993	4.85
438.198	4.9
438.403	4.8
438.608	4.77
438.812	4.58
439.017	4.55
439.222	4.4
439.426	4.36
439.631	4.29
439.836	4.28
440.04	4.28
440.245	4.18
440.45	4.16
440.654	4.16
440.859	4.17
441.063	4.36
441.268	4.32
441.472	4.39
441.677	4.5
441.881	4.55
442.086	4.74
442.29	4.8
442.495	4.79
442.699	4.68
442.904	4.77
443.108	4.88
443.312	4.83
443.517	4.85
443.721	4.86
443.925	4.84
444.13	4.84
444.334	4.75
444.538	4.63
444.743	4.54
444.947	4.55
445.151	4.59
445.356	4.59
445.56	4.57
445.764	4.57
445.968	4.58
446.173	4.45
446.377	4.43
446.581	4.41
446.785	4.46
446.989	4.6
447.193	4.74
447.398	4.61
447.602	4.32
447.806	4.4
448.01	4.46
448.214	4.33
448.418	4.5
448.622	4.42
448.826	4.41
449.03	4.34
449.234	4.13
449.438	4.03
449.642	4.09
449.846	4.28
450.05	4.18
450.254	4.12
450.458	4.33
450.662	4.18
450.866	4.38
451.069	4.22
451.273	4.25
451.477	4.16
451.681	4.1
451.885	3.99
452.089	4.12
452.292	4.03
452.496	3.9
452.7	3.9
452.904	3.9
453.107	3.92
453.311	4.13
453.515	4.21
453.719	4.3
453.922	4.44
454.126	4.7
454.33	4.6
454.533	4.67
454.737	4.8
454.94	4.72
455.144	4.91
455.348	4.9
455.551	4.74
455.755	4.74
455.958	4.81
456.162	4.61
456.365	4.5
456.569	4.52
456.772	4.26
456.976	4.12
457.179	4.18
457.383	4.01
457.586	3.77
457.79	3.91
457.993	3.77
458.196	3.72
458.4	3.86
458.603	3.93
458.807	3.9
459.01	4.09
459.213	4.16
459.417	4.13
459.62	4.16
459.823	4.24
460.026	4.26
460.23	4.3
460.433	4.43
460.636	4.51
460.839	4.49
461.042	4.62
461.246	4.59
461.449	4.6
461.652	4.62
461.855	4.74
462.058	4.76
462.261	4.7
462.464	4.91
462.668	4.88
462.871	4.83
463.074	4.88
463.277	5.02
463.48	5.09
463.683	5.24
463.886	5.22
464.089	5.02
464.292	4.96
464.495	4.91
464.698	4.74
464.901	4.73
465.104	4.61
465.306	4.46
465.509	4.06
465.712	3.95
465.915	3.8
466.118	3.87
466.321	4
466.524	4.17
466.726	4.21
466.929	4.25
467.132	4.35
467.335	4.4
467.538	4.34
467.74	4.42
467.943	4.44
468.146	4.54
468.348	4.37
468.551	4.4
468.754	4.38
468.956	4.48
469.159	4.43
469.362	4.34
469.564	4.39
469.767	4.55
469.969	4.64
470.172	4.84
470.375	4.63
470.577	4.74
470.78	4.59
470.982	4.49
471.185	4.4
471.387	4.56
471.59	4.56
471.792	4.49
471.995	4.52
472.197	4.43
472.399	4.41
472.602	4.69
472.804	4.58
473.007	4.79
473.209	4.75
473.411	4.86
473.614	4.67
473.816	4.53
474.018	4.47
474.22	4.51
474.423	4.64
474.625	4.39
474.827	4.21
475.03	4.33
475.232	4.26
475.434	4.3
475.636	4.22
475.838	4.25
476.04	4.42
476.243	4.49
476.445	4.38
476.647	4.32
476.849	4.39
477.051	4.48
477.253	4.53
477.455	4.48
477.657	4.47
477.859	4.48
478.061	4.42
478.263	4.38
478.465	4.33
478.667	4.45
478.869	4.55
479.071	4.66
479.273	4.46
479.475	4.3
479.677	4.39
479.879	4.37
480.081	4.44
480.283	4.52
480.485	4.47
480.686	4.53
480.888	4.44
481.09	4.27
481.292	4.24
481.494	4.36
481.695	4.38
481.897	4.2
482.099	4.3
482.301	4.18
482.502	4.21
482.704	4.19
482.906	4.17
483.107	4.12
483.309	4.17
483.511	4.16
483.712	4.13
483.914	4.1
484.115	4.18
484.317	4.13
484.519	4.15
484.72	4.12
484.922	4.16
485.123	4.16
485.325	4.2
485.526	4.17
485.728	4.17
485.929	4.16
486.131	4.21
486.332	4.2
486.534	4.21
486.735	4.2
486.936	4.18
487.138	4.1
487.339	4.12
487.541	4.03
487.742	4.04
487.943	4.02
488.144	4.07
488.346	4
488.547	3.98
488.748	3.95
488.95	3.92
489.151	3.96
489.352	4.01
489.553	4.02
489.755	4.15
489.956	4.15
490.157	4.23
490.358	4.18
490.559	4.2
490.76	4.17
490.961	4.13
491.163	4.22
491.364	4.26
491.565	4.24
491.766	4.17
491.967	4.13
492.168	4.14
492.369	4.09
492.57	4.11
492.771	4.1
492.972	4.13
493.173	4.19
493.374	4.22
493.575	4.12
493.776	4.06
493.976	4.13
494.177	4.21
494.378	4.19
494.579	4.16
494.78	4.26
494.981	4.38
495.182	4.38
495.382	4.35
495.583	4.33
495.784	4.27
495.985	4.48
496.185	4.53
496.386	4.42
496.587	4.27
496.788	4.41
496.988	4.38
497.189	4.44
497.39	4.43
497.59	4.49
497.791	4.46
497.992	4.49
498.192	4.41
498.393	4.27
498.593	4.37
498.794	4.54
498.994	4.52
499.195	4.64
499.395	4.59
499.596	4.67
499.796	4.64
499.997	4.52
500.197	4.66
500.398	4.74
500.598	4.94
500.799	5.03
500.999	5.05
501.199	5.07
501.4	4.96
501.6	4.96
501.801	5.01
502.001	4.98
502.201	5.12
502.402	5.21
502.602	5.08
502.802	5.05
503.002	4.81
503.203	4.73
503.403	4.52
503.603	4.42
503.803	4.42
504.003	4.46
504.204	4.58
504.404	4.47
504.604	4.38
504.804	4.37
505.004	4.27
505.204	4.36
505.404	4.58
505.604	4.74
505.804	4.7
506.005	4.6
506.205	4.41
506.405	4.43
506.605	4.63
506.805	4.59
507.005	4.6
507.204	4.56
507.404	4.5
507.604	4.42
507.804	4.55
508.004	4.74
508.204	4.94
508.404	4.94
508.604	4.91
508.804	4.75
509.003	4.86
509.203	4.83
509.403	5
509.603	5.01
509.803	4.98
510.002	4.84
510.202	4.81
510.402	4.77
510.602	4.84
510.801	4.87
511.001	5.06
511.201	4.93
511.4	5.01
511.6	4.86
511.8	5
511.999	5.1
512.199	5.18
512.398	5.03
512.598	5.02
512.797	4.94
512.997	4.96
513.197	4.89
513.396	4.91
513.596	4.85
513.795	4.73
513.994	4.67
514.194	4.65
514.393	4.6
514.593	4.81
514.792	4.92
514.992	5.03
515.191	5.04
515.39	4.93
515.59	4.86
515.789	4.9
515.988	4.89
516.188	4.97
516.387	4.91
516.586	5.02
516.786	4.92
516.985	4.73
517.184	4.76
517.383	4.78
517.582	4.82
517.782	4.91
517.981	4.84
518.18	4.89
518.379	4.9
518.578	4.91
518.777	4.88
518.976	4.81
519.176	4.81
519.375	4.66
519.574	4.64
519.773	4.7
519.972	4.68
520.171	4.71
520.37	4.81
520.569	4.66
520.768	4.67
520.967	4.67
521.166	4.85
521.365	4.97
521.564	5.24
521.762	5.23
521.961	5.17
522.16	5.18
522.359	5.21
522.558	5.23
522.757	5.39
522.956	5.34
523.154	5.18
523.353	5.17
523.552	5.17
523.751	5.14
523.949	5.12
524.148	5.11
524.347	5.08
524.546	5.07
524.744	5.11
524.943	5.08
525.142	5.11
525.34	5.2
525.539	5.15
525.737	5.16
525.936	5.08
526.135	5.16
526.333	5.16
526.532	5.15
526.73	5.18
526.929	5.05
527.127	5.05
527.326	5.02
527.524	5.04
527.723	5.09
527.921	5.08
528.12	5.14
528.318	5.13
528.516	5.12
528.715	5.18
528.913	5.16
529.112	5.26
529.31	5.27
529.508	5.27
529.707	5.22
529.905	5.21
530.103	5.26
530.301	5.22
530.5	5.22
530.698	5.28
530.896	5.34
531.094	5.5
531.293	5.45
531.491	5.49
531.689	5.56
531.887	5.66
532.085	5.64
532.283	5.47
532.481	5.47
532.68	5.48
532.878	5.47
533.076	5.39
533.274	5.34
533.472	5.44
533.67	5.33
533.868	5.28
534.066	5.31
534.264	5.39
534.462	5.49
534.66	5.58
534.858	5.61
535.056	5.59
535.253	5.58
535.451	5.57
535.649	5.61
535.847	5.76
536.045	5.87
536.243	5.83
536.441	5.8
536.638	5.99
536.836	5.96
537.034	5.9
537.232	5.94
537.43	6.04
537.627	6.02
537.825	5.86
538.023	5.85
538.22	5.86
538.418	5.88
538.616	5.87
538.813	5.65
539.011	5.65
539.209	5.79
539.406	5.96
539.604	5.99
539.801	5.98
539.999	6.07
540.196	6.23
540.394	6.24
540.591	6.33
540.789	6.38
540.986	6.41
541.184	6.4
541.381	6.4
541.579	6.36
541.776	6.35
541.974	6.39
542.171	6.48
542.368	6.41
542.566	6.48
542.763	6.49
542.96	6.53
543.158	6.59
543.355	6.63
543.552	6.67
543.75	6.78
543.947	6.77
544.144	6.85
544.341	6.93
544.539	7.02
544.736	7.02
544.933	6.94
545.13	6.93
545.327	6.93
545.524	6.97
545.722	7.02
545.919	6.98
546.116	7.15
546.313	7.09
546.51	7.04
546.707	7.03
546.904	7.03
547.101	7.13
547.298	7.07
547.495	7.13
547.692	7.21
547.889	7.15
548.086	7.18
548.283	7.14
548.48	7.36
548.677	7.33
548.874	7.33
549.07	7.29
549.267	7.57
549.464	7.8
549.661	7.8
549.858	7.87
550.055	8.02
550.251	8.03
550.448	7.89
550.645	7.94
550.842	7.88
551.038	7.98
551.235	8.06
551.432	7.68
551.628	7.76
551.825	7.95
552.022	8.16
552.218	7.91
552.415	7.89
552.612	8.18
552.808	8.17
553.005	8.21
553.201	8.29
553.398	8.44
553.594	8.73
553.791	8.76
553.987	8.77
554.184	8.6
554.38	8.78
554.577	8.76
554.773	8.73
554.97	8.66
555.166	8.87
555.362	8.81
555.559	8.94
555.755	8.75
555.952	8.62
556.148	8.6
556.344	8.76
556.541	9.01
556.737	9.14
556.933	9.16
557.129	9.16
557.326	9.2
557.522	9.2
557.718	9.04
557.914	9.03
558.11	9.15
558.307	9.44
558.503	9.38
558.699	9.35
558.895	9.5
559.091	9.54
559.287	9.73
559.483	9.79
559.679	10
559.876	10.08
560.072	10.33
560.268	10.26
560.464	9.86
560.66	9.95
560.856	10.12
561.052	9.96
561.247	10.12
561.443	10.1
561.639	10.06
561.835	9.95
562.031	10.05
562.227	10
562.423	10.21
562.619	10.43
562.815	10.38
563.01	10.29
563.206	10.38
563.402	10.26
563.598	10.23
563.793	10.18
563.989	10.17
564.185	10.08
564.381	9.99
564.576	9.92
564.772	10.1
564.968	10.07
565.163	10.01
565.359	10.01
565.555	10.07
565.75	10.2
565.946	10.41
566.141	10.57
566.337	10.6
566.532	10.78
566.728	10.77
566.923	10.59
567.119	10.79
567.314	10.83
567.51	10.85
567.705	10.99
567.901	11.13
568.096	11.18
568.292	11.16
568.487	11.26
568.682	11.17
568.878	11.41
569.073	11.42
569.268	11.38
569.464	11.34
569.659	11.29
569.854	11.06
570.05	10.91
570.245	10.69
570.44	10.52
570.635	10.47
570.831	10.38
571.026	10.22
571.221	10.44
571.416	10.47
571.611	10.64
571.806	10.96
572.002	10.98
572.197	11.12
572.392	11.35
572.587	11.56
572.782	11.7
572.977	11.78
573.172	11.76
573.367	11.64
573.562	11.66
573.757	11.63
573.952	11.58
574.147	11.75
574.342	11.59
574.537	11.34
574.732	11.39
574.927	11.29
575.121	11.37
575.316	11.49
575.511	11.58
575.706	11.49
575.901	11.41
576.096	11.36
576.29	11.49
576.485	11.56
576.68	11.93
576.875	12.08
577.069	12.18
577.264	12.14
577.459	12.09
577.654	12.11
577.848	12.16
578.043	12.34
578.238	12.3
578.432	12.05
578.627	12.18
578.821	11.99
579.016	11.91
579.21	11.84
579.405	11.99
579.6	12.07
579.794	11.93
579.989	11.97
580.183	11.73
580.378	11.82
580.572	11.73
580.766	11.43
580.961	11.28
581.155	11
581.35	11
581.544	11.23
581.738	11.27
581.933	11.25
582.127	11.22
582.321	11.33
582.516	10.83
582.71	11.04
582.904	11.28
583.099	11.6
583.293	11.89
583.487	12.23
583.681	12.11
583.875	11.93
584.07	12.01
584.264	11.93
584.458	12.12
584.652	12.59
584.846	12.63
585.04	12.76
585.234	12.58
585.428	12.37
585.623	12
585.817	11.93
586.011	12.09
586.205	12.32
586.399	12.43
586.593	12.28
586.787	12.16
586.981	12.34
587.174	12.37
587.368	12.46
587.562	12.72
587.756	12.88
587.95	12.93
588.144	12.8
588.338	12.91
588.532	12.85
588.725	12.97
588.919	13.02
589.113	12.96
589.307	12.71
589.501	12.64
589.694	12.45
589.888	12.31
590.082	12.13
590.275	12.3
590.469	12.01
590.663	12.11
590.856	12.05
591.05	12.16
591.244	11.97
591.437	12.04
591.631	12.08
591.824	12.54
592.018	12.71
592.212	12.64
592.405	12.57
592.599	12.78
592.792	12.64
592.986	12.6
593.179	12.71
593.372	12.71
593.566	12.76
593.759	12.65
593.953	12.25
594.146	12.26
594.339	12.42
594.533	12.4
594.726	12.27
594.92	12.31
595.113	12.36
595.306	12.01
595.499	12.16
595.693	12.29
595.886	12.36
596.079	12.27
596.272	12.23
596.466	12.24
596.659	12.3
596.852	12.35
597.045	12.45
597.238	12.62
597.431	12.6
597.624	12.82
597.818	12.54
598.011	12.56
598.204	12.74
598.397	12.55
598.59	12.58
598.783	12.48
598.976	12.36
599.169	12.33
599.362	12.04
599.555	12.25
599.748	11.76
599.941	12.08
600.134	12.01
600.326	11.92
600.519	11.94
600.712	11.96
600.905	11.92
601.098	12.18
601.291	12.18
601.483	12.24
601.676	12.32
601.869	12.45
602.062	12.2
602.255	12.23
602.447	12.21
602.64	12.45
602.833	12.53
603.025	12.59
603.218	12.58
603.411	12.66
603.603	12.63
603.796	12.74
603.989	12.82
604.181	12.96
604.374	12.96
604.566	12.93
604.759	12.82
604.951	12.75
605.144	12.91
605.336	12.9
605.529	12.93
605.721	12.95
605.914	12.8
606.106	12.65
606.299	12.82
606.491	12.81
606.683	12.82
606.876	12.89
607.068	13.16
607.26	13.16
607.453	13.13
607.645	13.05
607.837	13.2
608.03	13.26
608.222	13.37
608.414	13.19
608.606	12.85
608.799	12.79
608.991	12.83
609.183	12.74
609.375	12.78
609.567	12.62
609.759	12.82
609.952	12.69
610.144	12.79
610.336	12.76
610.528	12.69
610.72	12.96
610.912	13.19
611.104	13.18
611.296	13.01
611.488	12.91
611.68	12.9
611.872	12.77
612.064	12.99
612.256	12.83
612.448	13.14
612.64	13.22
612.832	13.07
613.023	12.82
613.215	12.7
613.407	12.75
613.599	12.9
613.791	13.22
613.983	13.27
614.174	12.66
614.366	12.96
614.558	12.46
614.75	12.63
614.941	12.94
615.133	13.11
615.325	13.46
615.516	13.5
615.708	13.13
615.9	12.91
616.091	13.01
616.283	13.46
616.475	13.19
616.666	13.45
616.858	13.64
617.049	13.57
617.241	13.62
617.432	13.42
617.624	13.3
617.815	13.38
618.007	13.48
618.198	13.23
618.39	13.3
618.581	13.52
618.773	13.33
618.964	12.95
619.155	13.07
619.347	13.05
619.538	13.05
619.729	13.09
619.921	13.18
620.112	13.4
620.303	13.21
620.494	13.3
620.686	13.3
620.877	13.44
621.068	13.42
621.259	13.21
621.451	13.15
621.642	13.17
621.833	13.1
622.024	13
622.215	12.6
622.406	12.58
622.597	12.71
622.788	12.39
622.98	12.25
623.171	12.64
623.362	13.02
623.553	13.35
623.744	13.4
623.935	13.82
624.126	13.78
624.317	14.13
624.508	14.34
624.698	13.88
624.889	14.13
625.08	14.22
625.271	14.02
625.462	13.88
625.653	13.53
625.844	13.55
626.034	13.32
626.225	13.62
626.416	13.7
626.607	13.86
626.798	14.03
626.988	13.94
627.179	13.98
627.37	14.06
627.56	14.05
627.751	14.22
627.942	14.22
628.132	14.3
628.323	14.13
628.514	13.67
628.704	13.73
628.895	13.72
629.085	13.58
629.276	13.61
629.466	13.51
629.657	13.32
629.847	13.17
630.038	12.92
630.228	12.77
630.419	12.82
630.609	12.94
630.8	12.69
630.99	12.86
631.181	13.09
631.371	13.25
631.561	13.06
631.752	13.21
631.942	13.53
632.132	13.91
632.323	13.9
632.513	13.74
632.703	13.74
632.893	13.9
633.084	13.74
633.274	13.68
633.464	13.49
633.654	13.64
633.844	13.77
634.034	13.56
634.225	13.23
634.415	13.31
634.605	13.41
634.795	13.39
634.985	13.3
635.175	13.26
635.365	13.25
635.555	13.08
635.745	13.16
635.935	13.33
636.125	13.4
636.315	13.73
636.505	13.78
636.695	14.03
636.885	14.32
637.075	14.11
637.265	14.27
637.455	14.22
637.644	14.48
637.834	14.18
638.024	13.93
638.214	14.07
638.404	14
638.593	14.36
638.783	14.14
638.973	14.29
639.163	14.29
639.352	14.36
639.542	14.25
639.732	14.44
639.921	14.59
640.111	14.35
640.301	14.19
640.49	14.2
640.68	13.94
640.87	13.74
641.059	13.46
641.249	13.66
641.438	13.58
641.628	13.74
641.817	13.37
642.007	13.83
642.196	14.12
642.386	14.15
642.575	14.36
642.764	14.42
642.954	14.69
643.143	14.91
643.333	14.77
643.522	14.51
643.711	14.34
643.901	14.58
644.09	14.26
644.279	14.45
644.469	14.31
644.658	13.97
644.847	13.9
645.036	14.2
645.226	14.07
645.415	14.54
645.604	14.74
645.793	14.69
645.982	14.79
646.171	14.98
646.361	14.75
646.55	14.75
646.739	14.79
646.928	14.97
647.117	14.37
647.306	14.41
647.495	14.18
647.684	14.15
647.873	14.6
648.062	14.1
648.251	13.81
648.44	13.78
648.629	13.46
648.818	13.53
649.007	13.18
649.196	13.73
649.384	13.98
649.573	13.91
649.762	13.88
649.951	13.38
650.14	13.63
650.328	13.51
650.517	13.72
650.706	13.97
650.895	13.51
651.083	13.56
651.272	13.45
651.461	12.95
651.65	13.57
651.838	13.9
652.027	14.51
652.216	14.44
652.404	14.46
652.593	14.35
652.781	14.28
652.97	14.91
653.158	14.81
653.347	14.69
653.535	14.93
653.724	14.53
653.912	14.3
654.101	13.81
654.289	14.15
654.478	14.31
654.666	14.5
654.855	14.27
655.043	14.01
655.231	14.14
655.42	14.32
655.608	14.44
655.796	14.55
655.985	14.43
656.173	14.67
656.361	14.07
656.55	14.31
656.738	14.12
656.926	14.34
657.114	14.71
657.302	14.92
657.491	14.58
657.679	14.52
657.867	14.41
658.055	14.61
658.243	14.67
658.431	15.06
658.619	14.9
658.807	15.17
658.996	15.23
659.184	15.14
659.372	15.19
659.56	15.37
659.748	15.34
659.936	15.23
660.124	14.94
660.311	14.77
660.499	14.97
660.687	14.97
660.875	14.9
661.063	15.43
661.251	15.15
661.439	14.96
661.627	15.1
661.814	15.47
662.002	15.78
662.19	15.64
662.378	15.54
662.565	15
662.753	14.77
662.941	14.52
663.129	13.58
663.316	13.7
663.504	13.76
663.692	13.43
663.879	13.22
664.067	12.66
664.254	12.83
664.442	12.99
664.63	13.17
664.817	13.75
665.005	13.73
665.192	13.99
665.38	14.11
665.567	14.66
665.755	15.13
665.942	15.2
666.13	15.19
666.317	15.42
666.504	15.18
666.692	15.61
666.879	15.07
667.067	15.42
667.254	15.66
667.441	15.74
667.629	15.23
667.816	15.06
668.003	14.78
668.19	15.62
668.378	15.51
668.565	15.97
668.752	15.71
668.939	15.98
669.127	15.76
669.314	15.61
669.501	15.46
669.688	15.15
669.875	14.63
670.062	14.47
670.249	14.08
670.436	14.54
670.623	14.34
670.81	14.15
670.997	14.42
671.184	14.35
671.371	14.96
671.558	15.04
671.745	14.85
671.932	15.03
672.119	15.05
672.306	14.9
672.493	14.95
672.68	15.41
672.867	15.91
673.054	15.38
673.24	15.46
673.427	14.91
673.614	14.48
673.801	15.36
673.988	15.64
674.174	15.58
674.361	15.7
674.548	15.24
674.734	14.95
674.921	14.7
675.108	14.97
675.294	15.07
675.481	14.75
675.668	15.49
675.854	15.04
676.041	14.55
676.227	15.06
676.414	15.01
676.601	14.77
676.787	14.52
676.974	14.26
677.16	14.9
677.347	14.28
677.533	14.34
677.719	14.28
677.906	14.38
678.092	14.84
678.279	14.52
678.465	14.66
678.651	15.09
678.838	15.31
679.024	15.49
679.21	14.76
679.397	15.52
679.583	15.69
679.769	15.48
679.955	15.59
680.142	15.75
680.328	15.91
680.514	15.71
680.7	15.71
680.886	15.95
681.073	15.57
681.259	16.02
681.445	15.66
681.631	15.46
681.817	15.25
682.003	15.75
682.189	15.68
682.375	15.69
682.561	15.91
682.747	15.81
682.933	15.57
683.119	16.15
683.305	16.13
683.491	16.27
683.677	17.28
683.863	17.6
684.049	16.78
684.235	16.86
684.42	16.98
684.606	16.69
684.792	16.79
684.978	17.03
685.164	16.84
685.349	16.29
685.535	15.87
685.721	15.64
685.907	15.5
686.092	14.96
686.278	14.89
686.464	14.19
686.649	14.45
686.835	14.08
687.021	13.94
687.206	13.99
687.392	14.11
687.577	14.37
687.763	13.31
687.948	13.52
688.134	14.38
688.319	14.23
688.505	14.75
688.69	14.44
688.876	14.77
689.061	14.47
689.247	14.29
689.432	14.32
689.618	14.86
689.803	15.23
689.988	15.1
690.174	14.35
690.359	14.36
690.544	14.34
690.73	14.37
690.915	14.5
691.1	14.68
691.285	14.93
691.471	15.04
691.656	14.73
691.841	15.23
692.026	15.37
692.211	15.99
692.396	15.82
692.582	16.11
692.767	16.17
692.952	16.08
693.137	16.33
693.322	16.12
693.507	16.77
693.692	16.49
693.877	16.66
694.062	16.33
694.247	16.61
694.432	16.94
694.617	16.44
694.802	16.6
694.987	16.89
695.172	16.36
695.357	16.61
695.541	15.72
695.726	16.08
695.911	15.73
696.096	15.96
696.281	15.82
696.466	16.02
696.65	16.27
696.835	16.5
697.02	16.46
697.204	16.92
697.389	16.93
697.574	17.19
697.759	16.63
697.943	16.75
698.128	16.56
698.312	16.24
698.497	16.48
698.682	16.63
698.866	16.68
699.051	16.49
699.235	16.21
699.42	16.13
699.604	16.26
699.789	16.66
699.973	16.48
700.158	16.57
700.342	17.18
700.527	17.17
700.711	16.85
700.895	16.54
701.08	16.49
701.264	16.81
701.448	16.78
701.633	16.29
701.817	16.14
702.001	16.64
702.186	16.92
702.37	16.46
702.554	15.57
702.738	15.16
702.923	15.02
703.107	14.87
703.291	14.47
703.475	14.35
703.659	14.87
703.843	14.77
704.027	14.32
704.212	13.8
704.396	13.95
704.58	14.58
704.764	14.92
704.948	14.79
705.132	14.9
705.316	15.1
705.5	15.69
705.684	15.19
705.868	15.17
706.052	15.34
706.235	15.93
706.419	16.16
706.603	15.62
706.787	16
706.971	16
707.155	15.76
707.339	15.62
707.522	14.84
707.706	15.19
707.89	14.96
708.074	14.92
708.257	14.25
708.441	14.44
708.625	14.62
708.808	14.17
708.992	14.28
709.176	14.55
709.359	14.35
709.543	14.91
709.727	14.56
709.91	14.88
710.094	14.5
710.277	14.44
710.461	13.6
710.644	13.61
710.828	13.49
711.011	13.78
711.195	14.09
711.378	14.61
711.562	14.18
711.745	14.18
711.928	14.38
712.112	14.65
712.295	15.15
712.478	15.09
712.662	14.19
712.845	14.72
713.028	14.3
713.212	13.85
713.395	13.39
713.578	13.57
713.761	13.33
713.945	13.7
714.128	13.85
714.311	14.25
714.494	15.3
714.677	16.86
714.86	16.87
715.043	18.13
715.227	18.35
715.41	18.39
715.593	18.42
715.776	19.29
715.959	18.28
716.142	17.98
716.325	17
716.508	16.75
716.691	15.66
716.874	16.43
717.057	15.9
717.239	16.65
717.422	16.52
717.605	16.8
717.788	15.83
717.971	16.96
718.154	16.84
718.337	17.21
718.519	17.4
718.702	17.7
718.885	17.31
719.068	16.81
719.25	15.29
719.433	16.87
719.616	16.73
719.798	17.69
719.981	17.54
720.164	17.53
720.346	17.58
720.529	17.22
720.712	17.92
720.894	17.55
721.077	17.94
721.259	18.46
721.442	17.2
721.624	18.1
721.807	18.21
721.989	17.47
722.172	18.01
722.354	18.29
722.537	17.17
722.719	17.35
722.901	17.61
723.084	16.78
723.266	16.8
723.448	16.54
723.631	14.95
723.813	13.92
723.995	14.62
724.178	14.71
724.36	14.85
724.542	15.6
724.724	14.77
724.907	13.66
725.089	14.49
725.271	14.97
725.453	15.57
725.635	16.56
725.817	16.27
725.999	15.44
726.181	15.68
726.364	15.29
726.546	14.74
726.728	15.31
726.91	15.73
727.092	15.49
727.274	15.69
727.456	15.44
727.638	15.05
727.819	15.25
728.001	15.89
728.183	15.81
728.365	15.4
728.547	16.03
728.729	15.49
728.911	15.51
729.093	15.78
729.274	15.2
729.456	15.64
729.638	16.24
729.82	17.62
730.001	17.4
730.183	17.56
730.365	18.86
730.546	18.49
730.728	19.02
730.91	18.95
731.091	19.26
731.273	19.04
731.455	19.46
731.636	18.59
731.818	17.9
731.999	18.14
732.181	17.15
732.362	16.34
732.544	16.98
732.725	16.66
732.907	17.7
733.088	16.79
733.27	17.79
733.451	16.42
733.633	16.91
733.814	17.36
733.995	17.86
734.177	17.88
734.358	18.35
734.539	18.43
734.721	18.42
734.902	17.95
735.083	18.36
735.264	18.42
735.446	19.62
735.627	18.73
735.808	18.73
735.989	18.8
736.17	19.71
736.351	19.86
736.533	19.89
736.714	20.22
736.895	21.31
737.076	20.99
737.257	20.5
737.438	19.85
737.619	21.33
737.8	20.29
737.981	20.59
738.162	19.93
738.343	19.98
738.524	20.41
738.705	20
738.886	17.69
739.067	17.57
739.247	17.34
739.428	17.09
739.609	15.78
739.79	16.51
739.971	15.68
740.151	16.61
740.332	15.78
740.513	14.8
740.694	14.69
740.874	14.92
741.055	15.46
741.236	15.86
741.417	16.45
741.597	16.13
741.778	15.12
741.958	15.1
742.139	15.16
742.32	15.83
742.5	16.16
742.681	15.84
742.861	16.45
743.042	15.57
743.222	15.01
743.403	15.37
743.583	17.28
743.764	17.61
743.944	16.88
744.124	16.67
744.305	16.73
744.485	16.58
744.666	17.28
744.846	16.71
745.026	17.6
745.207	17.53
745.387	16.35
745.567	15.15
745.747	14.34
745.928	14.71
746.108	13.53
746.288	12.93
746.468	12.48
746.648	12.25
746.829	12.58
747.009	12.86
747.189	13.12
747.369	13.23
747.549	13.3
747.729	14.68
747.909	13.96
748.089	14.96
748.269	15.1
748.449	15.19
748.629	14.43
748.809	15.01
748.989	14.45
749.169	14.78
749.349	15.33
749.529	15.35
749.709	15.34
749.889	16.01
750.068	16.27
750.248	16
750.428	16.16
750.608	17.41
750.788	16.21
750.967	15.51
751.147	15.09
751.327	14.6
751.507	14.82
751.686	14.15
751.866	13.64
752.046	13.59
752.225	13.97
752.405	13.87
752.585	13.91
752.764	14.79
752.944	15.43
753.123	15.32
753.303	14.72
753.482	16.13
753.662	16.25
753.841	17.52
754.021	17.19
754.2	17.65
754.38	17.43
754.559	15.87
754.739	15.36
754.918	15.04
755.097	15.24
755.277	15.75
755.456	12.64
755.635	11.56
755.815	12.07
755.994	11.37
756.173	9.93
756.352	9.67
756.532	10.25
756.711	9.73
756.89	10.5
757.069	10.37
757.248	11.19
757.427	13.32
757.607	16.18
757.786	14.77
757.965	14.78
758.144	15.68
758.323	16.34
758.502	17.99
758.681	18.91
758.86	18.73
759.039	19.08
759.218	18.3
759.397	17.27
759.576	14.7
759.755	14.44
759.934	14.56
760.113	14.56
760.291	13.85
760.47	13.45
760.649	15.25
760.828	15.43
761.007	14.06
761.186	15.39
761.364	15.47
761.543	17.69
761.722	17.12
761.901	16.52
762.079	16.02
762.258	16.91
762.437	17.35
762.615	16.02
762.794	16.6
762.972	16.98
763.151	16.67
763.33	16.73
763.508	16.17
763.687	17.34
763.865	17.68
764.044	18.24
764.222	18.04
764.401	16.47
764.579	16.55
764.758	16.21
764.936	16.19
765.114	16.12
765.293	16.64
765.471	17.55
765.65	16.83
765.828	17.93
766.006	17.22
766.184	15.88
766.363	16.4
766.541	17.67
766.719	18.41
766.898	19.72
767.076	19.41
767.254	19.8
767.432	18.22
767.61	17.85
767.788	17.94
767.967	17.99
768.145	20.09
768.323	20.66
768.501	19.71
768.679	18.73
768.857	18.19
769.035	19.12
769.213	19.16
769.391	19.43
769.569	21.06
769.747	18.96
769.925	18.7
770.103	18.55
770.281	18.21
770.459	17.06
770.636	14.19
770.814	13.66
770.992	12.08
771.17	9.74
771.348	9.38
771.525	8.67
771.703	9.88
771.881	11.51
772.059	10.94
772.236	12.34
772.414	12.59
772.592	15.83
772.769	16.73
772.947	19.07
773.125	20.59
773.302	21.53
773.48	21.74
773.657	22.91
773.835	22.7
774.013	23.34
774.19	22.99
774.368	23.91
774.545	24.35
774.723	25.19
774.9	23.87
775.077	24.02
775.255	23.91
775.432	24.08
775.61	24.35
775.787	22.41
775.964	21.69
776.142	21.34
776.319	19.81
776.496	17.88
776.674	18.38
776.851	19.21
777.028	20.85
777.205	20.34
777.382	19.6
777.56	18.66
777.737	20.06
777.914	19.53
778.091	18.7
778.268	19.91
778.445	21.49
778.622	20.08
778.8	18.85
778.977	16.32
779.154	16.87
779.331	16.42
779.508	13.32
779.685	13.38
779.862	16.34
780.038	18.13
780.215	18.6
780.392	19.28
780.569	18.09
780.746	17.77
780.923	18.65
781.1	18.27
781.277	19.36
781.453	19.47
781.63	18.91
781.807	18.05
781.984	18.47
782.16	13.32
782.337	11.49
782.514	12.61
782.691	12.07
782.867	10.39
783.044	9.91
783.221	11.31
783.397	13.2
783.574	15.41
783.75	13.88
783.927	15.17
784.103	20.5
784.28	20.87
784.456	21.63
784.633	24
784.809	24.25
784.986	23.51
785.162	21.95
785.339	23.79
785.515	21.35
785.692	21.77
785.868	21.4
786.044	21.93
786.221	20.84
786.397	17.66
786.573	17.75
786.749	19.38
786.926	20.79
787.102	19.31
787.278	20.57
787.454	20.4
787.631	20.9
787.807	21.51
787.983	21.13
788.159	22.81
788.335	24.15
788.511	23.57
788.687	24.78
788.863	25.44
789.039	27.96
789.216	23.65
789.392	26.03
789.568	27.08
789.744	25.23
789.919	25.66
790.095	25.28
790.271	25.09
790.447	24.16
790.623	22.03
790.799	23.48
790.975	21.8
791.151	25.29
791.327	22.48
791.502	21.39
791.678	21.87
791.854	20.12
792.03	20.84
792.205	22.29
792.381	22.39
792.557	20.82
792.733	19.71
792.908	17.51
793.084	15.69
793.259	15.31
793.435	15.48
793.611	14.9
793.786	10.99
793.962	10.52
794.137	10
794.313	12.15
794.488	14.32
794.664	10.62
794.839	14.22
795.015	17.44
795.19	18.26
795.366	16.9
795.541	14.93
795.716	18.89
795.892	17.75
796.067	19.28
796.242	18.77
796.418	19.18
796.593	19.19
796.768	16.49
796.944	14.18
797.119	15.31
797.294	15.98
797.469	14.96
797.644	15.95
797.82	15.33
797.995	13.66
798.17	12.72
798.345	12.31
798.52	12.19
798.695	12.09
798.87	10.13
799.045	7.55
799.22	10.11
799.395	10.57
799.57	9.42
799.745	13.68
799.92	14.49
800.095	16.29
800.27	17.31
800.445	20.74
800.62	22.08
800.795	24.58
800.97	26.78
801.145	26.41
801.319	26.51
801.494	29.85
801.669	26.14
801.844	26.84
802.018	24.77
802.193	24.87
802.368	22.13
802.543	23.22
802.717	23.74
802.892	24.13
803.067	23.62
803.241	28.2
803.416	27.2
803.59	28.14
803.765	27.85
803.94	27.08
804.114	25.21
804.289	27.75
804.463	25.33
804.638	23.78
804.812	25.19
804.986	23.34
805.161	20.86
805.335	20.94
805.51	19.74
805.684	17.67
805.858	19.37
806.033	19.38
806.207	16.44
806.381	18.99
806.556	21.53
806.73	21.13
806.904	26.1
807.078	25.54
807.253	21.1
807.427	22.04
807.601	23.58
807.775	23.3
807.949	23.67
808.123	26.29
808.298	25.53
808.472	24.21
808.646	22.42
808.82	18.01
808.994	20.4
809.168	22.69
809.342	23.19
809.516	22.27
809.69	21.89
809.864	25.43
810.038	22.58
810.212	20.43
810.385	24.3
810.559	22.56
810.733	21.87
810.907	19.51
811.081	21.03
811.255	19.26
811.428	19.61
811.602	19.7
811.776	17.86
811.95	21.17
812.123	22.75
812.297	19.68
812.471	21.48
812.644	19.47
812.818	21.16
812.992	18.04
813.165	18.44
813.339	22.57
813.512	22.15
813.686	17.98
813.86	15.97
814.033	16.23
814.207	13.76
814.38	13.6
814.554	18.74
814.727	18.73
814.9	22.25
815.074	23.58
815.247	22.76
815.421	23.77
815.594	23.26
815.767	18.22
815.941	15.42
816.114	14.73
816.287	16.2
816.46	11.56
816.634	9.55
816.807	9.5
816.98	10.48
817.153	8.37
817.327	7.58
817.5	7.89
817.673	16.65
817.846	18.06
818.019	21.07
818.192	20.7
818.365	19.74
818.538	21.6
818.711	19.6
818.884	20.28
819.057	21.06
819.23	24.7
819.403	29.81
819.576	25.67
819.749	28.69
819.922	28.82
820.095	26.62
820.268	28.3
820.441	28.51
820.614	29.76
820.786	28.14
820.959	26.24
821.132	25
821.305	24.27
821.477	23.26
821.65	22.03
821.823	21.73
821.996	21.87
822.168	22.61
822.341	21.91
822.514	21.36
822.686	21.49
822.859	21.62
823.031	21.46
823.204	21.39
823.376	21.63
823.549	21.83
823.722	21.78
823.894	21.43
824.067	20.88
824.239	21.11
824.411	20.79
824.584	20.33
824.756	20.01
824.929	18.13
825.101	16.39
825.273	17.36
825.446	17.34
825.618	16.94
825.79	18.39
825.963	18.55
826.135	19.11
826.307	19.77
826.479	21.12
826.652	20.19
826.824	21.78
826.996	23.16
827.168	23.68
827.34	21.53
827.512	20.93
827.684	19.43
827.856	20.06
828.029	19
828.201	19.3
828.373	19
828.545	21.8
828.717	22.27
828.889	21.61
829.061	19.4
829.232	22
829.404	22.27
829.576	24.6
829.748	23.92
829.92	24.24
830.092	22.64
830.264	20.15
830.436	17.95
830.607	18.9
830.779	19.8
830.951	20.34
831.123	19.58
831.294	19.31
831.466	16.59
831.638	15.19
831.809	15.7
831.981	17.87
832.153	21.1
832.324	20.21
832.496	18.98
832.667	16.75
832.839	16.47
833.011	17.15
833.182	20.07
833.354	20.67
833.525	20.82
833.697	21.74
833.868	21.5
834.039	18.01
834.211	17.89
834.382	18.27
834.554	20.62
834.725	20.47
834.896	19.55
835.068	16.49
835.239	16.94
835.41	15.55
835.581	18.66
835.753	18.93
835.924	20.57
836.095	21.75
836.266	21.93
836.438	19.9
836.609	24.57
836.78	25.65
836.951	26.22
837.122	27.09
837.293	30.05
837.464	25.15
837.635	26.9
837.806	28.87
837.977	25.47
838.148	24.25
838.319	23.9
838.49	20.32
838.661	22.51
838.832	26.75
839.003	25.59
839.174	26.97
839.345	29.81
839.516	25.08
839.687	23.13
839.857	23.8
840.028	27.06
840.199	28.32
840.37	28.6
840.54	15.53
840.711	15.03
840.882	22
841.053	18.47
841.223	13.81
841.394	14.06
841.564	12.36
841.735	15.73
841.906	11.78
842.076	14.72
842.247	14.93
842.417	23.61
842.588	21.76
842.758	14.79
842.929	15.83
843.099	17.89
843.27	25.76
843.44	30.16
843.611	28.52
843.781	27.13
843.951	25.13
844.122	15.81
844.292	14.27
844.462	14.96
844.633	16.19
844.803	23.01
844.973	22.68
845.144	21.49
845.314	22.18
845.484	13.93
845.654	21.25
845.824	15.47
845.995	24.56
846.165	22.39
846.335	20.39
846.505	18.25
846.675	-2.62
846.845	2.57
847.015	9.32
847.185	3.23
847.355	17.31
847.525	9.91
847.695	9.92
847.865	11.17
848.035	25.47
848.205	28.62
848.375	34.25
848.545	37.43
848.715	33.96
848.884	24.98
849.054	27.1
849.224	31.74
849.394	44.27
849.564	54.85
849.733	53.24
849.903	50.19
850.073	52.4
850.243	48.5
850.412	58.72
850.582	57.76
850.752	58.25
850.921	55.82
851.091	50.48
851.26	54.35
851.43	46.96
851.599	47.09
851.769	38.79
851.939	30.76
852.108	36.56
852.278	36.09
852.447	41.88
852.616	40.9
852.786	24.27
852.955	36.17
853.125	35.24
853.294	44.01
853.463	36.23
853.633	34.63
853.802	50.53
853.971	44.81
854.141	42.84
854.31	38.67
854.479	37.54
854.648	48.54
854.818	46.3
854.987	33.27
855.156	21.02
855.325	30.1
855.494	33.13
855.663	18.81
855.832	6.76
856.001	-5.07
856.171	-3.4
856.34	-11.82
856.509	-12.5
856.678	-17.83
856.847	-11.86
857.016	-18.97
857.185	-9.84
857.353	7.68
857.522	11.1
857.691	20.98
857.86	31.73
858.029	36.78
858.198	45.15
858.367	37.02
858.535	36.93
858.704	33.41
858.873	40.04
859.042	31.65
859.21	27.52
859.379	31.56
859.548	34.91
859.717	33.5
859.885	30.97
860.054	26.4
860.222	16.74
860.391	9.16
860.56	9.46
860.728	-2.02
860.897	4.95
861.065	-1.65
861.234	-3.27
861.402	-3.49
861.571	-10.36
861.739	-7.02
861.908	-0.66
862.076	26.83
862.244	40.46
862.413	44.9
862.581	63.19
862.749	60.43
862.918	67.12
863.086	62.51
863.254	69.7
863.423	88.09
863.591	95.44
863.759	82.02
863.927	71.58
864.096	69.56
864.264	64.46
864.432	59.27
864.6	55.53
864.768	44.76
864.936	47.19
865.104	36.92
865.272	25.78
865.44	24.82
865.608	30.75
865.776	26.52
865.944	22.32
866.112	19.17
866.28	21.77
866.448	25.24
866.616	28.76
866.784	32.39
866.952	32.9
867.12	37.76
867.288	39.47
867.455	39.34
867.623	36.24
867.791	39.12
867.959	44.36
868.127	44.66
868.294	47.82
868.462	51.27
868.63	39.77
868.797	43.64
868.965	44.61
869.133	32.99
869.3	33.44
869.468	40.4
869.636	38.57
869.803	34.6
869.971	27.25
870.138	30.44
870.306	25.43
870.473	26.56
870.641	19.55
870.808	20.37
870.975	27.47
871.143	30.49
871.31	23.35
871.478	15.55
871.645	25
871.812	27.26
871.98	18.06
872.147	20.33
872.314	30.19
872.482	36.84
872.649	43.14
872.816	38.05
872.983	24.01
873.15	38.84
873.318	50.62
873.485	36.94
873.652	36.62
873.819	40.26
873.986	51.37
874.153	42.46
874.32	50.95
874.487	48.27
874.654	51.55
874.821	64.3
874.988	62.37
875.155	65.08
875.322	63.19
875.489	63.36
875.656	59.44
875.823	67.55
875.99	78.19
876.157	76.05
876.324	67.8
876.49	64.66
876.657	47.63
876.824	32.13
876.991	33.22
877.157	28.74
877.324	25.33
877.491	25.32
877.658	10.77
877.824	-4.49
877.991	2.61
878.157	4.07
878.324	4.57
878.491	1.47
878.657	15.51
878.824	19.72
878.99	15.07
879.157	25.53
879.323	18.54
879.49	23.26
879.656	15.16
879.823	13.61
879.989	10.07
880.156	8.94
880.322	23.3
880.488	17.05
880.655	6.68
880.821	16.27
880.987	7.12
881.154	14.53
881.32	16.51
881.486	22.17
881.652	18.33
881.819	24.7
881.985	25.74
882.151	22.43
882.317	20.06
882.483	22.98
882.649	23.91
882.816	25
882.982	27.24
883.148	27.27
883.314	27.88
883.48	28.85
883.646	27.24
883.812	25.04
883.978	28.44
884.144	31.6
884.31	31.12
884.476	33.31
884.642	34.67
884.807	36.17
884.973	34.13
885.139	31.99
885.305	32.32
885.471	33.16
885.637	38.26
885.802	39.25
885.968	36.97
886.134	36.45
886.3	30.16
886.465	30.13
886.631	23.4
886.797	26.18
886.962	30.66
887.128	31.63
887.293	34
887.459	32.5
887.625	23.16
887.79	31.86
887.956	36.94
888.121	45.24
888.287	47.29
888.452	55.3
888.618	56.31
888.783	57.14
