Data from 2938031_Reflection_3.txt Node
Date: Sun Jul 12 15:01:25 EDT 2015
User: robert
Spectrometer: USB4E03001
Autoset integration time: false
Trigger mode: 4
Integration Time (sec): 1.000000E-1
Scans to average: 10
Electric dark correction enabled: true
Nonlinearity correction enabled: false
Boxcar width: 5
Stray light correction enabled: false
XAxis mode: Wavelengths
Stop averaging: false
Number of Pixels in Spectrum: 3648
>>>>>Begin Spectral Data<<<<<
177.566	8.06
177.785	30.79
178.005	-978.57
178.225	576.04
178.445	131.17
178.665	155.86
178.885	18.36
179.105	-0.1
179.324	-16.35
179.544	-1229.15
179.764	138.86
179.984	-211.71
180.204	70.03
180.423	40.97
180.643	-105.56
180.863	-3114.29
181.083	3.53
181.302	75.49
181.522	126.51
181.742	155.61
181.961	183.71
182.181	144.3
182.401	50.5
182.621	30.81
182.84	23.48
183.06	34.77
183.279	61.49
183.499	46.27
183.719	15.4
183.938	-18.09
184.158	0.61
184.377	9.84
184.597	-10.35
184.816	-22.29
185.036	-2.82
185.256	-21.14
185.475	4.59
185.695	-33.53
185.914	-45.95
186.134	-27.94
186.353	-17.47
186.572	11.35
186.792	7.55
187.011	12.73
187.231	13.51
187.45	-4.12
187.67	26.68
187.889	-68.92
188.108	14.15
188.328	62.85
188.547	82.46
188.766	65.05
188.986	29.23
189.205	87.31
189.424	326.86
189.644	83.24
189.863	842.99
190.082	211
190.302	131.82
190.521	183.37
190.74	806.86
190.959	390.56
191.178	292.43
191.398	-112.28
191.617	402.06
191.836	-512.76
192.055	99.18
192.274	-141.3
192.494	-67.49
192.713	-58.75
192.932	-58.58
193.151	-44.97
193.37	-87.57
193.589	-106.2
193.808	-82.5
194.027	-74.06
194.246	-7.8
194.465	16.72
194.685	75.79
194.904	103.18
195.123	67.46
195.342	85.45
195.561	116.67
195.78	116.97
195.999	86.73
196.218	55.61
196.436	110.19
196.655	29.72
196.874	26.4
197.093	-16.92
197.312	-144.74
197.531	-21.63
197.75	-1.48
197.969	-29.65
198.188	-34.14
198.407	-17.32
198.625	37.07
198.844	39.76
199.063	79
199.282	44.46
199.501	18.83
199.719	33.58
199.938	14.24
200.157	21.2
200.376	35.48
200.594	48.53
200.813	53.83
201.032	43.92
201.251	37.62
201.469	11.87
201.688	38.47
201.907	43.95
202.125	30.31
202.344	41.12
202.563	58.47
202.781	41.13
203	47.3
203.218	30.93
203.437	509.3
203.656	60.54
203.874	44.39
204.093	-8.01
204.311	12.56
204.53	33.31
204.748	54.7
204.967	38.62
205.185	74.55
205.404	57.05
205.622	108.29
205.841	73.1
206.059	56.98
206.278	112.6
206.496	115.82
206.715	108.84
206.933	56.83
207.151	70.51
207.37	52.08
207.588	45.65
207.806	50.52
208.025	48.56
208.243	48.58
208.461	49.64
208.68	38.6
208.898	45.46
209.116	45.45
209.335	56.11
209.553	61.07
209.771	69.96
209.989	60.11
210.208	16.11
210.426	-1.29
210.644	-26.54
210.862	-4.56
211.081	-31.74
211.299	-70.53
211.517	-101.96
211.735	-84.19
211.953	-167.81
212.171	-84.38
212.39	-132.43
212.608	-42.94
212.826	-62.05
213.044	-47.19
213.262	-87.46
213.48	-91.65
213.698	-22.13
213.916	-35.6
214.134	-22.06
214.352	-4.66
214.57	-8.42
214.788	-7.82
215.006	5.38
215.224	32.8
215.442	45.78
215.66	50.1
215.878	32.32
216.096	33.41
216.314	51.08
216.532	65
216.75	45.38
216.968	35.58
217.185	35.18
217.403	38.65
217.621	33.77
217.839	26.34
218.057	30.58
218.275	50.05
218.492	46.6
218.71	60.39
218.928	21.43
219.146	61.48
219.363	97.95
219.581	127.45
219.799	71.59
220.017	110.85
220.234	100.36
220.452	98.6
220.67	83.07
220.887	90.3
221.105	71.54
221.323	67.07
221.54	49.86
221.758	43.99
221.976	53.47
222.193	69.37
222.411	51.92
222.629	71.76
222.846	68.66
223.064	76.58
223.281	40.45
223.499	40.25
223.716	47.35
223.934	71.99
224.151	65.93
224.369	54.55
224.586	50.04
224.804	50.44
225.021	45.5
225.239	44.9
225.456	35.12
225.674	53.97
225.891	61.9
226.108	46.19
226.326	27.97
226.543	24.89
226.76	26.68
226.978	7.89
227.195	10.81
227.413	3.79
227.63	4.33
227.847	6.98
228.064	8.27
228.282	2.69
228.499	2.64
228.716	5
228.934	4.67
229.151	2.47
229.368	5.48
229.585	3.97
229.802	6.48
230.02	7.15
230.237	6.73
230.454	6.98
230.671	5.7
230.888	7.04
231.105	7.32
231.323	7.45
231.54	9.8
231.757	9.72
231.974	9.76
232.191	2.07
232.408	2.88
232.625	-0.8
232.842	-1.01
233.059	5.48
233.276	7.27
233.493	6.68
233.71	7.49
233.927	5.61
234.144	6.98
234.361	8.04
234.578	11.61
234.795	4.18
235.012	5.59
235.229	1.35
235.446	4.6
235.663	2.49
235.879	1.96
236.096	-0.44
236.313	4.17
236.53	4.02
236.747	4.52
236.964	1.8
237.181	10.44
237.397	12.01
237.614	7.51
237.831	7.77
238.048	7.08
238.264	6.26
238.481	9.13
238.698	4.4
238.915	2.96
239.131	3.09
239.348	4.1
239.565	-1.12
239.781	-4.31
239.998	2.48
240.215	-1.23
240.431	0.62
240.648	-0.06
240.865	-1.43
241.081	2.26
241.298	5.7
241.514	6.59
241.731	8.36
241.947	10.57
242.164	13.14
242.38	11.97
242.597	12.91
242.814	11.96
243.03	13.8
243.246	13.18
243.463	11.95
243.679	11.56
243.896	10.27
244.112	10.81
244.329	11.47
244.545	10.35
244.762	10.66
244.978	11.2
245.194	11.97
245.411	9.94
245.627	11
245.843	12.02
246.06	12.24
246.276	11.36
246.492	9.9
246.709	9.32
246.925	9.38
247.141	10.14
247.357	9.55
247.574	10.25
247.79	10.9
248.006	11.89
248.222	11.01
248.439	9.79
248.655	10.73
248.871	11.07
249.087	10.14
249.303	10
249.519	8.57
249.736	8.5
249.952	7.67
250.168	6.06
250.384	4.54
250.6	5.13
250.816	5.84
251.032	4.88
251.248	5.91
251.464	7.08
251.68	6.03
251.896	6.41
252.112	5.96
252.328	4.21
252.544	4.12
252.76	2.19
252.976	0.98
253.192	0.53
253.408	-0.57
253.624	-1.53
253.84	-3.53
254.056	-4.79
254.272	-4.15
254.487	-3.68
254.703	-1.19
254.919	-0.84
255.135	1.82
255.351	5.42
255.567	6.48
255.782	8.3
255.998	6.89
256.214	8.77
256.43	10.83
256.646	9.71
256.861	8.63
257.077	6.43
257.293	6.84
257.508	8.11
257.724	3.68
257.94	3.99
258.155	4.4
258.371	5.33
258.587	5.26
258.802	5.46
259.018	6.39
259.234	6.67
259.449	6.91
259.665	6.7
259.88	6.28
260.096	7.68
260.312	7.72
260.527	8.09
260.743	8.44
260.958	8.12
261.174	7.67
261.389	7.14
261.605	7.14
261.82	7.08
262.036	7.77
262.251	7.6
262.466	8.31
262.682	9.58
262.897	8.5
263.113	8.59
263.328	10.22
263.543	13.27
263.759	13.73
263.974	14.6
264.189	15.01
264.405	14.42
264.62	14.12
264.835	13.54
265.051	11.81
265.266	11.15
265.481	11.35
265.696	9.78
265.912	8.63
266.127	8.4
266.342	6.8
266.557	6.09
266.773	4.98
266.988	6.48
267.203	5.26
267.418	5.73
267.633	6.59
267.848	4.7
268.064	5.26
268.279	4.08
268.494	3.78
268.709	3.44
268.924	5.22
269.139	5.58
269.354	4.96
269.569	4.73
269.784	2.31
269.999	1.67
270.214	3.58
270.429	5.03
270.644	4.67
270.859	4.62
271.074	5.52
271.289	4.06
271.504	4.89
271.719	4.53
271.934	5.09
272.149	6.66
272.363	6.76
272.578	5.89
272.793	5.35
273.008	5.95
273.223	6.08
273.438	6.05
273.653	6.45
273.867	5.68
274.082	6.43
274.297	8.2
274.512	8.5
274.726	8.65
274.941	8.54
275.156	8.29
275.371	7.27
275.585	7.21
275.8	6.51
276.015	5.39
276.229	5.29
276.444	4.73
276.659	3.01
276.873	2.45
277.088	3.21
277.302	2.74
277.517	1.8
277.732	4
277.946	4.92
278.161	5.35
278.375	7.03
278.59	7.88
278.804	7.41
279.019	7.24
279.233	5.93
279.448	5.11
279.662	5.58
279.877	5.81
280.091	4.25
280.306	3.48
280.52	3.46
280.735	2.5
280.949	2.17
281.163	2.83
281.378	2.55
281.592	4.22
281.806	3.65
282.021	2.81
282.235	2.08
282.449	2.62
282.664	2.69
282.878	3.81
283.092	4.09
283.307	5.11
283.521	4.41
283.735	4.13
283.949	3.75
284.164	2.89
284.378	3.64
284.592	3.72
284.806	3.01
285.02	3.87
285.234	3.74
285.449	3.52
285.663	3.57
285.877	3.64
286.091	5.31
286.305	5.07
286.519	6.27
286.733	6.79
286.947	6.98
287.161	7.83
287.375	7.3
287.589	7.28
287.803	7.33
288.017	6.9
288.231	6.51
288.445	6
288.659	6.31
288.873	7.65
289.087	7.11
289.301	7.18
289.515	6.7
289.729	7.15
289.943	7.85
290.157	9.12
290.371	8.53
290.584	9.64
290.798	9.97
291.012	10.35
291.226	8.95
291.44	9.66
291.654	9.79
291.867	9.92
292.081	8.1
292.295	7.06
292.509	6.67
292.722	6.9
292.936	6.63
293.15	5.47
293.364	6.01
293.577	5.95
293.791	5.13
294.005	6.08
294.218	6.28
294.432	7.54
294.645	7.79
294.859	8.37
295.073	9.65
295.286	8.79
295.5	8.64
295.713	7.39
295.927	8.42
296.14	9.17
296.354	8.32
296.568	7.28
296.781	7.61
296.994	7.18
297.208	6.94
297.421	6.3
297.635	7.2
297.848	6.8
298.062	7.67
298.275	6.53
298.489	6.61
298.702	7.84
298.915	8.35
299.129	8.61
299.342	8.76
299.555	8.92
299.769	8.36
299.982	7
300.195	7.67
300.409	7.03
300.622	7.92
300.835	6.48
301.048	6.96
301.262	7.41
301.475	5.97
301.688	6.66
301.901	5.81
302.115	6.07
302.328	6.39
302.541	6.09
302.754	5.58
302.967	6.12
303.18	6.29
303.393	5.51
303.607	4.77
303.82	5.92
304.033	6
304.246	6.42
304.459	8.06
304.672	8.65
304.885	8.72
305.098	9.56
305.311	9.43
305.524	9.66
305.737	9.53
305.95	10.33
306.163	9.39
306.376	8.42
306.589	8.93
306.802	6.96
307.015	6.73
307.228	6.87
307.44	6.1
307.653	4.27
307.866	4.7
308.079	5.13
308.292	5
308.505	6.47
308.718	8.11
308.93	7.78
309.143	8.62
309.356	9.84
309.569	9.85
309.781	10.23
309.994	11.15
310.207	11.34
310.42	11.46
310.632	10.97
310.845	11.33
311.058	10.45
311.27	10.83
311.483	11.06
311.696	11.23
311.908	10.93
312.121	10.72
312.333	10.33
312.546	9.92
312.759	8.92
312.971	9.29
313.184	8.88
313.396	8.77
313.609	8.3
313.821	7.72
314.034	6.19
314.246	7.12
314.459	8.36
314.671	9.39
314.884	9.77
315.096	10.4
315.309	11.83
315.521	11.86
315.733	12.48
315.946	11.93
316.158	11.47
316.371	11.46
316.583	10.88
316.795	10.64
317.008	9.88
317.22	9.31
317.432	9.31
317.644	8.86
317.857	8.12
318.069	7.82
318.281	8.1
318.494	9.76
318.706	9.93
318.918	11.03
319.13	9.73
319.342	9.84
319.555	10.73
319.767	10.32
319.979	10.16
320.191	10.98
320.403	13.96
320.615	14.73
320.827	15.27
321.039	15.1
321.252	15.3
321.464	16.6
321.676	17.32
321.888	18.3
322.1	19.68
322.312	20.26
322.524	19.72
322.736	17.18
322.948	16.27
323.16	15.18
323.372	16.61
323.584	15.59
323.796	13.78
324.007	12.85
324.219	11.65
324.431	11.53
324.643	10.97
324.855	11.12
325.067	11.81
325.279	13.22
325.491	12.93
325.702	12.47
325.914	13.99
326.126	15.27
326.338	17.31
326.55	17.83
326.761	17.78
326.973	17.92
327.185	18.89
327.396	19.2
327.608	17.06
327.82	17.84
328.032	18
328.243	17.11
328.455	17.25
328.666	16.41
328.878	16.65
329.09	16.93
329.301	17.42
329.513	17.84
329.725	18.52
329.936	20.31
330.148	20.44
330.359	21.57
330.571	21.96
330.782	22.12
330.994	22.18
331.205	23.33
331.417	23.04
331.628	23.84
331.84	23.92
332.051	22.87
332.262	24.91
332.474	26.53
332.685	25.81
332.897	26.02
333.108	27.16
333.319	27.54
333.531	26.89
333.742	27.29
333.953	27.25
334.165	27.17
334.376	27.84
334.587	27.33
334.799	26.91
335.01	26.62
335.221	27.73
335.432	27.17
335.644	28.12
335.855	28.66
336.066	29.64
336.277	29.57
336.488	30.76
336.7	30.83
336.911	30.46
337.122	30.77
337.333	31.81
337.544	31.54
337.755	32.42
337.966	32.36
338.177	32.34
338.388	31.95
338.599	32.04
338.811	31.84
339.022	32.38
339.233	33.16
339.444	32.45
339.655	32.32
339.866	33.16
340.076	33.4
340.287	33.5
340.498	34.42
340.709	34.69
340.92	34.95
341.131	34.91
341.342	34.77
341.553	34.79
341.764	34.95
341.975	33.92
342.185	32.95
342.396	32.65
342.607	32.63
342.818	31.9
343.029	31.93
343.239	31.44
343.45	30.84
343.661	30.79
343.872	29.66
344.082	29.82
344.293	30.78
344.504	31.09
344.714	31.01
344.925	30.93
345.136	30.76
345.346	30.73
345.557	30.83
345.768	31.01
345.978	31.09
346.189	31.84
346.399	31.85
346.61	32.42
346.821	31.96
347.031	32.29
347.242	31.17
347.452	32.09
347.663	31.34
347.873	32.72
348.084	32.65
348.294	32.59
348.504	31.8
348.715	30.96
348.925	30.66
349.136	31.41
349.346	30.8
349.557	32.48
349.767	31.15
349.977	32.08
350.188	30.54
350.398	30.68
350.608	30.67
350.819	31.1
351.029	31.49
351.239	31.5
351.449	30.98
351.66	31.42
351.87	30.31
352.08	31.47
352.29	31.52
352.501	33.32
352.711	32.77
352.921	32.59
353.131	32.24
353.341	32.94
353.552	32.5
353.762	32.67
353.972	32.44
354.182	33.79
354.392	32.72
354.602	32.65
354.812	32.07
355.022	32.18
355.232	32.43
355.442	33
355.652	32.65
355.862	32.14
356.072	32.59
356.282	33.27
356.492	32.13
356.702	32.53
356.912	32.24
357.122	31.84
357.332	32.89
357.542	33.04
357.752	32.89
357.962	32.75
358.171	34.24
358.381	34.47
358.591	34.77
358.801	35.04
359.011	35.03
359.221	35.26
359.43	34.98
359.64	33.61
359.85	33.8
360.06	33.35
360.269	34
360.479	33.1
360.689	32.66
360.899	31.83
361.108	31.46
361.318	31.4
361.528	31.25
361.737	31.39
361.947	31.76
362.156	31.26
362.366	31.51
362.576	30.56
362.785	30.65
362.995	31
363.204	31.29
363.414	31.67
363.623	31.59
363.833	31.18
364.042	31.04
364.252	30.95
364.461	30.67
364.671	31.15
364.88	31.46
365.09	30.74
365.299	29.85
365.509	28.88
365.718	28.52
365.927	28.11
366.137	28.16
366.346	28.14
366.555	28.3
366.765	28.24
366.974	27.71
367.183	27.93
367.393	28.17
367.602	28.28
367.811	28.68
368.021	29.01
368.23	30.34
368.439	30.46
368.648	30.78
368.857	30.28
369.067	30.35
369.276	30.13
369.485	29.32
369.694	29.48
369.903	29.86
370.112	30.49
370.321	30.54
370.531	29.74
370.74	29.72
370.949	29.38
371.158	29.9
371.367	30.23
371.576	30.27
371.785	31.07
371.994	31.2
372.203	31.07
372.412	30.78
372.621	31.08
372.83	30.64
373.039	30.75
373.248	30.52
373.457	30.12
373.666	30.24
373.874	30.04
374.083	29.85
374.292	29.22
374.501	28.7
374.71	29.04
374.919	28.57
375.128	28.72
375.336	28.8
375.545	28.99
375.754	28.28
375.963	28.1
376.171	28.65
376.38	28.64
376.589	29.02
376.798	29.43
377.006	28.47
377.215	28.95
377.424	29.15
377.632	29.06
377.841	28.99
378.05	29.64
378.258	29.36
378.467	29.01
378.675	28.5
378.884	28.35
379.093	27.68
379.301	27.52
379.51	27.02
379.718	26.45
379.927	26.06
380.135	25.88
380.344	25.73
380.552	26.57
380.761	26.13
380.969	26.85
381.177	26.99
381.386	27.65
381.594	28.27
381.803	28.05
382.011	28.56
382.219	29.09
382.428	29.28
382.636	29.31
382.845	28.86
383.053	28.89
383.261	28.45
383.469	27.97
383.678	27.66
383.886	27.27
384.094	27.18
384.302	26.57
384.511	26.32
384.719	25.97
384.927	25.41
385.135	25.04
385.343	24.86
385.552	24.92
385.76	25.3
385.968	24.98
386.176	25.22
386.384	25.19
386.592	25.43
386.8	25.05
387.008	25.09
387.216	25.73
387.424	25.55
387.633	25.49
387.841	25.49
388.049	25.41
388.257	25.37
388.465	25.23
388.672	25.2
388.88	25.57
389.088	25.41
389.296	25.5
389.504	25.3
389.712	25.32
389.92	25.81
390.128	25.57
390.336	25.09
390.544	25.27
390.751	25.15
390.959	25.09
391.167	24.63
391.375	25.14
391.583	25.26
391.79	24.92
391.998	25.04
392.206	24.83
392.414	24.84
392.621	24.77
392.829	24.64
393.037	24.43
393.244	24.56
393.452	24.92
393.66	24.67
393.867	24.29
394.075	24.46
394.283	24.53
394.49	24.31
394.698	24.08
394.905	24.21
395.113	24.42
395.32	24.34
395.528	23.97
395.735	23.47
395.943	23.75
396.15	23.79
396.358	23.35
396.565	23.33
396.773	23.82
396.98	24.14
397.188	24.1
397.395	23.71
397.602	23.99
397.81	24
398.017	24.07
398.225	23.7
398.432	23.75
398.639	24.15
398.847	23.91
399.054	23.17
399.261	23.26
399.468	23.43
399.676	23.73
399.883	23.81
400.09	23.96
400.297	24.15
400.505	24.36
400.712	24.08
400.919	24.03
401.126	23.83
401.333	23.89
401.54	23.68
401.748	23.46
401.955	23.39
402.162	23.05
402.369	22.66
402.576	22.72
402.783	22.56
402.99	22.71
403.197	22.51
403.404	22.72
403.611	22.83
403.818	22.8
404.025	22.72
404.232	22.37
404.439	22.86
404.646	23.16
404.853	22.87
405.06	22.81
405.267	22.78
405.474	23.07
405.681	23.19
405.887	23.15
406.094	23.19
406.301	23.24
406.508	23.38
406.715	23.07
406.922	22.88
407.128	22.95
407.335	23.07
407.542	23.14
407.749	22.75
407.955	22.5
408.162	22.4
408.369	22.27
408.575	22.17
408.782	22.2
408.989	21.86
409.195	21.95
409.402	21.76
409.609	21.72
409.815	21.63
410.022	21.83
410.228	21.57
410.435	21.79
410.642	21.86
410.848	21.85
411.055	21.84
411.261	22.08
411.468	22.05
411.674	21.99
411.881	21.72
412.087	21.88
412.294	21.76
412.5	22.09
412.706	22.47
412.913	22.27
413.119	22.51
413.326	22.48
413.532	22.55
413.738	22.61
413.945	22.72
414.151	22.99
414.357	22.95
414.564	23.18
414.77	23.09
414.976	22.62
415.182	22.88
415.389	22.49
415.595	22.48
415.801	22.41
416.007	22.38
416.214	22.27
416.42	22.11
416.626	21.96
416.832	21.76
417.038	21.66
417.244	21.82
417.45	21.78
417.657	22.05
417.863	22.07
418.069	21.86
418.275	21.6
418.481	21.77
418.687	21.58
418.893	21.71
419.099	21.81
419.305	21.93
419.511	21.83
419.717	21.72
419.923	21.6
420.129	21.62
420.335	21.55
420.541	21.69
420.746	21.64
420.952	21.69
421.158	21.62
421.364	21.66
421.57	21.5
421.776	21.37
421.982	21.44
422.187	21.45
422.393	21.26
422.599	21.29
422.805	21.26
423.01	21.22
423.216	21.27
423.422	21.13
423.628	20.92
423.833	20.86
424.039	20.89
424.245	20.82
424.45	20.7
424.656	20.75
424.862	20.83
425.067	20.7
425.273	20.7
425.478	20.63
425.684	20.59
425.889	20.56
426.095	20.64
426.301	20.67
426.506	20.61
426.712	20.63
426.917	20.64
427.123	20.72
427.328	20.85
427.533	20.68
427.739	20.64
427.944	20.7
428.15	20.73
428.355	20.64
428.561	20.6
428.766	20.52
428.971	20.66
429.177	20.71
429.382	20.2
429.587	20.17
429.793	20.38
429.998	20.46
430.203	20.46
430.408	20.55
430.614	20.69
430.819	20.8
431.024	20.67
431.229	20.47
431.434	20.16
431.64	20.54
431.845	20.53
432.05	20.45
432.255	20.42
432.46	20.36
432.665	20.32
432.87	20.14
433.076	20.15
433.281	20.18
433.486	20.15
433.691	20.4
433.896	20.49
434.101	20.55
434.306	20.55
434.511	20.69
434.716	20.6
434.921	20.64
435.126	20.81
435.331	20.66
435.535	20.79
435.74	21.08
435.945	21.04
436.15	20.75
436.355	20.7
436.56	20.65
436.765	20.47
436.97	20.59
437.174	20.63
437.379	20.55
437.584	20.58
437.789	20.47
437.993	20.47
438.198	20.46
438.403	20.58
438.608	20.45
438.812	20.3
439.017	20.12
439.222	20.26
439.426	20.2
439.631	20.05
439.836	20
440.04	19.97
440.245	19.77
440.45	19.78
440.654	19.82
440.859	19.91
441.063	19.95
441.268	20.08
441.472	19.94
441.677	19.92
441.881	19.98
442.086	19.99
442.29	19.9
442.495	19.85
442.699	19.87
442.904	19.84
443.108	19.96
443.312	20.11
443.517	20.11
443.721	20.08
443.925	19.97
444.13	20.04
444.334	19.97
444.538	20.08
444.743	20
444.947	19.89
445.151	19.85
445.356	19.75
445.56	19.68
445.764	19.79
445.968	19.84
446.173	19.77
446.377	19.78
446.581	19.89
446.785	19.83
446.989	19.95
447.193	19.91
447.398	19.82
447.602	19.81
447.806	19.78
448.01	19.68
448.214	19.49
448.418	19.68
448.622	19.56
448.826	19.42
449.03	19.59
449.234	19.62
449.438	19.68
449.642	19.71
449.846	19.66
450.05	19.63
450.254	19.53
450.458	19.85
450.662	19.59
450.866	19.57
451.069	19.62
451.273	19.51
451.477	19.57
451.681	19.64
451.885	19.78
452.089	19.4
452.292	19.6
452.496	19.67
452.7	19.53
452.904	19.71
453.107	19.82
453.311	20
453.515	20.02
453.719	19.82
453.922	19.84
454.126	19.64
454.33	19.88
454.533	19.66
454.737	19.55
454.94	19.59
455.144	19.5
455.348	19.57
455.551	19.51
455.755	19.62
455.958	19.79
456.162	19.44
456.365	19.47
456.569	19.53
456.772	19.66
456.976	19.72
457.179	19.69
457.383	19.56
457.586	19.41
457.79	19.27
457.993	19.06
458.196	18.89
458.4	19.09
458.603	19.21
458.807	19.21
459.01	19.18
459.213	19.18
459.417	19.3
459.62	19.43
459.823	19.42
460.026	19.38
460.23	19.36
460.433	19.35
460.636	19.33
460.839	19.32
461.042	19.25
461.246	19.26
461.449	19.31
461.652	19.08
461.855	18.97
462.058	18.84
462.261	18.93
462.464	19.02
462.668	19.1
462.871	19.16
463.074	19.14
463.277	19.13
463.48	19.16
463.683	19.16
463.886	19.21
464.089	19.38
464.292	19.4
464.495	19.42
464.698	19.4
464.901	19.61
465.104	19.39
465.306	19.3
465.509	19.4
465.712	19.12
465.915	18.91
466.118	19.1
466.321	18.77
466.524	19.07
466.726	18.95
466.929	18.84
467.132	18.69
467.335	18.89
467.538	19
467.74	19.07
467.943	19.27
468.146	19.37
468.348	19.22
468.551	19.35
468.754	19.1
468.956	19.13
469.159	19.26
469.362	19.37
469.564	19.37
469.767	19.37
469.969	19.5
470.172	19.46
470.375	19.54
470.577	19.47
470.78	19.71
470.982	19.89
471.185	20.01
471.387	20.15
471.59	19.98
471.792	19.91
471.995	19.87
472.197	19.6
472.399	19.8
472.602	19.86
472.804	20
473.007	19.78
473.209	19.75
473.411	19.79
473.614	19.59
473.816	19.65
474.018	19.77
474.22	19.74
474.423	19.87
474.625	19.9
474.827	19.96
475.03	20.08
475.232	20.18
475.434	20.36
475.636	20.14
475.838	20.12
476.04	20.12
476.243	20.07
476.445	20.08
476.647	20.15
476.849	20.03
477.051	19.95
477.253	19.96
477.455	19.98
477.657	19.8
477.859	19.84
478.061	19.98
478.263	19.97
478.465	19.88
478.667	19.88
478.869	19.79
479.071	19.83
479.273	19.69
479.475	19.46
479.677	19.3
479.879	19.44
480.081	19.64
480.283	19.67
480.485	19.67
480.686	19.82
480.888	19.81
481.09	19.84
481.292	19.74
481.494	19.84
481.695	19.9
481.897	20.01
482.099	20
482.301	19.82
482.502	19.82
482.704	19.84
482.906	19.77
483.107	19.75
483.309	19.67
483.511	19.69
483.712	19.72
483.914	19.71
484.115	19.64
484.317	19.58
484.519	19.54
484.72	19.48
484.922	19.5
485.123	19.49
485.325	19.42
485.526	19.45
485.728	19.41
485.929	19.37
486.131	19.37
486.332	19.42
486.534	19.4
486.735	19.49
486.936	19.47
487.138	19.37
487.339	19.41
487.541	19.44
487.742	19.4
487.943	19.41
488.144	19.37
488.346	19.37
488.547	19.37
488.748	19.31
488.95	19.27
489.151	19.29
489.352	19.3
489.553	19.3
489.755	19.39
489.956	19.5
490.157	19.49
490.358	19.51
490.559	19.48
490.76	19.53
490.961	19.73
491.163	19.79
491.364	19.83
491.565	19.82
491.766	19.76
491.967	19.75
492.168	19.69
492.369	19.62
492.57	19.59
492.771	19.6
492.972	19.53
493.173	19.43
493.374	19.39
493.575	19.35
493.776	19.36
493.976	19.33
494.177	19.27
494.378	19.39
494.579	19.46
494.78	19.44
494.981	19.59
495.182	19.65
495.382	19.74
495.583	19.82
495.784	19.8
495.985	19.74
496.185	19.87
496.386	19.93
496.587	19.8
496.788	19.84
496.988	20
497.189	19.9
497.39	19.94
497.59	19.78
497.791	19.74
497.992	19.75
498.192	19.83
498.393	19.77
498.593	19.7
498.794	19.78
498.994	19.94
499.195	19.84
499.395	19.88
499.596	19.91
499.796	20.01
499.997	19.98
500.197	20.03
500.398	20.21
500.598	20.29
500.799	20.39
500.999	20.32
501.199	20.28
501.4	20.43
501.6	20.42
501.801	20.33
502.001	20.46
502.201	20.63
502.402	20.58
502.602	20.53
502.802	20.45
503.002	20.41
503.203	20.57
503.403	20.62
503.603	20.8
503.803	20.95
504.003	21.21
504.204	21.28
504.404	21.04
504.604	21.12
504.804	21.07
505.004	21.16
505.204	21.28
505.404	21.33
505.604	21.33
505.804	21.25
506.005	21.12
506.205	20.92
506.405	20.89
506.605	21.17
506.805	21.21
507.005	21.33
507.204	21.27
507.404	21.34
507.604	21.41
507.804	21.41
508.004	21.4
508.204	21.71
508.404	21.84
508.604	21.81
508.804	21.72
509.003	21.69
509.203	21.6
509.403	21.62
509.603	21.68
509.803	21.6
510.002	21.65
510.202	21.66
510.402	21.53
510.602	21.51
510.801	21.59
511.001	21.67
511.201	21.78
511.4	21.91
511.6	22.1
511.8	22.07
511.999	22.03
512.199	22.13
512.398	21.97
512.598	22.02
512.797	21.97
512.997	21.92
513.197	21.93
513.396	21.95
513.596	22.05
513.795	22.09
513.994	22.15
514.194	22.27
514.393	22.16
514.593	22.34
514.792	22.27
514.992	22.38
515.191	22.46
515.39	22.65
515.59	22.76
515.789	22.69
515.988	22.5
516.188	22.45
516.387	22.57
516.586	22.72
516.786	22.73
516.985	22.76
517.184	22.82
517.383	22.85
517.582	22.77
517.782	22.74
517.981	22.67
518.18	22.76
518.379	22.8
518.578	22.8
518.777	22.75
518.976	22.73
519.176	22.83
519.375	22.85
519.574	22.92
519.773	22.94
519.972	22.96
520.171	23.13
520.37	23.11
520.569	23.16
520.768	23.13
520.967	23.22
521.166	23.32
521.365	23.4
521.564	23.31
521.762	23.36
521.961	23.34
522.16	23.47
522.359	23.33
522.558	23.44
522.757	23.56
522.956	23.67
523.154	23.77
523.353	23.72
523.552	23.5
523.751	23.62
523.949	23.5
524.148	23.5
524.347	23.51
524.546	23.73
524.744	23.7
524.943	23.66
525.142	23.63
525.34	23.65
525.539	23.71
525.737	23.85
525.936	23.88
526.135	24
526.333	24.05
526.532	23.98
526.73	23.9
526.929	23.92
527.127	23.92
527.326	23.87
527.524	23.84
527.723	23.89
527.921	23.96
528.12	23.98
528.318	23.94
528.516	23.93
528.715	23.95
528.913	23.94
529.112	24.01
529.31	24.04
529.508	24.15
529.707	24.15
529.905	24.15
530.103	24.08
530.301	24.1
530.5	24.1
530.698	24.11
530.896	24.14
531.094	24.29
531.293	24.27
531.491	24.3
531.689	24.33
531.887	24.37
532.085	24.44
532.283	24.43
532.481	24.52
532.68	24.62
532.878	24.62
533.076	24.63
533.274	24.51
533.472	24.48
533.67	24.48
533.868	24.45
534.066	24.51
534.264	24.37
534.462	24.4
534.66	24.31
534.858	24.25
535.056	24.36
535.253	24.43
535.451	24.54
535.649	24.51
535.847	24.57
536.045	24.66
536.243	24.62
536.441	24.81
536.638	24.84
536.836	24.87
537.034	24.87
537.232	24.95
537.43	24.91
537.627	25.01
537.825	25.18
538.023	25.03
538.22	24.95
538.418	24.99
538.616	24.83
538.813	24.89
539.011	24.97
539.209	25.05
539.406	24.97
539.604	24.97
539.801	24.81
539.999	24.89
540.196	25.09
540.394	25.11
540.591	25.1
540.789	25.22
540.986	25.34
541.184	25.31
541.381	25.32
541.579	25.38
541.776	25.45
541.974	25.48
542.171	25.43
542.368	25.47
542.566	25.57
542.763	25.64
542.96	25.67
543.158	25.59
543.355	25.63
543.552	25.64
543.75	25.66
543.947	25.71
544.144	25.78
544.341	25.9
544.539	25.96
544.736	25.83
544.933	25.79
545.13	25.87
545.327	26.02
545.524	26.16
545.722	26.24
545.919	26.36
546.116	26.3
546.313	26.34
546.51	26.39
546.707	26.32
546.904	26.52
547.101	26.61
547.298	26.5
547.495	26.43
547.692	26.41
547.889	26.46
548.086	26.34
548.283	26.39
548.48	26.53
548.677	26.43
548.874	26.44
549.07	26.31
549.267	26.5
549.464	26.61
549.661	26.64
549.858	26.58
550.055	26.58
550.251	26.51
550.448	26.48
550.645	26.49
550.842	26.46
551.038	26.51
551.235	26.5
551.432	26.33
551.628	26.49
551.825	26.51
552.022	26.66
552.218	26.72
552.415	26.85
552.612	26.91
552.808	26.88
553.005	27.06
553.201	27.15
553.398	27.23
553.594	27.42
553.791	27.27
553.987	27.2
554.184	27.17
554.38	27.28
554.577	27.4
554.773	27.61
554.97	27.56
555.166	27.51
555.362	27.43
555.559	27.46
555.755	27.31
555.952	27.22
556.148	27.49
556.344	27.53
556.541	27.5
556.737	27.3
556.933	27.37
557.129	27.54
557.326	27.63
557.522	27.57
557.718	27.49
557.914	27.41
558.11	27.56
558.307	27.56
558.503	27.45
558.699	27.34
558.895	27.52
559.091	27.35
559.287	27.36
559.483	27.3
559.679	27.33
559.876	27.51
560.072	27.83
560.268	27.88
560.464	27.87
560.66	27.98
560.856	28.09
561.052	28.2
561.247	28.24
561.443	28.17
561.639	28.22
561.835	28.44
562.031	28.59
562.227	28.3
562.423	28.39
562.619	28.62
562.815	28.72
563.01	28.86
563.206	28.89
563.402	28.8
563.598	28.96
563.793	29.18
563.989	29.1
564.185	28.85
564.381	28.98
564.576	29.13
564.772	28.93
564.968	28.95
565.163	28.87
565.359	28.94
565.555	28.94
565.75	29.04
565.946	29.04
566.141	29.28
566.337	29.67
566.532	29.81
566.728	29.75
566.923	30.02
567.119	30.1
567.314	30.07
567.51	30.1
567.705	30.23
567.901	29.93
568.096	29.77
568.292	29.61
568.487	29.38
568.682	29.41
568.878	29.31
569.073	28.93
569.268	28.72
569.464	28.8
569.659	28.48
569.854	28.37
570.05	28.4
570.245	28.68
570.44	28.81
570.635	28.82
570.831	28.91
571.026	29.01
571.221	29.15
571.416	29.27
571.611	29.34
571.806	29.56
572.002	29.82
572.197	29.94
572.392	29.72
572.587	29.72
572.782	29.75
572.977	29.8
573.172	29.97
573.367	29.97
573.562	30.16
573.757	30.09
573.952	30.16
574.147	30.03
574.342	30.04
574.537	30.21
574.732	30.21
574.927	30.33
575.121	30.13
575.316	30.01
575.511	30.11
575.706	29.9
575.901	30.09
576.096	30.1
576.29	30.24
576.485	30.34
576.68	30.44
576.875	30.45
577.069	30.32
577.264	30.32
577.459	30.43
577.654	30.26
577.848	30.2
578.043	30.1
578.238	29.91
578.432	29.71
578.627	29.55
578.821	29.45
579.016	29.44
579.21	29.49
579.405	29.64
579.6	29.61
579.794	29.86
579.989	29.95
580.183	29.67
580.378	29.67
580.572	29.84
580.766	30
580.961	30.07
581.155	30.11
581.35	30.2
581.544	30.26
581.738	30.26
581.933	30.33
582.127	30.46
582.321	30.84
582.516	30.94
582.71	30.81
582.904	30.61
583.099	30.71
583.293	30.68
583.487	30.72
583.681	30.71
583.875	30.44
584.07	30.38
584.264	30.43
584.458	30.47
584.652	30.66
584.846	30.8
585.04	30.89
585.234	30.67
585.428	30.67
585.623	30.61
585.817	30.46
586.011	30.66
586.205	30.53
586.399	30.45
586.593	30.11
586.787	30.07
586.981	29.89
587.174	29.77
587.368	29.69
587.562	29.66
587.756	29.45
587.95	29.61
588.144	29.87
588.338	29.96
588.532	30.1
588.725	30.17
588.919	30.24
589.113	30.34
589.307	30.42
589.501	30.23
589.694	30.21
589.888	30.24
590.082	30.36
590.275	29.97
590.469	30.07
590.663	29.91
590.856	29.91
591.05	29.92
591.244	29.83
591.437	29.89
591.631	30.09
591.824	30.28
592.018	30.44
592.212	30.35
592.405	30.33
592.599	30.27
592.792	30.35
592.986	30.35
593.179	30.29
593.372	30.55
593.566	30.69
593.759	30.7
593.953	30.37
594.146	30.62
594.339	30.42
594.533	30.61
594.726	30.78
594.92	30.74
595.113	30.77
595.306	30.9
595.499	30.83
595.693	30.93
595.886	31.16
596.079	31.26
596.272	31.12
596.466	31.11
596.659	31.1
596.852	30.94
597.045	31
597.238	31.28
597.431	31.11
597.624	31.2
597.818	31.3
598.011	31.13
598.204	31.4
598.397	31.32
598.59	31.46
598.783	31.8
598.976	31.77
599.169	32.1
599.362	32.02
599.555	32.09
599.748	32.06
599.941	31.99
600.134	32.24
600.326	32.07
600.519	32.15
600.712	32.05
600.905	31.83
601.098	32.03
601.291	31.72
601.483	31.84
601.676	31.97
601.869	32.22
602.062	32.07
602.255	32.01
602.447	31.97
602.64	31.99
602.833	32.05
603.025	32.02
603.218	32.1
603.411	31.7
603.603	31.59
603.796	31.48
603.989	31.2
604.181	31.23
604.374	31.39
604.566	31.49
604.759	31.5
604.951	31.44
605.144	31.38
605.336	31.37
605.529	31.69
605.721	31.53
605.914	31.58
606.106	31.63
606.299	31.67
606.491	31.6
606.683	31.52
606.876	31.46
607.068	31.64
607.26	31.88
607.453	31.56
607.645	31.41
607.837	31.55
608.03	31.69
608.222	31.62
608.414	31.65
608.606	31.38
608.799	31.31
608.991	31.23
609.183	31.13
609.375	30.93
609.567	30.88
609.759	31
609.952	30.86
610.144	30.62
610.336	30.66
610.528	30.56
610.72	30.77
610.912	30.87
611.104	30.83
611.296	30.87
611.488	30.89
611.68	31.14
611.872	31.45
612.064	31.48
612.256	31.56
612.448	31.31
612.64	31.26
612.832	30.98
613.023	30.72
613.215	30.95
613.407	31.08
613.599	31.05
613.791	30.89
613.983	30.56
614.174	30.7
614.366	31.07
614.558	31.49
614.75	31.15
614.941	31.11
615.133	31.5
615.325	31.75
615.516	31.56
615.708	31.77
615.9	32.1
616.091	32.09
616.283	31.83
616.475	31.61
616.666	31.6
616.858	32.4
617.049	32.5
617.241	32.34
617.432	31.9
617.624	31.95
617.815	31.7
618.007	31.67
618.198	31.7
618.39	32.06
618.581	31.98
618.773	31.93
618.964	31.52
619.155	31.56
619.347	31.46
619.538	31.49
619.729	31.69
619.921	31.95
620.112	31.8
620.303	32
620.494	31.94
620.686	32.13
620.877	32.01
621.068	32.36
621.259	32.32
621.451	32.36
621.642	32.3
621.833	32.15
622.024	32.05
622.215	32.19
622.406	31.91
622.597	31.94
622.788	31.58
622.98	31.62
623.171	31.11
623.362	31.12
623.553	31.03
623.744	31.11
623.935	31.31
624.126	31.6
624.317	31.64
624.508	31.8
624.698	31.71
624.889	31.84
625.08	31.83
625.271	31.95
625.462	32.09
625.653	32.57
625.844	32.84
626.034	32.46
626.225	32.3
626.416	32.06
626.607	31.84
626.798	32.06
626.988	32.16
627.179	32.41
627.37	32.63
627.56	32.55
627.751	32.14
627.942	32.06
628.132	32.42
628.323	32.24
628.514	32.18
628.704	32.24
628.895	32.27
629.085	32.15
629.276	31.79
629.466	31.89
629.657	32.14
629.847	32.42
630.038	32.35
630.228	32.13
630.419	32.27
630.609	32.28
630.8	32.41
630.99	31.95
631.181	31.9
631.371	32.29
631.561	31.7
631.752	31.45
631.942	31.54
632.132	31.28
632.323	31.44
632.513	31.25
632.703	31.29
632.893	31.12
633.084	31.2
633.274	31.36
633.464	31.35
633.654	31.8
633.844	31.75
634.034	31.16
634.225	31.26
634.415	31.23
634.605	31.51
634.795	31.74
634.985	31.71
635.175	31.96
635.365	31.9
635.555	32.03
635.745	31.83
635.935	31.89
636.125	32.27
636.315	32.45
636.505	32.52
636.695	32.6
636.885	32.5
637.075	32.88
637.265	32.82
637.455	32.78
637.644	32.44
637.834	32.59
638.024	32.4
638.214	32.51
638.404	32.59
638.593	32.46
638.783	32.11
638.973	32.51
639.163	32.55
639.352	32.44
639.542	32.1
639.732	32.22
639.921	31.92
640.111	32.06
640.301	31.9
640.49	31.66
640.68	31.57
640.87	31.94
641.059	31.28
641.249	31.28
641.438	31.43
641.628	31.76
641.817	31.78
642.007	32.27
642.196	32.35
642.386	32.58
642.575	32.38
642.764	32.21
642.954	32.1
643.143	32.57
643.333	32.56
643.522	32.38
643.711	32.7
643.901	33.03
644.09	32.43
644.279	32.41
644.469	32.29
644.658	33.12
644.847	33.58
645.036	33.48
645.226	33.38
645.415	33.14
645.604	32.89
645.793	32.51
645.982	31.83
646.171	32.01
646.361	31.9
646.55	31.81
646.739	31.65
646.928	31.17
647.117	31.1
647.306	31.3
647.495	31.48
647.684	31.57
647.873	31.81
648.062	31.82
648.251	32.12
648.44	32.1
648.629	31.98
648.818	31.76
649.007	31.79
649.196	31.53
649.384	30.97
649.573	30.64
649.762	30.41
649.951	30.21
650.14	30.4
650.328	30.33
650.517	30.4
650.706	30.53
650.895	30.06
651.083	30.35
651.272	30.87
651.461	30.83
651.65	31.31
651.838	31.85
652.027	31.9
652.216	31.59
652.404	31.34
652.593	31.22
652.781	31.06
652.97	31.67
653.158	31.29
653.347	31.18
653.535	31.38
653.724	31.11
653.912	30.63
654.101	30.6
654.289	31.27
654.478	31.79
654.666	32.08
654.855	32.52
655.043	32.21
655.231	32.81
655.42	33.03
655.608	33.13
655.796	33.31
655.985	33.64
656.173	34.11
656.361	33.71
656.55	33.3
656.738	33.05
656.926	32.65
657.114	32.26
657.302	32.3
657.491	31.85
657.679	32.05
657.867	32.3
658.055	32.55
658.243	32.02
658.431	32.36
658.619	32.48
658.807	32.66
658.996	33.22
659.184	33.53
659.372	33.21
659.56	33.27
659.748	33.05
659.936	32.63
660.124	32.29
660.311	32.47
660.499	32.26
660.687	32.28
660.875	32.28
661.063	31.88
661.251	32.01
661.439	31.87
661.627	32.01
661.814	32.24
662.002	32.45
662.19	32.77
662.378	32.68
662.565	32.51
662.753	32.44
662.941	32.34
663.129	31.95
663.316	31.72
663.504	32.11
663.692	32
663.879	32.26
664.067	32.09
664.254	31.92
664.442	32.07
664.63	32.43
664.817	32.57
665.005	32.39
665.192	32.65
665.38	32.45
665.567	32.49
665.755	32.68
665.942	32.53
666.13	32.27
666.317	32.3
666.504	32.37
666.692	32.4
666.879	32
667.067	32.05
667.254	31.93
667.441	32.24
667.629	32.46
667.816	32.38
668.003	32.29
668.19	32.19
668.378	32.17
668.565	32.1
668.752	31.51
668.939	31.63
669.127	31.83
669.314	32.19
669.501	32.16
669.688	31.78
669.875	31.72
670.062	31.76
670.249	31.81
670.436	31.96
670.623	31.85
670.81	32.34
670.997	32.16
671.184	32.03
671.371	31.91
671.558	32.1
671.745	31.84
671.932	31.56
672.119	30.86
672.306	31.52
672.493	31.36
672.68	31.55
672.867	31.05
673.054	30.92
673.24	31.13
673.427	30.97
673.614	30.65
673.801	31.05
673.988	30.93
674.174	31.63
674.361	31.09
674.548	31.58
674.734	31.67
674.921	32.04
675.108	32.93
675.294	32.68
675.481	33.01
675.668	33.38
675.854	33.46
676.041	33.74
676.227	33.79
676.414	33.93
676.601	33.61
676.787	33.18
676.974	33.37
677.16	33.19
677.347	33.57
677.533	33.41
677.719	33.13
677.906	32.34
678.092	32.41
678.279	32.06
678.465	32.19
678.651	32.02
678.838	32.43
679.024	32.58
679.21	32.35
679.397	32.07
679.583	32.04
679.769	32.65
679.955	33.03
680.142	33.26
680.328	33.43
680.514	33.37
680.7	33.63
680.886	33.61
681.073	33.17
681.259	32.95
681.445	32.93
681.631	32.96
681.817	32.32
682.003	32.9
682.189	32.67
682.375	32.77
682.561	32.57
682.747	32.32
682.933	32.17
683.119	32.52
683.305	32.64
683.491	32.69
683.677	32.66
683.863	32.9
684.049	32.37
684.235	31.89
684.42	32.14
684.606	32.31
684.792	32.62
684.978	32.88
685.164	32.4
685.349	32.52
685.535	32.58
685.721	32.6
685.907	32.34
686.092	32.67
686.278	33.24
686.464	32.56
686.649	32.52
686.835	32.15
687.021	31.98
687.206	31.77
687.392	32.29
687.577	32.4
687.763	32.38
687.948	32.13
688.134	32.02
688.319	31.65
688.505	32.04
688.69	32.18
688.876	31.78
689.061	31.34
689.247	31.57
689.432	31.33
689.618	30.81
689.803	30.87
689.988	31.34
690.174	31.03
690.359	31.72
690.544	31.33
690.73	31.62
690.915	32.39
691.1	32.53
691.285	32.49
691.471	32
691.656	32.34
691.841	32.45
692.026	32.11
692.211	32.38
692.396	31.71
692.582	32.08
692.767	31.81
692.952	31.45
693.137	31.93
693.322	32.44
693.507	33.07
693.692	32.89
693.877	32.02
694.062	32
694.247	30.97
694.432	31.05
694.617	30.76
694.802	30.95
694.987	30.63
695.172	29.87
695.357	30.15
695.541	29.7
695.726	29.95
695.911	31.02
696.096	31.47
696.281	32.32
696.466	32.38
696.65	32.73
696.835	32.12
697.02	32.68
697.204	33.11
697.389	32.32
697.574	32.76
697.759	32.83
697.943	32.1
698.128	32.31
698.312	32.1
698.497	32.24
698.682	32.11
698.866	32.54
699.051	32.54
699.235	32.67
699.42	33.08
699.604	32.68
699.789	32.78
699.973	32.71
700.158	32.19
700.342	32.38
700.527	32.37
700.711	32.07
700.895	32.04
701.08	32
701.264	31.72
701.448	31.8
701.633	31.83
701.817	31.2
702.001	31.61
702.186	31.59
702.37	31.29
702.554	31.23
702.738	31.89
702.923	31.88
703.107	31.87
703.291	31.98
703.475	32.17
703.659	32.31
703.843	33.2
704.027	33.49
704.212	33.79
704.396	34.19
704.58	34.11
704.764	33.55
704.948	33.44
705.132	33.24
705.316	32.84
705.5	32.74
705.684	32.55
705.868	32.07
706.052	31.67
706.235	31.65
706.419	31.98
706.603	31.87
706.787	32.29
706.971	31.58
707.155	31.29
707.339	31.85
707.522	31.3
707.706	31.74
707.89	32.55
708.074	32.63
708.257	32.71
708.441	32.25
708.625	32.15
708.808	32.63
708.992	32.66
709.176	33.03
709.359	32.44
709.543	31.98
709.727	31.06
709.91	30.98
710.094	31.42
710.277	31.6
710.461	31.41
710.644	32.02
710.828	31.61
711.011	31.93
711.195	31.8
711.378	32.5
711.562	33.4
711.745	33.89
711.928	33.63
712.112	33.54
712.295	33.42
712.478	34.22
712.662	34
712.845	33.45
713.028	33.82
713.212	34.26
713.395	33.47
713.578	33
713.761	33.1
713.945	32.92
714.128	32.6
714.311	32.29
714.494	31.71
714.677	31.93
714.86	32.64
715.043	32.46
715.227	32.48
715.41	33.37
715.593	34.25
715.776	34.79
715.959	34.18
716.142	34.88
716.325	35.14
716.508	35.43
716.691	34.64
716.874	34.09
717.057	34.47
717.239	34.21
717.422	33.8
717.605	32.87
717.788	31.79
717.971	31.98
718.154	31.12
718.337	30.57
718.519	30.06
718.702	31.02
718.885	31.3
719.068	31.31
719.25	30.72
719.433	29.82
719.616	30.24
719.798	30.47
719.981	30.91
720.164	30.94
720.346	32.53
720.529	33.59
720.712	33.61
720.894	33.49
721.077	33.1
721.259	33.06
721.442	34.19
721.624	33.7
721.807	34.5
721.989	33.85
722.172	34.6
722.354	33.62
722.537	31.61
722.719	30.64
722.901	30.31
723.084	30.34
723.266	31.32
723.448	31.26
723.631	31.4
723.813	30.49
723.995	31.2
724.178	30.55
724.36	31.1
724.542	32.52
724.724	33.38
724.907	34.01
725.089	34.09
725.271	33.41
725.453	33.81
725.635	33.61
725.817	33.92
725.999	33.88
726.181	34.48
726.364	34.22
726.546	34.34
726.728	33.62
726.91	33.4
727.092	33.13
727.274	33
727.456	32.3
727.638	31.91
727.819	32.58
728.001	32.63
728.183	32.53
728.365	32.43
728.547	31.95
728.729	32.21
728.911	32.43
729.093	31.78
729.274	32.88
729.456	33.11
729.638	33.07
729.82	32.19
730.001	31.58
730.183	31.82
730.365	32.02
730.546	31.29
730.728	31.53
730.91	30.83
731.091	31.66
731.273	30.26
731.455	30.19
731.636	31.28
731.818	30.91
731.999	31.95
732.181	31.69
732.362	31.02
732.544	31.6
732.725	31.01
732.907	31.45
733.088	31.73
733.27	32.58
733.451	32.9
733.633	32.69
733.814	33.32
733.995	32.66
734.177	32.44
734.358	32.37
734.539	32.91
734.721	33.31
734.902	33.35
735.083	33.44
735.264	32.97
735.446	33.09
735.627	32.69
735.808	31.89
735.989	31.31
736.17	31.88
736.351	32.13
736.533	32.38
736.714	32.74
736.895	33.16
737.076	32.92
737.257	32.44
737.438	32.22
737.619	31.9
737.8	32.41
737.981	33.39
738.162	33.12
738.343	33.58
738.524	32.88
738.705	32.55
738.886	32.41
739.067	32.02
739.247	31.75
739.428	30.85
739.609	31.83
739.79	31.84
739.971	31.58
740.151	30.86
740.332	30.47
740.513	31.03
740.694	31.56
740.874	31.6
741.055	31.37
741.236	32.79
741.417	33.96
741.597	33.59
741.778	33.94
741.958	33.67
742.139	34.02
742.32	34.22
742.5	34.38
742.681	34.48
742.861	34.7
743.042	35.68
743.222	34.38
743.403	34.78
743.583	34.4
743.764	34.04
743.944	35.29
744.124	33.73
744.305	33.63
744.485	33.44
744.666	32.65
744.846	32.08
745.026	30.22
745.207	30.69
745.387	30.25
745.567	30.92
745.747	30.3
745.928	27.78
746.108	29.58
746.288	29.39
746.468	27.78
746.648	28.21
746.829	27.69
747.009	29.87
747.189	30.49
747.369	30.01
747.549	29.52
747.729	30.51
747.909	31.13
748.089	30.38
748.269	30.07
748.449	30.11
748.629	30.06
748.809	29.94
748.989	29.29
749.169	27.72
749.349	28.67
749.529	30.22
749.709	30.49
749.889	31.57
750.068	31.63
750.248	32.52
750.428	33.24
750.608	32.81
750.788	32.95
750.967	32.83
751.147	34.77
751.327	33.3
751.507	31.69
751.686	30.75
751.866	31.67
752.046	32.98
752.225	32.31
752.405	31.47
752.585	32.3
752.764	33.23
752.944	33.24
753.123	33.01
753.303	32.88
753.482	32.9
753.662	33.47
753.841	31.28
754.021	31.26
754.2	31.59
754.38	32.28
754.559	31.38
754.739	31.01
754.918	30.68
755.097	29.27
755.277	30.12
755.456	29.78
755.635	30.69
755.815	31.1
755.994	29.31
756.173	28.95
756.352	29.28
756.532	28.73
756.711	28.6
756.89	28.7
757.069	29.49
757.248	29.19
757.427	29.57
757.607	29.57
757.786	29.42
757.965	30.29
758.144	30.97
758.323	30.15
758.502	30.81
758.681	31.02
758.86	31.31
759.039	31.79
759.218	32.69
759.397	32.18
759.576	31.56
759.755	33.18
759.934	34.13
760.113	33.4
760.291	34.63
760.47	33.8
760.649	33.48
760.828	34.11
761.007	35.17
761.186	34.07
761.364	35.54
761.543	35.19
761.722	34.04
761.901	33.66
762.079	34.27
762.258	33.12
762.437	33.77
762.615	33.88
762.794	33.65
762.972	32.5
763.151	32.56
763.33	31.81
763.508	31.74
763.687	31.62
763.865	31.05
764.044	30.14
764.222	30.81
764.401	30.74
764.579	30.58
764.758	29.04
764.936	29.1
765.114	30.13
765.293	29.34
765.471	29.7
765.65	30.17
765.828	30.1
766.006	31.37
766.184	30.35
766.363	30.55
766.541	30.11
766.719	31.36
766.898	30.7
767.076	29.84
767.254	31.69
767.432	30.9
767.61	29.04
767.788	29.3
767.967	28.61
768.145	29.31
768.323	29.27
768.501	30.24
768.679	28.85
768.857	29.38
769.035	28.49
769.213	27.7
769.391	28.02
769.569	29.26
769.747	28.91
769.925	29.85
770.103	29.66
770.281	29.91
770.459	30.04
770.636	31.27
770.814	32.9
770.992	34.12
771.17	33.54
771.348	33.19
771.525	33.95
771.703	35.27
771.881	34.61
772.059	35.37
772.236	34.65
772.414	33.6
772.592	34.42
772.769	34.13
772.947	32.47
773.125	32.46
773.302	34.04
773.48	34.31
773.657	33.58
773.835	33.23
774.013	30.55
774.19	32.19
774.368	34.89
774.545	34.19
774.723	31.74
774.9	32.81
775.077	32.03
775.255	32.27
775.432	29.43
775.61	28.67
775.787	28.98
775.964	30.59
776.142	29.35
776.319	29.49
776.496	27.92
776.674	29.3
776.851	30.56
777.028	32.08
777.205	28.88
777.382	32.06
777.56	33.26
777.737	31.28
777.914	31.56
778.091	31.27
778.268	29.35
778.445	30.57
778.622	27.83
778.8	25.16
778.977	24.63
779.154	24.9
779.331	24.13
779.508	23.57
779.685	25.51
779.862	26.24
780.038	26.78
780.215	25.45
780.392	23.52
780.569	27.42
780.746	27.12
780.923	26.78
781.1	28.69
781.277	27.17
781.453	25.89
781.63	25.1
781.807	23.06
781.984	22
782.16	24.75
782.337	27.63
782.514	23.54
782.691	25.42
782.867	24.98
783.044	25.95
783.221	26.72
783.397	27.13
783.574	25.51
783.75	27.19
783.927	29.25
784.103	26.72
784.28	27.71
784.456	30.76
784.633	30.39
784.809	30.8
784.986	28.1
785.162	26.98
785.339	27.96
785.515	29.13
785.692	30.41
785.868	28.32
786.044	26.44
786.221	25.61
786.397	24.48
786.573	25.09
786.749	25.17
786.926	26.36
787.102	28.14
787.278	27.87
787.454	27.38
787.631	25.08
787.807	26.79
787.983	30.84
788.159	31.29
788.335	31.25
788.511	31.71
788.687	32.1
788.863	31.77
789.039	32.14
789.216	32.19
789.392	34.47
789.568	34.6
789.744	32.4
789.919	32.85
790.095	33.3
790.271	33.13
790.447	34.94
790.623	35.71
790.799	36.55
790.975	36.95
791.151	35.53
791.327	34.78
791.502	36
791.678	37.18
791.854	32.65
792.03	31.76
792.205	31.66
792.381	28.01
792.557	24.66
792.733	25.39
792.908	23.07
793.084	23.69
793.259	24.77
793.435	25.75
793.611	27.42
793.786	28.84
793.962	29.64
794.137	28.71
794.313	29.62
794.488	33.2
794.664	34.42
794.839	38.85
795.015	41.83
795.19	38.6
795.366	37.03
795.541	36.34
795.716	38.19
795.892	36.57
796.067	36.45
796.242	34.29
796.418	35.78
796.593	33.81
796.768	33.07
796.944	32.49
797.119	34
797.294	34.26
797.469	32.44
797.644	28.98
797.82	28
797.995	26.28
798.17	29.37
798.345	27.98
798.52	26.28
798.695	23.34
798.87	21.89
799.045	21.61
799.22	20.01
799.395	19.59
799.57	20.36
799.745	23.45
799.92	27.47
800.095	26.01
800.27	27.35
800.445	32.43
800.62	35.21
800.795	37.18
800.97	35.13
801.145	35.78
801.319	37.28
801.494	40.23
801.669	42.4
801.844	42.2
802.018	42.71
802.193	40.71
802.368	35.4
802.543	30.69
802.717	29.89
802.892	33.07
803.067	32.54
803.241	31.95
803.416	27.59
803.59	23.54
803.765	25.19
803.94	25.37
804.114	23.31
804.289	23.26
804.463	23.32
804.638	21.7
804.812	20.32
804.986	20.63
805.161	22.93
805.335	27.81
805.51	27.58
805.684	27.49
805.858	26.35
806.033	28.48
806.207	28.33
806.381	29.62
806.556	29.73
806.73	34.54
806.904	35.87
807.078	34.64
807.253	36.03
807.427	36.73
807.601	38.79
807.775	41.35
807.949	42.01
808.123	42.25
808.298	44.42
808.472	43.59
808.646	40.75
808.82	39.52
808.994	39.96
809.168	36.82
809.342	36.23
809.516	33.55
809.69	31.52
809.864	29.17
810.038	30.71
810.212	26.07
810.385	27.19
810.559	27.53
810.733	28.33
810.907	26.76
811.081	24.67
811.255	27.3
811.428	26.17
811.602	24.52
811.776	22.69
811.95	21.75
812.123	24.25
812.297	20.41
812.471	19.68
812.644	18.42
812.818	20.2
812.992	16.76
813.165	14.02
813.339	10.91
813.512	6.66
813.686	7.58
813.86	8.21
814.033	5.89
814.207	10.14
814.38	14.32
814.554	15.31
814.727	13.79
814.9	24.12
815.074	23.27
815.247	23.45
815.421	26.37
815.594	22.04
815.767	25.71
815.941	29.32
816.114	28.64
816.287	24.68
816.46	27.43
816.634	23.85
816.807	18.25
816.98	19.65
817.153	21.11
817.327	19.87
817.5	24.73
817.673	21.3
817.846	21.59
818.019	27.09
818.192	23.12
818.365	18.62
818.538	23.34
818.711	26.93
818.884	27.41
819.057	30.71
819.23	33.2
819.403	33.41
819.576	31.9
819.749	29.64
819.922	24.76
820.095	28.19
820.268	30.94
820.441	32.96
820.614	31.9
820.786	31.97
820.959	30.86
821.132	31.92
821.305	30.33
821.477	31.41
821.65	31.94
821.823	32.76
821.996	33.38
822.168	33.65
822.341	32.47
822.514	32.36
822.686	31.72
822.859	32.15
823.031	31.34
823.204	32.58
823.376	32.31
823.549	31.77
823.722	31.62
823.894	31.26
824.067	30.13
824.239	30.69
824.411	31.18
824.584	31.94
824.756	32.01
824.929	31.85
825.101	30.47
825.273	30.89
825.446	30.78
825.618	31.4
825.79	31.29
825.963	31.39
826.135	29.48
826.307	28.87
826.479	28.66
826.652	27.86
826.824	28.34
826.996	27.7
827.168	27.75
827.34	29.86
827.512	29.7
827.684	29.21
827.856	29.14
828.029	29.98
828.201	29.68
828.373	30.52
828.545	31.92
828.717	33.82
828.889	35.94
829.061	34.88
829.232	32.73
829.404	31.99
829.576	33.16
829.748	34.14
829.92	33.85
830.092	36.28
830.264	34.63
830.436	32.43
830.607	30.24
830.779	31.64
830.951	32.97
831.123	30.1
831.294	29.02
831.466	26.57
831.638	28.76
831.809	30.39
831.981	27.66
832.153	27.52
832.324	24.95
832.496	23.64
832.667	18.23
832.839	19.02
833.011	23.25
833.182	26.08
833.354	25.85
833.525	23.21
833.697	23.62
833.868	24.73
834.039	24.58
834.211	26.29
834.382	26.12
834.554	27.5
834.725	28.15
834.896	29.1
835.068	24.51
835.239	25.72
835.41	27.89
835.581	28.63
835.753	29.86
835.924	27.4
836.095	27.34
836.266	28.83
836.438	29.69
836.609	27.89
836.78	24.95
836.951	29.07
837.122	31.89
837.293	29.47
837.464	27.98
837.635	24.08
837.806	25.29
837.977	25.54
838.148	21.55
838.319	19.43
838.49	22.28
838.661	27.18
838.832	29.83
839.003	24.75
839.174	24.92
839.345	29.12
839.516	35.32
839.687	37.56
839.857	39.07
840.028	39.07
840.199	44.9
840.37	46.34
840.54	46.59
840.711	41.34
840.882	46.09
841.053	48.05
841.223	37.21
841.394	25.56
841.564	29.25
841.735	33.57
841.906	39.89
842.076	37.72
842.247	38.66
842.417	30.76
842.588	34.69
842.758	34.21
842.929	30.96
843.099	37.92
843.27	45.88
843.44	38.24
843.611	31.45
843.781	30.14
843.951	31.02
844.122	23.41
844.292	28.95
844.462	25.9
844.633	21.01
844.803	25.27
844.973	27.56
845.144	20.89
845.314	26.13
845.484	22.31
845.654	15.77
845.824	8.39
845.995	2.79
846.165	1.17
846.335	3.79
846.505	10.76
846.675	15.36
846.845	10.72
847.015	20.36
847.185	18.76
847.355	37.86
847.525	36.93
847.695	45.28
847.865	42.47
848.035	37.92
848.205	32.07
848.375	21.76
848.545	15.7
848.715	16.93
848.884	20.91
849.054	22.15
849.224	10.79
849.394	17.66
849.564	28.49
849.733	27.61
849.903	38.37
850.073	40.45
850.243	58.23
850.412	57.73
850.582	66.54
850.752	63.3
850.921	68.91
851.091	62.47
851.26	56.9
851.43	40.37
851.599	41.93
851.769	32.22
851.939	37.91
852.108	19.92
852.278	-1.67
852.447	-19.21
852.616	-16.97
852.786	-37.14
852.955	-34.47
853.125	-15.99
853.294	0.27
853.463	9.53
853.633	7.72
853.802	2.33
853.971	17.87
854.141	32.7
854.31	36.21
854.479	33.7
854.648	44.59
854.818	48.9
854.987	34.42
855.156	36.57
855.325	36.78
855.494	46.83
855.663	50.48
855.832	49.86
856.001	34.81
856.171	36.99
856.34	41.02
856.509	31.95
856.678	22.96
856.847	38.88
857.016	33.1
857.185	29.59
857.353	12.55
857.522	9.34
857.691	0.19
857.86	2.76
858.029	9.16
858.198	-13.76
858.367	-6.29
858.535	3.42
858.704	-11.91
858.873	-8.99
859.042	-2.25
859.21	12.87
859.379	9.75
859.548	4.08
859.717	13.53
859.885	19.57
860.054	30.45
860.222	23.56
860.391	17.67
860.56	19.94
860.728	24.74
860.897	26.16
861.065	29.08
861.234	24.28
861.402	29.21
861.571	30.02
861.739	25.15
861.908	22.56
862.076	30.22
862.244	32.23
862.413	33.09
862.581	31.73
862.749	24.19
862.918	20.36
863.086	25.66
863.254	21.6
863.423	20.26
863.591	16.28
863.759	20.84
863.927	12.01
864.096	10.14
864.264	0.79
864.432	3.36
864.6	7.44
864.768	12.57
864.936	-6.52
865.104	7.72
865.272	9.92
865.44	10.14
865.608	2.77
865.776	22.16
865.944	37.91
866.112	62.78
866.28	56.84
866.448	39.73
866.616	45.35
866.784	60.79
866.952	58.19
867.12	48.46
867.288	52.22
867.455	59.15
867.623	45.56
867.791	22.17
867.959	-5.75
868.127	-12.04
868.294	11.48
868.462	8.73
868.63	25.69
868.797	23.81
868.965	45.94
869.133	40.15
869.3	46.03
869.468	55.15
869.636	66.57
869.803	64.95
869.971	59.14
870.138	68.84
870.306	71.15
870.473	51.2
870.641	61
870.808	57.27
870.975	65.05
871.143	53.86
871.31	41.92
871.478	55.7
871.645	76.62
871.812	77.92
871.98	65
872.147	72.04
872.314	73.19
872.482	72.99
872.649	62.55
872.816	56.9
872.983	64.1
873.15	65.52
873.318	58.5
873.485	55.18
873.652	54.13
873.819	61.41
873.986	54.42
874.153	58.52
874.32	53.21
874.487	63.69
874.654	66.59
874.821	50.15
874.988	49.91
875.155	41.01
875.322	27.61
875.489	26.33
875.656	20.64
875.823	26.91
875.99	30.61
876.157	25.08
876.324	25.19
876.49	13.51
876.657	32
876.824	17.63
876.991	33.69
877.157	45
877.324	45.7
877.491	32.84
877.658	29.73
877.824	1.35
877.991	0.86
878.157	-2.68
878.324	19.55
878.491	-5.19
878.657	12.63
878.824	2.97
878.99	-16.89
879.157	-25.47
879.323	-6.32
879.49	-18.05
879.656	12.2
879.823	19.57
879.989	20.74
880.156	2.23
880.322	16.76
880.488	3.36
880.655	15.57
880.821	24.9
880.987	25.68
881.154	30.46
881.32	36.28
881.486	32.63
881.652	32.44
881.819	31.55
881.985	31.35
882.151	27.53
882.317	30.78
882.483	30.76
882.649	32.97
882.816	33.9
882.982	32.88
883.148	29.17
883.314	28.45
883.48	29.16
883.646	26.72
883.812	26.2
883.978	26.19
884.144	24.67
884.31	23.19
884.476	19.76
884.642	20.99
884.807	16.76
884.973	18.41
885.139	18.68
885.305	15.81
885.471	17.75
885.637	23.78
885.802	23.17
885.968	22.11
886.134	22.42
886.3	26.07
886.465	24.97
886.631	27.93
886.797	25.84
886.962	27.06
887.128	27.59
887.293	31.95
887.459	19.38
887.625	19.51
887.79	19.83
887.956	19
888.121	14.67
888.287	8.72
888.452	11.14
888.618	14.61
888.783	12.74
