Data from 2938060_Reflection_3.txt Node
Date: Sun Jul 12 13:51:36 EDT 2015
User: robert
Spectrometer: USB4E03001
Autoset integration time: false
Trigger mode: 4
Integration Time (sec): 1.000000E-1
Scans to average: 10
Electric dark correction enabled: true
Nonlinearity correction enabled: false
Boxcar width: 5
Stray light correction enabled: false
XAxis mode: Wavelengths
Stop averaging: false
Number of Pixels in Spectrum: 3648
>>>>>Begin Spectral Data<<<<<
177.566	11.55
177.785	-12.42
178.005	-114
178.225	13.84
178.445	13.35
178.665	5.76
178.885	949.59
179.105	60.75
179.324	75.09
179.544	78.15
179.764	125
179.984	268.28
180.204	-51.27
180.423	110.08
180.643	182.9
180.863	295.94
181.083	-1274.35
181.302	-141.11
181.522	-155.5
181.742	-216.75
181.961	-74.03
182.181	-119.29
182.401	-102.4
182.621	-229.12
182.84	-194.99
183.06	-79.43
183.279	-69.1
183.499	-139.08
183.719	-83.41
183.938	-47.5
184.158	-37.02
184.377	-102.52
184.597	-226.11
184.816	-134.54
185.036	-16.3
185.256	1.55
185.475	-66.98
185.695	-50.74
185.914	-34.93
186.134	-84.09
186.353	-88.5
186.572	-60.59
186.792	-11.44
187.011	-4.92
187.231	-4.19
187.45	-38.89
187.67	-15.77
187.889	12.58
188.108	-5.69
188.328	8.55
188.547	-10.37
188.766	-49.1
188.986	-73.97
189.205	-92.96
189.424	-53.31
189.644	-76.4
189.863	-56.75
190.082	-59.45
190.302	-81.53
190.521	-57.81
190.74	-92.04
190.959	-154.71
191.178	-66.31
191.398	-47.65
191.617	-106.72
191.836	-239.95
192.055	-57833.33
192.274	2137.72
192.494	611.98
192.713	259.99
192.932	479.94
193.151	562.07
193.37	-487.08
193.589	-2446.37
193.808	1221.2
194.027	991.67
194.246	1373.68
194.465	-5513.82
194.685	-543.22
194.904	-313.1
195.123	-195.26
195.342	-217.76
195.561	-270.26
195.78	-250.22
195.999	-393.29
196.218	-283.75
196.436	-375.5
196.655	-288.01
196.874	-163.01
197.093	-241.06
197.312	-696.63
197.531	-742.96
197.75	-557.1
197.969	2482.28
198.188	-454.99
198.407	-147.86
198.625	-68.74
198.844	-54.8
199.063	-58.58
199.282	-108.3
199.501	-109.44
199.719	-28.04
199.938	-27.47
200.157	-91.32
200.376	-71
200.594	-179.47
200.813	-161.47
201.032	-132.5
201.251	-188.31
201.469	-97.62
201.688	-124.72
201.907	-97.85
202.125	-215.62
202.344	-306.66
202.563	-113.48
202.781	-214.11
203	-213.79
203.218	-556.5
203.437	-5135.94
203.656	-597.56
203.874	-448.71
204.093	-370.57
204.311	-491.15
204.53	-392.35
204.748	-397
204.967	-1267.27
205.185	-434.2
205.404	-397.8
205.622	-262.67
205.841	-269.88
206.059	-505.14
206.278	-972.38
206.496	-7330.88
206.715	2103.36
206.933	2210.15
207.151	-953.57
207.37	-865.56
207.588	-1299.08
207.806	-606.25
208.025	-612.6
208.243	-1412.89
208.461	-738.56
208.68	3274.37
208.898	-621.21
209.116	-242.7
209.335	-327.13
209.553	-55627.27
209.771	-3623.05
209.989	-426.91
210.208	-503.01
210.426	-194.51
210.644	-183
210.862	-164.01
211.081	-57.25
211.299	-35.57
211.517	-39.66
211.735	-59.68
211.953	-42.78
212.171	-56.53
212.39	-106.66
212.608	-169.94
212.826	-581.51
213.044	-151.88
213.262	-46.77
213.48	-58.4
213.698	-141.41
213.916	-299.62
214.134	-244.04
214.352	-170.6
214.57	-102.4
214.788	-90.97
215.006	-9.68
215.224	-24.98
215.442	-207.82
215.66	404.62
215.878	267.69
216.096	458.3
216.314	583.97
216.532	-129.52
216.75	-463.2
216.968	-3861.78
217.185	-334.61
217.403	-2857.25
217.621	-474.14
217.839	-391.18
218.057	-531.94
218.275	-513.05
218.492	-567.38
218.71	-405.24
218.928	-956.5
219.146	-1032.58
219.363	-413.46
219.581	-349.79
219.799	-183.83
220.017	-282.81
220.234	-228.77
220.452	-345.92
220.67	-304.81
220.887	-313.24
221.105	-372.47
221.323	-230.15
221.54	-154.74
221.758	-140.73
221.976	-181.83
222.193	-256.41
222.411	-205.06
222.629	-162.62
222.846	-120.79
223.064	-201.66
223.281	-181.68
223.499	-129.84
223.716	-150.42
223.934	-126.35
224.151	-122.8
224.369	-92.11
224.586	-70.45
224.804	-49.24
225.021	-89.41
225.239	-81.49
225.456	-45.02
225.674	-41.16
225.891	-47.31
226.108	-54.31
226.326	-54.17
226.543	-69.22
226.76	-59.77
226.978	-64.45
227.195	-66.1
227.413	-51.68
227.63	-39.22
227.847	-34.88
228.064	-29.81
228.282	-27.02
228.499	-21.1
228.716	-17.86
228.934	-15.13
229.151	-12.01
229.368	-6.02
229.585	-3.72
229.802	-0.7
230.02	-2.28
230.237	-3.65
230.454	-4.19
230.671	-4.78
230.888	-8.78
231.105	-13.33
231.323	-14.27
231.54	-19.5
231.757	-29.2
231.974	-35.4
232.191	-43.43
232.408	-53.96
232.625	-57.65
232.842	-59.99
233.059	-64.42
233.276	-55.13
233.493	-49.65
233.71	-64.48
233.927	-60.24
234.144	-55.25
234.361	-48.1
234.578	-48.1
234.795	-38.25
235.012	-34.71
235.229	-33.49
235.446	-27.78
235.663	-28.91
235.879	-29.94
236.096	-23.85
236.313	-19.27
236.53	-25.69
236.747	-30.09
236.964	-34.84
237.181	-31.79
237.397	-28.79
237.614	-28.4
237.831	-36.51
238.048	-39.73
238.264	-39.51
238.481	-33.85
238.698	-39.74
238.915	-34.07
239.131	-33.58
239.348	-24.06
239.565	-28.31
239.781	-22.84
239.998	-23.57
240.215	-21.71
240.431	-20.51
240.648	-16.44
240.865	-14.89
241.081	-13.65
241.298	-12.93
241.514	-9.36
241.731	-9.6
241.947	-5.57
242.164	-6.88
242.38	-5.21
242.597	-3.2
242.814	-0.27
243.03	-2.87
243.246	-3.39
243.463	-2.63
243.679	-1.95
243.896	-3.08
244.112	-1.02
244.329	-2.13
244.545	0.11
244.762	-0.06
244.978	-0.44
245.194	-2.87
245.411	3.21
245.627	3.83
245.843	4.6
246.06	3.62
246.276	4.16
246.492	3.04
246.709	4.07
246.925	4.03
247.141	2.76
247.357	3.29
247.574	3.29
247.79	2.91
248.006	2.85
248.222	2.86
248.439	2.48
248.655	2.91
248.871	2.5
249.087	1.52
249.303	0.11
249.519	1.42
249.736	1.61
249.952	1.97
250.168	0.17
250.384	-0.59
250.6	-1.21
250.816	-2.2
251.032	-4.25
251.248	-2.82
251.464	-3.36
251.68	-3.74
251.896	-3.84
252.112	-3.59
252.328	-4.95
252.544	-7.17
252.76	-7.62
252.976	-7.6
253.192	-6.15
253.408	-5.19
253.624	-5.9
253.84	-6.57
254.056	-3.71
254.272	-4.35
254.487	-5.29
254.703	-4.82
254.919	-3.94
255.135	-3.76
255.351	-5.81
255.567	-6.74
255.782	-6.32
255.998	-5.49
256.214	-6.11
256.43	-8.13
256.646	-6.54
256.861	-8.33
257.077	-7.74
257.293	-4.47
257.508	-4.78
257.724	-4.18
257.94	-2.94
258.155	-2.02
258.371	-2.48
258.587	0.54
258.802	0.53
259.018	0.38
259.234	1.1
259.449	1.25
259.665	1.49
259.88	1.91
260.096	1.71
260.312	1.32
260.527	1.08
260.743	0.98
260.958	-0.19
261.174	-0.46
261.389	-0.69
261.605	-1.17
261.82	-1.09
262.036	-1.83
262.251	-3.12
262.466	-3.14
262.682	-3
262.897	-4.86
263.113	-3.93
263.328	-3.69
263.543	-3.71
263.759	-4.12
263.974	-5.13
264.189	-6.17
264.405	-6.72
264.62	-6.9
264.835	-7.07
265.051	-6.19
265.266	-6.19
265.481	-7.47
265.696	-4.86
265.912	-5.67
266.127	-5.84
266.342	-4.9
266.557	-4.23
266.773	-3.57
266.988	-3.52
267.203	-3.87
267.418	-3.38
267.633	-1.89
267.848	-1.43
268.064	-3.37
268.279	-1.92
268.494	-1.26
268.709	-1.31
268.924	-0.3
269.139	-0.09
269.354	0.46
269.569	1
269.784	-0.34
269.999	-0.67
270.214	-0.82
270.429	0.18
270.644	-0.38
270.859	-1.11
271.074	-1.89
271.289	-1.62
271.504	-1
271.719	0.51
271.934	1.16
272.149	1.12
272.363	0.31
272.578	-0.61
272.793	-1.61
273.008	-0.75
273.223	0.29
273.438	0.53
273.653	-0.67
273.867	-1.81
274.082	-3.38
274.297	-3.52
274.512	-2.82
274.726	-3.25
274.941	-1.16
275.156	-0.61
275.371	-2.33
275.585	-2.08
275.8	-2.02
276.015	-0.77
276.229	-0.31
276.444	0.92
276.659	-0.41
276.873	-1.11
277.088	0.43
277.302	-1.44
277.517	-0.77
277.732	-0.23
277.946	-2.25
278.161	-2.39
278.375	-3.81
278.59	-4.18
278.804	-3.81
279.019	-2.82
279.233	-2.44
279.448	-3.56
279.662	-2.33
279.877	-1.41
280.091	-0.34
280.306	1.09
280.52	1.52
280.735	3.15
280.949	4.18
281.163	3.05
281.378	3.19
281.592	4.39
281.806	5.38
282.021	4.88
282.235	4.34
282.449	4.34
282.664	3.16
282.878	3.04
283.092	2.17
283.307	2.15
283.521	1.64
283.735	2
283.949	0.24
284.164	1.21
284.378	1.22
284.592	0.73
284.806	1.69
285.02	2.05
285.234	1.32
285.449	0.99
285.663	0.8
285.877	0.64
286.091	-0.38
286.305	0.04
286.519	-0.81
286.733	-0.66
286.947	-0.68
287.161	-2.11
287.375	-1.99
287.589	-1.01
287.803	-0.5
288.017	-1.41
288.231	-1.63
288.445	-1.75
288.659	-1.24
288.873	-1.2
289.087	-0.75
289.301	-2.23
289.515	-2.92
289.729	-1.91
289.943	-1.96
290.157	-2.17
290.371	-2.02
290.584	-0.85
290.798	0.08
291.012	0.42
291.226	0.07
291.44	0.2
291.654	1.4
291.867	2.19
292.081	1.99
292.295	0.89
292.509	0.54
292.722	1.13
292.936	0.7
293.15	-0.03
293.364	-1.95
293.577	-1.8
293.791	-1.52
294.005	-0.85
294.218	-0.13
294.432	-1
294.645	-0.63
294.859	-0.09
295.073	-0.4
295.286	-0.65
295.5	0.27
295.713	1.16
295.927	0.84
296.14	1.17
296.354	0.78
296.568	1.48
296.781	2.09
296.994	3.15
297.208	3.46
297.421	3.79
297.635	4.22
297.848	4.33
298.062	5.12
298.275	5.7
298.489	5.4
298.702	6.08
298.915	4.92
299.129	5.01
299.342	4.63
299.555	4.45
299.769	4.38
299.982	4.22
300.195	3.99
300.409	2.48
300.622	2.72
300.835	1.87
301.048	1.37
301.262	2.66
301.475	3.29
301.688	4.19
301.901	3.75
302.115	4.54
302.328	5.1
302.541	6.4
302.754	7.97
302.967	7.21
303.18	6.61
303.393	7.01
303.607	5.92
303.82	5.54
304.033	5.2
304.246	4.7
304.459	3.66
304.672	3.94
304.885	3.3
305.098	2.41
305.311	2.44
305.524	4.61
305.737	4.44
305.95	3.82
306.163	3.34
306.376	3.81
306.589	5.09
306.802	5.83
307.015	5.39
307.228	4.36
307.44	3.81
307.653	5.34
307.866	3.89
308.079	4
308.292	5.02
308.505	5.75
308.718	5.92
308.93	5.43
309.143	6.02
309.356	7.04
309.569	7.49
309.781	9.19
309.994	9.01
310.207	9.69
310.42	9.73
310.632	9.46
310.845	8.67
311.058	8.32
311.27	8.91
311.483	8.99
311.696	8.39
311.908	8.52
312.121	7.51
312.333	6.18
312.546	5.35
312.759	5.06
312.971	3.96
313.184	4.2
313.396	3.76
313.609	3.48
313.821	2.39
314.034	1.91
314.246	1.53
314.459	3.03
314.671	3.72
314.884	4.2
315.096	5.81
315.309	6.63
315.521	6.3
315.733	6.4
315.946	6.75
316.158	6.15
316.371	6.13
316.583	6.12
316.795	3.98
317.008	3.11
317.22	3.39
317.432	0.88
317.644	2.45
317.857	3.32
318.069	3.28
318.281	1.7
318.494	2.71
318.706	2.09
318.918	2.1
319.13	2.67
319.342	5.56
319.555	5.14
319.767	6.29
319.979	5.01
320.191	5.35
320.403	6.5
320.615	7.72
320.827	8.9
321.039	8.56
321.252	8.34
321.464	7.93
321.676	6.05
321.888	6.06
322.1	5.59
322.312	6.48
322.524	6.31
322.736	5.72
322.948	5.59
323.16	4.49
323.372	4.7
323.584	6.45
323.796	7.02
324.007	7.44
324.219	7.56
324.431	7.27
324.643	7.04
324.855	6.58
325.067	7.45
325.279	6.92
325.491	7.88
325.702	8.36
325.914	7.39
326.126	7.34
326.338	7.87
326.55	8.25
326.761	9.32
326.973	10.29
327.185	10.62
327.396	9.01
327.608	9.92
327.82	10.16
328.032	8.99
328.243	8.55
328.455	9.69
328.666	8.18
328.878	8.85
329.09	8.25
329.301	7.85
329.513	7.82
329.725	8.91
329.936	8.77
330.148	8.19
330.359	10.32
330.571	11.32
330.782	10.27
330.994	12.56
331.205	12.93
331.417	14.18
331.628	14.55
331.84	15.53
332.051	16.05
332.262	16.56
332.474	15.95
332.685	18.61
332.897	19.11
333.108	17.33
333.319	17.15
333.531	16.29
333.742	17.03
333.953	17.46
334.165	18.19
334.376	18.54
334.587	18.75
334.799	20.23
335.01	18.45
335.221	17.64
335.432	19.28
335.644	18.15
335.855	19.71
336.066	19.72
336.277	20.22
336.488	20.35
336.7	20.48
336.911	20.08
337.122	20.22
337.333	20.51
337.544	21.32
337.755	22.39
337.966	23.74
338.177	21.79
338.388	20.87
338.599	20.13
338.811	19.09
339.022	19.06
339.233	19.8
339.444	19.98
339.655	19.96
339.866	20.4
340.076	20.69
340.287	20.17
340.498	21.46
340.709	21.88
340.92	22.46
341.131	23.15
341.342	23.31
341.553	23.59
341.764	22.87
341.975	21.98
342.185	21.05
342.396	20.95
342.607	20.83
342.818	21.73
343.029	21.58
343.239	20.97
343.45	21.02
343.661	20.51
343.872	19.7
344.082	19.5
344.293	20.28
344.504	20.47
344.714	19.27
344.925	19.6
345.136	18.76
345.346	18.94
345.557	18.9
345.768	19.13
345.978	19.34
346.189	19.44
346.399	19.2
346.61	19.85
346.821	20.03
347.031	21.33
347.242	20.66
347.452	19.99
347.663	19.76
347.873	19.16
348.084	18.46
348.294	17.65
348.504	18.37
348.715	18.41
348.925	17.46
349.136	17.6
349.346	16.6
349.557	16.69
349.767	17.25
349.977	17.64
350.188	17.36
350.398	18.43
350.608	18.51
350.819	18.14
351.029	19.74
351.239	20.23
351.449	19.74
351.66	20.12
351.87	20.7
352.08	21.68
352.29	22.3
352.501	23.95
352.711	24.21
352.921	24.63
353.131	24.35
353.341	23.44
353.552	23.49
353.762	23.69
353.972	24.67
354.182	25.05
354.392	24.8
354.602	24.59
354.812	23.94
355.022	23.05
355.232	23.27
355.442	23.43
355.652	22.63
355.862	23.37
356.072	23.89
356.282	24.04
356.492	23.99
356.702	24.56
356.912	24.14
357.122	24.1
357.332	24.67
357.542	24.39
357.752	24.59
357.962	24.97
358.171	24.94
358.381	24.95
358.591	24.11
358.801	23.83
359.011	23.42
359.221	23.98
359.43	24.38
359.64	24
359.85	24.72
360.06	24.84
360.269	25.22
360.479	24.75
360.689	24.62
360.899	25
361.108	25.89
361.318	25.91
361.528	26.52
361.737	27.23
361.947	27.27
362.156	27.81
362.366	27.42
362.576	27.35
362.785	27.51
362.995	27.33
363.204	26.89
363.414	26.01
363.623	25.92
363.833	24.86
364.042	24
364.252	23.7
364.461	23.03
364.671	23.87
364.88	23.69
365.09	23.49
365.299	23.84
365.509	24.27
365.718	24.77
365.927	24.36
366.137	24.16
366.346	24.26
366.555	25.14
366.765	24.79
366.974	24.54
367.183	24.58
367.393	24.93
367.602	25.53
367.811	24.23
368.021	23.65
368.23	23.65
368.439	24.09
368.648	23.06
368.857	22.38
369.067	22.16
369.276	21.67
369.485	22.35
369.694	22.12
369.903	21.31
370.112	22.61
370.321	22.69
370.531	23.06
370.74	22.96
370.949	23.17
371.158	23.16
371.367	23.5
371.576	23.42
371.785	23.11
371.994	22.37
372.203	21.94
372.412	21.69
372.621	21.64
372.83	21.26
373.039	20.81
373.248	21.7
373.457	21.29
373.666	20.99
373.874	20.72
374.083	20.48
374.292	21.49
374.501	21.71
374.71	21.99
374.919	21.41
375.128	21.94
375.336	21.85
375.545	21.19
375.754	21.16
375.963	21
376.171	21.21
376.38	20.93
376.589	20.11
376.798	20.32
377.006	20
377.215	21.1
377.424	20.96
377.632	21.45
377.841	21.25
378.05	21.38
378.258	20.94
378.467	20.89
378.675	20.88
378.884	20.93
379.093	20.95
379.301	20.96
379.51	20.9
379.718	21.03
379.927	20.48
380.135	20.95
380.344	21.01
380.552	21.71
380.761	22
380.969	22.23
381.177	22.05
381.386	22.23
381.594	22.39
381.803	21.61
382.011	21.05
382.219	21.83
382.428	21.65
382.636	21.53
382.845	21.42
383.053	21.1
383.261	20.6
383.469	20.84
383.678	20.65
383.886	20.93
384.094	21.28
384.302	21.58
384.511	21.26
384.719	21.3
384.927	21.28
385.135	21.29
385.343	21.41
385.552	21.77
385.76	21.64
385.968	21.37
386.176	21.04
386.384	21.15
386.592	21.09
386.8	20.82
387.008	20.7
387.216	20.62
387.424	20.29
387.633	20.04
387.841	19.82
388.049	19.68
388.257	19.62
388.465	19.7
388.672	19.77
388.88	19.37
389.088	19.4
389.296	19.46
389.504	19.62
389.712	20
389.92	20.4
390.128	20.17
390.336	20.44
390.544	20.66
390.751	20.47
390.959	20.61
391.167	21.31
391.375	21.35
391.583	21.28
391.79	21.53
391.998	21.62
392.206	21.83
392.414	22.58
392.621	22.79
392.829	22.82
393.037	23.04
393.244	22.86
393.452	22.42
393.66	22.55
393.867	22.83
394.075	22.7
394.283	22.39
394.49	22.14
394.698	21.59
394.905	21.29
395.113	21.4
395.32	21.34
395.528	21.38
395.735	21.66
395.943	21.72
396.15	21.49
396.358	21.57
396.565	21.76
396.773	21.59
396.98	21.84
397.188	21.79
397.395	21.67
397.602	21.88
397.81	21.92
398.017	22.19
398.225	22.74
398.432	23.01
398.639	23.14
398.847	23.5
399.054	23.65
399.261	23.76
399.468	24.02
399.676	24.09
399.883	24.16
400.09	23.96
400.297	23.68
400.505	23.43
400.712	22.86
400.919	22.7
401.126	22.34
401.333	22.56
401.54	22.69
401.748	22.42
401.955	22.44
402.162	22.2
402.369	22.4
402.576	22.37
402.783	22.07
402.99	22.42
403.197	22.22
403.404	22.16
403.611	22.11
403.818	21.91
404.025	22.55
404.232	22.65
404.439	22.78
404.646	22.75
404.853	22.95
405.06	23.15
405.267	23.43
405.474	23.6
405.681	23.99
405.887	24.05
406.094	24.12
406.301	23.74
406.508	23.8
406.715	23.71
406.922	23.82
407.128	23.57
407.335	23.55
407.542	23.65
407.749	23.84
407.955	23.24
408.162	23.03
408.369	23.48
408.575	23.63
408.782	23.57
408.989	23.3
409.195	23.04
409.402	23.03
409.609	22.86
409.815	22.67
410.022	22.68
410.228	23.15
410.435	23.06
410.642	22.81
410.848	22.67
411.055	22.66
411.261	22.81
411.468	22.96
411.674	23.13
411.881	23
412.087	22.99
412.294	22.71
412.5	22.63
412.706	23.08
412.913	23.06
413.119	23.02
413.326	22.94
413.532	22.61
413.738	22.48
413.945	22.72
414.151	22.62
414.357	22.46
414.564	22.65
414.77	22.91
414.976	22.68
415.182	22.43
415.389	22.6
415.595	22.3
415.801	22.56
416.007	22.77
416.214	22.28
416.42	22.51
416.626	22.45
416.832	22.37
417.038	22.04
417.244	22.09
417.45	22.26
417.657	22.3
417.863	22.47
418.069	22.55
418.275	22.21
418.481	22.46
418.687	22.45
418.893	22.46
419.099	22.5
419.305	22.35
419.511	22.37
419.717	22.26
419.923	21.99
420.129	22.16
420.335	22.01
420.541	22.14
420.746	22.12
420.952	22.13
421.158	22.1
421.364	21.95
421.57	22.18
421.776	21.96
421.982	21.93
422.187	22.1
422.393	21.93
422.599	21.96
422.805	21.92
423.01	21.78
423.216	21.8
423.422	21.83
423.628	21.99
423.833	21.83
424.039	21.78
424.245	21.7
424.45	21.53
424.656	21.46
424.862	21.56
425.067	21.6
425.273	21.62
425.478	21.45
425.684	21.38
425.889	21.29
426.095	21.43
426.301	21.68
426.506	21.76
426.712	21.91
426.917	22.09
427.123	22.04
427.328	21.86
427.533	21.71
427.739	21.75
427.944	21.72
428.15	21.62
428.355	21.37
428.561	21.12
428.766	21.02
428.971	20.99
429.177	20.92
429.382	20.82
429.587	20.76
429.793	20.7
429.998	20.62
430.203	20.83
430.408	20.73
430.614	20.76
430.819	20.82
431.024	20.89
431.229	20.79
431.434	20.73
431.64	20.68
431.845	20.8
432.05	20.95
432.255	21.15
432.46	21.08
432.665	21.33
432.87	21.24
433.076	21.2
433.281	21.28
433.486	21.2
433.691	21.08
433.896	21.2
434.101	21.19
434.306	21.36
434.511	21.27
434.716	21.26
434.921	21.1
435.126	21.26
435.331	21.4
435.535	21.39
435.74	21.62
435.945	21.73
436.15	21.73
436.355	21.91
436.56	21.63
436.765	21.49
436.97	21.43
437.174	21.42
437.379	21.3
437.584	21.36
437.789	21.21
437.993	20.95
438.198	20.92
438.403	20.66
438.608	20.45
438.812	20.55
439.017	20.83
439.222	20.98
439.426	21.07
439.631	20.99
439.836	20.9
440.04	21.03
440.245	21.2
440.45	21.24
440.654	21.38
440.859	21.45
441.063	21.44
441.268	21.35
441.472	21.27
441.677	21.12
441.881	21.21
442.086	21.16
442.29	21.07
442.495	20.98
442.699	20.89
442.904	20.88
443.108	20.89
443.312	20.89
443.517	20.74
443.721	20.67
443.925	20.73
444.13	20.74
444.334	20.77
444.538	20.88
444.743	20.88
444.947	21.06
445.151	21.04
445.356	21.13
445.56	21.03
445.764	21.1
445.968	21.04
446.173	21.14
446.377	21.1
446.581	21.04
446.785	20.98
446.989	21.05
447.193	20.87
447.398	20.83
447.602	20.57
447.806	20.62
448.01	20.54
448.214	20.43
448.418	20.25
448.622	20.24
448.826	20.2
449.03	20.07
449.234	19.79
449.438	19.82
449.642	19.82
449.846	19.96
450.05	19.85
450.254	19.9
450.458	20.04
450.662	19.97
450.866	19.81
451.069	19.75
451.273	19.89
451.477	19.84
451.681	19.81
451.885	19.88
452.089	19.8
452.292	19.96
452.496	19.68
452.7	19.71
452.904	19.84
453.107	20
453.311	19.99
453.515	19.79
453.719	19.85
453.922	20.06
454.126	19.78
454.33	19.9
454.533	19.82
454.737	20.11
454.94	20.21
455.144	20.03
455.348	19.83
455.551	19.98
455.755	20.1
455.958	20.19
456.162	19.84
456.365	20.04
456.569	19.91
456.772	19.87
456.976	19.83
457.179	19.67
457.383	20
457.586	20.05
457.79	20.13
457.993	19.97
458.196	20.12
458.4	20.17
458.603	20.18
458.807	20.17
459.01	20.15
459.213	20.16
459.417	20.13
459.62	20.05
459.823	20.02
460.026	20
460.23	20.23
460.433	20.17
460.636	20.23
460.839	20.15
461.042	20.23
461.246	20.25
461.449	20.22
461.652	20.29
461.855	20.19
462.058	20.21
462.261	20.05
462.464	19.94
462.668	19.9
462.871	19.92
463.074	19.92
463.277	19.85
463.48	20.02
463.683	20
463.886	19.81
464.089	19.98
464.292	20.14
464.495	20.42
464.698	20.36
464.901	20.2
465.104	20.09
465.306	20.25
465.509	20.35
465.712	20.32
465.915	20.32
466.118	20.52
466.321	20.6
466.524	20.56
466.726	20.36
466.929	20.48
467.132	20.62
467.335	20.67
467.538	20.61
467.74	20.76
467.943	20.76
468.146	20.8
468.348	20.64
468.551	20.54
468.754	20.49
468.956	20.66
469.159	20.71
469.362	20.82
469.564	20.86
469.767	20.96
469.969	20.84
470.172	21
470.375	21.14
470.577	21.26
470.78	21.04
470.982	21.45
471.185	21.49
471.387	21.32
471.59	21.33
471.792	21.37
471.995	21.49
472.197	21.43
472.399	21.2
472.602	21.16
472.804	21.12
473.007	21.25
473.209	21.24
473.411	21.14
473.614	21.04
473.816	21.03
474.018	21
474.22	20.71
474.423	20.84
474.625	20.86
474.827	20.92
475.03	21.1
475.232	21.24
475.434	21.06
475.636	21.1
475.838	21.22
476.04	21.21
476.243	21.12
476.445	21.14
476.647	21.24
476.849	21.34
477.051	21.21
477.253	21.13
477.455	21.02
477.657	20.99
477.859	20.89
478.061	20.94
478.263	20.92
478.465	21.18
478.667	21.27
478.869	21.17
479.071	20.94
479.273	21.05
479.475	21.02
479.677	21.05
479.879	21.18
480.081	21.37
480.283	21.37
480.485	21.33
480.686	21.07
480.888	21.05
481.09	21.01
481.292	20.99
481.494	20.94
481.695	21.05
481.897	21.15
482.099	21.07
482.301	21.05
482.502	20.99
482.704	21.17
482.906	21.26
483.107	21.26
483.309	21.27
483.511	21.38
483.712	21.42
483.914	21.42
484.115	21.39
484.317	21.31
484.519	21.27
484.72	21.29
484.922	21.21
485.123	21.23
485.325	21.28
485.526	21.19
485.728	21.09
485.929	21.06
486.131	21.04
486.332	20.95
486.534	21.03
486.735	21.02
486.936	20.98
487.138	21.04
487.339	21.03
487.541	20.96
487.742	21
487.943	21.08
488.144	21.03
488.346	21.03
488.547	21.12
488.748	21.15
488.95	21.17
489.151	21.33
489.352	21.27
489.553	21.22
489.755	21.15
489.956	21.2
490.157	21.17
490.358	21.15
490.559	21.16
490.76	21.21
490.961	21.22
491.163	21.28
491.364	21.19
491.565	21.16
491.766	21.16
491.967	21.25
492.168	21.26
492.369	21.26
492.57	21.26
492.771	21.33
492.972	21.32
493.173	21.35
493.374	21.41
493.575	21.39
493.776	21.42
493.976	21.45
494.177	21.45
494.378	21.5
494.579	21.54
494.78	21.62
494.981	21.52
495.182	21.43
495.382	21.3
495.583	21.1
495.784	21.11
495.985	21.13
496.185	21.19
496.386	21.22
496.587	21.28
496.788	21.19
496.988	21.18
497.189	21.19
497.39	21.17
497.59	21.27
497.791	21.49
497.992	21.54
498.192	21.57
498.393	21.49
498.593	21.4
498.794	21.32
498.994	21.48
499.195	21.65
499.395	21.61
499.596	21.6
499.796	21.55
499.997	21.54
500.197	21.56
500.398	21.72
500.598	21.84
500.799	22
500.999	21.98
501.199	21.98
501.4	21.94
501.6	21.97
501.801	22.28
502.001	22.44
502.201	22.36
502.402	22.36
502.602	22.3
502.802	22.35
503.002	22.6
503.203	22.86
503.403	22.95
503.603	22.89
503.803	23.03
504.003	22.91
504.204	22.86
504.404	23.12
504.604	23.21
504.804	23.2
505.004	23.25
505.204	23.13
505.404	22.99
505.604	22.97
505.804	23.2
506.005	23.19
506.205	23.21
506.405	23.36
506.605	23.32
506.805	23.29
507.005	23.49
507.204	23.6
507.404	23.63
507.604	23.87
507.804	23.95
508.004	23.86
508.204	24.01
508.404	24.19
508.604	24.32
508.804	24.17
509.003	24.38
509.203	24.31
509.403	24.41
509.603	24.55
509.803	24.57
510.002	24.64
510.202	24.8
510.402	24.83
510.602	24.91
510.801	24.91
511.001	25.17
511.201	25.3
511.4	25.46
511.6	25.48
511.8	25.55
511.999	25.61
512.199	25.74
512.398	25.87
512.598	25.91
512.797	25.96
512.997	26
513.197	25.93
513.396	25.97
513.596	26.03
513.795	26.12
513.994	26.17
514.194	26.24
514.393	26.27
514.593	26.3
514.792	26.4
514.992	26.47
515.191	26.5
515.39	26.87
515.59	26.92
515.789	26.92
515.988	26.99
516.188	27.06
516.387	27.17
516.586	27.45
516.786	27.53
516.985	27.58
517.184	27.63
517.383	27.78
517.582	27.77
517.782	27.94
517.981	28.16
518.18	28.33
518.379	28.33
518.578	28.48
518.777	28.4
518.976	28.47
519.176	28.61
519.375	28.82
519.574	28.95
519.773	28.95
519.972	28.98
520.171	29.03
520.37	28.97
520.569	29.1
520.768	29.15
520.967	29.34
521.166	29.38
521.365	29.35
521.564	29.31
521.762	29.38
521.961	29.57
522.16	29.75
522.359	29.65
522.558	29.72
522.757	29.98
522.956	30.16
523.154	30.15
523.353	30.31
523.552	30.5
523.751	30.52
523.949	30.5
524.148	30.45
524.347	30.5
524.546	30.72
524.744	30.96
524.943	31.03
525.142	30.96
525.34	31.11
525.539	31.14
525.737	31.16
525.936	31.17
526.135	31.23
526.333	31.39
526.532	31.41
526.73	31.48
526.929	31.44
527.127	31.43
527.326	31.55
527.524	31.56
527.723	31.6
527.921	31.71
528.12	31.83
528.318	31.91
528.516	31.89
528.715	31.94
528.913	31.95
529.112	32
529.31	32.07
529.508	32.14
529.707	32.17
529.905	32.26
530.103	32.32
530.301	32.42
530.5	32.42
530.698	32.56
530.896	32.65
531.094	32.71
531.293	32.84
531.491	32.95
531.689	32.92
531.887	33.01
532.085	33.03
532.283	32.96
532.481	32.85
532.68	32.97
532.878	33.01
533.076	33.05
533.274	33.13
533.472	33.1
533.67	33.11
533.868	33.09
534.066	33.13
534.264	33.17
534.462	33.2
534.66	33.37
534.858	33.32
535.056	33.28
535.253	33.21
535.451	33.19
535.649	33.19
535.847	33.17
536.045	33.23
536.243	33.27
536.441	33.19
536.638	33.33
536.836	33.33
537.034	33.32
537.232	33.35
537.43	33.42
537.627	33.46
537.825	33.54
538.023	33.5
538.22	33.66
538.418	33.6
538.616	33.79
538.813	33.73
539.011	33.72
539.209	33.8
539.406	33.72
539.604	33.63
539.801	33.6
539.999	33.68
540.196	33.81
540.394	33.8
540.591	33.82
540.789	33.83
540.986	33.93
541.184	33.89
541.381	33.95
541.579	34.04
541.776	34.09
541.974	34.19
542.171	34.23
542.368	34.26
542.566	34.33
542.763	34.49
542.96	34.65
543.158	34.67
543.355	34.86
543.552	34.86
543.75	34.91
543.947	35.01
544.144	35.03
544.341	35.04
544.539	35.03
544.736	34.95
544.933	34.83
545.13	34.71
545.327	34.69
545.524	34.65
545.722	34.7
545.919	34.85
546.116	34.92
546.313	34.89
546.51	35.06
546.707	35.06
546.904	35.02
547.101	35.21
547.298	35.33
547.495	35.15
547.692	35.16
547.889	35.31
548.086	35.24
548.283	35.24
548.48	35.4
548.677	35.27
548.874	35.44
549.07	35.54
549.267	35.32
549.464	35.11
549.661	35.32
549.858	35.17
550.055	34.96
550.251	35.09
550.448	35.16
550.645	35.16
550.842	35.31
551.038	35.22
551.235	35.18
551.432	35.37
551.628	35.58
551.825	35.66
552.022	35.73
552.218	35.9
552.415	36.01
552.612	36.03
552.808	35.98
553.005	35.74
553.201	35.73
553.398	35.9
553.594	35.76
553.791	35.87
553.987	35.93
554.184	36.09
554.38	36.18
554.577	36.02
554.773	35.84
554.97	35.8
555.166	35.93
555.362	35.81
555.559	35.73
555.755	35.9
555.952	35.9
556.148	35.81
556.344	35.64
556.541	35.57
556.737	35.45
556.933	35.86
557.129	36.06
557.326	36.14
557.522	36.29
557.718	36.42
557.914	36.32
558.11	36.08
558.307	36.18
558.503	36.38
558.699	36.45
558.895	36.59
559.091	36.28
559.287	36.24
559.483	36.12
559.679	36.21
559.876	36.18
560.072	36.23
560.268	36.4
560.464	36.49
560.66	36.36
560.856	36.26
561.052	36.33
561.247	36.68
561.443	36.92
561.639	36.98
561.835	36.91
562.031	36.86
562.227	36.91
562.423	36.82
562.619	36.91
562.815	36.91
563.01	36.97
563.206	37.04
563.402	36.97
563.598	36.65
563.793	36.74
563.989	37.04
564.185	36.94
564.381	37.2
564.576	37.33
564.772	37.3
564.968	37.39
565.163	37.34
565.359	37.26
565.555	37
565.75	37
565.946	36.97
566.141	36.87
566.337	37.13
566.532	37.01
566.728	36.89
566.923	36.82
567.119	36.87
567.314	36.91
567.51	36.96
567.705	37.24
567.901	37.39
568.096	37.31
568.292	37.32
568.487	37.31
568.682	37.08
568.878	37.08
569.073	37.12
569.268	37.25
569.464	37.22
569.659	37.29
569.854	37.18
570.05	37.1
570.245	37.44
570.44	37.44
570.635	37.36
570.831	37.57
571.026	37.56
571.221	37.62
571.416	37.51
571.611	37.81
571.806	37.92
572.002	37.98
572.197	38.01
572.392	37.92
572.587	37.88
572.782	37.94
572.977	37.92
573.172	37.88
573.367	37.89
573.562	37.81
573.757	37.62
573.952	37.55
574.147	37.59
574.342	37.54
574.537	37.38
574.732	37.45
574.927	37.5
575.121	37.45
575.316	37.54
575.511	37.67
575.706	37.85
575.901	37.78
576.096	37.68
576.29	37.59
576.485	37.61
576.68	37.59
576.875	37.43
577.069	37.23
577.264	37.46
577.459	37.57
577.654	37.38
577.848	37.36
578.043	37.46
578.238	37.38
578.432	37.39
578.627	37.57
578.821	37.74
579.016	38.02
579.21	38.13
579.405	37.92
579.6	37.73
579.794	37.77
579.989	37.59
580.183	37.76
580.378	37.86
580.572	37.84
580.766	37.72
580.961	37.67
581.155	37.5
581.35	37.49
581.544	37.37
581.738	37.61
581.933	37.44
582.127	37.43
582.321	37.12
582.516	37.21
582.71	37.24
582.904	37.24
583.099	37.27
583.293	37.4
583.487	37.63
583.681	37.54
583.875	37.35
584.07	37.15
584.264	37.3
584.458	37.42
584.652	37.33
584.846	37.21
585.04	37.09
585.234	37.05
585.428	37.01
585.623	36.98
585.817	37.09
586.011	37.12
586.205	37.3
586.399	37.19
586.593	37.27
586.787	37.26
586.981	37.11
587.174	36.95
587.368	36.94
587.562	36.95
587.756	36.83
587.95	36.93
588.144	37.05
588.338	37.42
588.532	37.51
588.725	37.6
588.919	37.53
589.113	37.67
589.307	38.13
589.501	38.23
589.694	37.98
589.888	38.2
590.082	38.59
590.275	38.28
590.469	37.9
590.663	37.83
590.856	37.68
591.05	37.88
591.244	38.05
591.437	37.69
591.631	37.47
591.824	37.68
592.018	37.6
592.212	37.13
592.405	37.38
592.599	37.43
592.792	37.63
592.986	37.89
593.179	37.94
593.372	37.87
593.566	38.16
593.759	38.25
593.953	38.31
594.146	38.25
594.339	38.62
594.533	38.78
594.726	38.9
594.92	38.83
595.113	38.91
595.306	38.86
595.499	38.84
595.693	38.71
595.886	38.85
596.079	38.83
596.272	38.64
596.466	38.45
596.659	38.46
596.852	38.6
597.045	38.63
597.238	38.37
597.431	38.36
597.624	38.39
597.818	38.65
598.011	38.61
598.204	38.62
598.397	38.55
598.59	38.46
598.783	38.22
598.976	37.95
599.169	37.85
599.362	37.93
599.555	37.76
599.748	37.74
599.941	37.36
600.134	37.41
600.326	37.37
600.519	37.7
600.712	37.75
600.905	38.03
601.098	37.98
601.291	38.01
601.483	37.94
601.676	38.06
601.869	37.97
602.062	37.95
602.255	37.9
602.447	37.93
602.64	38.04
602.833	37.97
603.025	37.94
603.218	38.03
603.411	38.11
603.603	38.04
603.796	38.01
603.989	38.05
604.181	38.09
604.374	38.01
604.566	37.83
604.759	37.68
604.951	37.92
605.144	38.01
605.336	38.08
605.529	37.98
605.721	38.09
605.914	38.17
606.106	38.53
606.299	38.74
606.491	38.63
606.683	38.84
606.876	38.94
607.068	38.81
607.26	38.64
607.453	38.7
607.645	38.63
607.837	38.62
608.03	38.54
608.222	38.14
608.414	37.84
608.606	38.28
608.799	38.21
608.991	38.09
609.183	38.35
609.375	38.23
609.567	38.08
609.759	38.33
609.952	38.18
610.144	38.18
610.336	38.27
610.528	38.54
610.72	38.4
610.912	38.36
611.104	38.26
611.296	37.96
611.488	37.88
611.68	37.98
611.872	37.99
612.064	38.06
612.256	37.88
612.448	37.9
612.64	37.94
612.832	38.04
613.023	38.34
613.215	38.69
613.407	38.89
613.599	39.45
613.791	39.57
613.983	39.28
614.174	39.35
614.366	39.62
614.558	39.62
614.75	39.52
614.941	39.31
615.133	39.02
615.325	38.62
615.516	38.48
615.708	38.09
615.9	37.99
616.091	37.96
616.283	38.11
616.475	38.14
616.666	38.38
616.858	38.49
617.049	38.67
617.241	38.64
617.432	38.96
617.624	38.79
617.815	38.87
618.007	39.04
618.198	39.29
618.39	38.88
618.581	38.82
618.773	38.32
618.964	38.28
619.155	37.97
619.347	38.25
619.538	38.46
619.729	38.61
619.921	38.4
620.112	38.19
620.303	37.98
620.494	38.27
620.686	38.43
620.877	38.43
621.068	38.44
621.259	38.5
621.451	38.41
621.642	38.41
621.833	38.6
622.024	39
622.215	38.96
622.406	38.76
622.597	38.65
622.788	38.44
622.98	38.26
623.171	37.93
623.362	38.18
623.553	38.26
623.744	38.18
623.935	37.94
624.126	37.78
624.317	37.97
624.508	38.37
624.698	38.19
624.889	38.35
625.08	38.67
625.271	38.85
625.462	38.76
625.653	38.55
625.844	38.2
626.034	38.13
626.225	38.04
626.416	37.97
626.607	37.8
626.798	37.98
626.988	37.91
627.179	37.69
627.37	37.75
627.56	37.63
627.751	37.59
627.942	37.62
628.132	37.72
628.323	38.02
628.514	38.07
628.704	38.36
628.895	38.36
629.085	38.52
629.276	38.44
629.466	38.48
629.657	38.57
629.847	38.6
630.038	38.57
630.228	38.62
630.419	38.35
630.609	38.49
630.8	38.06
630.99	38.17
631.181	37.76
631.371	37.98
631.561	37.93
631.752	37.92
631.942	38.01
632.132	38.29
632.323	38.57
632.513	38.4
632.703	38.45
632.893	38.76
633.084	38.82
633.274	38.88
633.464	39.12
633.654	39.1
633.844	38.92
634.034	39.07
634.225	39.07
634.415	38.83
634.605	38.89
634.795	38.65
634.985	38.54
635.175	38.27
635.365	38.63
635.555	38.35
635.745	38.27
635.935	38.4
636.125	38.05
636.315	38.19
636.505	38.07
636.695	38.24
636.885	38.45
637.075	38.32
637.265	38.52
637.455	38.02
637.644	38.12
637.834	38.41
638.024	38.49
638.214	38.6
638.404	38.44
638.593	38.63
638.783	38.51
638.973	38.24
639.163	38.98
639.352	38.68
639.542	38.65
639.732	38.55
639.921	38.06
640.111	38.47
640.301	38.92
640.49	38.82
640.68	38.73
640.87	38.84
641.059	38.81
641.249	38.14
641.438	38.82
641.628	39.08
641.817	38.9
642.007	38.73
642.196	38.03
642.386	38.01
642.575	37.94
642.764	37.94
642.954	37.8
643.143	37.64
643.333	37.38
643.522	36.75
643.711	36.59
643.901	37.34
644.09	37.24
644.279	37.7
644.469	37.67
644.658	37.6
644.847	37.22
645.036	37.62
645.226	37.73
645.415	38.12
645.604	38.09
645.793	38.04
645.982	37.71
646.171	38.05
646.361	37.72
646.55	37.3
646.739	37.19
646.928	37.38
647.117	37.48
647.306	37.45
647.495	37.18
647.684	37.14
647.873	37.31
648.062	37.41
648.251	37
648.44	37.22
648.629	37.09
648.818	37.25
649.007	37.31
649.196	36.55
649.384	36.77
649.573	37.12
649.762	37.43
649.951	36.93
650.14	37.24
650.328	37.91
650.517	38.08
650.706	38.49
650.895	38.09
651.083	38.04
651.272	38.29
651.461	38.37
651.65	38.31
651.838	38.32
652.027	38.7
652.216	38.15
652.404	37.89
652.593	37.62
652.781	37.3
652.97	37.72
653.158	37.6
653.347	37.8
653.535	37.16
653.724	37.38
653.912	37.36
654.101	37.41
654.289	37.47
654.478	37.43
654.666	37.17
654.855	37.37
655.043	37.7
655.231	37.77
655.42	38.06
655.608	38.56
655.796	38.13
655.985	37.73
656.173	37.92
656.361	37.98
656.55	38.13
656.738	38.14
656.926	38.72
657.114	38.56
657.302	38.62
657.491	38.23
657.679	38.38
657.867	38.34
658.055	38.73
658.243	38.43
658.431	38.54
658.619	38.83
658.807	39.1
658.996	38.39
659.184	38.62
659.372	38.5
659.56	38.25
659.748	37.88
659.936	38.17
660.124	38.13
660.311	38.38
660.499	38.19
660.687	37.97
660.875	38.14
661.063	38.25
661.251	37.8
661.439	38.2
661.627	38.67
661.814	38.96
662.002	38.74
662.19	38.61
662.378	38.43
662.565	38.86
662.753	38.52
662.941	38.1
663.129	37.99
663.316	38.36
663.504	38.17
663.692	38.06
663.879	37.64
664.067	37.71
664.254	37.83
664.442	38.16
664.63	37.96
664.817	37.85
665.005	38.3
665.192	38.38
665.38	37.89
665.567	38
665.755	38.24
665.942	38.46
666.13	38.28
666.317	38.73
666.504	38.48
666.692	38.51
666.879	38.54
667.067	37.85
667.254	38.34
667.441	38.48
667.629	38.48
667.816	38.43
668.003	38.59
668.19	38.64
668.378	38.12
668.565	37.88
668.752	37.68
668.939	38.2
669.127	38.97
669.314	38.55
669.501	38.74
669.688	38.38
669.875	38.05
670.062	38.11
670.249	37.99
670.436	38.24
670.623	38.64
670.81	38.35
670.997	38.18
671.184	37.05
671.371	36.77
671.558	36.46
671.745	36.59
671.932	36.32
672.119	36.26
672.306	36.85
672.493	36.16
672.68	36.06
672.867	36.44
673.054	36.73
673.24	37.42
673.427	37.57
673.614	37.97
673.801	38.16
673.988	38.64
674.174	38.58
674.361	38.58
674.548	38.85
674.734	39.02
674.921	38.93
675.108	38.12
675.294	38.28
675.481	38.33
675.668	37.82
675.854	37.7
676.041	37.54
676.227	37.59
676.414	36.99
676.601	37.51
676.787	37.59
676.974	37.68
677.16	38.1
677.347	37.79
677.533	38.24
677.719	38.3
677.906	38.3
678.092	38.67
678.279	38.58
678.465	38.8
678.651	38.62
678.838	38.34
679.024	38.38
679.21	38.16
679.397	38.42
679.583	38.15
679.769	38.39
679.955	38.59
680.142	38.02
680.328	38.2
680.514	38.04
680.7	37.9
680.886	37.87
681.073	37.98
681.259	38.01
681.445	37.92
681.631	37.71
681.817	37.46
682.003	37.26
682.189	37.43
682.375	36.93
682.561	36.87
682.747	36.63
682.933	36.76
683.119	36.54
683.305	36.48
683.491	36.46
683.677	36.77
683.863	36.6
684.049	36.68
684.235	36.77
684.42	37.37
684.606	37.53
684.792	37.21
684.978	37.05
685.164	36.89
685.349	36.56
685.535	36.81
685.721	36.4
685.907	36.54
686.092	36.23
686.278	36.23
686.464	35.84
686.649	36.14
686.835	36.85
687.021	37.11
687.206	37.12
687.392	37.79
687.577	37.65
687.763	37.98
687.948	37.88
688.134	38.11
688.319	38.02
688.505	37.96
688.69	37.43
688.876	36.88
689.061	36.6
689.247	36.56
689.432	36.56
689.618	36.67
689.803	36.04
689.988	36.35
690.174	36.17
690.359	36.17
690.544	36.65
690.73	36.84
690.915	37.25
691.1	37.62
691.285	37.4
691.471	37.09
691.656	36.75
691.841	37.21
692.026	37.17
692.211	37.01
692.396	36.88
692.582	36.12
692.767	35.71
692.952	35.57
693.137	34.63
693.322	34.8
693.507	35.01
693.692	34.39
693.877	34.2
694.062	33.54
694.247	34.16
694.432	34.93
694.617	35.46
694.802	35.05
694.987	35.18
695.172	35.71
695.357	35.93
695.541	35.84
695.726	36.55
695.911	36.84
696.096	37.12
696.281	36.84
696.466	36.54
696.65	36.6
696.835	37.42
697.02	36.83
697.204	36.56
697.389	36.88
697.574	36.83
697.759	37.04
697.943	37.48
698.128	37.7
698.312	37.81
698.497	37.73
698.682	37.74
698.866	37.48
699.051	38.3
699.235	38.55
699.42	38.23
699.604	38.6
699.789	38.27
699.973	37.87
700.158	38.06
700.342	37.65
700.527	37.32
700.711	37.29
700.895	37.35
701.08	37.24
701.264	37.14
701.448	36.81
701.633	36.23
701.817	35.92
702.001	36.38
702.186	35.66
702.37	36.09
702.554	36.7
702.738	36.66
702.923	36.57
703.107	36.75
703.291	36.64
703.475	37.28
703.659	37.62
703.843	37.94
704.027	37.38
704.212	37.52
704.396	37.48
704.58	37.01
704.764	36.43
704.948	36.26
705.132	35.33
705.316	34.64
705.5	34.99
705.684	34.55
705.868	34.41
706.052	34.35
706.235	34.65
706.419	33.82
706.603	34.24
706.787	34.06
706.971	34.54
707.155	34.43
707.339	34.99
707.522	34.85
707.706	34.67
707.89	35.26
708.074	35.25
708.257	35.29
708.441	35.62
708.625	35.51
708.808	36.46
708.992	35.86
709.176	36.62
709.359	36.65
709.543	36.31
709.727	36.13
709.91	35.75
710.094	35.71
710.277	35.79
710.461	36.32
710.644	35.81
710.828	35.5
711.011	35.83
711.195	34.68
711.378	34.65
711.562	34.76
711.745	35.39
711.928	35.13
712.112	35.31
712.295	35.14
712.478	34.49
712.662	35.15
712.845	35.39
713.028	35.28
713.212	36.01
713.395	36.22
713.578	36.11
713.761	35.94
713.945	36.66
714.128	36.21
714.311	36.02
714.494	36.59
714.677	36.65
714.86	36.59
715.043	36.41
715.227	36.47
715.41	35.99
715.593	36.12
715.776	35.93
715.959	36.12
716.142	36.46
716.325	36.94
716.508	36.74
716.691	35.81
716.874	35.51
717.057	35.39
717.239	35.33
717.422	35.76
717.605	36.21
717.788	35.88
717.971	35.1
718.154	35.07
718.337	34.75
718.519	35.33
718.702	35.91
718.885	35.98
719.068	36.34
719.25	35.15
719.433	34.34
719.616	33.98
719.798	34.73
719.981	35.15
720.164	34.8
720.346	34.06
720.529	33.36
720.712	33.75
720.894	33.46
721.077	33.35
721.259	33.92
721.442	34.27
721.624	34.35
721.807	32.89
721.989	32.06
722.172	31.46
722.354	31.87
722.537	31.58
722.719	30.81
722.901	31.32
723.084	31.67
723.266	31.11
723.448	31.01
723.631	31.09
723.813	30.95
723.995	31.95
724.178	31.36
724.36	31.42
724.542	31.28
724.724	32
724.907	31.59
725.089	32.27
725.271	32.87
725.453	32.97
725.635	32.67
725.817	35.22
725.999	34.82
726.181	36.12
726.364	36.57
726.546	36.71
726.728	36.08
726.91	35.73
727.092	34.71
727.274	34.28
727.456	34.64
727.638	33.41
727.819	31.77
728.001	31.2
728.183	31.04
728.365	30.2
728.547	30.04
728.729	30.35
728.911	30.7
729.093	30.63
729.274	30.51
729.456	30.35
729.638	31.85
729.82	32.85
730.001	32.96
730.183	33.32
730.365	34.26
730.546	34.75
730.728	34.56
730.91	35.31
731.091	35.38
731.273	35.97
731.455	36.45
731.636	35.85
731.818	35.21
731.999	35.32
732.181	34.79
732.362	34.01
732.544	34.46
732.725	34.49
732.907	33.27
733.088	33.56
733.27	34.45
733.451	34.18
733.633	34.55
733.814	34.83
733.995	35.2
734.177	35.53
734.358	36.36
734.539	35.63
734.721	35.15
734.902	34.98
735.083	34.87
735.264	33.92
735.446	33.93
735.627	33.57
735.808	32.76
735.989	31.76
736.17	32.5
736.351	32.09
736.533	32.62
736.714	33.05
736.895	33.55
737.076	34.13
737.257	34.1
737.438	33.95
737.619	34.16
737.8	34.92
737.981	34.52
738.162	33.64
738.343	34.06
738.524	33.4
738.705	33.46
738.886	33.14
739.067	31.56
739.247	31.33
739.428	30.32
739.609	29.35
739.79	28.22
739.971	29.49
740.151	29.38
740.332	28.76
740.513	28.43
740.694	27.98
740.874	27.47
741.055	28.09
741.236	27.74
741.417	27.8
741.597	28.67
741.778	30.16
741.958	28.8
742.139	28.81
742.32	27.94
742.5	28.92
742.681	29.43
742.861	29.89
743.042	30.77
743.222	31.57
743.403	33.01
743.583	33.72
743.764	32.13
743.944	33.44
744.124	33.66
744.305	34.67
744.485	33.75
744.666	33.32
744.846	33.86
745.026	33.83
745.207	33.31
745.387	34.7
745.567	33.89
745.747	33.84
745.928	33.9
746.108	34.31
746.288	33.76
746.468	33.61
746.648	33.81
746.829	34.53
747.009	34.59
747.189	34.35
747.369	32.51
747.549	32.36
747.729	33.37
747.909	33.68
748.089	34.23
748.269	34.99
748.449	34.78
748.629	33.96
748.809	34.68
748.989	34.65
749.169	35.19
749.349	34.94
749.529	34.78
749.709	34.18
749.889	34.31
750.068	34.02
750.248	33.11
750.428	33.38
750.608	34.53
750.788	33.16
750.967	32.57
751.147	32.63
751.327	32.13
751.507	31.74
751.686	32.28
751.866	31.7
752.046	31.05
752.225	30.96
752.405	30.69
752.585	30.16
752.764	30.42
752.944	30.58
753.123	31
753.303	32.21
753.482	31.92
753.662	31.88
753.841	32.82
754.021	33.43
754.2	32.87
754.38	33.25
754.559	33.02
754.739	32.2
754.918	31.63
755.097	30.59
755.277	31.16
755.456	31.96
755.635	31.32
755.815	29.79
755.994	28.7
756.173	29.16
756.352	28.67
756.532	29.17
756.711	29.6
756.89	30.87
757.069	30.58
757.248	27.94
757.427	27.48
757.607	28.25
757.786	29.99
757.965	30.72
758.144	31.69
758.323	31.63
758.502	31.58
758.681	30.67
758.86	29.78
759.039	30.33
759.218	31.74
759.397	32.6
759.576	32.42
759.755	32
759.934	31.03
760.113	29.56
760.291	30.68
760.47	30.12
760.649	30.1
760.828	30.27
761.007	31.01
761.186	30.92
761.364	29.85
761.543	29
761.722	28.48
761.901	28.71
762.079	28.54
762.258	28.38
762.437	28.25
762.615	28.22
762.794	28.42
762.972	27.76
763.151	27.33
763.33	28.02
763.508	29.03
763.687	29.1
763.865	29.97
764.044	31.03
764.222	30.48
764.401	31.16
764.579	31.69
764.758	31.87
764.936	32.15
765.114	32.46
765.293	32.64
765.471	32.62
765.65	32.41
765.828	32.41
766.006	32.59
766.184	32.77
766.363	32.09
766.541	32.32
766.719	32.57
766.898	32.82
767.076	32.82
767.254	31.87
767.432	31.08
767.61	29.88
767.788	29.17
767.967	27.55
768.145	26.18
768.323	26.81
768.501	27.07
768.679	26.04
768.857	25
769.035	25.28
769.213	26.9
769.391	26.98
769.569	27.74
769.747	27.52
769.925	29.54
770.103	31.21
770.281	30.04
770.459	29.03
770.636	28.27
770.814	28.66
770.992	26.38
771.17	25.75
771.348	25.1
771.525	25.53
771.703	23.79
771.881	22.53
772.059	22.99
772.236	24.23
772.414	24.97
772.592	24.46
772.769	25.4
772.947	27.63
773.125	28.12
773.302	28.33
773.48	28.5
773.657	30.35
773.835	29.02
774.013	28.08
774.19	27.03
774.368	26.55
774.545	27.77
774.723	27.34
774.9	26.99
775.077	26.04
775.255	26.56
775.432	25.59
775.61	24.41
775.787	24.69
775.964	23.96
776.142	24.76
776.319	25.36
776.496	25.22
776.674	23.8
776.851	24.17
777.028	24.71
777.205	25.73
777.382	26.05
777.56	27.87
777.737	28.79
777.914	32.07
778.091	28.75
778.268	26.87
778.445	25.88
778.622	25.29
778.8	24.04
778.977	23.75
779.154	22.9
779.331	25.42
779.508	22.06
779.685	21.06
779.862	18.48
780.038	19.57
780.215	21.33
780.392	21.42
780.569	22.87
780.746	22.5
780.923	24.92
781.1	25.88
781.277	23.01
781.453	23.38
781.63	22.33
781.807	22.27
781.984	22.63
782.16	19.31
782.337	20.59
782.514	21.2
782.691	24.84
782.867	19.24
783.044	17.43
783.221	18.5
783.397	20.58
783.574	23.2
783.75	21.96
783.927	22.17
784.103	25.61
784.28	25.41
784.456	23.96
784.633	21.51
784.809	24.31
784.986	24.02
785.162	23.82
785.339	23.77
785.515	24.21
785.692	23.82
785.868	25.37
786.044	23.25
786.221	23.32
786.397	22.69
786.573	21.6
786.749	21.93
786.926	21.79
787.102	21.78
787.278	21.28
787.454	19.25
787.631	21.17
787.807	19.95
787.983	21.83
788.159	18.53
788.335	19.34
788.511	21.34
788.687	20.41
788.863	23.17
789.039	21.55
789.216	19.27
789.392	20.95
789.568	20.4
789.744	21.13
789.919	18.13
790.095	19.69
790.271	21.4
790.447	19.89
790.623	21.24
790.799	18.05
790.975	19.62
791.151	21.9
791.327	21.67
791.502	20.41
791.678	18.45
791.854	19.05
792.03	20.88
792.205	20.13
792.381	19.55
792.557	20.29
792.733	22.32
792.908	21.75
793.084	21.07
793.259	20.23
793.435	24.83
793.611	27.6
793.786	27.09
793.962	26.85
794.137	22.15
794.313	24.6
794.488	22.53
794.664	18.28
794.839	17.05
795.015	17.8
795.19	16.17
795.366	13.79
795.541	12.07
795.716	15.27
795.892	14.22
796.067	19.18
796.242	19.77
796.418	17.49
796.593	17.18
796.768	20.6
796.944	21.91
797.119	23.79
797.294	22.99
797.469	24.29
797.644	24.01
797.82	26.13
797.995	23.65
798.17	22.44
798.345	23.17
798.52	24.87
798.695	24
798.87	23.33
799.045	21.62
799.22	21.23
799.395	19.67
799.57	19.8
799.745	17.36
799.92	17.56
800.095	16.7
800.27	14.62
800.445	14.44
800.62	10.58
800.795	12.3
800.97	8.06
801.145	4.51
801.319	4.69
801.494	2.97
801.669	-0.06
801.844	1.71
802.018	3.4
802.193	8.73
802.368	11.68
802.543	15.23
802.717	11.17
802.892	19.33
803.067	21.03
803.241	24.48
803.416	25.16
803.59	25.04
803.765	23.54
803.94	28.11
804.114	24.12
804.289	18.06
804.463	15.09
804.638	14.91
804.812	10.92
804.986	10.9
805.161	6
805.335	5.36
805.51	7.2
805.684	3.35
805.858	-3.65
806.033	-2.33
806.207	1.06
806.381	-2.5
806.556	1.77
806.73	2.71
806.904	4.87
807.078	3.25
807.253	3.13
807.427	4.8
807.601	8.91
807.775	5.36
807.949	3.84
808.123	6.34
808.298	10.57
808.472	10.15
808.646	12.88
808.82	16.93
808.994	16.53
809.168	16.16
809.342	16.94
809.516	19.23
809.69	22.26
809.864	22.91
810.038	24.1
810.212	25.07
810.385	21.24
810.559	19.4
810.733	18.88
810.907	14.96
811.081	16.83
811.255	17.88
811.428	15.99
811.602	14.84
811.776	14.36
811.95	12.93
812.123	8.67
812.297	10.95
812.471	9.14
812.644	4.24
812.818	7.15
812.992	-2.43
813.165	-6.63
813.339	-7.37
813.512	-5.29
813.686	-5.39
813.86	-5.12
814.033	1.47
814.207	2.81
814.38	2.62
814.554	5.56
814.727	9.09
814.9	19.12
815.074	18.41
815.247	19.87
815.421	22.18
815.594	23.73
815.767	21.27
815.941	24.81
816.114	24.62
816.287	27.44
816.46	25.56
816.634	28.15
816.807	23.37
816.98	21.99
817.153	21.57
817.327	18.8
817.5	20.23
817.673	23.55
817.846	18.48
818.019	18.8
818.192	15.06
818.365	16.36
818.538	12.73
818.711	12.81
818.884	15.45
819.057	15.39
819.23	13.48
819.403	10.6
819.576	9.6
819.749	9.44
819.922	11.22
820.095	16.4
820.268	15.08
820.441	18.45
820.614	21.52
820.786	22.89
820.959	23.96
821.132	27.41
821.305	28.52
821.477	30.94
821.65	31.22
821.823	32.08
821.996	32.05
822.168	33.03
822.341	32.46
822.514	31.91
822.686	32.7
822.859	32.81
823.031	32.98
823.204	33.36
823.376	31.76
823.549	32
823.722	31.22
823.894	30.23
824.067	30.07
824.239	29.9
824.411	30.02
824.584	28.9
824.756	28.27
824.929	26.02
825.101	25.67
825.273	26.23
825.446	26.2
825.618	26.43
825.79	28.43
825.963	27.47
826.135	28.93
826.307	28.06
826.479	27.77
826.652	28.17
826.824	29.56
826.996	28.76
827.168	27.94
827.34	26.54
827.512	26
827.684	23.7
827.856	24.91
828.029	25.64
828.201	26.37
828.373	26.17
828.545	25.7
828.717	25.49
828.889	25.02
829.061	25.4
829.232	25.66
829.404	26.17
829.576	25.46
829.748	24.16
829.92	20.29
830.092	17
830.264	13.94
830.436	11.87
830.607	10.09
830.779	8.99
830.951	9.1
831.123	6.74
831.294	4.05
831.466	6.21
831.638	5.56
831.809	2.32
831.981	4.66
832.153	10.87
832.324	10.5
832.496	13.9
832.667	15.76
832.839	15.98
833.011	20.08
833.182	21.34
833.354	19.43
833.525	21.37
833.697	21.42
833.868	22.16
834.039	21.11
834.211	24.2
834.382	24.7
834.554	25.34
834.725	24.01
834.896	22.44
835.068	19.94
835.239	20.74
835.41	18.25
835.581	19.7
835.753	18.64
835.924	15.46
836.095	11.14
836.266	8.09
836.438	5.42
836.609	6.01
836.78	7.81
836.951	10.06
837.122	12.29
837.293	13.64
837.464	10.68
837.635	7.82
837.806	8.23
837.977	5.72
838.148	3.97
838.319	6.04
838.49	6.16
838.661	4.33
838.832	2.88
839.003	-4.01
839.174	-1.32
839.345	3.51
839.516	9.24
839.687	5.09
839.857	18.01
840.028	15.76
840.199	15.75
840.37	13.67
840.54	9.75
840.711	4.8
840.882	4.2
841.053	-3.7
841.223	-1.52
841.394	-7.49
841.564	-1.81
841.735	-6.15
841.906	-5.51
842.076	-20.03
842.247	-27.2
842.417	-29.96
842.588	-24.85
842.758	-37.52
842.929	-39.28
843.099	-40.31
843.27	-32.27
843.44	-36.05
843.611	-47.14
843.781	-47.14
843.951	-36.4
844.122	-23.4
844.292	-19.42
844.462	-19.32
844.633	-11.51
844.803	-7.8
844.973	-9.15
845.144	-8.65
845.314	-9.61
845.484	-11.51
845.654	-10.66
845.824	-10.03
845.995	-24.27
846.165	-23.02
846.335	-26.54
846.505	-21.41
846.675	-17.61
846.845	-19.92
847.015	-37.94
847.185	-27.18
847.355	-7.9
847.525	-18.73
847.695	-12.03
847.865	-18.1
848.035	-23.71
848.205	-3.62
848.375	1.09
848.545	-7.76
848.715	-5.12
848.884	7.37
849.054	6.97
849.224	-3.79
849.394	-6.84
849.564	-4.9
849.733	6.45
849.903	14.13
850.073	10.64
850.243	5.69
850.412	9.76
850.582	5.62
850.752	4.18
850.921	-4.85
851.091	-17.6
851.26	-20.76
851.43	-30.59
851.599	-30.52
851.769	-56.54
851.939	-94.01
852.108	-124.83
852.278	-134.65
852.447	-133.06
852.616	-123.57
852.786	-101.99
852.955	-65.03
853.125	-66.98
853.294	-63.47
853.463	-112.88
853.633	-128.33
853.802	-58.8
853.971	-52.37
854.141	-51.95
854.31	-42.77
854.479	-60.16
854.648	-48.91
854.818	-44.91
854.987	-43.32
855.156	-44.75
855.325	-31.74
855.494	-27.94
855.663	-51.69
855.832	-63.32
856.001	-58.94
856.171	-73.41
856.34	-52.21
856.509	-52.54
856.678	-33.66
856.847	-24.7
857.016	-27.11
857.185	-23.43
857.353	-24.08
857.522	-31.42
857.691	-13.66
857.86	-19.93
858.029	-24.97
858.198	-21.27
858.367	-19.04
858.535	-31.2
858.704	-25.82
858.873	-30.68
859.042	-21.42
859.21	-15.01
859.379	-9.74
859.548	-29.21
859.717	-13.15
859.885	-36
860.054	-81.78
860.222	-162.44
860.391	-288.64
860.56	-233.8
860.728	-201.76
860.897	-349.99
861.065	-535.93
861.234	-193.09
861.402	-208.55
861.571	-192.09
861.739	-123.82
861.908	-106.35
862.076	-124.59
862.244	-84.37
862.413	-104.81
862.581	-84.41
862.749	-80.57
862.918	-64.26
863.086	-98.56
863.254	-66.89
863.423	-95.04
863.591	-125.98
863.759	-74.34
863.927	-81.52
864.096	-88.62
864.264	-77.95
864.432	-109.28
864.6	-180.28
864.768	-172.78
864.936	-104.37
865.104	-116.62
865.272	-84.42
865.44	-49.73
865.608	-61.91
865.776	-34.27
865.944	-15.35
866.112	-1.22
866.28	-0.04
866.448	13.28
866.616	14.77
866.784	7.75
866.952	-0.1
867.12	-6.23
867.288	-20.72
867.455	-45.39
867.623	-73.88
867.791	-119.43
867.959	-109.49
868.127	-84.64
868.294	-138.91
868.462	-165.82
868.63	-216.84
868.797	-163.41
868.965	-242.32
869.133	-369.96
869.3	-144.54
869.468	-77.01
869.636	-69.76
869.803	-108.33
869.971	-131.28
870.138	-92.3
870.306	-70.96
870.473	-43.38
870.641	-55.05
870.808	-55.3
870.975	-47.41
871.143	-39.12
871.31	-38.69
871.478	-34.24
871.645	-31.55
871.812	-25.69
871.98	-5.11
872.147	-3.27
872.314	-12.72
872.482	-26.36
872.649	2.8
872.816	-9.89
872.983	-36.04
873.15	-45.24
873.318	-38.11
873.485	-40.38
873.652	-34.96
873.819	-37.02
873.986	-33.48
874.153	-53.94
874.32	-41.6
874.487	-58.75
874.654	-54.22
874.821	-42.44
874.988	-43.31
875.155	-34.09
875.322	-22.46
875.489	-35.04
875.656	-37.87
875.823	-51.7
875.99	-45.2
876.157	-45.77
876.324	-46.65
876.49	-44.38
876.657	-52.6
876.824	-51.99
876.991	-74.66
877.157	-90.41
877.324	-107.95
877.491	-125.86
877.658	-104.43
877.824	-111.01
877.991	-133.19
878.157	-140.69
878.324	-195.57
878.491	-234.49
878.657	-221.77
878.824	-185.92
878.99	-156.3
879.157	-133.63
879.323	-224.95
879.49	-221.24
879.656	-154.91
879.823	-113.41
879.989	-90.59
880.156	-54.24
880.322	-40.9
880.488	-55.09
880.655	-34.9
880.821	-41.76
880.987	-33.61
881.154	-25.4
881.32	-25.29
881.486	-21.68
881.652	-17.33
881.819	-9.35
881.985	-11.76
882.151	-11.36
882.317	-3.28
882.483	1.45
882.649	2.48
882.816	5
882.982	10.19
883.148	12.71
883.314	12.1
883.48	13.14
883.646	10.55
883.812	13.27
883.978	16.05
884.144	16.77
884.31	14.47
884.476	17.1
884.642	16.66
884.807	17.04
884.973	15.24
885.139	17
885.305	12.23
885.471	16.12
885.637	16.32
885.802	16.68
885.968	17.75
886.134	16.85
886.3	12.99
886.465	15.91
886.631	14.15
886.797	16.18
886.962	10
887.128	12.94
887.293	-3.11
887.459	-13.88
887.625	-22.26
887.79	-38.67
887.956	-27.81
888.121	-23.67
888.287	-37.63
888.452	-51.61
888.618	-58.82
888.783	-63.17
