Data from 2938021_Reflection_3.txt Node
Date: Sun Jul 12 15:27:54 EDT 2015
User: robert
Spectrometer: USB4E03001
Autoset integration time: false
Trigger mode: 4
Integration Time (sec): 1.000000E-1
Scans to average: 10
Electric dark correction enabled: true
Nonlinearity correction enabled: false
Boxcar width: 5
Stray light correction enabled: false
XAxis mode: Wavelengths
Stop averaging: false
Number of Pixels in Spectrum: 3648
>>>>>Begin Spectral Data<<<<<
177.566	27.4
177.785	32.97
178.005	-82.54
178.225	523.79
178.445	-87.05
178.665	9.01
178.885	-39
179.105	-36.38
179.324	-84.46
179.544	8.84
179.764	232.16
179.984	323.71
180.204	-5102.6
180.423	474.74
180.643	-100.38
180.863	371.36
181.083	3384.75
181.302	-114.9
181.522	-193.1
181.742	2139.02
181.961	322.71
182.181	493.57
182.401	57.93
182.621	-1093.81
182.84	724.49
183.06	94.65
183.279	144
183.499	181.31
183.719	144.03
183.938	236.34
184.158	80.59
184.377	659.05
184.597	53.59
184.816	95.34
185.036	51.4
185.256	116.9
185.475	95.91
185.695	-118.71
185.914	-5.88
186.134	15.55
186.353	25.2
186.572	1892.5
186.792	146.49
187.011	1385.82
187.231	-1879.23
187.45	175.67
187.67	184.7
187.889	214.93
188.108	248.59
188.328	243.88
188.547	372.6
188.766	-506.11
188.986	-343.08
189.205	-219.1
189.424	-574.19
189.644	-870.62
189.863	-571.22
190.082	2145.27
190.302	14428.3
190.521	-5726.36
190.74	8227.17
190.959	502.12
191.178	210.88
191.398	143.73
191.617	149.26
191.836	132.12
192.055	166.21
192.274	-238.57
192.494	223.53
192.713	137.09
192.932	202.89
193.151	137.19
193.37	106.49
193.589	125.72
193.808	134.78
194.027	158.5
194.246	134.41
194.465	188.01
194.685	187.18
194.904	129.58
195.123	112.37
195.342	108.79
195.561	144.26
195.78	160.33
195.999	121.23
196.218	92.24
196.436	70.65
196.655	48.7
196.874	55.28
197.093	17.15
197.312	-24.06
197.531	-165.19
197.75	-113.21
197.969	-113.9
198.188	298.96
198.407	156.16
198.625	65.69
198.844	71.24
199.063	42.89
199.282	84.82
199.501	115.28
199.719	108.53
199.938	133.01
200.157	162.12
200.376	423.44
200.594	-323.31
200.813	-552.3
201.032	-390.33
201.251	-578.4
201.469	-792.54
201.688	7486.11
201.907	-490.08
202.125	-759.34
202.344	-4195.83
202.563	-1019.08
202.781	-357.67
203	2684.66
203.218	-3737.4
203.437	-389.48
203.656	-274.7
203.874	-471.45
204.093	-108.09
204.311	17.82
204.53	-3.62
204.748	28.79
204.967	-28.37
205.185	-7.43
205.404	30.75
205.622	122.48
205.841	-151.31
206.059	826.69
206.278	182.29
206.496	286.47
206.715	41.15
206.933	-32.56
207.151	62.87
207.37	-104.01
207.588	67.5
207.806	198.16
208.025	1903.48
208.243	-126.74
208.461	615.25
208.68	296.81
208.898	-1059.52
209.116	-1004.45
209.335	-148.84
209.553	-417.29
209.771	-190.58
209.989	-88.2
210.208	-102.27
210.426	-273.09
210.644	1542.08
210.862	-2048.93
211.081	-699.65
211.299	-485.6
211.517	-373.13
211.735	-928.8
211.953	-726.65
212.171	-15872
212.39	444.44
212.608	-213.19
212.826	-77.7
213.044	-36.54
213.262	-7.77
213.48	-5.17
213.698	-24.65
213.916	-62.31
214.134	-45.71
214.352	-34.04
214.57	-28.28
214.788	2.3
215.006	0.94
215.224	-33.32
215.442	-14.24
215.66	-42.3
215.878	4.35
216.096	22.17
216.314	43.69
216.532	25.22
216.75	53.7
216.968	31.88
217.185	22.62
217.403	33.04
217.621	25.4
217.839	13.27
218.057	-19.92
218.275	-98.39
218.492	-506.74
218.71	604.26
218.928	-1840.12
219.146	-357.11
219.363	-289.4
219.581	-602.96
219.799	-333.7
220.017	-356.25
220.234	-758.61
220.452	-633.38
220.67	-275.36
220.887	-98.81
221.105	-90.35
221.323	-87.61
221.54	-126.69
221.758	-112.17
221.976	-147.61
222.193	-189.1
222.411	-61.36
222.629	-60.81
222.846	-85.01
223.064	-94.03
223.281	-182.78
223.499	-164.44
223.716	-154.06
223.934	-118.31
224.151	-149.3
224.369	-116.73
224.586	-89.34
224.804	-105.56
225.021	-79.34
225.239	-71.58
225.456	-48.11
225.674	-26
225.891	-7.54
226.108	-11.19
226.326	-24.6
226.543	-8.31
226.76	-12.2
226.978	-3.61
227.195	-9.95
227.413	-7.45
227.63	-4.49
227.847	-6.3
228.064	-1.79
228.282	-3.34
228.499	2.76
228.716	4.84
228.934	1.96
229.151	-1.57
229.368	-6.33
229.585	-8.72
229.802	-10.66
230.02	-9.67
230.237	-9.98
230.454	-11.47
230.671	-11.38
230.888	-13.32
231.105	-12.44
231.323	-16.61
231.54	-12.87
231.757	-9.72
231.974	-3.61
232.191	-3.2
232.408	-2.13
232.625	-2.79
232.842	-5.05
233.059	-9.06
233.276	-13.96
233.493	-15.26
233.71	-16.49
233.927	-16.33
234.144	-15.02
234.361	-15.47
234.578	-14.33
234.795	-15.06
235.012	-6.55
235.229	-7.29
235.446	0.72
235.663	-1.23
235.879	-0.36
236.096	4.11
236.313	-0.8
236.53	-3.71
236.747	-2.22
236.964	-0.86
237.181	-9.12
237.397	-18.19
237.614	-14.73
237.831	-20.55
238.048	-21.49
238.264	-19.09
238.481	-13.26
238.698	-7.19
238.915	-4.63
239.131	-3.41
239.348	-6.7
239.565	-7.22
239.781	-1.88
239.998	-4.41
240.215	-3.74
240.431	-1.97
240.648	-6.19
240.865	-12.21
241.081	-11.94
241.298	-12.07
241.514	-12.01
241.731	-6.69
241.947	-5
242.164	-5.55
242.38	-4.96
242.597	-4.47
242.814	-5.32
243.03	-7.42
243.246	-6.35
243.463	-7.19
243.679	-7.76
243.896	-8.92
244.112	-11.64
244.329	-15.07
244.545	-16.36
244.762	-15.68
244.978	-15.1
245.194	-15.76
245.411	-11.29
245.627	-9.81
245.843	-7.54
246.06	-5.2
246.276	-3.97
246.492	-3.48
246.709	-0.39
246.925	-2.1
247.141	-2.1
247.357	-2.36
247.574	-1.06
247.79	-1.55
248.006	-2
248.222	-1.81
248.439	-3.06
248.655	-2.61
248.871	-3.12
249.087	-4.59
249.303	-3.48
249.519	-4.77
249.736	-6.68
249.952	-9.02
250.168	-6.54
250.384	-6.14
250.6	-5.67
250.816	-2.58
251.032	-3.32
251.248	-3.63
251.464	-2.06
251.68	-3.54
251.896	-2.33
252.112	-1.42
252.328	-0.32
252.544	-1.23
252.76	-1.23
252.976	-2.56
253.192	-6.08
253.408	-6.14
253.624	-6.44
253.84	-8.13
254.056	-7.26
254.272	-6.81
254.487	-5.93
254.703	-6.41
254.919	-8.02
255.135	-9.92
255.351	-9.5
255.567	-3.74
255.782	-7.39
255.998	-6.73
256.214	-4.84
256.43	-4.14
256.646	-2.04
256.861	-0.22
257.077	-0.33
257.293	1.46
257.508	2.46
257.724	2.78
257.94	1.75
258.155	4.76
258.371	4.61
258.587	4.5
258.802	2.88
259.018	0.38
259.234	-0.01
259.449	-0.86
259.665	-1.24
259.88	-1.43
260.096	-2.07
260.312	-2.15
260.527	-2.78
260.743	-3.28
260.958	-3.94
261.174	-3.26
261.389	-2.56
261.605	-3.3
261.82	-2.47
262.036	-2.46
262.251	-2.82
262.466	-2.36
262.682	-2.73
262.897	-2.29
263.113	-1.61
263.328	-2.43
263.543	-3.47
263.759	-5.41
263.974	-4.75
264.189	-4.7
264.405	-5.54
264.62	-4.7
264.835	-5.12
265.051	-6.83
265.266	-7.58
265.481	-7.06
265.696	-7.04
265.912	-8.22
266.127	-6.13
266.342	-6.29
266.557	-6.49
266.773	-4.53
266.988	-5.16
267.203	-5.32
267.418	-3.64
267.633	-4.35
267.848	-3.95
268.064	-2.32
268.279	-1.56
268.494	-1.67
268.709	-1.64
268.924	-2.44
269.139	-4.17
269.354	-4.64
269.569	-2.97
269.784	-3.26
269.999	-4.29
270.214	-4.23
270.429	-5
270.644	-4.4
270.859	-6.8
271.074	-6.23
271.289	-6.3
271.504	-5.44
271.719	-3.86
271.934	-4.92
272.149	-5.36
272.363	-4.71
272.578	-5.56
272.793	-5.58
273.008	-5.41
273.223	-3.33
273.438	-3.45
273.653	-3.02
273.867	-2.84
274.082	-3.32
274.297	-4.68
274.512	-4.66
274.726	-4.88
274.941	-3.45
275.156	-5.63
275.371	-6.88
275.585	-7.24
275.8	-7.49
276.015	-6.69
276.229	-6.72
276.444	-5.96
276.659	-3.59
276.873	-3.95
277.088	-3.79
277.302	-3.73
277.517	-0.57
277.732	0.07
277.946	0.54
278.161	1.96
278.375	2.39
278.59	2.23
278.804	0.28
279.019	0.18
279.233	0.54
279.448	1.01
279.662	-0.19
279.877	-1.18
280.091	-0.74
280.306	-1.58
280.52	-1.74
280.735	-2.27
280.949	-3.25
281.163	-1.62
281.378	-1.02
281.592	-1.16
281.806	-1.51
282.021	-2.49
282.235	-4.67
282.449	-3.57
282.664	-3.24
282.878	-4.3
283.092	-4.05
283.307	-3.13
283.521	-3.75
283.735	-3.95
283.949	-2.62
284.164	-2.31
284.378	-1.47
284.592	0.79
284.806	-0.45
285.02	-1.69
285.234	-1.95
285.449	-2.1
285.663	-2.48
285.877	-1.83
286.091	-0.94
286.305	-0.23
286.519	0.89
286.733	1.95
286.947	1.48
287.161	1.02
287.375	2.13
287.589	2.1
287.803	2.5
288.017	2.46
288.231	1.59
288.445	1.23
288.659	0.58
288.873	-0.68
289.087	-3.13
289.301	-2.88
289.515	-1.97
289.729	-1.95
289.943	-2.68
290.157	-3.2
290.371	-2.43
290.584	-2.99
290.798	-3.73
291.012	-4.96
291.226	-4.9
291.44	-3.91
291.654	-3.21
291.867	-2.56
292.081	-2.02
292.295	-1.14
292.509	-0.6
292.722	-1.05
292.936	0.67
293.15	0.2
293.364	0.84
293.577	0.5
293.791	1.2
294.005	1.86
294.218	1.06
294.432	0.12
294.645	1.65
294.859	1.44
295.073	1.79
295.286	1.04
295.5	0.8
295.713	-0.12
295.927	-0.08
296.14	-0.71
296.354	-1.49
296.568	-1.7
296.781	-2.13
296.994	-3.07
297.208	-3.19
297.421	-3.84
297.635	-3.47
297.848	-2.52
298.062	-2.35
298.275	-2.3
298.489	-2.4
298.702	-1.76
298.915	-1.78
299.129	-0.78
299.342	0.15
299.555	0.31
299.769	1.22
299.982	2.15
300.195	0.77
300.409	1.46
300.622	0.26
300.835	-0.01
301.048	-1.42
301.262	0.09
301.475	-0.72
301.688	-1.38
301.901	-0.58
302.115	-1.26
302.328	-1.78
302.541	-2.08
302.754	-2.12
302.967	-0.67
303.18	-0.24
303.393	0.03
303.607	-0.61
303.82	0.84
304.033	-0.87
304.246	-2.42
304.459	-2.47
304.672	-1.94
304.885	-0.67
305.098	-1.57
305.311	-2.23
305.524	-1.92
305.737	0.12
305.95	-1.26
306.163	-2.72
306.376	-0.78
306.589	-0.31
306.802	1.42
307.015	0.38
307.228	0.69
307.44	0.95
307.653	2.4
307.866	1.45
308.079	0.36
308.292	1.44
308.505	1.32
308.718	1.7
308.93	1.72
309.143	0.55
309.356	-0.25
309.569	-2.3
309.781	-1.35
309.994	-1.6
310.207	-2.03
310.42	-3.1
310.632	-1.31
310.845	0.52
311.058	-0.67
311.27	0.02
311.483	0.06
311.696	0.97
311.908	2.72
312.121	2.4
312.333	2.46
312.546	4.51
312.759	3.99
312.971	0.83
313.184	0.45
313.396	0.84
313.609	0.26
313.821	0.17
314.034	0.38
314.246	-1.6
314.459	-2.14
314.671	-3.06
314.884	-5.09
315.096	-3.47
315.309	-1.06
315.521	-2.32
315.733	-0.59
315.946	-1.33
316.158	-1.6
316.371	-1.79
316.583	1.15
316.795	1.14
317.008	1.78
317.22	1.17
317.432	1.14
317.644	1.24
317.857	1.28
318.069	-0.91
318.281	-0.66
318.494	-0.07
318.706	-1.55
318.918	-2.73
319.13	-2.35
319.342	-1.64
319.555	-0.17
319.767	-0.05
319.979	-1.35
320.191	-1.43
320.403	0.72
320.615	1.92
320.827	1.95
321.039	3.58
321.252	3.18
321.464	3.36
321.676	4.1
321.888	5.72
322.1	6.51
322.312	7.05
322.524	6.47
322.736	6.31
322.948	6.71
323.16	6.89
323.372	6.41
323.584	6.43
323.796	6.18
324.007	5.18
324.219	3.67
324.431	2.64
324.643	2.02
324.855	1.88
325.067	0.4
325.279	-0.61
325.491	-0.77
325.702	1.13
325.914	1.05
326.126	0.85
326.338	0.6
326.55	0.67
326.761	-0.65
326.973	-0.33
327.185	0.86
327.396	1.61
327.608	2.26
327.82	2.14
328.032	-0.73
328.243	-0.84
328.455	0.37
328.666	0.77
328.878	1.61
329.09	2.49
329.301	2.26
329.513	1.06
329.725	0.92
329.936	-0.01
330.148	-0.1
330.359	0.31
330.571	-0.74
330.782	-0.76
330.994	-0.85
331.205	-1.22
331.417	-1.87
331.628	-1.39
331.84	0.44
332.051	-0.21
332.262	0.5
332.474	0.81
332.685	2.22
332.897	2.31
333.108	0.74
333.319	-0.53
333.531	0.02
333.742	0.23
333.953	1.62
334.165	0.76
334.376	0.89
334.587	0.7
334.799	0.51
335.01	-0.27
335.221	1
335.432	1.66
335.644	1.58
335.855	0.49
336.066	1.06
336.277	0.65
336.488	0.54
336.7	0.27
336.911	0.39
337.122	0.55
337.333	0.85
337.544	0.07
337.755	0.17
337.966	2.11
338.177	3.18
338.388	3.69
338.599	2.78
338.811	2.3
339.022	3.13
339.233	2.28
339.444	1.45
339.655	0.46
339.866	2.57
340.076	2.91
340.287	3.69
340.498	3.93
340.709	4.16
340.92	5.29
341.131	5.74
341.342	5.22
341.553	6.61
341.764	8.33
341.975	9.59
342.185	8.32
342.396	8.19
342.607	7.73
342.818	8.1
343.029	7.4
343.239	6.49
343.45	7.03
343.661	8.27
343.872	8.11
344.082	7.68
344.293	6.83
344.504	7.6
344.714	8.33
344.925	8.73
345.136	7.92
345.346	8.23
345.557	8.5
345.768	8.29
345.978	6.61
346.189	6.87
346.399	7.01
346.61	8.27
346.821	7.32
347.031	6.13
347.242	6.15
347.452	6.36
347.663	6.55
347.873	7.46
348.084	8.24
348.294	9.14
348.504	9.24
348.715	8.83
348.925	8.57
349.136	9.29
349.346	10.08
349.557	8.56
349.767	10.04
349.977	9.57
350.188	9.35
350.398	8.59
350.608	9.45
350.819	9.64
351.029	9.62
351.239	8.97
351.449	8.82
351.66	8.54
351.87	8.23
352.08	7.14
352.29	8.7
352.501	8.17
352.711	8.23
352.921	8.64
353.131	8.48
353.341	8.48
353.552	9.09
353.762	9.27
353.972	9.23
354.182	11.17
354.392	11.93
354.602	11.3
354.812	10.95
355.022	11.24
355.232	9.99
355.442	10
355.652	9.57
355.862	9.36
356.072	8.63
356.282	8.83
356.492	8.12
356.702	8.24
356.912	8.43
357.122	8.35
357.332	9.04
357.542	10.55
357.752	10.86
357.962	10.98
358.171	11.55
358.381	12.86
358.591	13.11
358.801	13.45
359.011	12.89
359.221	12.58
359.43	12.98
359.64	12.69
359.85	11.96
360.06	12.1
360.269	12.27
360.479	11.73
360.689	11.47
360.899	11.69
361.108	11.6
361.318	12.02
361.528	12.48
361.737	12.56
361.947	12.03
362.156	12.24
362.366	12
362.576	12.23
362.785	12.73
362.995	12.83
363.204	12.89
363.414	13.01
363.623	13.52
363.833	12.81
364.042	13.61
364.252	14.23
364.461	14.43
364.671	14.07
364.88	13.38
365.09	12.52
365.299	13.29
365.509	12.46
365.718	12.54
365.927	11.55
366.137	12.27
366.346	11.59
366.555	11.66
366.765	11.87
366.974	12.13
367.183	12.95
367.393	13.52
367.602	12.79
367.811	14.3
368.021	13.13
368.23	12.73
368.439	12.39
368.648	12.21
368.857	11.98
369.067	11.39
369.276	11.75
369.485	12.55
369.694	12.5
369.903	12.22
370.112	11.73
370.321	13.44
370.531	14.23
370.74	14.46
370.949	15.29
371.158	15.99
371.367	16.53
371.576	16.41
371.785	15.47
371.994	15.87
372.203	15.61
372.412	15.75
372.621	15.15
372.83	15.34
373.039	15.68
373.248	15.64
373.457	15.02
373.666	14.51
373.874	14.4
374.083	14.85
374.292	14.66
374.501	15.5
374.71	15.37
374.919	15.57
375.128	15.92
375.336	15.88
375.545	14.89
375.754	15.87
375.963	16.66
376.171	16.41
376.38	16.43
376.589	16.99
376.798	16.82
377.006	16.53
377.215	16.87
377.424	16.53
377.632	16.84
377.841	16.97
378.05	16.67
378.258	16.32
378.467	16.56
378.675	16.61
378.884	16.42
379.093	16.76
379.301	17.49
379.51	17.22
379.718	17.07
379.927	16.53
380.135	17.11
380.344	17.31
380.552	17.48
380.761	17.72
380.969	17.35
381.177	16.94
381.386	17.02
381.594	16.25
381.803	16.38
382.011	17.08
382.219	17.54
382.428	17.33
382.636	17.07
382.845	17.06
383.053	16.98
383.261	17.86
383.469	18.6
383.678	18.55
383.886	18.48
384.094	18.96
384.302	18.39
384.511	18.42
384.719	19.13
384.927	19.22
385.135	19.27
385.343	19.44
385.552	19
385.76	18.51
385.968	17.84
386.176	18.42
386.384	18.43
386.592	18.85
386.8	19.05
387.008	18.98
387.216	19.17
387.424	19.37
387.633	19.75
387.841	20.01
388.049	20.93
388.257	21.83
388.465	22.25
388.672	22.28
388.88	22.62
389.088	22.17
389.296	22.36
389.504	22.1
389.712	22.16
389.92	22.4
390.128	22.76
390.336	22.01
390.544	22.2
390.751	22.16
390.959	22.15
391.167	22
391.375	22.77
391.583	22.44
391.79	23.17
391.998	23.01
392.206	23.08
392.414	22.94
392.621	23.71
392.829	23.8
393.037	24.1
393.244	24.18
393.452	24.25
393.66	24.46
393.867	24.79
394.075	24.57
394.283	24.99
394.49	25.12
394.698	25.43
394.905	25.31
395.113	25.33
395.32	25.15
395.528	25.62
395.735	25.86
395.943	25.99
396.15	26.19
396.358	26.03
396.565	26.11
396.773	25.88
396.98	26
397.188	26.34
397.395	26.63
397.602	26.73
397.81	26.25
398.017	26.16
398.225	26.26
398.432	26.42
398.639	27.02
398.847	27.32
399.054	27.34
399.261	27.58
399.468	27.48
399.676	27.46
399.883	27.56
400.09	28.13
400.297	28.59
400.505	28.37
400.712	28.8
400.919	29.25
401.126	29.24
401.333	29.72
401.54	29.58
401.748	29.75
401.955	29.98
402.162	30.49
402.369	30.4
402.576	30.36
402.783	30.58
402.99	30.47
403.197	30.16
403.404	30.1
403.611	30.14
403.818	30.3
404.025	30.17
404.232	30.39
404.439	30.29
404.646	30.07
404.853	30.12
405.06	30.14
405.267	30.03
405.474	29.68
405.681	29.94
405.887	29.97
406.094	29.88
406.301	30.05
406.508	29.68
406.715	29.52
406.922	30
407.128	30.02
407.335	29.77
407.542	29.82
407.749	30.44
407.955	30.5
408.162	30.26
408.369	30.66
408.575	30.42
408.782	30.79
408.989	30.92
409.195	30.88
409.402	30.84
409.609	31.3
409.815	31.43
410.022	31.18
410.228	31.03
410.435	31.27
410.642	30.88
410.848	31.14
411.055	30.95
411.261	31.12
411.468	30.86
411.674	30.84
411.881	30.76
412.087	30.78
412.294	30.8
412.5	30.79
412.706	30.95
412.913	31.23
413.119	31.16
413.326	31.47
413.532	31.43
413.738	31.8
413.945	32.26
414.151	32.38
414.357	32.47
414.564	32.52
414.77	32.59
414.976	32.28
415.182	32.18
415.389	32.06
415.595	31.99
415.801	32.13
416.007	31.89
416.214	31.53
416.42	31.53
416.626	31.63
416.832	31.54
417.038	31.56
417.244	31.79
417.45	31.74
417.657	31.95
417.863	31.83
418.069	31.67
418.275	31.72
418.481	31.74
418.687	31.58
418.893	31.36
419.099	31.35
419.305	31.35
419.511	31.18
419.717	31.11
419.923	30.92
420.129	30.9
420.335	31.01
420.541	30.82
420.746	30.9
420.952	30.85
421.158	30.96
421.364	31.02
421.57	30.96
421.776	30.94
421.982	30.88
422.187	30.96
422.393	31.06
422.599	30.83
422.805	30.92
423.01	30.92
423.216	30.9
423.422	30.67
423.628	30.58
423.833	30.59
424.039	30.5
424.245	30.61
424.45	30.71
424.656	30.49
424.862	30.53
425.067	30.49
425.273	30.25
425.478	30.41
425.684	30.62
425.889	30.63
426.095	30.64
426.301	30.81
426.506	30.84
426.712	30.83
426.917	30.83
427.123	30.83
427.328	30.91
427.533	30.93
427.739	30.54
427.944	30.4
428.15	30.44
428.355	30.29
428.561	30.19
428.766	29.96
428.971	29.86
429.177	29.95
429.382	30.03
429.587	30.05
429.793	30.07
429.998	30.12
430.203	30.16
430.408	30.07
430.614	30.25
430.819	30.38
431.024	30.53
431.229	30.47
431.434	30.35
431.64	30.19
431.845	30.13
432.05	30.36
432.255	30.37
432.46	30.26
432.665	30.27
432.87	29.99
433.076	29.98
433.281	29.99
433.486	29.84
433.691	29.83
433.896	29.88
434.101	29.89
434.306	29.66
434.511	29.79
434.716	29.97
434.921	29.95
435.126	30.08
435.331	30.02
435.535	29.89
435.74	29.95
435.945	30.06
436.15	30.16
436.355	30.25
436.56	30.27
436.765	30.28
436.97	30.22
437.174	30.33
437.379	30.49
437.584	30.51
437.789	30.47
437.993	30.58
438.198	30.73
438.403	30.73
438.608	30.69
438.812	30.91
439.017	30.83
439.222	30.87
439.426	30.61
439.631	30.62
439.836	30.64
440.04	30.86
440.245	30.75
440.45	30.54
440.654	30.45
440.859	30.34
441.063	30.25
441.268	30.31
441.472	30.07
441.677	30.16
441.881	30.02
442.086	29.98
442.29	29.87
442.495	29.88
442.699	29.93
442.904	30.08
443.108	30.14
443.312	30.06
443.517	29.83
443.721	29.92
443.925	29.98
444.13	30.01
444.334	29.89
444.538	29.66
444.743	29.74
444.947	29.72
445.151	29.71
445.356	29.63
445.56	29.52
445.764	29.6
445.968	29.56
446.173	29.56
446.377	29.59
446.581	29.58
446.785	29.82
446.989	29.78
447.193	29.78
447.398	29.67
447.602	29.73
447.806	29.86
448.01	29.84
448.214	30.02
448.418	30.05
448.622	30.08
448.826	30.17
449.03	30.05
449.234	30.09
449.438	30.04
449.642	30.01
449.846	30.1
450.05	29.9
450.254	29.81
450.458	29.76
450.662	29.72
450.866	29.58
451.069	29.38
451.273	29.37
451.477	29.29
451.681	29.34
451.885	29.26
452.089	29.06
452.292	29.19
452.496	29.39
452.7	29.19
452.904	29.15
453.107	29.27
453.311	29.4
453.515	29.23
453.719	29.16
453.922	29.11
454.126	29.16
454.33	29.25
454.533	29.27
454.737	29.32
454.94	29.17
455.144	29.19
455.348	28.88
455.551	28.97
455.755	29.12
455.958	29.32
456.162	29.27
456.365	29.25
456.569	29.32
456.772	29.37
456.976	29.08
457.179	29.28
457.383	29.18
457.586	29.25
457.79	29.27
457.993	29.35
458.196	29.26
458.4	29.13
458.603	29.2
458.807	29.09
459.01	29.04
459.213	29.3
459.417	29.26
459.62	29.25
459.823	29.28
460.026	29.18
460.23	29.16
460.433	29.1
460.636	29.32
460.839	29.32
461.042	29.35
461.246	29.53
461.449	29.45
461.652	29.61
461.855	29.63
462.058	29.71
462.261	29.73
462.464	29.79
462.668	29.88
462.871	29.76
463.074	29.84
463.277	29.8
463.48	29.87
463.683	30.01
463.886	29.77
464.089	29.99
464.292	30.16
464.495	30.41
464.698	30.19
464.901	30.22
465.104	30.29
465.306	30.1
465.509	30.19
465.712	30.03
465.915	29.85
466.118	30.18
466.321	29.89
466.524	30.01
466.726	29.94
466.929	30.16
467.132	30.22
467.335	30.23
467.538	30.37
467.74	30.42
467.943	30.56
468.146	30.8
468.348	30.54
468.551	30.65
468.754	30.42
468.956	30.39
469.159	30.31
469.362	30.2
469.564	30.27
469.767	30.24
469.969	30.2
470.172	30.09
470.375	30.02
470.577	30.25
470.78	30.39
470.982	30.44
471.185	30.59
471.387	30.67
471.59	30.58
471.792	30.49
471.995	30.56
472.197	30.73
472.399	30.63
472.602	30.56
472.804	30.6
473.007	30.62
473.209	30.79
473.411	30.56
473.614	30.64
473.816	30.9
474.018	31.08
474.22	31.14
474.423	31.05
474.625	30.96
474.827	31.18
475.03	31.13
475.232	31.12
475.434	30.77
475.636	30.78
475.838	30.78
476.04	30.81
476.243	30.71
476.445	30.78
476.647	30.68
476.849	30.81
477.051	30.58
477.253	30.66
477.455	30.75
477.657	31.02
477.859	31.17
478.061	31.11
478.263	31.13
478.465	31.14
478.667	31.17
478.869	31.17
479.071	31.13
479.273	31.18
479.475	31.06
479.677	31.05
479.879	30.94
480.081	31.05
480.283	31.08
480.485	30.95
480.686	30.94
480.888	30.9
481.09	30.91
481.292	31.14
481.494	31.01
481.695	31.01
481.897	30.99
482.099	31
482.301	30.96
482.502	30.86
482.704	30.79
482.906	30.78
483.107	30.8
483.309	30.75
483.511	30.69
483.712	30.79
483.914	30.75
484.115	30.68
484.317	30.7
484.519	30.61
484.72	30.64
484.922	30.66
485.123	30.64
485.325	30.6
485.526	30.65
485.728	30.63
485.929	30.57
486.131	30.57
486.332	30.63
486.534	30.59
486.735	30.65
486.936	30.69
487.138	30.68
487.339	30.73
487.541	30.67
487.742	30.63
487.943	30.57
488.144	30.62
488.346	30.6
488.547	30.63
488.748	30.6
488.95	30.58
489.151	30.58
489.352	30.54
489.553	30.53
489.755	30.54
489.956	30.58
490.157	30.68
490.358	30.7
490.559	30.73
490.76	30.65
490.961	30.71
491.163	30.73
491.364	30.79
491.565	30.93
491.766	30.94
491.967	31.05
492.168	31.08
492.369	31.05
492.57	30.98
492.771	31.02
492.972	31.1
493.173	31.04
493.374	31.01
493.575	30.8
493.776	30.76
493.976	30.72
494.177	30.6
494.378	30.46
494.579	30.53
494.78	30.32
494.981	30.31
495.182	30.19
495.382	30.33
495.583	30.29
495.784	30.48
495.985	30.39
496.185	30.19
496.386	30.3
496.587	30.25
496.788	30.23
496.988	30.38
497.189	30.35
497.39	30.35
497.59	30.27
497.791	30.27
497.992	30.32
498.192	30.17
498.393	30.25
498.593	30.2
498.794	30.25
498.994	30.08
499.195	30.08
499.395	30.24
499.596	30.35
499.796	30.35
499.997	30.38
500.197	30.39
500.398	30.72
500.598	30.77
500.799	30.77
500.999	30.86
501.199	31.08
501.4	31.04
501.6	31.09
501.801	31.06
502.001	31.18
502.201	31.25
502.402	31.14
502.602	30.97
502.802	31.01
503.002	30.92
503.203	30.96
503.403	30.85
503.603	30.98
503.803	30.76
504.003	30.71
504.204	30.68
504.404	30.76
504.604	30.68
504.804	30.68
505.004	30.65
505.204	30.76
505.404	30.81
505.604	30.76
505.804	30.7
506.005	30.7
506.205	30.76
506.405	30.8
506.605	30.75
506.805	30.79
507.005	30.68
507.204	30.52
507.404	30.59
507.604	30.53
507.804	30.65
508.004	30.66
508.204	30.69
508.404	30.65
508.604	30.53
508.804	30.34
509.003	30.35
509.203	30.55
509.403	30.64
509.603	30.53
509.803	30.43
510.002	30.42
510.202	30.49
510.402	30.38
510.602	30.41
510.801	30.38
511.001	30.48
511.201	30.62
511.4	30.49
511.6	30.52
511.8	30.5
511.999	30.55
512.199	30.47
512.398	30.38
512.598	30.51
512.797	30.52
512.997	30.54
513.197	30.58
513.396	30.55
513.596	30.62
513.795	30.74
513.994	30.78
514.194	30.68
514.393	30.77
514.593	30.79
514.792	30.9
514.992	30.76
515.191	30.84
515.39	30.89
515.59	30.93
515.789	30.9
515.988	30.83
516.188	30.77
516.387	30.82
516.586	30.6
516.786	30.56
516.985	30.51
517.184	30.66
517.383	30.59
517.582	30.55
517.782	30.42
517.981	30.37
518.18	30.4
518.379	30.5
518.578	30.51
518.777	30.61
518.976	30.57
519.176	30.55
519.375	30.54
519.574	30.6
519.773	30.59
519.972	30.58
520.171	30.55
520.37	30.42
520.569	30.31
520.768	30.3
520.967	30.4
521.166	30.46
521.365	30.49
521.564	30.48
521.762	30.47
521.961	30.55
522.16	30.46
522.359	30.53
522.558	30.69
522.757	30.84
522.956	30.89
523.154	30.78
523.353	30.89
523.552	30.79
523.751	30.66
523.949	30.71
524.148	30.65
524.347	30.8
524.546	30.79
524.744	30.68
524.943	30.56
525.142	30.48
525.34	30.36
525.539	30.28
525.737	30.19
525.936	30.28
526.135	30.25
526.333	30.21
526.532	30.21
526.73	30.17
526.929	30.23
527.127	30.27
527.326	30.25
527.524	30.38
527.723	30.31
527.921	30.42
528.12	30.35
528.318	30.26
528.516	30.31
528.715	30.27
528.913	30.34
529.112	30.28
529.31	30.3
529.508	30.37
529.707	30.35
529.905	30.39
530.103	30.33
530.301	30.37
530.5	30.41
530.698	30.39
530.896	30.42
531.094	30.36
531.293	30.39
531.491	30.33
531.689	30.38
531.887	30.35
532.085	30.32
532.283	30.4
532.481	30.38
532.68	30.45
532.878	30.42
533.076	30.39
533.274	30.31
533.472	30.36
533.67	30.45
533.868	30.49
534.066	30.52
534.264	30.48
534.462	30.41
534.66	30.39
534.858	30.3
535.056	30.27
535.253	30.23
535.451	30.28
535.649	30.37
535.847	30.27
536.045	30.18
536.243	30.12
536.441	30.16
536.638	30.17
536.836	30.14
537.034	30.26
537.232	30.24
537.43	30.38
537.627	30.41
537.825	30.31
538.023	30.31
538.22	30.23
538.418	30.16
538.616	30.34
538.813	30.32
539.011	30.53
539.209	30.5
539.406	30.65
539.604	30.59
539.801	30.7
539.999	30.64
540.196	30.59
540.394	30.61
540.591	30.67
540.789	30.6
540.986	30.63
541.184	30.58
541.381	30.51
541.579	30.4
541.776	30.45
541.974	30.39
542.171	30.32
542.368	30.24
542.566	30.25
542.763	30.25
542.96	30.18
543.158	30.24
543.355	30.18
543.552	30.2
543.75	30.29
543.947	30.12
544.144	30.05
544.341	30.11
544.539	30.24
544.736	30.26
544.933	30.2
545.13	30.23
545.327	29.97
545.524	30.09
545.722	30.19
545.919	30.04
546.116	30.06
546.313	30.15
546.51	30.36
546.707	30.34
546.904	30.28
547.101	30.27
547.298	30.13
547.495	30.27
547.692	30.17
547.889	29.95
548.086	30.15
548.283	30.25
548.48	30.19
548.677	30.02
548.874	30.03
549.07	29.95
549.267	29.95
549.464	30.21
549.661	30.15
549.858	30
550.055	30.17
550.251	30.1
550.448	30.19
550.645	30.14
550.842	29.94
551.038	29.79
551.235	29.82
551.432	29.83
551.628	29.95
551.825	30.05
552.022	30.26
552.218	30.22
552.415	30.15
552.612	30.15
552.808	30.15
553.005	30.28
553.201	30.46
553.398	30.52
553.594	30.47
553.791	30.35
553.987	30.38
554.184	30.32
554.38	30.43
554.577	30.47
554.773	30.4
554.97	30.25
555.166	30.06
555.362	29.98
555.559	29.97
555.755	30.13
555.952	29.99
556.148	29.96
556.344	29.88
556.541	29.82
556.737	29.95
556.933	29.99
557.129	30.24
557.326	30.62
557.522	30.62
557.718	30.54
557.914	30.45
558.11	30.62
558.307	30.69
558.503	30.82
558.699	30.67
558.895	30.36
559.091	30.32
559.287	30.43
559.483	30.3
559.679	30.31
559.876	30.33
560.072	30.39
560.268	30.24
560.464	30.19
560.66	30.07
560.856	30.18
561.052	30.22
561.247	30.14
561.443	29.94
561.639	29.68
561.835	29.62
562.031	29.62
562.227	29.61
562.423	29.64
562.619	29.58
562.815	29.65
563.01	29.56
563.206	29.49
563.402	29.44
563.598	29.4
563.793	29.47
563.989	29.49
564.185	29.68
564.381	29.64
564.576	29.57
564.772	29.55
564.968	29.63
565.163	29.83
565.359	30.07
565.555	30.26
565.75	30.44
565.946	30.47
566.141	30.58
566.337	30.53
566.532	30.58
566.728	30.81
566.923	30.8
567.119	30.82
567.314	30.66
567.51	30.64
567.705	30.64
567.901	30.6
568.096	30.7
568.292	30.78
568.487	30.67
568.682	30.56
568.878	30.37
569.073	30.59
569.268	30.53
569.464	30.57
569.659	30.47
569.854	30.38
570.05	30.33
570.245	30.27
570.44	30.19
570.635	30.37
570.831	30.64
571.026	30.61
571.221	30.41
571.416	30.34
571.611	30.28
571.806	30.32
572.002	30.5
572.197	30.3
572.392	30.33
572.587	30.14
572.782	30.15
572.977	29.96
573.172	30.03
573.367	30.09
573.562	29.93
573.757	29.91
573.952	29.95
574.147	29.68
574.342	29.84
574.537	29.97
574.732	30.26
574.927	30.12
575.121	30.29
575.316	30.25
575.511	30.22
575.706	30.37
575.901	30.42
576.096	30.47
576.29	30.6
576.485	30.68
576.68	30.7
576.875	30.41
577.069	30.61
577.264	30.44
577.459	30.28
577.654	30.26
577.848	30.34
578.043	30.46
578.238	30.24
578.432	30.2
578.627	30.13
578.821	29.81
579.016	30
579.21	29.92
579.405	29.91
579.6	30.16
579.794	30.16
579.989	30.28
580.183	30.51
580.378	30.79
580.572	30.95
580.766	30.9
580.961	31.06
581.155	30.96
581.35	30.79
581.544	30.83
581.738	30.79
581.933	30.68
582.127	30.48
582.321	30.17
582.516	29.7
582.71	29.71
582.904	29.72
583.099	29.8
583.293	29.65
583.487	29.69
583.681	29.77
583.875	29.64
584.07	29.94
584.264	29.96
584.458	30.03
584.652	30.52
584.846	30.3
585.04	30.42
585.234	30.45
585.428	30.57
585.623	30.61
585.817	30.53
586.011	30.83
586.205	30.66
586.399	30.68
586.593	30.6
586.787	30.24
586.981	30.35
587.174	30.38
587.368	30.48
587.562	30.48
587.756	30.18
587.95	30.3
588.144	30.13
588.338	30.22
588.532	30.05
588.725	30.11
588.919	30.3
589.113	30.27
589.307	30.26
589.501	29.93
589.694	30.14
589.888	30.23
590.082	30.22
590.275	30.2
590.469	29.99
590.663	30.15
590.856	30.18
591.05	30.08
591.244	29.93
591.437	30.03
591.631	30.11
591.824	29.82
592.018	29.94
592.212	30.03
592.405	30.23
592.599	30.24
592.792	30.32
592.986	30.34
593.179	30.33
593.372	30.85
593.566	30.51
593.759	30.42
593.953	30.56
594.146	30.65
594.339	30.56
594.533	30.33
594.726	30.32
594.92	30.15
595.113	30.08
595.306	30.1
595.499	29.99
595.693	30.17
595.886	30.19
596.079	30.38
596.272	30.33
596.466	30.21
596.659	30.31
596.852	30.25
597.045	30.45
597.238	30.48
597.431	30.61
597.624	30.42
597.818	30.31
598.011	30.38
598.204	30.17
598.397	30.26
598.59	30.3
598.783	30.2
598.976	30.23
599.169	30.14
599.362	30.12
599.555	30.17
599.748	30.33
599.941	30.4
600.134	30.67
600.326	30.97
600.519	30.51
600.712	30.66
600.905	30.59
601.098	30.62
601.291	30.67
601.483	30.81
601.676	30.66
601.869	30.57
602.062	30.74
602.255	30.36
602.447	30.27
602.64	30.54
602.833	30.55
603.025	30.7
603.218	30.75
603.411	30.82
603.603	30.79
603.796	30.74
603.989	30.64
604.181	30.6
604.374	30.62
604.566	30.53
604.759	30.6
604.951	30.58
605.144	30.4
605.336	30.37
605.529	30.37
605.721	30.39
605.914	30.33
606.106	30.25
606.299	30.21
606.491	30.25
606.683	30.05
606.876	29.99
607.068	29.91
607.26	30.03
607.453	30.25
607.645	30.22
607.837	30
608.03	30.11
608.222	30.38
608.414	30.13
608.606	30.13
608.799	30.28
608.991	30.39
609.183	30.43
609.375	30.4
609.567	30.3
609.759	30.35
609.952	30.5
610.144	30.7
610.336	30.49
610.528	30.55
610.72	30.69
610.912	30.62
611.104	30.33
611.296	30.28
611.488	30.53
611.68	30.53
611.872	30.37
612.064	30.39
612.256	29.99
612.448	30.21
612.64	30.52
612.832	30.51
613.023	30.57
613.215	30.76
613.407	30.61
613.599	30.33
613.791	30.23
613.983	30.05
614.174	29.8
614.366	30.15
614.558	30.18
614.75	30.01
614.941	29.81
615.133	30.06
615.325	30.09
615.516	30.01
615.708	30.01
615.9	30.17
616.091	30.24
616.283	30.34
616.475	30.23
616.666	30.23
616.858	30.3
617.049	30.4
617.241	30.33
617.432	30.21
617.624	30.55
617.815	30.66
618.007	30.56
618.198	30.49
618.39	30.79
618.581	30.75
618.773	30.67
618.964	30.81
619.155	30.66
619.347	30.54
619.538	30.43
619.729	30.38
619.921	30.6
620.112	30.63
620.303	30.71
620.494	30.47
620.686	30.46
620.877	30.47
621.068	30.35
621.259	30.46
621.451	30.51
621.642	30.75
621.833	30.68
622.024	30.18
622.215	30.23
622.406	30.27
622.597	29.88
622.788	29.64
622.98	29.46
623.171	29.65
623.362	29.37
623.553	29.2
623.744	29.18
623.935	28.93
624.126	29.19
624.317	29.37
624.508	29.5
624.698	29.91
624.889	30.14
625.08	30.33
625.271	30.07
625.462	30.38
625.653	30.71
625.844	30.62
626.034	31.04
626.225	31.08
626.416	30.82
626.607	30.84
626.798	30.78
626.988	30.69
627.179	30.62
627.37	30.87
627.56	30.73
627.751	30.57
627.942	30.76
628.132	30.8
628.323	30.63
628.514	30.57
628.704	30.53
628.895	30.58
629.085	30.51
629.276	30.55
629.466	30.3
629.657	30.38
629.847	30.23
630.038	30.19
630.228	30.03
630.419	30.09
630.609	30.19
630.8	30.09
630.99	29.67
631.181	29.88
631.371	29.88
631.561	29.74
631.752	30.02
631.942	30.14
632.132	30.27
632.323	30.19
632.513	30.19
632.703	30.75
632.893	31.07
633.084	31.51
633.274	31.7
633.464	31.65
633.654	31.86
633.844	31.96
634.034	32.13
634.225	32
634.415	32.04
634.605	32.02
634.795	31.42
634.985	30.96
635.175	30.88
635.365	30.82
635.555	30.72
635.745	30.73
635.935	30.39
636.125	30.32
636.315	30.16
636.505	29.97
636.695	30.04
636.885	30.04
637.075	30.05
637.265	30.08
637.455	29.75
637.644	29.89
637.834	29.56
638.024	29.43
638.214	29.39
638.404	29.28
638.593	29.34
638.783	28.92
638.973	29.32
639.163	29.17
639.352	29.18
639.542	29.24
639.732	29.24
639.921	29.69
640.111	29.81
640.301	29.7
640.49	30.01
640.68	29.97
640.87	30.49
641.059	30.38
641.249	30.66
641.438	30.53
641.628	30.58
641.817	30.46
642.007	30.07
642.196	30.03
642.386	30.14
642.575	30.28
642.764	30.38
642.954	29.94
643.143	29.99
643.333	30.15
643.522	30.34
643.711	30.08
643.901	30.09
644.09	30.32
644.279	30.2
644.469	29.84
644.658	29.45
644.847	29.4
645.036	29.69
645.226	29.57
645.415	29.33
645.604	29.24
645.793	29.31
645.982	29.25
646.171	29.23
646.361	29.47
646.55	29.72
646.739	29.5
646.928	29.72
647.117	29.95
647.306	29.66
647.495	29.63
647.684	29.66
647.873	29.66
648.062	29.85
648.251	29.56
648.44	29.64
648.629	29.79
648.818	30.17
649.007	30.04
649.196	30.15
649.384	30.15
649.573	30.42
649.762	30.34
649.951	30.27
650.14	30.66
650.328	30.72
650.517	30.37
650.706	30.31
650.895	30.16
651.083	30.31
651.272	29.82
651.461	29.31
651.65	29.05
651.838	29.09
652.027	29.53
652.216	29.4
652.404	29.46
652.593	29.51
652.781	29.72
652.97	29.68
653.158	29.8
653.347	29.77
653.535	30.61
653.724	30.55
653.912	30.64
654.101	30.16
654.289	29.89
654.478	30.19
654.666	30.24
654.855	29.67
655.043	29.3
655.231	28.75
655.42	29.48
655.608	29.24
655.796	29.1
655.985	29.32
656.173	29.63
656.361	29.3
656.55	29.32
656.738	29.6
656.926	29.79
657.114	30.39
657.302	30.59
657.491	30.37
657.679	30.57
657.867	30.51
658.055	30.59
658.243	30.45
658.431	30.72
658.619	30.68
658.807	30.73
658.996	30.84
659.184	30.91
659.372	30.85
659.56	30.56
659.748	30.34
659.936	30.8
660.124	30.74
660.311	30.69
660.499	30.7
660.687	30.51
660.875	30.45
661.063	30.43
661.251	30.17
661.439	30.1
661.627	30.37
661.814	30.48
662.002	30.51
662.19	30.52
662.378	30.47
662.565	30.34
662.753	30.53
662.941	30.09
663.129	30.52
663.316	30.7
663.504	30.65
663.692	30.56
663.879	30.65
664.067	30.6
664.254	30.13
664.442	30.47
664.63	30.7
664.817	30.56
665.005	31.07
665.192	30.56
665.38	30.19
665.567	30.44
665.755	30.34
665.942	30.46
666.13	30.14
666.317	29.92
666.504	30.07
666.692	29.76
666.879	30.22
667.067	30.07
667.254	29.88
667.441	30.51
667.629	30.77
667.816	30.81
668.003	30.37
668.19	30.15
668.378	30.5
668.565	30.39
668.752	30.42
668.939	29.94
669.127	29.9
669.314	30.11
669.501	29.78
669.688	29.31
669.875	28.94
670.062	29.52
670.249	29.82
670.436	29.96
670.623	29.7
670.81	29.38
670.997	29.53
671.184	29.54
671.371	29.64
671.558	30.03
671.745	30.13
671.932	31.07
672.119	30.43
672.306	30.55
672.493	30.12
672.68	30.58
672.867	31.13
673.054	31.05
673.24	31.38
673.427	31
673.614	30.17
673.801	30.32
673.988	29.63
674.174	30.21
674.361	30.15
674.548	30.66
674.734	30.02
674.921	29.76
675.108	30.08
675.294	29.95
675.481	30.16
675.668	30.42
675.854	30.41
676.041	30.29
676.227	30.4
676.414	30.32
676.601	30
676.787	29.92
676.974	29.8
677.16	29.45
677.347	29.27
677.533	29.33
677.719	29.54
677.906	29.49
678.092	30.02
678.279	29.25
678.465	29.55
678.651	29.59
678.838	29.94
679.024	29.73
679.21	29.74
679.397	29.78
679.583	29.95
679.769	30.09
679.955	29.97
680.142	29.72
680.328	30
680.514	29.51
680.7	29.49
680.886	29.75
681.073	29.99
681.259	29.97
681.445	29.78
681.631	29.63
681.817	29.23
682.003	29.49
682.189	29.46
682.375	29.29
682.561	29.54
682.747	29.49
682.933	28.91
683.119	28.95
683.305	29.01
683.491	29.05
683.677	29.05
683.863	29
684.049	28.55
684.235	28.32
684.42	28.6
684.606	28.31
684.792	28.24
684.978	28.11
685.164	28.06
685.349	27.99
685.535	28.06
685.721	27.92
685.907	29
686.092	29.3
686.278	29.75
686.464	30.25
686.649	30.58
686.835	30.66
687.021	31.1
687.206	31.08
687.392	30.73
687.577	31.37
687.763	31.12
687.948	30.39
688.134	30.63
688.319	30.54
688.505	30.21
688.69	30.29
688.876	29.88
689.061	29.61
689.247	29.55
689.432	30.15
689.618	29.61
689.803	30.04
689.988	30.09
690.174	29.18
690.359	29.25
690.544	29.27
690.73	29.3
690.915	29.77
691.1	29.71
691.285	29.58
691.471	29.31
691.656	28.78
691.841	29.49
692.026	29.43
692.211	30.45
692.396	30.23
692.582	30.28
692.767	30.55
692.952	30.34
693.137	30.75
693.322	31.3
693.507	31.14
693.692	31.3
693.877	30.12
694.062	30.05
694.247	29.88
694.432	29.81
694.617	29.58
694.802	28.66
694.987	28.85
695.172	28.52
695.357	28.44
695.541	28.36
695.726	28.54
695.911	28.36
696.096	28.29
696.281	28.26
696.466	28.42
696.65	27.83
696.835	28.63
697.02	28.3
697.204	28.71
697.389	28.59
697.574	28.89
697.759	29.64
697.943	30.05
698.128	30.09
698.312	30.36
698.497	29.95
698.682	30.29
698.866	30.05
699.051	30.76
699.235	30.74
699.42	30.77
699.604	31.01
699.789	30.18
699.973	30.2
700.158	30.14
700.342	29.92
700.527	30.23
700.711	30.2
700.895	30.21
701.08	29.61
701.264	29.35
701.448	29.15
701.633	29.12
701.817	29.67
702.001	29.76
702.186	29.34
702.37	28.92
702.554	28.67
702.738	28.87
702.923	28.92
703.107	28.7
703.291	28.72
703.475	29.18
703.659	28.62
703.843	28.64
704.027	28.06
704.212	28.39
704.396	28.28
704.58	28.38
704.764	28.13
704.948	27.84
705.132	28.01
705.316	27.86
705.5	26.89
705.684	27.26
705.868	26.7
706.052	27.17
706.235	27.33
706.419	26.99
706.603	27.33
706.787	27.34
706.971	27.81
707.155	27.41
707.339	27.56
707.522	28.3
707.706	27.32
707.89	27.72
708.074	27.2
708.257	27.31
708.441	27.97
708.625	27.77
708.808	27.87
708.992	27.62
709.176	27.94
709.359	27.93
709.543	28.18
709.727	28.67
709.91	28.5
710.094	29.3
710.277	29.25
710.461	28.17
710.644	28.57
710.828	28.73
711.011	28.84
711.195	29.32
711.378	29.44
711.562	28.7
711.745	28.64
711.928	28.93
712.112	28.65
712.295	28.55
712.478	29.87
712.662	29.66
712.845	29.82
713.028	29.83
713.212	29.5
713.395	29.88
713.578	29.99
713.761	31.04
713.945	31.21
714.128	31.19
714.311	31.37
714.494	31.15
714.677	30.81
714.86	31.05
715.043	31.23
715.227	31.58
715.41	31.64
715.593	32.2
715.776	31.33
715.959	31.03
716.142	31.56
716.325	31.54
716.508	31.37
716.691	31.7
716.874	30.85
717.057	30.58
717.239	30.24
717.422	29.39
717.605	29.49
717.788	29.31
717.971	29.74
718.154	28.66
718.337	29.06
718.519	29.54
718.702	29.34
718.885	29.6
719.068	30.13
719.25	29.94
719.433	29.63
719.616	29.21
719.798	29.19
719.981	28.65
720.164	29.47
720.346	29.37
720.529	28.71
720.712	28.21
720.894	28.33
721.077	26.87
721.259	26.58
721.442	27.2
721.624	27.44
721.807	27.1
721.989	27.53
722.172	27.8
722.354	27.12
722.537	27.79
722.719	27.47
722.901	26.56
723.084	27.95
723.266	28.72
723.448	28.79
723.631	28.25
723.813	29.21
723.995	29.16
724.178	28.48
724.36	28.64
724.542	28.67
724.724	29.31
724.907	29.51
725.089	28.53
725.271	27.92
725.453	28.03
725.635	28.54
725.817	28.22
725.999	27.71
726.181	27.63
726.364	26.86
726.546	26.77
726.728	26.97
726.91	28.37
727.092	29.61
727.274	29.92
727.456	30.07
727.638	30.01
727.819	29.32
728.001	29.97
728.183	30.06
728.365	30.11
728.547	29.6
728.729	29.51
728.911	28.89
729.093	27.26
729.274	27.02
729.456	26.16
729.638	26.18
729.82	27.27
730.001	26.5
730.183	26.64
730.365	27.9
730.546	27.87
730.728	27.78
730.91	27.31
731.091	27.61
731.273	27.19
731.455	27.59
731.636	27.71
731.818	27.25
731.999	26.98
732.181	27.27
732.362	26.04
732.544	25.72
732.725	25.54
732.907	25.79
733.088	25.51
733.27	25.05
733.451	25.17
733.633	24.45
733.814	24.27
733.995	24.21
734.177	24.13
734.358	24.65
734.539	24.99
734.721	24.93
734.902	24.77
735.083	25.45
735.264	26.09
735.446	25.78
735.627	27.09
735.808	27.12
735.989	28.04
736.17	27.09
736.351	26.68
736.533	26.56
736.714	25.56
736.895	25.04
737.076	25.48
737.257	25.4
737.438	24.74
737.619	23.5
737.8	23.61
737.981	23.88
738.162	24.38
738.343	24.83
738.524	25.64
738.705	26.82
738.886	27.69
739.067	27.52
739.247	27.67
739.428	28.94
739.609	28.49
739.79	28.66
739.971	28.28
740.151	27.59
740.332	26.06
740.513	25.22
740.694	26.05
740.874	26.12
741.055	26.75
741.236	27.58
741.417	27.85
741.597	27.91
741.778	27.92
741.958	28.21
742.139	29.09
742.32	30.69
742.5	30.59
742.681	29.33
742.861	28.66
743.042	27.81
743.222	27.49
743.403	25.27
743.583	25.88
743.764	25.11
743.944	24.5
744.124	24.36
744.305	23.2
744.485	24.64
744.666	24.98
744.846	24.19
745.026	23.06
745.207	22.42
745.387	24.54
745.567	25.4
745.747	25.67
745.928	26.38
746.108	27.16
746.288	27.84
746.468	25.65
746.648	26.63
746.829	27.76
747.009	29.48
747.189	30.2
747.369	29.81
747.549	28.88
747.729	29.47
747.909	28.52
748.089	27.65
748.269	28.83
748.449	31.38
748.629	31.68
748.809	31.9
748.989	31.48
749.169	30.71
749.349	30.01
749.529	30.1
749.709	29.19
749.889	28.64
750.068	28.16
750.248	26.27
750.428	24.86
750.608	23.56
750.788	23.57
750.967	23.53
751.147	24.33
751.327	24.87
751.507	25.8
751.686	26.33
751.866	26.97
752.046	26.53
752.225	27.23
752.405	26.03
752.585	25.78
752.764	25.02
752.944	25.3
753.123	24.5
753.303	24.82
753.482	24.35
753.662	22.12
753.841	22.37
754.021	22.94
754.2	24.83
754.38	25.26
754.559	25.91
754.739	26.47
754.918	26.52
755.097	26.91
755.277	26.35
755.456	25.89
755.635	27.5
755.815	26.8
755.994	27.86
756.173	26.51
756.352	27.98
756.532	29.42
756.711	30.11
756.89	30.58
757.069	30.6
757.248	29.77
757.427	28.7
757.607	28.88
757.786	28.04
757.965	27.46
758.144	27.09
758.323	26.52
758.502	25.4
758.681	24.42
758.86	24.33
759.039	23.34
759.218	23.1
759.397	24.38
759.576	25.13
759.755	26.4
759.934	25.75
760.113	27.11
760.291	27.31
760.47	27.31
760.649	29.11
760.828	29.41
761.007	30.63
761.186	31.66
761.364	31.15
761.543	30.71
761.722	30.74
761.901	30.71
762.079	30.37
762.258	30.13
762.437	30.99
762.615	29.2
762.794	28.49
762.972	28.93
763.151	29.14
763.33	29.37
763.508	30.09
763.687	29.84
763.865	30.38
764.044	30.67
764.222	31.17
764.401	30.28
764.579	30.9
764.758	31.03
764.936	30.33
765.114	30.95
765.293	30.82
765.471	30.11
765.65	31.3
765.828	31.2
766.006	30.04
766.184	29.36
766.363	30.03
766.541	28.92
766.719	29.14
766.898	29.11
767.076	28.52
767.254	28.84
767.432	30.04
767.61	28.6
767.788	28.15
767.967	27.26
768.145	27.69
768.323	26.36
768.501	26.68
768.679	26.01
768.857	25.92
769.035	25
769.213	23.84
769.391	22.6
769.569	24.11
769.747	26.06
769.925	27.74
770.103	27.99
770.281	28.16
770.459	29.56
770.636	29.86
770.814	29.99
770.992	29.96
771.17	30.07
771.348	29.92
771.525	30.03
771.703	28.68
771.881	28.29
772.059	27.57
772.236	28.16
772.414	27.33
772.592	28.11
772.769	28.63
772.947	28.69
773.125	27.55
773.302	28.03
773.48	27.09
773.657	26.93
773.835	27.19
774.013	24.61
774.19	25.48
774.368	26.37
774.545	25.83
774.723	25.65
774.9	24.25
775.077	27.16
775.255	25.19
775.432	24.74
775.61	24.49
775.787	24
775.964	26.68
776.142	22.95
776.319	22.49
776.496	23.57
776.674	22.59
776.851	26.75
777.028	27.3
777.205	31.29
777.382	30.44
777.56	30.44
777.737	30.85
777.914	31.77
778.091	33.57
778.268	35.79
778.445	35.35
778.622	36.46
778.8	34.65
778.977	33.79
779.154	29.29
779.331	30.45
779.508	31.55
779.685	29.14
779.862	27.98
780.038	28.19
780.215	25.99
780.392	24.7
780.569	23.65
780.746	22.42
780.923	23.64
781.1	25.54
781.277	25.55
781.453	23.29
781.63	27.06
781.807	28.19
781.984	28.63
782.16	27.38
782.337	25.78
782.514	27.47
782.691	29.72
782.867	26.49
783.044	26.45
783.221	26.68
783.397	27.66
783.574	25.06
783.75	22.91
783.927	24.68
784.103	25.49
784.28	26.47
784.456	23.15
784.633	22.02
784.809	22.21
784.986	20.77
785.162	19.12
785.339	16.42
785.515	19.03
785.692	18.73
785.868	17.99
786.044	16.88
786.221	17.82
786.397	20.43
786.573	21.98
786.749	22.28
786.926	23.75
787.102	22.96
787.278	25.36
787.454	23.18
787.631	23.54
787.807	23.61
787.983	26.04
788.159	26.62
788.335	25.69
788.511	25.61
788.687	26.24
788.863	24.56
789.039	28.29
789.216	28.56
789.392	28.63
789.568	29.42
789.744	28.41
789.919	27.38
790.095	26.28
790.271	31.04
790.447	27.33
790.623	29.28
790.799	31.51
790.975	30.55
791.151	30.84
791.327	30.69
791.502	31.18
791.678	30.6
791.854	32.67
792.03	33.51
792.205	28.67
792.381	28.8
792.557	25.18
792.733	24.63
792.908	24.09
793.084	27.32
793.259	28.09
793.435	27.58
793.611	27.15
793.786	25.1
793.962	25.05
794.137	25.16
794.313	26.82
794.488	29.46
794.664	30.85
794.839	28.51
795.015	24.36
795.19	26.73
795.366	26.1
795.541	28.44
795.716	27.08
795.892	27.28
796.067	26.88
796.242	26.53
796.418	24.18
796.593	23.45
796.768	25.72
796.944	25.37
797.119	21.83
797.294	21.54
797.469	21.1
797.644	20.33
797.82	20.94
797.995	20.39
798.17	20.18
798.345	20.74
798.52	21.02
798.695	19.63
798.87	21.2
799.045	21.68
799.22	20.86
799.395	20.12
799.57	21.26
799.745	20.12
799.92	20.87
800.095	21.11
800.27	21.42
800.445	19.04
800.62	17.11
800.795	17.5
800.97	15.74
801.145	13.87
801.319	18.66
801.494	17.9
801.669	17.03
801.844	13.41
802.018	11.17
802.193	12.35
802.368	14.12
802.543	13.95
802.717	13.25
802.892	15.74
803.067	22.22
803.241	16.95
803.416	18.67
803.59	19.03
803.765	20.47
803.94	17.82
804.114	16.2
804.289	12.44
804.463	12.85
804.638	14.13
804.812	15.32
804.986	9.91
805.161	10.13
805.335	7.5
805.51	7.84
805.684	11.09
805.858	14.98
806.033	13.9
806.207	15.35
806.381	13.82
806.556	12.66
806.73	10.37
806.904	13.28
807.078	13.71
807.253	17.76
807.427	20.33
807.601	19.09
807.775	23.09
807.949	22.57
808.123	27.24
808.298	30.22
808.472	27.57
808.646	26.84
808.82	25.84
808.994	24.99
809.168	26.94
809.342	23.66
809.516	22.91
809.69	24.35
809.864	25.3
810.038	19.91
810.212	20.7
810.385	20.78
810.559	17.61
810.733	15.94
810.907	12.23
811.081	6.58
811.255	5.76
811.428	7.58
811.602	-1
811.776	0.48
811.95	-2.36
812.123	-3.03
812.297	-6.67
812.471	4.83
812.644	7.14
812.818	9.32
812.992	11.06
813.165	15.6
813.339	13.72
813.512	19.81
813.686	16.78
813.86	20.13
814.033	20.69
814.207	25.58
814.38	17.86
814.554	14.35
814.727	12.62
814.9	13.87
815.074	14.14
815.247	14.41
815.421	10.72
815.594	19.97
815.767	18.82
815.941	19.11
816.114	13.91
816.287	15.5
816.46	17.26
816.634	20.73
816.807	22.45
816.98	16.41
817.153	19.27
817.327	18.64
817.5	13.94
817.673	14.5
817.846	12.89
818.019	14.22
818.192	12.09
818.365	18.4
818.538	17.93
818.711	14.66
818.884	18.9
819.057	19.16
819.23	18.15
819.403	17.9
819.576	23.45
819.749	24.18
819.922	26.31
820.095	26.2
820.268	24.81
820.441	27.18
820.614	28.83
820.786	27.7
820.959	27.46
821.132	30.25
821.305	28.26
821.477	26.65
821.65	28
821.823	27.29
821.996	28.29
822.168	27.35
822.341	27.52
822.514	27.52
822.686	28.28
822.859	27.85
823.031	26.7
823.204	27.69
823.376	27.48
823.549	26.09
823.722	26.21
823.894	25.83
824.067	27.13
824.239	26.34
824.411	25.82
824.584	24.96
824.756	24.57
824.929	25.05
825.101	25.3
825.273	25.82
825.446	25.78
825.618	26.84
825.79	28.3
825.963	26.3
826.135	26.33
826.307	27.42
826.479	28.52
826.652	29.21
826.824	29.14
826.996	28.51
827.168	27.99
827.34	30.18
827.512	29.07
827.684	27.27
827.856	27.13
828.029	28
828.201	26.69
828.373	25.55
828.545	25.2
828.717	24.96
828.889	24.51
829.061	23.62
829.232	21.42
829.404	21.63
829.576	23.21
829.748	23.14
829.92	22.01
830.092	22.15
830.264	21.85
830.436	19.83
830.607	20.85
830.779	20.32
830.951	18.99
831.123	17.06
831.294	16.41
831.466	16.76
831.638	16.31
831.809	14.55
831.981	12.49
832.153	13.72
832.324	16.4
832.496	14.11
832.667	14.01
832.839	19.23
833.011	20.19
833.182	22.34
833.354	20.48
833.525	22.92
833.697	21.63
833.868	24.47
834.039	21.82
834.211	24.33
834.382	28.26
834.554	27.38
834.725	23.65
834.896	24.17
835.068	21.47
835.239	19.69
835.41	19.14
835.581	22.46
835.753	20.71
835.924	23.81
836.095	22.62
836.266	17.98
836.438	15.08
836.609	16.86
836.78	19.27
836.951	23.58
837.122	21.78
837.293	20.3
837.464	21.13
837.635	20.35
837.806	20.81
837.977	16.12
838.148	14.47
838.319	20.95
838.49	16.65
838.661	9.02
838.832	6.24
839.003	13.12
839.174	10.13
839.345	8.45
839.516	15.14
839.687	9.9
839.857	10.99
840.028	16.9
840.199	15.63
840.37	23.13
840.54	25.63
840.711	23.31
840.882	23.01
841.053	26.19
841.223	22.05
841.394	21.1
841.564	15.86
841.735	18.53
841.906	20.94
842.076	25.77
842.247	29.45
842.417	23.05
842.588	26.89
842.758	24.31
842.929	26.5
843.099	33.04
843.27	31.57
843.44	42.1
843.611	39.16
843.781	30.82
843.951	18.45
844.122	9.34
844.292	15.2
844.462	13.98
844.633	9.16
844.803	4.97
844.973	-9.94
845.144	-5.96
845.314	-15.66
845.484	-9.67
845.654	-4.99
845.824	0.84
845.995	3.47
846.165	5.61
846.335	7.11
846.505	16.72
846.675	17.95
846.845	16.4
847.015	15.04
847.185	10.92
847.355	14.13
847.525	13.49
847.695	21.51
847.865	17.52
848.035	14.36
848.205	-10.75
848.375	-6
848.545	-20.74
848.715	-25.44
848.884	-16.66
849.054	-9.12
849.224	-19.14
849.394	-13
849.564	-17.77
849.733	-11.31
849.903	-5.29
850.073	22.58
850.243	9.95
850.412	18.78
850.582	31.92
850.752	10.58
850.921	-3.78
851.091	12.5
851.26	13.47
851.43	-3.72
851.599	-9.52
851.769	-12.78
851.939	-18.03
852.108	-39.08
852.278	-15.22
852.447	-9.59
852.616	0.31
852.786	12.94
852.955	1.88
853.125	-3.01
853.294	-9.8
853.463	-9.6
853.633	-5.04
853.802	-16.79
853.971	2.83
854.141	-5.89
854.31	-0.82
854.479	-10.28
854.648	-24.11
854.818	-14.92
854.987	-36.65
855.156	-55.17
855.325	-43.53
855.494	-27.54
855.663	-16.07
855.832	-22.58
856.001	-24
856.171	-41.2
856.34	-40.29
856.509	-23.47
856.678	-35.58
856.847	-39.31
857.016	-16.7
857.185	-10.78
857.353	-47.43
857.522	-65.66
857.691	-60.72
857.86	-105.32
858.029	-206.94
858.198	-429.5
858.367	-248.75
858.535	-255.21
858.704	-144.58
858.873	-59.97
859.042	-65.66
859.21	-36.96
859.379	-14.79
859.548	-17.24
859.717	-16.01
859.885	-11.52
860.054	1.77
860.222	0.25
860.391	22.56
860.56	23.19
860.728	22.66
860.897	39.97
861.065	48.71
861.234	42.87
861.402	10.03
861.571	22.48
861.739	44.16
861.908	57.89
862.076	63.27
862.244	55.78
862.413	29.86
862.581	43.76
862.749	31.55
862.918	7.43
863.086	27.14
863.254	67.05
863.423	57.6
863.591	48.3
863.759	43.93
863.927	27.38
864.096	6.92
864.264	17.48
864.432	20.69
864.6	27.04
864.768	30.25
864.936	14.17
865.104	-3.54
865.272	-6.27
865.44	-30.37
865.608	-58.95
865.776	-70.2
865.944	13.53
866.112	-3.8
866.28	-72.58
866.448	-84.27
866.616	-52.45
866.784	-60.53
866.952	-43.67
867.12	-36.68
867.288	-14.63
867.455	-20.21
867.623	-14.25
867.791	-38.45
867.959	-70.43
868.127	-65.85
868.294	-34.57
868.462	-36.8
868.63	38.77
868.797	49.81
868.965	61.2
869.133	56.37
869.3	50.14
869.468	42.43
869.636	44.7
869.803	27.25
869.971	55.97
870.138	44.26
870.306	4.52
870.473	-64.43
870.641	-141.36
870.808	-162.8
870.975	-72.24
871.143	-41.82
871.31	-43.63
871.478	-0.32
871.645	24.65
871.812	27.18
871.98	27.85
872.147	52.77
872.314	50.13
872.482	38.7
872.649	37.68
872.816	46.6
872.983	41.93
873.15	33.67
873.318	26.87
873.485	38.75
873.652	24.84
873.819	29.33
873.986	21.13
874.153	13.69
874.32	6.29
874.487	2.37
874.654	-33.15
874.821	-42.24
874.988	-40.83
875.155	-37.02
875.322	-41.83
875.489	-26.74
875.656	-63.92
875.823	-119.83
875.99	-99.62
876.157	-106.66
876.324	-162.31
876.49	-174.1
876.657	-190.94
876.824	-148.38
876.991	-270.17
877.157	-129.26
877.324	-515.69
877.491	-235.94
877.658	-168.58
877.824	-39.6
877.991	-28.97
878.157	-5.22
878.324	-1.38
878.491	-7.4
878.657	-23.64
878.824	-22.27
878.99	-25.92
879.157	-2.9
879.323	-0.44
879.49	2.24
879.656	-15.62
879.823	-23.85
879.989	-24.57
880.156	3.25
880.322	7.29
880.488	-10.05
880.655	-22.3
880.821	-12.52
880.987	-18.34
881.154	-13.19
881.32	-6.65
881.486	3.39
881.652	14.19
881.819	10.7
881.985	5.25
882.151	13.32
882.317	18.85
882.483	28.93
882.649	28.91
882.816	26.86
882.982	25.24
883.148	23.27
883.314	26.29
883.48	23.5
883.646	26.07
883.812	27.06
883.978	25.86
884.144	27.24
884.31	28.37
884.476	27.32
884.642	28.81
884.807	32.01
884.973	32.67
885.139	31.36
885.305	33.73
885.471	36.1
885.637	36.78
885.802	34.78
885.968	30.98
886.134	25.24
886.3	24.79
886.465	20.09
886.631	14.61
886.797	17.81
886.962	14.84
887.128	7.49
887.293	-0.3
887.459	-8.1
887.625	-23.98
887.79	-18.63
887.956	-16.24
888.121	-28.55
888.287	-14.09
888.452	-31.52
888.618	-92.61
888.783	-164.29
