Data from 2938118_Reflection_3.txt Node
Date: Sat Jul 11 18:01:22 EDT 2015
User: robert
Spectrometer: USB4E03001
Autoset integration time: false
Trigger mode: 4
Integration Time (sec): 1.000000E-1
Scans to average: 10
Electric dark correction enabled: true
Nonlinearity correction enabled: false
Boxcar width: 5
Stray light correction enabled: false
XAxis mode: Wavelengths
Stop averaging: false
Number of Pixels in Spectrum: 3648
>>>>>Begin Spectral Data<<<<<
177.566	217.59
177.785	-37.48
178.005	34.96
178.225	56.62
178.445	36.8
178.665	117.15
178.885	159.14
179.105	104.89
179.324	98.8
179.544	38.6
179.764	79.98
179.984	63.83
180.204	129.88
180.423	134.39
180.643	486.5
180.863	-673.36
181.083	204.23
181.302	238.63
181.522	238.88
181.742	273.59
181.961	353.32
182.181	276.66
182.401	451.34
182.621	1601.44
182.84	949.72
183.06	306.67
183.279	206.39
183.499	210.6
183.719	164.15
183.938	133.09
184.158	131.31
184.377	102.47
184.597	120.78
184.816	98.43
185.036	97.49
185.256	122.95
185.475	128.85
185.695	138.13
185.914	140.18
186.134	134.4
186.353	167.28
186.572	144.29
186.792	167.01
187.011	221.54
187.231	237.69
187.45	198.11
187.67	168.8
187.889	170.71
188.108	200.35
188.328	217.72
188.547	214.28
188.766	179.24
188.986	194.71
189.205	217.43
189.424	192.45
189.644	180.11
189.863	244.16
190.082	985.58
190.302	344.18
190.521	282.63
190.74	232.43
190.959	-1361.92
191.178	-688.02
191.398	682.93
191.617	229.23
191.836	292.96
192.055	570.43
192.274	487.59
192.494	381.97
192.713	1574.2
192.932	1208.4
193.151	-11678.35
193.37	-2628.05
193.589	-665.08
193.808	-3293.51
194.027	-2427.95
194.246	1302.76
194.465	21315.25
194.685	2349.42
194.904	-5136.56
195.123	1107.87
195.342	-1345.96
195.561	1031.21
195.78	420.42
195.999	434.56
196.218	1094.08
196.436	846.88
196.655	677.16
196.874	349.1
197.093	295.88
197.312	192.05
197.531	212.03
197.75	182.26
197.969	151.21
198.188	160.75
198.407	145.75
198.625	138.94
198.844	142.72
199.063	147.59
199.282	204.02
199.501	232.1
199.719	513.35
199.938	298.44
200.157	523.26
200.376	-6780.88
200.594	647.65
200.813	408.14
201.032	244.79
201.251	239.54
201.469	283.84
201.688	195.28
201.907	214.41
202.125	200.05
202.344	301.16
202.563	270.29
202.781	295.4
203	243.31
203.218	200.82
203.437	268.66
203.656	300.92
203.874	227.16
204.093	170.94
204.311	131.03
204.53	127.05
204.748	98.63
204.967	88.48
205.185	56.19
205.404	61.5
205.622	71.41
205.841	75
206.059	78.33
206.278	100.22
206.496	141.44
206.715	182.48
206.933	220.44
207.151	422.47
207.37	733.62
207.588	1142.23
207.806	685.87
208.025	1348.87
208.243	1036.61
208.461	875.13
208.68	-511.93
208.898	798.12
209.116	368.58
209.335	352.73
209.553	684.52
209.771	357.29
209.989	693.65
210.208	-1484.92
210.426	-675.03
210.644	-638.23
210.862	189.73
211.081	185.75
211.299	207.99
211.517	379.4
211.735	365.45
211.953	168.32
212.171	174.75
212.39	181.81
212.608	162.08
212.826	124.05
213.044	140.99
213.262	160.02
213.48	132.89
213.698	143.44
213.916	142.2
214.134	138.74
214.352	153.59
214.57	141.37
214.788	131.54
215.006	126.6
215.224	122.54
215.442	101.81
215.66	103.91
215.878	122.7
216.096	144.31
216.314	150.85
216.532	121
216.75	78.79
216.968	64.84
217.185	70.79
217.403	104.05
217.621	167.05
217.839	173.96
218.057	129.42
218.275	125.11
218.492	113.02
218.71	99.31
218.928	138.94
219.146	240.29
219.363	243.14
219.581	461.31
219.799	-759.48
220.017	-7684.54
220.234	-299.26
220.452	-128.14
220.67	-498.16
220.887	751.34
221.105	860.94
221.323	331.89
221.54	168.37
221.758	165.95
221.976	134.07
222.193	110.34
222.411	74.65
222.629	71.62
222.846	86.18
223.064	87.16
223.281	90.25
223.499	84.29
223.716	75.59
223.934	81.32
224.151	74.75
224.369	87.88
224.586	81.76
224.804	85.09
225.021	82.35
225.239	65.82
225.456	56.19
225.674	34.17
225.891	34.59
226.108	54.37
226.326	46.51
226.543	44.67
226.76	33.41
226.978	39.65
227.195	36.44
227.413	36.31
227.63	44.74
227.847	49.01
228.064	47.77
228.282	47.36
228.499	36.85
228.716	31.06
228.934	30.78
229.151	29.67
229.368	29.42
229.585	27.14
229.802	28.31
230.02	26.46
230.237	23.15
230.454	21.8
230.671	21.29
230.888	24.53
231.105	29.09
231.323	28.76
231.54	30.16
231.757	28.48
231.974	35.18
232.191	34.1
232.408	30.49
232.625	31.92
232.842	33.97
233.059	33.63
233.276	28.47
233.493	23.81
233.71	24.63
233.927	23.15
234.144	24.61
234.361	24.24
234.578	26.33
234.795	20.71
235.012	17.04
235.229	11.16
235.446	9.74
235.663	11.36
235.879	13.1
236.096	8.58
236.313	8.91
236.53	7.74
236.747	12.73
236.964	11.72
237.181	22.92
237.397	23.07
237.614	32.97
237.831	31.15
238.048	38.23
238.264	39.09
238.481	37.94
238.698	37.44
238.915	33.28
239.131	27.41
239.348	23.36
239.565	21.69
239.781	26
239.998	23.06
240.215	26.04
240.431	24.21
240.648	22.73
240.865	22.92
241.081	22.9
241.298	20.71
241.514	18
241.731	17.02
241.947	16.36
242.164	13.42
242.38	12.25
242.597	10.11
242.814	9.58
243.03	10.52
243.246	10.98
243.463	10.16
243.679	12.08
243.896	13.24
244.112	14.3
244.329	13.77
244.545	15.95
244.762	16.21
244.978	18.41
245.194	17.72
245.411	16.81
245.627	14.97
245.843	12.88
246.06	11.9
246.276	9.73
246.492	10.2
246.709	8.07
246.925	6.36
247.141	5.67
247.357	5.18
247.574	5.09
247.79	5.44
248.006	4.53
248.222	5.09
248.439	4.5
248.655	5.31
248.871	4.38
249.087	5.26
249.303	4.84
249.519	4.94
249.736	4.67
249.952	3.51
250.168	2.06
250.384	3.95
250.6	3.08
250.816	3.34
251.032	4.07
251.248	4.17
251.464	6.15
251.68	6.83
251.896	8.18
252.112	8.13
252.328	8.26
252.544	8.03
252.76	9.67
252.976	9.97
253.192	11.13
253.408	10.98
253.624	11.27
253.84	11.14
254.056	13.08
254.272	14.63
254.487	13.37
254.703	13.85
254.919	15.4
255.135	14.52
255.351	14.66
255.567	13.66
255.782	16.28
255.998	16.55
256.214	17
256.43	14.35
256.646	9.6
256.861	12.79
257.077	12.71
257.293	12.2
257.508	10.81
257.724	10.13
257.94	8.06
258.155	4.23
258.371	6.48
258.587	3.68
258.802	4.13
259.018	5
259.234	3.74
259.449	3.15
259.665	2.76
259.88	3.03
260.096	2.74
260.312	3.29
260.527	3.89
260.743	3.37
260.958	4.56
261.174	3.95
261.389	3.85
261.605	4.14
261.82	4.64
262.036	5.42
262.251	4.67
262.466	5.9
262.682	6.41
262.897	6.81
263.113	6.39
263.328	5.34
263.543	9.38
263.759	8.62
263.974	9.54
264.189	9.73
264.405	9.28
264.62	11.62
264.835	10.04
265.051	10.97
265.266	10.77
265.481	10.66
265.696	11.67
265.912	10.14
266.127	10.9
266.342	10.08
266.557	10.25
266.773	10.06
266.988	8.49
267.203	9.4
267.418	9.24
267.633	10.36
267.848	10.22
268.064	10.07
268.279	10.14
268.494	11.25
268.709	10.63
268.924	9.97
269.139	9.67
269.354	10.19
269.569	10.06
269.784	9.19
269.999	8.81
270.214	8.17
270.429	8.94
270.644	8.89
270.859	8.7
271.074	7.93
271.289	8.15
271.504	8.2
271.719	9.22
271.934	9.46
272.149	8.59
272.363	7.88
272.578	7.47
272.793	5.87
273.008	5.98
273.223	4.98
273.438	5.83
273.653	7.07
273.867	6.58
274.082	4.89
274.297	4.98
274.512	6.6
274.726	5.75
274.941	6.25
275.156	8.52
275.371	5.97
275.585	6.78
275.8	7.45
276.015	6.37
276.229	6.17
276.444	7.29
276.659	6.57
276.873	4.6
277.088	6.38
277.302	7.19
277.517	5.21
277.732	6.11
277.946	6.14
278.161	7.18
278.375	7.64
278.59	9.97
278.804	9.8
279.019	10.06
279.233	11.41
279.448	11.71
279.662	11.46
279.877	11.45
280.091	12.11
280.306	12.67
280.52	10.35
280.735	7.82
280.949	6.7
281.163	6.85
281.378	8.07
281.592	9.18
281.806	8.67
282.021	9.41
282.235	11.28
282.449	11.57
282.664	10.21
282.878	10.87
283.092	11.4
283.307	12.05
283.521	12.28
283.735	10.35
283.949	8.15
284.164	8.03
284.378	7.24
284.592	5.67
284.806	5.36
285.02	5.21
285.234	4.88
285.449	4.86
285.663	5.1
285.877	5.11
286.091	5.28
286.305	5.88
286.519	5.3
286.733	4.62
286.947	4.99
287.161	4.89
287.375	5.66
287.589	6.04
287.803	8.12
288.017	7.84
288.231	7.14
288.445	7.63
288.659	8.01
288.873	9.49
289.087	9.69
289.301	9.12
289.515	9.49
289.729	10.11
289.943	11.05
290.157	9.54
290.371	9.66
290.584	9.99
290.798	9.87
291.012	10.23
291.226	10.13
291.44	10.49
291.654	10.11
291.867	10.72
292.081	10.79
292.295	9.49
292.509	10.33
292.722	9.18
292.936	8.43
293.15	9.75
293.364	11.61
293.577	12.13
293.791	12.08
294.005	12.75
294.218	10.34
294.432	7.87
294.645	9.95
294.859	10.44
295.073	10.31
295.286	11.28
295.5	10.68
295.713	9.26
295.927	8.16
296.14	8.49
296.354	9.11
296.568	9.79
296.781	11.44
296.994	9.86
297.208	9.38
297.421	9.45
297.635	9.11
297.848	8.37
298.062	8.62
298.275	8.46
298.489	8.4
298.702	8.1
298.915	9.3
299.129	8.78
299.342	10.03
299.555	11.2
299.769	12.95
299.982	13.66
300.195	14.46
300.409	15.46
300.622	15.86
300.835	14.6
301.048	14.68
301.262	13.47
301.475	14.09
301.688	13.47
301.901	12.29
302.115	11.24
302.328	10.51
302.541	10.45
302.754	8.29
302.967	9.23
303.18	9.3
303.393	9.41
303.607	11.59
303.82	10.96
304.033	11.72
304.246	12.24
304.459	13.09
304.672	13.96
304.885	13.82
305.098	15.11
305.311	13.87
305.524	15.04
305.737	14.52
305.95	15.07
306.163	14.05
306.376	13.5
306.589	12.7
306.802	11.37
307.015	12.54
307.228	13.03
307.44	12.38
307.653	14.51
307.866	15.11
308.079	16.67
308.292	14.65
308.505	14.49
308.718	13.28
308.93	13.64
309.143	13.84
309.356	12.31
309.569	11.39
309.781	11.19
309.994	9.94
310.207	10.53
310.42	8.8
310.632	9.67
310.845	10.54
311.058	11.89
311.27	10.94
311.483	11.61
311.696	11.59
311.908	12.53
312.121	13.5
312.333	14.28
312.546	13.1
312.759	14.98
312.971	14.23
313.184	14.15
313.396	13.14
313.609	12.98
313.821	13.07
314.034	13.47
314.246	14.21
314.459	12.51
314.671	11.39
314.884	11.02
315.096	9.45
315.309	9
315.521	9.99
315.733	10.16
315.946	12.19
316.158	9.09
316.371	9.33
316.583	7.57
316.795	8.91
317.008	10.89
317.22	12.35
317.432	13.39
317.644	14.05
317.857	14.67
318.069	13.87
318.281	13.72
318.494	15.93
318.706	16.64
318.918	18.65
319.13	18.32
319.342	17.11
319.555	17.26
319.767	16.63
319.979	15.03
320.191	12.93
320.403	14.54
320.615	14.21
320.827	15.14
321.039	14.74
321.252	13.81
321.464	13.19
321.676	13.04
321.888	12.08
322.1	12.67
322.312	12.44
322.524	13.1
322.736	11.95
322.948	12.2
323.16	12.48
323.372	12.2
323.584	12.47
323.796	13.67
324.007	13.2
324.219	13.55
324.431	14.16
324.643	15.74
324.855	16.42
325.067	17.08
325.279	17.72
325.491	17.52
325.702	17
325.914	15.8
326.126	15.22
326.338	14.73
326.55	16.17
326.761	16.16
326.973	15.17
327.185	14.5
327.396	14.83
327.608	13.33
327.82	14.56
328.032	15.46
328.243	15.64
328.455	15.85
328.666	16.11
328.878	13.89
329.09	12.92
329.301	13.63
329.513	14.22
329.725	14.2
329.936	15.31
330.148	15.64
330.359	13.86
330.571	14.59
330.782	15.02
330.994	16.73
331.205	17.39
331.417	19.17
331.628	18.41
331.84	18.05
332.051	18.08
332.262	18.03
332.474	17.31
332.685	19.05
332.897	19.05
333.108	18.18
333.319	17.59
333.531	18.12
333.742	17.07
333.953	18.1
334.165	17.52
334.376	18.04
334.587	17.61
334.799	16.03
335.01	16.05
335.221	16.39
335.432	15.79
335.644	15.27
335.855	14.8
336.066	14.21
336.277	12.97
336.488	14.2
336.7	13.96
336.911	13.99
337.122	14.72
337.333	14
337.544	14.37
337.755	15.49
337.966	14.2
338.177	13.56
338.388	13.73
338.599	13.79
338.811	12.6
339.022	12.48
339.233	13.17
339.444	14.19
339.655	13.22
339.866	12.47
340.076	12.87
340.287	14.43
340.498	14.63
340.709	14.62
340.92	16.11
341.131	16.59
341.342	16.83
341.553	18.39
341.764	17.72
341.975	19.71
342.185	20.75
342.396	19.91
342.607	20.09
342.818	21.29
343.029	21.21
343.239	21.02
343.45	21.16
343.661	21.33
343.872	19.01
344.082	18.88
344.293	18.8
344.504	18.09
344.714	19.44
344.925	19.08
345.136	18.58
345.346	19.22
345.557	18.72
345.768	18.52
345.978	18.53
346.189	19.71
346.399	19.82
346.61	18.24
346.821	18.47
347.031	17.16
347.242	17.78
347.452	17.08
347.663	16.34
347.873	18.05
348.084	18.24
348.294	17.94
348.504	16.96
348.715	17.38
348.925	19.14
349.136	18.84
349.346	18.42
349.557	17.22
349.767	18.96
349.977	19.2
350.188	17.38
350.398	18.21
350.608	17.3
350.819	17.23
351.029	16.75
351.239	17.44
351.449	18.39
351.66	18.35
351.87	19.43
352.08	19.45
352.29	19.84
352.501	21.51
352.711	21.71
352.921	21.93
353.131	22.37
353.341	22.99
353.552	21.38
353.762	19.82
353.972	21.85
354.182	20.39
354.392	19.18
354.602	18.86
354.812	17.89
355.022	16.62
355.232	16.84
355.442	17.09
355.652	17.53
355.862	17.95
356.072	18.29
356.282	15.83
356.492	16.73
356.702	16.62
356.912	16.8
357.122	17.57
357.332	18.86
357.542	18.64
357.752	18.49
357.962	17.69
358.171	17.07
358.381	19.08
358.591	21
358.801	21.41
359.011	22.41
359.221	22.44
359.43	20.95
359.64	20.22
359.85	19.9
360.06	19.3
360.269	18.9
360.479	19.16
360.689	17.65
360.899	16.99
361.108	16.69
361.318	16.3
361.528	15.96
361.737	16.3
361.947	15.72
362.156	16.13
362.366	16.83
362.576	17.13
362.785	17.67
362.995	17.85
363.204	17.28
363.414	17.22
363.623	17.25
363.833	18.34
364.042	19.33
364.252	19.72
364.461	19.87
364.671	19.09
364.88	19.91
365.09	20.07
365.299	20.64
365.509	21.4
365.718	21.92
365.927	21.77
366.137	21.56
366.346	21.3
366.555	21.84
366.765	21.78
366.974	22.01
367.183	21.3
367.393	21.02
367.602	20.95
367.811	20.7
368.021	20.71
368.23	21.05
368.439	21.08
368.648	21.44
368.857	21.93
369.067	22.01
369.276	21.98
369.485	22.47
369.694	22.04
369.903	21.3
370.112	21.6
370.321	21.58
370.531	21.17
370.74	21.5
370.949	21.42
371.158	20.99
371.367	21.46
371.576	22.35
371.785	21.94
371.994	22.49
372.203	22.75
372.412	22.07
372.621	22.02
372.83	22.4
373.039	21.85
373.248	20.82
373.457	21.56
373.666	21.82
373.874	21.65
374.083	21.68
374.292	21.22
374.501	21
374.71	22.37
374.919	22.9
375.128	23.01
375.336	23.01
375.545	24.44
375.754	23.26
375.963	22.19
376.171	22.06
376.38	22.01
376.589	22.32
376.798	22.55
377.006	22.1
377.215	22.43
377.424	22.43
377.632	22.63
377.841	22.17
378.05	22.58
378.258	23.24
378.467	23.17
378.675	23.23
378.884	23
379.093	23.29
379.301	23.22
379.51	22.48
379.718	21.79
379.927	21.53
380.135	21.2
380.344	21.57
380.552	21.5
380.761	21.79
380.969	22.22
381.177	22.61
381.386	22.23
381.594	22.08
381.803	21.94
382.011	22.99
382.219	23.51
382.428	24.13
382.636	23.51
382.845	23.54
383.053	23.18
383.261	22.98
383.469	22.45
383.678	22.84
383.886	23.05
384.094	23.85
384.302	23.93
384.511	24.02
384.719	23.86
384.927	23.79
385.135	24.28
385.343	24.7
385.552	25.47
385.76	26.11
385.968	26.32
386.176	26.85
386.384	26.35
386.592	25.78
386.8	25.96
387.008	25.75
387.216	26.32
387.424	26.27
387.633	26.15
387.841	25.59
388.049	25.43
388.257	25.37
388.465	24.85
388.672	25.1
388.88	25.9
389.088	25.67
389.296	26.3
389.504	26.39
389.712	26.06
389.92	25.98
390.128	26.19
390.336	26.69
390.544	26.28
390.751	26.78
390.959	26.62
391.167	26.24
391.375	26.11
391.583	25.89
391.79	25.67
391.998	26.14
392.206	26.55
392.414	26.53
392.621	26.44
392.829	26.65
393.037	26.49
393.244	26.85
393.452	26.65
393.66	27.29
393.867	27.37
394.075	27.46
394.283	27.77
394.49	27.5
394.698	27.86
394.905	27.86
395.113	28.08
395.32	28.45
395.528	28.36
395.735	28.7
395.943	28.54
396.15	28.54
396.358	29.12
396.565	28.96
396.773	29.37
396.98	29.59
397.188	29.8
397.395	29.89
397.602	29.71
397.81	29.99
398.017	29.96
398.225	29.83
398.432	30.33
398.639	30.09
398.847	30.24
399.054	30.16
399.261	30.16
399.468	29.97
399.676	29.94
399.883	30
400.09	29.95
400.297	30.44
400.505	30.83
400.712	30.53
400.919	31.06
401.126	31.2
401.333	31.61
401.54	31.39
401.748	31.51
401.955	31.8
402.162	32.37
402.369	32.7
402.576	32.7
402.783	32.29
402.99	32.73
403.197	32.46
403.404	32.25
403.611	32.27
403.818	32.58
404.025	32.74
404.232	32.93
404.439	32.82
404.646	32.91
404.853	32.97
405.06	33.14
405.267	33
405.474	32.99
405.681	33.11
405.887	33.09
406.094	33.08
406.301	33.54
406.508	33.59
406.715	33.55
406.922	33.45
407.128	33.61
407.335	33.8
407.542	34.01
407.749	34.25
407.955	34.51
408.162	34.3
408.369	34.13
408.575	33.74
408.782	33.72
408.989	33.72
409.195	33.52
409.402	33.37
409.609	33.26
409.815	33.18
410.022	33.28
410.228	33.47
410.435	33.75
410.642	33.79
410.848	33.92
411.055	33.72
411.261	33.54
411.468	33.88
411.674	33.92
411.881	33.98
412.087	33.61
412.294	33.47
412.5	33.08
412.706	33.27
412.913	33.49
413.119	33.36
413.326	33.52
413.532	33.54
413.738	33.29
413.945	33.3
414.151	33.22
414.357	33.53
414.564	33.49
414.77	33.5
414.976	33.28
415.182	33.1
415.389	33.3
415.595	33.28
415.801	33.3
416.007	33.33
416.214	33.07
416.42	32.73
416.626	32.66
416.832	32.77
417.038	32.67
417.244	32.61
417.45	32.56
417.657	32.34
417.863	32.42
418.069	32.61
418.275	32.54
418.481	32.37
418.687	32.59
418.893	32.45
419.099	32.17
419.305	32.03
419.511	31.98
419.717	31.9
419.923	31.98
420.129	31.81
420.335	31.75
420.541	31.78
420.746	32
420.952	32.12
421.158	32.26
421.364	32.28
421.57	32.4
421.776	32.34
421.982	32.28
422.187	32.09
422.393	32.2
422.599	32.04
422.805	31.98
423.01	31.98
423.216	31.74
423.422	31.65
423.628	31.58
423.833	31.57
424.039	31.49
424.245	31.64
424.45	31.67
424.656	31.45
424.862	31.53
425.067	31.52
425.273	31.48
425.478	31.59
425.684	31.64
425.889	31.76
426.095	31.63
426.301	31.69
426.506	31.52
426.712	31.66
426.917	31.94
427.123	31.8
427.328	31.91
427.533	31.91
427.739	31.74
427.944	31.75
428.15	31.63
428.355	31.68
428.561	31.68
428.766	31.69
428.971	31.62
429.177	31.57
429.382	31.54
429.587	31.38
429.793	31.38
429.998	31.36
430.203	31.22
430.408	31.41
430.614	31.62
430.819	31.43
431.024	31.55
431.229	31.34
431.434	31.18
431.64	31.42
431.845	31.37
432.05	31.3
432.255	31.33
432.46	31.3
432.665	31.25
432.87	31.12
433.076	31.41
433.281	31.38
433.486	31.47
433.691	31.63
433.896	31.48
434.101	31.52
434.306	31.5
434.511	31.49
434.716	31.4
434.921	31.57
435.126	31.59
435.331	31.47
435.535	31.42
435.74	31.28
435.945	31.06
436.15	31.06
436.355	30.99
436.56	31.03
436.765	31.25
436.97	31.24
437.174	31.03
437.379	31.13
437.584	31.14
437.789	31.01
437.993	31.34
438.198	31.48
438.403	31.46
438.608	31.66
438.812	31.51
439.017	31.31
439.222	31.15
439.426	31.06
439.631	30.97
439.836	30.95
440.04	31.12
440.245	31.03
440.45	30.81
440.654	30.82
440.859	30.62
441.063	30.58
441.268	30.62
441.472	30.8
441.677	31.01
441.881	30.96
442.086	30.86
442.29	30.86
442.495	30.84
442.699	31.02
442.904	30.96
443.108	31.15
443.312	31.2
443.517	31.24
443.721	31.18
443.925	30.96
444.13	30.93
444.334	31.01
444.538	30.75
444.743	30.71
444.947	30.76
445.151	30.77
445.356	30.72
445.56	30.74
445.764	30.72
445.968	30.86
446.173	30.88
446.377	30.9
446.581	30.98
446.785	31.08
446.989	31.03
447.193	30.88
447.398	30.76
447.602	30.69
447.806	30.69
448.01	30.7
448.214	30.54
448.418	30.38
448.622	30.47
448.826	30.39
449.03	30.4
449.234	30.41
449.438	30.38
449.642	30.54
449.846	30.41
450.05	30.48
450.254	30.45
450.458	30.45
450.662	30.6
450.866	30.43
451.069	30.62
451.273	30.43
451.477	30.26
451.681	30.16
451.885	30.14
452.089	30.1
452.292	30.05
452.496	30.09
452.7	30.09
452.904	30.09
453.107	30.11
453.311	29.76
453.515	29.77
453.719	30.03
453.922	30.27
454.126	30.2
454.33	30.29
454.533	30.29
454.737	30.15
454.94	30.13
455.144	30.19
455.348	30.11
455.551	30.21
455.755	30.53
455.958	30.49
456.162	30.3
456.365	30.44
456.569	30.34
456.772	30.1
456.976	30.26
457.179	30.24
457.383	30.23
457.586	30.1
457.79	30.06
457.993	29.97
458.196	29.79
458.4	29.93
458.603	29.84
458.807	29.94
459.01	30.32
459.213	30.25
459.417	30.37
459.62	30.46
459.823	30.57
460.026	30.51
460.23	30.45
460.433	30.57
460.636	30.55
460.839	30.54
461.042	30.61
461.246	30.36
461.449	30.35
461.652	30.23
461.855	30.16
462.058	30.2
462.261	30.46
462.464	30.51
462.668	30.49
462.871	30.6
463.074	30.77
463.277	30.76
463.48	31.01
463.683	31.23
463.886	31.44
464.089	31.49
464.292	31.5
464.495	31.18
464.698	31.04
464.901	31.12
465.104	31.24
465.306	31.15
465.509	31.22
465.712	31.2
465.915	31.11
466.118	30.96
466.321	31.09
466.524	31.03
466.726	31.11
466.929	31.43
467.132	31.22
467.335	31.1
467.538	31.11
467.74	31.13
467.943	30.85
468.146	30.76
468.348	30.92
468.551	30.8
468.754	30.98
468.956	31.01
469.159	30.77
469.362	30.95
469.564	31.05
469.767	31.23
469.969	31.19
470.172	31.51
470.375	31.73
470.577	31.72
470.78	31.67
470.982	31.52
471.185	31.61
471.387	31.63
471.59	31.55
471.792	31.51
471.995	31.44
472.197	31.25
472.399	31.32
472.602	31.33
472.804	31.35
473.007	31.34
473.209	31.41
473.411	31.48
473.614	31.52
473.816	31.67
474.018	31.57
474.22	31.62
474.423	31.65
474.625	31.55
474.827	31.32
475.03	31.34
475.232	31.34
475.434	31.44
475.636	31.38
475.838	31.4
476.04	31.42
476.243	31.49
476.445	31.52
476.647	31.63
476.849	31.49
477.051	31.53
477.253	31.55
477.455	31.36
477.657	31.31
477.859	31.3
478.061	31.36
478.263	31.42
478.465	31.29
478.667	31.23
478.869	31.36
479.071	31.51
479.273	31.56
479.475	31.49
479.677	31.67
479.879	31.52
480.081	31.43
480.283	31.36
480.485	31.28
480.686	31.44
480.888	31.38
481.09	31.27
481.292	31.3
481.494	31.27
481.695	31.24
481.897	31.25
482.099	31.26
482.301	31.39
482.502	31.34
482.704	31.29
482.906	31.21
483.107	31.17
483.309	31.14
483.511	31.1
483.712	31.03
483.914	31.06
484.115	31.08
484.317	31.08
484.519	31.04
484.72	31.05
484.922	31.02
485.123	31.01
485.325	31.03
485.526	31.08
485.728	31.06
485.929	31.14
486.131	31.06
486.332	31.02
486.534	31
486.735	30.95
486.936	30.99
487.138	30.97
487.339	31.02
487.541	30.93
487.742	30.86
487.943	30.85
488.144	30.86
488.346	30.92
488.547	30.99
488.748	31.03
488.95	31.05
489.151	31.07
489.352	31.09
489.553	31.01
489.755	31.13
489.956	31.15
490.157	31.18
490.358	31.12
490.559	31.13
490.76	30.94
490.961	30.86
491.163	30.85
491.364	30.75
491.565	30.72
491.766	30.8
491.967	30.81
492.168	30.85
492.369	30.91
492.57	30.94
492.771	30.87
492.972	30.97
493.173	31.05
493.374	31.19
493.575	31.15
493.776	31.35
493.976	31.43
494.177	31.4
494.378	31.36
494.579	31.37
494.78	31.5
494.981	31.66
495.182	31.65
495.382	31.67
495.583	31.43
495.784	31.56
495.985	31.46
496.185	31.51
496.386	31.56
496.587	31.58
496.788	31.46
496.988	31.35
497.189	31.38
497.39	31.3
497.59	31.34
497.791	31.44
497.992	31.43
498.192	31.4
498.393	31.3
498.593	31.24
498.794	31.36
498.994	31.46
499.195	31.39
499.395	31.36
499.596	31.42
499.796	31.34
499.997	31.32
500.197	31.41
500.398	31.41
500.598	31.45
500.799	31.6
500.999	31.48
501.199	31.32
501.4	31.4
501.6	31.37
501.801	31.44
502.001	31.56
502.201	31.56
502.402	31.56
502.602	31.69
502.802	31.48
503.002	31.34
503.203	31.4
503.403	31.44
503.603	31.42
503.803	31.45
504.003	31.41
504.204	31.37
504.404	31.51
504.604	31.6
504.804	31.51
505.004	31.56
505.204	31.71
505.404	31.63
505.604	31.62
505.804	31.64
506.005	31.72
506.205	31.82
506.405	31.81
506.605	31.69
506.805	31.76
507.005	31.8
507.204	31.92
507.404	31.95
507.604	31.95
507.804	31.96
508.004	32.1
508.204	31.9
508.404	31.8
508.604	31.77
508.804	31.9
509.003	31.81
509.203	31.78
509.403	31.76
509.603	31.67
509.803	31.85
510.002	31.98
510.202	31.87
510.402	32.04
510.602	32.04
510.801	32.09
511.001	32.07
511.201	32.09
511.4	32.13
511.6	32.24
511.8	32.29
511.999	32.19
512.199	32.15
512.398	32.1
512.598	31.99
512.797	32.17
512.997	32.13
513.197	32.12
513.396	32.08
513.596	32.12
513.795	31.95
513.994	32.01
514.194	32.02
514.393	32.16
514.593	32.28
514.792	32.4
514.992	32.22
515.191	32.24
515.39	32.24
515.59	32.12
515.789	32.1
515.988	32.33
516.188	32.32
516.387	32.3
516.586	32.25
516.786	32.23
516.985	32.27
517.184	32.41
517.383	32.52
517.582	32.42
517.782	32.58
517.981	32.63
518.18	32.57
518.379	32.71
518.578	32.77
518.777	32.72
518.976	32.73
519.176	32.61
519.375	32.64
519.574	32.53
519.773	32.58
519.972	32.59
520.171	32.57
520.37	32.62
520.569	32.42
520.768	32.45
520.967	32.69
521.166	32.86
521.365	33.17
521.564	33.21
521.762	33.32
521.961	33.44
522.16	33.47
522.359	33.53
522.558	33.4
522.757	33.5
522.956	33.42
523.154	33.24
523.353	33.14
523.552	33.04
523.751	32.97
523.949	33
524.148	33
524.347	32.95
524.546	32.98
524.744	32.89
524.943	32.78
525.142	32.76
525.34	32.69
525.539	32.68
525.737	32.56
525.936	32.47
526.135	32.5
526.333	32.53
526.532	32.51
526.73	32.41
526.929	32.53
527.127	32.63
527.326	32.74
527.524	32.84
527.723	32.86
527.921	32.91
528.12	32.95
528.318	32.88
528.516	32.85
528.715	32.8
528.913	32.82
529.112	32.81
529.31	32.8
529.508	32.77
529.707	32.68
529.905	32.66
530.103	32.6
530.301	32.55
530.5	32.6
530.698	32.6
530.896	32.7
531.094	32.73
531.293	32.73
531.491	32.73
531.689	32.71
531.887	32.76
532.085	32.8
532.283	32.87
532.481	32.8
532.68	32.76
532.878	32.73
533.076	32.68
533.274	32.63
533.472	32.63
533.67	32.59
533.868	32.62
534.066	32.58
534.264	32.56
534.462	32.48
534.66	32.57
534.858	32.58
535.056	32.62
535.253	32.7
535.451	32.8
535.649	32.75
535.847	32.71
536.045	32.72
536.243	32.72
536.441	32.66
536.638	32.75
536.836	32.77
537.034	32.86
537.232	32.83
537.43	32.83
537.627	32.75
537.825	32.73
538.023	32.91
538.22	32.88
538.418	33.03
538.616	33.17
538.813	33.23
539.011	33.38
539.209	33.33
539.406	33.43
539.604	33.49
539.801	33.4
539.999	33.52
540.196	33.32
540.394	33.29
540.591	33.31
540.789	33.25
540.986	33.17
541.184	33.01
541.381	33.01
541.579	33.04
541.776	32.95
541.974	32.99
542.171	33.01
542.368	32.99
542.566	33
542.763	32.86
542.96	32.89
543.158	32.86
543.355	32.88
543.552	32.92
543.75	32.82
543.947	32.87
544.144	32.9
544.341	32.91
544.539	32.99
544.736	32.88
544.933	32.83
545.13	32.76
545.327	32.76
545.524	32.77
545.722	32.65
545.919	32.7
546.116	32.74
546.313	32.79
546.51	32.72
546.707	32.82
546.904	32.97
547.101	33.17
547.298	33.21
547.495	33.24
547.692	33.25
547.889	33.25
548.086	33.23
548.283	33.17
548.48	33.2
548.677	33.14
548.874	33.05
549.07	33.06
549.267	33
549.464	33.14
549.661	33.17
549.858	33.15
550.055	33.15
550.251	33.18
550.448	33.19
550.645	33.04
550.842	32.99
551.038	33.02
551.235	33.25
551.432	33.22
551.628	33.14
551.825	33.22
552.022	33.26
552.218	33.24
552.415	33.07
552.612	33.07
552.808	33.18
553.005	33.15
553.201	33.14
553.398	32.94
553.594	32.83
553.791	32.96
553.987	32.98
554.184	33.01
554.38	33.15
554.577	33.16
554.773	33.45
554.97	33.37
555.166	33.58
555.362	33.56
555.559	33.47
555.755	33.67
555.952	33.28
556.148	33.01
556.344	33.02
556.541	33.01
556.737	33.2
556.933	32.91
557.129	32.86
557.326	32.77
557.522	32.8
557.718	32.8
557.914	32.65
558.11	32.84
558.307	33.04
558.503	33.21
558.699	33.08
558.895	32.75
559.091	32.84
559.287	32.63
559.483	32.49
559.679	32.23
559.876	32.3
560.072	32.57
560.268	32.6
560.464	32.57
560.66	32.52
560.856	32.51
561.052	32.62
561.247	32.54
561.443	32.87
561.639	33.14
561.835	33.28
562.031	33.22
562.227	32.89
562.423	32.83
562.619	32.97
562.815	32.81
563.01	32.73
563.206	32.92
563.402	32.94
563.598	32.86
563.793	32.61
563.989	32.73
564.185	32.8
564.381	32.87
564.576	32.91
564.772	32.66
564.968	32.67
565.163	32.72
565.359	32.58
565.555	32.34
565.75	32.44
565.946	32.66
566.141	32.45
566.337	32.35
566.532	32.21
566.728	32.23
566.923	32.33
567.119	32.37
567.314	32.41
567.51	32.6
567.705	32.76
567.901	32.63
568.096	32.51
568.292	32.64
568.487	32.59
568.682	32.67
568.878	32.59
569.073	32.57
569.268	32.52
569.464	32.53
569.659	32.31
569.854	32.32
570.05	32.32
570.245	32.09
570.44	32.17
570.635	32.29
570.831	32.32
571.026	32.3
571.221	32.36
571.416	32.27
571.611	32.18
571.806	32.27
572.002	32.23
572.197	32.09
572.392	32.24
572.587	32.24
572.782	32.24
572.977	32.21
573.172	32.23
573.367	32.13
573.562	32.29
573.757	32.23
573.952	32.3
574.147	32.55
574.342	32.78
574.537	32.9
574.732	32.73
574.927	32.68
575.121	32.72
575.316	32.7
575.511	32.7
575.706	32.8
575.901	32.87
576.096	32.65
576.29	32.35
576.485	32.12
576.68	31.9
576.875	32.04
577.069	31.95
577.264	32.06
577.459	32.1
577.654	32.09
577.848	31.85
578.043	31.81
578.238	31.85
578.432	31.88
578.627	32.07
578.821	32.16
579.016	32.25
579.21	32.48
579.405	32.3
579.6	32.15
579.794	32.27
579.989	32.4
580.183	32.47
580.378	32.8
580.572	32.95
580.766	33.13
580.961	33.26
581.155	33.26
581.35	33.17
581.544	33.09
581.738	33.27
581.933	33.01
582.127	33.02
582.321	33.05
582.516	33
582.71	33.1
582.904	32.81
583.099	32.76
583.293	32.7
583.487	32.83
583.681	33.21
583.875	33.18
584.07	33.33
584.264	33.21
584.458	33.37
584.652	33.26
584.846	33.09
585.04	33.13
585.234	33.14
585.428	33.17
585.623	32.9
585.817	32.66
586.011	32.65
586.205	32.74
586.399	32.87
586.593	32.78
586.787	32.91
586.981	32.88
587.174	32.98
587.368	33.01
587.562	33.01
587.756	33.1
587.95	33.05
588.144	33.08
588.338	33.15
588.532	32.96
588.725	33.01
588.919	32.83
589.113	32.83
589.307	32.93
589.501	32.89
589.694	32.92
589.888	32.88
590.082	32.82
590.275	32.74
590.469	32.63
590.663	32.74
590.856	32.55
591.05	32.55
591.244	32.41
591.437	32.44
591.631	32.42
591.824	32.33
592.018	32.37
592.212	32.43
592.405	32.31
592.599	32.37
592.792	32.23
592.986	32.39
593.179	32.37
593.372	32.62
593.566	32.47
593.759	32.38
593.953	32.55
594.146	32.71
594.339	32.91
594.533	33.15
594.726	33.16
594.92	33.27
595.113	33.28
595.306	33.34
595.499	33.25
595.693	33.28
595.886	33.27
596.079	33.09
596.272	33.13
596.466	33.12
596.659	32.89
596.852	32.79
597.045	32.82
597.238	32.75
597.431	32.59
597.624	32.53
597.818	32.54
598.011	32.64
598.204	32.51
598.397	32.44
598.59	32.28
598.783	32.35
598.976	32.26
599.169	32.31
599.362	32.2
599.555	32.39
599.748	32.41
599.941	32.34
600.134	32.14
600.326	32.11
600.519	32.06
600.712	31.72
600.905	31.88
601.098	32.23
601.291	32.34
601.483	32.52
601.676	32.7
601.869	32.97
602.062	32.74
602.255	32.94
602.447	33.11
602.64	33
602.833	33.23
603.025	33.18
603.218	32.9
603.411	32.8
603.603	32.71
603.796	32.56
603.989	32.33
604.181	32.44
604.374	32.29
604.566	32.24
604.759	32.38
604.951	32.68
605.144	32.53
605.336	32.63
605.529	32.42
605.721	32.53
605.914	32.68
606.106	32.79
606.299	32.88
606.491	33.1
606.683	33.19
606.876	33.19
607.068	33.03
607.26	33.12
607.453	33.1
607.645	33.33
607.837	32.98
608.03	32.81
608.222	32.9
608.414	32.98
608.606	32.93
608.799	32.96
608.991	33
609.183	32.84
609.375	33.14
609.567	33.15
609.759	33.27
609.952	33.64
610.144	33.47
610.336	33.39
610.528	33.36
610.72	33.43
610.912	33.38
611.104	33.34
611.296	33.36
611.488	33.19
611.68	33.3
611.872	32.96
612.064	32.79
612.256	32.94
612.448	32.88
612.64	32.65
612.832	32.62
613.023	32.78
613.215	32.7
613.407	32.73
613.599	32.55
613.791	32.3
613.983	32.44
614.174	32.63
614.366	32.69
614.558	32.69
614.75	33.05
614.941	33.1
615.133	32.93
615.325	32.99
615.516	32.97
615.708	33.31
615.9	33.72
616.091	33.69
616.283	33.15
616.475	33.22
616.666	33.23
616.858	33.36
617.049	33.05
617.241	33.36
617.432	33.25
617.624	33.43
617.815	33.1
618.007	32.78
618.198	32.93
618.39	33.16
618.581	33.2
618.773	33.4
618.964	33.11
619.155	33.49
619.347	33.09
619.538	33.16
619.729	32.96
619.921	33.04
620.112	33.13
620.303	32.82
620.494	32.93
620.686	33.09
620.877	33.03
621.068	33.22
621.259	33.09
621.451	33.08
621.642	33.26
621.833	33.65
622.024	33.66
622.215	33.54
622.406	33.69
622.597	33.71
622.788	33.41
622.98	33.47
623.171	33.44
623.362	33.39
623.553	33.34
623.744	32.92
623.935	32.81
624.126	33.03
624.317	33
624.508	33.01
624.698	32.94
624.889	32.78
625.08	32.63
625.271	32.47
625.462	32.43
625.653	32.66
625.844	32.75
626.034	32.65
626.225	32.58
626.416	32.45
626.607	32.44
626.798	32.58
626.988	32.85
627.179	32.98
627.37	33
627.56	33.37
627.751	33.33
627.942	33.48
628.132	33.48
628.323	33.36
628.514	33.68
628.704	33.72
628.895	33.71
629.085	33.47
629.276	33.24
629.466	33.27
629.657	32.61
629.847	32.34
630.038	32.37
630.228	32.3
630.419	32.46
630.609	32.23
630.8	32.13
630.99	31.76
631.181	31.88
631.371	32.2
631.561	31.94
631.752	32.41
631.942	32.62
632.132	33.01
632.323	33.43
632.513	33.21
632.703	33.17
632.893	33.44
633.084	33.65
633.274	33.54
633.464	33.32
633.654	33.46
633.844	33.21
634.034	33.38
634.225	32.89
634.415	32.31
634.605	32.28
634.795	32.51
634.985	32.54
635.175	32.87
635.365	33.16
635.555	33.34
635.745	33.31
635.935	33.59
636.125	33.35
636.315	33.48
636.505	33.52
636.695	33.66
636.885	33.8
637.075	33.61
637.265	33.52
637.455	33.22
637.644	33.13
637.834	33.31
638.024	32.9
638.214	33.34
638.404	33.69
638.593	33.99
638.783	33.97
638.973	34.1
639.163	33.93
639.352	33.78
639.542	34.05
639.732	34.31
639.921	33.91
640.111	34.17
640.301	33.69
640.49	33.2
640.68	33.13
640.87	33.02
641.059	32.44
641.249	32.86
641.438	33.13
641.628	33.11
641.817	33.02
642.007	33.79
642.196	33.79
642.386	34.13
642.575	34.4
642.764	34.26
642.954	34.59
643.143	35.15
643.333	35.1
643.522	34.9
643.711	34.64
643.901	34.62
644.09	34.05
644.279	34.16
644.469	33.54
644.658	33.56
644.847	33.51
645.036	33.16
645.226	33.11
645.415	33.25
645.604	33.13
645.793	32.99
645.982	32.5
646.171	32.62
646.361	32.49
646.55	32.87
646.739	32.78
646.928	32.97
647.117	33.45
647.306	33.27
647.495	33.1
647.684	33.41
647.873	33.93
648.062	34.32
648.251	35.11
648.44	35.46
648.629	35.48
648.818	34.98
649.007	35.1
649.196	34.84
649.384	35.07
649.573	35.29
649.762	35.19
649.951	34.92
650.14	34.79
650.328	34.23
650.517	33.83
650.706	34.06
650.895	34.53
651.083	34.25
651.272	34.58
651.461	34.62
651.65	34.26
651.838	33.99
652.027	33.82
652.216	33.92
652.404	33.9
652.593	33.98
652.781	33.68
652.97	33.18
653.158	33.08
653.347	32.5
653.535	32.62
653.724	32.17
653.912	32.57
654.101	33
654.289	32.66
654.478	32.77
654.666	32.9
654.855	33.19
655.043	33.66
655.231	33.81
655.42	33.85
655.608	33.39
655.796	34.34
655.985	34.21
656.173	34
656.361	34.47
656.55	34.14
656.738	34.06
656.926	34.1
657.114	34.25
657.302	34.05
657.491	34.38
657.679	34.54
657.867	33.91
658.055	33.63
658.243	33.86
658.431	33.94
658.619	33.97
658.807	33.94
658.996	33.96
659.184	33.8
659.372	34.15
659.56	33.8
659.748	33.49
659.936	33.81
660.124	33.62
660.311	33.25
660.499	33.14
660.687	33.36
660.875	33.44
661.063	33.35
661.251	33
661.439	32.63
661.627	33.21
661.814	33.45
662.002	33.53
662.19	34.21
662.378	34.43
662.565	34.49
662.753	34.27
662.941	33.91
663.129	33.82
663.316	34.47
663.504	34.46
663.692	34.4
663.879	34.28
664.067	33.94
664.254	33.58
664.442	33.78
664.63	33.63
664.817	33.98
665.005	33.92
665.192	34.03
665.38	33.6
665.567	33.39
665.755	33.12
665.942	33.35
666.13	33.65
666.317	33.68
666.504	33.62
666.692	33.37
666.879	33.23
667.067	33.65
667.254	33.78
667.441	34.15
667.629	35.05
667.816	34.84
668.003	34.87
668.19	34.44
668.378	34.51
668.565	34.35
668.752	34.64
668.939	34.1
669.127	33.9
669.314	33.8
669.501	33.53
669.688	33.15
669.875	33.71
670.062	33.68
670.249	33.69
670.436	33.73
670.623	33.5
670.81	33.35
670.997	33.55
671.184	33.58
671.371	33.48
671.558	33.17
671.745	33.54
671.932	32.85
672.119	32.2
672.306	32.68
672.493	32.75
672.68	33.14
672.867	32.9
673.054	33.39
673.24	33.34
673.427	33.62
673.614	33.9
673.801	33.98
673.988	34.3
674.174	34.57
674.361	34.35
674.548	33.99
674.734	33.87
674.921	33.96
675.108	33.85
675.294	33.66
675.481	33.09
675.668	33.34
675.854	32.84
676.041	32.64
676.227	32.89
676.414	33.05
676.601	33.31
676.787	33.29
676.974	33.58
677.16	33.79
677.347	34.51
677.533	35.12
677.719	34.93
677.906	35.06
678.092	35.4
678.279	35.21
678.465	34.76
678.651	34.35
678.838	34.31
679.024	34.18
679.21	33.94
679.397	33.33
679.583	32.71
679.769	32.44
679.955	32.36
680.142	32.12
680.328	32.26
680.514	32.19
680.7	32.52
680.886	32.47
681.073	32.63
681.259	32.63
681.445	32.72
681.631	33.07
681.817	33.02
682.003	33.03
682.189	33.05
682.375	33.1
682.561	33.43
682.747	33.49
682.933	33.22
683.119	32.99
683.305	32.72
683.491	33.12
683.677	33.27
683.863	33.36
684.049	33.35
684.235	33.28
684.42	33.27
684.606	33.22
684.792	33.02
684.978	33.86
685.164	34.15
685.349	34.28
685.535	34.16
685.721	33.69
685.907	34.12
686.092	34.65
686.278	34.52
686.464	34.99
686.649	35.15
686.835	35.27
687.021	35.03
687.206	34.93
687.392	35.07
687.577	35.3
687.763	35.43
687.948	35.9
688.134	35.44
688.319	35.63
688.505	35.63
688.69	35.33
688.876	35.54
689.061	35.31
689.247	35.47
689.432	35.22
689.618	35.06
689.803	35.19
689.988	35.32
690.174	35.56
690.359	35.66
690.544	34.81
690.73	35.31
690.915	35.12
691.1	35.02
691.285	34.74
691.471	35.53
691.656	35.67
691.841	35.99
692.026	35.19
692.211	34.83
692.396	34.83
692.582	35.11
692.767	34.45
692.952	33.86
693.137	34.14
693.322	34.22
693.507	33.25
693.692	33.01
693.877	32.55
694.062	32.71
694.247	32.89
694.432	33.21
694.617	32.83
694.802	32.43
694.987	32.88
695.172	32.7
695.357	32.19
695.541	32.21
695.726	32.3
695.911	32.46
696.096	31.93
696.281	31.73
696.466	31.3
696.65	31.99
696.835	32.52
697.02	32.94
697.204	33.39
697.389	33.54
697.574	33.77
697.759	34.02
697.943	33.9
698.128	33.82
698.312	34.06
698.497	34.32
698.682	34.22
698.866	34.24
699.051	34.02
699.235	33.51
699.42	33.55
699.604	33.92
699.789	33.68
699.973	33.86
700.158	34.29
700.342	34.14
700.527	34.15
700.711	34.09
700.895	34.12
701.08	33.83
701.264	33.83
701.448	34.1
701.633	33.77
701.817	33.36
702.001	33.26
702.186	32.85
702.37	33.15
702.554	32.97
702.738	32.65
702.923	32.88
703.107	32.5
703.291	32.83
703.475	32.93
703.659	32.26
703.843	32.46
704.027	32.33
704.212	32.52
704.396	32.04
704.58	32.41
704.764	33.03
704.948	33.1
705.132	33.57
705.316	33.77
705.5	33.11
705.684	33.46
705.868	33.54
706.052	33.85
706.235	34.51
706.419	34.69
706.603	34.14
706.787	34.44
706.971	34.63
707.155	34.71
707.339	34.82
707.522	35.8
707.706	36.02
707.89	35.76
708.074	35.91
708.257	35.13
708.441	35.36
708.625	35.17
708.808	34.84
708.992	34.77
709.176	34.45
709.359	33.83
709.543	33.32
709.727	32.97
709.91	33.65
710.094	33.73
710.277	33.86
710.461	33.2
710.644	33.45
710.828	33.85
711.011	33.52
711.195	34.27
711.378	34.75
711.562	34.59
711.745	34.29
711.928	33.4
712.112	33.47
712.295	34.07
712.478	34.33
712.662	34.95
712.845	33.85
713.028	34.18
713.212	34.03
713.395	34.38
713.578	34.63
713.761	35.27
713.945	36.11
714.128	35.51
714.311	35.02
714.494	35.27
714.677	34.65
714.86	35.37
715.043	34.98
715.227	35.19
715.41	34.97
715.593	34.82
715.776	34.89
715.959	34.52
716.142	34.24
716.325	34.17
716.508	33.75
716.691	33.79
716.874	33.44
717.057	33.45
717.239	32.87
717.422	32.08
717.605	32.39
717.788	32.27
717.971	32.64
718.154	33.51
718.337	34.43
718.519	34.5
718.702	34.49
718.885	34.94
719.068	34.34
719.25	34.85
719.433	36.1
719.616	36.2
719.798	36.13
719.981	35.02
720.164	35.2
720.346	34.75
720.529	35.79
720.712	35.66
720.894	35.72
721.077	36.22
721.259	36.06
721.442	35.32
721.624	34.45
721.807	34.29
721.989	35.29
722.172	33.95
722.354	34.12
722.537	33.24
722.719	33.48
722.901	34.39
723.084	34.58
723.266	34.54
723.448	34.64
723.631	34.79
723.813	35.12
723.995	34.17
724.178	35.59
724.36	35.29
724.542	36.45
724.724	36.63
724.907	35.52
725.089	37.19
725.271	37.1
725.453	36.66
725.635	36.86
725.817	36.72
725.999	37.03
726.181	36.07
726.364	35.14
726.546	34.14
726.728	33.87
726.91	33.85
727.092	31.84
727.274	32.35
727.456	32.75
727.638	33.09
727.819	32.64
728.001	32.49
728.183	32.44
728.365	32.71
728.547	32.58
728.729	33.63
728.911	33.85
729.093	33.73
729.274	32.79
729.456	32.57
729.638	32.17
729.82	33.15
730.001	34.2
730.183	34.87
730.365	36.06
730.546	36.27
730.728	35.88
730.91	36.35
731.091	36.63
731.273	37.9
731.455	38.14
731.636	38.7
731.818	38.99
731.999	39.45
732.181	39.11
732.362	38.69
732.544	39.08
732.725	38.29
732.907	36.98
733.088	37.94
733.27	37.43
733.451	37.68
733.633	36.83
733.814	36.06
733.995	35.36
734.177	36.44
734.358	35.82
734.539	35.05
734.721	35.87
734.902	36.65
735.083	35.83
735.264	36.41
735.446	36.93
735.627	37.85
735.808	38.05
735.989	36.79
736.17	35.42
736.351	36.2
736.533	36.9
736.714	36.75
736.895	37.52
737.076	37.47
737.257	36.58
737.438	36.39
737.619	37.09
737.8	36.97
737.981	38.42
738.162	38.4
738.343	37.94
738.524	37.57
738.705	36.82
738.886	36.45
739.067	35.79
739.247	35.27
739.428	33.54
739.609	32.31
739.79	31.29
739.971	30.86
740.151	31.12
740.332	30.59
740.513	30.27
740.694	30.24
740.874	30.17
741.055	30.94
741.236	33.22
741.417	34.51
741.597	34.12
741.778	35.64
741.958	35.77
742.139	35.6
742.32	35.48
742.5	34.88
742.681	34.99
742.861	35.46
743.042	35.89
743.222	33.65
743.403	33.03
743.583	34.93
743.764	34.75
743.944	34.63
744.124	35.42
744.305	35.65
744.485	37.75
744.666	37.65
744.846	37.06
745.026	37.74
745.207	38.35
745.387	40
745.567	38.2
745.747	37.77
745.928	37.46
746.108	36.57
746.288	36.48
746.468	35.66
746.648	36.77
746.829	37.18
747.009	36.21
747.189	36.79
747.369	35.81
747.549	36.72
747.729	36.21
747.909	36.52
748.089	35.32
748.269	36.58
748.449	36.12
748.629	34.68
748.809	33.1
748.989	33.39
749.169	32.37
749.349	33.55
749.529	33.98
749.709	34.98
749.889	33.97
750.068	34.29
750.248	34.51
750.428	34.07
750.608	34.11
750.788	35.5
750.967	35.31
751.147	36.15
751.327	35.3
751.507	35.22
751.686	34.98
751.866	34.45
752.046	35.69
752.225	35.93
752.405	36.14
752.585	36.61
752.764	35.84
752.944	35.4
753.123	35.83
753.303	36.37
753.482	35.59
753.662	35.91
753.841	37.95
754.021	36.97
754.2	35.76
754.38	36.29
754.559	38.37
754.739	39.58
754.918	39.11
755.097	37.47
755.277	36.26
755.456	36.73
755.635	36.49
755.815	36.4
755.994	35.58
756.173	35.52
756.352	35.2
756.532	33.21
756.711	32.24
756.89	33.23
757.069	34.42
757.248	34.51
757.427	35.37
757.607	35.42
757.786	34.68
757.965	36.46
758.144	36.26
758.323	36.5
758.502	36.64
758.681	37.74
758.86	37.61
759.039	38.3
759.218	38.82
759.397	37.64
759.576	36.96
759.755	36.93
759.934	36.12
760.113	36.94
760.291	37.39
760.47	37.65
760.649	37.65
760.828	37.22
761.007	36.13
761.186	36.19
761.364	36.81
761.543	37.02
761.722	36.82
761.901	37.03
762.079	37.22
762.258	35.7
762.437	34.65
762.615	34.33
762.794	35.54
762.972	35.73
763.151	34.4
763.33	34.28
763.508	33.58
763.687	33.8
763.865	34.9
764.044	34.37
764.222	35.84
764.401	36.33
764.579	36.27
764.758	35.45
764.936	35.23
765.114	36.39
765.293	35.88
765.471	36.97
765.65	37.53
765.828	36.04
766.006	35.99
766.184	35.82
766.363	35.57
766.541	34.95
766.719	34.65
766.898	34.37
767.076	33.65
767.254	34.11
767.432	33.59
767.61	33.28
767.788	33.7
767.967	33.84
768.145	32.99
768.323	32.55
768.501	33.4
768.679	33.99
768.857	35.56
769.035	36.64
769.213	39.33
769.391	40.65
769.569	41.49
769.747	41.8
769.925	42.34
770.103	42.24
770.281	42.86
770.459	42.18
770.636	42.39
770.814	41.19
770.992	40.57
771.17	38.03
771.348	38.23
771.525	36.95
771.703	35.99
771.881	36.59
772.059	36.95
772.236	37.63
772.414	36.87
772.592	35.97
772.769	36
772.947	38.33
773.125	38.08
773.302	35.18
773.48	37.22
773.657	37.68
773.835	37.34
774.013	36.45
774.19	37.48
774.368	39.06
774.545	42.48
774.723	41.45
774.9	40.75
775.077	41.72
775.255	43.49
775.432	41.82
775.61	44.15
775.787	43.51
775.964	44.72
776.142	41.82
776.319	43.58
776.496	41.32
776.674	42.31
776.851	40.27
777.028	40.62
777.205	40.13
777.382	41.05
777.56	38.51
777.737	39.02
777.914	38
778.091	38.4
778.268	35.08
778.445	37.44
778.622	36.22
778.8	36.09
778.977	36.71
779.154	37.75
779.331	35.77
779.508	35.31
779.685	35.61
779.862	38.09
780.038	39.36
780.215	41.78
780.392	39.15
780.569	41.22
780.746	42.56
780.923	41.21
781.1	41.39
781.277	42.72
781.453	44.18
781.63	44.7
781.807	43.51
781.984	44.88
782.16	44.41
782.337	44.73
782.514	44.93
782.691	44.55
782.867	45
783.044	45.73
783.221	47.75
783.397	50.11
783.574	50.34
783.75	48.46
783.927	46.18
784.103	47.84
784.28	48.4
784.456	48.99
784.633	50.83
784.809	49.63
784.986	49.16
785.162	43.96
785.339	40.78
785.515	38.94
785.692	40.03
785.868	40.5
786.044	36.6
786.221	36.49
786.397	37.43
786.573	38.69
786.749	36.49
786.926	34.97
787.102	38.23
787.278	37.68
787.454	38.29
787.631	38.56
787.807	39.74
787.983	41.12
788.159	43.32
788.335	39.57
788.511	36.54
788.687	38.11
788.863	39.34
789.039	39.73
789.216	40.34
789.392	41.58
789.568	42.96
789.744	41.86
789.919	40.93
790.095	37.66
790.271	39.62
790.447	41.51
790.623	42.67
790.799	41.61
790.975	40.1
791.151	41.43
791.327	40.84
791.502	40.46
791.678	43.32
791.854	44.45
792.03	46.07
792.205	45.11
792.381	44.68
792.557	47.4
792.733	48.38
792.908	51.84
793.084	48.23
793.259	47.82
793.435	47.07
793.611	44.74
793.786	44.91
793.962	42.98
794.137	42.44
794.313	39.39
794.488	36.9
794.664	37.85
794.839	35.93
795.015	40.63
795.19	38.68
795.366	38.48
795.541	37.52
795.716	37.15
795.892	38.93
796.067	41.17
796.242	46.29
796.418	44.55
796.593	45.12
796.768	46.76
796.944	46.06
797.119	48.94
797.294	50.33
797.469	52.77
797.644	53.63
797.82	52.97
797.995	50.75
798.17	48.39
798.345	50
798.52	46.79
798.695	45.5
798.87	44.56
799.045	42.83
799.22	45.47
799.395	43.38
799.57	41.56
799.745	41.39
799.92	43.79
800.095	41.48
800.27	41.34
800.445	45.67
800.62	46.62
800.795	45.28
800.97	47.19
801.145	43.28
801.319	46.02
801.494	48.8
801.669	50.45
801.844	52.88
802.018	53.93
802.193	54.56
802.368	51.82
802.543	52.84
802.717	54.94
802.892	50.56
803.067	51.82
803.241	48.47
803.416	48.57
803.59	47.77
803.765	43.81
803.94	40.47
804.114	37.83
804.289	41.04
804.463	38.06
804.638	39.19
804.812	43.36
804.986	42.19
805.161	43.36
805.335	40.82
805.51	40.19
805.684	38.93
805.858	40.47
806.033	41.78
806.207	36.79
806.381	37.75
806.556	37.24
806.73	34.44
806.904	34.5
807.078	33.3
807.253	31.71
807.427	33.11
807.601	35.96
807.775	37.29
807.949	40.7
808.123	39.67
808.298	39.9
808.472	41.54
808.646	43.27
808.82	43.18
808.994	42.62
809.168	47.48
809.342	45.7
809.516	42.13
809.69	41.91
809.864	42.23
810.038	46.91
810.212	46.96
810.385	43.97
810.559	44.76
810.733	48.63
810.907	49.16
811.081	45.54
811.255	48.92
811.428	51.12
811.602	49.49
811.776	46.84
811.95	45.75
812.123	45.46
812.297	42.62
812.471	42.78
812.644	41.77
812.818	46.26
812.992	45.95
813.165	45.93
813.339	44.27
813.512	45.89
813.686	45.85
813.86	49.05
814.033	46.67
814.207	53.11
814.38	51.47
814.554	50.67
814.727	50.17
814.9	54.44
815.074	50.55
815.247	51.19
815.421	53.93
815.594	53.6
815.767	49.32
815.941	52.55
816.114	51.17
816.287	52.64
816.46	52.29
816.634	50.83
816.807	46.7
816.98	49.18
817.153	53.17
817.327	47.82
817.5	50.42
817.673	55.62
817.846	51.08
818.019	50.49
818.192	48.17
818.365	44.33
818.538	45.85
818.711	48.33
818.884	47.52
819.057	41.74
819.23	45.29
819.403	45.05
819.576	41.4
819.749	45.11
819.922	44.61
820.095	45.78
820.268	47.46
820.441	44.19
820.614	41.66
820.786	42.2
820.959	42.56
821.132	40.89
821.305	39.32
821.477	38.96
821.65	37.35
821.823	36.59
821.996	36.63
822.168	35.52
822.341	35.16
822.514	34.79
822.686	34.49
822.859	34.35
823.031	34.37
823.204	33.56
823.376	33.38
823.549	32.81
823.722	32.55
823.894	32
824.067	32.3
824.239	32.77
824.411	33.61
824.584	33.07
824.756	33.66
824.929	33.51
825.101	34.04
825.273	34.07
825.446	34.44
825.618	35.58
825.79	36.8
825.963	36.76
826.135	36.24
826.307	37.29
826.479	36.69
826.652	36.74
826.824	37.58
826.996	38
827.168	37.69
827.34	39.4
827.512	37.79
827.684	37.69
827.856	37.8
828.029	38.44
828.201	36.24
828.373	36.38
828.545	34.8
828.717	33.34
828.889	34.56
829.061	35.5
829.232	34.88
829.404	35.59
829.576	33.3
829.748	33.2
829.92	35.74
830.092	39.71
830.264	41.46
830.436	44.07
830.607	46.03
830.779	45.92
830.951	48.97
831.123	50.19
831.294	48.79
831.466	52.52
831.638	52.95
831.809	52.51
831.981	50.35
832.153	51.65
832.324	51.79
832.496	52.68
832.667	52.97
832.839	50.83
833.011	48.68
833.182	48.46
833.354	45.47
833.525	43.8
833.697	43.72
833.868	40.29
834.039	40.93
834.211	40.71
834.382	39.76
834.554	39.48
834.725	37.82
834.896	35.56
835.068	35.23
835.239	34.34
835.41	38.3
835.581	37.4
835.753	39.97
835.924	41.79
836.095	39.3
836.266	36.67
836.438	35.8
836.609	37.71
836.78	42.18
836.951	46.22
837.122	46.71
837.293	45.36
837.464	46.45
837.635	48.58
837.806	42.27
837.977	45.15
838.148	52.49
838.319	54.01
838.49	55.73
838.661	53.76
838.832	51.19
839.003	54.41
839.174	60.28
839.345	55.53
839.516	52.25
839.687	61.38
839.857	62.05
840.028	59.38
840.199	62.69
840.37	60.78
840.54	67.2
840.711	69.37
840.882	65.65
841.053	55.41
841.223	59.94
841.394	66.54
841.564	62.35
841.735	61.04
841.906	64.17
842.076	64.06
842.247	68.56
842.417	61.66
842.588	59.69
842.758	64.25
842.929	70.75
843.099	73.87
843.27	66.36
843.44	66.79
843.611	70.94
843.781	65.94
843.951	65.35
844.122	64.61
844.292	62.44
844.462	69.78
844.633	71.64
844.803	71.77
844.973	62.97
845.144	66.65
845.314	67.13
845.484	69.12
845.654	62.88
845.824	61.77
845.995	57.59
846.165	61.83
846.335	65.62
846.505	66
846.675	67.74
846.845	77.5
847.015	81.8
847.185	83.91
847.355	70.72
847.525	78.42
847.695	73.84
847.865	72.89
848.035	69.45
848.205	64.63
848.375	70.68
848.545	53.67
848.715	40.51
848.884	47.13
849.054	40.54
849.224	47.32
849.394	57.64
849.564	51.59
849.733	45.84
849.903	40.92
850.073	53.08
850.243	63.32
850.412	85.34
850.582	112.78
850.752	107.44
850.921	144.66
851.091	131.38
851.26	109.17
851.43	118.51
851.599	116.96
851.769	137.69
851.939	123.35
852.108	102.21
852.278	96.57
852.447	75.31
852.616	73.44
852.786	67.96
852.955	73.36
853.125	64.31
853.294	72.06
853.463	82.76
853.633	78.08
853.802	77.32
853.971	88.76
854.141	81.04
854.31	89.52
854.479	92.03
854.648	95.66
854.818	85.03
854.987	90.31
855.156	85.75
855.325	87.25
855.494	91.09
855.663	87
855.832	76.08
856.001	88.3
856.171	92.84
856.34	85.61
856.509	89.02
856.678	93.82
856.847	91.92
857.016	97.01
857.185	93.82
857.353	92.13
857.522	95.04
857.691	97.94
857.86	87.94
858.029	75.28
858.198	80.09
858.367	70.96
858.535	68.47
858.704	61.8
858.873	74.4
859.042	63.63
859.21	76.3
859.379	85.54
859.548	96.46
859.717	95.76
859.885	102.47
860.054	96.01
860.222	93.35
860.391	93.21
860.56	113.43
860.728	89.69
860.897	96.87
861.065	85.13
861.234	78.66
861.402	75.55
861.571	88.86
861.739	96.13
861.908	102.38
862.076	97.57
862.244	91.14
862.413	81.61
862.581	82.72
862.749	83.34
862.918	85.73
863.086	75.28
863.254	79.03
863.423	83.64
863.591	81.88
863.759	80.49
863.927	78.06
864.096	90.14
864.264	84.09
864.432	85.63
864.6	99.11
864.768	94.34
864.936	95.44
865.104	100.84
865.272	88.61
865.44	102.48
865.608	103.59
865.776	131.54
865.944	136.11
866.112	145.65
866.28	153
866.448	154.17
866.616	168.21
866.784	200.9
866.952	172.93
867.12	155.17
867.288	137.52
867.455	152.16
867.623	123.13
867.791	93.9
867.959	90.55
868.127	78.68
868.294	75.4
868.462	68.88
868.63	74.22
868.797	70.46
868.965	70.53
869.133	60.85
869.3	61.36
869.468	75.26
869.636	83
869.803	92.21
869.971	106.72
870.138	129.38
870.306	128.71
870.473	105.41
870.641	101.69
870.808	106.11
870.975	100.74
871.143	107.81
871.31	110.57
871.478	101.44
871.645	94.92
871.812	105.32
871.98	92.93
872.147	91.73
872.314	85.68
872.482	83.97
872.649	86.33
872.816	86.91
872.983	78.17
873.15	82.64
873.318	95.84
873.485	83.94
873.652	75.69
873.819	76.25
873.986	78.33
874.153	90.95
874.32	85.4
874.487	92.72
874.654	89.16
874.821	94.25
874.988	77.65
875.155	63.8
875.322	53.74
875.489	61.46
875.656	47.38
875.823	30.93
875.99	21.16
876.157	22.97
876.324	28.46
876.49	28.42
876.657	15.61
876.824	6.93
876.991	11.24
877.157	31.73
877.324	12.04
877.491	32.82
877.658	48.3
877.824	54.71
877.991	50.7
878.157	52.87
878.324	58.44
878.491	65.67
878.657	93
878.824	102.75
878.99	93.58
879.157	104.61
879.323	98.97
879.49	108.08
879.656	116.24
879.823	112.28
879.989	106.47
880.156	118.86
880.322	114.87
880.488	93.17
880.655	94.25
880.821	91.49
880.987	88.9
881.154	75.15
881.32	63.02
881.486	56.73
881.652	59.06
881.819	58.22
881.985	51.47
882.151	48.85
882.317	48.71
882.483	46.5
882.649	45.69
882.816	43.21
882.982	42.5
883.148	42.79
883.314	41.11
883.48	42.49
883.646	41.31
883.812	40.56
883.978	43.47
884.144	44.69
884.31	46.54
884.476	46.51
884.642	49.81
884.807	54.26
884.973	53.91
885.139	53.75
885.305	48.77
885.471	48.59
885.637	46.68
885.802	43.5
885.968	43.45
886.134	44.34
886.3	41.96
886.465	39.12
886.631	38.62
886.797	39.93
886.962	44.79
887.128	48.89
887.293	50.2
887.459	53.89
887.625	51.24
887.79	55.68
887.956	55.04
888.121	62.31
888.287	65.1
888.452	57.09
888.618	55.52
888.783	60.72
