Data from 2938116_Reflection_2.txt Node
Date: Sat Jul 11 18:10:11 EDT 2015
User: robert
Spectrometer: USB4E03001
Autoset integration time: false
Trigger mode: 4
Integration Time (sec): 1.000000E-1
Scans to average: 10
Electric dark correction enabled: true
Nonlinearity correction enabled: false
Boxcar width: 5
Stray light correction enabled: false
XAxis mode: Wavelengths
Stop averaging: false
Number of Pixels in Spectrum: 3648
>>>>>Begin Spectral Data<<<<<
177.566	-687.04
177.785	363.11
178.005	163.21
178.225	105.65
178.445	87.39
178.665	187.28
178.885	122.94
179.105	16.18
179.324	14.61
179.544	-50.73
179.764	-46.27
179.984	-33.43
180.204	34.12
180.423	35.65
180.643	127.75
180.863	210.03
181.083	-201.04
181.302	-149.4
181.522	20.22
181.742	29.14
181.961	55.16
182.181	65.52
182.401	4.81
182.621	-279.02
182.84	-278.87
183.06	-87.19
183.279	-28.28
183.499	28.69
183.719	22.63
183.938	14.33
184.158	14.65
184.377	45.93
184.597	70.61
184.816	99.31
185.036	82.73
185.256	96.94
185.475	102.61
185.695	114.55
185.914	125.83
186.134	142.29
186.353	135.19
186.572	92.53
186.792	104.04
187.011	125.83
187.231	81.65
187.45	85.54
187.67	73.69
187.889	71.26
188.108	84.57
188.328	86.02
188.547	91.1
188.766	101.92
188.986	124.74
189.205	123.71
189.424	93.81
189.644	125.39
189.863	154.16
190.082	806.81
190.302	253.47
190.521	247.09
190.74	223.18
190.959	-754.36
191.178	52.85
191.398	62.88
191.617	28.53
191.836	48.42
192.055	-1.68
192.274	-19.54
192.494	4.36
192.713	-95.05
192.932	-18.97
193.151	-544.33
193.37	-85.52
193.589	-138.5
193.808	-574.86
194.027	-120.15
194.246	214.49
194.465	3759.32
194.685	448.26
194.904	-1149.1
195.123	310.23
195.342	-249.24
195.561	125.43
195.78	91.9
195.999	104.44
196.218	281.91
196.436	334.19
196.655	278.74
196.874	144.32
197.093	129.58
197.312	101.67
197.531	113.57
197.75	91.62
197.969	100.47
198.188	110.96
198.407	87.6
198.625	83.36
198.844	77.61
199.063	65.25
199.282	59.18
199.501	40.48
199.719	26.12
199.938	-3.08
200.157	106.23
200.376	-780.15
200.594	124.2
200.813	121.36
201.032	112.45
201.251	106.92
201.469	123.49
201.688	112.42
201.907	110.49
202.125	92.07
202.344	145.49
202.563	136.17
202.781	93.5
203	73.47
203.218	69.59
203.437	30.56
203.656	37.93
203.874	13.57
204.093	-7.97
204.311	11.62
204.53	33.55
204.748	37.66
204.967	40.97
205.185	42.88
205.404	34.82
205.622	24.15
205.841	36.77
206.059	50.25
206.278	71.47
206.496	105.09
206.715	118.85
206.933	86.25
207.151	83.48
207.37	72.82
207.588	212.47
207.806	124.81
208.025	181.59
208.243	14.66
208.461	53.97
208.68	174.56
208.898	-212
209.116	25.23
209.335	37.63
209.553	-29.08
209.771	58.02
209.989	244.06
210.208	-1004.26
210.426	-534.81
210.644	-857.35
210.862	256.93
211.081	183.05
211.299	218.44
211.517	275.09
211.735	358.03
211.953	163.3
212.171	150.66
212.39	109.67
212.608	83.51
212.826	79.55
213.044	70.13
213.262	92.68
213.48	93
213.698	93.95
213.916	87.52
214.134	65.76
214.352	77.37
214.57	69.21
214.788	78.55
215.006	66.77
215.224	67.13
215.442	77.88
215.66	64.55
215.878	76.49
216.096	59.29
216.314	63.81
216.532	63.22
216.75	33.15
216.968	45.78
217.185	42.78
217.403	90.14
217.621	110.6
217.839	82.07
218.057	71.14
218.275	49.03
218.492	56.23
218.71	60.59
218.928	65.85
219.146	51.41
219.363	53.74
219.581	14.16
219.799	376.85
220.017	2028.87
220.234	125.97
220.452	108.42
220.67	118.11
220.887	98.09
221.105	139.83
221.323	95.8
221.54	101.63
221.758	104.49
221.976	91.41
222.193	92.54
222.411	74.27
222.629	60.4
222.846	61.98
223.064	61.01
223.281	60.47
223.499	57.39
223.716	57.57
223.934	43.59
224.151	32.29
224.369	36.21
224.586	37.86
224.804	38.45
225.021	38.82
225.239	50.03
225.456	48.6
225.674	44.88
225.891	51.35
226.108	53.38
226.326	63.56
226.543	57.87
226.76	46.17
226.978	39.29
227.195	37.46
227.413	34.5
227.63	35.61
227.847	37.93
228.064	33.72
228.282	31.04
228.499	28.59
228.716	25.95
228.934	28.22
229.151	27.57
229.368	27.3
229.585	27.03
229.802	26.69
230.02	22.36
230.237	19.17
230.454	17.5
230.671	14.38
230.888	10.73
231.105	9.1
231.323	7.94
231.54	4.9
231.757	1.88
231.974	-0.81
232.191	2.46
232.408	-2.11
232.625	2.74
232.842	2.58
233.059	-1.49
233.276	-1.65
233.493	2.7
233.71	0.4
233.927	6.75
234.144	9.48
234.361	12.12
234.578	8.42
234.795	8.74
235.012	1.78
235.229	-0.48
235.446	3.22
235.663	10.22
235.879	8.47
236.096	5.54
236.313	3.67
236.53	4.74
236.747	8.71
236.964	18.25
237.181	24.45
237.397	30.55
237.614	37.37
237.831	32.95
238.048	36.56
238.264	31.54
238.481	33.73
238.698	34.55
238.915	31.69
239.131	27.63
239.348	23.94
239.565	19.55
239.781	18.85
239.998	18.41
240.215	24.64
240.431	23.26
240.648	26.4
240.865	27.21
241.081	23.9
241.298	24.05
241.514	21.98
241.731	20.79
241.947	23.47
242.164	22.44
242.38	21.65
242.597	19.2
242.814	17.39
243.03	16.43
243.246	16.02
243.463	18.94
243.679	20.77
243.896	21.64
244.112	21.47
244.329	20.35
244.545	22.23
244.762	21.45
244.978	23.76
245.194	24.92
245.411	25.95
245.627	23.42
245.843	20.4
246.06	17.83
246.276	17.11
246.492	17.06
246.709	14.88
246.925	14.29
247.141	13.1
247.357	12.19
247.574	11.6
247.79	12
248.006	11.55
248.222	11.89
248.439	10.8
248.655	10.36
248.871	9.44
249.087	11.11
249.303	10.13
249.519	11.53
249.736	11.71
249.952	10.31
250.168	8.7
250.384	10.32
250.6	8.06
250.816	9.73
251.032	9.83
251.248	10.58
251.464	9.24
251.68	8.3
251.896	9.43
252.112	7.98
252.328	9.04
252.544	8.05
252.76	8.29
252.976	10.1
253.192	10.78
253.408	11.78
253.624	10.52
253.84	10.69
254.056	12.7
254.272	12.33
254.487	14.16
254.703	16.79
254.919	14.16
255.135	13.9
255.351	12.79
255.567	10.71
255.782	11.42
255.998	12.84
256.214	14.49
256.43	13.93
256.646	12.01
256.861	11.7
257.077	7.16
257.293	9.33
257.508	8.07
257.724	8.13
257.94	7.85
258.155	7.7
258.371	9.38
258.587	6.8
258.802	6.13
259.018	6.63
259.234	6.83
259.449	7.18
259.665	7.37
259.88	8.57
260.096	8.43
260.312	8.38
260.527	7.83
260.743	7.02
260.958	7.08
261.174	6.73
261.389	6.68
261.605	6.7
261.82	6.6
262.036	6.69
262.251	5.02
262.466	4.83
262.682	4.34
262.897	4.48
263.113	4.07
263.328	4.56
263.543	6.29
263.759	7.37
263.974	8.18
264.189	7.63
264.405	7.96
264.62	8.31
264.835	6.76
265.051	8.48
265.266	9.94
265.481	10.64
265.696	11.16
265.912	12.94
266.127	11.07
266.342	9.58
266.557	9.93
266.773	8.66
266.988	7.37
267.203	8.15
267.418	7.79
267.633	7.12
267.848	5.98
268.064	7.66
268.279	5.55
268.494	6.93
268.709	6.07
268.924	6.31
269.139	6.82
269.354	8.63
269.569	9.01
269.784	10.06
269.999	8.84
270.214	8.52
270.429	8.02
270.644	7.97
270.859	8.73
271.074	8.75
271.289	9.1
271.504	9.75
271.719	10.26
271.934	10.22
272.149	9.11
272.363	9.75
272.578	10.87
272.793	10.01
273.008	11.47
273.223	9.37
273.438	10.21
273.653	11.33
273.867	9.74
274.082	9.86
274.297	10.35
274.512	11.79
274.726	11.72
274.941	11.27
275.156	12.29
275.371	10.89
275.585	12.87
275.8	13.21
276.015	12.54
276.229	14.32
276.444	13.68
276.659	12.88
276.873	11.14
277.088	10.67
277.302	10.69
277.517	9.21
277.732	8.55
277.946	6.4
278.161	6.38
278.375	6.47
278.59	7.87
278.804	8.56
279.019	8.05
279.233	8.55
279.448	8.96
279.662	10.22
279.877	10.96
280.091	10.26
280.306	11.54
280.52	10.5
280.735	8.99
280.949	8.32
281.163	7.76
281.378	8.5
281.592	10.05
281.806	10.25
282.021	11.39
282.235	11.43
282.449	12.01
282.664	11.93
282.878	12.94
283.092	12.76
283.307	12.22
283.521	11.42
283.735	10.68
283.949	9.34
284.164	8.5
284.378	6.78
284.592	6.44
284.806	6.69
285.02	7.03
285.234	6.62
285.449	6.44
285.663	6.61
285.877	7.17
286.091	8.19
286.305	8
286.519	8.42
286.733	8.24
286.947	8.29
287.161	8.48
287.375	7.92
287.589	8.24
287.803	10.03
288.017	10.68
288.231	10.14
288.445	9.71
288.659	10.14
288.873	11.3
289.087	12.08
289.301	11.54
289.515	12.18
289.729	12.91
289.943	13.56
290.157	13.41
290.371	12.84
290.584	12.69
290.798	12.49
291.012	12.17
291.226	12.05
291.44	11.38
291.654	10.32
291.867	9.63
292.081	9.71
292.295	9.08
292.509	9.07
292.722	8.2
292.936	8.98
293.15	8.9
293.364	10.97
293.577	10.13
293.791	10.68
294.005	12.78
294.218	11.48
294.432	10.21
294.645	10.9
294.859	10.58
295.073	11.07
295.286	11.65
295.5	11.58
295.713	11.39
295.927	10.78
296.14	10.41
296.354	10.6
296.568	11.03
296.781	11.96
296.994	11.54
297.208	11.34
297.421	11.59
297.635	10.95
297.848	11.2
298.062	10.91
298.275	10.94
298.489	11.62
298.702	10.62
298.915	10.55
299.129	10.28
299.342	9.13
299.555	9.62
299.769	10.65
299.982	10.85
300.195	9.99
300.409	8.81
300.622	9.94
300.835	9.64
301.048	11.96
301.262	13.03
301.475	14.58
301.688	16.63
301.901	16.71
302.115	15.41
302.328	15.74
302.541	16.77
302.754	17.83
302.967	17.75
303.18	17.3
303.393	16.89
303.607	16.78
303.82	15.17
304.033	14.09
304.246	14.41
304.459	15.21
304.672	14.74
304.885	15.34
305.098	14.26
305.311	13.5
305.524	12.7
305.737	11.57
305.95	12.64
306.163	12.16
306.376	11.8
306.589	11.61
306.802	11.03
307.015	10.36
307.228	8.6
307.44	9.27
307.653	10.65
307.866	11.9
308.079	13.29
308.292	11.59
308.505	12.03
308.718	12.63
308.93	12.07
309.143	11.54
309.356	11.46
309.569	11.55
309.781	12.2
309.994	12.13
310.207	13.08
310.42	11.12
310.632	11.01
310.845	9.76
311.058	9.97
311.27	9.49
311.483	9.98
311.696	10.31
311.908	10.45
312.121	9.99
312.333	10.25
312.546	9.68
312.759	12.51
312.971	12.37
313.184	12.5
313.396	11.6
313.609	12.51
313.821	12.79
314.034	13.64
314.246	14.69
314.459	15.06
314.671	15.28
314.884	14.04
315.096	11.32
315.309	12.94
315.521	14.11
315.733	14.46
315.946	14.32
316.158	13.4
316.371	13.04
316.583	13.4
316.795	13.5
317.008	13.75
317.22	14.9
317.432	16.7
317.644	16.06
317.857	17.53
318.069	17.77
318.281	17.42
318.494	19.44
318.706	19.92
318.918	19.85
319.13	18.03
319.342	18.25
319.555	17.79
319.767	15.92
319.979	15.43
320.191	15.29
320.403	15.34
320.615	15.58
320.827	13.56
321.039	11.78
321.252	10.84
321.464	14.13
321.676	13.47
321.888	13.77
322.1	14.79
322.312	14.82
322.524	13.57
322.736	12.51
322.948	12.07
323.16	12.56
323.372	14.25
323.584	14.62
323.796	14.39
324.007	13.61
324.219	13.67
324.431	13.05
324.643	13.43
324.855	13.82
325.067	14.7
325.279	16.47
325.491	16.26
325.702	16.13
325.914	15.99
326.126	14.6
326.338	14.33
326.55	13.98
326.761	14.77
326.973	14.14
327.185	13.56
327.396	12.68
327.608	9.78
327.82	10.66
328.032	10.64
328.243	10.6
328.455	10.79
328.666	10.3
328.878	8.92
329.09	7.96
329.301	7.71
329.513	8.39
329.725	8.7
329.936	9.78
330.148	10.48
330.359	9.3
330.571	8.31
330.782	8.42
330.994	9.89
331.205	11.66
331.417	11.81
331.628	10.69
331.84	10.2
332.051	10.81
332.262	12.43
332.474	11.42
332.685	12.8
332.897	12.86
333.108	12.26
333.319	11.98
333.531	13.13
333.742	13.93
333.953	15.06
334.165	16.03
334.376	16
334.587	14.09
334.799	13.33
335.01	12.84
335.221	12.89
335.432	13.31
335.644	13.56
335.855	11.84
336.066	11.23
336.277	11.43
336.488	10.48
336.7	9.8
336.911	10.93
337.122	11.8
337.333	12.89
337.544	14.24
337.755	13.13
337.966	11.41
338.177	11.93
338.388	11.46
338.599	12.1
338.811	11.61
339.022	12.48
339.233	13.53
339.444	14.52
339.655	12.32
339.866	11.47
340.076	11.82
340.287	12.31
340.498	11.92
340.709	11.68
340.92	11.33
341.131	12.06
341.342	12.55
341.553	10.83
341.764	9.42
341.975	10.9
342.185	11.32
342.396	12.2
342.607	12.43
342.818	12.99
343.029	14.45
343.239	14.62
343.45	13.56
343.661	13.72
343.872	12.83
344.082	13.35
344.293	13.63
344.504	13.38
344.714	13.48
344.925	14.22
345.136	13.85
345.346	12.86
345.557	12.74
345.768	13.54
345.978	12.7
346.189	14.03
346.399	14.06
346.61	13.68
346.821	13.34
347.031	13.24
347.242	13.34
347.452	12.86
347.663	13.93
347.873	14.45
348.084	14.71
348.294	15.06
348.504	14.58
348.715	14.46
348.925	15.64
349.136	16.18
349.346	15.45
349.557	13.99
349.767	14.62
349.977	12.88
350.188	11.56
350.398	11.78
350.608	10.97
350.819	10.71
351.029	9.9
351.239	9.25
351.449	9.53
351.66	8.92
351.87	9.95
352.08	10.09
352.29	10.92
352.501	13.32
352.711	13.3
352.921	13.16
353.131	12.48
353.341	12.54
353.552	12.08
353.762	11.49
353.972	12.72
354.182	10.79
354.392	9.68
354.602	9.33
354.812	7.82
355.022	6.6
355.232	6.37
355.442	7.32
355.652	7.94
355.862	7.68
356.072	6.84
356.282	5.64
356.492	6.9
356.702	7.1
356.912	7.78
357.122	7.77
357.332	9.15
357.542	9.65
357.752	8.41
357.962	8.08
358.171	8.01
358.381	9.74
358.591	10.87
358.801	11.63
359.011	13.23
359.221	13.19
359.43	11.96
359.64	10.54
359.85	9.54
360.06	10.18
360.269	9.93
360.479	10.15
360.689	9.25
360.899	9.03
361.108	7.97
361.318	7.77
361.528	7.05
361.737	7.22
361.947	7.74
362.156	8.13
362.366	8.51
362.576	7.71
362.785	7.33
362.995	7.36
363.204	6.55
363.414	6.91
363.623	6.13
363.833	7.51
364.042	8.67
364.252	8.88
364.461	9.28
364.671	9.51
364.88	10.87
365.09	10.13
365.299	10.99
365.509	12.11
365.718	11.7
365.927	11.25
366.137	10.41
366.346	9.63
366.555	9.37
366.765	8.89
366.974	7.39
367.183	8.15
367.393	9.54
367.602	9.18
367.811	8.14
368.021	9.29
368.23	9.26
368.439	9.31
368.648	9.93
368.857	10.36
369.067	10.48
369.276	10.47
369.485	9.51
369.694	9.2
369.903	8.28
370.112	8.84
370.321	8.29
370.531	8.73
370.74	9.65
370.949	9.45
371.158	8.72
371.367	8.8
371.576	9.96
371.785	9.66
371.994	9.11
372.203	9.98
372.412	9.92
372.621	10.33
372.83	10.13
373.039	8.96
373.248	8.17
373.457	8.53
373.666	8.55
373.874	8.22
374.083	8.07
374.292	8.27
374.501	7.32
374.71	7.11
374.919	6.56
375.128	6.52
375.336	6.66
375.545	7.9
375.754	7.2
375.963	6.84
376.171	7.14
376.38	7.66
376.589	7.57
376.798	7.96
377.006	8.16
377.215	7.93
377.424	7.53
377.632	7.68
377.841	7.08
378.05	7.54
378.258	7.94
378.467	7.47
378.675	7.11
378.884	7.02
379.093	6.81
379.301	6.93
379.51	7.07
379.718	7.42
379.927	6.74
380.135	6.5
380.344	6.22
380.552	6.18
380.761	6.37
380.969	6.15
381.177	6.45
381.386	6.03
381.594	5.13
381.803	4.77
382.011	4.87
382.219	4.95
382.428	5.05
382.636	4.81
382.845	4.62
383.053	4.4
383.261	4.59
383.469	3.86
383.678	4.47
383.886	4.92
384.094	5.44
384.302	5.59
384.511	5.87
384.719	5.68
384.927	5.77
385.135	5.73
385.343	5.96
385.552	6.54
385.76	6.99
385.968	6.9
386.176	7
386.384	6.83
386.592	6.11
386.8	6.18
387.008	6.07
387.216	6.27
387.424	6.15
387.633	5.81
387.841	5.32
388.049	4.87
388.257	4.82
388.465	4.73
388.672	4.62
388.88	5.58
389.088	5.07
389.296	4.93
389.504	5.11
389.712	5.03
389.92	4.99
390.128	4.92
390.336	5.22
390.544	4.77
390.751	4.68
390.959	4.53
391.167	4
391.375	4.1
391.583	4.15
391.79	3.99
391.998	4.26
392.206	4.42
392.414	4.31
392.621	4.02
392.829	4.26
393.037	4.45
393.244	4.74
393.452	4.54
393.66	4.93
393.867	4.78
394.075	4.66
394.283	4.53
394.49	4.37
394.698	4.15
394.905	4.29
395.113	4.27
395.32	4.27
395.528	4.13
395.735	4.04
395.943	3.82
396.15	3.82
396.358	4.01
396.565	4.29
396.773	4.59
396.98	5.04
397.188	5.05
397.395	4.7
397.602	4.34
397.81	4.19
398.017	4.42
398.225	4.19
398.432	4.65
398.639	4.19
398.847	3.77
399.054	3.52
399.261	3.37
399.468	3.08
399.676	3.15
399.883	3.09
400.09	2.9
400.297	3.05
400.505	3.16
400.712	2.75
400.919	3.06
401.126	3.21
401.333	3.29
401.54	3.19
401.748	3.5
401.955	3.49
402.162	4.08
402.369	4.27
402.576	4.18
402.783	4.19
402.99	4.55
403.197	4.19
403.404	4.01
403.611	3.85
403.818	3.94
404.025	3.79
404.232	3.75
404.439	3.7
404.646	3.74
404.853	3.63
405.06	3.75
405.267	3.43
405.474	3.73
405.681	3.71
405.887	4
406.094	3.98
406.301	4.1
406.508	4.23
406.715	3.95
406.922	4.04
407.128	4.08
407.335	4.07
407.542	4.34
407.749	4.31
407.955	4.67
408.162	4.54
408.369	4.53
408.575	4.48
408.782	4.42
408.989	4.43
409.195	4.33
409.402	4.28
409.609	4.27
409.815	4.29
410.022	4.24
410.228	4.13
410.435	4
410.642	3.94
410.848	4.19
411.055	4.25
411.261	4.45
411.468	4.3
411.674	4.3
411.881	3.77
412.087	3.52
412.294	3.72
412.5	3.73
412.706	3.81
412.913	3.7
413.119	3.44
413.326	3.42
413.532	3.17
413.738	3.17
413.945	3.28
414.151	3.63
414.357	3.54
414.564	3.24
414.77	3.37
414.976	3.42
415.182	3.59
415.389	3.82
415.595	3.95
415.801	3.91
416.007	3.89
416.214	3.66
416.42	3.57
416.626	3.75
416.832	3.88
417.038	3.55
417.244	3.57
417.45	3.5
417.657	3.16
417.863	3.07
418.069	3.25
418.275	3.38
418.481	3.37
418.687	3.29
418.893	3.03
419.099	2.97
419.305	3
419.511	2.86
419.717	2.79
419.923	2.97
420.129	2.9
420.335	2.88
420.541	2.84
420.746	3.01
420.952	3.12
421.158	3.22
421.364	3.14
421.57	3.17
421.776	3.3
421.982	3.37
422.187	3.32
422.393	3.42
422.599	3.25
422.805	3.2
423.01	3.12
423.216	3.06
423.422	3.05
423.628	3.15
423.833	3.11
424.039	3.13
424.245	3
424.45	2.99
424.656	2.89
424.862	2.9
425.067	3.05
425.273	3.04
425.478	3.15
425.684	3.25
425.889	3.16
426.095	3.1
426.301	2.92
426.506	2.98
426.712	3.11
426.917	3.36
427.123	3.2
427.328	3.11
427.533	3.24
427.739	3.18
427.944	3.09
428.15	3.2
428.355	3.14
428.561	3.06
428.766	3.19
428.971	3.15
429.177	3.14
429.382	3.35
429.587	3.24
429.793	3.03
429.998	3.02
430.203	2.81
430.408	2.89
430.614	3.27
430.819	3.28
431.024	3.42
431.229	3.26
431.434	3.14
431.64	3.32
431.845	3.41
432.05	3.63
432.255	3.44
432.46	3.56
432.665	3.37
432.87	3.22
433.076	3.4
433.281	3.31
433.486	3.28
433.691	3.39
433.896	3.26
434.101	3.17
434.306	2.88
434.511	3.05
434.716	3.05
434.921	3.32
435.126	3.31
435.331	3.12
435.535	2.89
435.74	2.95
435.945	2.87
436.15	2.97
436.355	3.01
436.56	3.19
436.765	3.06
436.97	3.25
437.174	2.95
437.379	3.13
437.584	3.3
437.789	3.33
437.993	3.54
438.198	3.64
438.403	3.45
438.608	3.55
438.812	3.48
439.017	3.42
439.222	3.28
439.426	3.06
439.631	2.83
439.836	2.59
440.04	2.67
440.245	2.6
440.45	2.36
440.654	2.45
440.859	2.26
441.063	2.16
441.268	2.24
441.472	2.18
441.677	2.55
441.881	2.67
442.086	2.69
442.29	2.76
442.495	2.54
442.699	2.58
442.904	2.52
443.108	2.75
443.312	2.84
443.517	2.86
443.721	3.03
443.925	2.86
444.13	2.81
444.334	2.87
444.538	2.7
444.743	2.85
444.947	2.9
445.151	2.91
445.356	2.82
445.56	2.86
445.764	2.88
445.968	2.86
446.173	2.7
446.377	2.7
446.581	2.74
446.785	2.78
446.989	2.84
447.193	2.83
447.398	2.71
447.602	2.65
447.806	2.62
448.01	2.65
448.214	2.61
448.418	2.71
448.622	2.78
448.826	2.85
449.03	2.86
449.234	2.72
449.438	2.58
449.642	2.74
449.846	2.74
450.05	2.77
450.254	2.71
450.458	2.69
450.662	2.7
450.866	2.55
451.069	2.63
451.273	2.64
451.477	2.54
451.681	2.66
451.885	2.74
452.089	2.79
452.292	2.68
452.496	2.77
452.7	2.83
452.904	2.71
453.107	2.67
453.311	2.48
453.515	2.56
453.719	2.87
453.922	2.91
454.126	2.99
454.33	3.08
454.533	3.07
454.737	2.92
454.94	3.02
455.144	3.25
455.348	3.16
455.551	3.14
455.755	3.14
455.958	3.03
456.162	2.98
456.365	2.59
456.569	2.51
456.772	2.61
456.976	2.8
457.179	2.54
457.383	2.68
457.586	2.77
457.79	2.72
457.993	2.77
458.196	2.68
458.4	2.71
458.603	2.88
458.807	2.79
459.01	2.92
459.213	2.83
459.417	2.94
459.62	2.9
459.823	3.02
460.026	3.01
460.23	2.95
460.433	3.01
460.636	3.05
460.839	3.09
461.042	3.17
461.246	3.05
461.449	3.02
461.652	2.92
461.855	2.68
462.058	2.68
462.261	2.77
462.464	2.78
462.668	2.76
462.871	2.64
463.074	2.71
463.277	2.59
463.48	2.62
463.683	2.81
463.886	2.82
464.089	3.01
464.292	2.97
464.495	2.97
464.698	2.84
464.901	2.83
465.104	2.69
465.306	2.68
465.509	2.8
465.712	2.75
465.915	2.71
466.118	2.7
466.321	2.81
466.524	2.68
466.726	2.66
466.929	2.85
467.132	2.85
467.335	2.94
467.538	2.71
467.74	2.64
467.943	2.54
468.146	2.28
468.348	2.47
468.551	2.33
468.754	2.45
468.956	2.48
469.159	2.48
469.362	2.54
469.564	2.74
469.767	3.05
469.969	3.04
470.172	3.3
470.375	3.69
470.577	3.67
470.78	3.54
470.982	3.43
471.185	3.41
471.387	3.32
471.59	3.09
471.792	2.97
471.995	2.89
472.197	2.82
472.399	2.68
472.602	2.48
472.804	2.46
473.007	2.68
473.209	2.79
473.411	2.79
473.614	2.6
473.816	2.74
474.018	2.83
474.22	2.8
474.423	2.84
474.625	2.95
474.827	2.78
475.03	2.65
475.232	2.54
475.434	2.47
475.636	2.48
475.838	2.66
476.04	2.68
476.243	2.79
476.445	2.85
476.647	2.97
476.849	2.88
477.051	3.18
477.253	3.28
477.455	3.35
477.657	3.43
477.859	3.39
478.061	3.33
478.263	3.38
478.465	3.03
478.667	3.06
478.869	3.05
479.071	3.03
479.273	2.75
479.475	2.62
479.677	2.72
479.879	2.36
480.081	2.41
480.283	2.46
480.485	2.41
480.686	2.64
480.888	2.47
481.09	2.38
481.292	2.39
481.494	2.54
481.695	2.5
481.897	2.4
482.099	2.6
482.301	2.55
482.502	2.58
482.704	2.45
482.906	2.46
483.107	2.44
483.309	2.49
483.511	2.5
483.712	2.48
483.914	2.54
484.115	2.57
484.317	2.56
484.519	2.54
484.72	2.53
484.922	2.59
485.123	2.55
485.325	2.62
485.526	2.58
485.728	2.6
485.929	2.56
486.131	2.5
486.332	2.41
486.534	2.38
486.735	2.44
486.936	2.36
487.138	2.37
487.339	2.37
487.541	2.35
487.742	2.39
487.943	2.35
488.144	2.41
488.346	2.51
488.547	2.56
488.748	2.63
488.95	2.58
489.151	2.66
489.352	2.66
489.553	2.58
489.755	2.62
489.956	2.65
490.157	2.72
490.358	2.65
490.559	2.61
490.76	2.61
490.961	2.58
491.163	2.65
491.364	2.6
491.565	2.59
491.766	2.71
491.967	2.71
492.168	2.69
492.369	2.59
492.57	2.58
492.771	2.49
492.972	2.47
493.173	2.41
493.374	2.32
493.575	2.4
493.776	2.55
493.976	2.57
494.177	2.57
494.378	2.53
494.579	2.71
494.78	2.92
494.981	2.93
495.182	3.01
495.382	3.14
495.583	3.25
495.784	3.11
495.985	3.01
496.185	3.08
496.386	2.91
496.587	3.05
496.788	2.93
496.988	2.88
497.189	2.91
497.39	2.81
497.59	2.84
497.791	2.93
497.992	2.9
498.192	2.88
498.393	2.81
498.593	2.95
498.794	2.93
498.994	3.06
499.195	3
499.395	3.23
499.596	3.33
499.796	3.1
499.997	2.98
500.197	3.13
500.398	3.03
500.598	2.94
500.799	2.86
500.999	2.78
501.199	2.57
501.4	2.7
501.6	2.44
501.801	2.49
502.001	2.58
502.201	2.71
502.402	2.66
502.602	2.96
502.802	2.95
503.002	3.01
503.203	3.04
503.403	3.01
503.603	2.82
503.803	2.91
504.003	2.79
504.204	2.79
504.404	2.7
504.604	2.75
504.804	2.49
505.004	2.36
505.204	2.5
505.404	2.46
505.604	2.61
505.804	2.61
506.005	2.63
506.205	2.69
506.405	2.86
506.605	2.87
506.805	2.83
507.005	2.89
507.204	3.07
507.404	2.95
507.604	2.99
507.804	3.04
508.004	3.07
508.204	3.03
508.404	3.02
508.604	2.81
508.804	2.79
509.003	2.8
509.203	2.8
509.403	2.71
509.603	2.66
509.803	2.7
510.002	2.84
510.202	2.95
510.402	3.08
510.602	3.14
510.801	3.32
511.001	3.22
511.201	3.14
511.4	3.17
511.6	3.15
511.8	3.23
511.999	3.23
512.199	2.89
512.398	2.85
512.598	2.74
512.797	2.79
512.997	2.72
513.197	2.75
513.396	2.77
513.596	2.78
513.795	2.95
513.994	2.84
514.194	2.71
514.393	2.92
514.593	2.85
514.792	2.85
514.992	2.58
515.191	2.58
515.39	2.8
515.59	2.81
515.789	2.89
515.988	2.91
516.188	2.87
516.387	2.87
516.586	2.82
516.786	2.81
516.985	2.8
517.184	3.02
517.383	3.08
517.582	2.93
517.782	2.99
517.981	3
518.18	2.99
518.379	3.15
518.578	3.25
518.777	3.29
518.976	3.41
519.176	3.36
519.375	3.35
519.574	3.28
519.773	3.39
519.972	3.33
520.171	3.27
520.37	3.28
520.569	3.23
520.768	3.28
520.967	3.36
521.166	3.36
521.365	3.59
521.564	3.66
521.762	3.64
521.961	3.6
522.16	3.67
522.359	3.67
522.558	3.59
522.757	3.67
522.956	3.6
523.154	3.51
523.353	3.47
523.552	3.28
523.751	3.13
523.949	3.24
524.148	3.29
524.347	3.32
524.546	3.32
524.744	3.24
524.943	3.16
525.142	3.1
525.34	3.03
525.539	3.05
525.737	3.08
525.936	3.03
526.135	2.93
526.333	2.91
526.532	2.9
526.73	2.86
526.929	2.99
527.127	2.94
527.326	3.01
527.524	3.08
527.723	3.13
527.921	3.2
528.12	3.33
528.318	3.4
528.516	3.41
528.715	3.37
528.913	3.4
529.112	3.36
529.31	3.43
529.508	3.45
529.707	3.47
529.905	3.42
530.103	3.31
530.301	3.24
530.5	3.26
530.698	3.21
530.896	3.28
531.094	3.36
531.293	3.43
531.491	3.47
531.689	3.5
531.887	3.48
532.085	3.51
532.283	3.6
532.481	3.53
532.68	3.56
532.878	3.6
533.076	3.6
533.274	3.55
533.472	3.47
533.67	3.46
533.868	3.46
534.066	3.44
534.264	3.49
534.462	3.47
534.66	3.68
534.858	3.68
535.056	3.82
535.253	3.85
535.451	3.86
535.649	3.99
535.847	3.96
536.045	4.01
536.243	3.97
536.441	3.98
536.638	4.1
536.836	3.89
537.034	3.92
537.232	3.82
537.43	3.94
537.627	3.92
537.825	3.9
538.023	3.92
538.22	4.03
538.418	4.19
538.616	4.23
538.813	4.24
539.011	4.41
539.209	4.28
539.406	4.38
539.604	4.35
539.801	4.43
539.999	4.53
540.196	4.47
540.394	4.39
540.591	4.34
540.789	4.38
540.986	4.35
541.184	4.34
541.381	4.37
541.579	4.36
541.776	4.32
541.974	4.29
542.171	4.31
542.368	4.38
542.566	4.42
542.763	4.39
542.96	4.42
543.158	4.41
543.355	4.35
543.552	4.4
543.75	4.39
543.947	4.4
544.144	4.45
544.341	4.4
544.539	4.44
544.736	4.39
544.933	4.5
545.13	4.37
545.327	4.54
545.524	4.73
545.722	4.65
545.919	4.63
546.116	4.8
546.313	5.01
546.51	5.12
546.707	5.08
546.904	5.07
547.101	5.17
547.298	5.23
547.495	5.12
547.692	4.96
547.889	5.23
548.086	5.35
548.283	5.28
548.48	5.22
548.677	5.15
548.874	5.33
549.07	5.4
549.267	5.28
549.464	5.38
549.661	5.53
549.858	5.85
550.055	5.83
550.251	5.82
550.448	5.85
550.645	5.71
550.842	5.73
551.038	5.62
551.235	5.8
551.432	5.82
551.628	6.01
551.825	6.05
552.022	5.99
552.218	5.86
552.415	5.8
552.612	5.84
552.808	5.84
553.005	5.71
553.201	5.74
553.398	5.64
553.594	5.63
553.791	5.55
553.987	5.71
554.184	5.85
554.38	5.97
554.577	6.14
554.773	6.5
554.97	6.5
555.166	6.67
555.362	6.62
555.559	6.7
555.755	6.93
555.952	6.95
556.148	6.76
556.344	6.68
556.541	6.66
556.737	6.68
556.933	6.32
557.129	6.52
557.326	6.76
557.522	6.69
557.718	6.9
557.914	6.81
558.11	6.93
558.307	6.99
558.503	7.13
558.699	7.15
558.895	7.18
559.091	7.32
559.287	7.41
559.483	7.47
559.679	7.6
559.876	7.47
560.072	7.73
560.268	7.59
560.464	7.45
560.66	7.29
560.856	7.38
561.052	7.35
561.247	7.5
561.443	7.48
561.639	7.46
561.835	7.43
562.031	7.56
562.227	7.35
562.423	7.41
562.619	7.86
562.815	8.15
563.01	7.96
563.206	7.95
563.402	7.84
563.598	7.84
563.793	7.89
563.989	8.2
564.185	8.27
564.381	8.39
564.576	8.44
564.772	8.08
564.968	7.82
565.163	7.89
565.359	7.83
565.555	7.67
565.75	7.73
565.946	7.73
566.141	7.48
566.337	7.41
566.532	7.43
566.728	7.28
566.923	7.45
567.119	7.59
567.314	7.79
567.51	7.9
567.705	8.03
567.901	8.03
568.096	8
568.292	8.11
568.487	8.09
568.682	8.08
568.878	8.19
569.073	8.04
569.268	8.17
569.464	8.09
569.659	8.25
569.854	8.35
570.05	8.35
570.245	8.34
570.44	8.39
570.635	8.42
570.831	8.39
571.026	8.52
571.221	8.62
571.416	8.49
571.611	8.58
571.806	8.58
572.002	8.61
572.197	8.62
572.392	8.69
572.587	8.66
572.782	8.68
572.977	8.63
573.172	8.61
573.367	8.79
573.562	8.86
573.757	8.77
573.952	8.74
574.147	8.73
574.342	8.77
574.537	8.78
574.732	9.12
574.927	9.12
575.121	9.3
575.316	9.31
575.511	9.18
575.706	9.14
575.901	9.29
576.096	9.26
576.29	9.09
576.485	9.04
576.68	9.09
576.875	8.74
577.069	8.55
577.264	8.67
577.459	8.61
577.654	8.67
577.848	8.65
578.043	8.54
578.238	8.55
578.432	8.86
578.627	8.95
578.821	8.97
579.016	9.07
579.21	9.36
579.405	9.12
579.6	9.23
579.794	9.33
579.989	9.58
580.183	9.33
580.378	9.47
580.572	9.34
580.766	9.53
580.961	9.69
581.155	9.83
581.35	9.72
581.544	9.56
581.738	9.59
581.933	9.42
582.127	9.19
582.321	9.27
582.516	9.33
582.71	9.43
582.904	9.43
583.099	9.05
583.293	8.88
583.487	9.19
583.681	9.83
583.875	9.96
584.07	10.16
584.264	10.39
584.458	10.77
584.652	10.68
584.846	10.77
585.04	10.33
585.234	10.34
585.428	10.31
585.623	10.01
585.817	9.66
586.011	9.58
586.205	9.36
586.399	9.13
586.593	9.03
586.787	8.97
586.981	8.91
587.174	9.24
587.368	9.46
587.562	9.54
587.756	9.58
587.95	9.54
588.144	9.63
588.338	9.79
588.532	9.77
588.725	9.79
588.919	9.89
589.113	9.77
589.307	9.86
589.501	9.88
589.694	10.02
589.888	10.04
590.082	10.01
590.275	10.05
590.469	9.84
590.663	9.94
590.856	9.91
591.05	10.21
591.244	10.44
591.437	10.65
591.631	10.69
591.824	10.75
592.018	10.82
592.212	10.84
592.405	10.58
592.599	10.67
592.792	10.75
592.986	10.86
593.179	10.58
593.372	10.53
593.566	10.27
593.759	10.25
593.953	10.4
594.146	10.56
594.339	10.79
594.533	10.84
594.726	10.9
594.92	11.02
595.113	10.97
595.306	10.89
595.499	10.83
595.693	10.84
595.886	11.08
596.079	10.96
596.272	10.76
596.466	10.71
596.659	10.84
596.852	10.9
597.045	10.84
597.238	10.87
597.431	10.77
597.624	10.85
597.818	10.86
598.011	10.73
598.204	10.43
598.397	10.55
598.59	10.52
598.783	10.45
598.976	10.55
599.169	10.5
599.362	10.29
599.555	10.6
599.748	10.68
599.941	10.72
600.134	10.37
600.326	10.51
600.519	10.54
600.712	10.36
600.905	10.61
601.098	10.55
601.291	10.61
601.483	10.91
601.676	10.84
601.869	10.68
602.062	10.37
602.255	10.48
602.447	10.57
602.64	10.47
602.833	10.69
603.025	10.59
603.218	10.6
603.411	10.5
603.603	10.5
603.796	10.45
603.989	10.53
604.181	10.53
604.374	10.56
604.566	10.69
604.759	10.86
604.951	10.9
605.144	10.76
605.336	10.65
605.529	10.65
605.721	10.59
605.914	10.73
606.106	10.64
606.299	10.84
606.491	10.88
606.683	10.75
606.876	10.66
607.068	10.49
607.26	10.6
607.453	10.79
607.645	10.84
607.837	10.77
608.03	10.61
608.222	10.57
608.414	10.48
608.606	10.69
608.799	11
608.991	10.93
609.183	10.96
609.375	11.11
609.567	10.92
609.759	11.02
609.952	11.21
610.144	11.15
610.336	11.12
610.528	11.11
610.72	10.85
610.912	10.27
611.104	10.37
611.296	10.22
611.488	10.01
611.68	10.26
611.872	9.93
612.064	9.69
612.256	9.64
612.448	9.72
612.64	9.98
612.832	10.24
613.023	10.73
613.215	10.56
613.407	10.81
613.599	10.72
613.791	10.35
613.983	10.3
614.174	10.53
614.366	10.85
614.558	10.68
614.75	10.47
614.941	10.37
615.133	10.25
615.325	10.38
615.516	10.3
615.708	10.41
615.9	10.67
616.091	10.94
616.283	10.94
616.475	10.71
616.666	11.26
616.858	11.49
617.049	11.38
617.241	11.4
617.432	11.27
617.624	11.24
617.815	11.57
618.007	11.35
618.198	11.56
618.39	11.6
618.581	11.65
618.773	11.38
618.964	11.14
619.155	11.26
619.347	11.41
619.538	11.4
619.729	11.34
619.921	11.18
620.112	11.5
620.303	10.92
620.494	10.5
620.686	10.41
620.877	10.45
621.068	10.49
621.259	10.81
621.451	10.44
621.642	11.02
621.833	11.15
622.024	10.91
622.215	10.75
622.406	11.16
622.597	11.42
622.788	11.65
622.98	11.71
623.171	11.74
623.362	11.41
623.553	11.8
623.744	11.07
623.935	11.54
624.126	11.72
624.317	11.57
624.508	11.58
624.698	11.42
624.889	11.24
625.08	11.15
625.271	11.05
625.462	11.19
625.653	10.87
625.844	11.02
626.034	10.84
626.225	11.03
626.416	11.09
626.607	11.06
626.798	11.25
626.988	11.38
627.179	11.53
627.37	11.46
627.56	11.43
627.751	11.6
627.942	11.81
628.132	11.77
628.323	11.6
628.514	11.67
628.704	11.75
628.895	11.79
629.085	11.66
629.276	11.3
629.466	11.35
629.657	11.2
629.847	11.55
630.038	11.62
630.228	11.45
630.419	11.35
630.609	11.11
630.8	11
630.99	10.68
631.181	10.63
631.371	11.12
631.561	10.89
631.752	10.93
631.942	10.41
632.132	10.16
632.323	10.12
632.513	10.13
632.703	10.39
632.893	10.35
633.084	10.38
633.274	10.36
633.464	10.1
633.654	10.42
633.844	10.29
634.034	10.49
634.225	10.34
634.415	10.38
634.605	10.07
634.795	9.97
634.985	10.25
635.175	10.45
635.365	10.63
635.555	10.61
635.745	10.82
635.935	11.28
636.125	11.14
636.315	11.29
636.505	11.4
636.695	11.86
636.885	11.85
637.075	11.82
637.265	12.03
637.455	11.77
637.644	11.73
637.834	11.78
638.024	11.54
638.214	12.02
638.404	12.3
638.593	12.24
638.783	12.23
638.973	12.29
639.163	12.18
639.352	11.84
639.542	11.76
639.732	12.28
639.921	11.93
640.111	11.95
640.301	11.33
640.49	11.59
640.68	11.93
640.87	11.75
641.059	11.36
641.249	11.69
641.438	11.94
641.628	12.4
641.817	12.39
642.007	12.57
642.196	12.61
642.386	12.78
642.575	12.39
642.764	11.9
642.954	11.6
643.143	12.11
643.333	11.92
643.522	11.74
643.711	11.49
643.901	10.86
644.09	10.9
644.279	11.24
644.469	11
644.658	11.07
644.847	11.24
645.036	11.39
645.226	11.39
645.415	11.25
645.604	11.4
645.793	11.33
645.982	11.35
646.171	11.03
646.361	10.57
646.55	10.72
646.739	10.46
646.928	10.14
647.117	10.41
647.306	10.44
647.495	10.71
647.684	10.93
647.873	10.84
648.062	11.15
648.251	11.65
648.44	11.71
648.629	11.32
648.818	10.97
649.007	11.35
649.196	11.06
649.384	11.07
649.573	10.86
649.762	10.82
649.951	10.73
650.14	9.99
650.328	9.76
650.517	9.56
650.706	10.13
650.895	10.81
651.083	10.79
651.272	11.13
651.461	11.33
651.65	11.7
651.838	11.23
652.027	11.81
652.216	12.31
652.404	12.38
652.593	12.85
652.781	12.56
652.97	12.33
653.158	12.25
653.347	12.26
653.535	12.07
653.724	11.58
653.912	12.09
654.101	12.14
654.289	12.17
654.478	12.2
654.666	12.34
654.855	13.22
655.043	13.18
655.231	12.98
655.42	12.39
655.608	12.09
655.796	12.58
655.985	11.97
656.173	11.59
656.361	12.17
656.55	12.08
656.738	11.97
656.926	11.58
657.114	11.58
657.302	11.27
657.491	11.88
657.679	11.87
657.867	11.19
658.055	11.6
658.243	11.88
658.431	11.16
658.619	11.08
658.807	10.92
658.996	10.61
659.184	10.83
659.372	11.23
659.56	10.95
659.748	11.08
659.936	11.47
660.124	11.24
660.311	11.27
660.499	11.65
660.687	11.96
660.875	11.96
661.063	12.03
661.251	11.84
661.439	11.7
661.627	11.84
661.814	12.2
662.002	12.18
662.19	12.34
662.378	12.14
662.565	11.89
662.753	11.46
662.941	11.45
663.129	11.68
663.316	11.9
663.504	12.19
663.692	12.4
663.879	12.53
664.067	12.04
664.254	12.24
664.442	12.5
664.63	12.88
664.817	13.37
665.005	13.41
665.192	13.68
665.38	13.75
665.567	13.57
665.755	13.32
665.942	12.72
666.13	13.65
666.317	13.58
666.504	13.03
666.692	12.86
666.879	12.74
667.067	13.39
667.254	13.27
667.441	12.89
667.629	12.97
667.816	13.13
668.003	13.52
668.19	12.93
668.378	13.04
668.565	13.23
668.752	13.41
668.939	13.05
669.127	12.05
669.314	11.86
669.501	11.77
669.688	11.8
669.875	12.1
670.062	12.16
670.249	12.04
670.436	11.9
670.623	12.43
670.81	12.17
670.997	12.27
671.184	12.36
671.371	12.55
671.558	12.92
671.745	12.99
671.932	12.34
672.119	12.13
672.306	12.69
672.493	12.88
672.68	12.49
672.867	12.54
673.054	12.72
673.24	12.59
673.427	12.7
673.614	12.63
673.801	13.08
673.988	13.28
674.174	13.62
674.361	13.04
674.548	12.5
674.734	12.21
674.921	11.84
675.108	11.6
675.294	11.5
675.481	10.9
675.668	10.89
675.854	10.59
676.041	10.6
676.227	10.16
676.414	10.17
676.601	10.63
676.787	10.89
676.974	11.44
677.16	11.56
677.347	12.17
677.533	12.6
677.719	12.21
677.906	11.77
678.092	12.3
678.279	12.42
678.465	12.67
678.651	12.18
678.838	12.5
679.024	12.27
679.21	12.25
679.397	12.02
679.583	11.46
679.769	11.63
679.955	11.92
680.142	11.68
680.328	11.54
680.514	11.41
680.7	11.84
680.886	11.49
681.073	11.55
681.259	11.43
681.445	11.55
681.631	11.92
681.817	11.46
682.003	11.18
682.189	11.35
682.375	11.45
682.561	11.7
682.747	11.57
682.933	11.57
683.119	11.31
683.305	11.63
683.491	11.58
683.677	11.72
683.863	12.28
684.049	12.48
684.235	12.07
684.42	11.96
684.606	10.92
684.792	11.11
684.978	10.99
685.164	11.5
685.349	11.42
685.535	11.2
685.721	10.6
685.907	10.34
686.092	10.66
686.278	10.59
686.464	10.99
686.649	12.25
686.835	11.84
687.021	12.13
687.206	12.08
687.392	12.22
687.577	12.77
687.763	13.1
687.948	13.97
688.134	13.86
688.319	14.05
688.505	13.75
688.69	13.72
688.876	14.19
689.061	14.1
689.247	13.64
689.432	13.13
689.618	12.9
689.803	12.89
689.988	13.05
690.174	13.02
690.359	13.1
690.544	12.82
690.73	12.94
690.915	12.67
691.1	12.18
691.285	12.76
691.471	12.6
691.656	12.6
691.841	13.03
692.026	12.5
692.211	12.22
692.396	12.05
692.582	12.37
692.767	11.79
692.952	11.69
693.137	12.36
693.322	12.74
693.507	13.9
693.692	13.52
693.877	12.96
694.062	12.99
694.247	13.5
694.432	13.42
694.617	13.55
694.802	13.42
694.987	13.13
695.172	12.64
695.357	11.94
695.541	11.43
695.726	11.83
695.911	12.14
696.096	11.97
696.281	11.62
696.466	11.92
696.65	11.74
696.835	11.66
697.02	11.87
697.204	12.9
697.389	12.83
697.574	12.88
697.759	13.02
697.943	12.98
698.128	12.78
698.312	12.89
698.497	13.08
698.682	13.41
698.866	13.89
699.051	13.56
699.235	13.18
699.42	12.98
699.604	12.92
699.789	12.98
699.973	13.44
700.158	13.65
700.342	13.51
700.527	13.52
700.711	13.61
700.895	13.17
701.08	13.85
701.264	13.55
701.448	13.77
701.633	14.13
701.817	13.41
702.001	12.57
702.186	11.98
702.37	12.82
702.554	12.46
702.738	11.56
702.923	12.05
703.107	11.57
703.291	11.42
703.475	11.45
703.659	10.69
703.843	11.39
704.027	12.07
704.212	12.81
704.396	12.6
704.58	12.56
704.764	12.62
704.948	12.7
705.132	12.93
705.316	13.45
705.5	13.75
705.684	14.4
705.868	14.69
706.052	14.57
706.235	15.23
706.419	14.69
706.603	14.65
706.787	15.05
706.971	15.07
707.155	15.01
707.339	14.83
707.522	14.7
707.706	14.46
707.89	13.72
708.074	13.97
708.257	12.93
708.441	13.25
708.625	12.48
708.808	12.69
708.992	12.44
709.176	11.98
709.359	12.02
709.543	11.86
709.727	11.29
709.91	11.54
710.094	11.94
710.277	12.5
710.461	12.27
710.644	13.27
710.828	13.02
711.011	13.35
711.195	14.04
711.378	13.87
711.562	13.97
711.745	14.31
711.928	14.19
712.112	13.78
712.295	13.38
712.478	13.07
712.662	13.05
712.845	12.81
713.028	12.59
713.212	11.99
713.395	12.75
713.578	12.52
713.761	12.34
713.945	12.91
714.128	11.78
714.311	12.2
714.494	12.15
714.677	12.59
714.86	13.31
715.043	13.06
715.227	14.26
715.41	13.27
715.593	13.81
715.776	14.93
715.959	15.09
716.142	15.87
716.325	15.72
716.508	15.5
716.691	14.96
716.874	14.39
717.057	14.6
717.239	13.94
717.422	14.24
717.605	14.03
717.788	13.5
717.971	13.19
718.154	13.3
718.337	13.06
718.519	13.36
718.702	13.42
718.885	13.34
719.068	13.09
719.25	13.49
719.433	14.12
719.616	14.71
719.798	14.84
719.981	14.81
720.164	15.03
720.346	15.38
720.529	15.61
720.712	15.17
720.894	14.72
721.077	15.37
721.259	14.67
721.442	13.98
721.624	12.64
721.807	12.04
721.989	11.5
722.172	10.44
722.354	10.92
722.537	11.67
722.719	11.58
722.901	12.53
723.084	12.19
723.266	12.65
723.448	12.36
723.631	13.12
723.813	12.64
723.995	12.07
724.178	13.36
724.36	13.78
724.542	14
724.724	14.31
724.907	14.04
725.089	15.08
725.271	14.64
725.453	14.79
725.635	14.35
725.817	14.73
725.999	14.92
726.181	14.17
726.364	12.54
726.546	11.7
726.728	11.72
726.91	12.41
727.092	11.02
727.274	11.51
727.456	11.62
727.638	12.41
727.819	12.41
728.001	13.12
728.183	12.98
728.365	14.21
728.547	14.35
728.729	14.94
728.911	14.65
729.093	14.72
729.274	14.2
729.456	13.68
729.638	12.9
729.82	13.85
730.001	13.07
730.183	13.23
730.365	12.87
730.546	13.35
730.728	12.74
730.91	12.4
731.091	12.29
731.273	12.33
731.455	11.98
731.636	13.38
731.818	13.18
731.999	14.64
732.181	14.98
732.362	14.57
732.544	14.61
732.725	15.41
732.907	15.44
733.088	16.44
733.27	16.85
733.451	18.14
733.633	16.92
733.814	16.4
733.995	15.43
734.177	15.95
734.358	16.16
734.539	16.3
734.721	15.53
734.902	15.69
735.083	15.8
735.264	15.74
735.446	15.29
735.627	15.44
735.808	15.73
735.989	16.1
736.17	15.49
736.351	16.61
736.533	16.16
736.714	16.03
736.895	16.5
737.076	15.66
737.257	15.38
737.438	15.94
737.619	15.75
737.8	15.66
737.981	16.61
738.162	16.02
738.343	14.34
738.524	13.85
738.705	14.37
738.886	13.75
739.067	13.1
739.247	13.16
739.428	11.44
739.609	11.78
739.79	11.17
739.971	9.37
740.151	8.68
740.332	9.85
740.513	10.46
740.694	9.37
740.874	9.36
741.055	9.95
741.236	11.53
741.417	14.57
741.597	14.98
741.778	15.89
741.958	17.01
742.139	18.46
742.32	16.79
742.5	17.36
742.681	18.78
742.861	18.63
743.042	18.38
743.222	17.2
743.403	15.24
743.583	15.25
743.764	15.13
743.944	14.89
744.124	14.83
744.305	15.68
744.485	14.74
744.666	13.56
744.846	14.63
745.026	16.28
745.207	16.05
745.387	16.11
745.567	16.5
745.747	15.76
745.928	14.11
746.108	13.77
746.288	13.87
746.468	14.35
746.648	15.11
746.829	15.48
747.009	14.65
747.189	14.98
747.369	14.84
747.549	14.51
747.729	15.42
747.909	16.61
748.089	16.07
748.269	15.74
748.449	15.82
748.629	16.55
748.809	14.84
748.989	14.32
749.169	14.68
749.349	15.51
749.529	14.95
749.709	15.15
749.889	14.54
750.068	15.17
750.248	16
750.428	15.13
750.608	14.71
750.788	15.88
750.967	16.75
751.147	16.29
751.327	15.93
751.507	16.59
751.686	15.75
751.866	16.38
752.046	16.95
752.225	16.36
752.405	16.03
752.585	15.06
752.764	15.1
752.944	14.68
753.123	14.36
753.303	14.97
753.482	14.83
753.662	16
753.841	15.86
754.021	16.45
754.2	17.05
754.38	18.67
754.559	19.54
754.739	19.51
754.918	18.9
755.097	18.81
755.277	18.3
755.456	17.91
755.635	17.81
755.815	18.67
755.994	16.86
756.173	15.92
756.352	14.4
756.532	14.16
756.711	13.66
756.89	14.63
757.069	15.01
757.248	14.71
757.427	15.15
757.607	15.28
757.786	14.43
757.965	15.44
758.144	15.82
758.323	16.26
758.502	15.84
758.681	16.47
758.86	16.63
759.039	17.06
759.218	18.28
759.397	17.8
759.576	14.74
759.755	13.61
759.934	13.49
760.113	13.21
760.291	12.81
760.47	13.34
760.649	13.31
760.828	12.17
761.007	11.34
761.186	9.47
761.364	10.04
761.543	12.75
761.722	13.99
761.901	13.76
762.079	15.11
762.258	14.72
762.437	14.9
762.615	14.64
762.794	15.9
762.972	17.21
763.151	17.4
763.33	17.3
763.508	16.37
763.687	16.3
763.865	16.63
764.044	16.37
764.222	16.66
764.401	17
764.579	16.46
764.758	15.01
764.936	13.73
765.114	14.65
765.293	13.99
765.471	14.42
765.65	14.3
765.828	14.58
766.006	14.78
766.184	15.52
766.363	15.16
766.541	15.28
766.719	14.97
766.898	16.43
767.076	15.47
767.254	16.57
767.432	16.71
767.61	17.22
767.788	17.1
767.967	17.24
768.145	15.98
768.323	15.79
768.501	16.32
768.679	17.93
768.857	17.49
769.035	17.48
769.213	16.64
769.391	15.48
769.569	16.02
769.747	16.48
769.925	13.84
770.103	14.4
770.281	13.93
770.459	14.52
770.636	12.91
770.814	12.06
770.992	11.75
771.17	9.97
771.348	13.08
771.525	11.23
771.703	10.16
771.881	10.31
772.059	9.51
772.236	9.37
772.414	8.03
772.592	8.85
772.769	9.38
772.947	9.78
773.125	11.38
773.302	10.1
773.48	12.97
773.657	12.66
773.835	15.1
774.013	16.76
774.19	18.47
774.368	18.7
774.545	19.6
774.723	18.82
774.9	20.43
775.077	20.07
775.255	18.49
775.432	17.66
775.61	18.58
775.787	18.35
775.964	17.67
776.142	17.65
776.319	19.71
776.496	18.69
776.674	17.64
776.851	15.35
777.028	18.1
777.205	20.84
777.382	20.99
777.56	19.34
777.737	21.75
777.914	21.36
778.091	21.36
778.268	19.6
778.445	21.04
778.622	22.07
778.8	20.94
778.977	18.79
779.154	18.76
779.331	17.71
779.508	19.88
779.685	16.63
779.862	18.69
780.038	18.41
780.215	20.54
780.392	20.38
780.569	19.98
780.746	22.62
780.923	21.18
781.1	20.69
781.277	21.61
781.453	20.59
781.63	20.41
781.807	18.05
781.984	16.55
782.16	15.21
782.337	13.04
782.514	15.24
782.691	14.58
782.867	19.36
783.044	19.03
783.221	18.37
783.397	18.65
783.574	22.29
783.75	24.57
783.927	25.03
784.103	25.25
784.28	25.43
784.456	24.75
784.633	24.34
784.809	20.72
784.986	19.54
785.162	18.39
785.339	15.82
785.515	10.24
785.692	7.78
785.868	7.96
786.044	6.98
786.221	8.23
786.397	8.4
786.573	11.72
786.749	14.06
786.926	13
787.102	15.99
787.278	15.69
787.454	19.51
787.631	20.48
787.807	17.61
787.983	17.18
788.159	19.28
788.335	14.82
788.511	13.04
788.687	12.99
788.863	15.3
789.039	11.68
789.216	13.6
789.392	11.76
789.568	10.3
789.744	13.57
789.919	14.37
790.095	9.32
790.271	12.5
790.447	10.68
790.623	8.39
790.799	5.99
790.975	8.25
791.151	7.78
791.327	7.9
791.502	8.69
791.678	9.24
791.854	8.12
792.03	13.43
792.205	13.01
792.381	14.51
792.557	17.72
792.733	21.76
792.908	21.24
793.084	22.95
793.259	22.43
793.435	20.73
793.611	18.54
793.786	18.54
793.962	15.56
794.137	15.79
794.313	17.1
794.488	16.41
794.664	14.09
794.839	13.05
795.015	11.15
795.19	11.24
795.366	15.46
795.541	16.88
795.716	15.39
795.892	15.5
796.067	17.3
796.242	14.83
796.418	13.18
796.593	15.52
796.768	16.95
796.944	15.5
797.119	17.57
797.294	14.46
797.469	16.21
797.644	20.44
797.82	22.5
797.995	18.68
798.17	21.61
798.345	22.61
798.52	19.49
798.695	19.01
798.87	21.24
799.045	19.49
799.22	20.9
799.395	18.97
799.57	18.31
799.745	17
799.92	19.89
800.095	17.3
800.27	16.7
800.445	18.21
800.62	18.79
800.795	14.94
800.97	15.7
801.145	14.68
801.319	17.15
801.494	17.2
801.669	19.49
801.844	18.02
802.018	19.85
802.193	21.07
802.368	20.52
802.543	21.35
802.717	26.01
802.892	23.18
803.067	23.14
803.241	19.18
803.416	16.89
803.59	16.55
803.765	16.37
803.94	16.79
804.114	17.4
804.289	19.25
804.463	18.61
804.638	17.81
804.812	24.32
804.986	24.32
805.161	25.92
805.335	25.77
805.51	25.14
805.684	23.49
805.858	24.05
806.033	20.81
806.207	18.29
806.381	17.04
806.556	16.63
806.73	12.32
806.904	8.7
807.078	8.19
807.253	10.57
807.427	8.82
807.601	10.13
807.775	5.76
807.949	11.19
808.123	11.17
808.298	13.23
808.472	14.28
808.646	16.59
808.82	21.36
808.994	21.02
809.168	17.92
809.342	20.18
809.516	22.5
809.69	23.54
809.864	21.96
810.038	24.7
810.212	22.62
810.385	18.05
810.559	17.89
810.733	15.25
810.907	17.39
811.081	16.52
811.255	17.31
811.428	17.3
811.602	21.49
811.776	23.99
811.95	23.4
812.123	25.67
812.297	27.66
812.471	28.27
812.644	29.76
812.818	28.23
812.992	29.7
813.165	27.24
813.339	25.14
813.512	20.08
813.686	15.31
813.86	14.63
814.033	12.63
814.207	15.85
814.38	12.86
814.554	14.14
814.727	15.73
814.9	14.55
815.074	13.86
815.247	16.32
815.421	19.25
815.594	19.75
815.767	19.09
815.941	20.93
816.114	23.59
816.287	23.81
816.46	23.38
816.634	19.72
816.807	22.33
816.98	24.2
817.153	20.06
817.327	15.93
817.5	17.81
817.673	20.49
817.846	19.45
818.019	11.62
818.192	13.35
818.365	10.98
818.538	16.17
818.711	18.35
818.884	16.06
819.057	19.04
819.23	21.85
819.403	22.04
819.576	19.75
819.749	17.8
819.922	20.15
820.095	19.22
820.268	20.91
820.441	18.71
820.614	15.65
820.786	15.82
820.959	15.5
821.132	15.18
821.305	14.76
821.477	14.36
821.65	16
821.823	16.03
821.996	15.96
822.168	15.53
822.341	15.85
822.514	15.75
822.686	15.89
822.859	15.2
823.031	14.9
823.204	14.02
823.376	14
823.549	12.76
823.722	12.64
823.894	12.38
824.067	12.3
824.239	11.59
824.411	12.21
824.584	12.6
824.756	12.73
824.929	12.95
825.101	14.84
825.273	14.33
825.446	15.51
825.618	16.27
825.79	16.1
825.963	15.97
826.135	16.08
826.307	16.08
826.479	15.36
826.652	15.44
826.824	16.49
826.996	14.95
827.168	15.38
827.34	15.44
827.512	14.53
827.684	16.29
827.856	15.63
828.029	14.39
828.201	13.37
828.373	12.85
828.545	13.18
828.717	11.59
828.889	13.17
829.061	13.38
829.232	12.57
829.404	11.5
829.576	9.7
829.748	11.89
829.92	15.32
830.092	18.08
830.264	19.08
830.436	20.83
830.607	21.98
830.779	18.03
830.951	17.67
831.123	18.5
831.294	20.2
831.466	19.54
831.638	18
831.809	17.76
831.981	13.59
832.153	10.15
832.324	8.7
832.496	14.49
832.667	19.75
832.839	20.07
833.011	21.21
833.182	19.36
833.354	20.06
833.525	19.15
833.697	20.5
833.868	20.23
834.039	23
834.211	23.02
834.382	22.21
834.554	21.47
834.725	22.07
834.896	19.33
835.068	21.64
835.239	18.79
835.41	18.96
835.581	17.59
835.753	19.29
835.924	17.36
836.095	15.35
836.266	11.51
836.438	9.1
836.609	7.22
836.78	9.97
836.951	9.12
837.122	10.12
837.293	11.47
837.464	9.85
837.635	11.96
837.806	14.78
837.977	18.23
838.148	20.27
838.319	21.99
838.49	29.28
838.661	30.95
838.832	28.01
839.003	32.64
839.174	35.34
839.345	37.64
839.516	32.61
839.687	34.71
839.857	38.86
840.028	40.12
840.199	42.52
840.37	38.1
840.54	33.81
840.711	36.52
840.882	38.88
841.053	37.9
841.223	37.77
841.394	36.47
841.564	32.36
841.735	26.02
841.906	22.27
842.076	20.79
842.247	19.94
842.417	23.21
842.588	22.16
842.758	19.22
842.929	12.53
843.099	11.64
843.27	10.87
843.44	13.93
843.611	16.8
843.781	15.12
843.951	3.03
844.122	10.02
844.292	5.05
844.462	6.67
844.633	2.03
844.803	11.41
844.973	14.88
845.144	24.67
845.314	15.57
845.484	13.79
845.654	19.22
845.824	33.53
845.995	11.98
846.165	18.81
846.335	21.64
846.505	41.33
846.675	36.17
846.845	46.58
847.015	36.71
847.185	50.07
847.355	46.2
847.525	48.36
847.695	39.31
847.865	47.29
848.035	40.52
848.205	36.15
848.375	27
848.545	13.27
848.715	0.05
848.884	15.32
849.054	6.49
849.224	3.22
849.394	-8.27
849.564	-9.49
849.733	-18.93
849.903	-23.39
850.073	1.74
850.243	1.92
850.412	23.75
850.582	29.78
850.752	19.96
850.921	27.64
851.091	28.22
851.26	31.83
851.43	55.97
851.599	44.38
851.769	60.35
851.939	37.91
852.108	41.39
852.278	33.65
852.447	24.56
852.616	24.52
852.786	23.83
852.955	19.59
853.125	12.82
853.294	7.85
853.463	29.65
853.633	19.98
853.802	17.92
853.971	27.99
854.141	33.37
854.31	27.78
854.479	31.79
854.648	29.2
854.818	25.47
854.987	36.3
855.156	42.41
855.325	41.22
855.494	48.08
855.663	43
855.832	35.15
856.001	37.22
856.171	42.59
856.34	33.75
856.509	35.6
856.678	41.19
856.847	29
857.016	21.48
857.185	24.23
857.353	21.84
857.522	16.69
857.691	14.1
857.86	4.01
858.029	-1.8
858.198	-10.12
858.367	-6.63
858.535	-10.93
858.704	-4.46
858.873	18.3
859.042	8.38
859.21	18.01
859.379	34.84
859.548	42.11
859.717	52.47
859.885	57.03
860.054	64.07
860.222	58.26
860.391	56.95
860.56	56.61
860.728	28.77
860.897	30.84
861.065	0.49
861.234	2.25
861.402	10.61
861.571	9.33
861.739	11.43
861.908	16.53
862.076	25.98
862.244	27.17
862.413	31.27
862.581	44.65
862.749	37.93
862.918	45.46
863.086	42.53
863.254	37.98
863.423	49.87
863.591	49.89
863.759	55.31
863.927	49.5
864.096	46.38
864.264	33.48
864.432	21.32
864.6	25.75
864.768	35.74
864.936	38.82
865.104	33.67
865.272	25.95
865.44	26.53
865.608	25.72
865.776	38.43
865.944	66.86
866.112	73.72
866.28	82.99
866.448	69.98
866.616	77.03
866.784	67.79
866.952	67.73
867.12	55.14
867.288	39.06
867.455	23.47
867.623	12.73
867.791	-5
867.959	-3.11
868.127	-1.64
868.294	10.95
868.462	1.35
868.63	9.33
868.797	4.86
868.965	-4.9
869.133	-4.26
869.3	4.94
869.468	17.53
869.636	20.61
869.803	14.49
869.971	26.51
870.138	31.72
870.306	49.67
870.473	30.51
870.641	26.45
870.808	60.64
870.975	58.24
871.143	48.34
871.31	38.03
871.478	35.41
871.645	48.39
871.812	38.02
871.98	42.46
872.147	26.77
872.314	39.94
872.482	54.18
872.649	35.36
872.816	42.41
872.983	40.32
873.15	31.35
873.318	38.49
873.485	29.49
873.652	20.72
873.819	17.58
873.986	27.98
874.153	36.97
874.32	37.71
874.487	34.08
874.654	18.6
874.821	33.19
874.988	39.52
875.155	19.37
875.322	9.75
875.489	23.41
875.656	5.58
875.823	-6.5
875.99	-14.78
876.157	-32.13
876.324	-16.97
876.49	-19.97
876.657	-27.37
876.824	-48.01
876.991	-29.38
877.157	-9.15
877.324	0.65
877.491	26.74
877.658	22.83
877.824	16.66
877.991	29.2
878.157	28.34
878.324	42.14
878.491	40
878.657	57.58
878.824	57.27
878.99	48.21
879.157	33.84
879.323	18.72
879.49	16.44
879.656	37.82
879.823	33.26
879.989	27.91
880.156	20.57
880.322	21.8
880.488	21.53
880.655	11.2
880.821	19.61
880.987	20.97
881.154	17.29
881.32	23.01
881.486	8.16
881.652	5.13
881.819	10.78
881.985	9.48
882.151	10.88
882.317	11.73
882.483	17.59
882.649	14.19
882.816	11.59
882.982	12.95
883.148	11.5
883.314	14.86
883.48	15.39
883.646	15.9
883.812	17.32
883.978	17.91
884.144	17.85
884.31	17.22
884.476	17.3
884.642	20.74
884.807	22.64
884.973	24.15
885.139	20.84
885.305	21.39
885.471	23.15
885.637	23.09
885.802	24.78
885.968	26.07
886.134	28.65
886.3	31.27
886.465	33.77
886.631	37.29
886.797	35.84
886.962	38.89
887.128	42.18
887.293	37.78
887.459	43.82
887.625	36.2
887.79	33.26
887.956	28.59
888.121	27.35
888.287	19.74
888.452	9.59
888.618	14.43
888.783	25.55
