Data from 2938051_Reflection_3.txt Node
Date: Sun Jul 12 14:12:44 EDT 2015
User: robert
Spectrometer: USB4E03001
Autoset integration time: false
Trigger mode: 4
Integration Time (sec): 1.000000E-1
Scans to average: 10
Electric dark correction enabled: true
Nonlinearity correction enabled: false
Boxcar width: 5
Stray light correction enabled: false
XAxis mode: Wavelengths
Stop averaging: false
Number of Pixels in Spectrum: 3648
>>>>>Begin Spectral Data<<<<<
177.566	144.66
177.785	351.93
178.005	264.96
178.225	578.41
178.445	-481.4
178.665	-97.74
178.885	-56.2
179.105	143.73
179.324	116.46
179.544	145.73
179.764	124.7
179.984	91.6
180.204	167.05
180.423	160.26
180.643	168.45
180.863	153.23
181.083	107.95
181.302	77.06
181.522	66.31
181.742	112.83
181.961	238.66
182.181	155.59
182.401	133.67
182.621	75.23
182.84	81.95
183.06	64.88
183.279	65.48
183.499	54.16
183.719	34.26
183.938	8.81
184.158	16.11
184.377	-0.55
184.597	-9.48
184.816	-4.58
185.036	-4.13
185.256	-20.35
185.475	-12.96
185.695	-4.72
185.914	-6.05
186.134	-4.56
186.353	-2.94
186.572	2.15
186.792	1.83
187.011	6.33
187.231	-16.81
187.45	-29.15
187.67	-19.14
187.889	3.32
188.108	1.92
188.328	18.52
188.547	15.73
188.766	22.77
188.986	21.14
189.205	34.71
189.424	47.54
189.644	57.7
189.863	62.24
190.082	88.48
190.302	115.49
190.521	130.75
190.74	164.32
190.959	159.88
191.178	232.86
191.398	-2235.88
191.617	-312.83
191.836	-226.85
192.055	-69.83
192.274	-154.29
192.494	-47.1
192.713	-63.22
192.932	-80.3
193.151	67.09
193.37	89.48
193.589	138.71
193.808	-113.83
194.027	-74.46
194.246	38.35
194.465	60.91
194.685	98.95
194.904	75.82
195.123	32.5
195.342	43.29
195.561	61.65
195.78	77.14
195.999	63.19
196.218	59.14
196.436	62.17
196.655	42.34
196.874	24.65
197.093	17.2
197.312	18.06
197.531	49
197.75	56.56
197.969	50.91
198.188	45.82
198.407	57.96
198.625	69.25
198.844	69.24
199.063	76.22
199.282	114.48
199.501	114.37
199.719	118.75
199.938	130.92
200.157	88.55
200.376	86.91
200.594	106.49
200.813	108.12
201.032	103.5
201.251	75.66
201.469	48.54
201.688	60.77
201.907	79.61
202.125	71.49
202.344	78.31
202.563	134.26
202.781	101.41
203	133
203.218	143.8
203.437	158.79
203.656	142.49
203.874	136.45
204.093	115.1
204.311	219.85
204.53	177.63
204.748	100.31
204.967	76.9
205.185	107.54
205.404	50.62
205.622	54.65
205.841	39.81
206.059	56.32
206.278	90.44
206.496	97.79
206.715	68.12
206.933	50.86
207.151	35.45
207.37	33.02
207.588	40.63
207.806	61.6
208.025	62.28
208.243	64.71
208.461	40.06
208.68	40.85
208.898	56.16
209.116	51
209.335	102.17
209.553	110.87
209.771	156.77
209.989	114.11
210.208	114.17
210.426	94.68
210.644	76.51
210.862	91.28
211.081	91.77
211.299	71.49
211.517	94.44
211.735	67.19
211.953	60.74
212.171	64.7
212.39	60.92
212.608	54.08
212.826	40.06
213.044	49.63
213.262	44.86
213.48	36.75
213.698	10.89
213.916	-6.86
214.134	11.86
214.352	8.46
214.57	-5.2
214.788	-22.99
215.006	-9.2
215.224	10.63
215.442	0.67
215.66	14.36
215.878	20.31
216.096	47.17
216.314	40.16
216.532	29.47
216.75	31.04
216.968	38.94
217.185	40.3
217.403	30.06
217.621	26.71
217.839	20.96
218.057	11.13
218.275	21.24
218.492	39.76
218.71	28.16
218.928	38.34
219.146	23.08
219.363	16.18
219.581	23.71
219.799	47.64
220.017	51.65
220.234	50.32
220.452	56.47
220.67	51.24
220.887	48.61
221.105	43.91
221.323	42.82
221.54	70.44
221.758	68.04
221.976	67
222.193	66.41
222.411	62.63
222.629	68.14
222.846	62.59
223.064	54.64
223.281	48.78
223.499	54.22
223.716	51.6
223.934	40.26
224.151	34.38
224.369	34.66
224.586	30.31
224.804	26.92
225.021	28.59
225.239	33.21
225.456	35.76
225.674	36.34
225.891	36.26
226.108	32.75
226.326	39.07
226.543	38.51
226.76	29.73
226.978	25.92
227.195	22.59
227.413	23.13
227.63	22.3
227.847	22.58
228.064	18.98
228.282	15.57
228.499	15.52
228.716	12.72
228.934	11.01
229.151	12.33
229.368	11.6
229.585	12.41
229.802	12.77
230.02	10.23
230.237	8.81
230.454	9.11
230.671	13.22
230.888	13.26
231.105	13.75
231.323	14.85
231.54	15.3
231.757	17.68
231.974	16.08
232.191	12.39
232.408	13.16
232.625	16.27
232.842	13.26
233.059	10.99
233.276	9.16
233.493	11.02
233.71	10.46
233.927	9.3
234.144	8.51
234.361	10.37
234.578	11.72
234.795	11.22
235.012	11.15
235.229	13.44
235.446	11.2
235.663	9.46
235.879	7.13
236.096	9.07
236.313	6.14
236.53	9.58
236.747	7.32
236.964	4.64
237.181	11.03
237.397	8.19
237.614	10.55
237.831	12.1
238.048	17.03
238.264	18.07
238.481	16.51
238.698	18.2
238.915	13.89
239.131	14.14
239.348	17.21
239.565	13.91
239.781	14.78
239.998	14.76
240.215	9.7
240.431	9.21
240.648	8.28
240.865	6.07
241.081	8.3
241.298	7.85
241.514	8.46
241.731	7.43
241.947	7.5
242.164	7.02
242.38	6.02
242.597	6.91
242.814	7.07
243.03	8.71
243.246	9.57
243.463	8.28
243.679	9.18
243.896	9.84
244.112	9.37
244.329	10
244.545	10.27
244.762	10.42
244.978	11.61
245.194	11.65
245.411	10.22
245.627	11.23
245.843	10.21
246.06	10.09
246.276	9.02
246.492	9.64
246.709	8.7
246.925	8.82
247.141	8.05
247.357	7.69
247.574	7.16
247.79	7.02
248.006	6.07
248.222	6.51
248.439	6.19
248.655	6.78
248.871	6.44
249.087	7.33
249.303	6.09
249.519	6.51
249.736	7.15
249.952	8.22
250.168	8.73
250.384	9.16
250.6	9.02
250.816	8.86
251.032	8.91
251.248	7.73
251.464	4.4
251.68	6.88
251.896	7.27
252.112	6.28
252.328	5.29
252.544	5.24
252.76	5.73
252.976	5.81
253.192	6.85
253.408	5.82
253.624	7.12
253.84	7.43
254.056	5.98
254.272	7.3
254.487	7.13
254.703	7.54
254.919	7.79
255.135	8.87
255.351	6.18
255.567	7.41
255.782	7.58
255.998	5.8
256.214	9.33
256.43	9.17
256.646	8.69
256.861	9.3
257.077	9.1
257.293	7.71
257.508	8.11
257.724	10.85
257.94	8.74
258.155	8.33
258.371	8.28
258.587	6.47
258.802	6.61
259.018	5.38
259.234	5.56
259.449	4.98
259.665	5.6
259.88	5.65
260.096	5.76
260.312	5.77
260.527	5.75
260.743	5.97
260.958	6.76
261.174	6.65
261.389	7.31
261.605	7.32
261.82	7.63
262.036	7.1
262.251	7.24
262.466	5.23
262.682	5.35
262.897	4.88
263.113	5.39
263.328	4.87
263.543	3.57
263.759	4.15
263.974	4.63
264.189	4.89
264.405	6
264.62	5.49
264.835	7.11
265.051	6.83
265.266	8.26
265.481	6.67
265.696	5.82
265.912	6.96
266.127	6.09
266.342	5.99
266.557	6.53
266.773	6.45
266.988	5.84
267.203	5.36
267.418	4.06
267.633	3.44
267.848	4.7
268.064	4.58
268.279	4.75
268.494	4.34
268.709	3.15
268.924	3.62
269.139	3.23
269.354	4.34
269.569	4.24
269.784	6.56
269.999	6.02
270.214	5.02
270.429	4.75
270.644	5.17
270.859	5.14
271.074	6.17
271.289	5.75
271.504	5.28
271.719	5.13
271.934	5.84
272.149	5.01
272.363	5.84
272.578	6.64
272.793	7.66
273.008	7.29
273.223	7.91
273.438	7.06
273.653	6.68
273.867	7.1
274.082	6.87
274.297	7.16
274.512	7.48
274.726	7.05
274.941	6.66
275.156	7.21
275.371	7.25
275.585	7.08
275.8	6.85
276.015	7.56
276.229	7.64
276.444	7.4
276.659	6.29
276.873	6.26
277.088	7.26
277.302	8.24
277.517	7.71
277.732	8.33
277.946	8.3
278.161	8.38
278.375	5.93
278.59	5.18
278.804	4.58
279.019	5
279.233	3.56
279.448	2.52
279.662	0.81
279.877	1.34
280.091	1.8
280.306	2.09
280.52	2.46
280.735	4.12
280.949	4.34
281.163	4.36
281.378	3.64
281.592	5.53
281.806	5
282.021	5.8
282.235	4.96
282.449	3.85
282.664	3.35
282.878	4.18
283.092	4.88
283.307	6.31
283.521	6.23
283.735	7.39
283.949	7.06
284.164	7.42
284.378	8.09
284.592	9
284.806	9.64
285.02	10.79
285.234	10.16
285.449	9.87
285.663	10.76
285.877	10.76
286.091	11.19
286.305	11.63
286.519	11.07
286.733	10.33
286.947	9.37
287.161	9.44
287.375	8.13
287.589	8.96
287.803	9.02
288.017	6.62
288.231	7.41
288.445	7.13
288.659	6.26
288.873	7.32
289.087	7.82
289.301	8.45
289.515	8.31
289.729	8.84
289.943	8.85
290.157	9.05
290.371	9.24
290.584	9.76
290.798	9.6
291.012	9.4
291.226	9.22
291.44	9.19
291.654	8.96
291.867	9.31
292.081	9.43
292.295	8.48
292.509	8.14
292.722	8.59
292.936	7.88
293.15	8.06
293.364	8.19
293.577	8.31
293.791	8.28
294.005	9.61
294.218	9.66
294.432	10.01
294.645	11.29
294.859	11.47
295.073	11.44
295.286	12.19
295.5	11.65
295.713	12.09
295.927	11.53
296.14	11.94
296.354	11.35
296.568	11.14
296.781	11.22
296.994	10.83
297.208	10.94
297.421	11.14
297.635	10.56
297.848	10.51
298.062	9.8
298.275	10.38
298.489	9.5
298.702	10.25
298.915	9.8
299.129	9.57
299.342	9.08
299.555	9.22
299.769	9.24
299.982	9.38
300.195	9.73
300.409	10.44
300.622	9.98
300.835	11.53
301.048	10.23
301.262	11.61
301.475	11.43
301.688	12.01
301.901	12.24
302.115	11.53
302.328	11.26
302.541	10.64
302.754	11.17
302.967	12.26
303.18	11.03
303.393	11.83
303.607	10.71
303.82	11.92
304.033	11.87
304.246	11.4
304.459	12.26
304.672	14.26
304.885	14.55
305.098	13.95
305.311	13.6
305.524	14.37
305.737	13.64
305.95	13.98
306.163	13.15
306.376	13.62
306.589	14.55
306.802	13.71
307.015	12.8
307.228	13.4
307.44	13.66
307.653	14.47
307.866	13.81
308.079	14.37
308.292	13.7
308.505	13.49
308.718	13.58
308.93	13.15
309.143	13.99
309.356	14.05
309.569	14.03
309.781	13.87
309.994	13
310.207	13.41
310.42	13.04
310.632	13.33
310.845	13.54
311.058	13.88
311.27	13.74
311.483	13.95
311.696	13.91
311.908	13.51
312.121	14.26
312.333	15.23
312.546	15.01
312.759	16.35
312.971	16.86
313.184	16.44
313.396	15.77
313.609	15.03
313.821	13.34
314.034	13.77
314.246	15.15
314.459	15.15
314.671	14.6
314.884	14.49
315.096	13.83
315.309	12.77
315.521	13.05
315.733	13.05
315.946	12.67
316.158	15.06
316.371	14.25
316.583	13.92
316.795	13.06
317.008	13.43
317.22	13.58
317.432	12.24
317.644	14.34
317.857	13.78
318.069	14.15
318.281	16.37
318.494	15.34
318.706	15.3
318.918	13.75
319.13	13.79
319.342	12.93
319.555	13.5
319.767	13.63
319.979	13.22
320.191	14.77
320.403	14.61
320.615	14.89
320.827	15.12
321.039	14.91
321.252	16
321.464	15.45
321.676	15.71
321.888	15.69
322.1	16.6
322.312	15.93
322.524	16.1
322.736	16.18
322.948	15
323.16	14.83
323.372	15.02
323.584	15.35
323.796	17.58
324.007	18.1
324.219	18.3
324.431	18.77
324.643	19.61
324.855	19.2
325.067	19.19
325.279	19.89
325.491	20.93
325.702	21.16
325.914	21.07
326.126	20.69
326.338	20.81
326.55	20.43
326.761	20.69
326.973	21.49
327.185	21.78
327.396	22.52
327.608	23.04
327.82	22.86
328.032	23.33
328.243	24.33
328.455	25.14
328.666	26.3
328.878	27.78
329.09	27.84
329.301	28.36
329.513	28.63
329.725	29.64
329.936	30.74
330.148	31.7
330.359	32.49
330.571	33.37
330.782	32.06
330.994	31.36
331.205	33.73
331.417	34.9
331.628	34.67
331.84	35.25
332.051	35.57
332.262	36.26
332.474	36.76
332.685	37.56
332.897	37
333.108	38.42
333.319	39.74
333.531	37.73
333.742	38.52
333.953	39.72
334.165	40.91
334.376	40.82
334.587	40.79
334.799	41.38
335.01	41.63
335.221	43.35
335.432	43.36
335.644	43.7
335.855	43.79
336.066	44.89
336.277	45.12
336.488	44.65
336.7	45.38
336.911	45.59
337.122	45.71
337.333	47.05
337.544	46.55
337.755	47.37
337.966	47.88
338.177	49.15
338.388	47.6
338.599	47.65
338.811	47.94
339.022	47.82
339.233	47.41
339.444	47.02
339.655	45.58
339.866	45.59
340.076	46.37
340.287	46.44
340.498	45.39
340.709	45.78
340.92	45.35
341.131	45.58
341.342	45.63
341.553	46.53
341.764	47.1
341.975	47.73
342.185	48.17
342.396	47.58
342.607	47.62
342.818	49.1
343.029	49.62
343.239	49.55
343.45	50.41
343.661	51.94
343.872	51.41
344.082	52.15
344.293	52.1
344.504	52.46
344.714	52.91
344.925	52.81
345.136	52.25
345.346	52.47
345.557	53.42
345.768	53.4
345.978	51.87
346.189	52.34
346.399	52.18
346.61	52.87
346.821	52.24
347.031	52.38
347.242	52.41
347.452	52.97
347.663	52.51
347.873	51.62
348.084	50.63
348.294	51.09
348.504	50.85
348.715	50.74
348.925	49.66
349.136	50
349.346	48.78
349.557	48.57
349.767	47.59
349.977	47.95
350.188	48.07
350.398	48.49
350.608	49.46
350.819	48.82
351.029	47.98
351.239	47.29
351.449	47.69
351.66	47.58
351.87	47.78
352.08	47.94
352.29	47.67
352.501	47.82
352.711	48.7
352.921	47.74
353.131	48.31
353.341	48.42
353.552	49.86
353.762	49.83
353.972	50.15
354.182	50.13
354.392	50.15
354.602	50.48
354.812	50.91
355.022	50.15
355.232	50.92
355.442	51.19
355.652	52
355.862	51.91
356.072	51.82
356.282	52.62
356.492	52.27
356.702	52.52
356.912	52.03
357.122	52.62
357.332	52.61
357.542	52.23
357.752	52.2
357.962	51.27
358.171	51.06
358.381	50.7
358.591	50.61
358.801	51.02
359.011	51.48
359.221	51.8
359.43	50.91
359.64	51.05
359.85	50.63
360.06	50.76
360.269	50.86
360.479	50.67
360.689	50.83
360.899	50.14
361.108	49.75
361.318	49.88
361.528	49.75
361.737	50.07
361.947	50.22
362.156	50.61
362.366	50.57
362.576	50.65
362.785	50.45
362.995	50.44
363.204	50.29
363.414	50.21
363.623	49.74
363.833	49.93
364.042	49.48
364.252	48.84
364.461	48.37
364.671	47.56
364.88	46.91
365.09	47.36
365.299	47.38
365.509	47.51
365.718	47.72
365.927	47.2
366.137	46.83
366.346	46.48
366.555	46.38
366.765	46.46
366.974	46.86
367.183	47.39
367.393	47.07
367.602	46.86
367.811	47.24
368.021	47.08
368.23	47.34
368.439	46.64
368.648	46.49
368.857	46.61
369.067	46.12
369.276	46.58
369.485	46.45
369.694	45.92
369.903	45.88
370.112	45.61
370.321	45.57
370.531	45.47
370.74	46.1
370.949	46.2
371.158	46.21
371.367	46.35
371.576	45.98
371.785	45.98
371.994	46
372.203	45.73
372.412	45.82
372.621	45.79
372.83	45.79
373.039	45.8
373.248	45.37
373.457	45.32
373.666	45.05
373.874	44.35
374.083	44.94
374.292	44.9
374.501	44.96
374.71	44.48
374.919	44.64
375.128	44.9
375.336	44.61
375.545	44.92
375.754	44.02
375.963	44.06
376.171	43.69
376.38	42.83
376.589	42.5
376.798	42.49
377.006	42.93
377.215	42.66
377.424	42.19
377.632	42.01
377.841	41.84
378.05	42.32
378.258	42.35
378.467	42.64
378.675	42.67
378.884	42.74
379.093	42.34
379.301	41.7
379.51	41.18
379.718	40.82
379.927	40.61
380.135	40.36
380.344	39.92
380.552	39.85
380.761	39.92
380.969	39.73
381.177	39.55
381.386	39.33
381.594	39.1
381.803	39.08
382.011	39.45
382.219	39.12
382.428	39.44
382.636	39.75
382.845	39.61
383.053	39.27
383.261	39.15
383.469	39.44
383.678	39.2
383.886	39.26
384.094	39.41
384.302	38.95
384.511	39.08
384.719	38.74
384.927	38.04
385.135	37.52
385.343	37.06
385.552	36.72
385.76	36.32
385.968	36.42
386.176	36.01
386.384	35.99
386.592	35.65
386.8	35.73
387.008	35.37
387.216	35.5
387.424	35.47
387.633	35.68
387.841	35.81
388.049	35.66
388.257	35.85
388.465	35.98
388.672	35.64
388.88	35.89
389.088	35.38
389.296	35.22
389.504	34.68
389.712	34.63
389.92	34.29
390.128	33.77
390.336	33.09
390.544	32.6
390.751	32.67
390.959	32.52
391.167	32.3
391.375	32.68
391.583	32.79
391.79	32.99
391.998	32.88
392.206	32.93
392.414	32.89
392.621	33.21
392.829	33.03
393.037	32.58
393.244	32.68
393.452	32.66
393.66	32.47
393.867	32.31
394.075	32.32
394.283	32.12
394.49	31.91
394.698	32.11
394.905	32.14
395.113	32.08
395.32	32.06
395.528	31.96
395.735	31.9
395.943	31.74
396.15	31.82
396.358	31.78
396.565	31.86
396.773	31.87
396.98	31.71
397.188	31.5
397.395	31.75
397.602	31.78
397.81	31.36
398.017	31.01
398.225	31.09
398.432	30.97
398.639	30.86
398.847	30.77
399.054	30.63
399.261	30.66
399.468	30.47
399.676	30.45
399.883	30.29
400.09	30.34
400.297	30.4
400.505	29.96
400.712	30.12
400.919	30.24
401.126	30.35
401.333	30.35
401.54	30.3
401.748	30.02
401.955	29.68
402.162	29.67
402.369	29.91
402.576	29.98
402.783	30.25
402.99	30.22
403.197	30.03
403.404	29.88
403.611	29.98
403.818	29.96
404.025	30.31
404.232	30.34
404.439	30.44
404.646	30.39
404.853	30.14
405.06	30.04
405.267	29.67
405.474	29.49
405.681	29.43
405.887	29.22
406.094	29.1
406.301	29.29
406.508	29.22
406.715	29.24
406.922	28.93
407.128	29.07
407.335	29.1
407.542	29.17
407.749	29.22
407.955	29.18
408.162	29.32
408.369	29.33
408.575	28.99
408.782	29
408.989	28.73
409.195	28.67
409.402	28.55
409.609	28.5
409.815	28.55
410.022	28.77
410.228	28.28
410.435	28.23
410.642	28.04
410.848	28.15
411.055	28.25
411.261	28.39
411.468	28.34
411.674	28.52
411.881	28.17
412.087	28.2
412.294	28.05
412.5	28.39
412.706	28.07
412.913	28.34
413.119	28.01
413.326	27.92
413.532	28
413.738	28.12
413.945	28.27
414.151	28.36
414.357	27.99
414.564	27.89
414.77	27.81
414.976	27.67
415.182	27.29
415.389	27.21
415.595	26.98
415.801	26.77
416.007	26.61
416.214	26.3
416.42	26.29
416.626	26.46
416.832	26.52
417.038	26.58
417.244	26.83
417.45	26.89
417.657	27.08
417.863	27.19
418.069	27.17
418.275	27.28
418.481	27.19
418.687	27.19
418.893	27.08
419.099	27.01
419.305	27.18
419.511	27.08
419.717	26.99
419.923	26.84
420.129	26.81
420.335	26.79
420.541	26.71
420.746	26.59
420.952	26.61
421.158	26.46
421.364	26.49
421.57	26.23
421.776	26.32
421.982	26.38
422.187	26.41
422.393	26.23
422.599	26.27
422.805	26.21
423.01	26.39
423.216	26.34
423.422	26.43
423.628	26.37
423.833	26.34
424.039	26.28
424.245	26.24
424.45	26.19
424.656	26.17
424.862	26.12
425.067	26.16
425.273	26.07
425.478	26.06
425.684	26.01
425.889	25.98
426.095	26.08
426.301	26
426.506	25.92
426.712	25.97
426.917	26.13
427.123	26.11
427.328	26.06
427.533	26.08
427.739	25.94
427.944	26.22
428.15	26.24
428.355	26.23
428.561	26.03
428.766	26.17
428.971	26.28
429.177	26.12
429.382	26.17
429.587	26.13
429.793	26.23
429.998	26.46
430.203	25.92
430.408	25.94
430.614	25.78
430.819	26.04
431.024	25.94
431.229	25.75
431.434	25.95
431.64	25.54
431.845	25.52
432.05	25.33
432.255	25.03
432.46	25.29
432.665	25.12
432.87	25.22
433.076	25.13
433.281	25.05
433.486	25.07
433.691	25.02
433.896	25.26
434.101	25.5
434.306	25.58
434.511	25.64
434.716	25.64
434.921	25.61
435.126	25.59
435.331	25.67
435.535	25.74
435.74	25.81
435.945	25.86
436.15	25.86
436.355	25.48
436.56	25.45
436.765	25.59
436.97	25.62
437.174	25.79
437.379	25.75
437.584	25.84
437.789	25.85
437.993	25.89
438.198	25.88
438.403	25.84
438.608	25.88
438.812	25.81
439.017	25.71
439.222	25.71
439.426	25.82
439.631	25.76
439.836	25.69
440.04	25.65
440.245	25.5
440.45	25.52
440.654	25.63
440.859	25.91
441.063	25.98
441.268	25.98
441.472	26.06
441.677	25.93
441.881	26.09
442.086	26.08
442.29	26.19
442.495	26.3
442.699	26.16
442.904	26.05
443.108	25.83
443.312	25.85
443.517	25.88
443.721	25.92
443.925	25.93
444.13	25.87
444.334	25.85
444.538	25.92
444.743	25.8
444.947	25.83
445.151	25.72
445.356	25.86
445.56	25.82
445.764	25.82
445.968	25.6
446.173	25.52
446.377	25.38
446.581	25.34
446.785	25.29
446.989	25.42
447.193	25.37
447.398	25.38
447.602	25.22
447.806	25.25
448.01	25.21
448.214	25.26
448.418	25.26
448.622	25.38
448.826	25.35
449.03	25.21
449.234	24.98
449.438	24.96
449.642	25.04
449.846	24.99
450.05	24.86
450.254	24.72
450.458	24.74
450.662	24.71
450.866	24.7
451.069	24.71
451.273	24.7
451.477	24.75
451.681	24.75
451.885	24.69
452.089	24.74
452.292	24.73
452.496	24.77
452.7	24.87
452.904	24.97
453.107	25.17
453.311	25.15
453.515	25.28
453.719	25.35
453.922	25.36
454.126	25.39
454.33	25.39
454.533	25.42
454.737	25.45
454.94	25.32
455.144	25.29
455.348	25.1
455.551	25.13
455.755	25.04
455.958	25.02
456.162	24.83
456.365	24.86
456.569	24.85
456.772	24.77
456.976	24.81
457.179	24.8
457.383	24.72
457.586	24.56
457.79	24.72
457.993	24.69
458.196	24.51
458.4	24.69
458.603	24.75
458.807	24.69
459.01	24.85
459.213	24.9
459.417	24.97
459.62	25.02
459.823	25.07
460.026	24.96
460.23	24.99
460.433	25.06
460.636	25.08
460.839	25.04
461.042	25.15
461.246	25.02
461.449	24.89
461.652	24.69
461.855	24.67
462.058	24.8
462.261	24.78
462.464	24.85
462.668	25.04
462.871	25.23
463.074	25.25
463.277	25.29
463.48	25.3
463.683	25.47
463.886	25.82
464.089	25.77
464.292	25.69
464.495	25.72
464.698	25.68
464.901	25.73
465.104	25.56
465.306	25.55
465.509	25.53
465.712	25.63
465.915	25.64
466.118	25.57
466.321	25.61
466.524	25.61
466.726	25.71
466.929	25.86
467.132	25.82
467.335	25.77
467.538	25.86
467.74	25.79
467.943	25.88
468.146	25.95
468.348	25.98
468.551	26.12
468.754	26.21
468.956	26.19
469.159	26.09
469.362	26.07
469.564	26.2
469.767	26.24
469.969	26.37
470.172	26.44
470.375	26.36
470.577	26.32
470.78	26.18
470.982	26.21
471.185	26.12
471.387	26.35
471.59	26.38
471.792	26.38
471.995	26.2
472.197	26.21
472.399	26.12
472.602	26.19
472.804	26.16
473.007	26.25
473.209	26.16
473.411	26.22
473.614	25.9
473.816	25.84
474.018	25.7
474.22	26.12
474.423	26.02
474.625	26.04
474.827	26.08
475.03	26.15
475.232	26.21
475.434	26.28
475.636	26.18
475.838	26.38
476.04	26.38
476.243	26.73
476.445	26.47
476.647	26.5
476.849	26.42
477.051	26.42
477.253	26.49
477.455	26.33
477.657	26.36
477.859	26.69
478.061	26.47
478.263	26.54
478.465	26.31
478.667	26.26
478.869	26.26
479.071	26.26
479.273	26.14
479.475	25.94
479.677	26.17
479.879	26.04
480.081	25.96
480.283	25.97
480.485	25.89
480.686	25.91
480.888	25.81
481.09	25.76
481.292	25.7
481.494	25.68
481.695	25.74
481.897	25.55
482.099	25.52
482.301	25.44
482.502	25.46
482.704	25.43
482.906	25.43
483.107	25.43
483.309	25.45
483.511	25.46
483.712	25.41
483.914	25.41
484.115	25.47
484.317	25.48
484.519	25.41
484.72	25.41
484.922	25.43
485.123	25.42
485.325	25.5
485.526	25.5
485.728	25.53
485.929	25.5
486.131	25.46
486.332	25.43
486.534	25.43
486.735	25.49
486.936	25.5
487.138	25.48
487.339	25.51
487.541	25.46
487.742	25.48
487.943	25.44
488.144	25.49
488.346	25.52
488.547	25.46
488.748	25.52
488.95	25.47
489.151	25.45
489.352	25.5
489.553	25.57
489.755	25.54
489.956	25.55
490.157	25.68
490.358	25.82
490.559	25.79
490.76	25.81
490.961	25.68
491.163	25.82
491.364	25.85
491.565	25.83
491.766	25.68
491.967	25.63
492.168	25.72
492.369	25.65
492.57	25.63
492.771	25.66
492.972	25.69
493.173	25.82
493.374	25.93
493.575	26.01
493.776	26.03
493.976	26.12
494.177	26.36
494.378	26.28
494.579	26.37
494.78	26.42
494.981	26.62
495.182	26.7
495.382	26.71
495.583	26.76
495.784	26.66
495.985	26.74
496.185	26.85
496.386	26.77
496.587	26.7
496.788	26.73
496.988	26.82
497.189	26.89
497.39	26.98
497.59	27.07
497.791	26.8
497.992	26.99
498.192	27.09
498.393	27.09
498.593	27.22
498.794	27.36
498.994	27.44
499.195	27.39
499.395	27.43
499.596	27.29
499.796	27.37
499.997	27.48
500.197	27.55
500.398	27.54
500.598	27.72
500.799	27.8
500.999	27.82
501.199	27.83
501.4	28.07
501.6	28
501.801	28.18
502.001	28.09
502.201	28.26
502.402	28.4
502.602	28.45
502.802	28.43
503.002	28.51
503.203	28.43
503.403	28.52
503.603	28.49
503.803	28.64
504.003	28.69
504.204	28.77
504.404	28.95
504.604	28.78
504.804	28.92
505.004	28.97
505.204	28.91
505.404	29.24
505.604	29.28
505.804	29.34
506.005	29.37
506.205	29.48
506.405	29.78
506.605	29.72
506.805	29.95
507.005	30
507.204	30.08
507.404	30.18
507.604	30.27
507.804	30.49
508.004	30.5
508.204	30.54
508.404	30.57
508.604	30.47
508.804	30.54
509.003	30.65
509.203	30.79
509.403	30.9
509.603	31.1
509.803	31.01
510.002	31.06
510.202	31.19
510.402	31.32
510.602	31.39
510.801	31.6
511.001	31.87
511.201	31.92
511.4	32
511.6	32.01
511.8	32.04
511.999	32.28
512.199	32.27
512.398	32.21
512.598	32.33
512.797	32.46
512.997	32.52
513.197	32.5
513.396	32.51
513.596	32.56
513.795	32.6
513.994	32.6
514.194	32.71
514.393	32.77
514.593	33.02
514.792	33.13
514.992	33.04
515.191	33.08
515.39	32.99
515.59	32.99
515.789	33.02
515.988	33.06
516.188	33.14
516.387	33.17
516.586	33.32
516.786	33.39
516.985	33.41
517.184	33.65
517.383	33.76
517.582	33.93
517.782	34.13
517.981	34.07
518.18	34.21
518.379	34.46
518.578	34.47
518.777	34.46
518.976	34.38
519.176	34.28
519.375	34.31
519.574	34.27
519.773	34.3
519.972	34.42
520.171	34.57
520.37	34.61
520.569	34.37
520.768	34.43
520.967	34.49
521.166	34.65
521.365	34.88
521.564	34.99
521.762	35.04
521.961	35.16
522.16	35.11
522.359	35.16
522.558	35.24
522.757	35.44
522.956	35.5
523.154	35.61
523.353	35.63
523.552	35.73
523.751	35.66
523.949	35.71
524.148	35.58
524.347	35.63
524.546	35.76
524.744	35.72
524.943	35.76
525.142	35.77
525.34	35.77
525.539	35.76
525.737	35.68
525.936	35.65
526.135	35.66
526.333	35.79
526.532	35.78
526.73	35.74
526.929	35.65
527.127	35.66
527.326	35.65
527.524	35.74
527.723	35.83
527.921	35.84
528.12	36.04
528.318	36.09
528.516	36.07
528.715	36.09
528.913	36.09
529.112	36.24
529.31	36.24
529.508	36.27
529.707	36.12
529.905	36.18
530.103	36.23
530.301	36.17
530.5	36.2
530.698	36.26
530.896	36.27
531.094	36.46
531.293	36.4
531.491	36.41
531.689	36.45
531.887	36.72
532.085	36.67
532.283	36.72
532.481	36.85
532.68	36.86
532.878	36.84
533.076	36.82
533.274	36.67
533.472	36.79
533.67	36.85
533.868	36.82
534.066	36.87
534.264	36.89
534.462	36.88
534.66	36.82
534.858	36.8
535.056	36.82
535.253	36.93
535.451	37.07
535.649	37.09
535.847	37.19
536.045	37.3
536.243	37.13
536.441	37.15
536.638	37.26
536.836	37.21
537.034	37.22
537.232	37.26
537.43	37.3
537.627	37.26
537.825	37.15
538.023	37.12
538.22	37.22
538.418	37.4
538.616	37.44
538.813	37.32
539.011	37.41
539.209	37.47
539.406	37.41
539.604	37.48
539.801	37.43
539.999	37.5
540.196	37.54
540.394	37.43
540.591	37.55
540.789	37.53
540.986	37.57
541.184	37.57
541.381	37.6
541.579	37.68
541.776	37.73
541.974	37.91
542.171	37.97
542.368	37.91
542.566	38.09
542.763	38.07
542.96	38.15
543.158	38.28
543.355	38.33
543.552	38.35
543.75	38.41
543.947	38.27
544.144	38.1
544.341	38.09
544.539	38.31
544.736	38.28
544.933	38.28
545.13	38.25
545.327	38.25
545.524	38.21
545.722	38.28
545.919	38.38
546.116	38.48
546.313	38.5
546.51	38.6
546.707	38.62
546.904	38.63
547.101	38.63
547.298	38.69
547.495	38.66
547.692	38.85
547.889	38.81
548.086	38.72
548.283	38.9
548.48	39.05
548.677	38.99
548.874	38.87
549.07	38.72
549.267	38.82
549.464	38.93
549.661	39.11
549.858	39.03
550.055	39.07
550.251	39.04
550.448	38.94
550.645	38.93
550.842	38.83
551.038	39
551.235	38.96
551.432	38.91
551.628	38.95
551.825	38.88
552.022	38.91
552.218	38.93
552.415	39
552.612	38.93
552.808	38.89
553.005	39.08
553.201	39.21
553.398	39.38
553.594	39.47
553.791	39.33
553.987	39.38
554.184	39.37
554.38	39.45
554.577	39.51
554.773	39.72
554.97	39.73
555.166	39.71
555.362	39.71
555.559	39.56
555.755	39.52
555.952	39.51
556.148	39.5
556.344	39.5
556.541	39.63
556.737	39.67
556.933	39.56
557.129	39.64
557.326	39.65
557.522	39.65
557.718	39.74
557.914	39.6
558.11	39.84
558.307	39.8
558.503	40.04
558.699	39.93
558.895	39.85
559.091	39.99
559.287	40.03
559.483	40.08
559.679	40.03
559.876	40.14
560.072	40.38
560.268	40.32
560.464	40.44
560.66	40.37
560.856	40.54
561.052	40.74
561.247	40.62
561.443	40.58
561.639	40.52
561.835	40.42
562.031	40.57
562.227	40.57
562.423	40.71
562.619	40.55
562.815	40.55
563.01	40.31
563.206	40.36
563.402	40.39
563.598	40.34
563.793	40.39
563.989	40.5
564.185	40.56
564.381	40.48
564.576	40.34
564.772	40.68
564.968	40.8
565.163	41.02
565.359	40.85
565.555	40.84
565.75	40.93
565.946	41.1
566.141	41.09
566.337	41.05
566.532	41.05
566.728	41.08
566.923	40.89
567.119	40.95
567.314	40.93
567.51	40.98
567.705	41.15
567.901	41.28
568.096	41.24
568.292	41.38
568.487	41.35
568.682	41.48
568.878	41.55
569.073	41.71
569.268	41.55
569.464	41.54
569.659	41.64
569.854	41.39
570.05	41.45
570.245	41.46
570.44	41.32
570.635	41.28
570.831	41.35
571.026	41.37
571.221	41.28
571.416	41.32
571.611	41.4
571.806	41.39
572.002	41.56
572.197	41.54
572.392	41.53
572.587	41.7
572.782	41.83
572.977	41.71
573.172	41.69
573.367	41.69
573.562	41.74
573.757	41.62
573.952	41.73
574.147	41.79
574.342	41.68
574.537	41.68
574.732	41.64
574.927	41.51
575.121	41.58
575.316	41.61
575.511	41.57
575.706	41.42
575.901	41.36
576.096	41.26
576.29	41.18
576.485	41.23
576.68	41.41
576.875	41.65
577.069	41.7
577.264	41.62
577.459	41.49
577.654	41.54
577.848	41.59
578.043	41.84
578.238	41.95
578.432	41.97
578.627	41.82
578.821	41.63
579.016	41.09
579.21	41.16
579.405	41.31
579.6	41.47
579.794	41.48
579.989	41.62
580.183	41.66
580.378	41.67
580.572	41.33
580.766	41.44
580.961	41.34
581.155	41.42
581.35	41.36
581.544	41.23
581.738	41.29
581.933	41.33
582.127	41.07
582.321	41.02
582.516	40.63
582.71	41.12
582.904	41.29
583.099	41.72
583.293	41.85
583.487	41.93
583.681	42.15
583.875	42.12
584.07	42.07
584.264	42.29
584.458	42.27
584.652	42.73
584.846	42.75
585.04	42.62
585.234	42.43
585.428	42.42
585.623	42.41
585.817	42.43
586.011	42.41
586.205	42.5
586.399	42.49
586.593	42.44
586.787	42.1
586.981	42.28
587.174	42.33
587.368	42.37
587.562	42.49
587.756	42.44
587.95	42.6
588.144	42.89
588.338	42.8
588.532	42.75
588.725	42.95
588.919	43.12
589.113	42.91
589.307	42.85
589.501	42.77
589.694	42.98
589.888	42.93
590.082	42.67
590.275	42.65
590.469	42.8
590.663	43.05
590.856	42.71
591.05	42.73
591.244	42.65
591.437	42.63
591.631	42.52
591.824	42.46
592.018	42.56
592.212	42.53
592.405	42.5
592.599	42.47
592.792	42.19
592.986	42.41
593.179	42.76
593.372	43.16
593.566	43.33
593.759	43.38
593.953	43.52
594.146	43.59
594.339	43.92
594.533	43.98
594.726	44.01
594.92	44.15
595.113	44.25
595.306	44.02
595.499	43.79
595.693	43.87
595.886	43.95
596.079	43.52
596.272	43.33
596.466	43.16
596.659	42.87
596.852	42.81
597.045	42.86
597.238	43.03
597.431	43.01
597.624	43.02
597.818	42.99
598.011	43.08
598.204	43.31
598.397	43.36
598.59	43.37
598.783	43.54
598.976	43.55
599.169	43.29
599.362	42.76
599.555	42.7
599.748	42.51
599.941	42.6
600.134	42.59
600.326	42.58
600.519	42.6
600.712	42.78
600.905	42.74
601.098	42.91
601.291	43.03
601.483	43.5
601.676	43.79
601.869	43.83
602.062	43.64
602.255	43.52
602.447	43.37
602.64	43.53
602.833	43.55
603.025	43.65
603.218	43.52
603.411	43.74
603.603	43.53
603.796	43.36
603.989	43.42
604.181	43.52
604.374	43.53
604.566	43.44
604.759	43.21
604.951	43.18
605.144	43.21
605.336	43.44
605.529	43.27
605.721	43.3
605.914	43.2
606.106	43.03
606.299	43
606.491	43.03
606.683	43.27
606.876	43.25
607.068	43.26
607.26	43.19
607.453	43.1
607.645	43.14
607.837	43.31
608.03	43.35
608.222	43.47
608.414	43.44
608.606	43.19
608.799	43.14
608.991	43.42
609.183	43.35
609.375	43.24
609.567	43.23
609.759	43.3
609.952	43.1
610.144	43.26
610.336	43.43
610.528	43.4
610.72	43.64
610.912	43.79
611.104	44
611.296	44.04
611.488	44.24
611.68	44.24
611.872	44.13
612.064	44.4
612.256	44.56
612.448	44.61
612.64	44.33
612.832	44.29
613.023	44.13
613.215	43.99
613.407	43.93
613.599	43.77
613.791	43.76
613.983	44.27
614.174	44.08
614.366	44.45
614.558	44.28
614.75	44.73
614.941	44.87
615.133	44.99
615.325	44.95
615.516	44.97
615.708	45.03
615.9	45.09
616.091	44.7
616.283	44.93
616.475	44.25
616.666	44.26
616.858	44.36
617.049	44.36
617.241	44.18
617.432	44.21
617.624	44.39
617.815	44.34
618.007	44.35
618.198	44.31
618.39	44.25
618.581	44.28
618.773	44.28
618.964	44.26
619.155	44.24
619.347	44.22
619.538	44.14
619.729	44.08
619.921	44.28
620.112	44.4
620.303	44.33
620.494	44.08
620.686	43.98
620.877	44.08
621.068	44.2
621.259	44.16
621.451	44.17
621.642	44.48
621.833	44.56
622.024	44.55
622.215	44.26
622.406	44.39
622.597	44.52
622.788	44.64
622.98	44.34
623.171	44.2
623.362	44.34
623.553	44.41
623.744	44.08
623.935	44
624.126	43.71
624.317	43.95
624.508	43.92
624.698	44
624.889	44.1
625.08	44.33
625.271	44.25
625.462	44.01
625.653	44.04
625.844	43.97
626.034	43.83
626.225	43.98
626.416	43.72
626.607	43.72
626.798	43.62
626.988	43.59
627.179	43.6
627.37	43.47
627.56	43.56
627.751	43.73
627.942	44.05
628.132	44.04
628.323	44.04
628.514	44.15
628.704	44.36
628.895	44.63
629.085	44.69
629.276	44.87
629.466	44.71
629.657	44.95
629.847	44.69
630.038	44.24
630.228	44.3
630.419	44.22
630.609	44.12
630.8	44.16
630.99	44
631.181	43.93
631.371	43.63
631.561	44.31
631.752	43.97
631.942	44.15
632.132	44.41
632.323	44.45
632.513	44.52
632.703	44.26
632.893	43.9
633.084	43.73
633.274	43.57
633.464	43.67
633.654	43.35
633.844	43.52
634.034	43.45
634.225	43.34
634.415	43.11
634.605	42.87
634.795	43.42
634.985	43.18
635.175	43.28
635.365	43.43
635.555	43.52
635.745	43.57
635.935	43.23
636.125	43.26
636.315	43.36
636.505	43.69
636.695	44.38
636.885	44.02
637.075	44.2
637.265	44.31
637.455	44.19
637.644	44
637.834	43.6
638.024	44.07
638.214	43.91
638.404	43.92
638.593	43.97
638.783	43.78
638.973	44.21
639.163	44.31
639.352	44.11
639.542	44.51
639.732	44.52
639.921	44.97
640.111	44.91
640.301	45.29
640.49	45.46
640.68	45.63
640.87	45.42
641.059	45.25
641.249	45.18
641.438	45.19
641.628	44.87
641.817	44.95
642.007	45.25
642.196	44.68
642.386	44.51
642.575	44.45
642.764	44.81
642.954	44.57
643.143	44.77
643.333	45.15
643.522	45.28
643.711	45.37
643.901	45.71
644.09	45.39
644.279	46.23
644.469	46.33
644.658	46.37
644.847	45.68
645.036	46.02
645.226	45.88
645.415	46.08
645.604	46
645.793	45.8
645.982	45.88
646.171	45.77
646.361	45.82
646.55	45.53
646.739	45.49
646.928	45.68
647.117	45.52
647.306	45.44
647.495	44.88
647.684	44.89
647.873	44.95
648.062	44.03
648.251	44.23
648.44	44.27
648.629	44.3
648.818	44.1
649.007	43.88
649.196	44
649.384	44.02
649.573	44.41
649.762	44.41
649.951	44.41
650.14	45.25
650.328	45.07
650.517	44.66
650.706	45.06
650.895	44.81
651.083	44.88
651.272	44.58
651.461	44.86
651.65	44.88
651.838	44.81
652.027	45.05
652.216	44.73
652.404	44.9
652.593	44.82
652.781	44.56
652.97	45.01
653.158	44.92
653.347	45.23
653.535	44.78
653.724	44.75
653.912	45
654.101	44.85
654.289	45.24
654.478	44.83
654.666	44.92
654.855	44.31
655.043	44.18
655.231	44.42
655.42	44.41
655.608	44.73
655.796	44.89
655.985	44.77
656.173	44.49
656.361	44
656.55	44.07
656.738	44.09
656.926	44.52
657.114	44.55
657.302	44.51
657.491	44.33
657.679	44.19
657.867	44.02
658.055	43.78
658.243	43.95
658.431	44.05
658.619	44.13
658.807	44.1
658.996	44.24
659.184	44.03
659.372	44.11
659.56	43.71
659.748	43.71
659.936	43.61
660.124	43.68
660.311	43.35
660.499	43.53
660.687	43.36
660.875	43.59
661.063	43.77
661.251	43.84
661.439	43.66
661.627	44.19
661.814	44.38
662.002	44.52
662.19	44.75
662.378	44.9
662.565	44.75
662.753	44.94
662.941	44.54
663.129	43.9
663.316	43.81
663.504	44.05
663.692	44.34
663.879	44.18
664.067	43.9
664.254	43.73
664.442	44.08
664.63	43.87
664.817	43.89
665.005	44.1
665.192	44.23
665.38	44.57
665.567	44.39
665.755	44.19
665.942	44.28
666.13	44.2
666.317	44.51
666.504	44.37
666.692	44.48
666.879	44.23
667.067	44.1
667.254	44.59
667.441	44.45
667.629	44.41
667.816	44.33
668.003	43.99
668.19	44.53
668.378	44.57
668.565	44.6
668.752	44.76
668.939	45.35
669.127	45.27
669.314	45.1
669.501	45.18
669.688	45.21
669.875	44.97
670.062	45.08
670.249	44.91
670.436	44.68
670.623	44.64
670.81	44.37
670.997	44.26
671.184	44.52
671.371	44.46
671.558	44.57
671.745	44.33
671.932	44.51
672.119	44.52
672.306	44.54
672.493	44.54
672.68	44.81
672.867	45.16
673.054	44.65
673.24	44.37
673.427	44.16
673.614	43.85
673.801	44.19
673.988	44.14
674.174	44.26
674.361	43.52
674.548	43.39
674.734	43.3
674.921	43.56
675.108	43.66
675.294	43.81
675.481	43.61
675.668	43.67
675.854	44.03
676.041	44.21
676.227	44.18
676.414	44.85
676.601	44.82
676.787	44.92
676.974	44.25
677.16	44.97
677.347	44.47
677.533	44.49
677.719	44.45
677.906	43.43
678.092	43.25
678.279	43.07
678.465	43.15
678.651	43.17
678.838	43.19
679.024	43.27
679.21	43.11
679.397	43.59
679.583	43.79
679.769	43.94
679.955	44.31
680.142	44.33
680.328	44.46
680.514	44.61
680.7	44.69
680.886	44.73
681.073	44.72
681.259	44.54
681.445	44.43
681.631	44.52
681.817	44.38
682.003	44.28
682.189	44.41
682.375	44.98
682.561	45.11
682.747	45.36
682.933	44.86
683.119	44.9
683.305	44.91
683.491	45
683.677	45.23
683.863	45
684.049	44.9
684.235	44.77
684.42	44.52
684.606	44.56
684.792	44.29
684.978	44.9
685.164	44.81
685.349	44.85
685.535	44.97
685.721	44.8
685.907	45.45
686.092	44.87
686.278	44.76
686.464	44.03
686.649	43.9
686.835	44.07
687.021	44.24
687.206	44.26
687.392	44.23
687.577	44.3
687.763	44.01
687.948	43.83
688.134	44.76
688.319	45.25
688.505	45.65
688.69	44.89
688.876	44.86
689.061	44.88
689.247	45.06
689.432	45.01
689.618	44.98
689.803	45.16
689.988	44.99
690.174	44.65
690.359	44.28
690.544	43.95
690.73	44.57
690.915	44.58
691.1	43.98
691.285	44.01
691.471	44.34
691.656	44.17
691.841	44.3
692.026	44.47
692.211	44.65
692.396	44.9
692.582	44.96
692.767	44.36
692.952	44.21
693.137	44.4
693.322	44.41
693.507	44.44
693.692	44.23
693.877	44.27
694.062	44.05
694.247	43.95
694.432	44.21
694.617	44.35
694.802	44.57
694.987	44.58
695.172	44.46
695.357	44.32
695.541	43.49
695.726	43.73
695.911	43.57
696.096	43.42
696.281	43.83
696.466	43.7
696.65	44.12
696.835	44.61
697.02	45.06
697.204	44.8
697.389	44.94
697.574	45.22
697.759	44.86
697.943	44.91
698.128	44.98
698.312	44.87
698.497	44.77
698.682	44.41
698.866	44.06
699.051	43.87
699.235	43.93
699.42	43.81
699.604	43.75
699.789	43.76
699.973	43.73
700.158	43.69
700.342	43.52
700.527	43.51
700.711	43.33
700.895	43.54
701.08	43.44
701.264	44.15
701.448	43.95
701.633	43.41
701.817	42.58
702.001	42.62
702.186	42.58
702.37	42.82
702.554	42.38
702.738	42.3
702.923	42.13
703.107	42.23
703.291	41.66
703.475	41.93
703.659	43.14
703.843	44.1
704.027	44.24
704.212	44.24
704.396	43.95
704.58	43.78
704.764	44.11
704.948	43.65
705.132	42.84
705.316	42.88
705.5	42.8
705.684	41.53
705.868	41.72
706.052	41.22
706.235	41.85
706.419	41.9
706.603	42.25
706.787	42.49
706.971	42.53
707.155	42.8
707.339	42.87
707.522	42.44
707.706	43.61
707.89	43.67
708.074	43.81
708.257	42.76
708.441	43.07
708.625	43.72
708.808	43.97
708.992	44.22
709.176	44.34
709.359	44.21
709.543	44.97
709.727	44.85
709.91	44.82
710.094	45.57
710.277	45.89
710.461	45.08
710.644	44.56
710.828	44.6
711.011	44.81
711.195	44.61
711.378	44.87
711.562	44.55
711.745	43.42
711.928	43.34
712.112	42.67
712.295	42.59
712.478	42.8
712.662	42.14
712.845	41.86
713.028	41.24
713.212	41
713.395	40.2
713.578	40.38
713.761	41.75
713.945	41.84
714.128	41.77
714.311	41.85
714.494	42.39
714.677	43.42
714.86	43.31
715.043	44.27
715.227	44.89
715.41	45.41
715.593	44.92
715.776	44.2
715.959	44.26
716.142	44.24
716.325	44.04
716.508	43.6
716.691	42.61
716.874	42.99
717.057	42.93
717.239	42.86
717.422	42.56
717.605	43.16
717.788	42.89
717.971	42.34
718.154	42.16
718.337	42.39
718.519	42.96
718.702	43.99
718.885	43.79
719.068	43.91
719.25	43.71
719.433	44.03
719.616	43.29
719.798	44.04
719.981	44.56
720.164	44.23
720.346	44.67
720.529	44.98
720.712	44.64
720.894	44.42
721.077	43.39
721.259	43.03
721.442	43.57
721.624	43.59
721.807	43.15
721.989	43.58
722.172	44.1
722.354	44.24
722.537	43.77
722.719	43.7
722.901	43.34
723.084	43.29
723.266	43.87
723.448	43.11
723.631	43.45
723.813	43.45
723.995	43.85
724.178	44.19
724.36	43.16
724.542	42.73
724.724	42.44
724.907	42.52
725.089	43.06
725.271	43.97
725.453	43.45
725.635	43.53
725.817	43.7
725.999	43.33
726.181	43.17
726.364	43.82
726.546	43.18
726.728	43.59
726.91	44.29
727.092	44.03
727.274	42.9
727.456	43.48
727.638	43.64
727.819	43.18
728.001	42.58
728.183	42.38
728.365	42.74
728.547	43.7
728.729	43.62
728.911	43.4
729.093	43.38
729.274	43.33
729.456	43.59
729.638	44.15
729.82	44.84
730.001	45.15
730.183	45.55
730.365	45.3
730.546	45.45
730.728	45.73
730.91	46.04
731.091	45.93
731.273	46.14
731.455	45.62
731.636	44.86
731.818	44.27
731.999	43.88
732.181	42.99
732.362	42.65
732.544	42.79
732.725	42.36
732.907	41.68
733.088	42.26
733.27	42.1
733.451	41.58
733.633	41.4
733.814	41.8
733.995	42.19
734.177	43.14
734.358	43.19
734.539	42.57
734.721	42.9
734.902	43.05
735.083	41.56
735.264	42.17
735.446	43.03
735.627	42.77
735.808	43.34
735.989	43.23
736.17	43.79
736.351	44.48
736.533	44.68
736.714	44.09
736.895	43.84
737.076	45.3
737.257	45.58
737.438	45.59
737.619	46.52
737.8	45.52
737.981	46.08
738.162	45.28
738.343	44.99
738.524	45.18
738.705	45.12
738.886	44.64
739.067	43.85
739.247	42.13
739.428	41.2
739.609	40.75
739.79	40.57
739.971	39.4
740.151	39.09
740.332	38.76
740.513	37.93
740.694	37.26
740.874	37.92
741.055	37.72
741.236	38.52
741.417	39.72
741.597	39.56
741.778	39.92
741.958	39.18
742.139	40.27
742.32	40.15
742.5	40.24
742.681	41.46
742.861	40.91
743.042	40.37
743.222	40.25
743.403	40.23
743.583	41.04
743.764	40.97
743.944	42.22
744.124	41.08
744.305	42.37
744.485	43.03
744.666	43.2
744.846	43.12
745.026	44.6
745.207	44.07
745.387	43.58
745.567	42.98
745.747	43.65
745.928	43.38
746.108	44.03
746.288	42.53
746.468	41.64
746.648	40.75
746.829	40.47
747.009	39.11
747.189	38.96
747.369	39.02
747.549	38.82
747.729	38.93
747.909	39.13
748.089	39.42
748.269	39.22
748.449	38.62
748.629	38.43
748.809	39.11
748.989	39.78
749.169	39.48
749.349	38.87
749.529	38.54
749.709	38.41
749.889	38.09
750.068	36.46
750.248	37.57
750.428	38.58
750.608	39.47
750.788	39.8
750.967	39.15
751.147	40.16
751.327	39.84
751.507	41.45
751.686	40.94
751.866	40.25
752.046	41.55
752.225	41.45
752.405	42.05
752.585	42.11
752.764	42.23
752.944	42.83
753.123	43.96
753.303	44.01
753.482	43.81
753.662	43.23
753.841	43.58
754.021	43.3
754.2	43.15
754.38	41.6
754.559	41.26
754.739	40.68
754.918	40.22
755.097	39.01
755.277	40.55
755.456	38.81
755.635	38.62
755.815	38.99
755.994	38.14
756.173	37.19
756.352	37.33
756.532	36.56
756.711	37.07
756.89	38.35
757.069	38.04
757.248	37.12
757.427	38.01
757.607	39.37
757.786	40.56
757.965	41.54
758.144	41.43
758.323	42.06
758.502	42.68
758.681	42.63
758.86	41.99
759.039	42.2
759.218	41.63
759.397	41.52
759.576	40.3
759.755	38.94
759.934	38.45
760.113	38
760.291	37.98
760.47	37.64
760.649	37.52
760.828	37.32
761.007	36.35
761.186	37.44
761.364	37.07
761.543	38.82
761.722	39.01
761.901	39.27
762.079	39.95
762.258	40.08
762.437	39.54
762.615	40.37
762.794	41.85
762.972	42.66
763.151	42.02
763.33	41.97
763.508	41.12
763.687	41.72
763.865	41.25
764.044	41.16
764.222	41.07
764.401	40.91
764.579	40.04
764.758	39.45
764.936	39.06
765.114	39.26
765.293	38.9
765.471	39.08
765.65	38.89
765.828	40.18
766.006	40.39
766.184	39.78
766.363	40.35
766.541	40.17
766.719	40
766.898	40.66
767.076	40.96
767.254	41.92
767.432	41.97
767.61	41.58
767.788	41.19
767.967	41.1
768.145	41.01
768.323	41.08
768.501	41.18
768.679	40.74
768.857	40.17
769.035	40.19
769.213	39.52
769.391	39.61
769.569	39.14
769.747	37.66
769.925	36.28
770.103	37.48
770.281	37.52
770.459	38.27
770.636	36.38
770.814	35.94
770.992	34.51
771.17	34.61
771.348	34.38
771.525	34.91
771.703	34.92
771.881	36.42
772.059	36.29
772.236	38.03
772.414	36.47
772.592	38.36
772.769	40.78
772.947	42.65
773.125	43.44
773.302	42.88
773.48	42.19
773.657	43.34
773.835	44.5
774.013	43.57
774.19	41.16
774.368	44.27
774.545	44.18
774.723	41.85
774.9	41.7
775.077	39.71
775.255	40.57
775.432	40.25
775.61	39.67
775.787	37.03
775.964	37.82
776.142	40.16
776.319	36.53
776.496	36.49
776.674	37.24
776.851	36.47
777.028	38.83
777.205	38.93
777.382	39.07
777.56	41.6
777.737	43.1
777.914	44.24
778.091	43.01
778.268	46.45
778.445	47.21
778.622	46.06
778.8	44.2
778.977	43.72
779.154	44.24
779.331	44.29
779.508	40.5
779.685	42.6
779.862	42.27
780.038	43.02
780.215	39.71
780.392	38.7
780.569	39.98
780.746	40.71
780.923	40.09
781.1	36.89
781.277	38.52
781.453	38.79
781.63	35.82
781.807	35.81
781.984	35.02
782.16	32.47
782.337	34.91
782.514	34.43
782.691	36.79
782.867	35.83
783.044	37.21
783.221	36.52
783.397	38.41
783.574	38.79
783.75	36.7
783.927	38.29
784.103	42.41
784.28	39.67
784.456	40.31
784.633	38.66
784.809	40.05
784.986	40.4
785.162	37.91
785.339	38.59
785.515	39.11
785.692	40.34
785.868	39.95
786.044	39
786.221	41.92
786.397	39.35
786.573	39.51
786.749	37.49
786.926	37.35
787.102	38.83
787.278	37.99
787.454	37.05
787.631	37.46
787.807	37.31
787.983	37.57
788.159	35.8
788.335	37.09
788.511	37.49
788.687	39.74
788.863	41.15
789.039	42.13
789.216	40.08
789.392	40.38
789.568	40.34
789.744	39.6
789.919	39.17
790.095	38.73
790.271	38.65
790.447	37.91
790.623	37.57
790.799	37.43
790.975	35.63
791.151	37.62
791.327	38.31
791.502	36.62
791.678	37.44
791.854	37.74
792.03	40.41
792.205	40.37
792.381	41.78
792.557	42.52
792.733	40.88
792.908	40.41
793.084	39.5
793.259	36.7
793.435	38.37
793.611	37.9
793.786	37.56
793.962	34.31
794.137	35.62
794.313	35.53
794.488	33.11
794.664	31.26
794.839	33.8
795.015	35.14
795.19	38.93
795.366	39.38
795.541	37.76
795.716	38.77
795.892	37.34
796.067	36.65
796.242	37.05
796.418	35.91
796.593	36.3
796.768	36.36
796.944	35.02
797.119	34.78
797.294	30.72
797.469	31.1
797.644	28.77
797.82	29
797.995	29.65
798.17	29.39
798.345	30.16
798.52	29.95
798.695	27.87
798.87	24.27
799.045	22.79
799.22	27.08
799.395	27.21
799.57	25.78
799.745	28.07
799.92	25.98
800.095	24.84
800.27	22.97
800.445	26.53
800.62	30.77
800.795	34.09
800.97	35.61
801.145	36.79
801.319	37.21
801.494	40.53
801.669	38.82
801.844	42.36
802.018	44.55
802.193	47.55
802.368	47.16
802.543	45.19
802.717	45.34
802.892	45.5
803.067	41.31
803.241	43.05
803.416	43.23
803.59	44.35
803.765	39.91
803.94	35.37
804.114	36.99
804.289	35.77
804.463	33.55
804.638	33.42
804.812	32.13
804.986	35.13
805.161	32.09
805.335	34.73
805.51	32.16
805.684	35.21
805.858	40.02
806.033	35.92
806.207	36.39
806.381	40.15
806.556	39.9
806.73	40.36
806.904	40.77
807.078	40.43
807.253	39.11
807.427	40.88
807.601	38.63
807.775	36.43
807.949	35.6
808.123	36.02
808.298	34.72
808.472	33.94
808.646	33.64
808.82	31.7
808.994	37.27
809.168	37.43
809.342	41.13
809.516	41.05
809.69	41.02
809.864	45.75
810.038	41.93
810.212	40.82
810.385	44.35
810.559	43.68
810.733	43.81
810.907	38.2
811.081	34.67
811.255	28.32
811.428	28.58
811.602	27.46
811.776	26.62
811.95	27.17
812.123	27.84
812.297	26.18
812.471	27.97
812.644	25.52
812.818	25.58
812.992	29.65
813.165	30.74
813.339	34.5
813.512	36.3
813.686	32.7
813.86	36.01
814.033	38.3
814.207	36.1
814.38	33.2
814.554	37.34
814.727	40.84
814.9	36.54
815.074	37.89
815.247	32.3
815.421	32.75
815.594	33.6
815.767	32.28
815.941	27.92
816.114	31.47
816.287	36.31
816.46	29.86
816.634	26.41
816.807	27.67
816.98	26.39
817.153	31.14
817.327	27.94
817.5	31.09
817.673	31.2
817.846	28.67
818.019	30.7
818.192	31.05
818.365	34.47
818.538	36.49
818.711	38.04
818.884	39.96
819.057	42.22
819.23	42.08
819.403	44.65
819.576	43.23
819.749	46.24
819.922	42.56
820.095	39.34
820.268	40.16
820.441	40.39
820.614	40.91
820.786	40.64
820.959	38.36
821.132	38.58
821.305	37.35
821.477	38.81
821.65	38.15
821.823	38.25
821.996	38.47
822.168	38.95
822.341	38.43
822.514	37.84
822.686	38.42
822.859	39.15
823.031	38.81
823.204	38.45
823.376	37.56
823.549	37.46
823.722	37.01
823.894	36.64
824.067	35.9
824.239	35.89
824.411	36.3
824.584	34.64
824.756	33.03
824.929	32.39
825.101	31.01
825.273	30.45
825.446	29.84
825.618	30.17
825.79	30.32
825.963	31.5
826.135	30.84
826.307	29.16
826.479	30.46
826.652	29.72
826.824	30.55
826.996	31.89
827.168	33.03
827.34	32.84
827.512	32.14
827.684	31.62
827.856	30.85
828.029	32.05
828.201	32.95
828.373	32.57
828.545	33.35
828.717	33.68
828.889	32.46
829.061	31.28
829.232	30.81
829.404	31.22
829.576	31.29
829.748	30.99
829.92	30.32
830.092	30.92
830.264	29.27
830.436	30.24
830.607	31.06
830.779	33.3
830.951	34.73
831.123	37.53
831.294	38.09
831.466	36.83
831.638	39.05
831.809	37.81
831.981	38.41
832.153	39.11
832.324	36.73
832.496	33.05
832.667	28.68
832.839	26.78
833.011	25.39
833.182	24.55
833.354	26.57
833.525	24.64
833.697	25.07
833.868	23.94
834.039	25.23
834.211	26.41
834.382	28.12
834.554	32.32
834.725	31.98
834.896	32.83
835.068	32.21
835.239	33.33
835.41	32.08
835.581	34.84
835.753	34.65
835.924	33.8
836.095	34.81
836.266	33.92
836.438	32.22
836.609	34.04
836.78	36.51
836.951	36.33
837.122	33.48
837.293	35.36
837.464	35.38
837.635	35.36
837.806	32.89
837.977	30.2
838.148	34.09
838.319	34.46
838.49	32.69
838.661	27.09
838.832	29.33
839.003	28.78
839.174	31.75
839.345	27.62
839.516	25.92
839.687	30.63
839.857	32.77
840.028	26.82
840.199	24.91
840.37	29.77
840.54	30.65
840.711	28.84
840.882	36.44
841.053	27.39
841.223	24.1
841.394	23.63
841.564	22.04
841.735	26.3
841.906	25.62
842.076	27.8
842.247	27.4
842.417	29.36
842.588	30.6
842.758	27.78
842.929	31.81
843.099	36.85
843.27	45.75
843.44	48.89
843.611	47.38
843.781	51.01
843.951	52.21
844.122	42.64
844.292	33.42
844.462	28.41
844.633	26.7
844.803	33.2
844.973	30.57
845.144	38.52
845.314	38.71
845.484	35.13
845.654	34.61
845.824	28.75
845.995	35.45
846.165	35.22
846.335	48.02
846.505	49.98
846.675	43.11
846.845	48.82
847.015	40.16
847.185	35.22
847.355	43.53
847.525	43.23
847.695	43.94
847.865	50.46
848.035	57.48
848.205	59.57
848.375	59.45
848.545	59.09
848.715	58.13
848.884	57.25
849.054	59.09
849.224	57.25
849.394	65.92
849.564	74.97
849.733	68.88
849.903	76.23
850.073	67.07
850.243	71.32
850.412	71.42
850.582	69.33
850.752	63.91
850.921	58.78
851.091	57.88
851.26	54.96
851.43	42.61
851.599	48.74
851.769	39.86
851.939	36.01
852.108	40.33
852.278	34.25
852.447	29.73
852.616	36.94
852.786	31.15
852.955	33.39
853.125	21.97
853.294	38.98
853.463	33.82
853.633	37.26
853.802	50.62
853.971	45.79
854.141	54.14
854.31	60.57
854.479	54.06
854.648	57.17
854.818	60.13
854.987	66.2
855.156	65.07
855.325	67.02
855.494	68.9
855.663	63.89
855.832	60.95
856.001	62.9
856.171	59.41
856.34	61.1
856.509	69.08
856.678	53.14
856.847	39.09
857.016	27.53
857.185	21.38
857.353	18.64
857.522	13.94
857.691	28.32
857.86	33.37
858.029	27.84
858.198	30.23
858.367	22.72
858.535	32.4
858.704	38.27
858.873	41.76
859.042	45.1
859.21	52.23
859.379	57.12
859.548	49.91
859.717	46.51
859.885	52.68
860.054	50.98
860.222	49.7
860.391	47.14
860.56	47
860.728	50.52
860.897	41.42
861.065	32.74
861.234	27.79
861.402	32.69
861.571	29.2
861.739	29.34
861.908	27.11
862.076	40.34
862.244	40.42
862.413	46.14
862.581	51.83
862.749	70.52
862.918	72.33
863.086	78.8
863.254	75.77
863.423	84.45
863.591	80.14
863.759	72.61
863.927	59.13
864.096	74.5
864.264	69.82
864.432	64.19
864.6	55.57
864.768	48.97
864.936	52.87
865.104	48.91
865.272	42.58
865.44	40.94
865.608	44.61
865.776	38.58
865.944	26.88
866.112	32.73
866.28	35.99
866.448	30.21
866.616	31.48
866.784	28.53
866.952	26.32
867.12	23.13
867.288	32.31
867.455	31.94
867.623	34.16
867.791	36.65
867.959	33.08
868.127	33.41
868.294	31.25
868.462	41.55
868.63	36.09
868.797	38.24
868.965	54.42
869.133	48.14
869.3	48.76
869.468	59.93
869.636	57.26
869.803	53.82
869.971	44.6
870.138	45.16
870.306	35.1
870.473	34.62
870.641	39.17
870.808	27.74
870.975	27.29
871.143	30.51
871.31	19.7
871.478	13.78
871.645	16.05
871.812	16.74
871.98	17
872.147	23.76
872.314	34.06
872.482	30.18
872.649	36.06
872.816	26.45
872.983	16.71
873.15	36.72
873.318	49.74
873.485	35.57
873.652	40.89
873.819	35.03
873.986	46.39
874.153	42.79
874.32	46.62
874.487	44.63
874.654	51.91
874.821	66.9
874.988	56.57
875.155	71.47
875.322	76.72
875.489	79.55
875.656	79.18
875.823	75.02
875.99	82.98
876.157	96.27
876.324	95.41
876.49	93.89
876.657	73.87
876.824	72.93
876.991	54.95
877.157	58.02
877.324	50.53
877.491	59.82
877.658	57.03
877.824	48.04
877.991	40.98
878.157	40.67
878.324	48.47
878.491	46.9
878.657	42.67
878.824	41.89
878.99	27.35
879.157	37.15
879.323	37.6
879.49	37.57
879.656	22.55
879.823	21.96
879.989	27.4
880.156	24.61
880.322	32.89
880.488	34.67
880.655	36.83
880.821	48.86
880.987	44.05
881.154	45.96
881.32	43.3
881.486	43.57
881.652	38.82
881.819	34.34
881.985	35.03
882.151	31.38
882.317	29.92
882.483	30.12
882.649	30.59
882.816	30.32
882.982	29.22
883.148	30.1
883.314	32.32
883.48	33.61
883.646	34.91
883.812	31.99
883.978	34.86
884.144	34.98
884.31	32.86
884.476	32.45
884.642	31.83
884.807	31.07
884.973	29.46
885.139	28.29
885.305	25.01
885.471	22.82
885.637	26.65
885.802	27.04
885.968	27.58
886.134	28.94
886.3	27.65
886.465	28.18
886.631	26.28
886.797	27.87
886.962	30.74
887.128	34.53
887.293	34.58
887.459	38.37
887.625	33.13
887.79	39.72
887.956	41.06
888.121	40.75
888.287	43.93
888.452	47.85
888.618	49.27
888.783	46.64
