Data from 2938070_Reflection_1.txt Node
Date: Sat Jul 11 20:39:39 EDT 2015
User: robert
Spectrometer: USB4E03001
Autoset integration time: false
Trigger mode: 4
Integration Time (sec): 1.000000E-1
Scans to average: 10
Electric dark correction enabled: true
Nonlinearity correction enabled: false
Boxcar width: 5
Stray light correction enabled: false
XAxis mode: Wavelengths
Stop averaging: false
Number of Pixels in Spectrum: 3648
>>>>>Begin Spectral Data<<<<<
177.566	54.6
177.785	81.9
178.005	118.93
178.225	116.15
178.445	205.41
178.665	511.15
178.885	-198.86
179.105	237.71
179.324	756.17
179.544	175.9
179.764	68.72
179.984	65.87
180.204	69.3
180.423	91.83
180.643	-649.12
180.863	-37.11
181.083	26.88
181.302	28.88
181.522	26.99
181.742	15.38
181.961	38.57
182.181	40.87
182.401	40.71
182.621	18.9
182.84	-1.77
183.06	-26.43
183.279	-114.52
183.499	-253.14
183.719	-250.23
183.938	-408.21
184.158	-174.04
184.377	-521.72
184.597	-299.13
184.816	-1048.34
185.036	358.94
185.256	629.38
185.475	200.14
185.695	610.02
185.914	257.58
186.134	-1594.97
186.353	-96.49
186.572	758.45
186.792	475.47
187.011	2832.41
187.231	-520.21
187.45	-323.65
187.67	-246.15
187.889	-156.06
188.108	-134.17
188.328	-113.44
188.547	-153.76
188.766	-672.36
188.986	-234.85
189.205	-61.62
189.424	-60.26
189.644	-25.94
189.863	-100.76
190.082	-54.65
190.302	-56.3
190.521	-111.91
190.74	-102.7
190.959	-215.38
191.178	-310.67
191.398	-384.36
191.617	-487.32
191.836	-1337.75
192.055	-419.98
192.274	-246.01
192.494	-335.57
192.713	-235.16
192.932	-184.42
193.151	-267.65
193.37	-163.9
193.589	-199.74
193.808	-191.3
194.027	-233.61
194.246	-217.05
194.465	-138.56
194.685	-98.81
194.904	-115.69
195.123	-322.54
195.342	-45.98
195.561	0.53
195.78	-21.63
195.999	3.69
196.218	8.93
196.436	14.73
196.655	-11.21
196.874	-48.18
197.093	-58.52
197.312	-42.24
197.531	-36.7
197.75	-19.3
197.969	1.97
198.188	1.77
198.407	-89.12
198.625	-257.74
198.844	-436.45
199.063	537.66
199.282	274.77
199.501	136.02
199.719	236.24
199.938	170.96
200.157	241.41
200.376	227
200.594	182.12
200.813	210.76
201.032	319.97
201.251	340.3
201.469	282.3
201.688	-71171.43
201.907	-123.15
202.125	4383.33
202.344	-108.58
202.563	-80.76
202.781	-168.49
203	-89.34
203.218	22.2
203.437	263.95
203.656	20.06
203.874	18.34
204.093	-42.5
204.311	-1860.12
204.53	-138.28
204.748	-289.19
204.967	-167.7
205.185	-275.43
205.404	-187.61
205.622	-158.73
205.841	-321.33
206.059	-388.76
206.278	-793.5
206.496	1761.91
206.715	-1081.21
206.933	863.82
207.151	1025.32
207.37	443.92
207.588	779.26
207.806	580.94
208.025	706.81
208.243	-236.94
208.461	-173.04
208.68	-336.59
208.898	-133.43
209.116	-57.65
209.335	-76.79
209.553	-18.14
209.771	-28.35
209.989	-23.11
210.208	-1.31
210.426	-4.65
210.644	-53
210.862	-115.2
211.081	-122.77
211.299	-143.65
211.517	-429.56
211.735	-228.41
211.953	-1736.8
212.171	1569.66
212.39	-590.96
212.608	-615.46
212.826	-1202.05
213.044	216.61
213.262	930.81
213.48	140.77
213.698	40.49
213.916	309.83
214.134	121.61
214.352	137.42
214.57	136.15
214.788	151.67
215.006	119.97
215.224	183.35
215.442	1075.56
215.66	675.99
215.878	-1096.65
216.096	-253.02
216.314	-433.01
216.532	-320.33
216.75	-87.72
216.968	-70.64
217.185	-98.07
217.403	-188.28
217.621	-314.45
217.839	-389.86
218.057	3500.62
218.275	287.52
218.492	159.84
218.71	149.03
218.928	452.98
219.146	1014.17
219.363	362.23
219.581	-288.38
219.799	-80.92
220.017	-9.47
220.234	-13.58
220.452	-5.08
220.67	10.31
220.887	17.31
221.105	16.09
221.323	16.35
221.54	0.12
221.758	5.17
221.976	1.54
222.193	11
222.411	-18.65
222.629	7.35
222.846	-8.73
223.064	-35.66
223.281	-0.04
223.499	-26.29
223.716	-7.38
223.934	-7.22
224.151	0.67
224.369	9.16
224.586	-4.18
224.804	20.53
225.021	-14.97
225.239	-3.53
225.456	13.28
225.674	-26.92
225.891	2.5
226.108	11.67
226.326	19.64
226.543	16.28
226.76	29.69
226.978	41.34
227.195	40.83
227.413	46.7
227.63	32.16
227.847	25.07
228.064	22.09
228.282	19.03
228.499	14.46
228.716	11.57
228.934	7.52
229.151	3.35
229.368	0.78
229.585	1.05
229.802	3.26
230.02	7.96
230.237	7.14
230.454	12.03
230.671	6.44
230.888	5.88
231.105	4.55
231.323	8.04
231.54	5.91
231.757	7.02
231.974	3.28
232.191	-1.79
232.408	-15.25
232.625	-8.32
232.842	-15.83
233.059	-5.33
233.276	-7.85
233.493	0.84
233.71	-3.42
233.927	-3.57
234.144	-16.3
234.361	-17.11
234.578	-19.85
234.795	-7.76
235.012	-16.94
235.229	-10.58
235.446	-9.33
235.663	-6.49
235.879	-5.91
236.096	-1.06
236.313	0.61
236.53	5.86
236.747	7.69
236.964	12.02
237.181	13.89
237.397	19.87
237.614	18.97
237.831	19.32
238.048	18.64
238.264	14.6
238.481	10.55
238.698	12.36
238.915	10.93
239.131	13.37
239.348	15.42
239.565	9.02
239.781	5.65
239.998	7.16
240.215	4.22
240.431	7.2
240.648	6.63
240.865	9.71
241.081	8.59
241.298	12.18
241.514	11.44
241.731	10.95
241.947	14.49
242.164	16.83
242.38	15.16
242.597	13.12
242.814	14.96
243.03	16.51
243.246	16.69
243.463	17.1
243.679	14.17
243.896	14.69
244.112	13.21
244.329	11.04
244.545	10.25
244.762	11.35
244.978	12.74
245.194	10.28
245.411	7.42
245.627	6.28
245.843	6.54
246.06	7.32
246.276	7.5
246.492	8.21
246.709	9.24
246.925	9.95
247.141	10.11
247.357	9.56
247.574	10.86
247.79	11.2
248.006	11.59
248.222	10.83
248.439	11.77
248.655	11.58
248.871	12.39
249.087	11.73
249.303	10.48
249.519	10.06
249.736	11.85
249.952	9.33
250.168	10.11
250.384	10.23
250.6	12.13
250.816	12.76
251.032	12.43
251.248	10.75
251.464	11.09
251.68	13.15
251.896	11.35
252.112	7.7
252.328	8.41
252.544	6.07
252.76	6.82
252.976	6.36
253.192	4.96
253.408	4.43
253.624	3.21
253.84	2.57
254.056	2.83
254.272	2.9
254.487	4.32
254.703	2.33
254.919	3.93
255.135	3.5
255.351	4.14
255.567	4.87
255.782	4.26
255.998	7.53
256.214	7.27
256.43	0.48
256.646	4.21
256.861	6.87
257.077	7.02
257.293	6.95
257.508	6.33
257.724	4.01
257.94	2.75
258.155	3.21
258.371	2.36
258.587	1.08
258.802	1.33
259.018	1.07
259.234	1.5
259.449	2.08
259.665	2.87
259.88	3.55
260.096	4.47
260.312	4.93
260.527	5.76
260.743	6.14
260.958	7.07
261.174	8.11
261.389	7.9
261.605	8.91
261.82	8.79
262.036	8.53
262.251	6.84
262.466	5.98
262.682	4.21
262.897	2.5
263.113	2.32
263.328	2.23
263.543	3.29
263.759	2.58
263.974	-0.86
264.189	-0.16
264.405	1.8
264.62	2.71
264.835	3.32
265.051	9.55
265.266	9.04
265.481	7
265.696	8.36
265.912	7.87
266.127	10.26
266.342	11.57
266.557	11.03
266.773	8
266.988	9.16
267.203	10.81
267.418	7.29
267.633	8.65
267.848	7.61
268.064	5.98
268.279	4.92
268.494	4.54
268.709	4.15
268.924	3.23
269.139	3.61
269.354	3.03
269.569	1.88
269.784	2.91
269.999	1.66
270.214	5.31
270.429	7.11
270.644	7.73
270.859	6.46
271.074	6.32
271.289	5.39
271.504	6.04
271.719	5.03
271.934	5.52
272.149	4.15
272.363	4.35
272.578	2.46
272.793	1.77
273.008	2.61
273.223	1.66
273.438	3.12
273.653	2.99
273.867	3.52
274.082	5.18
274.297	5.16
274.512	6.71
274.726	7.03
274.941	8.31
275.156	6.42
275.371	5.11
275.585	8.76
275.8	7.07
276.015	10.69
276.229	10.43
276.444	11.05
276.659	9.35
276.873	9.08
277.088	9.5
277.302	8.94
277.517	10.49
277.732	9.43
277.946	6.51
278.161	4.94
278.375	3.46
278.59	2.73
278.804	0.41
279.019	2.64
279.233	1.96
279.448	0.57
279.662	-0.13
279.877	-0.74
280.091	1.54
280.306	3.14
280.52	6.23
280.735	4.13
280.949	5.14
281.163	6.18
281.378	4.53
281.592	3.95
281.806	4.82
282.021	3.59
282.235	3.6
282.449	3.78
282.664	2.57
282.878	0.25
283.092	1.72
283.307	2.63
283.521	0.66
283.735	2.12
283.949	3.15
284.164	2.93
284.378	5.33
284.592	6.38
284.806	4.82
285.02	7.14
285.234	7.51
285.449	7.59
285.663	5.52
285.877	7.08
286.091	6.68
286.305	6.08
286.519	5.85
286.733	4.06
286.947	2.42
287.161	4.16
287.375	2.09
287.589	2.76
287.803	2.06
288.017	4.77
288.231	3.51
288.445	4.07
288.659	5.07
288.873	5.74
289.087	6.75
289.301	7.12
289.515	5.74
289.729	5.52
289.943	5.49
290.157	6.75
290.371	5.67
290.584	7.47
290.798	6.57
291.012	6.24
291.226	6.4
291.44	6.31
291.654	7.05
291.867	8.55
292.081	8.82
292.295	10.75
292.509	9.54
292.722	10
292.936	9.42
293.15	10.2
293.364	9.87
293.577	9.63
293.791	11.16
294.005	11.47
294.218	11.92
294.432	13
294.645	11
294.859	13.71
295.073	12.87
295.286	12.83
295.5	12.48
295.713	13.13
295.927	13.28
296.14	12.2
296.354	12.53
296.568	10.5
296.781	9.68
296.994	10.27
297.208	8.68
297.421	9.32
297.635	9.55
297.848	10.33
298.062	10.3
298.275	10.02
298.489	10.12
298.702	10.38
298.915	11.55
299.129	11.78
299.342	11.96
299.555	11.21
299.769	10.26
299.982	8.02
300.195	5.15
300.409	5.45
300.622	4.63
300.835	3.67
301.048	2.48
301.262	2.62
301.475	1.84
301.688	1.46
301.901	2.73
302.115	3.74
302.328	6.32
302.541	7.9
302.754	7.05
302.967	8.4
303.18	9.45
303.393	9.99
303.607	10
303.82	9.61
304.033	11.08
304.246	11.28
304.459	9.78
304.672	8.1
304.885	7.3
305.098	6.17
305.311	5.98
305.524	4.95
305.737	5.13
305.95	5.57
306.163	8.26
306.376	6.34
306.589	6.72
306.802	7.54
307.015	9.14
307.228	11.27
307.44	11.06
307.653	10.97
307.866	11.06
308.079	9.26
308.292	10.58
308.505	8.22
308.718	10.11
308.93	9.3
309.143	9.97
309.356	11.63
309.569	10.7
309.781	12.03
309.994	12.02
310.207	11.19
310.42	11.89
310.632	9.53
310.845	9.36
311.058	8.21
311.27	9.43
311.483	9.96
311.696	8.53
311.908	9.38
312.121	8.66
312.333	6.69
312.546	7.94
312.759	7.93
312.971	8.25
313.184	9.23
313.396	8.46
313.609	7.37
313.821	5.11
314.034	3.06
314.246	1.98
314.459	1.69
314.671	3.03
314.884	2.52
315.096	2.02
315.309	2.49
315.521	2.71
315.733	3.67
315.946	2.66
316.158	3.85
316.371	4.93
316.583	4.97
316.795	7.34
317.008	9.22
317.22	8.78
317.432	10.17
317.644	9.9
317.857	8.71
318.069	7.07
318.281	8.67
318.494	7.12
318.706	7.61
318.918	9.61
319.13	8.3
319.342	8.16
319.555	7.82
319.767	6.7
319.979	6.38
320.191	6.72
320.403	6.53
320.615	5.56
320.827	7.82
321.039	8.57
321.252	5.4
321.464	7.42
321.676	7.35
321.888	8.92
322.1	8.5
322.312	8.7
322.524	7.38
322.736	7.68
322.948	7.82
323.16	5.9
323.372	5.35
323.584	4.77
323.796	2.11
324.007	1.3
324.219	1.49
324.431	2.1
324.643	3.16
324.855	5.73
325.067	7.36
325.279	8
325.491	9.53
325.702	10.38
325.914	10.31
326.126	11.14
326.338	10.37
326.55	10.17
326.761	9.64
326.973	8.07
327.185	8.2
327.396	8.15
327.608	6.23
327.82	4.74
328.032	2.84
328.243	3.19
328.455	4.55
328.666	4.07
328.878	3.84
329.09	4.53
329.301	5.16
329.513	3.98
329.725	2.78
329.936	2.98
330.148	3.88
330.359	5.7
330.571	5.99
330.782	4.05
330.994	4.38
331.205	3.81
331.417	3.19
331.628	3.31
331.84	3.44
332.051	3.77
332.262	4.28
332.474	4.77
332.685	2.6
332.897	4.29
333.108	3.97
333.319	5.61
333.531	7.25
333.742	8.51
333.953	8.06
334.165	7.86
334.376	8.1
334.587	7.1
334.799	6.13
335.01	7.94
335.221	7.57
335.432	8.16
335.644	7.24
335.855	5.9
336.066	5.93
336.277	7.62
336.488	7.75
336.7	8.25
336.911	9.27
337.122	11.09
337.333	10.17
337.544	9.29
337.755	10.49
337.966	11.04
338.177	11.07
338.388	9.1
338.599	8.93
338.811	8.88
339.022	7.27
339.233	7.8
339.444	4.92
339.655	4.57
339.866	4.97
340.076	4.79
340.287	3.45
340.498	2.79
340.709	4.67
340.92	3.32
341.131	3.72
341.342	2.9
341.553	2.95
341.764	4.1
341.975	6.89
342.185	7.23
342.396	5.65
342.607	6.43
342.818	7.45
343.029	5.91
343.239	6.36
343.45	5.82
343.661	7.93
343.872	6.51
344.082	6.66
344.293	3.99
344.504	3.94
344.714	4.64
344.925	4.35
345.136	3.62
345.346	4.75
345.557	5.14
345.768	5.52
345.978	5
346.189	6.85
346.399	5.27
346.61	6.08
346.821	6.95
347.031	6.35
347.242	6.62
347.452	7.28
347.663	7.31
347.873	7.3
348.084	6.77
348.294	7.51
348.504	5.86
348.715	8.17
348.925	8.39
349.136	7.25
349.346	7.97
349.557	7.68
349.767	9.38
349.977	8.29
350.188	8.87
350.398	7.71
350.608	7.41
350.819	6.75
351.029	7.21
351.239	7.51
351.449	7
351.66	6.41
351.87	5.74
352.08	2.63
352.29	3.66
352.501	3.26
352.711	4.5
352.921	4.35
353.131	6.45
353.341	5.85
353.552	4.63
353.762	5.04
353.972	5.93
354.182	6.08
354.392	7.21
354.602	5.88
354.812	5.5
355.022	5.08
355.232	6.04
355.442	3.81
355.652	3.02
355.862	2.92
356.072	3.62
356.282	3.43
356.492	3.71
356.702	3.03
356.912	3.98
357.122	3.35
357.332	4.23
357.542	3.48
357.752	4.26
357.962	3.72
358.171	5.68
358.381	5.21
358.591	4.49
358.801	5.13
359.011	4.95
359.221	5.08
359.43	5.23
359.64	6.07
359.85	6.14
360.06	7.51
360.269	8.57
360.479	6.97
360.689	6.64
360.899	6.65
361.108	6.7
361.318	8.37
361.528	8.21
361.737	8.6
361.947	8.29
362.156	8.7
362.366	8.77
362.576	8.31
362.785	8.83
362.995	9.51
363.204	9.22
363.414	8.24
363.623	8.46
363.833	7.77
364.042	6.97
364.252	6.47
364.461	5.81
364.671	6.49
364.88	6.83
365.09	6.65
365.299	6.68
365.509	7.27
365.718	8.74
365.927	7.49
366.137	8.28
366.346	8.61
366.555	9.04
366.765	8.55
366.974	6.72
367.183	6.62
367.393	6.48
367.602	5.63
367.811	6.02
368.021	4.99
368.23	4.89
368.439	4.98
368.648	5.8
368.857	5.24
369.067	5.24
369.276	4.97
369.485	4.41
369.694	5.05
369.903	5.44
370.112	5.73
370.321	5.49
370.531	5.15
370.74	4.38
370.949	3.67
371.158	4.24
371.367	4.14
371.576	5.2
371.785	5.97
371.994	4.76
372.203	4.6
372.412	4.33
372.621	4.9
372.83	4.26
373.039	3.9
373.248	3.43
373.457	2.74
373.666	2.52
373.874	1.82
374.083	1.34
374.292	2.47
374.501	2.59
374.71	2.59
374.919	2.01
375.128	3.63
375.336	4.66
375.545	4.51
375.754	4.62
375.963	5.08
376.171	4.45
376.38	3.49
376.589	2.35
376.798	1.6
377.006	1.47
377.215	2.47
377.424	2.03
377.632	2.16
377.841	2.43
378.05	3
378.258	3.01
378.467	3.44
378.675	4.4
378.884	4.86
379.093	5.07
379.301	5.1
379.51	4.6
379.718	4.33
379.927	3.99
380.135	4.43
380.344	3.84
380.552	4.24
380.761	3.75
380.969	4.22
381.177	5.07
381.386	5.42
381.594	5.12
381.803	5.27
382.011	5.57
382.219	5.04
382.428	4.45
382.636	4.44
382.845	4.24
383.053	4.9
383.261	4.64
383.469	3.83
383.678	3.53
383.886	3.92
384.094	4.03
384.302	3.57
384.511	4.43
384.719	4.36
384.927	4.38
385.135	4.2
385.343	4.13
385.552	3.55
385.76	3.39
385.968	3.52
386.176	2.83
386.384	2.25
386.592	2.36
386.8	2.07
387.008	2.53
387.216	2.26
387.424	2.15
387.633	2.14
387.841	2.45
388.049	2.21
388.257	2.49
388.465	2.26
388.672	2.62
388.88	2.55
389.088	2.53
389.296	2.32
389.504	2.27
389.712	2.34
389.92	2.26
390.128	2.48
390.336	2.75
390.544	2.7
390.751	3.6
390.959	3.67
391.167	4.08
391.375	3.89
391.583	3.93
391.79	3.82
391.998	3.81
392.206	3.82
392.414	3.93
392.621	3.74
392.829	3.59
393.037	3.55
393.244	3.3
393.452	2.92
393.66	3.18
393.867	3.23
394.075	3.24
394.283	3.27
394.49	3.23
394.698	2.63
394.905	2.96
395.113	3.01
395.32	2.55
395.528	2.48
395.735	2.21
395.943	1.95
396.15	1.78
396.358	2.09
396.565	1.73
396.773	1.35
396.98	1.95
397.188	1.6
397.395	1.72
397.602	1.68
397.81	1.78
398.017	2.04
398.225	2.1
398.432	2.23
398.639	2
398.847	2.38
399.054	2.83
399.261	2.64
399.468	3.05
399.676	3.1
399.883	3.6
400.09	3.63
400.297	3.46
400.505	3.46
400.712	3.2
400.919	3.26
401.126	2.93
401.333	2.65
401.54	2.76
401.748	2.52
401.955	2.18
402.162	1.63
402.369	1.4
402.576	1.64
402.783	1.65
402.99	1.69
403.197	1.89
403.404	2.16
403.611	2.38
403.818	2.1
404.025	1.98
404.232	2.17
404.439	2.25
404.646	2.38
404.853	2.21
405.06	2.21
405.267	2.36
405.474	2.16
405.681	1.96
405.887	2.07
406.094	2.28
406.301	2.38
406.508	2.55
406.715	2.77
406.922	2.67
407.128	2.6
407.335	2.74
407.542	2.78
407.749	2.69
407.955	2.86
408.162	2.27
408.369	1.93
408.575	1.96
408.782	1.69
408.989	1.63
409.195	1.84
409.402	2.19
409.609	1.91
409.815	2.02
410.022	2.14
410.228	2.04
410.435	2.58
410.642	2.44
410.848	2.26
411.055	2.12
411.261	2.02
411.468	2.07
411.674	1.86
411.881	2.11
412.087	1.87
412.294	1.76
412.5	1.76
412.706	1.55
412.913	1.94
413.119	2.11
413.326	2.44
413.532	2.39
413.738	2.07
413.945	2.07
414.151	1.76
414.357	2.01
414.564	2.32
414.77	2.28
414.976	2.29
415.182	2.34
415.389	2.26
415.595	1.87
415.801	1.99
416.007	2.29
416.214	2.23
416.42	2.4
416.626	2.31
416.832	2.19
417.038	2.35
417.244	2.28
417.45	2.14
417.657	1.97
417.863	2
418.069	1.9
418.275	1.88
418.481	2
418.687	1.99
418.893	1.82
419.099	1.85
419.305	1.85
419.511	1.94
419.717	2.02
419.923	2.21
420.129	2.42
420.335	2.48
420.541	2.47
420.746	2.43
420.952	2.6
421.158	2.63
421.364	2.62
421.57	2.54
421.776	2.62
421.982	2.59
422.187	2.65
422.393	2.48
422.599	2.59
422.805	2.52
423.01	2.55
423.216	2.46
423.422	2.48
423.628	2.52
423.833	2.59
424.039	2.5
424.245	2.42
424.45	2.36
424.656	2.36
424.862	2.25
425.067	2.22
425.273	2.15
425.478	2.15
425.684	1.98
425.889	1.94
426.095	1.83
426.301	1.6
426.506	1.73
426.712	1.71
426.917	1.86
427.123	1.88
427.328	1.74
427.533	1.69
427.739	1.48
427.944	1.84
428.15	1.54
428.355	1.63
428.561	1.96
428.766	1.71
428.971	1.63
429.177	1.63
429.382	1.63
429.587	1.93
429.793	2.16
429.998	2.24
430.203	2.21
430.408	2.44
430.614	2.56
430.819	2.37
431.024	2.6
431.229	2.55
431.434	2.39
431.64	2.5
431.845	2.57
432.05	2.3
432.255	2.16
432.46	2
432.665	1.86
432.87	1.93
433.076	1.97
433.281	1.97
433.486	2.09
433.691	1.99
433.896	1.79
434.101	1.62
434.306	1.63
434.511	1.63
434.716	1.78
434.921	1.79
435.126	1.59
435.331	1.67
435.535	1.55
435.74	1.39
435.945	1.55
436.15	1.56
436.355	1.51
436.56	1.53
436.765	1.56
436.97	1.6
437.174	1.82
437.379	1.91
437.584	1.84
437.789	1.77
437.993	1.86
438.198	1.85
438.403	1.87
438.608	1.92
438.812	1.95
439.017	2.05
439.222	2
439.426	1.88
439.631	1.76
439.836	1.73
440.04	1.83
440.245	1.76
440.45	1.69
440.654	1.74
440.859	1.69
441.063	1.85
441.268	1.75
441.472	1.64
441.677	1.5
441.881	1.44
442.086	1.51
442.29	1.48
442.495	1.5
442.699	1.55
442.904	1.37
443.108	1.5
443.312	1.38
443.517	1.5
443.721	1.53
443.925	1.69
444.13	1.66
444.334	1.47
444.538	1.37
444.743	1.37
444.947	1.28
445.151	1.45
445.356	1.42
445.56	1.36
445.764	1.22
445.968	1.24
446.173	1.23
446.377	1.28
446.581	1.46
446.785	1.54
446.989	1.5
447.193	1.53
447.398	1.56
447.602	1.59
447.806	1.57
448.01	1.67
448.214	1.57
448.418	1.62
448.622	1.59
448.826	1.65
449.03	1.62
449.234	1.74
449.438	1.75
449.642	1.63
449.846	1.71
450.05	1.74
450.254	1.9
450.458	2.03
450.662	1.97
450.866	2.02
451.069	1.83
451.273	1.76
451.477	1.85
451.681	1.9
451.885	1.94
452.089	1.94
452.292	2.05
452.496	1.91
452.7	1.81
452.904	1.94
453.107	2.01
453.311	2.05
453.515	2.16
453.719	2.05
453.922	1.98
454.126	1.85
454.33	1.72
454.533	1.61
454.737	1.52
454.94	1.77
455.144	1.56
455.348	1.54
455.551	1.39
455.755	1.4
455.958	1.3
456.162	1.35
456.365	1.23
456.569	1.14
456.772	1.13
456.976	1.11
457.179	0.79
457.383	0.93
457.586	0.99
457.79	1.12
457.993	1.18
458.196	1.29
458.4	1.42
458.603	1.6
458.807	1.7
459.01	1.69
459.213	1.81
459.417	1.98
459.62	1.95
459.823	1.84
460.026	1.87
460.23	1.79
460.433	1.78
460.636	1.69
460.839	1.67
461.042	1.65
461.246	1.78
461.449	1.75
461.652	1.58
461.855	1.52
462.058	1.5
462.261	1.47
462.464	1.63
462.668	1.72
462.871	1.92
463.074	1.87
463.277	1.87
463.48	1.74
463.683	1.52
463.886	1.49
464.089	1.57
464.292	1.76
464.495	1.94
464.698	1.76
464.901	1.66
465.104	1.26
465.306	1.32
465.509	1.08
465.712	1.04
465.915	1.21
466.118	1.36
466.321	1.29
466.524	1.19
466.726	1.01
466.929	0.9
467.132	0.77
467.335	1.09
467.538	1.19
467.74	1.32
467.943	1.19
468.146	1.18
468.348	1.25
468.551	1.32
468.754	1.15
468.956	1.03
469.159	1.22
469.362	1.41
469.564	1.28
469.767	1.36
469.969	1.25
470.172	1.42
470.375	1.43
470.577	1.54
470.78	1.49
470.982	1.87
471.185	2.05
471.387	2.05
471.59	1.92
471.792	1.78
471.995	1.53
472.197	1.82
472.399	1.78
472.602	1.66
472.804	1.66
473.007	1.68
473.209	1.31
473.411	1.23
473.614	1.14
473.816	1.1
474.018	1.18
474.22	1.29
474.423	1.2
474.625	1.13
474.827	1.07
475.03	0.96
475.232	0.85
475.434	1.2
475.636	1.26
475.838	1.37
476.04	1.33
476.243	1.42
476.445	1.27
476.647	1
476.849	1.09
477.051	1.14
477.253	1.31
477.455	1.4
477.657	1.17
477.859	1.08
478.061	0.96
478.263	1.02
478.465	1.06
478.667	1.22
478.869	1.4
479.071	1.49
479.273	1.59
479.475	1.4
479.677	1.54
479.879	1.53
480.081	1.61
480.283	1.83
480.485	1.78
480.686	1.65
480.888	1.53
481.09	1.48
481.292	1.34
481.494	1.21
481.695	1.29
481.897	1.15
482.099	1.25
482.301	1.21
482.502	1.23
482.704	1.3
482.906	1.33
483.107	1.39
483.309	1.44
483.511	1.5
483.712	1.56
483.914	1.53
484.115	1.59
484.317	1.62
484.519	1.63
484.72	1.63
484.922	1.66
485.123	1.67
485.325	1.68
485.526	1.72
485.728	1.73
485.929	1.74
486.131	1.81
486.332	1.74
486.534	1.66
486.735	1.68
486.936	1.61
487.138	1.59
487.339	1.62
487.541	1.59
487.742	1.54
487.943	1.54
488.144	1.56
488.346	1.51
488.547	1.48
488.748	1.55
488.95	1.53
489.151	1.55
489.352	1.46
489.553	1.44
489.755	1.42
489.956	1.47
490.157	1.49
490.358	1.37
490.559	1.45
490.76	1.47
490.961	1.41
491.163	1.47
491.364	1.39
491.565	1.48
491.766	1.51
491.967	1.55
492.168	1.52
492.369	1.52
492.57	1.58
492.771	1.54
492.972	1.55
493.173	1.64
493.374	1.7
493.575	1.75
493.776	1.77
493.976	1.71
494.177	1.79
494.378	1.95
494.579	2.07
494.78	2.1
494.981	2.11
495.182	2.09
495.382	2.04
495.583	1.97
495.784	2.04
495.985	1.97
496.185	1.9
496.386	1.79
496.587	1.58
496.788	1.33
496.988	1.33
497.189	1.25
497.39	1.26
497.59	1.19
497.791	1.08
497.992	1.02
498.192	1.13
498.393	1.32
498.593	1.32
498.794	1.37
498.994	1.62
499.195	1.67
499.395	1.71
499.596	1.8
499.796	1.85
499.997	2.01
500.197	2.11
500.398	2.09
500.598	2.09
500.799	2.23
500.999	2.2
501.199	2.07
501.4	2.02
501.6	1.92
501.801	1.87
502.001	1.83
502.201	1.66
502.402	1.69
502.602	1.66
502.802	1.38
503.002	1.37
503.203	1.48
503.403	1.48
503.603	1.67
503.803	1.93
504.003	2.09
504.204	2.08
504.404	2.07
504.604	2.04
504.804	2.1
505.004	2.25
505.204	2.22
505.404	2.07
505.604	2.12
505.804	2.14
506.005	2.06
506.205	1.84
506.405	1.77
506.605	1.97
506.805	2.02
507.005	1.84
507.204	1.87
507.404	1.71
507.604	1.64
507.804	1.64
508.004	1.67
508.204	1.57
508.404	1.6
508.604	1.83
508.804	1.69
509.003	1.63
509.203	1.75
509.403	1.69
509.603	1.79
509.803	1.94
510.002	1.86
510.202	1.64
510.402	1.65
510.602	1.69
510.801	1.53
511.001	1.66
511.201	1.59
511.4	1.63
511.6	1.73
511.8	1.67
511.999	1.52
512.199	1.54
512.398	1.68
512.598	1.79
512.797	1.85
512.997	1.94
513.197	1.99
513.396	2.01
513.596	2.09
513.795	2.09
513.994	2.1
514.194	2.32
514.393	2.24
514.593	2.18
514.792	2.19
514.992	2.09
515.191	1.92
515.39	1.75
515.59	1.86
515.789	1.76
515.988	1.6
516.188	1.53
516.387	1.49
516.586	1.55
516.786	1.56
516.985	1.66
517.184	1.88
517.383	2.11
517.582	2.25
517.782	2.36
517.981	2.37
518.18	2.49
518.379	2.62
518.578	2.61
518.777	2.75
518.976	2.74
519.176	2.62
519.375	2.5
519.574	2.42
519.773	2.27
519.972	2.16
520.171	2.13
520.37	2.14
520.569	2.07
520.768	2.06
520.967	1.97
521.166	1.85
521.365	1.93
521.564	2.03
521.762	2.15
521.961	2.31
522.16	2.25
522.359	2.25
522.558	2.11
522.757	2.1
522.956	2.06
523.154	2.07
523.353	2.13
523.552	1.96
523.751	1.96
523.949	1.88
524.148	1.84
524.347	1.92
524.546	2.01
524.744	2.19
524.943	2.21
525.142	2.23
525.34	2.25
525.539	2.42
525.737	2.57
525.936	2.58
526.135	2.57
526.333	2.44
526.532	2.47
526.73	2.48
526.929	2.49
527.127	2.52
527.326	2.53
527.524	2.48
527.723	2.41
527.921	2.38
528.12	2.39
528.318	2.52
528.516	2.66
528.715	2.67
528.913	2.67
529.112	2.68
529.31	2.7
529.508	2.7
529.707	2.84
529.905	2.86
530.103	2.87
530.301	2.9
530.5	2.82
530.698	2.77
530.896	2.76
531.094	2.65
531.293	2.55
531.491	2.63
531.689	2.76
531.887	2.66
532.085	2.69
532.283	2.79
532.481	2.89
532.68	3.04
532.878	3.06
533.076	3.16
533.274	3.26
533.472	3.39
533.67	3.32
533.868	3.31
534.066	3.29
534.264	3.26
534.462	3.24
534.66	3.06
534.858	2.91
535.056	2.92
535.253	2.9
535.451	2.89
535.649	2.87
535.847	2.97
536.045	3.03
536.243	3.13
536.441	3.23
536.638	3.28
536.836	3.31
537.034	3.36
537.232	3.43
537.43	3.43
537.627	3.45
537.825	3.41
538.023	3.33
538.22	3.21
538.418	3.06
538.616	3.12
538.813	3.13
539.011	3.32
539.209	3.32
539.406	3.34
539.604	3.31
539.801	3.38
539.999	3.52
540.196	3.67
540.394	3.72
540.591	3.78
540.789	3.75
540.986	3.83
541.184	3.75
541.381	3.77
541.579	3.78
541.776	3.76
541.974	3.76
542.171	3.68
542.368	3.66
542.566	3.75
542.763	3.83
542.96	3.81
543.158	3.83
543.355	3.85
543.552	3.84
543.75	3.86
543.947	3.9
544.144	3.94
544.341	4.18
544.539	4.2
544.736	4.13
544.933	4.1
545.13	4.18
545.327	4.09
545.524	4.24
545.722	4.42
545.919	4.35
546.116	4.53
546.313	4.62
546.51	4.55
546.707	4.63
546.904	4.57
547.101	4.57
547.298	4.65
547.495	4.77
547.692	4.76
547.889	4.82
548.086	4.88
548.283	4.79
548.48	4.85
548.677	4.88
548.874	4.82
549.07	5.11
549.267	5.3
549.464	5.47
549.661	5.38
549.858	5.42
550.055	5.2
550.251	5.29
550.448	5.31
550.645	5.38
550.842	5.39
551.038	5.58
551.235	5.41
551.432	5.54
551.628	5.38
551.825	5.36
552.022	5.46
552.218	5.48
552.415	5.52
552.612	5.61
552.808	5.62
553.005	5.71
553.201	5.67
553.398	5.83
553.594	5.74
553.791	5.68
553.987	5.82
554.184	6
554.38	6.23
554.577	6.09
554.773	6.25
554.97	6.22
555.166	6.19
555.362	6.07
555.559	6.2
555.755	6.29
555.952	6.38
556.148	6.6
556.344	6.49
556.541	6.59
556.737	6.82
556.933	6.67
557.129	6.8
557.326	7.04
557.522	7.24
557.718	7.03
557.914	7.13
558.11	7.34
558.307	7.28
558.503	7.51
558.699	7.64
558.895	7.84
559.091	8
559.287	7.99
559.483	7.97
559.679	8
559.876	8.23
560.072	8.22
560.268	8.12
560.464	8.08
560.66	7.89
560.856	7.89
561.052	8.06
561.247	8.07
561.443	7.96
561.639	7.95
561.835	8.01
562.031	8.11
562.227	8.17
562.423	8.28
562.619	8.39
562.815	8.48
563.01	8.47
563.206	8.03
563.402	8.13
563.598	8.2
563.793	8.22
563.989	8.04
564.185	7.98
564.381	7.84
564.576	7.72
564.772	7.75
564.968	7.81
565.163	7.89
565.359	8.08
565.555	7.94
565.75	8.1
565.946	8.2
566.141	8.41
566.337	8.53
566.532	8.48
566.728	8.69
566.923	8.91
567.119	8.89
567.314	9.01
567.51	9.15
567.705	9.36
567.901	9.49
568.096	9.52
568.292	9.52
568.487	9.24
568.682	9.65
568.878	9.75
569.073	9.54
569.268	9.62
569.464	9.66
569.659	9.87
569.854	9.93
570.05	9.96
570.245	9.72
570.44	9.85
570.635	10.28
570.831	10.38
571.026	10.21
571.221	10.26
571.416	10.36
571.611	10.22
571.806	10.03
572.002	10.08
572.197	10.06
572.392	10.19
572.587	10.21
572.782	10.09
572.977	10.09
573.172	10.38
573.367	10.74
573.562	10.69
573.757	10.81
573.952	11.07
574.147	11.19
574.342	11
574.537	11.22
574.732	11.43
574.927	11.55
575.121	11.48
575.316	11.37
575.511	11.03
575.706	11.11
575.901	10.91
576.096	10.8
576.29	10.65
576.485	10.76
576.68	10.62
576.875	10.48
577.069	10.45
577.264	10.46
577.459	10.52
577.654	10.66
577.848	10.75
578.043	10.93
578.238	11.04
578.432	11.15
578.627	11.22
578.821	11.33
579.016	11.43
579.21	11.45
579.405	11.38
579.6	11.48
579.794	11.72
579.989	11.65
580.183	11.7
580.378	11.41
580.572	11.44
580.766	11.3
580.961	11.16
581.155	11.18
581.35	11.17
581.544	11.33
581.738	11.48
581.933	11.17
582.127	11.12
582.321	11.32
582.516	11.33
582.71	11.45
582.904	11.59
583.099	11.93
583.293	11.88
583.487	11.94
583.681	11.65
583.875	11.32
584.07	11.5
584.264	11.42
584.458	11.24
584.652	11.43
584.846	11.3
585.04	11.47
585.234	11.22
585.428	11.19
585.623	11.15
585.817	11.23
586.011	11.46
586.205	11.38
586.399	11.63
586.593	11.76
586.787	11.57
586.981	11.65
587.174	11.58
587.368	11.78
587.562	11.82
587.756	11.66
587.95	11.88
588.144	11.82
588.338	11.77
588.532	11.76
588.725	11.63
588.919	11.86
589.113	11.78
589.307	12.07
589.501	11.94
589.694	11.98
589.888	11.94
590.082	11.71
590.275	11.56
590.469	11.6
590.663	11.72
590.856	11.57
591.05	11.73
591.244	11.8
591.437	11.65
591.631	11.64
591.824	11.63
592.018	11.77
592.212	12.14
592.405	12.24
592.599	12.34
592.792	12.11
592.986	12.25
593.179	12.03
593.372	11.86
593.566	11.68
593.759	11.85
593.953	11.93
594.146	11.96
594.339	12.15
594.533	12.46
594.726	12.4
594.92	12.47
595.113	12.72
595.306	12.88
595.499	13.34
595.693	13.58
595.886	13.43
596.079	13.36
596.272	13.52
596.466	13.12
596.659	13.19
596.852	13.34
597.045	13.43
597.238	13.29
597.431	13.51
597.624	13.38
597.818	13.08
598.011	13
598.204	12.89
598.397	12.46
598.59	12.44
598.783	12.18
598.976	12.15
599.169	11.96
599.362	11.91
599.555	11.71
599.748	11.61
599.941	11.89
600.134	12.32
600.326	12.7
600.519	13.05
600.712	13.47
600.905	13.49
601.098	13.45
601.291	13.56
601.483	13.52
601.676	13.3
601.869	13.21
602.062	13.22
602.255	12.99
602.447	12.9
602.64	13.08
602.833	13.08
603.025	13.22
603.218	13.26
603.411	13.41
603.603	13.59
603.796	13.54
603.989	13.74
604.181	13.72
604.374	13.84
604.566	13.7
604.759	13.75
604.951	13.73
605.144	13.62
605.336	13.56
605.529	13.42
605.721	13.18
605.914	13.22
606.106	13.05
606.299	12.9
606.491	12.7
606.683	12.97
606.876	12.72
607.068	12.58
607.26	12.51
607.453	12.51
607.645	12.54
607.837	12.85
608.03	12.8
608.222	12.83
608.414	13.07
608.606	13.08
608.799	12.79
608.991	12.93
609.183	12.87
609.375	12.88
609.567	12.65
609.759	12.79
609.952	12.81
610.144	12.99
610.336	12.99
610.528	12.77
610.72	12.87
610.912	12.81
611.104	12.64
611.296	12.54
611.488	12.42
611.68	12.46
611.872	12.06
612.064	11.95
612.256	11.52
612.448	11.6
612.64	11.58
612.832	11.34
613.023	11.45
613.215	11.44
613.407	11.64
613.599	11.71
613.791	11.94
613.983	12.04
614.174	12.21
614.366	12.63
614.558	12.66
614.75	13.15
614.941	13.23
615.133	13.21
615.325	13.54
615.516	13.37
615.708	13.58
615.9	13.16
616.091	13.31
616.283	13.14
616.475	12.97
616.666	12.95
616.858	12.64
617.049	12.7
617.241	12.84
617.432	12.63
617.624	12.89
617.815	12.56
618.007	12.94
618.198	12.8
618.39	12.99
618.581	13.09
618.773	13.1
618.964	13.16
619.155	13.24
619.347	13.13
619.538	13.34
619.729	13.43
619.921	13.45
620.112	13.72
620.303	14.06
620.494	13.97
620.686	14.13
620.877	13.64
621.068	13.58
621.259	13.46
621.451	13.31
621.642	13.37
621.833	13.48
622.024	13.68
622.215	13.15
622.406	12.84
622.597	12.83
622.788	12.78
622.98	13.16
623.171	12.95
623.362	13.08
623.553	13.46
623.744	13.26
623.935	13.09
624.126	13.22
624.317	13.7
624.508	13.98
624.698	13.94
624.889	13.93
625.08	14
625.271	14.29
625.462	14.26
625.653	13.94
625.844	13.94
626.034	13.66
626.225	13.59
626.416	13.51
626.607	13.1
626.798	13.08
626.988	13.08
627.179	12.85
627.37	12.85
627.56	12.97
627.751	13.37
627.942	13.39
628.132	13.43
628.323	13.56
628.514	13.23
628.704	13.59
628.895	13.52
629.085	13.56
629.276	13.59
629.466	13.54
629.657	13.53
629.847	13.55
630.038	13.68
630.228	14.04
630.419	13.96
630.609	14.32
630.8	14.34
630.99	14.26
631.181	14.49
631.371	14.44
631.561	14.43
631.752	14.4
631.942	14.06
632.132	13.72
632.323	13.37
632.513	13.57
632.703	13.33
632.893	13.26
633.084	13.51
633.274	13.49
633.464	13.8
633.654	13.95
633.844	14.06
634.034	14.11
634.225	14.23
634.415	14.48
634.605	14.17
634.795	14.34
634.985	14.51
635.175	14.63
635.365	14.17
635.555	14.27
635.745	14.26
635.935	13.92
636.125	14.02
636.315	14.11
636.505	14.04
636.695	13.89
636.885	13.85
637.075	13.61
637.265	13.34
637.455	13.43
637.644	13.51
637.834	13.24
638.024	13.45
638.214	13.04
638.404	13.05
638.593	13.24
638.783	13.54
638.973	13.79
639.163	13.82
639.352	13.83
639.542	13.82
639.732	13.41
639.921	13.55
640.111	13.64
640.301	14.05
640.49	14.05
640.68	13.54
640.87	13.41
641.059	13.21
641.249	13.5
641.438	13.55
641.628	13.46
641.817	13.72
642.007	13.68
642.196	13.45
642.386	13.41
642.575	13.07
642.764	13.07
642.954	13.2
643.143	13.18
643.333	13.21
643.522	13.07
643.711	12.98
643.901	12.97
644.09	12.92
644.279	12.97
644.469	12.65
644.658	12.82
644.847	13.22
645.036	13.51
645.226	13.18
645.415	13.37
645.604	13.51
645.793	14.14
645.982	13.69
646.171	13.91
646.361	14.43
646.55	14.78
646.739	14.99
646.928	14.66
647.117	14.37
647.306	14.89
647.495	14.34
647.684	14.14
647.873	13.66
648.062	13.95
648.251	14.05
648.44	13.66
648.629	13.29
648.818	13.26
649.007	13.78
649.196	14.03
649.384	14.09
649.573	14.48
649.762	14.6
649.951	14.49
650.14	14.36
650.328	14.38
650.517	14.46
650.706	14.6
650.895	14.82
651.083	14.47
651.272	13.9
651.461	13.6
651.65	13.42
651.838	13.8
652.027	14.19
652.216	14.72
652.404	14.76
652.593	14.8
652.781	14.87
652.97	14.54
653.158	14.46
653.347	14.91
653.535	15.25
653.724	14.95
653.912	14.93
654.101	15.21
654.289	15.03
654.478	14.85
654.666	15.13
654.855	15.15
655.043	15.13
655.231	14.97
655.42	14.78
655.608	14.52
655.796	14.52
655.985	14.18
656.173	13.86
656.361	13.71
656.55	13.49
656.738	13.07
656.926	13.72
657.114	14.02
657.302	13.91
657.491	14.2
657.679	14.1
657.867	14.58
658.055	14.55
658.243	14.68
658.431	14.68
658.619	14.96
658.807	14.88
658.996	14.38
659.184	14.1
659.372	14.46
659.56	14.21
659.748	14.52
659.936	14.63
660.124	14.76
660.311	14.5
660.499	14.62
660.687	14.34
660.875	14.39
661.063	14.56
661.251	14.39
661.439	14.6
661.627	14.81
661.814	14.7
662.002	14.43
662.19	14.48
662.378	14.68
662.565	14.38
662.753	14.63
662.941	14.24
663.129	14.4
663.316	14.73
663.504	14.2
663.692	13.66
663.879	13.37
664.067	13.47
664.254	13.29
664.442	13.8
664.63	14.23
664.817	14.14
665.005	14.69
665.192	14.37
665.38	14.57
665.567	14.92
665.755	15.08
665.942	14.91
666.13	14.6
666.317	15.37
666.504	14.92
666.692	14.81
666.879	14.25
667.067	14.28
667.254	14.42
667.441	14.18
667.629	13.84
667.816	14.27
668.003	14.38
668.19	14.34
668.378	14.06
668.565	14.24
668.752	14.29
668.939	14.94
669.127	14.57
669.314	14.45
669.501	14.27
669.688	14.41
669.875	14.32
670.062	14.39
670.249	15.05
670.436	14.95
670.623	14.45
670.81	14.93
670.997	15.01
671.184	15.79
671.371	15.9
671.558	16.41
671.745	16.83
671.932	17.01
672.119	16.91
672.306	16.25
672.493	16.21
672.68	16.11
672.867	15.42
673.054	15.05
673.24	14.79
673.427	14.77
673.614	15.26
673.801	14.37
673.988	14.27
674.174	14.43
674.361	14.58
674.548	14.61
674.734	15.16
674.921	15.19
675.108	15.62
675.294	15.26
675.481	14.55
675.668	14.21
675.854	14.42
676.041	14.2
676.227	14.41
676.414	14.42
676.601	14.35
676.787	13.82
676.974	13.62
677.16	13.89
677.347	13.86
677.533	14.92
677.719	14.91
677.906	15.37
678.092	15.52
678.279	15.24
678.465	15.77
678.651	15.73
678.838	15.92
679.024	16.43
679.21	16.16
679.397	16.35
679.583	15.63
679.769	14.99
679.955	15.21
680.142	15.28
680.328	15.55
680.514	15.16
680.7	14.98
680.886	15.08
681.073	14.88
681.259	14.85
681.445	15
681.631	15.14
681.817	15.62
682.003	15.28
682.189	15.09
682.375	15.23
682.561	15.32
682.747	15.11
682.933	15.58
683.119	15.34
683.305	15.31
683.491	14.94
683.677	15.2
683.863	14.87
684.049	15.01
684.235	14.98
684.42	14.71
684.606	14.26
684.792	14.07
684.978	13.97
685.164	13.56
685.349	12.95
685.535	12.89
685.721	12.28
685.907	12.4
686.092	12.39
686.278	12.36
686.464	12.74
686.649	13.22
686.835	13.46
687.021	13.44
687.206	14.01
687.392	14.8
687.577	15.03
687.763	15.28
687.948	15.87
688.134	15.85
688.319	15.78
688.505	15.24
688.69	15.03
688.876	15.68
689.061	15
689.247	14.55
689.432	14.11
689.618	14.01
689.803	14.39
689.988	13.32
690.174	13.33
690.359	13.48
690.544	13.54
690.73	14.03
690.915	14.18
691.1	14.75
691.285	15.16
691.471	15.79
691.656	15.7
691.841	15.52
692.026	16.35
692.211	15.84
692.396	16.17
692.582	16.47
692.767	15.78
692.952	15.41
693.137	14.96
693.322	15.28
693.507	14.95
693.692	15.28
693.877	15.26
694.062	15.33
694.247	15.97
694.432	15.79
694.617	15.54
694.802	15.5
694.987	15.3
695.172	15.54
695.357	15.41
695.541	15.42
695.726	15.37
695.911	15.78
696.096	15.64
696.281	15.25
696.466	14.85
696.65	15.23
696.835	15.24
697.02	15.25
697.204	14.95
697.389	15.16
697.574	15.06
697.759	15.36
697.943	14.93
698.128	15.09
698.312	15.25
698.497	15.52
698.682	15.16
698.866	15.51
699.051	15.85
699.235	16.03
699.42	15.71
699.604	15.74
699.789	15.75
699.973	16.21
700.158	15.57
700.342	15.5
700.527	15.69
700.711	15.79
700.895	15.81
701.08	15.33
701.264	15.36
701.448	15.77
701.633	15.84
701.817	15.3
702.001	14.83
702.186	15.63
702.37	16.34
702.554	16.43
702.738	16.81
702.923	16.44
703.107	15.98
703.291	15.9
703.475	15.75
703.659	15.69
703.843	15.72
704.027	15.31
704.212	15.18
704.396	14.03
704.58	13.52
704.764	12.91
704.948	12.72
705.132	13.16
705.316	12.62
705.5	11.85
705.684	12.02
705.868	12.39
706.052	13.13
706.235	13.17
706.419	13.52
706.603	13.46
706.787	13.92
706.971	14.43
707.155	14.96
707.339	15.39
707.522	15.93
707.706	15.74
707.89	14.93
708.074	15.06
708.257	15.26
708.441	15.33
708.625	14.94
708.808	14.68
708.992	14.85
709.176	14.68
709.359	15.59
709.543	15.75
709.727	15.49
709.91	16.42
710.094	16.21
710.277	16.01
710.461	15.91
710.644	16.76
710.828	17.11
711.011	16.27
711.195	15.93
711.378	14.83
711.562	14.24
711.745	15.28
711.928	15.23
712.112	15.09
712.295	15.41
712.478	15.86
712.662	15.27
712.845	14.65
713.028	15.43
713.212	15.53
713.395	15.97
713.578	16.74
713.761	16.47
713.945	16.3
714.128	16.25
714.311	15.51
714.494	15.36
714.677	15.5
714.86	15.66
715.043	15.71
715.227	15.54
715.41	15.7
715.593	15.25
715.776	14.62
715.959	14.37
716.142	14.55
716.325	14.67
716.508	14.69
716.691	14.66
716.874	15.08
717.057	14.85
717.239	14.87
717.422	14.16
717.605	13.74
717.788	13.34
717.971	13.44
718.154	12.83
718.337	13.29
718.519	12.7
718.702	12.63
718.885	12.12
719.068	12.03
719.25	12.77
719.433	12.68
719.616	13.21
719.798	13.35
719.981	13.76
720.164	14.46
720.346	13.82
720.529	13.83
720.712	14.4
720.894	15.01
721.077	15.21
721.259	14.53
721.442	15.43
721.624	14.99
721.807	14.96
721.989	14.68
722.172	14.8
722.354	13.97
722.537	14.49
722.719	13.96
722.901	14.04
723.084	13.84
723.266	13.67
723.448	13.52
723.631	15
723.813	14.98
723.995	14.46
724.178	15.06
724.36	16.2
724.542	16.1
724.724	16.2
724.907	15.93
725.089	15.61
725.271	16.37
725.453	15.82
725.635	15.38
725.817	16.4
725.999	17.06
726.181	16.38
726.364	16.94
726.546	16.78
726.728	16.92
726.91	16.65
727.092	16.33
727.274	15.91
727.456	15.96
727.638	16.65
727.819	16.63
728.001	15.89
728.183	15.73
728.365	15.66
728.547	16.23
728.729	16.31
728.911	16.05
729.093	16.48
729.274	16.75
729.456	17.51
729.638	16.36
729.82	15.81
730.001	16.5
730.183	16.79
730.365	16.36
730.546	16.11
730.728	15.9
730.91	15.8
731.091	15.55
731.273	14.58
731.455	13.9
731.636	14.11
731.818	14.25
731.999	14.43
732.181	14.06
732.362	14.12
732.544	14.02
732.725	13.48
732.907	14.03
733.088	14.78
733.27	15.23
733.451	15.74
733.633	15.72
733.814	15.53
733.995	15.79
734.177	15.72
734.358	16.59
734.539	17.31
734.721	18.28
734.902	17.85
735.083	17.39
735.264	17.35
735.446	16.2
735.627	15.74
735.808	16.93
735.989	15.69
736.17	16.37
736.351	16.61
736.533	15.51
736.714	15.08
736.895	16.52
737.076	17.7
737.257	17.8
737.438	18.32
737.619	17.91
737.8	16.91
737.981	17.08
738.162	15.79
738.343	14.85
738.524	14.98
738.705	15.19
738.886	14.12
739.067	13.39
739.247	13.96
739.428	15.34
739.609	17.29
739.79	16.99
739.971	17.79
740.151	18.68
740.332	18.86
740.513	18.6
740.694	18.97
740.874	18.12
741.055	16.95
741.236	16.36
741.417	15.55
741.597	13.84
741.778	13.41
741.958	12.3
742.139	11.68
742.32	10.64
742.5	10.88
742.681	10.7
742.861	11.13
743.042	11.77
743.222	12.13
743.403	10.91
743.583	11.1
743.764	11.98
743.944	13.2
744.124	14.75
744.305	16.5
744.485	15.95
744.666	16.18
744.846	16.96
745.026	17.49
745.207	16.83
745.387	18.17
745.567	18.91
745.747	17.31
745.928	16.24
746.108	16.1
746.288	14.51
746.468	14.15
746.648	13.81
746.829	14.28
747.009	13.97
747.189	15.57
747.369	14.09
747.549	13.28
747.729	13.49
747.909	14.32
748.089	13.97
748.269	14.28
748.449	14.87
748.629	14.57
748.809	12.88
748.989	11.74
749.169	10.13
749.349	10.91
749.529	11.08
749.709	12.7
749.889	13.44
750.068	13.09
750.248	12.91
750.428	12.83
750.608	12.07
750.788	12.07
750.967	12.3
751.147	12.64
751.327	13.37
751.507	13.92
751.686	13.11
751.866	12.53
752.046	12.47
752.225	12.17
752.405	13.84
752.585	14.96
752.764	16.12
752.944	16.19
753.123	17.07
753.303	16.41
753.482	16.13
753.662	17.16
753.841	16.49
754.021	15.99
754.2	15.97
754.38	14.35
754.559	13.33
754.739	11.61
754.918	12.73
755.097	12.47
755.277	12.89
755.456	12.58
755.635	13.36
755.815	13.59
755.994	15.07
756.173	15.08
756.352	14.9
756.532	15.86
756.711	17.35
756.89	16.58
757.069	16.41
757.248	17.48
757.427	19
757.607	17.03
757.786	16.36
757.965	15.63
758.144	16.74
758.323	18.29
758.502	18.13
758.681	17.45
758.86	17.87
759.039	17.94
759.218	16.73
759.397	14.38
759.576	14.53
759.755	14.26
759.934	13.84
760.113	13.16
760.291	12.2
760.47	12.2
760.649	12.29
760.828	12.26
761.007	12.15
761.186	12.2
761.364	12.93
761.543	13.56
761.722	15.3
761.901	15.9
762.079	15.27
762.258	15.06
762.437	14.76
762.615	15.19
762.794	15.01
762.972	14.89
763.151	14.41
763.33	14.75
763.508	14.24
763.687	12.98
763.865	12.64
764.044	13.04
764.222	13.56
764.401	13.82
764.579	14.01
764.758	14.18
764.936	13.93
765.114	14.57
765.293	13.94
765.471	14.84
765.65	15.66
765.828	15.77
766.006	16.09
766.184	16.08
766.363	14.97
766.541	15.34
766.719	15.08
766.898	15.55
767.076	14.54
767.254	16.35
767.432	16
767.61	15.59
767.788	16.62
767.967	15.81
768.145	15.6
768.323	15.65
768.501	15.82
768.679	15.66
768.857	15.64
769.035	15.53
769.213	13.52
769.391	13.46
769.569	11.97
769.747	11.28
769.925	11.42
770.103	12.77
770.281	15.04
770.459	14.22
770.636	13.41
770.814	11.56
770.992	13.1
771.17	14.04
771.348	12.89
771.525	14.89
771.703	12.13
771.881	13.05
772.059	11.62
772.236	11.18
772.414	9.48
772.592	11.05
772.769	15.64
772.947	14.81
773.125	14.36
773.302	14.23
773.48	14.36
773.657	16.07
773.835	17.24
774.013	17.63
774.19	17.1
774.368	16.93
774.545	19.47
774.723	16.31
774.9	17.09
775.077	16.5
775.255	16.5
775.432	15.67
775.61	16.32
775.787	16.68
775.964	17.06
776.142	15.82
776.319	17.03
776.496	13.45
776.674	15.15
776.851	15.11
777.028	13.6
777.205	16.34
777.382	16.59
777.56	13.54
777.737	11.34
777.914	10.19
778.091	10.42
778.268	10.47
778.445	12.33
778.622	11.54
778.8	9.57
778.977	8.34
779.154	7.2
779.331	9.41
779.508	10.16
779.685	10.04
779.862	10.67
780.038	10.38
780.215	11.09
780.392	13.39
780.569	14.69
780.746	16.72
780.923	19.12
781.1	20.44
781.277	17.84
781.453	18.08
781.63	19.1
781.807	16.41
781.984	18.11
782.16	17.71
782.337	14.93
782.514	11.39
782.691	11.11
782.867	13.3
783.044	11.93
783.221	14.08
783.397	14.38
783.574	13.01
783.75	15.92
783.927	16.31
784.103	15.44
784.28	14.94
784.456	14.78
784.633	11.28
784.809	8.02
784.986	10.02
785.162	4.78
785.339	6.73
785.515	6.6
785.692	2.98
785.868	-0.08
786.044	1.46
786.221	3.5
786.397	1.63
786.573	5.25
786.749	7.59
786.926	4.19
787.102	10.41
787.278	9.79
787.454	13.7
787.631	15.61
787.807	16.99
787.983	16.71
788.159	15.13
788.335	17.7
788.511	17.37
788.687	16.39
788.863	16.57
789.039	15.11
789.216	14.71
789.392	13.59
789.568	12.99
789.744	11.83
789.919	8.97
790.095	7.84
790.271	7.56
790.447	6.35
790.623	6.7
790.799	6.22
790.975	5.52
791.151	4.41
791.327	3.28
791.502	5.35
791.678	6.45
791.854	11.73
792.03	9.65
792.205	9.59
792.381	11.58
792.557	11.64
792.733	11.43
792.908	13.02
793.084	14.33
793.259	16.62
793.435	11.81
793.611	11.69
793.786	8.85
793.962	11.78
794.137	12.43
794.313	11.55
794.488	13.39
794.664	14.92
794.839	11.81
795.015	11.39
795.19	7.01
795.366	10.33
795.541	12.85
795.716	14.96
795.892	13.08
796.067	13.51
796.242	14.79
796.418	16.83
796.593	17.22
796.768	19.64
796.944	25.02
797.119	25.96
797.294	25.55
797.469	22.9
797.644	17.55
797.82	16.17
797.995	13.37
798.17	12.63
798.345	8.67
798.52	7.3
798.695	6.25
798.87	1.31
799.045	0.02
799.22	1.55
799.395	0.69
799.57	4.67
799.745	10.07
799.92	11.8
800.095	11.66
800.27	8.87
800.445	9.7
800.62	11.87
800.795	10.75
800.97	11.58
801.145	9.3
801.319	10.22
801.494	7.1
801.669	5.37
801.844	5.12
802.018	3
802.193	7.84
802.368	5.83
802.543	4.56
802.717	5.29
802.892	6.22
803.067	5.72
803.241	6.48
803.416	9.75
803.59	6.33
803.765	6.33
803.94	7.44
804.114	4.16
804.289	4.39
804.463	2.55
804.638	1.97
804.812	2.44
804.986	3.03
805.161	3.17
805.335	-1.34
805.51	-0.52
805.684	2.65
805.858	3.45
806.033	3.61
806.207	6.23
806.381	5.56
806.556	9.6
806.73	10.45
806.904	12.39
807.078	8.54
807.253	10.06
807.427	12.22
807.601	9.11
807.775	11.1
807.949	10.96
808.123	8.26
808.298	9.74
808.472	3.69
808.646	2.05
808.82	1.94
808.994	5.54
809.168	7.95
809.342	8.42
809.516	9.93
809.69	7.45
809.864	7.1
810.038	10.84
810.212	11.01
810.385	13.74
810.559	14.21
810.733	10.93
810.907	10.37
811.081	11.17
811.255	8.71
811.428	10.04
811.602	10.07
811.776	10.09
811.95	9.25
812.123	11.51
812.297	13.05
812.471	15.84
812.644	18.21
812.818	18.19
812.992	19.08
813.165	19.2
813.339	17.13
813.512	15.92
813.686	15.22
813.86	15.41
814.033	11.52
814.207	14.61
814.38	13.06
814.554	14.14
814.727	14.27
814.9	6.22
815.074	10.35
815.247	7.22
815.421	10.36
815.594	10.89
815.767	10.63
815.941	7.78
816.114	1.69
816.287	1.98
816.46	0.99
816.634	4.75
816.807	12.59
816.98	8.98
817.153	12.43
817.327	11.54
817.5	18.06
817.673	13.95
817.846	17.85
818.019	18.01
818.192	14.57
818.365	13.37
818.538	11.32
818.711	13.47
818.884	11.13
819.057	13.74
819.23	14.94
819.403	10.71
819.576	17.09
819.749	14.7
819.922	12.91
820.095	13.7
820.268	15.18
820.441	14.35
820.614	11.35
820.786	14.41
820.959	15.58
821.132	15.19
821.305	15.72
821.477	15.57
821.65	17.19
821.823	17.13
821.996	17.09
822.168	17.59
822.341	17.77
822.514	18.23
822.686	17.57
822.859	16.98
823.031	17.13
823.204	17.07
823.376	16.85
823.549	17.37
823.722	18.28
823.894	18.39
824.067	19.03
824.239	18.95
824.411	19.41
824.584	19.19
824.756	18.65
824.929	18.81
825.101	19.19
825.273	18.66
825.446	20.05
825.618	19.09
825.79	19.53
825.963	16.54
826.135	17.66
826.307	18.17
826.479	18.8
826.652	19
826.824	19.14
826.996	20.05
827.168	20.13
827.34	17.22
827.512	17.78
827.684	17.98
827.856	18.96
828.029	17.35
828.201	16.1
828.373	16.32
828.545	18.12
828.717	17.22
828.889	15.98
829.061	15.2
829.232	15.24
829.404	13.86
829.576	11.6
829.748	11.91
829.92	14.11
830.092	14.86
830.264	15.73
830.436	14.31
830.607	12.4
830.779	11.59
830.951	14.12
831.123	16.85
831.294	16.91
831.466	21.54
831.638	19.67
831.809	14.88
831.981	12.59
832.153	12.62
832.324	6.44
832.496	7.63
832.667	7.74
832.839	0.99
833.011	-0.2
833.182	0.64
833.354	-2.17
833.525	-0.24
833.697	4.7
833.868	4.83
834.039	5.91
834.211	7.55
834.382	9.45
834.554	10.12
834.725	12.32
834.896	13
835.068	15.23
835.239	14.62
835.41	16.28
835.581	15.9
835.753	17.64
835.924	18.4
836.095	19.63
836.266	19.45
836.438	21.57
836.609	22.82
836.78	20.98
836.951	20.34
837.122	22.29
837.293	21.97
837.464	26.29
837.635	26.32
837.806	22.05
837.977	24.59
838.148	22.13
838.319	19.94
838.49	15.78
838.661	16
838.832	11.95
839.003	12.12
839.174	12.63
839.345	6.49
839.516	3.97
839.687	9.31
839.857	3.44
840.028	8.72
840.199	6.81
840.37	3.67
840.54	-2.89
840.711	-1.17
840.882	-0.46
841.053	-4.27
841.223	-10.31
841.394	-9.83
841.564	-10.75
841.735	-9.15
841.906	-14.69
842.076	-21.38
842.247	-16.23
842.417	-7.84
842.588	-2.05
842.758	-5.3
842.929	-9.54
843.099	-7.44
843.27	-3.15
843.44	-6.05
843.611	-2.54
843.781	-9.05
843.951	-1.15
844.122	-0.27
844.292	1.08
844.462	2.02
844.633	3.7
844.803	11.38
844.973	11.02
845.144	3.48
845.314	14.5
845.484	7.1
845.654	11.79
845.824	26.75
845.995	25.76
846.165	23.34
846.335	25.76
846.505	26.87
846.675	23.67
846.845	25.94
847.015	38.42
847.185	15.77
847.355	20.19
847.525	8.96
847.695	2.48
847.865	0.37
848.035	-6.46
848.205	-24.72
848.375	-26.93
848.545	-24.61
848.715	-10.02
848.884	-29
849.054	-25.03
849.224	-26.78
849.394	-9.61
849.564	-24.85
849.733	-13.98
849.903	-26.13
850.073	-20.29
850.243	-8.83
850.412	-2.74
850.582	-37.76
850.752	-48.34
850.921	-67.94
851.091	-79.35
851.26	-60.3
851.43	-86.67
851.599	-91.05
851.769	-50.05
851.939	-63.33
852.108	-101.84
852.278	-98.33
852.447	-48.86
852.616	-19.9
852.786	-11.53
852.955	-3.24
853.125	-6.81
853.294	0.19
853.463	2.67
853.633	9.01
853.802	17.21
853.971	31.81
854.141	19.91
854.31	12.18
854.479	8.36
854.648	10.24
854.818	4.22
854.987	-1.31
855.156	13
855.325	11.54
855.494	10.57
855.663	10.62
855.832	5.05
856.001	9.56
856.171	16.37
856.34	3.24
856.509	-3.4
856.678	-8.63
856.847	0.43
857.016	-14.97
857.185	-15.15
857.353	-39.85
857.522	-38.25
857.691	-31.34
857.86	-13.67
858.029	-37.12
858.198	-4.81
858.367	7.19
858.535	21.71
858.704	32.13
858.873	29.11
859.042	26.38
859.21	28.5
859.379	33.33
859.548	37.96
859.717	26.2
859.885	37.52
860.054	45.32
860.222	40.65
860.391	29.02
860.56	22.58
860.728	27.49
860.897	6.26
861.065	17.07
861.234	10.38
861.402	-10.48
861.571	1.42
861.739	1
861.908	-15.52
862.076	-14.98
862.244	-23.79
862.413	-29.12
862.581	-29.99
862.749	-23.55
862.918	-26.52
863.086	-13.32
863.254	-20.7
863.423	-33.49
863.591	-40.09
863.759	-49.3
863.927	-25.47
864.096	6.38
864.264	-0.22
864.432	-11.62
864.6	-5.47
864.768	-17.52
864.936	-25.97
865.104	-32.79
865.272	-24.43
865.44	-8.28
865.608	-10.47
865.776	-23.92
865.944	-48.06
866.112	-20.8
866.28	-20.46
866.448	-27.49
866.616	-17.47
866.784	-40.82
866.952	-12.25
867.12	-6.95
867.288	-25.83
867.455	-31.32
867.623	-40.15
867.791	-59.39
867.959	-84.38
868.127	-64.48
868.294	-44.68
868.462	-72.16
868.63	-42.74
868.797	-56.39
868.965	-86.05
869.133	-47.29
869.3	-48.56
869.468	-16.15
869.636	-17.95
869.803	-37.17
869.971	-33.66
870.138	-39.15
870.306	-19.21
870.473	-1.57
870.641	-9.14
870.808	-16.74
870.975	-49.67
871.143	-44.16
871.31	-62.42
871.478	-30.22
871.645	-9.57
871.812	9.49
871.98	10.89
872.147	18.17
872.314	-4.85
872.482	-4.55
872.649	-0.76
872.816	5.94
872.983	-4.32
873.15	4.34
873.318	-3.21
873.485	-3.51
873.652	-12.31
873.819	-4.7
873.986	0.72
874.153	5.17
874.32	7.02
874.487	21.74
874.654	33.4
874.821	40.55
874.988	29.06
875.155	41.35
875.322	40.68
875.489	49.46
875.656	38.05
875.823	31.53
875.99	39.81
876.157	41.37
876.324	7.74
876.49	-33.35
876.657	-20.42
876.824	-51.7
876.991	-118.01
877.157	-96.17
877.324	-77.83
877.491	-60.65
877.658	-38.78
877.824	-34.77
877.991	-29.28
878.157	-21.41
878.324	-6.95
878.491	-10.96
878.657	-4.9
878.824	-8.22
878.99	-5.48
879.157	-21.05
879.323	-30.71
879.49	-48.19
879.656	-36.95
879.823	-21.95
879.989	-18.94
880.156	-33.3
880.322	-31.39
880.488	-19.39
880.655	-24.12
880.821	-13.15
880.987	-2.34
881.154	6.76
881.32	12.14
881.486	17.04
881.652	16
881.819	14.77
881.985	13.93
882.151	16.78
882.317	12.92
882.483	16.3
882.649	16.11
882.816	14.45
882.982	10.91
883.148	9.37
883.314	5.78
883.48	9.16
883.646	9.73
883.812	11.68
883.978	10.35
884.144	13.99
884.31	15.98
884.476	14.84
884.642	15.35
884.807	18.55
884.973	20.61
885.139	21.83
885.305	18.87
885.471	17.32
885.637	16.4
885.802	14.94
885.968	11.77
886.134	6.16
886.3	6.93
886.465	5.86
886.631	6.95
886.797	5.1
886.962	3.3
887.128	0.13
887.293	8.85
887.459	8.73
887.625	4.02
887.79	3.97
887.956	11.65
888.121	11.62
888.287	14.92
888.452	-3.84
888.618	-3.04
888.783	-7.52
