Data from 2938028_Reflection_3.txt Node
Date: Sun Jul 12 15:08:58 EDT 2015
User: robert
Spectrometer: USB4E03001
Autoset integration time: false
Trigger mode: 4
Integration Time (sec): 1.000000E-1
Scans to average: 10
Electric dark correction enabled: true
Nonlinearity correction enabled: false
Boxcar width: 5
Stray light correction enabled: false
XAxis mode: Wavelengths
Stop averaging: false
Number of Pixels in Spectrum: 3648
>>>>>Begin Spectral Data<<<<<
177.566	-183.59
177.785	-94.14
178.005	-107.71
178.225	-170.67
178.445	4.77
178.665	2.75
178.885	-137.72
179.105	18.06
179.324	61.84
179.544	51.07
179.764	18.86
179.984	34.09
180.204	37.72
180.423	24.53
180.643	39.17
180.863	57.82
181.083	38.63
181.302	29.06
181.522	49.83
181.742	32.86
181.961	-6.57
182.181	35.46
182.401	-0.46
182.621	1.22
182.84	-8.82
183.06	-61.97
183.279	-27.25
183.499	48.48
183.719	45.59
183.938	28.48
184.158	30.31
184.377	99.84
184.597	24.02
184.816	31.4
185.036	65.6
185.256	54.68
185.475	33.12
185.695	31.51
185.914	24.81
186.134	31.18
186.353	-24.08
186.572	-127.48
186.792	-38.61
187.011	-51.93
187.231	-14.62
187.45	-62.87
187.67	-94.51
187.889	-1.25
188.108	-21.26
188.328	-26.5
188.547	-4.38
188.766	11.64
188.986	39.45
189.205	39.33
189.424	67.93
189.644	70.27
189.863	65.15
190.082	99.04
190.302	95.3
190.521	81.75
190.74	93.24
190.959	79.25
191.178	105.02
191.398	90.32
191.617	81.54
191.836	67.07
192.055	55.09
192.274	59.4
192.494	48.82
192.713	49.59
192.932	48.62
193.151	50.14
193.37	46.92
193.589	48.69
193.808	68.93
194.027	88.51
194.246	108.16
194.465	110.28
194.685	162.88
194.904	220.86
195.123	190.38
195.342	267.25
195.561	190.54
195.78	465.11
195.999	-48935
196.218	1632.4
196.436	1229.4
196.655	533.64
196.874	-6444.9
197.093	416.8
197.312	312.16
197.531	302.76
197.75	271.98
197.969	351.74
198.188	314.98
198.407	201.28
198.625	337.77
198.844	124.84
199.063	88.64
199.282	92.74
199.501	50.66
199.719	41.48
199.938	21.29
200.157	-13.41
200.376	-53.26
200.594	-46.35
200.813	-19.97
201.032	10.57
201.251	29.43
201.469	54.98
201.688	98.12
201.907	129.36
202.125	121
202.344	144.8
202.563	174.91
202.781	178.52
203	195.53
203.218	193.27
203.437	203.75
203.656	231.96
203.874	202.2
204.093	69.84
204.311	88.82
204.53	125.01
204.748	163.75
204.967	259.8
205.185	158.07
205.404	142.52
205.622	139.03
205.841	-825.88
206.059	-282.56
206.278	429.29
206.496	448.92
206.715	185.58
206.933	-9071.43
207.151	38.62
207.37	96.74
207.588	27.38
207.806	72.09
208.025	55.54
208.243	18.75
208.461	31.59
208.68	30.75
208.898	65.69
209.116	57.98
209.335	56.24
209.553	59.21
209.771	51.53
209.989	84.81
210.208	57.79
210.426	66.65
210.644	75.33
210.862	75.78
211.081	90.12
211.299	77.49
211.517	64.37
211.735	61.49
211.953	68.86
212.171	37.45
212.39	20.82
212.608	44.73
212.826	87.79
213.044	59.9
213.262	46.44
213.48	51.45
213.698	41.86
213.916	24.88
214.134	8.02
214.352	-1.81
214.57	7.46
214.788	-41.03
215.006	-118.69
215.224	-309.64
215.442	689.25
215.66	193.67
215.878	465.49
216.096	-329.36
216.314	61.55
216.532	53.04
216.75	53.7
216.968	14.42
217.185	66.16
217.403	107.76
217.621	83.44
217.839	77.71
218.057	68.46
218.275	66.97
218.492	57.34
218.71	71.48
218.928	85.21
219.146	60.57
219.363	73.97
219.581	65.44
219.799	62.98
220.017	70
220.234	75.46
220.452	83.82
220.67	62.58
220.887	64.03
221.105	42.08
221.323	45.29
221.54	90.7
221.758	66.7
221.976	63.42
222.193	59.88
222.411	47.43
222.629	33.75
222.846	29.9
223.064	41.01
223.281	42.2
223.499	53.88
223.716	40.66
223.934	21.12
224.151	27.12
224.369	24.92
224.586	26.16
224.804	24.56
225.021	28.26
225.239	24.5
225.456	9.43
225.674	10.34
225.891	6.35
226.108	22.35
226.326	22.2
226.543	19.43
226.76	16.16
226.978	19.59
227.195	18.94
227.413	13.45
227.63	9.49
227.847	14.28
228.064	14.67
228.282	12.83
228.499	12.89
228.716	12.97
228.934	14.91
229.151	13.98
229.368	12.14
229.585	13.24
229.802	16.09
230.02	17.61
230.237	17.59
230.454	16.88
230.671	17.48
230.888	14.42
231.105	15.24
231.323	13.15
231.54	15.02
231.757	15.79
231.974	13
232.191	11.05
232.408	9.29
232.625	11.45
232.842	11.63
233.059	11.95
233.276	12.68
233.493	9.32
233.71	8.33
233.927	7.77
234.144	11.12
234.361	13.94
234.578	13.63
234.795	10.2
235.012	8.31
235.229	12.63
235.446	15.32
235.663	11.52
235.879	14.75
236.096	9.73
236.313	12.82
236.53	14.09
236.747	13.87
236.964	8.31
237.181	12.67
237.397	12.03
237.614	8.58
237.831	5.71
238.048	15.4
238.264	11.55
238.481	19.03
238.698	15
238.915	11.93
239.131	12.88
239.348	14.44
239.565	15.07
239.781	17.78
239.998	15.63
240.215	13.65
240.431	12.55
240.648	14.07
240.865	11.66
241.081	14.37
241.298	12.91
241.514	13.08
241.731	12.14
241.947	11.18
242.164	9.88
242.38	10.69
242.597	10.66
242.814	9.98
243.03	8.08
243.246	8.54
243.463	6.03
243.679	6.79
243.896	4.89
244.112	4.4
244.329	5.22
244.545	5.3
244.762	6.01
244.978	7.63
245.194	7.94
245.411	9.22
245.627	8.78
245.843	11.84
246.06	10.54
246.276	10.63
246.492	11.72
246.709	9.19
246.925	8.03
247.141	7.35
247.357	7.3
247.574	6.49
247.79	7.54
248.006	7.83
248.222	6.56
248.439	6.64
248.655	7.07
248.871	5.71
249.087	5.22
249.303	5.7
249.519	4.89
249.736	4.46
249.952	4.83
250.168	4.14
250.384	4.46
250.6	5.9
250.816	6
251.032	4.6
251.248	4.36
251.464	7.64
251.68	7.72
251.896	7.66
252.112	6.15
252.328	5.4
252.544	4.22
252.76	2.66
252.976	1.43
253.192	1.21
253.408	0.42
253.624	2.42
253.84	2.55
254.056	1.11
254.272	4.42
254.487	7.05
254.703	8.37
254.919	9.9
255.135	12.42
255.351	11.5
255.567	12.76
255.782	14.05
255.998	13.46
256.214	13.16
256.43	15.08
256.646	13.48
256.861	12.6
257.077	10.2
257.293	7.94
257.508	7.8
257.724	7.42
257.94	4.48
258.155	3.28
258.371	2.19
258.587	1.99
258.802	1.95
259.018	1.56
259.234	1.68
259.449	2.64
259.665	3.11
259.88	2.59
260.096	3.36
260.312	4.4
260.527	5.6
260.743	5.28
260.958	5.34
261.174	4.68
261.389	5.78
261.605	5.86
261.82	6.33
262.036	6.56
262.251	7.18
262.466	7.5
262.682	6.84
262.897	5.39
263.113	6.34
263.328	6.13
263.543	5.07
263.759	5.93
263.974	5.62
264.189	7.34
264.405	6.11
264.62	5.73
264.835	6.14
265.051	7.43
265.266	6.49
265.481	7.68
265.696	7.04
265.912	10.12
266.127	7.69
266.342	8
266.557	5.72
266.773	5.52
266.988	5.54
267.203	3.91
267.418	3.25
267.633	4.24
267.848	5.05
268.064	5.19
268.279	5.93
268.494	5.29
268.709	3.74
268.924	2.43
269.139	3.08
269.354	3.85
269.569	5.71
269.784	5.99
269.999	5.12
270.214	3.27
270.429	3.15
270.644	2.4
270.859	3.78
271.074	5.08
271.289	6.15
271.504	7.35
271.719	6.09
271.934	4.1
272.149	3.53
272.363	3.53
272.578	4.23
272.793	3.96
273.008	3.65
273.223	2.89
273.438	2.49
273.653	2.5
273.867	2.7
274.082	3.24
274.297	2.75
274.512	1.61
274.726	0.82
274.941	0.08
275.156	0.94
275.371	-1.04
275.585	-0.47
275.8	0.2
276.015	0.86
276.229	-1.09
276.444	-1.13
276.659	0.56
276.873	1.78
277.088	3.71
277.302	3.91
277.517	2.39
277.732	5.42
277.946	4.27
278.161	4.66
278.375	2.43
278.59	3.28
278.804	3.91
279.019	4.14
279.233	4.68
279.448	4.58
279.662	3.07
279.877	4.31
280.091	3.03
280.306	2.79
280.52	2.04
280.735	4.25
280.949	4.37
281.163	2.83
281.378	1.78
281.592	1.99
281.806	2.81
282.021	4.33
282.235	3.2
282.449	2.65
282.664	4.19
282.878	4.2
283.092	4.58
283.307	5.6
283.521	5.85
283.735	8.43
283.949	6.85
284.164	5.7
284.378	4.58
284.592	6.39
284.806	6.88
285.02	6.47
285.234	5.94
285.449	5.93
285.663	5.2
285.877	5.34
286.091	2.66
286.305	3.54
286.519	4.08
286.733	4.73
286.947	4.82
287.161	4.94
287.375	4.06
287.589	4.24
287.803	3.62
288.017	2.42
288.231	2.43
288.445	4.93
288.659	4.74
288.873	4.04
289.087	3.17
289.301	2.41
289.515	1.58
289.729	2.64
289.943	2.86
290.157	3.23
290.371	4.39
290.584	3.61
290.798	2.75
291.012	3.61
291.226	3.73
291.44	4.39
291.654	3.81
291.867	4.7
292.081	5.08
292.295	6.28
292.509	6.02
292.722	6.58
292.936	8.45
293.15	7.37
293.364	5.81
293.577	6.44
293.791	5.89
294.005	6.33
294.218	5.91
294.432	4.86
294.645	2.77
294.859	4.46
295.073	3.85
295.286	3.35
295.5	3.88
295.713	5.16
295.927	4.8
296.14	6.41
296.354	6.2
296.568	6.87
296.781	6.35
296.994	7.16
297.208	5.6
297.421	6.06
297.635	6.21
297.848	6.37
298.062	6.07
298.275	6.76
298.489	5.48
298.702	5.59
298.915	4.65
299.129	5.19
299.342	5.75
299.555	5.82
299.769	5.45
299.982	6.17
300.195	6.04
300.409	6.38
300.622	5.25
300.835	4.87
301.048	5.14
301.262	6.01
301.475	5.57
301.688	4.55
301.901	4.64
302.115	3.98
302.328	3.21
302.541	3.48
302.754	4.29
302.967	6.01
303.18	8.27
303.393	8.2
303.607	8.33
303.82	10.26
304.033	11.49
304.246	11.94
304.459	12.45
304.672	11.69
304.885	12.02
305.098	12.68
305.311	11.78
305.524	10.73
305.737	10.75
305.95	11.59
306.163	12.02
306.376	10.87
306.589	10.75
306.802	10.82
307.015	11.3
307.228	13.11
307.44	11.29
307.653	11.44
307.866	11.7
308.079	11.64
308.292	11.88
308.505	10.52
308.718	12.25
308.93	12.36
309.143	11.49
309.356	12.17
309.569	9.92
309.781	10.57
309.994	10.25
310.207	9.93
310.42	10.55
310.632	9.27
310.845	10.21
311.058	9.14
311.27	9
311.483	9.29
311.696	8.6
311.908	9.44
312.121	8.32
312.333	7.46
312.546	8.4
312.759	7.81
312.971	8.5
313.184	8.23
313.396	7.73
313.609	6.94
313.821	7.1
314.034	8.87
314.246	9.35
314.459	10.33
314.671	11.48
314.884	11.42
315.096	11.76
315.309	11.63
315.521	11.28
315.733	13.06
315.946	14.09
316.158	14.29
316.371	13.55
316.583	11.48
316.795	10.7
317.008	9.57
317.22	8.97
317.432	8.94
317.644	9.39
317.857	9.54
318.069	7.38
318.281	8.37
318.494	7.88
318.706	7.54
318.918	8.85
319.13	8.05
319.342	9.99
319.555	8.69
319.767	8.42
319.979	8.5
320.191	8.74
320.403	11.28
320.615	9.67
320.827	9.6
321.039	9.53
321.252	10.36
321.464	13.3
321.676	13.29
321.888	13.01
322.1	13.27
322.312	11.88
322.524	13.2
322.736	11.19
322.948	11.45
323.16	11.34
323.372	11.12
323.584	10.17
323.796	11.1
324.007	10.55
324.219	11.42
324.431	10.72
324.643	11.35
324.855	9.13
325.067	10.36
325.279	10.36
325.491	11.14
325.702	11.76
325.914	11.51
326.126	10.06
326.338	10.58
326.55	12.23
326.761	12.82
326.973	13.15
327.185	13.06
327.396	12.51
327.608	13.53
327.82	14.14
328.032	14.34
328.243	17.22
328.455	15.62
328.666	14.85
328.878	15.85
329.09	16.08
329.301	15.82
329.513	16.31
329.725	17.77
329.936	18.08
330.148	18.95
330.359	21.25
330.571	20.63
330.782	23.16
330.994	24.26
331.205	23.07
331.417	24.25
331.628	23.38
331.84	24.46
332.051	22.44
332.262	23.66
332.474	22.2
332.685	20.68
332.897	20.27
333.108	20.06
333.319	20.15
333.531	20.72
333.742	21.54
333.953	23.45
334.165	23.48
334.376	25.99
334.587	25.71
334.799	27.52
335.01	27.97
335.221	28.56
335.432	28.97
335.644	28.78
335.855	28.59
336.066	27.59
336.277	28.05
336.488	28.82
336.7	28.93
336.911	28.09
337.122	26.92
337.333	26.54
337.544	25.94
337.755	26.9
337.966	27.75
338.177	27.64
338.388	28
338.599	28.91
338.811	28.44
339.022	27.29
339.233	27.25
339.444	28.74
339.655	28.1
339.866	28.18
340.076	26.9
340.287	27.77
340.498	28.21
340.709	29
340.92	28.33
341.131	28.82
341.342	30.67
341.553	31.36
341.764	31.28
341.975	32.66
342.185	32.89
342.396	33.3
342.607	31.73
342.818	32.04
343.029	32.13
343.239	32.1
343.45	32.34
343.661	30.5
343.872	30.26
344.082	30.51
344.293	29.7
344.504	29.79
344.714	30.54
344.925	32.11
345.136	31.53
345.346	30.85
345.557	31.1
345.768	30.96
345.978	31.55
346.189	32.21
346.399	31.36
346.61	31.53
346.821	31.43
347.031	30.87
347.242	30.04
347.452	30.44
347.663	30.63
347.873	30.69
348.084	31.32
348.294	32.36
348.504	31.15
348.715	30.69
348.925	31.68
349.136	33.07
349.346	33.54
349.557	33.63
349.767	33.32
349.977	33.6
350.188	33.22
350.398	32.65
350.608	31.12
350.819	31.79
351.029	32.48
351.239	33.27
351.449	31.61
351.66	31.12
351.87	31.43
352.08	30.95
352.29	30.77
352.501	30.98
352.711	31.6
352.921	32.37
353.131	32.95
353.341	32.58
353.552	31.12
353.762	32.22
353.972	32.32
354.182	32.14
354.392	32.81
354.602	32.77
354.812	32.57
355.022	31.33
355.232	31
355.442	30.73
355.652	29.85
355.862	30.37
356.072	29.73
356.282	30.46
356.492	30.48
356.702	29.99
356.912	30.48
357.122	30.08
357.332	30.67
357.542	31
357.752	30.93
357.962	31.42
358.171	31.64
358.381	32.23
358.591	31.99
358.801	31.65
359.011	32.46
359.221	31.6
359.43	31.73
359.64	31.51
359.85	31.31
360.06	30.8
360.269	30.34
360.479	29.42
360.689	29.24
360.899	28.99
361.108	29.18
361.318	28.77
361.528	28.58
361.737	28.78
361.947	29.31
362.156	29.48
362.366	29.72
362.576	29.91
362.785	30.75
362.995	30.36
363.204	30.79
363.414	30.99
363.623	30.63
363.833	32.09
364.042	31.49
364.252	30.64
364.461	30.18
364.671	30.72
364.88	30.68
365.09	30.35
365.299	30.68
365.509	30.17
365.718	29.99
365.927	30.88
366.137	30.01
366.346	31.39
366.555	31.81
366.765	32.21
366.974	31.88
367.183	31
367.393	30.47
367.602	30.18
367.811	29.78
368.021	30.09
368.23	30.51
368.439	30.31
368.648	29.84
368.857	29.83
369.067	29.87
369.276	29.33
369.485	31.13
369.694	31.76
369.903	32.37
370.112	33.07
370.321	32.94
370.531	31.93
370.74	32.08
370.949	32.15
371.158	32.25
371.367	31.72
371.576	32.45
371.785	32.01
371.994	31.23
372.203	30.37
372.412	29.76
372.621	29.27
372.83	28.81
373.039	28.88
373.248	28.52
373.457	28.31
373.666	28.53
373.874	28.87
374.083	29.39
374.292	29.77
374.501	30.24
374.71	30.4
374.919	30.07
375.128	31.16
375.336	31.14
375.545	31.7
375.754	32
375.963	32.35
376.171	31.82
376.38	31.87
376.589	32.17
376.798	32.27
377.006	32.73
377.215	32.59
377.424	32.14
377.632	32.25
377.841	31.63
378.05	31.43
378.258	30.65
378.467	30.86
378.675	30.48
378.884	30.5
379.093	30.36
379.301	29.93
379.51	30.67
379.718	31.44
379.927	31.72
380.135	32.3
380.344	32
380.552	33.22
380.761	33.12
380.969	32.99
381.177	32.34
381.386	31.92
381.594	31.69
381.803	31.53
382.011	31.01
382.219	30.24
382.428	29.51
382.636	29.65
382.845	28.67
383.053	28.42
383.261	28.63
383.469	29.09
383.678	29.18
383.886	29.23
384.094	28.84
384.302	28.84
384.511	29.35
384.719	29.46
384.927	29.1
385.135	29.32
385.343	29.26
385.552	28.99
385.76	28.8
385.968	28.71
386.176	28.34
386.384	28.64
386.592	28.57
386.8	27.95
387.008	27.99
387.216	28.05
387.424	28.22
387.633	27.95
387.841	28
388.049	28.25
388.257	28.46
388.465	28.89
388.672	28.89
388.88	28.74
389.088	29.1
389.296	29.21
389.504	29.59
389.712	29.32
389.92	29.34
390.128	29.29
390.336	28.5
390.544	28.43
390.751	28.62
390.959	28.4
391.167	28.32
391.375	28.19
391.583	28.49
391.79	28.23
391.998	28.63
392.206	28.73
392.414	28.61
392.621	29.11
392.829	29.22
393.037	28.88
393.244	29.18
393.452	29.47
393.66	29.4
393.867	29.25
394.075	29.21
394.283	28.92
394.49	28.93
394.698	29.1
394.905	28.81
395.113	29.12
395.32	29.12
395.528	28.79
395.735	28.3
395.943	28.45
396.15	28.32
396.358	27.99
396.565	27.79
396.773	27.78
396.98	27.72
397.188	28.16
397.395	27.74
397.602	27.68
397.81	27.64
398.017	27.8
398.225	27.84
398.432	27.99
398.639	28.52
398.847	29.02
399.054	29.06
399.261	28.96
399.468	28.98
399.676	29.06
399.883	29.28
400.09	29.61
400.297	29.74
400.505	29.62
400.712	29.54
400.919	29.55
401.126	29.44
401.333	29.99
401.54	30.05
401.748	29.93
401.955	29.6
402.162	29.57
402.369	29.56
402.576	29.32
402.783	29.14
402.99	29.09
403.197	29.21
403.404	29.25
403.611	28.79
403.818	28.64
404.025	28.69
404.232	29.13
404.439	29.31
404.646	29.53
404.853	29.7
405.06	29.68
405.267	29.76
405.474	29.6
405.681	29.46
405.887	29.4
406.094	29.55
406.301	29.7
406.508	29.71
406.715	29.77
406.922	29.43
407.128	29.47
407.335	29.7
407.542	29.59
407.749	29.49
407.955	29.45
408.162	29.71
408.369	29.68
408.575	29.45
408.782	29.33
408.989	29.01
409.195	28.99
409.402	29.08
409.609	29.12
409.815	29.07
410.022	29.2
410.228	29
410.435	29.06
410.642	28.78
410.848	28.96
411.055	28.79
411.261	29.12
411.468	29.52
411.674	29.44
411.881	29.51
412.087	29.61
412.294	29.65
412.5	29.82
412.706	29.54
412.913	29.83
413.119	29.67
413.326	29.85
413.532	29.49
413.738	29.19
413.945	28.81
414.151	28.35
414.357	28.06
414.564	28.08
414.77	28.12
414.976	28.12
415.182	28.22
415.389	28.29
415.595	28.1
415.801	28.31
416.007	28.32
416.214	28.45
416.42	28.7
416.626	29.02
416.832	28.93
417.038	28.84
417.244	28.76
417.45	28.86
417.657	28.7
417.863	28.74
418.069	28.59
418.275	28.52
418.481	28.75
418.687	28.77
418.893	28.68
419.099	28.6
419.305	28.61
419.511	28.8
419.717	28.67
419.923	28.87
420.129	28.87
420.335	28.75
420.541	28.73
420.746	28.61
420.952	28.46
421.158	28.37
421.364	28.44
421.57	28.5
421.776	28.36
421.982	28.37
422.187	28.1
422.393	28.02
422.599	28.13
422.805	28.12
423.01	28.03
423.216	28.12
423.422	28.14
423.628	28.01
423.833	27.91
424.039	27.9
424.245	27.82
424.45	27.92
424.656	27.9
424.862	27.92
425.067	27.9
425.273	27.82
425.478	27.81
425.684	27.6
425.889	27.51
426.095	27.5
426.301	27.4
426.506	27.34
426.712	27.23
426.917	27.27
427.123	27.13
427.328	26.97
427.533	27.29
427.739	27.18
427.944	27.44
428.15	27.34
428.355	27.29
428.561	27.2
428.766	27.19
428.971	27.24
429.177	27.34
429.382	27.45
429.587	27.59
429.793	27.25
429.998	27.2
430.203	27.2
430.408	27.52
430.614	27.49
430.819	27.45
431.024	27.62
431.229	27.65
431.434	27.44
431.64	27.53
431.845	27.46
432.05	27.81
432.255	27.96
432.46	27.77
432.665	27.64
432.87	27.56
433.076	27.78
433.281	27.67
433.486	27.61
433.691	27.58
433.896	27.4
434.101	27.27
434.306	27.18
434.511	27.1
434.716	27.18
434.921	27.14
435.126	27.17
435.331	27.12
435.535	27.06
435.74	26.92
435.945	27.06
436.15	27.18
436.355	27.41
436.56	27.33
436.765	27.4
436.97	27.36
437.174	27.47
437.379	27.5
437.584	27.57
437.789	27.58
437.993	27.72
438.198	27.69
438.403	27.69
438.608	27.7
438.812	27.62
439.017	27.6
439.222	27.62
439.426	27.69
439.631	27.62
439.836	27.48
440.04	27.64
440.245	27.62
440.45	27.68
440.654	27.57
440.859	27.55
441.063	27.57
441.268	27.43
441.472	27.41
441.677	27.33
441.881	27.29
442.086	27.45
442.29	27.27
442.495	27.32
442.699	27.2
442.904	27.27
443.108	27.02
443.312	27
443.517	27.05
443.721	27.14
443.925	27.15
444.13	27.05
444.334	26.83
444.538	26.85
444.743	26.77
444.947	26.82
445.151	26.9
445.356	26.99
445.56	26.88
445.764	27.13
445.968	27.01
446.173	26.92
446.377	27.16
446.581	27.28
446.785	27.31
446.989	27.32
447.193	27.42
447.398	27.37
447.602	27.32
447.806	27.48
448.01	27.17
448.214	27.29
448.418	27.24
448.622	27.07
448.826	27.05
449.03	27.06
449.234	27.08
449.438	26.99
449.642	26.87
449.846	27
450.05	26.88
450.254	26.98
450.458	26.83
450.662	27.06
450.866	27.13
451.069	27.07
451.273	26.94
451.477	26.89
451.681	26.9
451.885	26.9
452.089	26.97
452.292	26.95
452.496	27.02
452.7	26.9
452.904	26.91
453.107	27.02
453.311	27.01
453.515	26.98
453.719	26.94
453.922	26.92
454.126	26.96
454.33	26.92
454.533	26.96
454.737	26.65
454.94	26.8
455.144	26.64
455.348	26.37
455.551	26.41
455.755	26.25
455.958	26.2
456.162	25.83
456.365	25.83
456.569	25.89
456.772	25.88
456.976	26.13
457.179	26.03
457.383	26.11
457.586	26.17
457.79	26.16
457.993	26.41
458.196	26.53
458.4	26.73
458.603	26.72
458.807	26.68
459.01	26.67
459.213	26.77
459.417	26.94
459.62	27.01
459.823	27.05
460.026	26.99
460.23	26.99
460.433	26.89
460.636	26.86
460.839	26.95
461.042	26.9
461.246	26.91
461.449	26.8
461.652	26.69
461.855	26.69
462.058	26.78
462.261	26.87
462.464	26.77
462.668	26.81
462.871	26.8
463.074	26.57
463.277	26.49
463.48	26.42
463.683	26.67
463.886	26.78
464.089	26.72
464.292	26.46
464.495	26.36
464.698	26.7
464.901	27
465.104	27.13
465.306	27.16
465.509	27.27
465.712	27.5
465.915	27.3
466.118	27.23
466.321	27.25
466.524	27.36
466.726	27.5
466.929	27.4
467.132	27.33
467.335	27.26
467.538	27.35
467.74	27.39
467.943	27.24
468.146	27.33
468.348	27.53
468.551	27.53
468.754	27.73
468.956	27.79
469.159	27.64
469.362	27.53
469.564	27.68
469.767	27.84
469.969	28.01
470.172	27.93
470.375	27.96
470.577	27.88
470.78	27.84
470.982	27.73
471.185	27.6
471.387	27.72
471.59	27.78
471.792	27.77
471.995	27.78
472.197	27.69
472.399	27.9
472.602	27.96
472.804	27.85
473.007	27.6
473.209	27.63
473.411	27.61
473.614	27.75
473.816	27.78
474.018	27.74
474.22	27.41
474.423	27.34
474.625	27.38
474.827	27.25
475.03	27.13
475.232	27.4
475.434	27.38
475.636	27.49
475.838	27.39
476.04	27.4
476.243	27.5
476.445	27.62
476.647	27.61
476.849	27.65
477.051	27.62
477.253	27.73
477.455	27.7
477.657	27.69
477.859	27.65
478.061	27.61
478.263	27.63
478.465	27.58
478.667	27.76
478.869	27.72
479.071	27.6
479.273	27.57
479.475	27.64
479.677	27.75
479.879	27.84
480.081	27.94
480.283	27.84
480.485	27.76
480.686	27.87
480.888	27.86
481.09	27.88
481.292	27.96
481.494	28.03
481.695	27.85
481.897	27.58
482.099	27.51
482.301	27.46
482.502	27.5
482.704	27.53
482.906	27.37
483.107	27.37
483.309	27.29
483.511	27.26
483.712	27.26
483.914	27.3
484.115	27.38
484.317	27.37
484.519	27.38
484.72	27.34
484.922	27.31
485.123	27.3
485.325	27.18
485.526	27.25
485.728	27.19
485.929	27.12
486.131	27.15
486.332	27.14
486.534	27.13
486.735	27.09
486.936	27.14
487.138	27.14
487.339	27.11
487.541	27.24
487.742	27.16
487.943	27.19
488.144	27.27
488.346	27.2
488.547	27.18
488.748	27.25
488.95	27.22
489.151	27.21
489.352	27.24
489.553	27.39
489.755	27.32
489.956	27.45
490.157	27.5
490.358	27.55
490.559	27.62
490.76	27.6
490.961	27.48
491.163	27.49
491.364	27.46
491.565	27.45
491.766	27.38
491.967	27.39
492.168	27.3
492.369	27.36
492.57	27.3
492.771	27.3
492.972	27.37
493.173	27.52
493.374	27.62
493.575	27.68
493.776	27.69
493.976	27.72
494.177	27.74
494.378	27.81
494.579	27.61
494.78	27.63
494.981	27.67
495.182	27.65
495.382	27.51
495.583	27.5
495.784	27.51
495.985	27.48
496.185	27.68
496.386	27.71
496.587	27.85
496.788	27.88
496.988	27.81
497.189	27.95
497.39	27.95
497.59	28.1
497.791	28.25
497.992	28.13
498.192	28.26
498.393	28.15
498.593	28.18
498.794	28.1
498.994	28.11
499.195	28.27
499.395	28.27
499.596	28.24
499.796	28.21
499.997	28.02
500.197	28.14
500.398	28.03
500.598	27.91
500.799	27.92
500.999	27.9
501.199	28.04
501.4	27.97
501.6	27.84
501.801	27.74
502.001	27.65
502.201	27.8
502.402	27.9
502.602	28
502.802	28.14
503.002	28.34
503.203	28.52
503.403	28.52
503.603	28.62
503.803	28.41
504.003	28.61
504.204	28.79
504.404	28.58
504.604	28.45
504.804	28.46
505.004	28.52
505.204	28.3
505.404	28.19
505.604	28.15
505.804	28
506.005	28.31
506.205	28.24
506.405	28.12
506.605	28.35
506.805	28.42
507.005	28.35
507.204	28.39
507.404	28.51
507.604	28.55
507.804	28.55
508.004	28.62
508.204	28.61
508.404	28.6
508.604	28.58
508.804	28.51
509.003	28.69
509.203	28.82
509.403	28.74
509.603	28.64
509.803	28.62
510.002	28.67
510.202	28.76
510.402	28.73
510.602	28.75
510.801	28.76
511.001	28.76
511.201	28.73
511.4	28.74
511.6	28.74
511.8	28.97
511.999	28.97
512.199	29.12
512.398	29.11
512.598	29.12
512.797	29.22
512.997	29.24
513.197	29.27
513.396	29.34
513.596	29.26
513.795	29.37
513.994	29.21
514.194	29.29
514.393	29.1
514.593	29.13
514.792	29.27
514.992	29.34
515.191	29.34
515.39	29.48
515.59	29.43
515.789	29.58
515.988	29.49
516.188	29.64
516.387	29.64
516.586	29.64
516.786	29.56
516.985	29.59
517.184	29.56
517.383	29.51
517.582	29.45
517.782	29.44
517.981	29.37
518.18	29.4
518.379	29.4
518.578	29.32
518.777	29.43
518.976	29.44
519.176	29.29
519.375	29.21
519.574	29.27
519.773	29.31
519.972	29.28
520.171	29.27
520.37	29.23
520.569	29.23
520.768	29.3
520.967	29.27
521.166	29.21
521.365	29.42
521.564	29.5
521.762	29.36
521.961	29.35
522.16	29.38
522.359	29.45
522.558	29.52
522.757	29.46
522.956	29.41
523.154	29.42
523.353	29.6
523.552	29.64
523.751	29.65
523.949	29.7
524.148	29.53
524.347	29.57
524.546	29.59
524.744	29.67
524.943	29.71
525.142	29.82
525.34	29.87
525.539	29.8
525.737	29.77
525.936	29.7
526.135	29.9
526.333	29.95
526.532	29.99
526.73	30.03
526.929	30.03
527.127	30.02
527.326	29.97
527.524	29.94
527.723	30.03
527.921	29.95
528.12	29.92
528.318	29.81
528.516	29.85
528.715	29.85
528.913	29.83
529.112	29.83
529.31	29.89
529.508	29.9
529.707	29.96
529.905	29.93
530.103	29.96
530.301	30.13
530.5	30.26
530.698	30.28
530.896	30.22
531.094	30.24
531.293	30.23
531.491	30.19
531.689	30.27
531.887	30.25
532.085	30.24
532.283	30.35
532.481	30.31
532.68	30.23
532.878	30.22
533.076	30.27
533.274	30.25
533.472	30.31
533.67	30.34
533.868	30.34
534.066	30.37
534.264	30.47
534.462	30.39
534.66	30.33
534.858	30.44
535.056	30.59
535.253	30.63
535.451	30.75
535.649	30.87
535.847	30.99
536.045	31.08
536.243	31.05
536.441	31
536.638	30.99
536.836	31.09
537.034	31.03
537.232	30.9
537.43	31
537.627	31.05
537.825	30.97
538.023	30.8
538.22	30.77
538.418	30.82
538.616	30.76
538.813	30.9
539.011	30.82
539.209	30.84
539.406	30.91
539.604	30.86
539.801	30.88
539.999	30.85
540.196	30.9
540.394	30.79
540.591	30.68
540.789	30.75
540.986	30.79
541.184	30.98
541.381	30.97
541.579	31.02
541.776	31.07
541.974	31.02
542.171	31.03
542.368	31.09
542.566	31.17
542.763	31.3
542.96	31.33
543.158	31.36
543.355	31.21
543.552	31.26
543.75	31.26
543.947	31.29
544.144	31.35
544.341	31.39
544.539	31.4
544.736	31.49
544.933	31.49
545.13	31.45
545.327	31.44
545.524	31.67
545.722	31.75
545.919	31.84
546.116	31.89
546.313	31.9
546.51	32.15
546.707	32.28
546.904	32.28
547.101	32.37
547.298	32.5
547.495	32.58
547.692	32.56
547.889	32.64
548.086	32.74
548.283	32.74
548.48	32.74
548.677	32.64
548.874	32.84
549.07	32.88
549.267	32.88
549.464	32.9
549.661	32.94
549.858	32.82
550.055	32.83
550.251	32.74
550.448	32.88
550.645	33
550.842	32.97
551.038	32.84
551.235	32.68
551.432	32.54
551.628	32.71
551.825	32.81
552.022	32.85
552.218	32.87
552.415	32.88
552.612	32.84
552.808	32.75
553.005	32.78
553.201	32.76
553.398	32.99
553.594	33.01
553.791	32.9
553.987	32.72
554.184	32.9
554.38	32.9
554.577	32.91
554.773	32.89
554.97	32.86
555.166	32.88
555.362	32.81
555.559	32.97
555.755	33.2
555.952	33.22
556.148	33.39
556.344	33.32
556.541	33.43
556.737	33.63
556.933	33.9
557.129	34.18
557.326	34.11
557.522	34.01
557.718	33.75
557.914	33.86
558.11	33.99
558.307	33.88
558.503	34.05
558.699	34.14
558.895	33.89
559.091	33.69
559.287	33.39
559.483	33.48
559.679	33.66
559.876	33.77
560.072	33.8
560.268	33.89
560.464	33.97
560.66	33.89
560.856	33.78
561.052	33.64
561.247	33.53
561.443	34.07
561.639	34.12
561.835	34.22
562.031	34.2
562.227	34.07
562.423	34.08
562.619	34.21
562.815	34.4
563.01	34.59
563.206	34.96
563.402	35.22
563.598	35.18
563.793	35.26
563.989	35.22
564.185	35.33
564.381	35.44
564.576	35.5
564.772	35.37
564.968	35.13
565.163	34.94
565.359	35
565.555	34.87
565.75	34.61
565.946	34.52
566.141	34.42
566.337	34.38
566.532	34.38
566.728	34.29
566.923	34.41
567.119	34.48
567.314	34.77
567.51	34.69
567.705	34.72
567.901	34.92
568.096	35.01
568.292	34.93
568.487	35.04
568.682	35.14
568.878	35.15
569.073	35.23
569.268	35.32
569.464	35.19
569.659	35.24
569.854	35.34
570.05	35.31
570.245	35.43
570.44	35.75
570.635	35.79
570.831	35.7
571.026	35.69
571.221	35.74
571.416	35.71
571.611	35.63
571.806	35.59
572.002	35.62
572.197	35.6
572.392	35.65
572.587	35.6
572.782	35.61
572.977	35.77
573.172	35.79
573.367	35.59
573.562	35.75
573.757	35.81
573.952	35.91
574.147	36
574.342	36.11
574.537	36.01
574.732	36.17
574.927	36.24
575.121	36.15
575.316	36.13
575.511	36.24
575.706	36.16
575.901	36.08
576.096	36.12
576.29	36.22
576.485	36.23
576.68	36.38
576.875	36.24
577.069	36.02
577.264	35.95
577.459	35.92
577.654	35.88
577.848	35.89
578.043	36.12
578.238	36
578.432	35.9
578.627	35.99
578.821	35.74
579.016	35.86
579.21	35.95
579.405	35.95
579.6	36.04
579.794	35.97
579.989	36.03
580.183	36.02
580.378	36.12
580.572	36.17
580.766	36.08
580.961	36.2
581.155	36.19
581.35	36.05
581.544	36.29
581.738	36.57
581.933	36.57
582.127	36.33
582.321	36.21
582.516	36.26
582.71	36.19
582.904	35.97
583.099	36.06
583.293	36.11
583.487	36.49
583.681	36.21
583.875	36.06
584.07	36.18
584.264	36.54
584.458	36.67
584.652	36.83
584.846	36.75
585.04	36.88
585.234	36.96
585.428	36.91
585.623	36.79
585.817	37.08
586.011	37.12
586.205	37.15
586.399	37.19
586.593	37.07
586.787	36.95
586.981	37.04
587.174	36.95
587.368	36.86
587.562	36.85
587.756	36.54
587.95	36.42
588.144	36.29
588.338	36.29
588.532	36.16
588.725	36.33
588.919	36.3
589.113	36.29
589.307	36.37
589.501	36.22
589.694	36.14
589.888	36.68
590.082	36.72
590.275	36.92
590.469	37.02
590.663	36.78
590.856	36.7
591.05	36.93
591.244	37.31
591.437	37.17
591.631	37.54
591.824	37.8
592.018	37.65
592.212	37.71
592.405	37.58
592.599	37.72
592.792	37.87
592.986	37.96
593.179	37.57
593.372	37.4
593.566	37.66
593.759	37.51
593.953	37.22
594.146	37.2
594.339	37.3
594.533	37.47
594.726	37.24
594.92	37.15
595.113	37.2
595.306	37.41
595.499	37.31
595.693	37.45
595.886	37.44
596.079	37.46
596.272	37.34
596.466	37.35
596.659	37.33
596.852	37.47
597.045	37.82
597.238	37.67
597.431	37.54
597.624	37.54
597.818	37.54
598.011	37.35
598.204	37.32
598.397	37.56
598.59	37.46
598.783	37.41
598.976	37.49
599.169	37.29
599.362	37.37
599.555	37.56
599.748	37.65
599.941	37.44
600.134	37.86
600.326	38.11
600.519	37.79
600.712	37.64
600.905	37.77
601.098	37.62
601.291	37.61
601.483	37.86
601.676	37.97
601.869	37.85
602.062	37.93
602.255	37.79
602.447	37.89
602.64	37.94
602.833	38.24
603.025	38.28
603.218	38.26
603.411	38.5
603.603	38.49
603.796	38.32
603.989	38.34
604.181	38.24
604.374	38.17
604.566	37.98
604.759	38.26
604.951	38.06
605.144	37.9
605.336	38.07
605.529	37.97
605.721	37.81
605.914	38
606.106	37.93
606.299	37.81
606.491	37.78
606.683	37.83
606.876	37.8
607.068	37.91
607.26	38.11
607.453	38.3
607.645	38.16
607.837	38.36
608.03	37.98
608.222	38.01
608.414	38.48
608.606	38.51
608.799	38.46
608.991	38.11
609.183	38
609.375	37.91
609.567	37.55
609.759	37.63
609.952	37.57
610.144	37.85
610.336	37.86
610.528	37.75
610.72	37.83
610.912	37.96
611.104	38.21
611.296	38.4
611.488	38.44
611.68	38.39
611.872	38.33
612.064	38.2
612.256	38.04
612.448	38.09
612.64	38.17
612.832	38.15
613.023	38.25
613.215	38.14
613.407	37.91
613.599	37.56
613.791	37.67
613.983	37.8
614.174	37.85
614.366	38.12
614.558	38.06
614.75	37.87
614.941	37.69
615.133	37.51
615.325	37.72
615.516	37.9
615.708	38.16
615.9	38.45
616.091	38.22
616.283	38.21
616.475	38.12
616.666	38.26
616.858	38.33
617.049	38.31
617.241	38.52
617.432	38.24
617.624	38.2
617.815	38.02
618.007	37.81
618.198	38.06
618.39	38.03
618.581	37.83
618.773	38.06
618.964	38.17
619.155	38.6
619.347	38.54
619.538	38.47
619.729	38.7
619.921	39.13
620.112	39.19
620.303	39.15
620.494	39.35
620.686	39.6
620.877	39.44
621.068	39.26
621.259	39
621.451	39.2
621.642	39.17
621.833	39.13
622.024	39.18
622.215	39.1
622.406	39.14
622.597	38.62
622.788	38.71
622.98	38.49
623.171	38.57
623.362	38.65
623.553	38.5
623.744	38.74
623.935	38.66
624.126	38.34
624.317	38.34
624.508	38.26
624.698	38.61
624.889	38.34
625.08	38.29
625.271	38.14
625.462	37.98
625.653	38.3
625.844	38.28
626.034	38.5
626.225	38.66
626.416	38.65
626.607	38.68
626.798	38.64
626.988	38.93
627.179	39.2
627.37	39.18
627.56	39.29
627.751	38.97
627.942	38.96
628.132	38.71
628.323	38.46
628.514	38.54
628.704	38.52
628.895	38.48
629.085	38.46
629.276	38.25
629.466	38.31
629.657	38.2
629.847	38.19
630.038	38.24
630.228	38.2
630.419	38.47
630.609	38.33
630.8	38.35
630.99	38.45
631.181	38.35
631.371	38.35
631.561	38.52
631.752	38.78
631.942	38.75
632.132	38.53
632.323	38.46
632.513	38.34
632.703	38.48
632.893	38.32
633.084	38.26
633.274	37.87
633.464	37.78
633.654	37.68
633.844	37.56
634.034	37.69
634.225	37.59
634.415	37.7
634.605	37.46
634.795	37.51
634.985	37.77
635.175	37.89
635.365	37.82
635.555	37.88
635.745	38.17
635.935	38.03
636.125	37.96
636.315	38.39
636.505	38.63
636.695	38.71
636.885	38.94
637.075	38.78
637.265	38.52
637.455	38.99
637.644	38.93
637.834	38.7
638.024	38.65
638.214	38.58
638.404	38.13
638.593	37.99
638.783	38.15
638.973	37.57
639.163	37.7
639.352	37.63
639.542	37.14
639.732	37.31
639.921	37.11
640.111	37.32
640.301	37.4
640.49	37.64
640.68	37.74
640.87	37.75
641.059	38.08
641.249	37.91
641.438	38.41
641.628	38.75
641.817	38.74
642.007	38.43
642.196	38.52
642.386	38.1
642.575	38.06
642.764	37.92
642.954	37.8
643.143	37.8
643.333	37.7
643.522	37.04
643.711	37.1
643.901	36.74
644.09	37.58
644.279	37.79
644.469	38.31
644.658	38.48
644.847	38.62
645.036	39.26
645.226	39.16
645.415	39.42
645.604	39.98
645.793	39.79
645.982	39.81
646.171	39.46
646.361	39.06
646.55	38.94
646.739	39.05
646.928	38.88
647.117	38.48
647.306	38.67
647.495	38.69
647.684	38.15
647.873	38.68
648.062	38.85
648.251	38.66
648.44	38.76
648.629	38.97
648.818	38.71
649.007	38.68
649.196	38.47
649.384	38.46
649.573	38.14
649.762	38.45
649.951	38.22
650.14	38.48
650.328	38.53
650.517	38.35
650.706	38.19
650.895	38.13
651.083	38.2
651.272	38.26
651.461	37.99
651.65	38.47
651.838	38.16
652.027	37.8
652.216	37.19
652.404	37.36
652.593	37.75
652.781	37.6
652.97	37.97
653.158	37.88
653.347	37.99
653.535	38.16
653.724	37.97
653.912	38.05
654.101	38.03
654.289	38.67
654.478	38.21
654.666	38.33
654.855	38.44
655.043	38.42
655.231	38.25
655.42	38.02
655.608	38.24
655.796	38.35
655.985	38.62
656.173	38.73
656.361	38.59
656.55	38.57
656.738	38.41
656.926	38.12
657.114	37.74
657.302	38.13
657.491	38.33
657.679	38.13
657.867	37.57
658.055	38.01
658.243	38.4
658.431	38.55
658.619	39.16
658.807	39
658.996	39.11
659.184	39.41
659.372	39.27
659.56	39.17
659.748	39.5
659.936	39.78
660.124	39.44
660.311	39.03
660.499	38.94
660.687	38.47
660.875	38.26
661.063	38.33
661.251	38.36
661.439	38.48
661.627	38.23
661.814	37.81
662.002	37.88
662.19	38.02
662.378	38.16
662.565	38.24
662.753	38.19
662.941	38.67
663.129	38.46
663.316	38.94
663.504	39.08
663.692	39.6
663.879	39.78
664.067	39.74
664.254	39.76
664.442	40.16
664.63	40.39
664.817	40.85
665.005	40.49
665.192	40.84
665.38	40.26
665.567	39.87
665.755	39.91
665.942	39.62
666.13	39.61
666.317	39.67
666.504	39.39
666.692	39.12
666.879	39.63
667.067	40.16
667.254	39.76
667.441	39.29
667.629	39.57
667.816	39.15
668.003	39.21
668.19	39.36
668.378	38.8
668.565	38.79
668.752	38.51
668.939	37.66
669.127	37.56
669.314	37.77
669.501	37.94
669.688	37.5
669.875	37.59
670.062	37.88
670.249	37.52
670.436	38.28
670.623	38.44
670.81	39.18
670.997	39.33
671.184	39.01
671.371	39.16
671.558	38.82
671.745	39.13
671.932	39.28
672.119	39.1
672.306	39.36
672.493	39.32
672.68	38.84
672.867	38.45
673.054	38.35
673.24	38.85
673.427	39.14
673.614	40
673.801	40.36
673.988	40.2
674.174	40.52
674.361	40.18
674.548	39.78
674.734	40.47
674.921	40.63
675.108	40.5
675.294	40.08
675.481	39.46
675.668	39.15
675.854	39.01
676.041	39.15
676.227	38.81
676.414	38.82
676.601	38.2
676.787	38.04
676.974	37.83
677.16	37.78
677.347	38.09
677.533	38.19
677.719	37.76
677.906	38.12
678.092	38
678.279	38.28
678.465	38.25
678.651	38.89
678.838	38.97
679.024	38.91
679.21	39.16
679.397	38.86
679.583	39.18
679.769	39.06
679.955	38.76
680.142	39.23
680.328	38.84
680.514	38.98
680.7	38.85
680.886	38.58
681.073	38.8
681.259	39.15
681.445	39.43
681.631	39.95
681.817	40.03
682.003	40.01
682.189	39.82
682.375	39.89
682.561	40.1
682.747	40.03
682.933	39.9
683.119	39.87
683.305	39.75
683.491	39.25
683.677	38.63
683.863	39.23
684.049	39.45
684.235	38.85
684.42	39.1
684.606	39.12
684.792	39.22
684.978	39.46
685.164	39.07
685.349	38.94
685.535	39.6
685.721	39.78
685.907	39.18
686.092	38.24
686.278	38.25
686.464	37.83
686.649	37.65
686.835	37.65
687.021	37.79
687.206	37.8
687.392	38.18
687.577	37.73
687.763	36.98
687.948	37.1
688.134	37.49
688.319	37.79
688.505	37.79
688.69	37.66
688.876	37.46
689.061	37.14
689.247	37.32
689.432	37.11
689.618	37.43
689.803	37.3
689.988	37.24
690.174	37.53
690.359	37.84
690.544	38.14
690.73	38.57
690.915	38.77
691.1	38.98
691.285	39.53
691.471	39.57
691.656	39.12
691.841	40.46
692.026	40.48
692.211	40.44
692.396	39.74
692.582	39.82
692.767	39.33
692.952	39.34
693.137	39.21
693.322	38.55
693.507	38.66
693.692	38.43
693.877	37.24
694.062	37.87
694.247	37.77
694.432	37.95
694.617	37.6
694.802	37.7
694.987	37.62
695.172	37.7
695.357	38.29
695.541	37.45
695.726	37.95
695.911	38.41
696.096	38.08
696.281	38.38
696.466	38.73
696.65	38.73
696.835	38.72
697.02	38.95
697.204	38.93
697.389	38.69
697.574	38.79
697.759	38.73
697.943	38.49
698.128	38.76
698.312	38.73
698.497	38.9
698.682	38.8
698.866	38.94
699.051	38.83
699.235	38.66
699.42	38.37
699.604	38.47
699.789	38.03
699.973	38.38
700.158	38.11
700.342	37.94
700.527	37.81
700.711	38.22
700.895	38.12
701.08	38.13
701.264	38.84
701.448	39.08
701.633	39.3
701.817	40.12
702.001	39.87
702.186	39.88
702.37	40.07
702.554	40.02
702.738	40.1
702.923	39.96
703.107	40.04
703.291	39.15
703.475	38.71
703.659	38.66
703.843	38.08
704.027	38.19
704.212	37.96
704.396	38.2
704.58	38.53
704.764	38.2
704.948	38.51
705.132	38.13
705.316	37.82
705.5	38.06
705.684	38.06
705.868	38.43
706.052	38.16
706.235	38.81
706.419	38.37
706.603	37.74
706.787	38.36
706.971	37.86
707.155	38.21
707.339	38.07
707.522	37.62
707.706	36.92
707.89	37.14
708.074	36.86
708.257	36.36
708.441	36.56
708.625	36.32
708.808	35.35
708.992	36.34
709.176	35.89
709.359	36.72
709.543	37.16
709.727	38.23
709.91	38.41
710.094	38.19
710.277	38.26
710.461	38.19
710.644	38.6
710.828	39.33
711.011	38.25
711.195	38.25
711.378	38.65
711.562	38.63
711.745	38.01
711.928	37.78
712.112	38.25
712.295	37.98
712.478	38.13
712.662	38.33
712.845	38.02
713.028	37.69
713.212	37.83
713.395	36.71
713.578	37.2
713.761	36.64
713.945	36.97
714.128	37.49
714.311	37.52
714.494	37.66
714.677	37.7
714.86	37.45
715.043	37.66
715.227	37.33
715.41	37.4
715.593	37.08
715.776	37.86
715.959	37
716.142	36.46
716.325	36.51
716.508	36.87
716.691	36.51
716.874	37.19
717.057	38
717.239	38.21
717.422	38.78
717.605	38.21
717.788	38.32
717.971	39.57
718.154	39.89
718.337	39.6
718.519	39.25
718.702	39.18
718.885	38.6
719.068	37.75
719.25	38.62
719.433	39.53
719.616	39.86
719.798	39.33
719.981	38.58
720.164	38.51
720.346	39.25
720.529	39.07
720.712	39.85
720.894	39.41
721.077	39.8
721.259	39.68
721.442	38.6
721.624	38.35
721.807	39.05
721.989	38.37
722.172	38.41
722.354	39.05
722.537	38.12
722.719	37.82
722.901	38.25
723.084	38.07
723.266	37.63
723.448	37.81
723.631	37.94
723.813	37.77
723.995	37.98
724.178	38.93
724.36	37.84
724.542	38.42
724.724	37.84
724.907	38.59
725.089	38.6
725.271	39.47
725.453	39.19
725.635	39.9
725.817	39.68
725.999	40.07
726.181	39.03
726.364	39.31
726.546	39.8
726.728	39.76
726.91	39.08
727.092	39.75
727.274	39.39
727.456	39.21
727.638	39.05
727.819	39.66
728.001	39.93
728.183	40.91
728.365	41.13
728.547	40.33
728.729	40.64
728.911	40.66
729.093	40.98
729.274	39.84
729.456	39.73
729.638	39.29
729.82	38.68
730.001	37.84
730.183	37.19
730.365	37.17
730.546	37.77
730.728	38.77
730.91	38.46
731.091	37.35
731.273	38.58
731.455	38.75
731.636	37.85
731.818	38.01
731.999	38.99
732.181	38.55
732.362	38.27
732.544	37.7
732.725	36.5
732.907	37.03
733.088	37.45
733.27	36.25
733.451	36.23
733.633	37.1
733.814	36.82
733.995	35.27
734.177	35.71
734.358	36.29
734.539	36.37
734.721	35.71
734.902	36.17
735.083	36.73
735.264	37.66
735.446	37.64
735.627	38.02
735.808	37.36
735.989	39.58
736.17	39.27
736.351	38.65
736.533	38.85
736.714	39.68
736.895	39.17
737.076	39.31
737.257	39.92
737.438	39.94
737.619	41.12
737.8	41.18
737.981	40.17
738.162	39.99
738.343	40.2
738.524	40.54
738.705	40.69
738.886	40.2
739.067	40.43
739.247	39.58
739.428	40.3
739.609	38.59
739.79	39.17
739.971	38.77
740.151	38.21
740.332	37.63
740.513	36.93
740.694	36.05
740.874	36.32
741.055	35.66
741.236	35.36
741.417	34.82
741.597	35.4
741.778	36.58
741.958	37.45
742.139	37.95
742.32	38.19
742.5	39.45
742.681	40.54
742.861	40.43
743.042	39.76
743.222	39.49
743.403	39.17
743.583	40.56
743.764	39.15
743.944	38.28
744.124	38.76
744.305	39.01
744.485	37.53
744.666	36.94
744.846	35.74
745.026	35.9
745.207	37.56
745.387	37.9
745.567	35.89
745.747	35.63
745.928	35.66
746.108	36.02
746.288	36.55
746.468	36.08
746.648	35.83
746.829	37.55
747.009	38.56
747.189	37.36
747.369	37.28
747.549	36.52
747.729	37.04
747.909	36.77
748.089	37.5
748.269	37.63
748.449	38.99
748.629	38.81
748.809	39.42
748.989	37.57
749.169	38.32
749.349	38.13
749.529	39.86
749.709	38.48
749.889	39.44
750.068	38.16
750.248	36.75
750.428	36.28
750.608	35.93
750.788	35.48
750.967	36.98
751.147	36.88
751.327	37.78
751.507	36.82
751.686	39.38
751.866	39.16
752.046	38.47
752.225	39.84
752.405	40.25
752.585	41.17
752.764	41.69
752.944	41.6
753.123	41.93
753.303	40.36
753.482	41.21
753.662	39.83
753.841	38.98
754.021	39.15
754.2	37.99
754.38	37.74
754.559	37.16
754.739	36.02
754.918	35.25
755.097	35.48
755.277	36.34
755.456	35.42
755.635	35.41
755.815	35.92
755.994	34.62
756.173	34.95
756.352	34.69
756.532	34.41
756.711	34.97
756.89	35.34
757.069	34.22
757.248	32.77
757.427	32.21
757.607	33.42
757.786	34.26
757.965	36.85
758.144	36.24
758.323	36.49
758.502	36.91
758.681	37.19
758.86	37.95
759.039	38.59
759.218	39.51
759.397	41.02
759.576	40.11
759.755	39.66
759.934	37.78
760.113	38.31
760.291	38.28
760.47	38.9
760.649	38.34
760.828	37.48
761.007	36.74
761.186	37.69
761.364	37.67
761.543	38.51
761.722	39.59
761.901	41.09
762.079	41.66
762.258	40.69
762.437	40.25
762.615	40.39
762.794	40.39
762.972	40.72
763.151	40.03
763.33	40.23
763.508	38.78
763.687	38.22
763.865	38.03
764.044	37.66
764.222	38.07
764.401	38.35
764.579	38.17
764.758	37.94
764.936	37.53
765.114	37.93
765.293	36.78
765.471	37.48
765.65	36.66
765.828	35.87
766.006	35.65
766.184	35.25
766.363	34.52
766.541	32.51
766.719	33.68
766.898	34
767.076	33.36
767.254	34.71
767.432	33.95
767.61	34.67
767.788	34.44
767.967	33
768.145	34.47
768.323	34.74
768.501	38.23
768.679	38.09
768.857	37.7
769.035	37.67
769.213	36.28
769.391	36.3
769.569	36.66
769.747	36.79
769.925	39.74
770.103	39.53
770.281	39.53
770.459	39.18
770.636	37.42
770.814	37.99
770.992	38.46
771.17	38.93
771.348	41.25
771.525	40.68
771.703	41.69
771.881	39.44
772.059	37.94
772.236	39.69
772.414	37.63
772.592	38.02
772.769	36.66
772.947	37.25
773.125	37.59
773.302	34.41
773.48	34.11
773.657	32.41
773.835	33.69
774.013	34.36
774.19	32.44
774.368	34.97
774.545	35.79
774.723	36.39
774.9	36.85
775.077	39.13
775.255	42.54
775.432	42.8
775.61	43.04
775.787	43.33
775.964	43.81
776.142	43.04
776.319	44.26
776.496	43.95
776.674	43.32
776.851	43.35
777.028	40.33
777.205	40.17
777.382	41.34
777.56	44.59
777.737	44.4
777.914	43.1
778.091	42.7
778.268	37.63
778.445	36.87
778.622	37.03
778.8	37.34
778.977	38.97
779.154	39.89
779.331	36.7
779.508	32.6
779.685	31.33
779.862	33.28
780.038	32.11
780.215	34.65
780.392	35.74
780.569	36.34
780.746	34.54
780.923	34.37
781.1	32.18
781.277	33.47
781.453	33.81
781.63	34.8
781.807	35.26
781.984	38.4
782.16	37.54
782.337	32.32
782.514	33.15
782.691	32.29
782.867	31.6
783.044	31.24
783.221	30.51
783.397	32.97
783.574	30.82
783.75	30.2
783.927	27.98
784.103	30.52
784.28	35.6
784.456	36.89
784.633	36.62
784.809	38.06
784.986	38.43
785.162	39.32
785.339	36.88
785.515	36.7
785.692	33.87
785.868	35.48
786.044	33.25
786.221	34.34
786.397	32
786.573	33.98
786.749	31.49
786.926	30.46
787.102	32.86
787.278	35.51
787.454	37.44
787.631	39.33
787.807	39.4
787.983	39.09
788.159	38.6
788.335	38.89
788.511	37.61
788.687	38.52
788.863	39.61
789.039	36.2
789.216	35.59
789.392	34.88
789.568	36.8
789.744	35.94
789.919	39.36
790.095	37.81
790.271	37.51
790.447	38.17
790.623	37.14
790.799	37.5
790.975	39.66
791.151	37.37
791.327	35.89
791.502	34.58
791.678	35.02
791.854	33.03
792.03	32.79
792.205	31.1
792.381	32.56
792.557	32.61
792.733	31.22
792.908	28.35
793.084	29.09
793.259	29.38
793.435	30.86
793.611	28.04
793.786	27.12
793.962	28.5
794.137	29.13
794.313	28.81
794.488	28.91
794.664	30.74
794.839	31.65
795.015	34.62
795.19	35.91
795.366	37.95
795.541	39.34
795.716	39.18
795.892	38.99
796.067	39.76
796.242	36.34
796.418	35.33
796.593	33.42
796.768	33.29
796.944	30.11
797.119	31.18
797.294	25.55
797.469	25.69
797.644	27.26
797.82	26.76
797.995	25.7
798.17	28.39
798.345	30.5
798.52	32.67
798.695	32.99
798.87	32.97
799.045	31.32
799.22	33.35
799.395	35.39
799.57	33.03
799.745	32.66
799.92	32.28
800.095	32.16
800.27	33.38
800.445	33.45
800.62	33.16
800.795	34.64
800.97	33.24
801.145	33.14
801.319	31.41
801.494	33.18
801.669	32.32
801.844	36.33
802.018	35.43
802.193	35.18
802.368	31.79
802.543	30.66
802.717	30.82
802.892	32.98
803.067	35.19
803.241	33.26
803.416	32.2
803.59	36.04
803.765	33.54
803.94	36.08
804.114	32.32
804.289	32.89
804.463	36.49
804.638	36
804.812	35.63
804.986	31.58
805.161	35.6
805.335	38.74
805.51	38.1
805.684	35.29
805.858	32.69
806.033	34.85
806.207	37.06
806.381	36.5
806.556	36.38
806.73	35.87
806.904	38.56
807.078	35.98
807.253	30.61
807.427	30.09
807.601	37.2
807.775	40.53
807.949	37.95
808.123	34.48
808.298	32.84
808.472	33.46
808.646	34.16
808.82	32.83
808.994	36.26
809.168	39.29
809.342	36.03
809.516	34.11
809.69	34.88
809.864	35.47
810.038	39.09
810.212	42.06
810.385	42.17
810.559	42.52
810.733	42.61
810.907	37.61
811.081	35
811.255	40.88
811.428	42.97
811.602	42.42
811.776	43.31
811.95	45.05
812.123	43.27
812.297	45.42
812.471	43.84
812.644	42.89
812.818	45.12
812.992	46.82
813.165	45.04
813.339	43.69
813.512	42.06
813.686	42.43
813.86	42.24
814.033	46.01
814.207	47.16
814.38	50.67
814.554	51.01
814.727	51.01
814.9	51.75
815.074	53.35
815.247	52.78
815.421	54.21
815.594	55.57
815.767	52.43
815.941	52.9
816.114	52.44
816.287	51.58
816.46	52.91
816.634	48.83
816.807	51.34
816.98	49.21
817.153	46.97
817.327	42.8
817.5	47.27
817.673	47.74
817.846	43.45
818.019	36.64
818.192	37.97
818.365	33.31
818.538	33.08
818.711	31.46
818.884	26.09
819.057	29.26
819.23	34.19
819.403	28.25
819.576	31.53
819.749	31.31
819.922	35.17
820.095	33.93
820.268	35.15
820.441	36.03
820.614	35.89
820.786	38.96
820.959	39.6
821.132	36.6
821.305	38.35
821.477	37.21
821.65	36.44
821.823	37.09
821.996	36.49
822.168	36.99
822.341	37.2
822.514	37.49
822.686	37.54
822.859	36.9
823.031	37.5
823.204	36.12
823.376	36.17
823.549	36.4
823.722	36.32
823.894	36.59
824.067	36.35
824.239	35.63
824.411	35.49
824.584	35.92
824.756	36.04
824.929	36.55
825.101	37.12
825.273	37.19
825.446	37.47
825.618	36.57
825.79	37.25
825.963	36.42
826.135	37.98
826.307	38.1
826.479	36.52
826.652	35.8
826.824	34.84
826.996	35.97
827.168	36.26
827.34	35.68
827.512	36.36
827.684	34.63
827.856	35.53
828.029	35.24
828.201	34.25
828.373	35.24
828.545	34.67
828.717	34.93
828.889	33.56
829.061	32.97
829.232	34.08
829.404	33.88
829.576	34.88
829.748	35.08
829.92	35.15
830.092	35.27
830.264	34.19
830.436	34.48
830.607	33.88
830.779	33.17
830.951	32.9
831.123	30.22
831.294	28.39
831.466	27.26
831.638	26.95
831.809	28.13
831.981	25.91
832.153	24.23
832.324	27.95
832.496	32.84
832.667	31.77
832.839	30.23
833.011	31.68
833.182	32.23
833.354	32.39
833.525	33.42
833.697	31.34
833.868	34.43
834.039	36.27
834.211	35.61
834.382	34.74
834.554	35.88
834.725	37.76
834.896	38.49
835.068	36.61
835.239	37.6
835.41	37.7
835.581	38.8
835.753	37.8
835.924	37.82
836.095	37.03
836.266	35.19
836.438	35.69
836.609	33.43
836.78	35.12
836.951	35.27
837.122	36.89
837.293	35.4
837.464	37.46
837.635	38.3
837.806	38.62
837.977	41.24
838.148	41.54
838.319	43.17
838.49	45.04
838.661	40.19
838.832	46.13
839.003	40.35
839.174	40.78
839.345	41.76
839.516	39.24
839.687	37.28
839.857	36.46
840.028	35.32
840.199	38.7
840.37	40.45
840.54	46.06
840.711	44.83
840.882	46.7
841.053	43.76
841.223	37.6
841.394	35.26
841.564	36.9
841.735	33.61
841.906	36.47
842.076	34.33
842.247	31.96
842.417	26.71
842.588	21.65
842.758	25.39
842.929	22.33
843.099	28.05
843.27	35.66
843.44	38.96
843.611	46.52
843.781	46.09
843.951	39.82
844.122	41.05
844.292	61.74
844.462	66.47
844.633	69.57
844.803	75.92
844.973	64.39
845.144	58.91
845.314	52.32
845.484	42.45
845.654	32.16
845.824	34.39
845.995	44.64
846.165	27.56
846.335	30.46
846.505	30.64
846.675	33.58
846.845	30.22
847.015	27.29
847.185	32.65
847.355	43.79
847.525	55.07
847.695	50.85
847.865	42.25
848.035	52.59
848.205	52.48
848.375	48.05
848.545	40.66
848.715	47.93
848.884	63.49
849.054	45.52
849.224	37.62
849.394	40.8
849.564	43.31
849.733	42.72
849.903	37.27
850.073	29.26
850.243	34.44
850.412	42
850.582	36.34
850.752	34.24
850.921	44.48
851.091	47.2
851.26	45
851.43	59.3
851.599	45.65
851.769	49.23
851.939	57.59
852.108	55.09
852.278	58.01
852.447	59.03
852.616	40.61
852.786	44.19
852.955	48.03
853.125	48.4
853.294	33.5
853.463	39.21
853.633	30.22
853.802	27.67
853.971	25.33
854.141	27.14
854.31	33.54
854.479	45.01
854.648	47.12
854.818	47.35
854.987	45.91
855.156	51.54
855.325	58.65
855.494	75.48
855.663	81.35
855.832	89.18
856.001	65.7
856.171	65.58
856.34	58.99
856.509	51.33
856.678	43.9
856.847	38.45
857.016	38.59
857.185	32.72
857.353	28.39
857.522	31.14
857.691	35.9
857.86	43.13
858.029	52.91
858.198	49.64
858.367	45.28
858.535	57.78
858.704	70.38
858.873	62.03
859.042	57
859.21	56.18
859.379	58.86
859.548	45.8
859.717	49.62
859.885	32.84
860.054	38.4
860.222	37.83
860.391	34.52
860.56	25.78
860.728	42.99
860.897	48.9
861.065	37.23
861.234	31.85
861.402	51.56
861.571	45.74
861.739	49.09
861.908	45.39
862.076	55.21
862.244	63.47
862.413	58.7
862.581	36.69
862.749	41.39
862.918	49.63
863.086	44.61
863.254	25.58
863.423	22.7
863.591	26.82
863.759	28.34
863.927	28.61
864.096	5.4
864.264	10.7
864.432	14.5
864.6	7.33
864.768	-12.83
864.936	-29.35
865.104	-27.56
865.272	-32.28
865.44	-53.32
865.608	-44.52
865.776	-47.4
865.944	-34.51
866.112	-38.08
866.28	-35.28
866.448	-31.72
866.616	-20.3
866.784	-7.75
866.952	21.77
867.12	24.04
867.288	37.09
867.455	31.36
867.623	48.16
867.791	52.39
867.959	57.85
868.127	59.8
868.294	47.76
868.462	51.47
868.63	50.01
868.797	40.27
868.965	60.24
869.133	35.83
869.3	51.22
869.468	51.84
869.636	42.96
869.803	31.1
869.971	51.57
870.138	53.91
870.306	36.95
870.473	37.05
870.641	38.84
870.808	37.35
870.975	45.78
871.143	47.74
871.31	48.61
871.478	60.6
871.645	86.72
871.812	55.74
871.98	53.74
872.147	84.67
872.314	89.23
872.482	73.79
872.649	96.35
872.816	126.56
872.983	84.42
873.15	74.17
873.318	78.66
873.485	75.68
873.652	80.26
873.819	79.9
873.986	70.47
874.153	73.54
874.32	76.08
874.487	68.05
874.654	73.56
874.821	80.16
874.988	80.33
875.155	68
875.322	62.08
875.489	69.7
875.656	78.27
875.823	69.6
875.99	71.55
876.157	73.58
876.324	57.46
876.49	51.85
876.657	54.22
876.824	40.73
876.991	55.75
877.157	58.29
877.324	56.88
877.491	52.46
877.658	47.25
877.824	45.48
877.991	40.85
878.157	43.75
878.324	41.96
878.491	28.55
878.657	38.2
878.824	43.12
878.99	37.32
879.157	38.52
879.323	38.93
879.49	42.89
879.656	39.51
879.823	39.94
879.989	36.18
880.156	40.61
880.322	48.31
880.488	58.62
880.655	44.99
880.821	43.95
880.987	44.1
881.154	40.85
881.32	49.93
881.486	48.21
881.652	47.94
881.819	48.03
881.985	44.17
882.151	41.94
882.317	41.77
882.483	44.69
882.649	43.96
882.816	40.45
882.982	40.8
883.148	38.84
883.314	37.91
883.48	38.51
883.646	37.77
883.812	37.65
883.978	39.2
884.144	36.01
884.31	34.61
884.476	34.09
884.642	34.2
884.807	34.17
884.973	30.75
885.139	31.48
885.305	29.84
885.471	32.16
885.637	32.07
885.802	30.75
885.968	31.92
886.134	31.93
886.3	32.2
886.465	32.69
886.631	31.74
886.797	33.32
886.962	32.1
887.128	34.16
887.293	29.45
887.459	32.55
887.625	23.77
887.79	29.53
887.956	26.72
888.121	26.65
888.287	25.64
888.452	23.15
888.618	31.76
888.783	36.57
