Data from 2938097_Reflection_2.txt Node
Date: Sat Jul 11 18:58:16 EDT 2015
User: robert
Spectrometer: USB4E03001
Autoset integration time: false
Trigger mode: 4
Integration Time (sec): 1.000000E-1
Scans to average: 10
Electric dark correction enabled: true
Nonlinearity correction enabled: false
Boxcar width: 5
Stray light correction enabled: false
XAxis mode: Wavelengths
Stop averaging: false
Number of Pixels in Spectrum: 3648
>>>>>Begin Spectral Data<<<<<
177.566	216.23
177.785	347.82
178.005	939.68
178.225	283.23
178.445	99.49
178.665	57.26
178.885	-69.67
179.105	66.06
179.324	77.73
179.544	147.26
179.764	78.23
179.984	173.35
180.204	166.94
180.423	200.55
180.643	205.6
180.863	162.85
181.083	151.33
181.302	160.86
181.522	325.47
181.742	206.3
181.961	255.65
182.181	740.56
182.401	-26103.7
182.621	-246.36
182.84	-169.53
183.06	-1390.28
183.279	-110.41
183.499	-107.74
183.719	12.08
183.938	40.06
184.158	63.58
184.377	67.58
184.597	88.11
184.816	102.04
185.036	55.23
185.256	64.56
185.475	89.66
185.695	70.15
185.914	77.13
186.134	89.23
186.353	41.17
186.572	-5492.86
186.792	205.05
187.011	30.27
187.231	26.7
187.45	58.8
187.67	52.94
187.889	20.01
188.108	63.62
188.328	54.2
188.547	-10.61
188.766	22.53
188.986	-9.54
189.205	-30.8
189.424	31.12
189.644	20.68
189.863	6.58
190.082	-18.98
190.302	-55.34
190.521	-47.28
190.74	-163.26
190.959	-50.98
191.178	-1215.81
191.398	607.39
191.617	440.85
191.836	159.21
192.055	83.06
192.274	90.8
192.494	95.78
192.713	79.69
192.932	14.25
193.151	-18.5
193.37	-90.6
193.589	-113.04
193.808	-193.5
194.027	-102.57
194.246	-60.51
194.465	-84.32
194.685	328.64
194.904	-167.09
195.123	102.65
195.342	840
195.561	-1862.3
195.78	252.72
195.999	-1130.71
196.218	671.35
196.436	173.73
196.655	306.18
196.874	295.54
197.093	249.31
197.312	257.77
197.531	787.54
197.75	918.6
197.969	-247.64
198.188	22.44
198.407	-182.95
198.625	-51.23
198.844	11.28
199.063	45.62
199.282	27.93
199.501	-12.77
199.719	9.75
199.938	50.36
200.157	75.54
200.376	62.98
200.594	94.82
200.813	149.54
201.032	297.82
201.251	848.97
201.469	-411
201.688	-367.32
201.907	-225.09
202.125	-258.58
202.344	-278.39
202.563	-327.4
202.781	-344.44
203	-148.62
203.218	-154.06
203.437	-407.45
203.656	-488.25
203.874	1165.33
204.093	226.42
204.311	292.55
204.53	437.38
204.748	302.06
204.967	581.5
205.185	26.18
205.404	82.57
205.622	43.11
205.841	104.91
206.059	125.87
206.278	111.18
206.496	-228.47
206.715	155.36
206.933	-16.15
207.151	39.27
207.37	85.47
207.588	154.12
207.806	261.05
208.025	-51.38
208.243	-198.39
208.461	-32.86
208.68	-33.71
208.898	-829.3
209.116	110.97
209.335	88.35
209.553	24.52
209.771	15.37
209.989	66.32
210.208	-10.54
210.426	20.54
210.644	-45.54
210.862	-147.51
211.081	783.07
211.299	1483.52
211.517	119.72
211.735	74.53
211.953	25.8
212.171	80.18
212.39	54.77
212.608	40.22
212.826	71.87
213.044	64.57
213.262	48.16
213.48	29.66
213.698	4.39
213.916	-14.98
214.134	-85.93
214.352	-1.86
214.57	-17.77
214.788	-1.86
215.006	23.7
215.224	-46.91
215.442	-181.44
215.66	-221.13
215.878	-224.83
216.096	-308.66
216.314	-100.03
216.532	-36.04
216.75	-78
216.968	-35.66
217.185	-115.61
217.403	-141.32
217.621	-194.85
217.839	-26.13
218.057	5.28
218.275	-0.7
218.492	6.03
218.71	-15.67
218.928	-7.22
219.146	10.46
219.363	-9.29
219.581	1.68
219.799	-4.47
220.017	81.64
220.234	43.31
220.452	50.14
220.67	49.34
220.887	-14.13
221.105	-8.63
221.323	6.83
221.54	-3.52
221.758	15.94
221.976	2.96
222.193	-19.28
222.411	-33.3
222.629	-43.97
222.846	-56.1
223.064	-20.08
223.281	1.08
223.499	-5.45
223.716	-34.59
223.934	-12.3
224.151	-33.45
224.369	-0.48
224.586	16.96
224.804	24.71
225.021	47.7
225.239	45.41
225.456	25.17
225.674	30.28
225.891	34.77
226.108	40.38
226.326	33.59
226.543	37.75
226.76	22
226.978	19.62
227.195	15.77
227.413	0.31
227.63	3.02
227.847	0.06
228.064	-1.18
228.282	-1.88
228.499	0.88
228.716	1.23
228.934	-1.74
229.151	-1.56
229.368	-5.19
229.585	-6.62
229.802	-4.12
230.02	-3.87
230.237	-2.43
230.454	-1.38
230.671	-0.49
230.888	-2.27
231.105	-2.91
231.323	1.85
231.54	6.5
231.757	9.82
231.974	10.38
232.191	16.98
232.408	15.64
232.625	13.85
232.842	12.63
233.059	11.36
233.276	9.48
233.493	10.26
233.71	13.38
233.927	6.77
234.144	0.34
234.361	-1.99
234.578	-1.65
234.795	-5.25
235.012	3.39
235.229	2.63
235.446	0.75
235.663	-1.75
235.879	-5.91
236.096	-15.23
236.313	-12.27
236.53	-3.03
236.747	2.97
236.964	-1.94
237.181	-3.34
237.397	-3.31
237.614	2.68
237.831	4.62
238.048	9.12
238.264	8.11
238.481	8.38
238.698	3.89
238.915	5.93
239.131	8.61
239.348	5.48
239.565	7.54
239.781	5.6
239.998	5.79
240.215	6.6
240.431	7.71
240.648	12.75
240.865	16.06
241.081	16.72
241.298	15.58
241.514	14.91
241.731	14.93
241.947	15.17
242.164	15.22
242.38	13.31
242.597	12.95
242.814	14.6
243.03	11.48
243.246	9.36
243.463	9.56
243.679	9.69
243.896	9.56
244.112	8.3
244.329	8.49
244.545	7.74
244.762	10.18
244.978	10.56
245.194	7
245.411	7.18
245.627	6.8
245.843	8.75
246.06	5.92
246.276	5.51
246.492	6.36
246.709	5.75
246.925	6.48
247.141	4.8
247.357	5.28
247.574	5.52
247.79	5.6
248.006	6.24
248.222	5.5
248.439	6.71
248.655	5.94
248.871	6.01
249.087	4.29
249.303	3.52
249.519	4.57
249.736	4.27
249.952	6.54
250.168	6.14
250.384	4.83
250.6	3
250.816	2.53
251.032	2.04
251.248	0.57
251.464	3.04
251.68	3.2
251.896	2.24
252.112	0.61
252.328	-2.45
252.544	-2.11
252.76	-0.92
252.976	-0.85
253.192	-2.6
253.408	-3.01
253.624	-1.62
253.84	-2.14
254.056	-1.78
254.272	-0.73
254.487	1.31
254.703	0.25
254.919	1.41
255.135	1.06
255.351	0.47
255.567	4.06
255.782	4.86
255.998	3.81
256.214	6.23
256.43	6.45
256.646	5.84
256.861	5.6
257.077	8.34
257.293	9.15
257.508	8.04
257.724	8.13
257.94	7.2
258.155	5.78
258.371	6.68
258.587	5.07
258.802	5.06
259.018	4.92
259.234	4.26
259.449	3.55
259.665	3.79
259.88	4.49
260.096	4.86
260.312	5.83
260.527	6.95
260.743	6.97
260.958	6.86
261.174	6.69
261.389	6.97
261.605	7.64
261.82	7.35
262.036	6.79
262.251	6.25
262.466	5.46
262.682	2.69
262.897	2.25
263.113	1.41
263.328	1.26
263.543	2.08
263.759	2.12
263.974	4.06
264.189	4.43
264.405	5.19
264.62	3.14
264.835	4.27
265.051	5.08
265.266	4.6
265.481	4.85
265.696	7.39
265.912	7.27
266.127	7.03
266.342	5.93
266.557	6.87
266.773	6.54
266.988	7.18
267.203	7.31
267.418	7.59
267.633	6.54
267.848	5.53
268.064	5.08
268.279	3.64
268.494	1.95
268.709	-1.1
268.924	-3.13
269.139	-3.16
269.354	-2.56
269.569	-1.26
269.784	-2.11
269.999	-0.93
270.214	-1.3
270.429	-0.63
270.644	2.58
270.859	3.48
271.074	6.7
271.289	7.43
271.504	8.18
271.719	7.07
271.934	6.26
272.149	6.66
272.363	6.77
272.578	7.74
272.793	7
273.008	6.06
273.223	5.85
273.438	4.45
273.653	5.49
273.867	4.04
274.082	4.39
274.297	5.04
274.512	5.05
274.726	4.4
274.941	3.6
275.156	2.41
275.371	1.34
275.585	2.53
275.8	2.61
276.015	2.39
276.229	4.02
276.444	5.15
276.659	4.12
276.873	4.84
277.088	5.97
277.302	5.05
277.517	5.81
277.732	4.58
277.946	2.29
278.161	2.47
278.375	-0.7
278.59	-0.27
278.804	0.13
279.019	0.44
279.233	-0.27
279.448	-1.41
279.662	-0.11
279.877	1.27
280.091	3.13
280.306	7.69
280.52	7.87
280.735	9.59
280.949	9.05
281.163	7.82
281.378	7.29
281.592	6.96
281.806	6.59
282.021	6.49
282.235	4.68
282.449	4.88
282.664	3.14
282.878	4.23
283.092	4.83
283.307	5.37
283.521	5.15
283.735	5.36
283.949	5.51
284.164	5.63
284.378	5.18
284.592	5.78
284.806	6.17
285.02	4.52
285.234	4.88
285.449	5.79
285.663	4.98
285.877	5.62
286.091	4.5
286.305	5.3
286.519	5.5
286.733	7
286.947	7.06
287.161	6.83
287.375	7.94
287.589	6.47
287.803	6.05
288.017	6.16
288.231	5.26
288.445	7.09
288.659	6.35
288.873	6.17
289.087	5.13
289.301	5.39
289.515	3.76
289.729	3.02
289.943	2.97
290.157	2.29
290.371	2.55
290.584	1.63
290.798	1.14
291.012	0.85
291.226	1.14
291.44	2.32
291.654	2.83
291.867	3.71
292.081	3.02
292.295	3.93
292.509	4.85
292.722	4.69
292.936	6.6
293.15	5.85
293.364	6.26
293.577	6.61
293.791	5.9
294.005	4.78
294.218	5.31
294.432	8.39
294.645	7.85
294.859	6.36
295.073	5.92
295.286	5.41
295.5	5.65
295.713	5.98
295.927	6.12
296.14	5.73
296.354	5.81
296.568	5.54
296.781	3.78
296.994	5.36
297.208	5.19
297.421	5.66
297.635	6.61
297.848	6.31
298.062	7.68
298.275	7.98
298.489	8.01
298.702	7.49
298.915	7.11
299.129	7.42
299.342	5.14
299.555	6.68
299.769	7.29
299.982	7.24
300.195	8.12
300.409	6.26
300.622	6.07
300.835	6.77
301.048	8.06
301.262	7.85
301.475	8.29
301.688	9.03
301.901	7.8
302.115	8.03
302.328	7.67
302.541	6.72
302.754	6.91
302.967	6.31
303.18	5
303.393	4.98
303.607	5.17
303.82	5.37
304.033	5.42
304.246	5.03
304.459	3.81
304.672	3.67
304.885	6.02
305.098	5.36
305.311	6.46
305.524	7.29
305.737	5.54
305.95	5.83
306.163	6.31
306.376	7.35
306.589	8.63
306.802	9.1
307.015	9.01
307.228	6.68
307.44	8.91
307.653	7.27
307.866	7.8
308.079	10.78
308.292	12.13
308.505	11.66
308.718	9.51
308.93	8.84
309.143	8.89
309.356	8.86
309.569	9.45
309.781	8.33
309.994	8.63
310.207	9.71
310.42	9.18
310.632	8.12
310.845	7.8
311.058	9.66
311.27	9.9
311.483	10.53
311.696	10.74
311.908	10.95
312.121	10.57
312.333	11.53
312.546	9.78
312.759	9.24
312.971	9.84
313.184	11.1
313.396	9.6
313.609	10.36
313.821	8.46
314.034	8.63
314.246	8.22
314.459	9.74
314.671	8.66
314.884	8.63
315.096	9.36
315.309	8.31
315.521	5.81
315.733	7.17
315.946	4.74
316.158	6.22
316.371	6.33
316.583	6.79
316.795	5.19
317.008	5.57
317.22	6.19
317.432	6.66
317.644	8.11
317.857	10.92
318.069	10.64
318.281	12.24
318.494	11.57
318.706	11.82
318.918	12.28
319.13	12.21
319.342	13.33
319.555	12.58
319.767	11.84
319.979	9.58
320.191	8.69
320.403	8.9
320.615	6.54
320.827	7.59
321.039	7.41
321.252	7.36
321.464	7.38
321.676	6.21
321.888	6.29
322.1	8.39
322.312	8.97
322.524	9.6
322.736	8.34
322.948	9.29
323.16	9.11
323.372	9.57
323.584	7.58
323.796	9.48
324.007	9.9
324.219	11.2
324.431	9.67
324.643	10.33
324.855	10.83
325.067	12.61
325.279	13.52
325.491	13.24
325.702	12.92
325.914	14.62
326.126	13.12
326.338	12.03
326.55	11.46
326.761	11.51
326.973	11.99
327.185	10.26
327.396	10.47
327.608	12.55
327.82	13.21
328.032	12.94
328.243	13.13
328.455	13.14
328.666	13.71
328.878	15.57
329.09	15.58
329.301	14.99
329.513	17.13
329.725	17.55
329.936	15.97
330.148	17.6
330.359	19.03
330.571	19.5
330.782	18.93
330.994	21.45
331.205	20.04
331.417	20.55
331.628	22.16
331.84	22
332.051	20.03
332.262	21.08
332.474	18.87
332.685	19.84
332.897	18.66
333.108	20.85
333.319	19.98
333.531	21.38
333.742	21.39
333.953	21.15
334.165	22.3
334.376	24.27
334.587	23.45
334.799	24.46
335.01	23.58
335.221	24.98
335.432	25.47
335.644	25.64
335.855	24.49
336.066	25.55
336.277	25.58
336.488	25.45
336.7	24.94
336.911	27.15
337.122	26.87
337.333	27.6
337.544	28.14
337.755	27.43
337.966	28.71
338.177	29.31
338.388	29.59
338.599	30.1
338.811	28.03
339.022	28.41
339.233	25.94
339.444	25.54
339.655	24.3
339.866	24
340.076	24.7
340.287	23.44
340.498	24.06
340.709	22.7
340.92	23.51
341.131	24.96
341.342	24.85
341.553	26.19
341.764	27.31
341.975	28.1
342.185	27.37
342.396	26.17
342.607	27.34
342.818	26.98
343.029	28.36
343.239	27.39
343.45	27.37
343.661	27.55
343.872	27.64
344.082	28.25
344.293	28.27
344.504	29.56
344.714	29.78
344.925	28.6
345.136	28.3
345.346	28.46
345.557	27.81
345.768	27.8
345.978	28.01
346.189	26.64
346.399	25.9
346.61	25.34
346.821	25.1
347.031	26.56
347.242	25.99
347.452	25.94
347.663	25.28
347.873	27.4
348.084	28.03
348.294	27.74
348.504	28.65
348.715	28.24
348.925	29.34
349.136	29.77
349.346	27.68
349.557	28.42
349.767	28.45
349.977	28.49
350.188	27.06
350.398	27.62
350.608	28.62
350.819	28.84
351.029	29.35
351.239	28.94
351.449	29.11
351.66	30.67
351.87	31.15
352.08	30.83
352.29	30.58
352.501	30.52
352.711	30.18
352.921	28.55
353.131	28.66
353.341	28.74
353.552	29.28
353.762	28.73
353.972	27.66
354.182	27.22
354.392	27.88
354.602	27.62
354.812	28.57
355.022	27.61
355.232	28.18
355.442	27.67
355.652	26.85
355.862	26.63
356.072	26.54
356.282	27.24
356.492	27.01
356.702	27.44
356.912	27.22
357.122	26.61
357.332	26.07
357.542	25.95
357.752	26.89
357.962	27.95
358.171	27.11
358.381	27.75
358.591	27.38
358.801	27.4
359.011	27.4
359.221	27.83
359.43	27.66
359.64	27.79
359.85	27.85
360.06	27.42
360.269	27.23
360.479	27.19
360.689	26.52
360.899	26.77
361.108	26.67
361.318	26.71
361.528	26.32
361.737	26.3
361.947	26.75
362.156	26.7
362.366	27.07
362.576	26.94
362.785	26.67
362.995	26.64
363.204	26.3
363.414	26.17
363.623	25.88
363.833	26.41
364.042	26.43
364.252	26.63
364.461	26.17
364.671	24.97
364.88	24.71
365.09	25.11
365.299	24.92
365.509	24.82
365.718	25.58
365.927	25.36
366.137	24.93
366.346	24.54
366.555	24.29
366.765	24.11
366.974	24.05
367.183	25
367.393	25.11
367.602	25.04
367.811	25.15
368.021	23.65
368.23	23.63
368.439	23.37
368.648	23.08
368.857	22.66
369.067	22.35
369.276	22.63
369.485	21.82
369.694	21.61
369.903	21.37
370.112	20.94
370.321	21.69
370.531	21.44
370.74	21.39
370.949	22.46
371.158	22.69
371.367	23.37
371.576	23.38
371.785	22.47
371.994	22.21
372.203	22.27
372.412	22.12
372.621	21.48
372.83	20.81
373.039	21.14
373.248	20.34
373.457	19.88
373.666	19.42
373.874	19.17
374.083	19.55
374.292	19.82
374.501	20.09
374.71	20.9
374.919	21.75
375.128	21.87
375.336	21.72
375.545	21.62
375.754	21.94
375.963	21.84
376.171	21.55
376.38	21.76
376.589	21.75
376.798	21.53
377.006	20.79
377.215	20.28
377.424	20.4
377.632	20.71
377.841	20.54
378.05	20.56
378.258	20.74
378.467	21.53
378.675	21.35
378.884	21.25
379.093	20.5
379.301	20.59
379.51	20.53
379.718	20.18
379.927	19.8
380.135	19.77
380.344	19.46
380.552	18.79
380.761	17.93
380.969	17.68
381.177	17.2
381.386	17.87
381.594	18.47
381.803	18.47
382.011	19.04
382.219	18.82
382.428	18.45
382.636	18.19
382.845	18.4
383.053	18.7
383.261	18.71
383.469	19.01
383.678	18.95
383.886	18.35
384.094	18.67
384.302	18.45
384.511	18.46
384.719	19.03
384.927	19.06
385.135	19.52
385.343	19.32
385.552	19.6
385.76	19.39
385.968	19.18
386.176	18.97
386.384	18.51
386.592	18.52
386.8	17.79
387.008	17.32
387.216	16.4
387.424	15.61
387.633	15.91
387.841	15.35
388.049	15.2
388.257	14.8
388.465	14.84
388.672	14.66
388.88	14.35
389.088	14.9
389.296	14.56
389.504	15.22
389.712	15.68
389.92	15.02
390.128	14.84
390.336	14.8
390.544	15.06
390.751	14.45
390.959	14.53
391.167	14.72
391.375	14.59
391.583	14.74
391.79	14.92
391.998	14.52
392.206	14.72
392.414	15.14
392.621	15.33
392.829	15.3
393.037	15.43
393.244	15.5
393.452	15.27
393.66	15.03
393.867	14.86
394.075	14.46
394.283	14.79
394.49	14.81
394.698	14.37
394.905	13.87
395.113	13.63
395.32	13.76
395.528	13.34
395.735	12.87
395.943	13.02
396.15	13.35
396.358	13.69
396.565	13.6
396.773	13.28
396.98	13.67
397.188	13.96
397.395	14.1
397.602	14.2
397.81	14.56
398.017	15.01
398.225	14.88
398.432	14.66
398.639	14.18
398.847	13.97
399.054	14.06
399.261	13.95
399.468	13.74
399.676	13.92
399.883	13.95
400.09	13.74
400.297	13.7
400.505	13.54
400.712	13.63
400.919	14.14
401.126	14.04
401.333	13.81
401.54	13.48
401.748	13.51
401.955	12.86
402.162	12.88
402.369	12.97
402.576	12.99
402.783	12.94
402.99	12.87
403.197	12.33
403.404	12.09
403.611	12.31
403.818	12.2
404.025	12.43
404.232	12.8
404.439	12.45
404.646	12.62
404.853	12.75
405.06	12.82
405.267	12.98
405.474	13.09
405.681	13.35
405.887	13.11
406.094	13.26
406.301	13.29
406.508	13.32
406.715	13.79
406.922	13.84
407.128	13.7
407.335	14.02
407.542	14.06
407.749	14.27
407.955	14.37
408.162	14.6
408.369	14.66
408.575	14.2
408.782	13.93
408.989	13.85
409.195	13.31
409.402	13.38
409.609	13.28
409.815	13.2
410.022	12.96
410.228	12.9
410.435	12.91
410.642	13.03
410.848	13.34
411.055	13.49
411.261	13.37
411.468	13.66
411.674	13.53
411.881	13.5
412.087	13.3
412.294	13.1
412.5	12.87
412.706	12.98
412.913	12.78
413.119	12.46
413.326	12.44
413.532	12.55
413.738	12.59
413.945	12.44
414.151	12.47
414.357	12.33
414.564	12.61
414.77	12.59
414.976	12.52
415.182	12.49
415.389	13
415.595	13.01
415.801	12.94
416.007	13.19
416.214	13.24
416.42	13.22
416.626	13.15
416.832	13.24
417.038	13.61
417.244	13.79
417.45	13.98
417.657	13.69
417.863	13.92
418.069	13.83
418.275	13.55
418.481	13.55
418.687	13.49
418.893	13.85
419.099	13.87
419.305	13.63
419.511	13.37
419.717	13.36
419.923	13.38
420.129	13.15
420.335	13.16
420.541	13.17
420.746	13.23
420.952	13.33
421.158	13.18
421.364	13.18
421.57	13.28
421.776	13.38
421.982	13.32
422.187	13.49
422.393	13.54
422.599	13.58
422.805	13.64
423.01	13.74
423.216	13.6
423.422	13.54
423.628	13.5
423.833	13.43
424.039	13.34
424.245	13.44
424.45	13.31
424.656	13.26
424.862	13.22
425.067	13.19
425.273	13.12
425.478	13.28
425.684	13.37
425.889	13.38
426.095	13.51
426.301	13.63
426.506	13.49
426.712	13.48
426.917	13.48
427.123	13.57
427.328	13.51
427.533	13.52
427.739	13.27
427.944	13.11
428.15	13.08
428.355	12.75
428.561	12.76
428.766	12.68
428.971	12.64
429.177	12.91
429.382	12.82
429.587	12.97
429.793	12.83
429.998	13.06
430.203	13.15
430.408	13.11
430.614	13.23
430.819	13.22
431.024	13.24
431.229	13.26
431.434	13.18
431.64	13.07
431.845	13.14
432.05	12.95
432.255	12.98
432.46	12.93
432.665	13
432.87	13.24
433.076	13.13
433.281	13.13
433.486	13.26
433.691	13.25
433.896	13.27
434.101	13.12
434.306	13.21
434.511	13.02
434.716	13.02
434.921	13
435.126	12.73
435.331	12.77
435.535	12.89
435.74	12.63
435.945	12.47
436.15	12.39
436.355	12.51
436.56	12.6
436.765	12.49
436.97	12.56
437.174	12.38
437.379	12.57
437.584	12.64
437.789	12.59
437.993	12.63
438.198	12.81
438.403	13.11
438.608	13.09
438.812	13.13
439.017	13.38
439.222	13.31
439.426	13.59
439.631	13.42
439.836	13.4
440.04	13.42
440.245	13.44
440.45	13.36
440.654	13.3
440.859	13.1
441.063	13.11
441.268	13.02
441.472	13.04
441.677	12.92
441.881	13.15
442.086	13.19
442.29	13.04
442.495	13.12
442.699	13.12
442.904	13.18
443.108	13.24
443.312	13.17
443.517	13.15
443.721	13.16
443.925	13.08
444.13	13.09
444.334	12.89
444.538	13.11
444.743	13.08
444.947	13.07
445.151	13.02
445.356	13.11
445.56	13.14
445.764	13.19
445.968	13.09
446.173	12.98
446.377	12.95
446.581	13
446.785	12.91
446.989	12.93
447.193	12.99
447.398	12.8
447.602	12.76
447.806	12.79
448.01	12.84
448.214	13.03
448.418	13.17
448.622	12.95
448.826	12.83
449.03	12.86
449.234	12.99
449.438	12.82
449.642	12.96
449.846	12.94
450.05	13
450.254	12.81
450.458	12.73
450.662	12.81
450.866	12.95
451.069	13.23
451.273	13.15
451.477	12.97
451.681	13.09
451.885	13.22
452.089	13.37
452.292	13.34
452.496	13.32
452.7	13.21
452.904	13.12
453.107	13.17
453.311	13.06
453.515	13.12
453.719	13.06
453.922	12.87
454.126	12.59
454.33	12.51
454.533	12.32
454.737	12.6
454.94	12.82
455.144	12.76
455.348	12.76
455.551	12.83
455.755	12.85
455.958	13.03
456.162	13.19
456.365	13.48
456.569	13.46
456.772	13.41
456.976	13.17
457.179	13.05
457.383	13
457.586	13.05
457.79	12.95
457.993	12.8
458.196	12.73
458.4	12.66
458.603	12.5
458.807	12.44
459.01	12.66
459.213	12.63
459.417	12.68
459.62	12.66
459.823	12.56
460.026	12.62
460.23	12.7
460.433	12.72
460.636	12.89
460.839	13.08
461.042	13.08
461.246	12.92
461.449	13.09
461.652	13.16
461.855	13.22
462.058	13.1
462.261	13.02
462.464	13
462.668	12.8
462.871	12.64
463.074	12.38
463.277	12.49
463.48	12.62
463.683	12.53
463.886	12.37
464.089	12.42
464.292	12.51
464.495	12.61
464.698	12.73
464.901	13.01
465.104	13.16
465.306	13.14
465.509	13.1
465.712	12.91
465.915	12.94
466.118	12.91
466.321	12.89
466.524	13.15
466.726	13.19
466.929	13.07
467.132	12.83
467.335	12.65
467.538	12.55
467.74	12.52
467.943	12.75
468.146	12.74
468.348	12.9
468.551	12.82
468.754	12.76
468.956	12.71
469.159	12.67
469.362	12.75
469.564	12.58
469.767	12.82
469.969	12.78
470.172	12.52
470.375	12.4
470.577	12.33
470.78	12.64
470.982	12.48
471.185	12.6
471.387	12.6
471.59	12.58
471.792	12.86
471.995	12.83
472.197	12.87
472.399	13.06
472.602	13.08
472.804	13.1
473.007	12.98
473.209	12.95
473.411	12.8
473.614	12.66
473.816	12.8
474.018	12.7
474.22	12.52
474.423	12.59
474.625	12.49
474.827	12.39
475.03	12.31
475.232	12.36
475.434	12.42
475.636	12.37
475.838	12.52
476.04	12.48
476.243	12.43
476.445	12.74
476.647	12.72
476.849	12.82
477.051	12.79
477.253	12.68
477.455	12.66
477.657	12.64
477.859	12.72
478.061	12.82
478.263	12.74
478.465	12.74
478.667	12.66
478.869	12.67
479.071	12.63
479.273	12.74
479.475	12.88
479.677	12.83
479.879	12.98
480.081	12.94
480.283	12.81
480.485	12.92
480.686	13.07
480.888	13.04
481.09	12.95
481.292	12.95
481.494	12.88
481.695	12.86
481.897	12.86
482.099	12.72
482.301	12.78
482.502	12.75
482.704	12.69
482.906	12.67
483.107	12.62
483.309	12.64
483.511	12.62
483.712	12.69
483.914	12.67
484.115	12.68
484.317	12.68
484.519	12.67
484.72	12.73
484.922	12.76
485.123	12.69
485.325	12.72
485.526	12.75
485.728	12.76
485.929	12.75
486.131	12.78
486.332	12.73
486.534	12.78
486.735	12.78
486.936	12.76
487.138	12.7
487.339	12.78
487.541	12.8
487.742	12.73
487.943	12.78
488.144	12.71
488.346	12.69
488.547	12.74
488.748	12.71
488.95	12.75
489.151	12.8
489.352	12.86
489.553	12.75
489.755	12.73
489.956	12.76
490.157	12.72
490.358	12.79
490.559	12.74
490.76	12.82
490.961	12.96
491.163	12.9
491.364	12.88
491.565	12.87
491.766	13
491.967	12.95
492.168	12.95
492.369	13.05
492.57	13.1
492.771	13.17
492.972	13.14
493.173	13
493.374	13.08
493.575	13.01
493.776	12.95
493.976	12.9
494.177	12.9
494.378	13.02
494.579	12.81
494.78	12.8
494.981	12.86
495.182	12.89
495.382	13.12
495.583	12.97
495.784	13.1
495.985	13.21
496.185	13.22
496.386	13.21
496.587	13.14
496.788	13.15
496.988	13.13
497.189	13
497.39	12.87
497.59	12.83
497.791	12.99
497.992	13.04
498.192	13.02
498.393	12.98
498.593	13.03
498.794	13.05
498.994	12.99
499.195	12.98
499.395	13.07
499.596	13.29
499.796	13.21
499.997	13.05
500.197	12.87
500.398	12.86
500.598	12.85
500.799	12.89
500.999	12.96
501.199	13.15
501.4	13.13
501.6	13.09
501.801	12.92
502.001	13.02
502.201	13.02
502.402	13.09
502.602	13.09
502.802	13.13
503.002	13.12
503.203	13.2
503.403	13.04
503.603	13.07
503.803	13.07
504.003	13.24
504.204	13.17
504.404	13.14
504.604	13.22
504.804	13.2
505.004	13.3
505.204	13.23
505.404	13.16
505.604	13.12
505.804	13.08
506.005	13.15
506.205	13.18
506.405	13.09
506.605	13.21
506.805	13.24
507.005	13.15
507.204	13.17
507.404	13.38
507.604	13.35
507.804	13.51
508.004	13.38
508.204	13.31
508.404	13.29
508.604	13.31
508.804	13.33
509.003	13.42
509.203	13.56
509.403	13.66
509.603	13.62
509.803	13.67
510.002	13.62
510.202	13.78
510.402	13.74
510.602	13.65
510.801	13.67
511.001	13.73
511.201	13.63
511.4	13.56
511.6	13.57
511.8	13.56
511.999	13.61
512.199	13.65
512.398	13.65
512.598	13.72
512.797	13.86
512.997	13.88
513.197	13.76
513.396	13.79
513.596	13.76
513.795	13.72
513.994	13.77
514.194	13.67
514.393	13.58
514.593	13.64
514.792	13.74
514.992	13.51
515.191	13.59
515.39	13.67
515.59	13.55
515.789	13.56
515.988	13.43
516.188	13.36
516.387	13.37
516.586	13.4
516.786	13.37
516.985	13.41
517.184	13.49
517.383	13.33
517.582	13.5
517.782	13.66
517.981	13.8
518.18	13.89
518.379	13.95
518.578	13.91
518.777	13.97
518.976	13.94
519.176	13.84
519.375	13.84
519.574	13.99
519.773	13.82
519.972	13.79
520.171	13.7
520.37	13.76
520.569	13.82
520.768	13.94
520.967	14.02
521.166	13.93
521.365	14
521.564	14.04
521.762	13.98
521.961	14.09
522.16	14.23
522.359	14.27
522.558	14.2
522.757	14.07
522.956	14.04
523.154	13.87
523.353	14.07
523.552	14.07
523.751	14.11
523.949	14.17
524.148	14.15
524.347	14.06
524.546	14.15
524.744	14.26
524.943	14.25
525.142	14.24
525.34	14.36
525.539	14.35
525.737	14.36
525.936	14.37
526.135	14.46
526.333	14.44
526.532	14.37
526.73	14.33
526.929	14.37
527.127	14.39
527.326	14.46
527.524	14.43
527.723	14.47
527.921	14.53
528.12	14.61
528.318	14.54
528.516	14.53
528.715	14.53
528.913	14.58
529.112	14.6
529.31	14.72
529.508	14.71
529.707	14.78
529.905	14.76
530.103	14.73
530.301	14.69
530.5	14.74
530.698	14.84
530.896	14.98
531.094	14.95
531.293	14.91
531.491	14.9
531.689	14.96
531.887	14.91
532.085	14.93
532.283	14.94
532.481	14.95
532.68	14.95
532.878	15
533.076	14.92
533.274	14.99
533.472	14.97
533.67	14.99
533.868	15
534.066	15.04
534.264	15.05
534.462	15.14
534.66	15.05
534.858	15.07
535.056	15
535.253	15.08
535.451	15.03
535.649	15.14
535.847	15.12
536.045	15.14
536.243	15.18
536.441	15.26
536.638	15.27
536.836	15.44
537.034	15.46
537.232	15.54
537.43	15.59
537.627	15.55
537.825	15.65
538.023	15.62
538.22	15.72
538.418	15.75
538.616	15.82
538.813	15.9
539.011	15.79
539.209	15.86
539.406	15.82
539.604	15.94
539.801	16.16
539.999	16.02
540.196	16.05
540.394	15.99
540.591	16
540.789	15.98
540.986	15.88
541.184	16.03
541.381	16.05
541.579	16.12
541.776	16.06
541.974	15.99
542.171	15.99
542.368	16.03
542.566	16.09
542.763	16.13
542.96	16.19
543.158	16.32
543.355	16.29
543.552	16.25
543.75	16.2
543.947	16.15
544.144	16.18
544.341	16.24
544.539	16.29
544.736	16.2
544.933	16.17
545.13	16.19
545.327	16.05
545.524	16.02
545.722	16.22
545.919	16.16
546.116	16.36
546.313	16.33
546.51	16.47
546.707	16.34
546.904	16.49
547.101	16.49
547.298	16.48
547.495	16.61
547.692	16.57
547.889	16.46
548.086	16.62
548.283	16.51
548.48	16.58
548.677	16.53
548.874	16.65
549.07	16.68
549.267	16.9
549.464	16.82
549.661	16.86
549.858	17.07
550.055	17.15
550.251	17.31
550.448	17.19
550.645	17.16
550.842	17.11
551.038	16.93
551.235	16.78
551.432	16.66
551.628	16.81
551.825	16.89
552.022	16.8
552.218	16.73
552.415	16.53
552.612	16.6
552.808	16.82
553.005	16.83
553.201	17.1
553.398	17.36
553.594	17.09
553.791	17.14
553.987	16.98
554.184	17.09
554.38	17.06
554.577	17.26
554.773	17.49
554.97	17.46
555.166	17.49
555.362	17.39
555.559	17.18
555.755	17.42
555.952	17.45
556.148	17.62
556.344	17.55
556.541	17.7
556.737	17.61
556.933	17.62
557.129	17.5
557.326	17.63
557.522	17.84
557.718	18.02
557.914	18.15
558.11	18.21
558.307	18.35
558.503	18.37
558.699	18.31
558.895	18.55
559.091	18.56
559.287	18.7
559.483	18.68
559.679	18.56
559.876	18.62
560.072	18.73
560.268	18.77
560.464	18.61
560.66	18.93
560.856	19.09
561.052	18.94
561.247	19
561.443	19.13
561.639	19.2
561.835	19.34
562.031	19.24
562.227	19.17
562.423	19.14
562.619	19.47
562.815	19.54
563.01	19.46
563.206	19.39
563.402	19.53
563.598	19.39
563.793	19.37
563.989	19.35
564.185	19.49
564.381	19.69
564.576	19.94
564.772	19.85
564.968	19.62
565.163	19.72
565.359	19.87
565.555	19.83
565.75	20.01
565.946	20.06
566.141	20.04
566.337	19.98
566.532	19.96
566.728	19.9
566.923	19.97
567.119	19.94
567.314	20.09
567.51	20.24
567.705	20.05
567.901	20.05
568.096	20.17
568.292	20.41
568.487	20.45
568.682	20.32
568.878	20.27
569.073	20.31
569.268	20.57
569.464	20.5
569.659	20.42
569.854	20.6
570.05	20.7
570.245	20.7
570.44	20.55
570.635	20.53
570.831	20.61
571.026	20.39
571.221	20.14
571.416	20.07
571.611	20.21
571.806	20.01
572.002	20.04
572.197	19.99
572.392	20
572.587	20.05
572.782	20.15
572.977	20.37
573.172	20.66
573.367	20.82
573.562	20.85
573.757	20.86
573.952	21.05
574.147	21.05
574.342	21.12
574.537	21.01
574.732	20.93
574.927	20.99
575.121	20.9
575.316	20.96
575.511	20.92
575.706	21
575.901	20.85
576.096	21.01
576.29	21.11
576.485	21.13
576.68	21.21
576.875	21.24
577.069	21.27
577.264	21.32
577.459	21.27
577.654	21.29
577.848	21.14
578.043	21.18
578.238	21.06
578.432	21.09
578.627	20.94
578.821	20.95
579.016	20.96
579.21	20.68
579.405	20.73
579.6	20.58
579.794	20.6
579.989	20.81
580.183	21.01
580.378	20.85
580.572	20.64
580.766	20.64
580.961	20.58
581.155	20.4
581.35	20.62
581.544	20.42
581.738	20.71
581.933	20.57
582.127	20.5
582.321	20
582.516	20.1
582.71	20.33
582.904	20.33
583.099	20.27
583.293	20.61
583.487	20.53
583.681	20.58
583.875	20.13
584.07	20.39
584.264	20.55
584.458	21.09
584.652	21.24
584.846	21.08
585.04	21.45
585.234	21.49
585.428	21.15
585.623	21.31
585.817	21.48
586.011	21.7
586.205	21.58
586.399	21.44
586.593	21.57
586.787	21.77
586.981	21.97
587.174	21.75
587.368	21.91
587.562	22.13
587.756	21.86
587.95	21.68
588.144	21.91
588.338	21.94
588.532	22.05
588.725	21.83
588.919	21.77
589.113	21.45
589.307	21.5
589.501	21.48
589.694	21.7
589.888	21.92
590.082	22.13
590.275	22.03
590.469	22.02
590.663	22.06
590.856	22.05
591.05	22.17
591.244	22.72
591.437	22.61
591.631	22.47
591.824	22.3
592.018	22.25
592.212	21.88
592.405	21.73
592.599	21.77
592.792	21.55
592.986	21.56
593.179	21.38
593.372	21.04
593.566	21.29
593.759	21.5
593.953	21.41
594.146	21.42
594.339	21.57
594.533	21.77
594.726	21.77
594.92	21.78
595.113	21.88
595.306	22.05
595.499	22.13
595.693	21.88
595.886	21.8
596.079	22.1
596.272	22.41
596.466	22.56
596.659	22.43
596.852	22.47
597.045	22.52
597.238	22.45
597.431	22.17
597.624	22.06
597.818	22.19
598.011	22.16
598.204	22.24
598.397	21.77
598.59	21.54
598.783	21.45
598.976	21.44
599.169	21.61
599.362	21.55
599.555	21.71
599.748	21.99
599.941	22
600.134	21.89
600.326	21.43
600.519	21.99
600.712	22.12
600.905	22.52
601.098	22.53
601.291	22.52
601.483	22.47
601.676	22.41
601.869	22.56
602.062	22.64
602.255	22.82
602.447	22.96
602.64	22.57
602.833	22.51
603.025	22.45
603.218	22.55
603.411	22.6
603.603	22.69
603.796	22.75
603.989	22.54
604.181	22.46
604.374	22.39
604.566	22.38
604.759	22.52
604.951	22.62
605.144	22.49
605.336	22.33
605.529	22.06
605.721	22.11
605.914	22.04
606.106	22.18
606.299	22.08
606.491	22.16
606.683	22.18
606.876	22.19
607.068	22.17
607.26	22.12
607.453	22.03
607.645	22.15
607.837	22.13
608.03	22.17
608.222	22.01
608.414	22.21
608.606	22.39
608.799	22.4
608.991	22.47
609.183	22.28
609.375	22.56
609.567	22.55
609.759	22.6
609.952	22.74
610.144	22.67
610.336	22.44
610.528	22.39
610.72	22.13
610.912	21.97
611.104	21.98
611.296	21.99
611.488	21.7
611.68	21.99
611.872	21.98
612.064	21.78
612.256	21.7
612.448	22.01
612.64	21.98
612.832	22.08
613.023	22.57
613.215	22.57
613.407	22.77
613.599	22.94
613.791	22.67
613.983	22.75
614.174	22.63
614.366	22.7
614.558	22.38
614.75	22.11
614.941	22.25
615.133	21.97
615.325	21.78
615.516	21.75
615.708	21.79
615.9	22.07
616.091	21.9
616.283	22.18
616.475	22.27
616.666	22.67
616.858	23.01
617.049	22.64
617.241	22.74
617.432	22.75
617.624	22.88
617.815	23.21
618.007	23.24
618.198	23.55
618.39	23.4
618.581	23.68
618.773	23.43
618.964	23.26
619.155	23.6
619.347	23.48
619.538	23.64
619.729	23.57
619.921	22.99
620.112	22.91
620.303	22.65
620.494	22.79
620.686	22.82
620.877	22.96
621.068	23.16
621.259	23
621.451	22.81
621.642	22.46
621.833	22.43
622.024	22.98
622.215	22.69
622.406	22.76
622.597	22.63
622.788	22.3
622.98	22.17
623.171	22.29
623.362	22.35
623.553	22.46
623.744	22.58
623.935	22.73
624.126	22.05
624.317	22.38
624.508	22.66
624.698	22.78
624.889	22.66
625.08	22.98
625.271	22.96
625.462	23.08
625.653	23.12
625.844	23.31
626.034	22.95
626.225	23.25
626.416	23.35
626.607	23.48
626.798	23.43
626.988	23.61
627.179	23.67
627.37	23.66
627.56	23.56
627.751	23.61
627.942	23.39
628.132	23.47
628.323	23.47
628.514	23.68
628.704	23.2
628.895	23.35
629.085	23.25
629.276	23.23
629.466	23.25
629.657	23.51
629.847	23.48
630.038	23.79
630.228	23.89
630.419	23.94
630.609	23.53
630.8	23.48
630.99	23.36
631.181	23.33
631.371	22.95
631.561	22.65
631.752	22.3
631.942	22.3
632.132	21.98
632.323	22.11
632.513	22.05
632.703	22.33
632.893	22.62
633.084	22.6
633.274	22.67
633.464	22.89
633.654	23.06
633.844	23.37
634.034	23.49
634.225	23.77
634.415	24.14
634.605	24.25
634.795	24.15
634.985	23.96
635.175	23.94
635.365	23.87
635.555	23.86
635.745	24.09
635.935	23.62
636.125	23.64
636.315	23.64
636.505	22.88
636.695	22.99
636.885	22.94
637.075	23.29
637.265	23.51
637.455	23.95
637.644	24.05
637.834	23.77
638.024	23.96
638.214	23.71
638.404	23.71
638.593	24.3
638.783	23.75
638.973	23.8
639.163	23.28
639.352	23.19
639.542	23.12
639.732	23.2
639.921	23.51
640.111	23.79
640.301	24.02
640.49	24.16
640.68	23.78
640.87	24.43
641.059	24.41
641.249	24.78
641.438	24.69
641.628	24.42
641.817	24.43
642.007	24.19
642.196	24.39
642.386	24.16
642.575	23.95
642.764	24.44
642.954	24.1
643.143	24.21
643.333	24.25
643.522	23.92
643.711	24.07
643.901	24.09
644.09	24.21
644.279	23.71
644.469	23.89
644.658	23.91
644.847	23.75
645.036	24.1
645.226	24
645.415	24.12
645.604	24.39
645.793	24.06
645.982	23.83
646.171	23.88
646.361	24.42
646.55	24.65
646.739	24.55
646.928	24.6
647.117	24.33
647.306	24.23
647.495	24.05
647.684	23.69
647.873	23.61
648.062	23.56
648.251	23.26
648.44	23.12
648.629	22.82
648.818	23.08
649.007	23.07
649.196	23.41
649.384	23.83
649.573	23.83
649.762	23.82
649.951	23.81
650.14	24.16
650.328	24.28
650.517	24.17
650.706	24.4
650.895	24.24
651.083	24.04
651.272	23.71
651.461	23.49
651.65	23.63
651.838	24.01
652.027	24.35
652.216	24.29
652.404	24.42
652.593	24.32
652.781	24.09
652.97	24.39
653.158	24.23
653.347	24.05
653.535	23.95
653.724	24.19
653.912	24.31
654.101	24.19
654.289	24.04
654.478	23.56
654.666	23.69
654.855	24.17
655.043	23.71
655.231	23.87
655.42	23.89
655.608	23.72
655.796	24.03
655.985	24.28
656.173	23.97
656.361	23.9
656.55	24.35
656.738	24.16
656.926	24.06
657.114	24.23
657.302	24.41
657.491	24.67
657.679	24.38
657.867	24.09
658.055	23.45
658.243	23.66
658.431	23.57
658.619	23.77
658.807	23.81
658.996	23.6
659.184	23.55
659.372	23.28
659.56	23.49
659.748	23.85
659.936	23.57
660.124	23.78
660.311	23.98
660.499	24.03
660.687	23.63
660.875	23.62
661.063	23.64
661.251	23.76
661.439	24.21
661.627	24.13
661.814	23.85
662.002	24.13
662.19	24.13
662.378	24.08
662.565	24.24
662.753	24.4
662.941	24.58
663.129	24.36
663.316	24.15
663.504	24.29
663.692	24.14
663.879	24.66
664.067	24.59
664.254	24.5
664.442	24.53
664.63	24.74
664.817	24.62
665.005	24.53
665.192	24.68
665.38	25.04
665.567	24.59
665.755	24.63
665.942	24.09
666.13	24.13
666.317	23.84
666.504	24.01
666.692	23.96
666.879	23.98
667.067	24.36
667.254	24.11
667.441	23.91
667.629	24.34
667.816	24.36
668.003	24.74
668.19	24.92
668.378	25.19
668.565	24.82
668.752	24.69
668.939	25.01
669.127	24.46
669.314	25.04
669.501	24.9
669.688	24.84
669.875	24.67
670.062	24.78
670.249	24.25
670.436	24.42
670.623	25.03
670.81	25.03
670.997	24.62
671.184	24.8
671.371	24.86
671.558	25.12
671.745	24.86
671.932	25.18
672.119	24.83
672.306	24.88
672.493	25.06
672.68	24.68
672.867	24.76
673.054	25.35
673.24	25.74
673.427	25.56
673.614	25.59
673.801	26
673.988	26.01
674.174	26.39
674.361	26.74
674.548	26.73
674.734	26.57
674.921	26.56
675.108	26.16
675.294	25.87
675.481	25.84
675.668	25.8
675.854	25.2
676.041	24.76
676.227	24.61
676.414	24.71
676.601	24.16
676.787	23.85
676.974	23.72
677.16	24.23
677.347	24.55
677.533	24.32
677.719	24.17
677.906	24.42
678.092	24.5
678.279	24.51
678.465	24.49
678.651	24.86
678.838	25.26
679.024	25.42
679.21	25.07
679.397	24.5
679.583	24.94
679.769	25.17
679.955	24.9
680.142	25.44
680.328	25.53
680.514	25.2
680.7	25.56
680.886	25.82
681.073	25.92
681.259	25.86
681.445	25.56
681.631	25.46
681.817	25.32
682.003	25.55
682.189	25.16
682.375	24.9
682.561	25.15
682.747	24.62
682.933	24.86
683.119	24.75
683.305	24.71
683.491	24.81
683.677	24.67
683.863	24.67
684.049	24.93
684.235	24.9
684.42	24.7
684.606	24.5
684.792	25
684.978	24.61
685.164	24.51
685.349	24.79
685.535	25.76
685.721	25.69
685.907	25.77
686.092	25.44
686.278	25.48
686.464	26.23
686.649	26.45
686.835	26.16
687.021	26.14
687.206	26.24
687.392	25.93
687.577	25.19
687.763	25.18
687.948	25.26
688.134	25.45
688.319	25.59
688.505	25.04
688.69	24.74
688.876	24.91
689.061	24.74
689.247	24.17
689.432	24.25
689.618	24.9
689.803	25.32
689.988	25.31
690.174	25.49
690.359	25.17
690.544	25.79
690.73	25.75
690.915	26.14
691.1	26.06
691.285	26.78
691.471	26.95
691.656	26.24
691.841	25.41
692.026	25.48
692.211	25.54
692.396	25.3
692.582	24.56
692.767	24.8
692.952	24.27
693.137	23.89
693.322	24.17
693.507	24.16
693.692	24.4
693.877	24.9
694.062	24.89
694.247	24.63
694.432	25.37
694.617	25.48
694.802	25.15
694.987	25.64
695.172	25.89
695.357	26
695.541	25.89
695.726	26.34
695.911	26.27
696.096	25.91
696.281	25.8
696.466	25.74
696.65	26.33
696.835	26.9
697.02	26.32
697.204	26.15
697.389	25.93
697.574	26.35
697.759	26.23
697.943	26.26
698.128	26.41
698.312	26.38
698.497	26.28
698.682	25.92
698.866	25.63
699.051	25.8
699.235	26.22
699.42	26.26
699.604	26.19
699.789	26.08
699.973	26.1
700.158	26.08
700.342	26.31
700.527	26.55
700.711	26.67
700.895	27.07
701.08	27.03
701.264	26.45
701.448	25.93
701.633	25.47
701.817	24.94
702.001	24.76
702.186	24.88
702.37	24.13
702.554	23.81
702.738	23.52
702.923	23.15
703.107	22.54
703.291	23.3
703.475	22.9
703.659	22.79
703.843	23.47
704.027	24.08
704.212	23.51
704.396	24.04
704.58	24
704.764	23.94
704.948	24.5
705.132	24.89
705.316	24.7
705.5	25.19
705.684	25.29
705.868	25.74
706.052	25.66
706.235	26.7
706.419	26.5
706.603	26.59
706.787	27.04
706.971	26.62
707.155	26.11
707.339	26.09
707.522	27.28
707.706	26.77
707.89	26.55
708.074	26.81
708.257	26.29
708.441	26.74
708.625	26.77
708.808	26.69
708.992	27.37
709.176	27.93
709.359	27.63
709.543	26.46
709.727	27.73
709.91	27.01
710.094	26.06
710.277	25.6
710.461	25.14
710.644	24.64
710.828	24.79
711.011	24.12
711.195	24.68
711.378	24.48
711.562	24.57
711.745	23.92
711.928	24.64
712.112	25.03
712.295	25.11
712.478	25.46
712.662	26.15
712.845	25.84
713.028	25.47
713.212	25.27
713.395	26.07
713.578	26.62
713.761	26.34
713.945	25.87
714.128	26.06
714.311	26.62
714.494	27.05
714.677	26.84
714.86	27.1
715.043	26.82
715.227	26.29
715.41	25.68
715.593	25.52
715.776	25.93
715.959	27.07
716.142	27.55
716.325	26.92
716.508	26.39
716.691	26.16
716.874	26.42
717.057	27.22
717.239	27.08
717.422	27.55
717.605	26.71
717.788	26.81
717.971	26.16
718.154	24.88
718.337	25.23
718.519	24.72
718.702	24.78
718.885	23.82
719.068	23.58
719.25	24.35
719.433	24.49
719.616	25.3
719.798	24.79
719.981	24.11
720.164	24.65
720.346	25.41
720.529	27.88
720.712	27.89
720.894	28.74
721.077	27.59
721.259	27.12
721.442	27.1
721.624	27.54
721.807	27.88
721.989	27.71
722.172	26.75
722.354	26.74
722.537	25.1
722.719	24.33
722.901	23.91
723.084	25.13
723.266	24.45
723.448	23.35
723.631	23.49
723.813	22.94
723.995	23.84
724.178	25.62
724.36	23.64
724.542	23.17
724.724	23.81
724.907	24.05
725.089	24.17
725.271	25.12
725.453	25.12
725.635	23.94
725.817	24.63
725.999	24.34
726.181	24.02
726.364	25.1
726.546	25.84
726.728	25.91
726.91	26.19
727.092	25.81
727.274	26.22
727.456	27.48
727.638	28.05
727.819	28.37
728.001	28.35
728.183	27.82
728.365	27.46
728.547	26.65
728.729	27.3
728.911	27.73
729.093	28.2
729.274	28.16
729.456	27.6
729.638	28.08
729.82	27.69
730.001	26.54
730.183	27.43
730.365	28.11
730.546	28.24
730.728	27.66
730.91	26.97
731.091	27.17
731.273	27.13
731.455	26.29
731.636	25.02
731.818	24.03
731.999	25.17
732.181	24.79
732.362	24.59
732.544	25.41
732.725	25.22
732.907	24.6
733.088	24.04
733.27	23.85
733.451	25.41
733.633	25.92
733.814	27.17
733.995	26.86
734.177	26.55
734.358	26.28
734.539	26.11
734.721	26.65
734.902	27.39
735.083	27.28
735.264	26.94
735.446	25.7
735.627	26.04
735.808	25.79
735.989	26.71
736.17	26.13
736.351	26.08
736.533	25.33
736.714	24.84
736.895	24.36
737.076	24.38
737.257	24.74
737.438	25.44
737.619	25.08
737.8	24.91
737.981	24.11
738.162	23.73
738.343	25.06
738.524	23.46
738.705	23.28
738.886	23.89
739.067	23.99
739.247	23.16
739.428	22.15
739.609	22.29
739.79	22.1
739.971	23.27
740.151	24.53
740.332	22.85
740.513	25.14
740.694	25.49
740.874	25.62
741.055	25.44
741.236	25.61
741.417	26.43
741.597	26.71
741.778	25.72
741.958	24.21
742.139	25.07
742.32	24.67
742.5	23.58
742.681	23.61
742.861	23.17
743.042	24.19
743.222	24.61
743.403	23.69
743.583	22.58
743.764	23.15
743.944	23.58
744.124	22.43
744.305	23.47
744.485	23.58
744.666	24.06
744.846	23.79
745.026	22.7
745.207	21.77
745.387	23.82
745.567	24.17
745.747	24.51
745.928	25.69
746.108	26.39
746.288	26.8
746.468	27.59
746.648	26.2
746.829	25.85
747.009	27.62
747.189	28.88
747.369	28.29
747.549	27.77
747.729	28.32
747.909	27.52
748.089	26.94
748.269	27.69
748.449	27.29
748.629	27.92
748.809	28.35
748.989	26.08
749.169	25.86
749.349	26
749.529	28.31
749.709	28.56
749.889	28.16
750.068	27.96
750.248	27.46
750.428	27.58
750.608	27.58
750.788	27.96
750.967	28.47
751.147	29.7
751.327	29.67
751.507	26.76
751.686	26.41
751.866	26.44
752.046	25.44
752.225	23.89
752.405	23.73
752.585	23.96
752.764	22.71
752.944	21.97
753.123	20.68
753.303	19.85
753.482	20.26
753.662	20.25
753.841	20.87
754.021	22.6
754.2	23.13
754.38	22.94
754.559	23.11
754.739	23.76
754.918	24.84
755.097	24.61
755.277	25.07
755.456	26.55
755.635	25.89
755.815	25.72
755.994	25.44
756.173	26.19
756.352	26.59
756.532	25.51
756.711	25.34
756.89	25.19
757.069	24
757.248	23.7
757.427	22.83
757.607	23.32
757.786	22.22
757.965	22.55
758.144	22.94
758.323	22.37
758.502	23.29
758.681	23.86
758.86	23.17
759.039	23.51
759.218	23.57
759.397	23.93
759.576	24.52
759.755	24.51
759.934	24.37
760.113	22.87
760.291	23
760.47	22.71
760.649	22.78
760.828	24.97
761.007	26.42
761.186	25.98
761.364	27.73
761.543	27.26
761.722	27.84
761.901	27.49
762.079	27.23
762.258	27.85
762.437	29.31
762.615	29.44
762.794	27.35
762.972	26.23
763.151	26.31
763.33	25.49
763.508	26.1
763.687	26.02
763.865	26.37
764.044	26.86
764.222	27.1
764.401	25.74
764.579	25.65
764.758	26.8
764.936	28.23
765.114	28.88
765.293	29.06
765.471	27.98
765.65	28.78
765.828	28.39
766.006	28.35
766.184	27.48
766.363	26.48
766.541	25.64
766.719	24.49
766.898	23.91
767.076	23.66
767.254	22.49
767.432	23.56
767.61	24.43
767.788	24.6
767.967	25.04
768.145	24.19
768.323	26.15
768.501	25.27
768.679	24.45
768.857	24.73
769.035	24.13
769.213	25.58
769.391	24.52
769.569	22.96
769.747	23.49
769.925	22.31
770.103	24.99
770.281	24.35
770.459	25.97
770.636	28.96
770.814	26.25
770.992	26.49
771.17	26.47
771.348	26.57
771.525	25.41
771.703	24.46
771.881	27.68
772.059	26.83
772.236	26.87
772.414	27.64
772.592	24.95
772.769	25.72
772.947	25.37
773.125	25.12
773.302	25.28
773.48	26.64
773.657	25.37
773.835	21.3
774.013	20.73
774.19	20.38
774.368	18.72
774.545	19.07
774.723	18.7
774.9	18.76
775.077	15.97
775.255	14.59
775.432	15.98
775.61	20.53
775.787	20.42
775.964	19.89
776.142	17.87
776.319	19.85
776.496	20.17
776.674	20.41
776.851	20.91
777.028	25.21
777.205	27.01
777.382	23.63
777.56	20.53
777.737	23.28
777.914	23.92
778.091	23
778.268	21.57
778.445	20.94
778.622	22.48
778.8	20.22
778.977	16.25
779.154	15.86
779.331	16.86
779.508	14.6
779.685	13.94
779.862	12.99
780.038	15.99
780.215	16.95
780.392	18.38
780.569	19.15
780.746	20.89
780.923	21.14
781.1	20.59
781.277	19.4
781.453	22.82
781.63	23.15
781.807	22.07
781.984	22.39
782.16	22.65
782.337	23.41
782.514	22.49
782.691	22.6
782.867	24.53
783.044	27.23
783.221	27.85
783.397	26.22
783.574	25.8
783.75	29.13
783.927	28.72
784.103	28.03
784.28	26.17
784.456	27.17
784.633	23.53
784.809	23.47
784.986	22.32
785.162	21
785.339	21.08
785.515	20.28
785.692	17.15
785.868	16.24
786.044	16.04
786.221	17.17
786.397	15.33
786.573	18.89
786.749	18.48
786.926	15.99
787.102	16.97
787.278	16.74
787.454	15.08
787.631	16.86
787.807	17.52
787.983	15.64
788.159	16.88
788.335	17.24
788.511	17.69
788.687	19.16
788.863	20.38
789.039	19.79
789.216	20.67
789.392	24.03
789.568	24.87
789.744	26.34
789.919	28.95
790.095	28.47
790.271	27.68
790.447	28.29
790.623	26.35
790.799	26.77
790.975	27.61
791.151	26.98
791.327	26.8
791.502	27.75
791.678	25.73
791.854	26.34
792.03	28.45
792.205	27.58
792.381	26.96
792.557	27.73
792.733	27.06
792.908	29.08
793.084	29.28
793.259	31.83
793.435	29.59
793.611	27.81
793.786	25.19
793.962	22.88
794.137	26.89
794.313	24.43
794.488	23.06
794.664	21.49
794.839	20.15
795.015	16.93
795.19	15.46
795.366	15.51
795.541	16.58
795.716	18.02
795.892	19.81
796.067	17.43
796.242	19.24
796.418	21.59
796.593	21.65
796.768	22.6
796.944	26.29
797.119	24.78
797.294	23.94
797.469	24.45
797.644	22.78
797.82	21.08
797.995	18.4
798.17	18.68
798.345	19.18
798.52	20.47
798.695	16.61
798.87	14.97
799.045	15.2
799.22	15.52
799.395	15.38
799.57	17.42
799.745	15.45
799.92	17.96
800.095	19.5
800.27	16.13
800.445	15.36
800.62	17.89
800.795	17.32
800.97	18.85
801.145	15.58
801.319	16.98
801.494	17.85
801.669	18.52
801.844	18.74
802.018	18.72
802.193	21.03
802.368	18.51
802.543	21.76
802.717	25.51
802.892	23.82
803.067	27.57
803.241	27.55
803.416	26.68
803.59	23.53
803.765	23.22
803.94	18.93
804.114	19.77
804.289	25.01
804.463	23.54
804.638	18.2
804.812	17.38
804.986	19.32
805.161	18.86
805.335	19.64
805.51	20.83
805.684	18.49
805.858	24.23
806.033	20.86
806.207	18.12
806.381	15.61
806.556	16.7
806.73	13.09
806.904	9.15
807.078	10.65
807.253	8.06
807.427	13.54
807.601	15.31
807.775	11.72
807.949	11.56
808.123	10.71
808.298	9.16
808.472	13.39
808.646	16.91
808.82	16.3
808.994	12.07
809.168	11.07
809.342	10.39
809.516	9.18
809.69	11.83
809.864	16.15
810.038	18.89
810.212	19.59
810.385	17.72
810.559	20.35
810.733	24.47
810.907	27.12
811.081	27.92
811.255	31.87
811.428	34.86
811.602	32.6
811.776	29.84
811.95	32.7
812.123	34.21
812.297	28.26
812.471	29.85
812.644	20.39
812.818	22.53
812.992	23.39
813.165	20.71
813.339	20.85
813.512	24.51
813.686	25.06
813.86	24.23
814.033	26.39
814.207	27.02
814.38	24.14
814.554	32.56
814.727	29.57
814.9	26.43
815.074	23.47
815.247	21.58
815.421	19.53
815.594	22.04
815.767	18.75
815.941	15.94
816.114	20.59
816.287	19.35
816.46	19.24
816.634	22.08
816.807	21.23
816.98	20.42
817.153	21.87
817.327	22.09
817.5	23.54
817.673	27.85
817.846	27.39
818.019	29.92
818.192	32.53
818.365	37.52
818.538	37.73
818.711	43.12
818.884	42.13
819.057	40.94
819.23	37.32
819.403	31.46
819.576	29.93
819.749	30.23
819.922	29.13
820.095	25.79
820.268	21.97
820.441	18.94
820.614	18.79
820.786	19.31
820.959	19.77
821.132	21.66
821.305	24.89
821.477	24.29
821.65	24.86
821.823	24.96
821.996	26.19
822.168	25.83
822.341	26.41
822.514	27.09
822.686	26.88
822.859	27.37
823.031	27.44
823.204	27.31
823.376	27.01
823.549	27.61
823.722	27.6
823.894	27.51
824.067	27.21
824.239	27.29
824.411	26.41
824.584	27.4
824.756	26.56
824.929	26.48
825.101	25.56
825.273	26.02
825.446	25.08
825.618	24.11
825.79	24.38
825.963	24.89
826.135	25.93
826.307	26.35
826.479	25.39
826.652	24.63
826.824	26
826.996	25.91
827.168	25.21
827.34	24.78
827.512	26.28
827.684	24.57
827.856	24.13
828.029	23.17
828.201	22.9
828.373	24.12
828.545	24.1
828.717	22.62
828.889	23.1
829.061	22.32
829.232	21.28
829.404	19.47
829.576	19.65
829.748	20.28
829.92	21.18
830.092	19.57
830.264	14.17
830.436	11.58
830.607	9.53
830.779	6.7
830.951	12.18
831.123	12.91
831.294	12.36
831.466	13.24
831.638	13.49
831.809	12.87
831.981	14.23
832.153	17.88
832.324	17.25
832.496	18.3
832.667	18.13
832.839	13.97
833.011	15.21
833.182	14.44
833.354	14.29
833.525	16.04
833.697	12.17
833.868	13.49
834.039	15.56
834.211	20.42
834.382	20.66
834.554	21.92
834.725	21.6
834.896	21.02
835.068	20.74
835.239	22.73
835.41	22.38
835.581	24.99
835.753	25.1
835.924	22.54
836.095	22.68
836.266	21.13
836.438	21.17
836.609	20.96
836.78	25.43
836.951	28.13
837.122	27.31
837.293	23.79
837.464	24.03
837.635	23.79
837.806	26.58
837.977	24.07
838.148	25.89
838.319	26.3
838.49	28.74
838.661	21.73
838.832	20.84
839.003	21.98
839.174	25.04
839.345	23.64
839.516	23.13
839.687	20.61
839.857	24.39
840.028	28.75
840.199	33.56
840.37	34.73
840.54	39.45
840.711	34.77
840.882	36.91
841.053	40.47
841.223	38.33
841.394	38.06
841.564	33.8
841.735	28.97
841.906	28.98
842.076	21.06
842.247	11.78
842.417	7.22
842.588	10.88
842.758	3.16
842.929	-9.37
843.099	-11.12
843.27	-17.09
843.44	-11.64
843.611	-6.1
843.781	-20.63
843.951	-21.29
844.122	-11.38
844.292	-5.26
844.462	-8.63
844.633	-13.51
844.803	5.23
844.973	4.13
845.144	17.22
845.314	13.71
845.484	16.14
845.654	32.13
845.824	26.1
845.995	23.37
846.165	21.03
846.335	21.79
846.505	34.62
846.675	8.21
846.845	12.32
847.015	-1.7
847.185	-0.51
847.355	-13.13
847.525	-15.44
847.695	11.33
847.865	17.41
848.035	1.88
848.205	0.98
848.375	-15.15
848.545	-19.23
848.715	-14.77
848.884	1.11
849.054	-12.84
849.224	-16.95
849.394	-18.26
849.564	-21.3
849.733	-28.51
849.903	0.35
850.073	5.28
850.243	14.69
850.412	22.24
850.582	37.97
850.752	37.53
850.921	35.57
851.091	43.85
851.26	43.38
851.43	18.23
851.599	16.33
851.769	-15.93
851.939	-15.57
852.108	-19.53
852.278	-52.45
852.447	-116.93
852.616	-91.11
852.786	-90.13
852.955	-103.72
853.125	-125.47
853.294	-74.68
853.463	-128.93
853.633	-40.31
853.802	-20.77
853.971	-38.13
854.141	-33.73
854.31	6.03
854.479	-1.21
854.648	5.92
854.818	12.9
854.987	21.39
855.156	23.23
855.325	42.41
855.494	32.98
855.663	30.82
855.832	49.62
856.001	69.11
856.171	53.76
856.34	51.51
856.509	54.59
856.678	51.8
856.847	45.96
857.016	33.35
857.185	14.79
857.353	30.9
857.522	38.07
857.691	44.08
857.86	29.53
858.029	11.46
858.198	12.91
858.367	11.94
858.535	-6.57
858.704	12.07
858.873	20.66
859.042	18.48
859.21	3.79
859.379	3.54
859.548	-25.17
859.717	-9.04
859.885	1.24
860.054	-3.67
860.222	-20.73
860.391	-9.39
860.56	-18.9
860.728	0.92
860.897	27.44
861.065	12.26
861.234	-15.68
861.402	-0.96
861.571	-20.39
861.739	-22.24
861.908	-10.92
862.076	3.83
862.244	-0.02
862.413	-0.96
862.581	-47.91
862.749	-131.95
862.918	-62.19
863.086	-48.58
863.254	-100.4
863.423	-80.71
863.591	-63.89
863.759	-118.23
863.927	-137.8
864.096	-149.74
864.264	-93.03
864.432	-18.02
864.6	14.71
864.768	22.06
864.936	22.42
865.104	54.11
865.272	45.89
865.44	59.41
865.608	48.93
865.776	61.19
865.944	62.69
866.112	61
866.28	33.63
866.448	19.27
866.616	11.77
866.784	36.21
866.952	20.07
867.12	8.37
867.288	-18.42
867.455	-28.6
867.623	-48.16
867.791	-51.67
867.959	-16.97
868.127	-15.81
868.294	-54.01
868.462	-55.7
868.63	-69.01
868.797	-81.24
868.965	-71.44
869.133	-73.67
869.3	-56.21
869.468	-36.24
869.636	-34.79
869.803	-62.85
869.971	-50.02
870.138	-1.94
870.306	-22.4
870.473	-7.33
870.641	26.3
870.808	47.88
870.975	71.7
871.143	80.59
871.31	69.17
871.478	50.78
871.645	56.31
871.812	69.93
871.98	80.02
872.147	62.72
872.314	59.36
872.482	54.42
872.649	37.62
872.816	23.27
872.983	-1.24
873.15	-2.07
873.318	9.22
873.485	4.88
873.652	-14.01
873.819	-63.56
873.986	-55.67
874.153	-57.34
874.32	-76.21
874.487	-60.39
874.654	-56.47
874.821	-10.22
874.988	6.35
875.155	13.24
875.322	5.01
875.489	23.22
875.656	41.97
875.823	34.02
875.99	49.91
876.157	70.62
876.324	59.75
876.49	67.07
876.657	52.53
876.824	-4.35
876.991	13.17
877.157	51.39
877.324	43.6
877.491	5.05
877.658	13.71
877.824	7.65
877.991	-6.43
878.157	7.7
878.324	14.86
878.491	16.79
878.657	34.82
878.824	14.22
878.99	2.99
879.157	-4.08
879.323	-3.66
879.49	0.9
879.656	-2.5
879.823	-9.78
879.989	-3.69
880.156	-22.43
880.322	-17.39
880.488	-24.69
880.655	-5.27
880.821	-19.65
880.987	-22.55
881.154	-20.74
881.32	-18.44
881.486	-15.63
881.652	0.11
881.819	-2.84
881.985	10.39
882.151	12.38
882.317	14.72
882.483	12.87
882.649	17.11
882.816	18.05
882.982	20.28
883.148	18.94
883.314	22.5
883.48	22.42
883.646	22.52
883.812	20.38
883.978	20.05
884.144	23.25
884.31	25.41
884.476	24.18
884.642	25.38
884.807	26.54
884.973	26.91
885.139	24.76
885.305	24.74
885.471	28.77
885.637	27.86
885.802	28.67
885.968	23.62
886.134	20.72
886.3	23.94
886.465	17.62
886.631	13.3
886.797	15.79
886.962	14.1
887.128	8.86
887.293	2.25
887.459	15.87
887.625	11.31
887.79	20.24
887.956	17.52
888.121	11.54
888.287	20.06
888.452	30.58
888.618	24.16
888.783	34.11
