Data from 2938057_Reflection_3.txt Node
Date: Sun Jul 12 13:59:11 EDT 2015
User: robert
Spectrometer: USB4E03001
Autoset integration time: false
Trigger mode: 4
Integration Time (sec): 1.000000E-1
Scans to average: 10
Electric dark correction enabled: true
Nonlinearity correction enabled: false
Boxcar width: 5
Stray light correction enabled: false
XAxis mode: Wavelengths
Stop averaging: false
Number of Pixels in Spectrum: 3648
>>>>>Begin Spectral Data<<<<<
177.566	48.2
177.785	216.21
178.005	-18825
178.225	22.3
178.445	82.35
178.665	-75.81
178.885	35.15
179.105	116.53
179.324	95.71
179.544	69.86
179.764	116.49
179.984	96.24
180.204	106.04
180.423	105.66
180.643	116.7
180.863	126.32
181.083	139.43
181.302	132
181.522	119
181.742	118.36
181.961	120.26
182.181	103.79
182.401	98.51
182.621	124.95
182.84	125.6
183.06	127.76
183.279	106.98
183.499	115.07
183.719	124.81
183.938	155.96
184.158	166.28
184.377	166.34
184.597	180.91
184.816	170.93
185.036	170.18
185.256	162.26
185.475	151.8
185.695	164.83
185.914	163.24
186.134	140.21
186.353	113.94
186.572	126.59
186.792	119.03
187.011	139.78
187.231	130.69
187.45	110.56
187.67	82.26
187.889	117.36
188.108	132.83
188.328	147.79
188.547	170.15
188.766	249.48
188.986	195.08
189.205	232.87
189.424	90.79
189.644	121.55
189.863	122.14
190.082	167.62
190.302	119.15
190.521	101.9
190.74	87.75
190.959	102.61
191.178	97.73
191.398	87.23
191.617	76.77
191.836	134.61
192.055	143.17
192.274	141.21
192.494	154.58
192.713	130.33
192.932	103.47
193.151	243.01
193.37	21.12
193.589	63.1
193.808	243.31
194.027	-73.91
194.246	-30.09
194.465	-11.48
194.685	-256.59
194.904	-194.39
195.123	-295.66
195.342	-271.87
195.561	-203.09
195.78	-198.64
195.999	-13.92
196.218	-143.32
196.436	192.66
196.655	90.54
196.874	90.48
197.093	110.27
197.312	106.69
197.531	75.9
197.75	107.05
197.969	82.75
198.188	86.55
198.407	103.69
198.625	104.39
198.844	89.81
199.063	106.81
199.282	133.28
199.501	117.75
199.719	104.49
199.938	95.62
200.157	77.49
200.376	89.69
200.594	116.66
200.813	85.72
201.032	37.62
201.251	114.05
201.469	59.84
201.688	34.09
201.907	38.12
202.125	67.67
202.344	61.15
202.563	57.45
202.781	37.59
203	53.52
203.218	80.31
203.437	76.2
203.656	67.18
203.874	97.86
204.093	102.28
204.311	116.39
204.53	1070.91
204.748	-195.03
204.967	-270.13
205.185	-8467.92
205.404	-1825.69
205.622	332.26
205.841	318.72
206.059	185.53
206.278	154.12
206.496	176.23
206.715	76.92
206.933	71
207.151	58.63
207.37	65.31
207.588	47.71
207.806	42.33
208.025	79.7
208.243	77.28
208.461	66.43
208.68	52.69
208.898	55.02
209.116	121.36
209.335	82.3
209.553	153.87
209.771	96.31
209.989	88.3
210.208	80.47
210.426	53.95
210.644	64.35
210.862	54.71
211.081	74.47
211.299	57.95
211.517	38.52
211.735	72.12
211.953	55.59
212.171	70.36
212.39	119.44
212.608	150.54
212.826	280.61
213.044	128.93
213.262	105.42
213.48	92.45
213.698	138.64
213.916	174.79
214.134	113.23
214.352	145.74
214.57	127.18
214.788	113.05
215.006	108.3
215.224	73.51
215.442	86.05
215.66	107.97
215.878	99.88
216.096	77.06
216.314	71.4
216.532	120.67
216.75	127.23
216.968	126.2
217.185	125.17
217.403	82.89
217.621	143.24
217.839	143.97
218.057	120.94
218.275	119.04
218.492	123.08
218.71	123.53
218.928	104.06
219.146	93.16
219.363	92.81
219.581	108.49
219.799	101.54
220.017	122.75
220.234	92.19
220.452	87.46
220.67	63.84
220.887	48.9
221.105	37.76
221.323	35.92
221.54	60.08
221.758	42.64
221.976	48.04
222.193	46.4
222.411	46.76
222.629	46.28
222.846	62.78
223.064	65.46
223.281	60.64
223.499	45.97
223.716	44.59
223.934	44.63
224.151	42.7
224.369	31.76
224.586	42.08
224.804	51.14
225.021	52.29
225.239	33.62
225.456	39.8
225.674	35.59
225.891	45.26
226.108	44
226.326	35.01
226.543	32.88
226.76	31.36
226.978	28.75
227.195	14.56
227.413	18.46
227.63	19.5
227.847	18.15
228.064	14.83
228.282	13.12
228.499	15.26
228.716	15.7
228.934	15.31
229.151	14.71
229.368	11.95
229.585	12.25
229.802	10.74
230.02	9.49
230.237	9.43
230.454	13.19
230.671	12.23
230.888	10.26
231.105	6.29
231.323	8.34
231.54	8.67
231.757	12.52
231.974	9.41
232.191	6.59
232.408	9.62
232.625	8.93
232.842	10.48
233.059	12.91
233.276	19.46
233.493	21.54
233.71	21.77
233.927	18.71
234.144	15.1
234.361	15.49
234.578	18.19
234.795	18.97
235.012	19.17
235.229	18.67
235.446	13.54
235.663	13.98
235.879	10.79
236.096	10.6
236.313	16.94
236.53	18.09
236.747	23.36
236.964	21.55
237.181	22.02
237.397	21.41
237.614	18.32
237.831	24.98
238.048	18.33
238.264	22.41
238.481	23.83
238.698	20.23
238.915	16.56
239.131	14.17
239.348	11.77
239.565	13.52
239.781	9.94
239.998	11.03
240.215	8.81
240.431	5.71
240.648	7.78
240.865	2.76
241.081	4.82
241.298	8.73
241.514	9.13
241.731	12.06
241.947	8.7
242.164	7.41
242.38	6.98
242.597	5.75
242.814	5.43
243.03	4.48
243.246	7.48
243.463	5.75
243.679	5.47
243.896	6.63
244.112	6.26
244.329	7.8
244.545	9.07
244.762	8.41
244.978	9.77
245.194	12.3
245.411	9.97
245.627	8.35
245.843	8.93
246.06	6.33
246.276	3.38
246.492	2.8
246.709	1.14
246.925	1.93
247.141	3.17
247.357	2.9
247.574	2.01
247.79	3.51
248.006	3.17
248.222	2.8
248.439	3.19
248.655	5.38
248.871	4.94
249.087	7.53
249.303	6.99
249.519	5.88
249.736	7.88
249.952	9.58
250.168	9.97
250.384	10.48
250.6	11.73
250.816	11.57
251.032	7.47
251.248	8.38
251.464	6.06
251.68	6.17
251.896	7.62
252.112	5.84
252.328	4.15
252.544	3.51
252.76	5.36
252.976	4.33
253.192	3.97
253.408	6.68
253.624	7.7
253.84	9.06
254.056	11.96
254.272	10.25
254.487	9.93
254.703	10.58
254.919	7.65
255.135	3.71
255.351	6.3
255.567	5.93
255.782	5.02
255.998	3.63
256.214	1.17
256.43	-1.35
256.646	2.13
256.861	3.26
257.077	6.71
257.293	7.98
257.508	9.26
257.724	7.18
257.94	7.69
258.155	5.27
258.371	5.56
258.587	5.98
258.802	5.45
259.018	3.58
259.234	3.02
259.449	1.22
259.665	2.13
259.88	1.66
260.096	1.83
260.312	1.99
260.527	3.39
260.743	2.5
260.958	1.96
261.174	1.44
261.389	2.02
261.605	1.71
261.82	3.33
262.036	3.26
262.251	3.44
262.466	3.48
262.682	4
262.897	2.9
263.113	4.21
263.328	5.32
263.543	6.09
263.759	6.04
263.974	6.56
264.189	3.35
264.405	0.62
264.62	1.89
264.835	1.87
265.051	1.15
265.266	2.36
265.481	1.61
265.696	4.12
265.912	4.64
266.127	4.38
266.342	5.28
266.557	6.79
266.773	8.52
266.988	6.63
267.203	7.15
267.418	5.5
267.633	5.45
267.848	5.5
268.064	2.47
268.279	2.81
268.494	1.87
268.709	2.14
268.924	1.23
269.139	1.44
269.354	2
269.569	0.53
269.784	2.12
269.999	2.04
270.214	-0.12
270.429	-0.55
270.644	-0.68
270.859	0.16
271.074	-1.22
271.289	-0.24
271.504	-1.82
271.719	-0.53
271.934	-1.7
272.149	-1.38
272.363	-2.21
272.578	0.71
272.793	2.82
273.008	1.33
273.223	2.41
273.438	3.85
273.653	3.29
273.867	3.7
274.082	4
274.297	7.29
274.512	6.85
274.726	5.63
274.941	4.84
275.156	3.74
275.371	6.13
275.585	5.32
275.8	4.62
276.015	4.78
276.229	4.95
276.444	5.23
276.659	5.06
276.873	6.32
277.088	7.33
277.302	5.73
277.517	6.39
277.732	5.58
277.946	5.78
278.161	4.89
278.375	5.18
278.59	6.46
278.804	4.98
279.019	3.28
279.233	1.82
279.448	1.93
279.662	2.77
279.877	2.93
280.091	3.45
280.306	3.21
280.52	4.6
280.735	5.16
280.949	2.69
281.163	4.15
281.378	4.5
281.592	6.21
281.806	7.03
282.021	8.07
282.235	8.98
282.449	9.27
282.664	9.32
282.878	10.34
283.092	10.4
283.307	11.45
283.521	9.54
283.735	9.18
283.949	7.65
284.164	7.9
284.378	7.55
284.592	6.89
284.806	5.78
285.02	6.31
285.234	4.5
285.449	2.45
285.663	2.83
285.877	3.31
286.091	2.79
286.305	3.22
286.519	2.02
286.733	2.17
286.947	0.65
287.161	0.12
287.375	-1.15
287.589	-0.67
287.803	0.58
288.017	0.18
288.231	0.62
288.445	2.23
288.659	1.36
288.873	3.21
289.087	2.76
289.301	3.91
289.515	5.06
289.729	5.52
289.943	6.94
290.157	7.78
290.371	7.55
290.584	7.21
290.798	5.92
291.012	5.89
291.226	5.02
291.44	4.41
291.654	3.98
291.867	3.93
292.081	4.11
292.295	1.11
292.509	1.51
292.722	2.73
292.936	3.06
293.15	3.26
293.364	4.76
293.577	3.68
293.791	4.95
294.005	5.05
294.218	5.74
294.432	6.38
294.645	5.96
294.859	5.68
295.073	5.3
295.286	6.14
295.5	6.52
295.713	6.71
295.927	6.89
296.14	6.31
296.354	6.54
296.568	5.24
296.781	3.94
296.994	4.67
297.208	3.32
297.421	2.84
297.635	2.73
297.848	2.48
298.062	1.27
298.275	1.87
298.489	1.82
298.702	1.54
298.915	2.24
299.129	1.94
299.342	1.53
299.555	2.83
299.769	1.31
299.982	0.38
300.195	0.92
300.409	0.84
300.622	-0.65
300.835	0.3
301.048	1.89
301.262	2.31
301.475	3.9
301.688	4.78
301.901	5.16
302.115	6.43
302.328	7.33
302.541	7.85
302.754	8.49
302.967	10.29
303.18	9.95
303.393	9.39
303.607	9.17
303.82	9.1
304.033	8.94
304.246	8.14
304.459	7.72
304.672	7.89
304.885	7.03
305.098	7.78
305.311	7.19
305.524	5.91
305.737	4.05
305.95	5.35
306.163	5.81
306.376	6.69
306.589	7.5
306.802	6.97
307.015	5.6
307.228	6.95
307.44	5.5
307.653	5.07
307.866	5.15
308.079	6.32
308.292	5.29
308.505	3.83
308.718	3.28
308.93	2.9
309.143	5.15
309.356	5.95
309.569	4.96
309.781	4.88
309.994	6.27
310.207	7.01
310.42	7
310.632	7.91
310.845	9.23
311.058	9.76
311.27	10.66
311.483	9.98
311.696	9.49
311.908	9.59
312.121	9.69
312.333	8.3
312.546	8.27
312.759	8.61
312.971	7.94
313.184	7.02
313.396	5.95
313.609	4.5
313.821	3.97
314.034	5.64
314.246	4.89
314.459	6.88
314.671	7.42
314.884	7.06
315.096	7.24
315.309	8.49
315.521	8.3
315.733	7.84
315.946	7.42
316.158	6.8
316.371	4.22
316.583	6.86
316.795	5.81
317.008	6.16
317.22	7.05
317.432	6.22
317.644	4.59
317.857	5.21
318.069	6.56
318.281	6.42
318.494	8.65
318.706	10.45
318.918	9.97
319.13	10.25
319.342	10.14
319.555	10.81
319.767	11.69
319.979	11.49
320.191	12.21
320.403	12.47
320.615	12.91
320.827	11.33
321.039	11.13
321.252	9.05
321.464	7.49
321.676	7.64
321.888	6.98
322.1	5.64
322.312	5.85
322.524	4.98
322.736	3.97
322.948	5.31
323.16	5.77
323.372	5.86
323.584	5.77
323.796	6.96
324.007	8.44
324.219	8.87
324.431	9.22
324.643	8.73
324.855	10.03
325.067	11.34
325.279	11.3
325.491	12.55
325.702	11.82
325.914	11.67
326.126	11.57
326.338	10.56
326.55	9.82
326.761	10.98
326.973	11.66
327.185	10.3
327.396	9.76
327.608	9.16
327.82	8.64
328.032	8.8
328.243	9.76
328.455	10.24
328.666	11
328.878	10.89
329.09	10.05
329.301	10.95
329.513	12.94
329.725	13.15
329.936	13.09
330.148	13.48
330.359	15.44
330.571	16.17
330.782	15.5
330.994	14.56
331.205	15.09
331.417	15.79
331.628	14.65
331.84	13.56
332.051	13.17
332.262	14.08
332.474	13.62
332.685	12.9
332.897	12.81
333.108	14.32
333.319	14.72
333.531	15.1
333.742	15.49
333.953	15.36
334.165	15.35
334.376	15.92
334.587	16.93
334.799	18.08
335.01	17.12
335.221	17.76
335.432	16.94
335.644	18.02
335.855	19.19
336.066	18.85
336.277	19.66
336.488	19.52
336.7	19.93
336.911	19.2
337.122	18.35
337.333	19.03
337.544	18.48
337.755	18.73
337.966	17.72
338.177	17.05
338.388	17.01
338.599	16.61
338.811	17.74
339.022	17.66
339.233	17.08
339.444	17.58
339.655	17.89
339.866	18.72
340.076	19.35
340.287	20.62
340.498	21.4
340.709	22.52
340.92	23.28
341.131	22.03
341.342	22.39
341.553	24.64
341.764	25.19
341.975	25.35
342.185	25.54
342.396	25.39
342.607	24.09
342.818	23.99
343.029	24.24
343.239	22.67
343.45	23.4
343.661	22.46
343.872	21.98
344.082	20.72
344.293	20.38
344.504	19.58
344.714	19.7
344.925	20.54
345.136	19.68
345.346	19.4
345.557	20.99
345.768	21.14
345.978	22.46
346.189	21.8
346.399	22.96
346.61	24.24
346.821	24.15
347.031	24.7
347.242	23.43
347.452	25.04
347.663	23.73
347.873	23.44
348.084	23.41
348.294	22.19
348.504	23.08
348.715	22.16
348.925	21.59
349.136	22.74
349.346	22.89
349.557	23.62
349.767	20.97
349.977	22.9
350.188	23.92
350.398	23.19
350.608	24.4
350.819	23.33
351.029	23.08
351.239	23.05
351.449	22.25
351.66	21.77
351.87	22.97
352.08	24.28
352.29	23.59
352.501	22.96
352.711	23.85
352.921	23.06
353.131	22.49
353.341	23.15
353.552	23.28
353.762	23.39
353.972	23.38
354.182	22.8
354.392	23.09
354.602	23.43
354.812	23.54
355.022	23.97
355.232	24.92
355.442	25.85
355.652	25.29
355.862	24.79
356.072	25.51
356.282	26.31
356.492	26.64
356.702	26.79
356.912	26.53
357.122	27.03
357.332	26.53
357.542	26.9
357.752	26.27
357.962	27.49
358.171	28.62
358.381	28.95
358.591	28.44
358.801	28.51
359.011	29.07
359.221	29.05
359.43	28.28
359.64	28.37
359.85	27.9
360.06	27.95
360.269	27.55
360.479	26.48
360.689	25.99
360.899	25.31
361.108	25.12
361.318	24.37
361.528	24.55
361.737	24.64
361.947	24.38
362.156	24.18
362.366	24.27
362.576	24.25
362.785	24.15
362.995	24.76
363.204	25.56
363.414	25.43
363.623	25.57
363.833	25.32
364.042	24.3
364.252	24.59
364.461	25.21
364.671	25.53
364.88	25.29
365.09	26.06
365.299	25.45
365.509	25.32
365.718	25.23
365.927	25.81
366.137	25.61
366.346	25.85
366.555	25.12
366.765	24.64
366.974	24.01
367.183	24.72
367.393	24.25
367.602	23.71
367.811	23.54
368.021	23.09
368.23	22.03
368.439	21.96
368.648	22.34
368.857	23.72
369.067	23.43
369.276	23.14
369.485	23.32
369.694	23.33
369.903	23.31
370.112	23.41
370.321	24
370.531	24.7
370.74	24.63
370.949	25.48
371.158	25.81
371.367	25.52
371.576	27.13
371.785	26.43
371.994	26.6
372.203	26.94
372.412	26.82
372.621	26.84
372.83	26.78
373.039	27.15
373.248	26.1
373.457	25.18
373.666	25.28
373.874	23.81
374.083	23.38
374.292	23.23
374.501	22.64
374.71	22.38
374.919	22.33
375.128	22.28
375.336	22.55
375.545	22.99
375.754	22.85
375.963	22.66
376.171	22.9
376.38	23.78
376.589	24
376.798	24.11
377.006	24.2
377.215	24.54
377.424	24.43
377.632	24.75
377.841	24.56
378.05	24.55
378.258	24.39
378.467	24.73
378.675	24.83
378.884	25.06
379.093	25.7
379.301	26.59
379.51	26.67
379.718	26.73
379.927	26.37
380.135	26.63
380.344	26.54
380.552	27.57
380.761	28.05
380.969	27.38
381.177	27.14
381.386	26.57
381.594	26.57
381.803	26.04
382.011	26.16
382.219	26.28
382.428	26.61
382.636	26.5
382.845	25.87
383.053	25.07
383.261	25.02
383.469	24.66
383.678	24.96
383.886	23.95
384.094	23.74
384.302	24.16
384.511	23.85
384.719	24
384.927	24.08
385.135	24.56
385.343	25.47
385.552	26.19
385.76	26.45
385.968	26.52
386.176	26.81
386.384	27.27
386.592	26.72
386.8	26.71
387.008	26.34
387.216	26.53
387.424	26.36
387.633	26.24
387.841	25.57
388.049	25.49
388.257	25.77
388.465	26.33
388.672	26.5
388.88	26.96
389.088	26.89
389.296	27.15
389.504	26.97
389.712	27.06
389.92	26.85
390.128	27.22
390.336	27.23
390.544	26.92
390.751	26.61
390.959	27.04
391.167	27.19
391.375	27.77
391.583	27.44
391.79	27.87
391.998	28.22
392.206	28.07
392.414	28.16
392.621	28.65
392.829	28.78
393.037	28.95
393.244	28.77
393.452	28.79
393.66	28.66
393.867	28.76
394.075	28.58
394.283	28.45
394.49	28.81
394.698	28.78
394.905	28.72
395.113	29.04
395.32	29.07
395.528	28.8
395.735	28.66
395.943	28.52
396.15	29.13
396.358	29.15
396.565	29.36
396.773	29.4
396.98	29.84
397.188	29.96
397.395	29.83
397.602	30.04
397.81	30.35
398.017	30.25
398.225	30.63
398.432	30.86
398.639	31
398.847	30.71
399.054	30.39
399.261	30.4
399.468	30.36
399.676	30.72
399.883	30.64
400.09	30.96
400.297	31.42
400.505	31.13
400.712	30.97
400.919	31.25
401.126	31.47
401.333	31.74
401.54	31.36
401.748	31.36
401.955	31.17
402.162	31.27
402.369	31.24
402.576	31.61
402.783	31.97
402.99	32.34
403.197	32.32
403.404	32.56
403.611	32.58
403.818	32.96
404.025	33.38
404.232	33.69
404.439	33.66
404.646	33.59
404.853	33.37
405.06	33.48
405.267	33.26
405.474	33.37
405.681	33.2
405.887	33.37
406.094	33.24
406.301	33.04
406.508	32.93
406.715	33.08
406.922	33.27
407.128	33.43
407.335	33.21
407.542	32.97
407.749	33.1
407.955	33.3
408.162	33.54
408.369	33.81
408.575	33.98
408.782	33.83
408.989	33.75
409.195	33.81
409.402	33.95
409.609	33.83
409.815	33.84
410.022	33.63
410.228	33.36
410.435	33.32
410.642	33.19
410.848	33.02
411.055	32.93
411.261	33.17
411.468	33.03
411.674	32.63
411.881	32.93
412.087	32.85
412.294	33
412.5	33.23
412.706	33.26
412.913	33.37
413.119	33.35
413.326	33.45
413.532	33.3
413.738	33.23
413.945	33.55
414.151	33.4
414.357	33.47
414.564	33.39
414.77	33.31
414.976	33.11
415.182	33.09
415.389	32.95
415.595	32.76
415.801	32.77
416.007	32.8
416.214	32.72
416.42	32.77
416.626	33.11
416.832	32.97
417.038	33.06
417.244	33.1
417.45	33.04
417.657	32.94
417.863	33.19
418.069	33.02
418.275	32.86
418.481	32.8
418.687	32.94
418.893	32.65
419.099	32.72
419.305	32.75
419.511	32.69
419.717	32.61
419.923	32.73
420.129	32.67
420.335	32.69
420.541	32.71
420.746	32.51
420.952	32.36
421.158	32.58
421.364	32.64
421.57	32.57
421.776	32.55
421.982	32.6
422.187	32.62
422.393	32.68
422.599	32.83
422.805	32.87
423.01	32.88
423.216	32.8
423.422	32.64
423.628	32.65
423.833	32.6
424.039	32.6
424.245	32.48
424.45	32.32
424.656	32.27
424.862	32.06
425.067	31.95
425.273	32.16
425.478	32.23
425.684	32.26
425.889	31.9
426.095	31.86
426.301	31.84
426.506	31.78
426.712	31.84
426.917	31.69
427.123	31.77
427.328	31.92
427.533	31.77
427.739	31.54
427.944	31.21
428.15	31.21
428.355	31.26
428.561	31.3
428.766	31.28
428.971	31.29
429.177	31
429.382	30.88
429.587	30.88
429.793	30.98
429.998	31.29
430.203	31.48
430.408	31.73
430.614	31.74
430.819	31.62
431.024	31.77
431.229	31.72
431.434	32.05
431.64	32.13
431.845	32.05
432.05	31.98
432.255	32.11
432.46	32.15
432.665	32.29
432.87	32.16
433.076	32.28
433.281	32.18
433.486	32.18
433.691	32.22
433.896	32.25
434.101	32.03
434.306	31.88
434.511	31.61
434.716	31.58
434.921	31.44
435.126	31.43
435.331	31.19
435.535	31.12
435.74	31.12
435.945	31.07
436.15	30.92
436.355	31.05
436.56	31.19
436.765	31.27
436.97	31.36
437.174	31.42
437.379	31.58
437.584	31.92
437.789	32.05
437.993	32.11
438.198	31.73
438.403	31.77
438.608	31.96
438.812	31.81
439.017	31.97
439.222	31.81
439.426	31.94
439.631	31.72
439.836	31.45
440.04	31.52
440.245	31.32
440.45	31.23
440.654	31.21
440.859	31.1
441.063	31.18
441.268	31.01
441.472	30.98
441.677	30.84
441.881	30.99
442.086	31.01
442.29	30.93
442.495	30.97
442.699	31.45
442.904	31.45
443.108	31.39
443.312	31.28
443.517	31.2
443.721	31.48
443.925	31.4
444.13	31.43
444.334	31.4
444.538	31.42
444.743	31.45
444.947	31.25
445.151	31.32
445.356	31.33
445.56	31.39
445.764	31.51
445.968	31.36
446.173	31.28
446.377	31.26
446.581	31.23
446.785	31.14
446.989	31.18
447.193	31.24
447.398	31.26
447.602	31.29
447.806	31.23
448.01	31.16
448.214	31.09
448.418	30.98
448.622	30.92
448.826	30.84
449.03	30.83
449.234	30.77
449.438	30.58
449.642	30.54
449.846	30.41
450.05	30.52
450.254	30.39
450.458	30.38
450.662	30.61
450.866	30.55
451.069	30.46
451.273	30.41
451.477	30.55
451.681	30.76
451.885	30.54
452.089	30.58
452.292	30.6
452.496	30.61
452.7	30.71
452.904	30.75
453.107	30.75
453.311	31.16
453.515	31.24
453.719	30.96
453.922	30.87
454.126	31.07
454.33	31.15
454.533	30.98
454.737	30.87
454.94	30.65
455.144	30.83
455.348	30.76
455.551	30.59
455.755	30.77
455.958	30.65
456.162	30.8
456.365	30.62
456.569	30.41
456.772	30.61
456.976	30.8
457.179	30.79
457.383	30.54
457.586	30.57
457.79	30.63
457.993	30.44
458.196	30.79
458.4	30.76
458.603	30.92
458.807	31.16
459.01	31.07
459.213	31.19
459.417	31.42
459.62	31.46
459.823	31.66
460.026	31.65
460.23	31.75
460.433	31.64
460.636	31.57
460.839	31.45
461.042	31.52
461.246	31.47
461.449	31.38
461.652	31.17
461.855	31.02
462.058	30.84
462.261	30.9
462.464	30.77
462.668	30.87
462.871	30.8
463.074	30.99
463.277	30.67
463.48	30.79
463.683	30.83
463.886	31.09
464.089	31.41
464.292	31.35
464.495	31.44
464.698	31.74
464.901	31.78
465.104	31.91
465.306	31.78
465.509	31.83
465.712	31.8
465.915	31.86
466.118	31.91
466.321	31.77
466.524	31.87
466.726	31.7
466.929	31.48
467.132	31.43
467.335	31.6
467.538	31.78
467.74	31.84
467.943	31.89
468.146	31.88
468.348	31.76
468.551	31.95
468.754	31.89
468.956	32.09
469.159	32.22
469.362	32.2
469.564	32.03
469.767	32.03
469.969	32.06
470.172	31.89
470.375	31.84
470.577	31.9
470.78	31.83
470.982	31.81
471.185	31.72
471.387	31.61
471.59	31.58
471.792	31.64
471.995	31.52
472.197	31.46
472.399	31.66
472.602	31.69
472.804	31.84
473.007	31.71
473.209	31.79
473.411	31.36
473.614	31.45
473.816	31.49
474.018	31.56
474.22	31.76
474.423	31.7
474.625	31.47
474.827	31.44
475.03	31.4
475.232	31.33
475.434	31.3
475.636	31.47
475.838	31.54
476.04	31.7
476.243	31.61
476.445	31.41
476.647	31.52
476.849	31.7
477.051	31.61
477.253	31.48
477.455	31.46
477.657	31.48
477.859	31.63
478.061	31.52
478.263	31.14
478.465	31.12
478.667	31.08
478.869	31.08
479.071	31.21
479.273	31.33
479.475	31.34
479.677	31.46
479.879	31.42
480.081	31.29
480.283	31.25
480.485	31.68
480.686	31.74
480.888	31.9
481.09	31.91
481.292	31.79
481.494	31.74
481.695	31.74
481.897	31.75
482.099	31.8
482.301	31.8
482.502	31.81
482.704	31.8
482.906	31.85
483.107	31.79
483.309	31.8
483.511	31.81
483.712	31.83
483.914	31.82
484.115	31.78
484.317	31.8
484.519	31.86
484.72	31.84
484.922	31.78
485.123	31.74
485.325	31.75
485.526	31.79
485.728	31.8
485.929	31.82
486.131	31.83
486.332	31.91
486.534	31.88
486.735	31.78
486.936	31.86
487.138	31.84
487.339	31.81
487.541	31.81
487.742	31.75
487.943	31.75
488.144	31.75
488.346	31.73
488.547	31.71
488.748	31.62
488.95	31.67
489.151	31.56
489.352	31.61
489.553	31.58
489.755	31.6
489.956	31.66
490.157	31.62
490.358	31.55
490.559	31.52
490.76	31.47
490.961	31.54
491.163	31.61
491.364	31.69
491.565	31.73
491.766	31.77
491.967	31.73
492.168	31.63
492.369	31.71
492.57	31.74
492.771	31.77
492.972	31.83
493.173	31.83
493.374	31.75
493.575	31.7
493.776	31.62
493.976	31.62
494.177	31.62
494.378	31.7
494.579	31.61
494.78	31.63
494.981	31.8
495.182	31.64
495.382	31.58
495.583	31.7
495.784	31.57
495.985	31.73
496.185	31.75
496.386	31.75
496.587	31.71
496.788	31.57
496.988	31.55
497.189	31.6
497.39	31.7
497.59	31.69
497.791	31.55
497.992	31.73
498.192	31.64
498.393	31.7
498.593	31.77
498.794	31.74
498.994	31.83
499.195	31.88
499.395	31.68
499.596	31.61
499.796	31.8
499.997	31.96
500.197	32.02
500.398	32.09
500.598	32.01
500.799	31.9
500.999	31.97
501.199	31.94
501.4	32.04
501.6	32.1
501.801	32.15
502.001	31.95
502.201	32
502.402	31.89
502.602	31.74
502.802	31.79
503.002	31.71
503.203	31.84
503.403	32.01
503.603	31.92
503.803	31.97
504.003	32.01
504.204	32.11
504.404	32.08
504.604	32.18
504.804	32.23
505.004	32.16
505.204	32.31
505.404	32.15
505.604	32.13
505.804	32.07
506.005	32.03
506.205	32.11
506.405	32.27
506.605	32.02
506.805	31.93
507.005	31.94
507.204	32.18
507.404	32.17
507.604	32.18
507.804	32.1
508.004	32.21
508.204	32.18
508.404	32.13
508.604	32.02
508.804	32.15
509.003	32.29
509.203	32.31
509.403	32.21
509.603	32.23
509.803	32.16
510.002	32.34
510.202	32.39
510.402	32.37
510.602	32.45
510.801	32.38
511.001	32.52
511.201	32.5
511.4	32.43
511.6	32.32
511.8	32.4
511.999	32.56
512.199	32.47
512.398	32.45
512.598	32.46
512.797	32.61
512.997	32.72
513.197	32.59
513.396	32.5
513.596	32.55
513.795	32.63
513.994	32.67
514.194	32.49
514.393	32.45
514.593	32.42
514.792	32.42
514.992	32.21
515.191	32.22
515.39	32.41
515.59	32.61
515.789	32.66
515.988	32.67
516.188	32.63
516.387	32.74
516.586	32.97
516.786	33.04
516.985	33.23
517.184	33.34
517.383	33.4
517.582	33.3
517.782	33.32
517.981	33.34
518.18	33.42
518.379	33.52
518.578	33.5
518.777	33.48
518.976	33.43
519.176	33.35
519.375	33.3
519.574	33.39
519.773	33.52
519.972	33.48
520.171	33.42
520.37	33.5
520.569	33.34
520.768	33.42
520.967	33.33
521.166	33.28
521.365	33.43
521.564	33.44
521.762	33.42
521.961	33.35
522.16	33.33
522.359	33.44
522.558	33.38
522.757	33.44
522.956	33.36
523.154	33.24
523.353	33.35
523.552	33.19
523.751	33.09
523.949	32.96
524.148	33.09
524.347	33.2
524.546	33.19
524.744	33.28
524.943	33.36
525.142	33.44
525.34	33.64
525.539	33.61
525.737	33.65
525.936	33.65
526.135	33.61
526.333	33.47
526.532	33.5
526.73	33.59
526.929	33.62
527.127	33.73
527.326	33.77
527.524	33.73
527.723	33.77
527.921	33.75
528.12	33.79
528.318	33.79
528.516	33.8
528.715	33.76
528.913	33.71
529.112	33.7
529.31	33.62
529.508	33.59
529.707	33.6
529.905	33.53
530.103	33.51
530.301	33.52
530.5	33.62
530.698	33.71
530.896	33.74
531.094	33.71
531.293	33.66
531.491	33.72
531.689	33.74
531.887	33.76
532.085	33.86
532.283	33.94
532.481	33.95
532.68	33.85
532.878	33.78
533.076	33.82
533.274	33.87
533.472	33.88
533.67	33.8
533.868	33.78
534.066	33.71
534.264	33.74
534.462	33.77
534.66	33.81
534.858	33.81
535.056	33.76
535.253	33.65
535.451	33.59
535.649	33.64
535.847	33.76
536.045	33.78
536.243	33.81
536.441	33.78
536.638	33.71
536.836	33.63
537.034	33.73
537.232	33.78
537.43	33.83
537.627	33.84
537.825	33.81
538.023	33.83
538.22	33.85
538.418	33.8
538.616	33.71
538.813	33.77
539.011	33.68
539.209	33.6
539.406	33.67
539.604	33.78
539.801	33.88
539.999	33.93
540.196	34
540.394	34.03
540.591	34.07
540.789	34.07
540.986	34.11
541.184	34.27
541.381	34.3
541.579	34.27
541.776	34.1
541.974	34.08
542.171	33.98
542.368	33.96
542.566	33.98
542.763	33.89
542.96	34
543.158	33.9
543.355	33.74
543.552	33.75
543.75	33.78
543.947	33.95
544.144	33.77
544.341	33.83
544.539	33.7
544.736	33.77
544.933	33.87
545.13	33.73
545.327	33.86
545.524	33.94
545.722	33.82
545.919	33.8
546.116	33.72
546.313	33.85
546.51	33.92
546.707	33.99
546.904	33.91
547.101	33.93
547.298	33.95
547.495	33.87
547.692	33.89
547.889	34.01
548.086	33.98
548.283	33.93
548.48	33.87
548.677	33.78
548.874	33.7
549.07	33.69
549.267	33.78
549.464	33.71
549.661	33.55
549.858	33.47
550.055	33.42
550.251	33.49
550.448	33.83
550.645	34.01
550.842	33.86
551.038	33.94
551.235	33.92
551.432	33.68
551.628	33.86
551.825	34.22
552.022	34.31
552.218	34.3
552.415	34.35
552.612	34.05
552.808	34.04
553.005	34.25
553.201	34.2
553.398	34.08
553.594	34.22
553.791	34.21
553.987	34.07
554.184	33.86
554.38	33.84
554.577	33.6
554.773	33.76
554.97	33.73
555.166	33.64
555.362	33.67
555.559	33.59
555.755	33.33
555.952	33.42
556.148	33.58
556.344	33.76
556.541	33.65
556.737	33.78
556.933	33.72
557.129	33.72
557.326	33.62
557.522	33.69
557.718	33.87
557.914	34.05
558.11	33.65
558.307	33.52
558.503	33.62
558.699	33.67
558.895	33.78
559.091	33.72
559.287	33.69
559.483	33.64
559.679	33.51
559.876	33.6
560.072	33.68
560.268	33.85
560.464	33.8
560.66	33.72
560.856	33.96
561.052	33.95
561.247	33.8
561.443	33.72
561.639	33.75
561.835	33.85
562.031	33.83
562.227	33.93
562.423	34.05
562.619	34.29
562.815	34.31
563.01	34.3
563.206	34.35
563.402	34.57
563.598	34.67
563.793	35.05
563.989	35.01
564.185	34.93
564.381	34.86
564.576	34.72
564.772	34.43
564.968	34.36
565.163	34.25
565.359	34.34
565.555	34.48
565.75	34.61
565.946	34.39
566.141	34.39
566.337	34.39
566.532	34.53
566.728	34.51
566.923	34.69
567.119	34.96
567.314	34.76
567.51	34.46
567.705	34.23
567.901	34.09
568.096	34.17
568.292	34.04
568.487	34.04
568.682	33.9
568.878	33.98
569.073	33.72
569.268	33.48
569.464	33.58
569.659	33.72
569.854	33.9
570.05	34.11
570.245	34.25
570.44	34.55
570.635	34.53
570.831	34.5
571.026	34.5
571.221	34.61
571.416	34.48
571.611	34.65
571.806	34.65
572.002	34.57
572.197	34.4
572.392	34.28
572.587	33.95
572.782	33.96
572.977	33.87
573.172	33.82
573.367	33.85
573.562	34.22
573.757	34.18
573.952	34.16
574.147	34.1
574.342	34.12
574.537	33.93
574.732	34.24
574.927	34.2
575.121	34.3
575.316	34.21
575.511	34.18
575.706	33.85
575.901	33.91
576.096	33.85
576.29	33.85
576.485	33.96
576.68	34.13
576.875	34.02
577.069	33.95
577.264	34.02
577.459	34.22
577.654	34.29
577.848	34.28
578.043	34.08
578.238	34
578.432	34.08
578.627	33.83
578.821	33.58
579.016	33.62
579.21	33.65
579.405	33.38
579.6	33.13
579.794	33.07
579.989	33.17
580.183	33.2
580.378	33.29
580.572	33.33
580.766	33.37
580.961	33.78
581.155	33.51
581.35	33.41
581.544	33.29
581.738	33.51
581.933	33.69
582.127	33.71
582.321	33.57
582.516	33.5
582.71	33.42
582.904	33.43
583.099	33.01
583.293	33.21
583.487	33.72
583.681	33.87
583.875	33.9
584.07	33.84
584.264	34.01
584.458	34.04
584.652	34.2
584.846	34.05
585.04	34.15
585.234	34.36
585.428	34.36
585.623	34.01
585.817	34.14
586.011	34.13
586.205	34.15
586.399	34.23
586.593	34.39
586.787	34.23
586.981	34.46
587.174	34.51
587.368	34.64
587.562	34.67
587.756	34.79
587.95	34.87
588.144	34.71
588.338	34.75
588.532	34.57
588.725	34.43
588.919	34.63
589.113	34.56
589.307	34.63
589.501	34.47
589.694	34.42
589.888	34.32
590.082	34.32
590.275	34.81
590.469	34.79
590.663	34.51
590.856	34.81
591.05	34.87
591.244	34.68
591.437	34.57
591.631	34.74
591.824	34.84
592.018	34.96
592.212	34.71
592.405	34.35
592.599	34.45
592.792	34.48
592.986	34.36
593.179	34.45
593.372	34.72
593.566	34.71
593.759	34.64
593.953	34.67
594.146	34.61
594.339	34.84
594.533	35.11
594.726	34.76
594.92	35.14
595.113	35.41
595.306	35.53
595.499	35.37
595.693	35.68
595.886	35.75
596.079	35.49
596.272	35.5
596.466	35.49
596.659	35.33
596.852	35.36
597.045	35.08
597.238	34.84
597.431	34.56
597.624	34.68
597.818	34.45
598.011	34.26
598.204	34.51
598.397	34.54
598.59	34.41
598.783	34.31
598.976	34.13
599.169	34.27
599.362	34.34
599.555	34.75
599.748	34.82
599.941	34.54
600.134	34.86
600.326	34.73
600.519	34.84
600.712	35.13
600.905	34.92
601.098	35.1
601.291	34.9
601.483	34.85
601.676	34.58
601.869	34.26
602.062	34.65
602.255	34.59
602.447	34.54
602.64	34.49
602.833	34.42
603.025	34.53
603.218	34.65
603.411	34.66
603.603	34.51
603.796	34.44
603.989	34.42
604.181	34.25
604.374	34.04
604.566	34.11
604.759	34.03
604.951	34.14
605.144	34.21
605.336	34.01
605.529	34.06
605.721	34.2
605.914	34.29
606.106	34.3
606.299	34.28
606.491	34.49
606.683	34.52
606.876	34.62
607.068	34.53
607.26	34.73
607.453	35.08
607.645	35.26
607.837	35.38
608.03	35.57
608.222	35.68
608.414	35.75
608.606	35.94
608.799	36.01
608.991	36
609.183	35.45
609.375	35.28
609.567	35.08
609.759	34.99
609.952	34.93
610.144	34.66
610.336	35.08
610.528	35.11
610.72	34.56
610.912	34.49
611.104	34.53
611.296	35.09
611.488	34.89
611.68	35.16
611.872	35.21
612.064	35.14
612.256	35.11
612.448	34.61
612.64	34.61
612.832	34.97
613.023	35.04
613.215	35.05
613.407	34.75
613.599	35.3
613.791	34.92
613.983	35.16
614.174	35.09
614.366	35.11
614.558	35.27
614.75	35.25
614.941	34.91
615.133	34.7
615.325	34.48
615.516	34.57
615.708	34.1
615.9	34.23
616.091	34.23
616.283	34.48
616.475	34.48
616.666	34.47
616.858	34.61
617.049	34.8
617.241	34.92
617.432	34.82
617.624	35.08
617.815	35.35
618.007	35.36
618.198	35.09
618.39	34.95
618.581	34.79
618.773	34.61
618.964	34.61
619.155	34.55
619.347	34.47
619.538	34.94
619.729	34.61
619.921	34.43
620.112	34.49
620.303	34.54
620.494	34.52
620.686	34.91
620.877	34.97
621.068	34.96
621.259	34.86
621.451	34.83
621.642	34.1
621.833	33.92
622.024	33.69
622.215	33.59
622.406	33.41
622.597	33.34
622.788	32.81
622.98	32.89
623.171	32.58
623.362	33.15
623.553	33.19
623.744	33.58
623.935	33.97
624.126	33.91
624.317	34.05
624.508	34.24
624.698	34.24
624.889	34.41
625.08	34.35
625.271	34.65
625.462	34.53
625.653	34.75
625.844	35.03
626.034	34.85
626.225	35.32
626.416	35.19
626.607	34.96
626.798	34.97
626.988	35.3
627.179	35.23
627.37	35.28
627.56	35.1
627.751	34.83
627.942	34.71
628.132	34.76
628.323	34.46
628.514	34.39
628.704	34.61
628.895	34.9
629.085	34.7
629.276	34.7
629.466	34.34
629.657	34.37
629.847	34.39
630.038	34.15
630.228	34.07
630.419	34.21
630.609	34.46
630.8	34.4
630.99	34.23
631.181	34.64
631.371	34.68
631.561	34.68
631.752	34.84
631.942	35.06
632.132	34.87
632.323	34.93
632.513	35.11
632.703	35.02
632.893	34.81
633.084	34.9
633.274	34.75
633.464	35.17
633.654	35.26
633.844	34.96
634.034	35
634.225	35.43
634.415	35.36
634.605	35.05
634.795	35.13
634.985	35.35
635.175	35.27
635.365	34.93
635.555	34.56
635.745	34.54
635.935	34.86
636.125	34.47
636.315	34.3
636.505	34.53
636.695	34.71
636.885	34.91
637.075	34.86
637.265	34.77
637.455	34.57
637.644	34.56
637.834	34.49
638.024	34.26
638.214	34.19
638.404	34.15
638.593	34.05
638.783	34.2
638.973	33.53
639.163	33.84
639.352	33.92
639.542	34.25
639.732	34.2
639.921	34.42
640.111	34.55
640.301	34.54
640.49	34.44
640.68	34.26
640.87	33.99
641.059	34.05
641.249	34.13
641.438	34.34
641.628	34.2
641.817	34.53
642.007	34.29
642.196	34.56
642.386	34.77
642.575	34.51
642.764	34.39
642.954	34.49
643.143	35.04
643.333	34.81
643.522	34.1
643.711	34.51
643.901	34.04
644.09	34.13
644.279	33.92
644.469	33.93
644.658	34.33
644.847	34.87
645.036	35.27
645.226	35.06
645.415	35.31
645.604	35.49
645.793	35.06
645.982	35.38
646.171	35.47
646.361	35.57
646.55	35.91
646.739	36.15
646.928	35.71
647.117	35.66
647.306	35.38
647.495	34.92
647.684	35.42
647.873	35.83
648.062	36.12
648.251	36.14
648.44	35.86
648.629	35.49
648.818	35.59
649.007	35.59
649.196	35.29
649.384	35.02
649.573	35.06
649.762	35.15
649.951	34.87
650.14	34.7
650.328	34.91
650.517	35.28
650.706	35.21
650.895	34.86
651.083	35.35
651.272	35.4
651.461	35.68
651.65	36.02
651.838	35.56
652.027	35.47
652.216	35.16
652.404	35.48
652.593	35.3
652.781	35.55
652.97	35.36
653.158	35.66
653.347	35.73
653.535	36.01
653.724	35.73
653.912	36.21
654.101	36.54
654.289	36.58
654.478	36.23
654.666	36.41
654.855	36.44
655.043	36.53
655.231	35.84
655.42	35.87
655.608	35.53
655.796	35.83
655.985	35.55
656.173	35.36
656.361	35.52
656.55	35.57
656.738	35.46
656.926	35.22
657.114	35.36
657.302	35.34
657.491	34.88
657.679	35.02
657.867	35.02
658.055	34.85
658.243	34.71
658.431	34.76
658.619	34.67
658.807	34.73
658.996	34.9
659.184	34.72
659.372	34.74
659.56	34.99
659.748	34.97
659.936	34.59
660.124	34.38
660.311	34.83
660.499	34.82
660.687	34.57
660.875	34.24
661.063	34.36
661.251	34.74
661.439	35.04
661.627	34.74
661.814	34.54
662.002	34.64
662.19	34.7
662.378	34.29
662.565	33.81
662.753	34.05
662.941	34.49
663.129	34.26
663.316	34.1
663.504	33.62
663.692	33.81
663.879	34.46
664.067	34.34
664.254	35.28
664.442	35.64
664.63	36.08
664.817	35.76
665.005	35.39
665.192	35.16
665.38	34.96
665.567	35.56
665.755	35.94
665.942	35.53
666.13	36.13
666.317	35.17
666.504	34.98
666.692	34.61
666.879	34.96
667.067	34.81
667.254	34.83
667.441	35.02
667.629	35.17
667.816	34.74
668.003	34.7
668.19	33.73
668.378	34.37
668.565	34.66
668.752	34.97
668.939	34.99
669.127	35.16
669.314	35.32
669.501	35.41
669.688	34.87
669.875	35.01
670.062	35.57
670.249	36.17
670.436	35.8
670.623	35.67
670.81	35.9
670.997	36.2
671.184	35.93
671.371	36.07
671.558	35.91
671.745	36.17
671.932	36.09
672.119	35.74
672.306	35.95
672.493	35.54
672.68	35.24
672.867	35.04
673.054	34.46
673.24	34.67
673.427	34.42
673.614	34.6
673.801	35.04
673.988	35.21
674.174	35.29
674.361	34.95
674.548	35.61
674.734	35.85
674.921	35.75
675.108	35.83
675.294	36.12
675.481	36.57
675.668	36.47
675.854	36
676.041	35.5
676.227	35.15
676.414	35.38
676.601	35.69
676.787	35.44
676.974	35.4
677.16	35.47
677.347	35.59
677.533	35.31
677.719	35.18
677.906	34.98
678.092	35.69
678.279	35.8
678.465	35.77
678.651	35.46
678.838	35.47
679.024	35.48
679.21	35.71
679.397	35.7
679.583	35.38
679.769	35.12
679.955	35.14
680.142	34.75
680.328	34.87
680.514	34.59
680.7	34.35
680.886	34.69
681.073	34.88
681.259	34.5
681.445	34.41
681.631	34.8
681.817	34.85
682.003	34.99
682.189	34.99
682.375	34.87
682.561	35.08
682.747	34.91
682.933	34.44
683.119	34.02
683.305	34.53
683.491	34.52
683.677	34.16
683.863	34.27
684.049	33.9
684.235	34.03
684.42	34.15
684.606	33.83
684.792	34.43
684.978	34.63
685.164	34.61
685.349	33.95
685.535	34.37
685.721	34.48
685.907	34.3
686.092	34.71
686.278	35.02
686.464	35.03
686.649	35.93
686.835	35.61
687.021	35.26
687.206	35.06
687.392	35.18
687.577	34.64
687.763	34.76
687.948	35.34
688.134	34.93
688.319	35.2
688.505	35.01
688.69	34.54
688.876	34.29
689.061	34.61
689.247	35.43
689.432	35.42
689.618	35.21
689.803	35.19
689.988	34.83
690.174	35.23
690.359	35.07
690.544	35.46
690.73	35.44
690.915	35.87
691.1	35.39
691.285	35.38
691.471	35.28
691.656	35.58
691.841	35.44
692.026	35.48
692.211	35.45
692.396	34.63
692.582	34.59
692.767	34.49
692.952	34.05
693.137	34.1
693.322	33.65
693.507	34.17
693.692	34.16
693.877	33.82
694.062	34.17
694.247	34.15
694.432	35.22
694.617	34.67
694.802	34.68
694.987	35.51
695.172	35.63
695.357	35.86
695.541	35.63
695.726	35.98
695.911	36.34
696.096	36.24
696.281	36.12
696.466	36.15
696.65	36.85
696.835	36.64
697.02	35.97
697.204	36.03
697.389	36.2
697.574	36.05
697.759	35.93
697.943	35.88
698.128	35.92
698.312	36.41
698.497	36.36
698.682	36.18
698.866	36.42
699.051	36.72
699.235	36.91
699.42	36.51
699.604	36.78
699.789	36.24
699.973	36.53
700.158	36.21
700.342	35.81
700.527	35.36
700.711	35.17
700.895	35.13
701.08	34.94
701.264	34.94
701.448	35.51
701.633	35.49
701.817	36.06
702.001	35.94
702.186	36.91
702.37	36.99
702.554	37.16
702.738	37.85
702.923	37.97
703.107	38.03
703.291	37.48
703.475	37.43
703.659	37.95
703.843	38.14
704.027	38.64
704.212	38.31
704.396	38.72
704.58	38.69
704.764	38.04
704.948	37.65
705.132	38.01
705.316	38.67
705.5	37.78
705.684	37.25
705.868	37.55
706.052	37.77
706.235	37.23
706.419	36.35
706.603	35.98
706.787	36.42
706.971	36.89
707.155	36.72
707.339	36.29
707.522	36.78
707.706	36.71
707.89	36.23
708.074	35.28
708.257	35.42
708.441	36.09
708.625	36.94
708.808	36.43
708.992	36.27
709.176	35.36
709.359	35.92
709.543	35.74
709.727	36.19
709.91	36.2
710.094	35.78
710.277	35.76
710.461	35.19
710.644	34.09
710.828	34.43
711.011	34.35
711.195	34.98
711.378	34.57
711.562	34.35
711.745	33.74
711.928	33.56
712.112	34.97
712.295	34.72
712.478	35.03
712.662	36.05
712.845	36.36
713.028	36.43
713.212	36.57
713.395	36.74
713.578	37.36
713.761	37.2
713.945	37.61
714.128	36.52
714.311	36.58
714.494	37.06
714.677	36.72
714.86	36.13
715.043	35.75
715.227	35.68
715.41	35.58
715.593	35.47
715.776	35.51
715.959	35.28
716.142	35.55
716.325	36.18
716.508	35.34
716.691	35.53
716.874	35.78
717.057	35.04
717.239	34.45
717.422	34.22
717.605	34.8
717.788	34.5
717.971	35.2
718.154	35.57
718.337	35.28
718.519	35.81
718.702	35.66
718.885	34.97
719.068	36.03
719.25	36.66
719.433	36.89
719.616	36.47
719.798	37.38
719.981	36.47
720.164	36.07
720.346	36.54
720.529	37.25
720.712	36.66
720.894	36.97
721.077	37.09
721.259	37.26
721.442	38.12
721.624	37.71
721.807	37.57
721.989	37.94
722.172	38.07
722.354	37.67
722.537	36.59
722.719	37.62
722.901	37.48
723.084	37.4
723.266	37.21
723.448	35.98
723.631	36
723.813	35.19
723.995	34.32
724.178	33.75
724.36	34.1
724.542	33.89
724.724	32.43
724.907	33.24
725.089	32.74
725.271	32.88
725.453	33.49
725.635	33.34
725.817	34.47
725.999	34.71
726.181	35.04
726.364	34.66
726.546	35.61
726.728	36.15
726.91	35.64
727.092	36.35
727.274	36.19
727.456	35.76
727.638	36.68
727.819	36.26
728.001	36.55
728.183	35.84
728.365	35.37
728.547	34.64
728.729	34.72
728.911	35.67
729.093	35.34
729.274	35.31
729.456	35.84
729.638	34.54
729.82	34.75
730.001	35.04
730.183	36.03
730.365	36.52
730.546	37.39
730.728	37.3
730.91	37.28
731.091	36.91
731.273	36.32
731.455	35.75
731.636	36.24
731.818	35.62
731.999	34.66
732.181	34.16
732.362	33.6
732.544	32.67
732.725	32.88
732.907	31.54
733.088	30.9
733.27	31.35
733.451	31.98
733.633	31.98
733.814	32.57
733.995	33.05
734.177	33.23
734.358	34.07
734.539	34.9
734.721	35.32
734.902	35.95
735.083	36.35
735.264	36.42
735.446	36.81
735.627	36.07
735.808	36.22
735.989	36.41
736.17	36.06
736.351	35.6
736.533	35.74
736.714	35.44
736.895	35.49
737.076	36.99
737.257	37.35
737.438	35.74
737.619	37.57
737.8	36.6
737.981	36.53
738.162	36.94
738.343	36.25
738.524	35.65
738.705	35.68
738.886	36.22
739.067	36.2
739.247	36.19
739.428	37.42
739.609	36.18
739.79	35.76
739.971	36.42
740.151	37.26
740.332	38.63
740.513	38.59
740.694	38.51
740.874	37.4
741.055	36.73
741.236	37.17
741.417	36.05
741.597	36.77
741.778	38.74
741.958	37.98
742.139	37.91
742.32	35.37
742.5	36.07
742.681	36.57
742.861	36.05
743.042	36.85
743.222	35.59
743.403	36.71
743.583	36.06
743.764	35.75
743.944	36.54
744.124	34.97
744.305	37.22
744.485	37.5
744.666	36.53
744.846	37.16
745.026	35.54
745.207	36.09
745.387	36.62
745.567	36.69
745.747	36.04
745.928	34.86
746.108	34.08
746.288	33.21
746.468	32.28
746.648	31.57
746.829	31.61
747.009	31.81
747.189	32.2
747.369	32.12
747.549	32.2
747.729	33.14
747.909	34.54
748.089	35.43
748.269	35.01
748.449	34.93
748.629	37.12
748.809	36.71
748.989	35.96
749.169	35.23
749.349	33.04
749.529	32.67
749.709	32.46
749.889	30.96
750.068	30.36
750.248	32.15
750.428	31.96
750.608	31.24
750.788	30.56
750.967	32.23
751.147	33
751.327	34.56
751.507	34.28
751.686	34.03
751.866	35
752.046	35.94
752.225	35.54
752.405	35.49
752.585	34.59
752.764	37.05
752.944	37.01
753.123	37.19
753.303	38.34
753.482	39.18
753.662	38.98
753.841	38.36
754.021	37.46
754.2	36.72
754.38	35.72
754.559	35.5
754.739	34.3
754.918	34.36
755.097	33.5
755.277	32.17
755.456	32.37
755.635	31.78
755.815	30.82
755.994	31.6
756.173	32.37
756.352	34.56
756.532	36.43
756.711	36.62
756.89	36.98
757.069	37.74
757.248	38.42
757.427	38.41
757.607	38.57
757.786	40.35
757.965	40.35
758.144	39.31
758.323	38.71
758.502	36.63
758.681	37.25
758.86	35.83
759.039	35.18
759.218	35.07
759.397	34.34
759.576	34.51
759.755	34.05
759.934	35.46
760.113	36.12
760.291	35.1
760.47	37.21
760.649	37.32
760.828	38.74
761.007	39.85
761.186	39.15
761.364	40.28
761.543	40.35
761.722	40.89
761.901	40.2
762.079	40.53
762.258	39.61
762.437	39.61
762.615	38.84
762.794	38.05
762.972	37.2
763.151	37.19
763.33	36.29
763.508	36.31
763.687	36.26
763.865	36.11
764.044	35.3
764.222	35.69
764.401	34.64
764.579	35.45
764.758	35.61
764.936	36.88
765.114	37.03
765.293	37.65
765.471	38.34
765.65	37.64
765.828	37.58
766.006	38.7
766.184	38.86
766.363	40.08
766.541	39.13
766.719	38.87
766.898	37.25
767.076	36.38
767.254	36.19
767.432	35.87
767.61	35.92
767.788	36.74
767.967	36.78
768.145	37.05
768.323	35.94
768.501	34.96
768.679	34.7
768.857	34.95
769.035	36.86
769.213	35.72
769.391	35.2
769.569	36.31
769.747	36.42
769.925	34.3
770.103	36.77
770.281	38.9
770.459	41.11
770.636	42.07
770.814	39.79
770.992	37.94
771.17	38.56
771.348	39.29
771.525	37.29
771.703	36.93
771.881	38.14
772.059	35.66
772.236	33.57
772.414	32.72
772.592	30.92
772.769	33.35
772.947	35.77
773.125	36.44
773.302	34.98
773.48	37.45
773.657	35.05
773.835	34.98
774.013	35.8
774.19	36.85
774.368	37.44
774.545	38.57
774.723	38.65
774.9	36.19
775.077	36.63
775.255	38.03
775.432	38.14
775.61	39.94
775.787	40.83
775.964	39.74
776.142	39.98
776.319	39.51
776.496	43.36
776.674	43.35
776.851	45.69
777.028	42.98
777.205	43.6
777.382	43.48
777.56	40.9
777.737	41.59
777.914	41.61
778.091	40.23
778.268	38.19
778.445	33.65
778.622	34.94
778.8	34.02
778.977	34.56
779.154	30.86
779.331	27.98
779.508	30.52
779.685	26.84
779.862	27.75
780.038	27.73
780.215	30.58
780.392	31.04
780.569	30.02
780.746	30.31
780.923	34.03
781.1	36.2
781.277	36.83
781.453	34.73
781.63	37.62
781.807	38.87
781.984	38.16
782.16	37.93
782.337	38.69
782.514	37.74
782.691	37.88
782.867	36.8
783.044	38.9
783.221	40.54
783.397	43.35
783.574	43.28
783.75	41.63
783.927	42.21
784.103	41.47
784.28	41.7
784.456	44.26
784.633	43.5
784.809	43.01
784.986	41.09
785.162	40.83
785.339	36.41
785.515	35.72
785.692	36.9
785.868	37.2
786.044	36.97
786.221	36.37
786.397	35.72
786.573	34.75
786.749	35.27
786.926	34.46
787.102	33.23
787.278	35.44
787.454	35.51
787.631	37.28
787.807	35.87
787.983	36.23
788.159	36.25
788.335	33.53
788.511	33.65
788.687	32.89
788.863	35.17
789.039	37.64
789.216	38.47
789.392	39.51
789.568	36.96
789.744	40.04
789.919	39.75
790.095	38.78
790.271	42.2
790.447	44.58
790.623	45.79
790.799	45.16
790.975	44.82
791.151	45.53
791.327	45.05
791.502	44.8
791.678	41.52
791.854	39.29
792.03	39.98
792.205	39.51
792.381	37.52
792.557	36.58
792.733	36.53
792.908	36.09
793.084	35.02
793.259	37.07
793.435	35.13
793.611	37.34
793.786	40.79
793.962	41.11
794.137	41.68
794.313	41.07
794.488	37.85
794.664	39.74
794.839	39
795.015	35.94
795.19	32.43
795.366	33.13
795.541	29.9
795.716	26.93
795.892	24.18
796.067	23.13
796.242	25.2
796.418	30.13
796.593	25.87
796.768	25.12
796.944	26.45
797.119	26.98
797.294	27.12
797.469	30.45
797.644	32.94
797.82	37.6
797.995	36.73
798.17	36.46
798.345	34.05
798.52	36.48
798.695	39.36
798.87	38.79
799.045	39.1
799.22	39.2
799.395	37.42
799.57	34.14
799.745	32.51
799.92	35.36
800.095	36.72
800.27	38.57
800.445	37.29
800.62	36.47
800.795	39.89
800.97	37.65
801.145	39.54
801.319	38.14
801.494	41.9
801.669	39.43
801.844	34.55
802.018	32.42
802.193	30.63
802.368	31.15
802.543	32.18
802.717	31.8
802.892	33
803.067	35.61
803.241	41.4
803.416	41.97
803.59	44.79
803.765	47.75
803.94	47.73
804.114	48.99
804.289	50.02
804.463	48.45
804.638	45.47
804.812	46.19
804.986	44.53
805.161	42.01
805.335	41.92
805.51	39.45
805.684	39.1
805.858	38.86
806.033	37.22
806.207	36.91
806.381	36.31
806.556	34.63
806.73	35.49
806.904	34.75
807.078	36.33
807.253	35.89
807.427	34.57
807.601	34.58
807.775	34.3
807.949	36.08
808.123	38.18
808.298	41.26
808.472	43.07
808.646	40.59
808.82	40.89
808.994	37.78
809.168	36.4
809.342	38.21
809.516	41.93
809.69	43.29
809.864	40.93
810.038	40.63
810.212	36.88
810.385	43.32
810.559	46.5
810.733	47.99
810.907	47.8
811.081	48.25
811.255	51.66
811.428	51.37
811.602	53.34
811.776	55.37
811.95	51.29
812.123	53.63
812.297	46.9
812.471	48.26
812.644	45.31
812.818	46.65
812.992	49.18
813.165	45.29
813.339	45.86
813.512	42.05
813.686	42.19
813.86	45.31
814.033	45.09
814.207	47.83
814.38	44.91
814.554	47.2
814.727	45.73
814.9	44
815.074	50.7
815.247	50.33
815.421	53.3
815.594	52.69
815.767	51.83
815.941	53.99
816.114	54.92
816.287	58.56
816.46	57.3
816.634	56.91
816.807	57.65
816.98	55.62
817.153	50.94
817.327	45.45
817.5	44.03
817.673	47.09
817.846	45.92
818.019	38.87
818.192	36.87
818.365	36.35
818.538	36.53
818.711	35.05
818.884	30.23
819.057	33.52
819.23	36.37
819.403	37.38
819.576	28.8
819.749	23.3
819.922	29.15
820.095	27.5
820.268	29.04
820.441	31.32
820.614	33.68
820.786	34.41
820.959	33.65
821.132	34.81
821.305	35.66
821.477	39.22
821.65	38.65
821.823	38.54
821.996	40.05
822.168	39.04
822.341	39.04
822.514	38.14
822.686	38.72
822.859	38.62
823.031	38.25
823.204	38.05
823.376	37.2
823.549	37.97
823.722	37.72
823.894	37.09
824.067	38.28
824.239	37.35
824.411	38.98
824.584	39.04
824.756	39.95
824.929	39.79
825.101	39.62
825.273	38.84
825.446	39.18
825.618	39.3
825.79	38.6
825.963	39.13
826.135	39.51
826.307	37.43
826.479	36.56
826.652	36.9
826.824	37.15
826.996	36.94
827.168	38.94
827.34	38.93
827.512	39.07
827.684	40.73
827.856	39.92
828.029	40.93
828.201	40.87
828.373	40.65
828.545	40.16
828.717	40.13
828.889	41.8
829.061	40.99
829.232	40.46
829.404	40.19
829.576	39.59
829.748	39.24
829.92	38.49
830.092	38.76
830.264	40.98
830.436	38.41
830.607	39.05
830.779	36.52
830.951	39.2
831.123	37.31
831.294	39.3
831.466	38.39
831.638	36.92
831.809	37.06
831.981	40.16
832.153	40.52
832.324	44.43
832.496	43.22
832.667	43.97
832.839	44.98
833.011	46.35
833.182	44.49
833.354	43.18
833.525	44.91
833.697	44.33
833.868	43.76
834.039	41.08
834.211	37.41
834.382	38.76
834.554	39.43
834.725	37.74
834.896	37.27
835.068	37.98
835.239	38.36
835.41	39.42
835.581	40.17
835.753	37.32
835.924	37.53
836.095	38.12
836.266	39.19
836.438	37.74
836.609	36.56
836.78	37.92
836.951	36.03
837.122	38.78
837.293	35.4
837.464	34.07
837.635	38.35
837.806	40
837.977	42.97
838.148	39.67
838.319	39.79
838.49	43.47
838.661	45.47
838.832	49.72
839.003	49.67
839.174	51.37
839.345	55.83
839.516	56.16
839.687	58.13
839.857	58.57
840.028	58.91
840.199	63.34
840.37	63.15
840.54	60.14
840.711	61.24
840.882	58.99
841.053	57.12
841.223	50.1
841.394	50.78
841.564	45.98
841.735	45.42
841.906	46.45
842.076	45.14
842.247	44.41
842.417	44.6
842.588	37.57
842.758	40.21
842.929	40.14
843.099	43.76
843.27	44.52
843.44	46.3
843.611	43.91
843.781	45.29
843.951	40.48
844.122	35.79
844.292	38.5
844.462	44.05
844.633	43.93
844.803	48.43
844.973	49.46
845.144	48.46
845.314	45.39
845.484	47.41
845.654	47.64
845.824	56.81
845.995	65.57
846.165	67.64
846.335	69.61
846.505	71.95
846.675	64.79
846.845	66.02
847.015	70.1
847.185	77.79
847.355	77.41
847.525	75.99
847.695	70.78
847.865	62.24
848.035	60.56
848.205	60.6
848.375	49.84
848.545	53.46
848.715	52.87
848.884	46.9
849.054	45.02
849.224	49.37
849.394	48.19
849.564	52.02
849.733	51.69
849.903	47.67
850.073	51.89
850.243	58.56
850.412	57.61
850.582	59.95
850.752	59.66
850.921	63.24
851.091	66.43
851.26	73.21
851.43	71.38
851.599	69.62
851.769	80.55
851.939	72.84
852.108	66.8
852.278	74.66
852.447	66.36
852.616	57.24
852.786	50.32
852.955	44.7
853.125	39.35
853.294	39.06
853.463	33.06
853.633	35.1
853.802	36.63
853.971	39.61
854.141	32.08
854.31	39.16
854.479	55.7
854.648	57.31
854.818	58.8
854.987	58.37
855.156	64.81
855.325	72.25
855.494	74.05
855.663	75
855.832	70.29
856.001	76.13
856.171	72.98
856.34	71.91
856.509	71.76
856.678	67.84
856.847	66.5
857.016	72.8
857.185	73.49
857.353	68.75
857.522	58.53
857.691	54.07
857.86	58.52
858.029	65.23
858.198	69.25
858.367	65.35
858.535	76.72
858.704	79.38
858.873	66.9
859.042	61.67
859.21	58.06
859.379	65.32
859.548	59.25
859.717	48.9
859.885	52.53
860.054	46.52
860.222	51.8
860.391	48.71
860.56	44.21
860.728	46.04
860.897	51.12
861.065	54.53
861.234	53.72
861.402	59.36
861.571	61.33
861.739	51.7
861.908	36.07
862.076	36.47
862.244	47.38
862.413	44.31
862.581	40.03
862.749	30.53
862.918	23.53
863.086	24.6
863.254	27.85
863.423	24.98
863.591	21.61
863.759	41.9
863.927	41.58
864.096	27.66
864.264	42.2
864.432	48.86
864.6	60.37
864.768	56.6
864.936	57.41
865.104	60.08
865.272	69.46
865.44	77.12
865.608	69.94
865.776	71.75
865.944	73.61
866.112	69.57
866.28	61.4
866.448	53.91
866.616	56.74
866.784	55.01
866.952	54.58
867.12	53.4
867.288	44.86
867.455	51.4
867.623	49.08
867.791	45.3
867.959	44.82
868.127	50.16
868.294	57.27
868.462	56.84
868.63	51.38
868.797	53.04
868.965	56.94
869.133	66.03
869.3	62.85
869.468	69.07
869.636	79.47
869.803	73.66
869.971	76.69
870.138	71.03
870.306	75.72
870.473	77.88
870.641	69.92
870.808	57.1
870.975	62.83
871.143	63.18
871.31	64.25
871.478	58.48
871.645	74.52
871.812	70.44
871.98	87.06
872.147	79.61
872.314	83.82
872.482	82.66
872.649	88.5
872.816	82.03
872.983	86.13
873.15	85.1
873.318	90.48
873.485	86.06
873.652	77.34
873.819	65.28
873.986	56.24
874.153	63.93
874.32	74.73
874.487	68.71
874.654	70.12
874.821	57.9
874.988	61.81
875.155	54.9
875.322	57.05
875.489	70.81
875.656	76.59
875.823	93.72
875.99	85.19
876.157	71.22
876.324	70.51
876.49	80.3
876.657	89.39
876.824	77.4
876.991	87.62
877.157	76.97
877.324	67.27
877.491	60.54
877.658	65.31
877.824	64.06
877.991	63.79
878.157	59
878.324	50.46
878.491	54.86
878.657	61.09
878.824	62.54
878.99	74
879.157	83.51
879.323	76.26
879.49	67.28
879.656	61.16
879.823	68.07
879.989	81.34
880.156	82.97
880.322	67.84
880.488	64.79
880.655	62.34
880.821	59.58
880.987	57.37
881.154	60
881.32	52.17
881.486	52.88
881.652	57.29
881.819	51.53
881.985	53.43
882.151	52.71
882.317	49.57
882.483	47.4
882.649	41.35
882.816	39.3
882.982	38.7
883.148	41.15
883.314	40.8
883.48	38.56
883.646	37.32
883.812	36.43
883.978	36.25
884.144	38.57
884.31	41.92
884.476	45.8
884.642	45.71
884.807	45.63
884.973	43.17
885.139	42.99
885.305	42.23
885.471	47.12
885.637	48.55
885.802	48.64
885.968	48.74
886.134	42.8
886.3	38.99
886.465	42.96
886.631	44.2
886.797	52.81
886.962	53.64
887.128	51.28
887.293	50.76
887.459	47.92
887.625	58.37
887.79	61.54
887.956	68.69
888.121	72.2
888.287	74.05
888.452	78.58
888.618	72.2
888.783	78.91
