Data from 2938036_Reflection_2.txt Node
Date: Sun Jul 12 14:49:23 EDT 2015
User: robert
Spectrometer: USB4E03001
Autoset integration time: false
Trigger mode: 4
Integration Time (sec): 1.000000E-1
Scans to average: 10
Electric dark correction enabled: true
Nonlinearity correction enabled: false
Boxcar width: 5
Stray light correction enabled: false
XAxis mode: Wavelengths
Stop averaging: false
Number of Pixels in Spectrum: 3648
>>>>>Begin Spectral Data<<<<<
177.566	24.08
177.785	-35.46
178.005	141.75
178.225	131.61
178.445	173.04
178.665	215.97
178.885	388.22
179.105	23.51
179.324	33.31
179.544	75.49
179.764	22.71
179.984	44.59
180.204	17.05
180.423	38.89
180.643	77.45
180.863	82.5
181.083	97.36
181.302	64.81
181.522	59.47
181.742	63.03
181.961	26.03
182.181	61.97
182.401	66.96
182.621	59.56
182.84	26.42
183.06	29.02
183.279	55.72
183.499	11.31
183.719	14.64
183.938	-15.2
184.158	1.95
184.377	-84.5
184.597	105.18
184.816	114.26
185.036	462
185.256	-223.28
185.475	-100.93
185.695	-264.23
185.914	-276.26
186.134	879.96
186.353	581.25
186.572	-708.63
186.792	-5041.25
187.011	504.7
187.231	396.1
187.45	379.48
187.67	260.39
187.889	489.53
188.108	317.76
188.328	44.42
188.547	194.31
188.766	122.92
188.986	93.23
189.205	137.64
189.424	122.22
189.644	105.42
189.863	104.59
190.082	133.96
190.302	329.02
190.521	577.48
190.74	1031.82
190.959	553.74
191.178	-119.71
191.398	-185.48
191.617	-227.84
191.836	-74.66
192.055	-1255
192.274	-135.53
192.494	-108.45
192.713	-360.81
192.932	-170.3
193.151	-104.83
193.37	-19.6
193.589	30.53
193.808	-24.1
194.027	-72.48
194.246	-31.89
194.465	-23.17
194.685	-9.21
194.904	16.51
195.123	63.52
195.342	67.51
195.561	-47.97
195.78	17.63
195.999	66.78
196.218	6.08
196.436	-100.86
196.655	18.89
196.874	-6.63
197.093	158.26
197.312	213.75
197.531	1079.46
197.75	6.61
197.969	266.62
198.188	-58.98
198.407	644.44
198.625	-25.8
198.844	-207.08
199.063	158.5
199.282	-255.99
199.501	71.26
199.719	135.37
199.938	254.72
200.157	265.64
200.376	454.26
200.594	167.43
200.813	-556.6
201.032	781.76
201.251	376.19
201.469	190.16
201.688	-35.59
201.907	34.95
202.125	75.75
202.344	49.27
202.563	-340.52
202.781	111.95
203	160.32
203.218	88.78
203.437	114.93
203.656	53.65
203.874	-13.46
204.093	-17.55
204.311	-42.81
204.53	-39.06
204.748	-16.6
204.967	-34.14
205.185	-59.35
205.404	-82.74
205.622	-60.17
205.841	-98.34
206.059	-69.26
206.278	-76.35
206.496	-80.88
206.715	-25.52
206.933	-543.49
207.151	-133.36
207.37	271.71
207.588	170.91
207.806	172.13
208.025	86.03
208.243	83.92
208.461	81.54
208.68	64.11
208.898	96.65
209.116	110.98
209.335	-22.18
209.553	149.86
209.771	59.87
209.989	139.5
210.208	84.21
210.426	3.25
210.644	-46.74
210.862	-38.62
211.081	-32.08
211.299	-36.18
211.517	-3.36
211.735	67.14
211.953	112.49
212.171	222.2
212.39	206.34
212.608	311.44
212.826	-929.28
213.044	747.74
213.262	413.1
213.48	312.66
213.698	599.74
213.916	133.75
214.134	-74.56
214.352	35.85
214.57	82.23
214.788	526.76
215.006	-265.82
215.224	-153.8
215.442	-17.36
215.66	45.13
215.878	11.24
216.096	-19.74
216.314	-58.45
216.532	-124.6
216.75	-6.88
216.968	-127.75
217.185	-94.72
217.403	-21.04
217.621	28.84
217.839	39.42
218.057	25.25
218.275	-142.57
218.492	157.38
218.71	776.6
218.928	251.78
219.146	-307.02
219.363	-147.16
219.581	-252.49
219.799	-658.65
220.017	-118.21
220.234	-81.82
220.452	-74.75
220.67	1992.59
220.887	2093.55
221.105	-264.13
221.323	-119.38
221.54	-263.48
221.758	382.45
221.976	727.41
222.193	-262.91
222.411	745.28
222.629	238.03
222.846	577.79
223.064	-402.41
223.281	-647.06
223.499	271.36
223.716	149.67
223.934	-9012.2
224.151	-243.74
224.369	-78.31
224.586	-31.63
224.804	-6.74
225.021	-14.27
225.239	-1.93
225.456	22.68
225.674	38.29
225.891	45.39
226.108	42.84
226.326	42.37
226.543	42.27
226.76	17.73
226.978	10.75
227.195	9.71
227.413	8.62
227.63	7.58
227.847	2.01
228.064	-4.87
228.282	-5.17
228.499	-7.77
228.716	-2.18
228.934	2.82
229.151	7.96
229.368	8.43
229.585	6.2
229.802	7.2
230.02	5.67
230.237	7.33
230.454	6.85
230.671	8.51
230.888	9.47
231.105	6.38
231.323	3.94
231.54	-3.58
231.757	-3.37
231.974	3.19
232.191	3.83
232.408	5.19
232.625	3.27
232.842	4.49
233.059	2.24
233.276	6.54
233.493	7.62
233.71	10.76
233.927	14.67
234.144	5.41
234.361	0.03
234.578	-3.47
234.795	-2.71
235.012	-5.09
235.229	-2
235.446	-2.14
235.663	-0.62
235.879	-3.43
236.096	-6.98
236.313	-13.82
236.53	-4.18
236.747	-6.44
236.964	-6.76
237.181	1.41
237.397	10
237.614	6.59
237.831	10.6
238.048	6.42
238.264	8.32
238.481	9.93
238.698	14.49
238.915	10.73
239.131	12.95
239.348	10.14
239.565	7.13
239.781	4.61
239.998	3.51
240.215	4.42
240.431	6.62
240.648	10.77
240.865	5.48
241.081	6.18
241.298	5.79
241.514	6.26
241.731	9.6
241.947	8.03
242.164	8.05
242.38	8.24
242.597	6.01
242.814	5.07
243.03	3.61
243.246	4.67
243.463	3.97
243.679	3.37
243.896	1.95
244.112	-0.07
244.329	0.41
244.545	-0
244.762	-1.91
244.978	0.46
245.194	-0.84
245.411	-1.99
245.627	-1.64
245.843	-0.25
246.06	2.45
246.276	4.51
246.492	4.17
246.709	5.13
246.925	4.06
247.141	5.06
247.357	3.36
247.574	4.17
247.79	4.5
248.006	5.02
248.222	4.8
248.439	4.72
248.655	4.66
248.871	4.84
249.087	3.2
249.303	3.4
249.519	5.16
249.736	7.42
249.952	6.13
250.168	8.98
250.384	8.74
250.6	10.41
250.816	8.52
251.032	6.55
251.248	8.24
251.464	8.55
251.68	11.09
251.896	8.79
252.112	7.45
252.328	8.23
252.544	8.07
252.76	7.29
252.976	5.63
253.192	7.06
253.408	8.05
253.624	8.33
253.84	8.44
254.056	3.76
254.272	3.95
254.487	4.08
254.703	3.6
254.919	-2.71
255.135	-3.46
255.351	-3.33
255.567	-5.2
255.782	-6.49
255.998	-6.33
256.214	-8.05
256.43	-3.98
256.646	-5.44
256.861	-3.35
257.077	-0.57
257.293	2.17
257.508	4.72
257.724	3.72
257.94	4.78
258.155	5.6
258.371	5.4
258.587	5.43
258.802	4.75
259.018	5.09
259.234	3.64
259.449	4.12
259.665	4.82
259.88	4.74
260.096	6.16
260.312	6.26
260.527	6.81
260.743	6.03
260.958	6.17
261.174	6.47
261.389	7.88
261.605	10.07
261.82	10.11
262.036	10.15
262.251	11.17
262.466	11.55
262.682	10.48
262.897	9.18
263.113	10.77
263.328	12.56
263.543	11.46
263.759	6.51
263.974	4.28
264.189	3.58
264.405	4.5
264.62	4.56
264.835	0.76
265.051	2.55
265.266	3.73
265.481	1.57
265.696	-1.69
265.912	-0.36
266.127	3.38
266.342	3.82
266.557	3.65
266.773	1.23
266.988	-0.96
267.203	0.48
267.418	1.68
267.633	0.34
267.848	3.75
268.064	6.04
268.279	6.29
268.494	4.4
268.709	3.18
268.924	2.28
269.139	3.92
269.354	5.9
269.569	4.92
269.784	3.62
269.999	4.31
270.214	1.07
270.429	0.87
270.644	0.84
270.859	2.18
271.074	4.16
271.289	5.48
271.504	5.59
271.719	4.88
271.934	4.93
272.149	4.31
272.363	4.19
272.578	5.37
272.793	4.97
273.008	5.63
273.223	4.55
273.438	3.94
273.653	4.02
273.867	3.98
274.082	3.2
274.297	1.89
274.512	0.06
274.726	-1.41
274.941	-1.95
275.156	-0.73
275.371	-1.85
275.585	-0.39
275.8	-3.2
276.015	-4.1
276.229	-5.13
276.444	-3.83
276.659	-2.66
276.873	0.89
277.088	3.2
277.302	3.33
277.517	1.64
277.732	0.6
277.946	-0.8
278.161	0.48
278.375	0.95
278.59	0.84
278.804	0.6
279.019	1.31
279.233	-0.65
279.448	-0.49
279.662	-1.69
279.877	-0.89
280.091	-0.03
280.306	2.64
280.52	3.75
280.735	2.72
280.949	2.87
281.163	4.14
281.378	3.62
281.592	4.37
281.806	3.48
282.021	5.46
282.235	6.56
282.449	8.9
282.664	7.19
282.878	7.84
283.092	9.22
283.307	10.23
283.521	8.13
283.735	10.17
283.949	10.76
284.164	10.91
284.378	9.38
284.592	8.9
284.806	6.62
285.02	6.73
285.234	5.17
285.449	4.02
285.663	4.32
285.877	6.55
286.091	5.92
286.305	6.45
286.519	5.77
286.733	7.2
286.947	6.77
287.161	7.52
287.375	7.65
287.589	8.85
287.803	9.09
288.017	8.21
288.231	5.47
288.445	4.59
288.659	2.89
288.873	5.48
289.087	4.55
289.301	4.28
289.515	4.71
289.729	3.88
289.943	4.48
290.157	5.06
290.371	3.81
290.584	4.99
290.798	6.39
291.012	8.23
291.226	6.81
291.44	7.13
291.654	7.32
291.867	7.71
292.081	10.11
292.295	9.75
292.509	10.43
292.722	13.21
292.936	13.17
293.15	12.49
293.364	10.76
293.577	10.01
293.791	9.13
294.005	9.9
294.218	7.74
294.432	5.82
294.645	4.4
294.859	4.1
295.073	2.86
295.286	1.86
295.5	0.73
295.713	0.79
295.927	1.2
296.14	1.1
296.354	0.6
296.568	2.03
296.781	2.88
296.994	3.45
297.208	2.62
297.421	2.39
297.635	2.56
297.848	2.59
298.062	3.19
298.275	2.99
298.489	3.68
298.702	3.13
298.915	2.68
299.129	1.33
299.342	1.21
299.555	0.23
299.769	0.29
299.982	1.19
300.195	1.44
300.409	1.15
300.622	1.56
300.835	1.38
301.048	3.68
301.262	3.9
301.475	4.71
301.688	3.54
301.901	5.63
302.115	6.68
302.328	5.99
302.541	5.88
302.754	5.45
302.967	6.78
303.18	6.41
303.393	5.15
303.607	4.27
303.82	5.48
304.033	6.2
304.246	5.49
304.459	4.89
304.672	4.89
304.885	5.41
305.098	6.01
305.311	4.09
305.524	4.36
305.737	3.43
305.95	3.81
306.163	1.65
306.376	3.59
306.589	3.57
306.802	3.97
307.015	4.83
307.228	4.74
307.44	4.37
307.653	6.7
307.866	7.99
308.079	8.21
308.292	8.85
308.505	10.5
308.718	9.41
308.93	9.63
309.143	9.61
309.356	10.72
309.569	11.13
309.781	11.08
309.994	9.43
310.207	8.57
310.42	8.21
310.632	7.25
310.845	7.15
311.058	7.33
311.27	8.09
311.483	7.52
311.696	6.56
311.908	6.5
312.121	5.81
312.333	6.63
312.546	5.66
312.759	5
312.971	5.73
313.184	5.52
313.396	4.41
313.609	3.54
313.821	3.46
314.034	2.78
314.246	2.48
314.459	2.99
314.671	3.38
314.884	1.51
315.096	2.82
315.309	5.03
315.521	5.25
315.733	5.92
315.946	5.89
316.158	4.56
316.371	4.58
316.583	3.37
316.795	3.74
317.008	4.78
317.22	5.98
317.432	7.54
317.644	6.36
317.857	5.28
318.069	5.87
318.281	5.81
318.494	8.09
318.706	8.84
318.918	10.1
319.13	9.82
319.342	8.05
319.555	8.27
319.767	8.95
319.979	7.65
320.191	8.98
320.403	8.25
320.615	7.68
320.827	6.82
321.039	8.77
321.252	8.75
321.464	7.83
321.676	8.83
321.888	9.78
322.1	8.41
322.312	11.23
322.524	11.45
322.736	12.52
322.948	13.75
323.16	14.96
323.372	12.54
323.584	13
323.796	14.9
324.007	14.56
324.219	14.26
324.431	14.3
324.643	12.75
324.855	11.58
325.067	11.71
325.279	11.43
325.491	10.82
325.702	11.61
325.914	10.65
326.126	11.11
326.338	10.33
326.55	10.52
326.761	10.24
326.973	8.92
327.185	9.51
327.396	9.1
327.608	9.8
327.82	9.94
328.032	10.77
328.243	11.1
328.455	10.97
328.666	12.82
328.878	12.89
329.09	13.78
329.301	14.14
329.513	15.44
329.725	15.61
329.936	14.12
330.148	14.16
330.359	12.11
330.571	12.94
330.782	11.07
330.994	9.98
331.205	10.39
331.417	10.15
331.628	10.31
331.84	9.2
332.051	8.51
332.262	9.69
332.474	11.03
332.685	10.47
332.897	11.37
333.108	12.58
333.319	11.43
333.531	11.98
333.742	10.88
333.953	11.88
334.165	13.11
334.376	13.88
334.587	14.19
334.799	13.29
335.01	14.94
335.221	14.18
335.432	14.59
335.644	15.03
335.855	15.55
336.066	16.51
336.277	15.14
336.488	13.64
336.7	13.38
336.911	13.55
337.122	13.58
337.333	13.1
337.544	13.85
337.755	13.59
337.966	14.55
338.177	13.81
338.388	13.97
338.599	14.34
338.811	12.73
339.022	13.64
339.233	13.56
339.444	13.54
339.655	13.88
339.866	14.03
340.076	12.78
340.287	12.5
340.498	12.83
340.709	12.45
340.92	13.18
341.131	15.25
341.342	14.64
341.553	14.83
341.764	14.94
341.975	15.85
342.185	15.05
342.396	14.9
342.607	14.56
342.818	14
343.029	14.51
343.239	15.68
343.45	15
343.661	14.97
343.872	14.5
344.082	14.43
344.293	13.71
344.504	13.21
344.714	13.71
344.925	13.14
345.136	13.96
345.346	13.32
345.557	11.06
345.768	11.32
345.978	11.35
346.189	11.27
346.399	10.11
346.61	10.83
346.821	11.48
347.031	12.35
347.242	12.81
347.452	12.38
347.663	12.27
347.873	13.21
348.084	13.44
348.294	13.1
348.504	12.62
348.715	13.86
348.925	12.19
349.136	11.49
349.346	11.73
349.557	11.46
349.767	11.31
349.977	11.35
350.188	13.72
350.398	14.65
350.608	15.24
350.819	16.11
351.029	14.56
351.239	14.92
351.449	15.27
351.66	14.06
351.87	14.44
352.08	13.61
352.29	13.94
352.501	12.81
352.711	11.93
352.921	11.83
353.131	11.47
353.341	12.18
353.552	12.34
353.762	11.88
353.972	11.82
354.182	12.26
354.392	11.61
354.602	11.91
354.812	11.15
355.022	11.18
355.232	10.34
355.442	10.83
355.652	10.9
355.862	10.3
356.072	10.26
356.282	10.21
356.492	10.08
356.702	12.16
356.912	11.66
357.122	11.89
357.332	11.94
357.542	11.91
357.752	11.4
357.962	10.96
358.171	10.83
358.381	11.66
358.591	11.54
358.801	10.98
359.011	10.06
359.221	11.31
359.43	11.46
359.64	11.66
359.85	12.23
360.06	12.33
360.269	13.2
360.479	13.35
360.689	13.03
360.899	13.54
361.108	13.59
361.318	14.19
361.528	13.55
361.737	13.8
361.947	13.38
362.156	13.52
362.366	13.09
362.576	12.65
362.785	12.97
362.995	13.21
363.204	13.47
363.414	13.33
363.623	12.27
363.833	12.37
364.042	12.44
364.252	12.79
364.461	12.9
364.671	12.74
364.88	12.78
365.09	12.57
365.299	11.83
365.509	11.03
365.718	11.45
365.927	11.93
366.137	11.12
366.346	9.97
366.555	9.54
366.765	9.63
366.974	9.86
367.183	10.34
367.393	10.43
367.602	10.42
367.811	10.54
368.021	10.13
368.23	10.4
368.439	10.84
368.648	11.17
368.857	10.08
369.067	8.97
369.276	9.08
369.485	8.42
369.694	8.17
369.903	8.22
370.112	9.11
370.321	9.29
370.531	8.34
370.74	8.12
370.949	8.5
371.158	9.3
371.367	9.22
371.576	8.95
371.785	9.12
371.994	9.79
372.203	9.82
372.412	9.22
372.621	9.69
372.83	10.47
373.039	10.03
373.248	9.68
373.457	9.92
373.666	9.84
373.874	10.37
374.083	11.04
374.292	10.9
374.501	10.34
374.71	10
374.919	9.83
375.128	9.92
375.336	10.72
375.545	10.22
375.754	10.27
375.963	10.5
376.171	10.7
376.38	10.33
376.589	10.6
376.798	11.18
377.006	10.91
377.215	10.84
377.424	10.29
377.632	9.72
377.841	9.88
378.05	10.25
378.258	10.01
378.467	9.48
378.675	9.84
378.884	9.36
379.093	9.45
379.301	10.19
379.51	10.04
379.718	9.52
379.927	9.5
380.135	9.38
380.344	9.39
380.552	9.65
380.761	9.75
380.969	8.75
381.177	8.78
381.386	8.27
381.594	8.02
381.803	8.1
382.011	8.79
382.219	8.53
382.428	8.63
382.636	8.24
382.845	8.13
383.053	7.99
383.261	8.31
383.469	7.52
383.678	7.37
383.886	7.34
384.094	7.32
384.302	7.21
384.511	7.37
384.719	7.12
384.927	7.22
385.135	7.45
385.343	7.84
385.552	7.91
385.76	8.69
385.968	9.32
386.176	9.2
386.384	9.03
386.592	9.01
386.8	8.87
387.008	8.91
387.216	8.88
387.424	8.71
387.633	8.35
387.841	8.4
388.049	7.95
388.257	7.65
388.465	7.84
388.672	7.96
388.88	7.87
389.088	8.43
389.296	8.59
389.504	7.83
389.712	8.03
389.92	8.03
390.128	7.72
390.336	7.42
390.544	7.16
390.751	6.91
390.959	6.72
391.167	6.95
391.375	6.85
391.583	6.75
391.79	7.25
391.998	7.17
392.206	6.85
392.414	6.74
392.621	7.31
392.829	7.34
393.037	7.41
393.244	6.96
393.452	6.79
393.66	6.49
393.867	6.84
394.075	6.97
394.283	6.68
394.49	7.2
394.698	7.69
394.905	7.63
395.113	7.14
395.32	6.85
395.528	7.26
395.735	7.18
395.943	6.92
396.15	6.75
396.358	6.13
396.565	5.94
396.773	5.51
396.98	5.09
397.188	4.86
397.395	5.18
397.602	4.98
397.81	4.94
398.017	5.03
398.225	5.44
398.432	5.36
398.639	5.57
398.847	5.71
399.054	5.53
399.261	5.45
399.468	5.47
399.676	5.64
399.883	6.09
400.09	6.22
400.297	6.04
400.505	5.85
400.712	6.02
400.919	6.39
401.126	6.15
401.333	6.27
401.54	6.31
401.748	6.12
401.955	6.1
402.162	6.18
402.369	5.66
402.576	5.67
402.783	5.77
402.99	5.29
403.197	5.17
403.404	5.6
403.611	5.72
403.818	5.53
404.025	5.55
404.232	5.29
404.439	5.17
404.646	5.54
404.853	5.7
405.06	5.65
405.267	5.85
405.474	5.59
405.681	5.15
405.887	5.09
406.094	5.01
406.301	4.8
406.508	4.84
406.715	4.98
406.922	4.97
407.128	4.66
407.335	4.47
407.542	4.33
407.749	4.48
407.955	4.72
408.162	4.56
408.369	4.76
408.575	4.9
408.782	5.07
408.989	4.65
409.195	4.34
409.402	4.37
409.609	4.41
409.815	4.59
410.022	4.36
410.228	4.39
410.435	4.58
410.642	4.6
410.848	4.91
411.055	4.95
411.261	5.1
411.468	5.14
411.674	5.37
411.881	5.42
412.087	5.34
412.294	5.52
412.5	5.46
412.706	5.35
412.913	5.01
413.119	4.57
413.326	4.58
413.532	4.6
413.738	4.98
413.945	4.77
414.151	4.79
414.357	5.07
414.564	5.26
414.77	5.16
414.976	5.06
415.182	5.4
415.389	5.6
415.595	5.35
415.801	5.26
416.007	5.32
416.214	5.57
416.42	5.61
416.626	5.19
416.832	5
417.038	5
417.244	5.22
417.45	5.21
417.657	5.07
417.863	4.94
418.069	4.84
418.275	4.63
418.481	4.66
418.687	4.79
418.893	4.82
419.099	4.78
419.305	4.91
419.511	4.75
419.717	4.54
419.923	4.66
420.129	4.85
420.335	4.86
420.541	4.69
420.746	4.53
420.952	4.36
421.158	4.24
421.364	4.17
421.57	4.11
421.776	4.08
421.982	4.3
422.187	4.23
422.393	4.2
422.599	4.2
422.805	4.39
423.01	4.31
423.216	4.37
423.422	4.39
423.628	4.38
423.833	4.32
424.039	4.57
424.245	4.49
424.45	4.37
424.656	4.52
424.862	4.51
425.067	4.43
425.273	4.58
425.478	4.56
425.684	4.8
425.889	4.83
426.095	4.92
426.301	4.59
426.506	4.62
426.712	4.82
426.917	4.68
427.123	4.77
427.328	4.81
427.533	4.82
427.739	4.53
427.944	4.26
428.15	4.24
428.355	4.11
428.561	3.98
428.766	3.84
428.971	3.88
429.177	3.9
429.382	3.86
429.587	3.78
429.793	3.54
429.998	3.99
430.203	4.34
430.408	4.51
430.614	4.49
430.819	4.7
431.024	4.73
431.229	4.69
431.434	4.55
431.64	4.49
431.845	4.68
432.05	4.76
432.255	4.54
432.46	4.3
432.665	4.43
432.87	4.49
433.076	4.59
433.281	4.51
433.486	4.49
433.691	4.47
433.896	4.5
434.101	4.55
434.306	4.51
434.511	4.57
434.716	4.64
434.921	4.39
435.126	4.43
435.331	4.36
435.535	4.48
435.74	4.57
435.945	4.57
436.15	4.73
436.355	4.71
436.56	4.84
436.765	4.84
436.97	4.71
437.174	4.89
437.379	4.65
437.584	4.71
437.789	4.66
437.993	4.5
438.198	4.5
438.403	4.3
438.608	4.14
438.812	4.11
439.017	4.08
439.222	4.24
439.426	4.19
439.631	4.38
439.836	4.36
440.04	4.49
440.245	4.72
440.45	4.72
440.654	4.66
440.859	4.69
441.063	4.61
441.268	4.66
441.472	4.66
441.677	4.59
441.881	4.69
442.086	4.68
442.29	4.6
442.495	4.52
442.699	4.7
442.904	4.79
443.108	4.83
443.312	4.93
443.517	4.94
443.721	4.84
443.925	4.97
444.13	5.09
444.334	5.11
444.538	5.03
444.743	4.98
444.947	4.8
445.151	4.75
445.356	4.71
445.56	4.74
445.764	4.7
445.968	4.64
446.173	4.57
446.377	4.4
446.581	4.43
446.785	4.48
446.989	4.34
447.193	4.27
447.398	4.35
447.602	4.33
447.806	4.27
448.01	4.23
448.214	4.24
448.418	4.1
448.622	4.21
448.826	4.09
449.03	3.96
449.234	4.02
449.438	4.04
449.642	3.98
449.846	4.05
450.05	4.06
450.254	4.01
450.458	4.23
450.662	4.21
450.866	4.13
451.069	4.17
451.273	4.25
451.477	4.28
451.681	4.43
451.885	4.46
452.089	4.46
452.292	4.34
452.496	4.36
452.7	4.26
452.904	4.15
453.107	4.05
453.311	4.17
453.515	4.22
453.719	4.23
453.922	4.12
454.126	3.92
454.33	3.87
454.533	3.86
454.737	3.94
454.94	3.85
455.144	3.99
455.348	4.08
455.551	3.99
455.755	3.85
455.958	3.92
456.162	3.92
456.365	4.09
456.569	4.03
456.772	4.25
456.976	4.39
457.179	4.46
457.383	4.65
457.586	4.61
457.79	4.56
457.993	4.71
458.196	4.54
458.4	4.65
458.603	4.63
458.807	4.5
459.01	4.42
459.213	4.29
459.417	4.26
459.62	4.28
459.823	4.32
460.026	4.32
460.23	4.34
460.433	4.37
460.636	4.27
460.839	4.19
461.042	4.25
461.246	4.29
461.449	4.33
461.652	4.28
461.855	4.31
462.058	4.35
462.261	4.53
462.464	4.38
462.668	4.43
462.871	4.47
463.074	4.36
463.277	4.57
463.48	4.58
463.683	4.49
463.886	4.41
464.089	4.28
464.292	4.08
464.495	3.96
464.698	4.03
464.901	3.98
465.104	4.07
465.306	4.31
465.509	4.23
465.712	4.29
465.915	4.21
466.118	4.14
466.321	4.11
466.524	4.29
466.726	4.22
466.929	4.19
467.132	4.19
467.335	4.2
467.538	4.08
467.74	4.17
467.943	3.94
468.146	4.08
468.348	4.36
468.551	4.45
468.754	4.32
468.956	4.3
469.159	4.26
469.362	4.15
469.564	3.95
469.767	3.89
469.969	3.57
470.172	3.69
470.375	3.8
470.577	3.66
470.78	3.52
470.982	3.52
471.185	3.49
471.387	3.32
471.59	3.33
471.792	3.4
471.995	3.6
472.197	3.8
472.399	3.89
472.602	3.54
472.804	3.6
473.007	3.71
473.209	3.69
473.411	3.58
473.614	3.85
473.816	3.81
474.018	3.85
474.22	3.75
474.423	3.63
474.625	3.64
474.827	3.87
475.03	3.92
475.232	4.01
475.434	4.16
475.636	4.2
475.838	4.14
476.04	4.35
476.243	4.32
476.445	4.4
476.647	4.49
476.849	4.42
477.051	4.43
477.253	4.51
477.455	4.41
477.657	4.3
477.859	4.44
478.061	4.4
478.263	4.35
478.465	4.41
478.667	4.25
478.869	4.16
479.071	4.12
479.273	4
479.475	3.85
479.677	3.79
479.879	3.72
480.081	3.59
480.283	3.57
480.485	3.62
480.686	3.49
480.888	3.49
481.09	3.62
481.292	3.59
481.494	3.66
481.695	3.81
481.897	3.82
482.099	3.76
482.301	3.78
482.502	3.8
482.704	3.8
482.906	3.83
483.107	3.85
483.309	3.84
483.511	3.92
483.712	3.92
483.914	3.87
484.115	3.83
484.317	3.9
484.519	3.94
484.72	3.96
484.922	3.96
485.123	4.01
485.325	4.08
485.526	4.03
485.728	3.99
485.929	3.96
486.131	3.99
486.332	3.96
486.534	3.94
486.735	3.82
486.936	3.79
487.138	3.79
487.339	3.75
487.541	3.67
487.742	3.74
487.943	3.73
488.144	3.78
488.346	3.71
488.547	3.81
488.748	3.78
488.95	3.82
489.151	3.83
489.352	3.81
489.553	3.78
489.755	3.96
489.956	4
490.157	3.98
490.358	3.92
490.559	4
490.76	4.09
490.961	4.16
491.163	4.21
491.364	4.3
491.565	4.31
491.766	4.39
491.967	4.32
492.168	4.3
492.369	4.34
492.57	4.32
492.771	4.34
492.972	4.23
493.173	4.23
493.374	4.22
493.575	4.21
493.776	4.27
493.976	4.11
494.177	4.09
494.378	3.93
494.579	3.94
494.78	4.06
494.981	3.94
495.182	4.07
495.382	4.06
495.583	4.07
495.784	4.08
495.985	3.87
496.185	4.01
496.386	3.99
496.587	4.17
496.788	4.16
496.988	4.11
497.189	4.23
497.39	4.14
497.59	4.16
497.791	4.07
497.992	4.02
498.192	4.1
498.393	4.14
498.593	4.09
498.794	4.08
498.994	4.22
499.195	4.18
499.395	4.27
499.596	4.32
499.796	4.21
499.997	4.45
500.197	4.56
500.398	4.71
500.598	4.74
500.799	4.74
500.999	4.62
501.199	4.67
501.4	4.74
501.6	4.69
501.801	4.54
502.001	4.73
502.201	4.55
502.402	4.41
502.602	4.26
502.802	4.15
503.002	4.42
503.203	4.57
503.403	4.29
503.603	4.33
503.803	4.35
504.003	4.52
504.204	4.38
504.404	4.52
504.604	4.52
504.804	4.49
505.004	4.59
505.204	4.32
505.404	4.31
505.604	4.49
505.804	4.46
506.005	4.48
506.205	4.6
506.405	4.63
506.605	4.65
506.805	4.72
507.005	4.81
507.204	4.92
507.404	5.01
507.604	4.97
507.804	4.85
508.004	4.79
508.204	4.84
508.404	4.84
508.604	4.77
508.804	4.81
509.003	4.84
509.203	4.72
509.403	4.66
509.603	4.68
509.803	4.68
510.002	4.66
510.202	4.66
510.402	4.69
510.602	4.51
510.801	4.55
511.001	4.44
511.201	4.4
511.4	4.52
511.6	4.41
511.8	4.38
511.999	4.43
512.199	4.48
512.398	4.58
512.598	4.5
512.797	4.61
512.997	4.67
513.197	4.78
513.396	4.87
513.596	4.9
513.795	4.87
513.994	5.03
514.194	5.04
514.393	5.03
514.593	4.94
514.792	5
514.992	4.95
515.191	5.15
515.39	5.15
515.59	5.09
515.789	5.04
515.988	5.17
516.188	5.09
516.387	5.04
516.586	5.04
516.786	5.28
516.985	5.17
517.184	5.27
517.383	5.16
517.582	5.04
517.782	4.97
517.981	4.94
518.18	5.11
518.379	4.99
518.578	4.97
518.777	5.12
518.976	5.04
519.176	5.04
519.375	5.1
519.574	5.03
519.773	5.11
519.972	5.28
520.171	5.32
520.37	5.16
520.569	5.25
520.768	5.42
520.967	5.25
521.166	5.33
521.365	5.39
521.564	5.42
521.762	5.34
521.961	5.25
522.16	5.2
522.359	5.31
522.558	5.42
522.757	5.57
522.956	5.52
523.154	5.6
523.353	5.61
523.552	5.62
523.751	5.53
523.949	5.61
524.148	5.8
524.347	5.64
524.546	5.76
524.744	5.63
524.943	5.52
525.142	5.38
525.34	5.34
525.539	5.27
525.737	5.27
525.936	5.24
526.135	5.32
526.333	5.29
526.532	5.39
526.73	5.35
526.929	5.49
527.127	5.49
527.326	5.6
527.524	5.61
527.723	5.57
527.921	5.6
528.12	5.62
528.318	5.61
528.516	5.63
528.715	5.61
528.913	5.59
529.112	5.58
529.31	5.63
529.508	5.68
529.707	5.72
529.905	5.77
530.103	5.78
530.301	5.82
530.5	5.83
530.698	5.83
530.896	5.87
531.094	5.92
531.293	5.98
531.491	5.96
531.689	5.9
531.887	5.88
532.085	5.99
532.283	5.96
532.481	6.04
532.68	6.12
532.878	6.14
533.076	6.1
533.274	6.09
533.472	6.1
533.67	6.18
533.868	6.21
534.066	6.28
534.264	6.31
534.462	6.39
534.66	6.38
534.858	6.44
535.056	6.45
535.253	6.53
535.451	6.57
535.649	6.58
535.847	6.6
536.045	6.62
536.243	6.61
536.441	6.53
536.638	6.58
536.836	6.48
537.034	6.48
537.232	6.51
537.43	6.57
537.627	6.66
537.825	6.69
538.023	6.62
538.22	6.62
538.418	6.83
538.616	6.88
538.813	6.99
539.011	7.09
539.209	7.12
539.406	7.19
539.604	7.33
539.801	7.46
539.999	7.56
540.196	7.7
540.394	7.74
540.591	7.64
540.789	7.7
540.986	7.67
541.184	7.66
541.381	7.62
541.579	7.62
541.776	7.63
541.974	7.57
542.171	7.59
542.368	7.65
542.566	7.69
542.763	7.77
542.96	7.84
543.158	7.82
543.355	7.97
543.552	7.99
543.75	8.13
543.947	8.16
544.144	8.3
544.341	8.3
544.539	8.32
544.736	8.38
544.933	8.51
545.13	8.48
545.327	8.6
545.524	8.67
545.722	8.93
545.919	8.82
546.116	8.95
546.313	8.93
546.51	8.96
546.707	8.98
546.904	9.01
547.101	8.95
547.298	9.07
547.495	9.02
547.692	9.03
547.889	9.11
548.086	9.2
548.283	9.18
548.48	9.28
548.677	9.4
548.874	9.45
549.07	9.56
549.267	9.53
549.464	9.51
549.661	9.79
549.858	9.85
550.055	9.79
550.251	10
550.448	9.95
550.645	10.15
550.842	10.19
551.038	10.13
551.235	10.2
551.432	10.36
551.628	10.59
551.825	10.35
552.022	10.47
552.218	10.52
552.415	10.35
552.612	10.55
552.808	10.34
553.005	10.49
553.201	10.83
553.398	10.83
553.594	10.76
553.791	10.76
553.987	11.03
554.184	10.96
554.38	11.03
554.577	11.13
554.773	10.94
554.97	10.99
555.166	11.06
555.362	10.9
555.559	11.01
555.755	11.25
555.952	11.22
556.148	11.46
556.344	11.55
556.541	11.48
556.737	11.7
556.933	12.05
557.129	12.08
557.326	11.91
557.522	11.68
557.718	11.5
557.914	11.32
558.11	11.37
558.307	11.34
558.503	11.5
558.699	11.72
558.895	11.81
559.091	11.66
559.287	11.74
559.483	11.85
559.679	12.24
559.876	12.37
560.072	12.74
560.268	12.58
560.464	12.52
560.66	12.4
560.856	12.34
561.052	12.21
561.247	12.4
561.443	12.59
561.639	12.66
561.835	12.48
562.031	12.54
562.227	12.34
562.423	12.68
562.619	12.68
562.815	12.94
563.01	13.03
563.206	13.06
563.402	13.01
563.598	13
563.793	13.18
563.989	13.36
564.185	13.5
564.381	13.54
564.576	13.52
564.772	13.69
564.968	13.63
565.163	13.58
565.359	13.7
565.555	13.87
565.75	13.84
565.946	13.69
566.141	13.83
566.337	13.74
566.532	14.02
566.728	14.05
566.923	14.01
567.119	14.06
567.314	14.3
567.51	14.36
567.705	14.4
567.901	14.57
568.096	14.85
568.292	14.94
568.487	15.12
568.682	15
568.878	15.04
569.073	15.06
569.268	15.09
569.464	14.88
569.659	14.9
569.854	14.88
570.05	14.85
570.245	14.82
570.44	14.75
570.635	14.93
570.831	15.07
571.026	15.14
571.221	15.19
571.416	15.23
571.611	15.27
571.806	15.35
572.002	15.54
572.197	15.71
572.392	15.71
572.587	15.82
572.782	15.85
572.977	15.78
573.172	15.75
573.367	15.89
573.562	15.81
573.757	15.72
573.952	15.67
574.147	15.68
574.342	15.58
574.537	15.59
574.732	15.51
574.927	15.5
575.121	15.54
575.316	15.63
575.511	15.6
575.706	15.67
575.901	16.1
576.096	16.11
576.29	15.96
576.485	15.78
576.68	15.92
576.875	15.87
577.069	15.85
577.264	15.81
577.459	15.61
577.654	15.42
577.848	15.45
578.043	15.24
578.238	15.15
578.432	15.15
578.627	15.29
578.821	15.16
579.016	15.48
579.21	15.34
579.405	15.25
579.6	15.23
579.794	15.39
579.989	15.75
580.183	15.97
580.378	15.94
580.572	15.9
580.766	16.04
580.961	15.9
581.155	15.55
581.35	15.61
581.544	15.97
581.738	16.09
581.933	15.93
582.127	15.55
582.321	15.42
582.516	15.6
582.71	15.5
582.904	15.19
583.099	15.64
583.293	15.75
583.487	15.69
583.681	15.39
583.875	15.58
584.07	15.75
584.264	15.87
584.458	15.74
584.652	15.43
584.846	15.84
585.04	16.16
585.234	15.9
585.428	15.83
585.623	15.96
585.817	16.31
586.011	16.1
586.205	16.2
586.399	16.42
586.593	16.71
586.787	17.26
586.981	16.89
587.174	16.67
587.368	16.54
587.562	16.84
587.756	16.97
587.95	16.73
588.144	16.97
588.338	16.81
588.532	16.95
588.725	16.92
588.919	16.78
589.113	17.03
589.307	17.13
589.501	17.23
589.694	17.12
589.888	17.02
590.082	17.12
590.275	17.2
590.469	17.31
590.663	17.24
590.856	17.07
591.05	17.08
591.244	17.08
591.437	17.33
591.631	17.39
591.824	17.55
592.018	17.47
592.212	17.34
592.405	17.01
592.599	17.14
592.792	17.23
592.986	17.25
593.179	16.87
593.372	16.66
593.566	16.33
593.759	16.16
593.953	16.01
594.146	16
594.339	16.2
594.533	16.22
594.726	15.87
594.92	15.53
595.113	15.53
595.306	15.7
595.499	15.74
595.693	15.84
595.886	15.97
596.079	16.23
596.272	16.37
596.466	16.38
596.659	16.43
596.852	16.54
597.045	16.71
597.238	16.73
597.431	16.92
597.624	16.95
597.818	17.24
598.011	17.35
598.204	17.17
598.397	17.26
598.59	17.14
598.783	17.35
598.976	17.79
599.169	17.71
599.362	17.79
599.555	17.51
599.748	17.79
599.941	17.55
600.134	17.4
600.326	17.48
600.519	17.25
600.712	17.74
600.905	17.72
601.098	17.54
601.291	17.53
601.483	17.58
601.676	17.91
601.869	17.74
602.062	17.85
602.255	17.98
602.447	17.89
602.64	18.07
602.833	17.85
603.025	18.2
603.218	18.05
603.411	17.98
603.603	18.08
603.796	18.05
603.989	18.1
604.181	18.26
604.374	18.23
604.566	18.29
604.759	18.21
604.951	18.16
605.144	17.81
605.336	17.79
605.529	17.9
605.721	17.78
605.914	17.81
606.106	17.94
606.299	17.77
606.491	17.96
606.683	18.03
606.876	17.79
607.068	17.99
607.26	18.05
607.453	18.13
607.645	18.03
607.837	18.12
608.03	17.99
608.222	17.94
608.414	17.76
608.606	17.61
608.799	17.42
608.991	17.6
609.183	17.39
609.375	17.4
609.567	17.71
609.759	17.72
609.952	17.42
610.144	17.67
610.336	17.63
610.528	17.65
610.72	17.65
610.912	17.64
611.104	17.85
611.296	17.91
611.488	18.03
611.68	17.69
611.872	17.67
612.064	18.17
612.256	18.04
612.448	18.01
612.64	18.19
612.832	18.22
613.023	18.29
613.215	17.99
613.407	18.02
613.599	18.05
613.791	17.79
613.983	17.63
614.174	17.22
614.366	17.28
614.558	17.43
614.75	17.3
614.941	17.22
615.133	17.26
615.325	17.47
615.516	17.52
615.708	17.53
615.9	17.83
616.091	17.83
616.283	17.83
616.475	18.09
616.666	18.07
616.858	18.44
617.049	18.48
617.241	18.51
617.432	18.5
617.624	18.52
617.815	18.19
618.007	18.02
618.198	18.25
618.39	18.47
618.581	18.34
618.773	18.2
618.964	17.92
619.155	18.03
619.347	17.92
619.538	18.03
619.729	17.75
619.921	17.7
620.112	18.15
620.303	18.21
620.494	18
620.686	17.84
620.877	17.92
621.068	17.69
621.259	17.46
621.451	17.69
621.642	17.92
621.833	18.03
622.024	18.06
622.215	17.63
622.406	17.62
622.597	17.57
622.788	17.59
622.98	17.63
623.171	17.86
623.362	17.84
623.553	17.78
623.744	17.43
623.935	17.49
624.126	17.76
624.317	18.09
624.508	18.01
624.698	18.13
624.889	18.06
625.08	18.01
625.271	17.88
625.462	18.03
625.653	18.2
625.844	18.27
626.034	18.12
626.225	18.18
626.416	18.26
626.607	18.37
626.798	18.49
626.988	18.69
627.179	18.78
627.37	18.7
627.56	18.93
627.751	18.97
627.942	19.12
628.132	19.43
628.323	19.51
628.514	19.45
628.704	19.34
628.895	19.19
629.085	18.96
629.276	18.64
629.466	19
629.657	18.76
629.847	18.69
630.038	18.6
630.228	18.43
630.419	18.33
630.609	18.21
630.8	18.52
630.99	18.57
631.181	18.39
631.371	18.64
631.561	18.42
631.752	18.29
631.942	18.4
632.132	18.39
632.323	18.28
632.513	17.87
632.703	17.76
632.893	17.61
633.084	17.81
633.274	17.9
633.464	18.11
633.654	18.36
633.844	18.64
634.034	18.36
634.225	18.04
634.415	18.31
634.605	18.71
634.795	19.05
634.985	19.29
635.175	19.05
635.365	19.5
635.555	19.36
635.745	19.09
635.935	18.88
636.125	18.98
636.315	19.37
636.505	19.1
636.695	18.74
636.885	18.6
637.075	18.55
637.265	18.75
637.455	18.28
637.644	17.82
637.834	18.03
638.024	18.2
638.214	18.27
638.404	18.17
638.593	18.12
638.783	18.24
638.973	17.87
639.163	17.61
639.352	17.37
639.542	17.78
639.732	18.18
639.921	18.25
640.111	18.13
640.301	17.93
640.49	17.59
640.68	17.84
640.87	17.76
641.059	17.97
641.249	18.28
641.438	18.42
641.628	18.16
641.817	18.15
642.007	18.1
642.196	18.14
642.386	18.41
642.575	18.97
642.764	18.71
642.954	18.43
643.143	18.2
643.333	17.63
643.522	18.1
643.711	18.14
643.901	18.15
644.09	17.99
644.279	18.07
644.469	17.66
644.658	17.44
644.847	17.58
645.036	17.97
645.226	18.03
645.415	18.59
645.604	18.18
645.793	18.37
645.982	18.87
646.171	19.15
646.361	19.31
646.55	19.49
646.739	19.6
646.928	19.78
647.117	19.78
647.306	19.95
647.495	19.51
647.684	19.79
647.873	19.48
648.062	18.99
648.251	18.44
648.44	17.91
648.629	17.93
648.818	17.62
649.007	17.29
649.196	17.49
649.384	17.53
649.573	17.59
649.762	17.36
649.951	17.51
650.14	17.28
650.328	17.66
650.517	17.58
650.706	17.82
650.895	17.88
651.083	18.4
651.272	18.26
651.461	18.15
651.65	18.18
651.838	18.46
652.027	18.84
652.216	19.09
652.404	18.77
652.593	19.21
652.781	18.95
652.97	18.89
653.158	18.46
653.347	18.88
653.535	19.18
653.724	19.18
653.912	18.96
654.101	18.61
654.289	18.3
654.478	18.25
654.666	18.34
654.855	18.26
655.043	18.52
655.231	18.51
655.42	18.13
655.608	17.91
655.796	17.74
655.985	17.53
656.173	17.42
656.361	18.23
656.55	18.63
656.738	18.4
656.926	18.61
657.114	18.64
657.302	18.86
657.491	19.02
657.679	19.4
657.867	19.74
658.055	19.91
658.243	19.81
658.431	19.48
658.619	19.4
658.807	19.31
658.996	19.34
659.184	19.04
659.372	19.25
659.56	19.49
659.748	19.27
659.936	19.42
660.124	19.35
660.311	19.38
660.499	19.15
660.687	19.17
660.875	19.41
661.063	19.4
661.251	19.62
661.439	19.29
661.627	19.22
661.814	19.17
662.002	19.31
662.19	19.06
662.378	19.25
662.565	19.68
662.753	19.77
662.941	19.71
663.129	19.57
663.316	19.72
663.504	20.05
663.692	19.66
663.879	19.68
664.067	19.23
664.254	19.54
664.442	19.49
664.63	19.22
664.817	19.44
665.005	19.53
665.192	19.51
665.38	19.77
665.567	19.27
665.755	19.29
665.942	19.07
666.13	19.04
666.317	18.7
666.504	18.66
666.692	18.59
666.879	18.32
667.067	17.83
667.254	17.91
667.441	17.44
667.629	17.7
667.816	17.69
668.003	17.73
668.19	17.96
668.378	18.82
668.565	18.66
668.752	18.92
668.939	19.22
669.127	19.54
669.314	19.41
669.501	19.44
669.688	19.54
669.875	19.13
670.062	19.53
670.249	19.33
670.436	18.54
670.623	18.73
670.81	18.65
670.997	18.63
671.184	18.6
671.371	19
671.558	19.03
671.745	19.04
671.932	19.31
672.119	19.66
672.306	20.18
672.493	20.27
672.68	20.25
672.867	19.97
673.054	19.22
673.24	19.59
673.427	19.42
673.614	19.2
673.801	19.22
673.988	19.6
674.174	18.82
674.361	18.33
674.548	18.53
674.734	18.16
674.921	18.57
675.108	19.15
675.294	18.8
675.481	18.32
675.668	18.52
675.854	18.4
676.041	18.37
676.227	18.08
676.414	18.24
676.601	18.26
676.787	18.4
676.974	17.76
677.16	17.79
677.347	17.85
677.533	17.86
677.719	18.01
677.906	18.02
678.092	17.82
678.279	18.45
678.465	18.26
678.651	18.08
678.838	18.3
679.024	18.87
679.21	18.92
679.397	19.03
679.583	19.81
679.769	19.97
679.955	20.24
680.142	20.26
680.328	19.85
680.514	19.98
680.7	20.3
680.886	19.94
681.073	19.8
681.259	19.77
681.445	19.86
681.631	19.83
681.817	19.66
682.003	19.6
682.189	19.47
682.375	19.96
682.561	20.16
682.747	20.04
682.933	20.39
683.119	20.59
683.305	20.69
683.491	20.14
683.677	19.98
683.863	19.92
684.049	18.9
684.235	19.33
684.42	19.05
684.606	19.03
684.792	19.41
684.978	19.72
685.164	20.04
685.349	20.25
685.535	20.94
685.721	20.79
685.907	20.23
686.092	20.85
686.278	20.44
686.464	20.85
686.649	20.55
686.835	20.18
687.021	19.67
687.206	19.29
687.392	18.76
687.577	18.8
687.763	18.38
687.948	19.42
688.134	19.39
688.319	19.43
688.505	18.88
688.69	18.73
688.876	18.47
689.061	18.55
689.247	17.73
689.432	17.74
689.618	17.43
689.803	17.92
689.988	16.97
690.174	17.26
690.359	17.41
690.544	18.06
690.73	18.38
690.915	18.88
691.1	19.32
691.285	20.18
691.471	20.02
691.656	20
691.841	19.72
692.026	20.46
692.211	20.51
692.396	20.33
692.582	19.67
692.767	19.51
692.952	19.01
693.137	19.07
693.322	19.5
693.507	19.4
693.692	19.56
693.877	19.85
694.062	20.04
694.247	19.86
694.432	20.55
694.617	20.68
694.802	21.1
694.987	20.91
695.172	20.91
695.357	20.23
695.541	20.82
695.726	20.81
695.911	20.24
696.096	19.66
696.281	19.74
696.466	19.44
696.65	19.57
696.835	19.26
697.02	19.55
697.204	19.61
697.389	19.96
697.574	19.95
697.759	19.9
697.943	20.95
698.128	20.79
698.312	20.53
698.497	20.64
698.682	20.4
698.866	20.34
699.051	20.71
699.235	20.22
699.42	20.12
699.604	20.06
699.789	20.35
699.973	19.77
700.158	20.23
700.342	20.13
700.527	20.08
700.711	20.36
700.895	20.36
701.08	20.69
701.264	20.53
701.448	20.33
701.633	20.48
701.817	19.99
702.001	19.97
702.186	19.76
702.37	20.91
702.554	20.7
702.738	20.73
702.923	20.73
703.107	20.04
703.291	20.67
703.475	20.67
703.659	20.44
703.843	21.4
704.027	21.1
704.212	22.02
704.396	20.67
704.58	21.03
704.764	20.59
704.948	20.85
705.132	20.61
705.316	21.24
705.5	21.43
705.684	21.28
705.868	19.84
706.052	20.59
706.235	19.19
706.419	20.38
706.603	19.78
706.787	20.41
706.971	19.73
707.155	20.01
707.339	19
707.522	18.77
707.706	18.83
707.89	19.32
708.074	18.65
708.257	18.82
708.441	17.77
708.625	17.87
708.808	17.02
708.992	16.93
709.176	16.81
709.359	17.32
709.543	16.99
709.727	17.43
709.91	17.94
710.094	17.74
710.277	18.07
710.461	17.75
710.644	18.01
710.828	19.02
711.011	19.79
711.195	19.14
711.378	18.56
711.562	19.56
711.745	18.97
711.928	18.2
712.112	18.6
712.295	18.25
712.478	19.22
712.662	19.79
712.845	19.58
713.028	19.48
713.212	20.25
713.395	20.82
713.578	20
713.761	20.39
713.945	21.72
714.128	21.52
714.311	22.15
714.494	22.18
714.677	21.22
714.86	21.05
715.043	21.02
715.227	20.42
715.41	20.56
715.593	20.96
715.776	20.71
715.959	19.78
716.142	19.82
716.325	18.99
716.508	18.67
716.691	18.98
716.874	19.66
717.057	19.34
717.239	20.05
717.422	19.49
717.605	19.59
717.788	19.33
717.971	19.74
718.154	20.36
718.337	20.42
718.519	20.38
718.702	19.97
718.885	19.32
719.068	19.48
719.25	19.55
719.433	20.86
719.616	20.81
719.798	22.25
719.981	21.41
720.164	20.42
720.346	20.56
720.529	20.3
720.712	20.62
720.894	20.36
721.077	21.48
721.259	21.13
721.442	20.32
721.624	21.23
721.807	20.24
721.989	20.86
722.172	22.21
722.354	22.92
722.537	23.64
722.719	24.15
722.901	24.29
723.084	22.79
723.266	22.97
723.448	22.41
723.631	22.07
723.813	22.15
723.995	21.46
724.178	21.6
724.36	21.11
724.542	21.3
724.724	21.44
724.907	20.62
725.089	21.22
725.271	20.68
725.453	21.12
725.635	20.06
725.817	20.15
725.999	20.38
726.181	18.56
726.364	18.75
726.546	18.66
726.728	17.48
726.91	17.07
727.092	17.32
727.274	18.06
727.456	19.04
727.638	19.52
727.819	20.03
728.001	20.37
728.183	21.42
728.365	20.97
728.547	20.66
728.729	22.64
728.911	23.07
729.093	22.93
729.274	22.27
729.456	21.19
729.638	21.51
729.82	20.75
730.001	20.77
730.183	20.01
730.365	20.54
730.546	20.32
730.728	18.87
730.91	19.24
731.091	18.93
731.273	19.18
731.455	19.05
731.636	18.17
731.818	18.77
731.999	18.37
732.181	19.5
732.362	18.74
732.544	18.6
732.725	18.5
732.907	19.46
733.088	19.96
733.27	20.41
733.451	21.01
733.633	21.69
733.814	21.06
733.995	21.28
734.177	20.14
734.358	20.55
734.539	21.29
734.721	20.91
734.902	20.57
735.083	20.32
735.264	19.35
735.446	18.77
735.627	18.52
735.808	18.68
735.989	19.39
736.17	20.42
736.351	21.12
736.533	21.67
736.714	22.07
736.895	20.93
737.076	21.85
737.257	21.68
737.438	20.9
737.619	20.6
737.8	20.39
737.981	20.41
738.162	18.35
738.343	18.95
738.524	19.14
738.705	18.79
738.886	18.74
739.067	17.19
739.247	17.63
739.428	18.58
739.609	20.01
739.79	19.91
739.971	18.97
740.151	22.16
740.332	20.97
740.513	20.52
740.694	21.17
740.874	21.23
741.055	21.57
741.236	22.12
741.417	22.31
741.597	21.4
741.778	21.18
741.958	21.2
742.139	19.85
742.32	21.18
742.5	20.66
742.681	20.78
742.861	22.61
743.042	23.42
743.222	23.24
743.403	24.31
743.583	22.87
743.764	24.86
743.944	24.9
744.124	24.01
744.305	21.64
744.485	21.16
744.666	21.42
744.846	20.37
745.026	20.38
745.207	19.77
745.387	18.19
745.567	19.39
745.747	17.84
745.928	18.1
746.108	20.07
746.288	23.01
746.468	23.44
746.648	22.85
746.829	22.68
747.009	22.45
747.189	23.05
747.369	23.14
747.549	23.09
747.729	24.14
747.909	24.95
748.089	22.68
748.269	22.15
748.449	21.91
748.629	23.33
748.809	22.73
748.989	23.41
749.169	22.65
749.349	22.49
749.529	22.48
749.709	22.23
749.889	22.15
750.068	23.11
750.248	22.9
750.428	23.29
750.608	21.42
750.788	21.6
750.967	20.56
751.147	21.78
751.327	21.63
751.507	21.76
751.686	22.89
751.866	22.19
752.046	23.22
752.225	22.39
752.405	22.05
752.585	23.15
752.764	23.82
752.944	23.64
753.123	23.6
753.303	24.38
753.482	24.37
753.662	22.56
753.841	21.6
754.021	20.2
754.2	20.76
754.38	20.66
754.559	19.85
754.739	19.52
754.918	18.87
755.097	17.83
755.277	17.79
755.456	16.99
755.635	17.01
755.815	17.29
755.994	16.6
756.173	16.82
756.352	16.48
756.532	16.88
756.711	17.84
756.89	19.12
757.069	18.71
757.248	19.18
757.427	21.13
757.607	21.49
757.786	22.21
757.965	22.62
758.144	22.4
758.323	22.61
758.502	22.61
758.681	21.81
758.86	20.67
759.039	21.63
759.218	20.37
759.397	19.03
759.576	17.52
759.755	18.01
759.934	17.7
760.113	17.44
760.291	17.65
760.47	17.51
760.649	18.07
760.828	18.69
761.007	17.91
761.186	19.56
761.364	18.42
761.543	20.23
761.722	19.79
761.901	19.3
762.079	19.17
762.258	19.08
762.437	19.64
762.615	18.89
762.794	20.1
762.972	19.52
763.151	18.53
763.33	19.69
763.508	19.53
763.687	19.84
763.865	20.95
764.044	21.43
764.222	21.56
764.401	21.02
764.579	20.49
764.758	18.98
764.936	19.81
765.114	20.49
765.293	20.28
765.471	19.89
765.65	19.49
765.828	19.54
766.006	19.14
766.184	19.41
766.363	19.05
766.541	20.86
766.719	21.47
766.898	22.69
767.076	22.83
767.254	23.18
767.432	23.53
767.61	24.47
767.788	23.97
767.967	23.75
768.145	23.3
768.323	25.23
768.501	25.15
768.679	24.72
768.857	23.85
769.035	21.56
769.213	22.25
769.391	23.29
769.569	23.07
769.747	22.74
769.925	23.18
770.103	22.26
770.281	22.23
770.459	21.99
770.636	25.95
770.814	26.06
770.992	28.79
771.17	27.14
771.348	27.21
771.525	25.89
771.703	27.18
771.881	25.84
772.059	29.17
772.236	29.46
772.414	28.08
772.592	24.66
772.769	22.84
772.947	20.44
773.125	21.58
773.302	18.99
773.48	19.71
773.657	17.21
773.835	21.04
774.013	19.12
774.19	19.3
774.368	21.29
774.545	23.18
774.723	24.99
774.9	25.58
775.077	28.15
775.255	30.11
775.432	31.15
775.61	31.99
775.787	28.66
775.964	29.13
776.142	26.19
776.319	23.89
776.496	20.55
776.674	20.93
776.851	24.31
777.028	20.49
777.205	18.82
777.382	18.85
777.56	20.28
777.737	18.33
777.914	17.43
778.091	19.26
778.268	21.13
778.445	23.12
778.622	24.21
778.8	22.62
778.977	24.82
779.154	26.81
779.331	27.3
779.508	28.36
779.685	32.86
779.862	35.84
780.038	35.59
780.215	29.96
780.392	30.93
780.569	29.57
780.746	29.75
780.923	28.39
781.1	29.29
781.277	28.84
781.453	27.17
781.63	25.11
781.807	23.54
781.984	22.73
782.16	28.9
782.337	26.07
782.514	27.22
782.691	26.09
782.867	26.86
783.044	26.13
783.221	26.42
783.397	27.5
783.574	29.19
783.75	34.44
783.927	35.86
784.103	36.37
784.28	37.37
784.456	37.49
784.633	37.08
784.809	34.95
784.986	35.2
785.162	33.44
785.339	33
785.515	30.61
785.692	25.07
785.868	25.96
786.044	22.46
786.221	24.1
786.397	22.41
786.573	23.2
786.749	27.97
786.926	24.67
787.102	23.75
787.278	22.75
787.454	25.25
787.631	25.12
787.807	23.31
787.983	24.95
788.159	24.98
788.335	24.59
788.511	22.85
788.687	20.62
788.863	23.49
789.039	23.86
789.216	26.16
789.392	26.05
789.568	26.84
789.744	27.07
789.919	26.81
790.095	25.7
790.271	24.58
790.447	26.26
790.623	24.51
790.799	25.16
790.975	24.73
791.151	21.42
791.327	20.93
791.502	21.39
791.678	18.36
791.854	19.13
792.03	19.39
792.205	20.84
792.381	21.87
792.557	24.66
792.733	21.51
792.908	26.61
793.084	29.98
793.259	32.02
793.435	31.12
793.611	35.6
793.786	35.77
793.962	35.32
794.137	33.27
794.313	30.59
794.488	27.4
794.664	27.61
794.839	24.17
795.015	21.55
795.19	19.42
795.366	15.78
795.541	15.43
795.716	16.57
795.892	14.43
796.067	18.22
796.242	19.58
796.418	19.03
796.593	18.82
796.768	16.23
796.944	17.24
797.119	18.52
797.294	22.61
797.469	24.25
797.644	19.12
797.82	18.69
797.995	20.1
798.17	19.54
798.345	22.28
798.52	25.82
798.695	29.83
798.87	32.53
799.045	30.23
799.22	28.54
799.395	24.52
799.57	25.94
799.745	28.25
799.92	25.24
800.095	26.18
800.27	27.21
800.445	27.13
800.62	26.43
800.795	22.4
800.97	23.77
801.145	24.9
801.319	27.35
801.494	25.28
801.669	26.01
801.844	28.62
802.018	27.11
802.193	28.52
802.368	29.8
802.543	27.72
802.717	30.01
802.892	29.2
803.067	28.71
803.241	31.08
803.416	32.23
803.59	31
803.765	28.59
803.94	29.1
804.114	25.97
804.289	22.29
804.463	22.23
804.638	23.79
804.812	23.09
804.986	24.29
805.161	21.39
805.335	25.71
805.51	26.16
805.684	26.19
805.858	30.44
806.033	30.78
806.207	30.01
806.381	30.47
806.556	29.43
806.73	30.22
806.904	32.06
807.078	29.86
807.253	27.69
807.427	28.59
807.601	26.41
807.775	25.24
807.949	22.55
808.123	22.27
808.298	19.36
808.472	17.26
808.646	16.47
808.82	15.31
808.994	17.01
809.168	19.07
809.342	18.35
809.516	17.01
809.69	15.16
809.864	15.27
810.038	17.98
810.212	18.67
810.385	20.14
810.559	20.76
810.733	20.72
810.907	21.9
811.081	16.86
811.255	18.89
811.428	25.63
811.602	26.12
811.776	28.05
811.95	29.17
812.123	29.11
812.297	27.33
812.471	32.73
812.644	28.16
812.818	28.68
812.992	29.61
813.165	29.5
813.339	24.28
813.512	21.73
813.686	21.77
813.86	21.94
814.033	26.63
814.207	26.01
814.38	22.67
814.554	23.33
814.727	25.73
814.9	24.49
815.074	24.56
815.247	24.63
815.421	21.96
815.594	22.36
815.767	17.66
815.941	12.88
816.114	8.34
816.287	4.94
816.46	8.24
816.634	3.9
816.807	5.76
816.98	3.65
817.153	-1.44
817.327	1.73
817.5	5.81
817.673	4.13
817.846	7.33
818.019	17.24
818.192	14.46
818.365	12.85
818.538	12.22
818.711	13.86
818.884	13.3
819.057	21.12
819.23	19.62
819.403	15.59
819.576	18.72
819.749	17.31
819.922	16.33
820.095	21.26
820.268	23.27
820.441	21.43
820.614	19.16
820.786	20.91
820.959	19.23
821.132	19.35
821.305	20.59
821.477	20.28
821.65	19.86
821.823	19.31
821.996	19.11
822.168	18.59
822.341	18.78
822.514	20.01
822.686	20.1
822.859	20.43
823.031	21
823.204	21.53
823.376	21.67
823.549	22.4
823.722	22.11
823.894	21.75
824.067	22.01
824.239	22.1
824.411	21.64
824.584	20.76
824.756	21.19
824.929	20.92
825.101	19.65
825.273	19.06
825.446	18.01
825.618	18.54
825.79	17.77
825.963	18.59
826.135	19.41
826.307	19.78
826.479	20.62
826.652	20.17
826.824	21.24
826.996	21.93
827.168	21.9
827.34	23.6
827.512	23.35
827.684	23.7
827.856	22.54
828.029	21.87
828.201	20.69
828.373	19.94
828.545	19.07
828.717	17.26
828.889	14.22
829.061	13.11
829.232	11.36
829.404	11.11
829.576	9.4
829.748	9.29
829.92	9.66
830.092	9.65
830.264	8.55
830.436	8.28
830.607	7.09
830.779	8.93
830.951	11.41
831.123	9.47
831.294	10.53
831.466	17.04
831.638	19.96
831.809	18.66
831.981	18.91
832.153	21.64
832.324	21.93
832.496	23.33
832.667	27.81
832.839	26.69
833.011	28.44
833.182	23.75
833.354	20.74
833.525	14.65
833.697	15.52
833.868	17.06
834.039	17.44
834.211	18.8
834.382	21.98
834.554	22.27
834.725	20.09
834.896	20.98
835.068	23.6
835.239	23.54
835.41	22.78
835.581	23.04
835.753	22.23
835.924	21.54
836.095	18.34
836.266	15.07
836.438	12.58
836.609	10.68
836.78	10.5
836.951	9.97
837.122	12.69
837.293	15.89
837.464	15.25
837.635	13.63
837.806	14.86
837.977	20.77
838.148	22.35
838.319	28.06
838.49	33.3
838.661	29.7
838.832	32.19
839.003	32.76
839.174	33.4
839.345	28.61
839.516	29.72
839.687	27.27
839.857	30.22
840.028	29.1
840.199	25.18
840.37	26.44
840.54	29.08
840.711	28.43
840.882	23.35
841.053	21.4
841.223	23.12
841.394	22.7
841.564	23.13
841.735	22.07
841.906	26.69
842.076	25.84
842.247	31.26
842.417	32.63
842.588	34.52
842.758	35.76
842.929	33.7
843.099	39.36
843.27	40.44
843.44	42.93
843.611	30.87
843.781	22.9
843.951	8.22
844.122	6.68
844.292	1
844.462	5.12
844.633	18.83
844.803	23.66
844.973	17.76
845.144	22.97
845.314	22.01
845.484	28.72
845.654	36.84
845.824	56.01
845.995	60.42
846.165	58.31
846.335	48.33
846.505	34.24
846.675	43.99
846.845	53.49
847.015	53.74
847.185	46.88
847.355	61.82
847.525	65.79
847.695	48.71
847.865	52.93
848.035	65.53
848.205	57.57
848.375	58.61
848.545	51.25
848.715	47.22
848.884	49.85
849.054	58.58
849.224	62.56
849.394	54.87
849.564	50.3
849.733	35.31
849.903	35.27
850.073	59.09
850.243	52.54
850.412	60.93
850.582	51.4
850.752	44.93
850.921	33.99
851.091	19.99
851.26	6.1
851.43	37.83
851.599	35.22
851.769	21.43
851.939	15.77
852.108	16.26
852.278	24.91
852.447	19.61
852.616	27.87
852.786	25.67
852.955	19.59
853.125	-0.48
853.294	-9.45
853.463	12.86
853.633	32.24
853.802	14.94
853.971	11.82
854.141	-10.06
854.31	5.41
854.479	1.14
854.648	-13.64
854.818	-71.31
854.987	-3.85
855.156	-49.79
855.325	-58.16
855.494	-41.39
855.663	-43.52
855.832	-29.14
856.001	-51.17
856.171	3.85
856.34	14.69
856.509	33.63
856.678	40.42
856.847	44.27
857.016	37.39
857.185	33.84
857.353	37.74
857.522	24.38
857.691	19.8
857.86	32.87
858.029	10.51
858.198	3.87
858.367	10.43
858.535	35.06
858.704	7.49
858.873	25.79
859.042	21.08
859.21	8.65
859.379	22.5
859.548	27.91
859.717	28.51
859.885	10.26
860.054	22.35
860.222	27.05
860.391	16.64
860.56	42.88
860.728	42.64
860.897	52.31
861.065	39.7
861.234	42.06
861.402	40.1
861.571	41.92
861.739	55.18
861.908	51.75
862.076	41.47
862.244	37.53
862.413	28.65
862.581	30.38
862.749	12.81
862.918	18.16
863.086	15.05
863.254	16.55
863.423	9.55
863.591	0.76
863.759	-0.73
863.927	-0.11
864.096	2.37
864.264	-10.33
864.432	-30.43
864.6	0.46
864.768	10.98
864.936	0.77
865.104	9.41
865.272	31.2
865.44	41.83
865.608	48.93
865.776	52.93
865.944	43.86
866.112	61.88
866.28	87.79
866.448	101.58
866.616	104.92
866.784	139.48
866.952	116.42
867.12	106.82
867.288	104.11
867.455	81.42
867.623	76.65
867.791	77.19
867.959	64.08
868.127	8.76
868.294	11.44
868.462	24.65
868.63	15.13
868.797	25.42
868.965	23.6
869.133	22.15
869.3	17.46
869.468	19.99
869.636	21.29
869.803	21.67
869.971	36.1
870.138	39.53
870.306	19.05
870.473	10.73
870.641	12.52
870.808	21.41
870.975	31.72
871.143	39.59
871.31	46.56
871.478	37.8
871.645	36.51
871.812	26.3
871.98	20.75
872.147	59.57
872.314	95.51
872.482	84.82
872.649	81.61
872.816	73.54
872.983	28.74
873.15	22.3
873.318	95.57
873.485	71.12
873.652	139.51
873.819	79.03
873.986	-27.24
874.153	-56.14
874.32	-85.8
874.487	-47.64
874.654	-35.67
874.821	0.09
874.988	-0.22
875.155	13.04
875.322	10.86
875.489	7.46
875.656	12.98
875.823	9.6
875.99	7.16
876.157	13.73
876.324	15.93
876.49	18.67
876.657	-6.07
876.824	3.3
876.991	2.37
877.157	-0.73
877.324	9
877.491	4.77
877.658	35.25
877.824	45.35
877.991	49.92
878.157	42.28
878.324	43.13
878.491	43.14
878.657	57.78
878.824	53.73
878.99	44.85
879.157	34.72
879.323	25.53
879.49	24.53
879.656	5.27
879.823	-107.14
879.989	0.57
880.156	35.4
880.322	27.32
880.488	-0.39
880.655	-46.95
880.821	8.7
880.987	0.51
881.154	10.47
881.32	16.27
881.486	20.7
881.652	21.38
881.819	11.9
881.985	4.67
882.151	11
882.317	16.05
882.483	18.66
882.649	16.45
882.816	16.84
882.982	16.74
883.148	16.82
883.314	17.07
883.48	20.05
883.646	22.98
883.812	22.7
883.978	22.42
884.144	22.56
884.31	24.02
884.476	22.32
884.642	24.17
884.807	25.47
884.973	24.51
885.139	26.69
885.305	27.62
885.471	27.44
885.637	27.55
885.802	24.55
885.968	20.21
886.134	16.58
886.3	20.38
886.465	17.01
886.631	20.19
886.797	21.26
886.962	8.7
887.128	4.41
887.293	-12.97
887.459	-7.03
887.625	-1.28
887.79	10.67
887.956	6.92
888.121	4.17
888.287	9.97
888.452	-19.09
888.618	-27.63
888.783	-0.06
