Data from 2938068_Reflection_2.txt Node
Date: Sat Jul 11 20:44:41 EDT 2015
User: robert
Spectrometer: USB4E03001
Autoset integration time: false
Trigger mode: 4
Integration Time (sec): 1.000000E-1
Scans to average: 10
Electric dark correction enabled: true
Nonlinearity correction enabled: false
Boxcar width: 5
Stray light correction enabled: false
XAxis mode: Wavelengths
Stop averaging: false
Number of Pixels in Spectrum: 3648
>>>>>Begin Spectral Data<<<<<
177.566	-72.02
177.785	331.39
178.005	-74.38
178.225	37.03
178.445	26.02
178.665	89.39
178.885	-482.88
179.105	23.29
179.324	117.91
179.544	255.07
179.764	131
179.984	134.78
180.204	294.76
180.423	-4188.73
180.643	-3047.53
180.863	384.92
181.083	278.17
181.302	460.89
181.522	522.06
181.742	429.04
181.961	1295.83
182.181	1097.96
182.401	997.64
182.621	445.25
182.84	472.53
183.06	608.84
183.279	934.56
183.499	452.52
183.719	223.25
183.938	202.92
184.158	137.27
184.377	103.54
184.597	163.95
184.816	131.49
185.036	148.39
185.256	109.69
185.475	112.32
185.695	112.93
185.914	84.25
186.134	59.09
186.353	26.42
186.572	41.63
186.792	39.64
187.011	26.91
187.231	-22.34
187.45	-17.26
187.67	-15.98
187.889	3.87
188.108	-51.93
188.328	-31.78
188.547	-18.48
188.766	61.53
188.986	47.91
189.205	125.56
189.424	47.44
189.644	75.82
189.863	57.9
190.082	46.03
190.302	15.14
190.521	12.97
190.74	26.94
190.959	54.04
191.178	37.68
191.398	55.09
191.617	29.89
191.836	71.69
192.055	48.1
192.274	50
192.494	37.61
192.713	76.15
192.932	80.77
193.151	69.46
193.37	54.17
193.589	47.86
193.808	31.06
194.027	43.33
194.246	26.21
194.465	19.22
194.685	16.34
194.904	50
195.123	18.96
195.342	54.64
195.561	104.15
195.78	251.3
195.999	515.96
196.218	96.34
196.436	27.19
196.655	5.28
196.874	-786.68
197.093	-26.72
197.312	21.74
197.531	45.19
197.75	293.09
197.969	3500.74
198.188	-89.96
198.407	-87.77
198.625	-83.62
198.844	-99.16
199.063	-65.47
199.282	-46.84
199.501	10.38
199.719	41.31
199.938	74.62
200.157	67.32
200.376	78.93
200.594	72.34
200.813	98.17
201.032	119.93
201.251	110.24
201.469	175.24
201.688	327.16
201.907	251.92
202.125	125.79
202.344	70.53
202.563	148.36
202.781	120.22
203	166.85
203.218	246.34
203.437	162.61
203.656	117.13
203.874	115.95
204.093	116.16
204.311	148.56
204.53	193.63
204.748	242.01
204.967	159.72
205.185	252.21
205.404	133.56
205.622	116.38
205.841	128.66
206.059	-22.91
206.278	-43.23
206.496	-758.54
206.715	210.97
206.933	-63.21
207.151	-62.39
207.37	-123.27
207.588	-83.11
207.806	-50.33
208.025	-84.29
208.243	-274.3
208.461	-136.91
208.68	-233.37
208.898	-482.49
209.116	-1319.15
209.335	91.51
209.553	83.61
209.771	116.9
209.989	102.71
210.208	78.9
210.426	84.45
210.644	76.03
210.862	82.55
211.081	96.68
211.299	104.71
211.517	109.03
211.735	125.26
211.953	122.34
212.171	114.69
212.39	127.46
212.608	229.87
212.826	162.91
213.044	146.98
213.262	102.58
213.48	83.31
213.698	73.5
213.916	72.75
214.134	91.68
214.352	78.59
214.57	59.4
214.788	75.02
215.006	70.44
215.224	81.01
215.442	86.45
215.66	94.13
215.878	112.16
216.096	99.33
216.314	83.62
216.532	90.2
216.75	116.14
216.968	139.06
217.185	119.96
217.403	133.94
217.621	100.94
217.839	87.96
218.057	93.23
218.275	84.63
218.492	94.7
218.71	91.88
218.928	66.03
219.146	60.45
219.363	63.62
219.581	72.48
219.799	76.64
220.017	112.17
220.234	136.92
220.452	91.39
220.67	106.4
220.887	106.52
221.105	149.97
221.323	-532.29
221.54	338.16
221.758	172.63
221.976	245
222.193	204.31
222.411	-152.95
222.629	-231.34
222.846	-323.64
223.064	-402.94
223.281	-639.27
223.499	-330.27
223.716	219.57
223.934	-134.01
224.151	-92.42
224.369	-83.59
224.586	-51.89
224.804	-97.54
225.021	-89.77
225.239	-57.81
225.456	-62.27
225.674	-71.24
225.891	-63.75
226.108	-45.54
226.326	-53.53
226.543	-27.38
226.76	-14.76
226.978	-22.36
227.195	-11.69
227.413	-6.43
227.63	-14.63
227.847	-13.19
228.064	-4.41
228.282	-1.15
228.499	2.43
228.716	3.68
228.934	3.52
229.151	1.38
229.368	4.96
229.585	2.97
229.802	3.68
230.02	5.12
230.237	8.42
230.454	5.31
230.671	4.81
230.888	5.54
231.105	-0.36
231.323	-8.56
231.54	-9.44
231.757	-14.23
231.974	-9.86
232.191	-6.7
232.408	-8.22
232.625	-14.13
232.842	-6.75
233.059	-10.21
233.276	-1.42
233.493	1.33
233.71	11.9
233.927	8.26
234.144	6.9
234.361	-0.07
234.578	-6.72
234.795	-5.21
235.012	0.16
235.229	-3.27
235.446	4.62
235.663	2.72
235.879	1.82
236.096	-6.48
236.313	-1.54
236.53	6.29
236.747	10.64
236.964	11.57
237.181	10.6
237.397	3.53
237.614	10.64
237.831	9.6
238.048	1.28
238.264	5.08
238.481	11.49
238.698	13.28
238.915	6.88
239.131	-0.77
239.348	-1.82
239.565	-1.72
239.781	-3.44
239.998	-4.84
240.215	-8.15
240.431	-4.77
240.648	-6.07
240.865	-6.18
241.081	-4.46
241.298	-6.34
241.514	-5.39
241.731	-3
241.947	-3.4
242.164	0.38
242.38	-1.15
242.597	0.73
242.814	1.84
243.03	2.3
243.246	2.57
243.463	2.34
243.679	2.17
243.896	3.4
244.112	4.05
244.329	7.56
244.545	7.61
244.762	7.73
244.978	8.04
245.194	7.17
245.411	7.8
245.627	9.03
245.843	7.26
246.06	7.76
246.276	8.12
246.492	7.47
246.709	5.31
246.925	4.44
247.141	5.39
247.357	5.22
247.574	5.73
247.79	5.84
248.006	5.39
248.222	5.34
248.439	6.17
248.655	6.19
248.871	6.26
249.087	6.25
249.303	6.54
249.519	4.76
249.736	3.12
249.952	1.7
250.168	0.75
250.384	-0.36
250.6	0.41
250.816	-0.11
251.032	-0.34
251.248	-2.4
251.464	-0.08
251.68	1.62
251.896	3.14
252.112	5.35
252.328	5.43
252.544	7.17
252.76	6.91
252.976	7.31
253.192	5.37
253.408	2.95
253.624	2.65
253.84	0.04
254.056	-0.31
254.272	-1.37
254.487	-3.35
254.703	-5.95
254.919	-10.39
255.135	-10.38
255.351	-11.15
255.567	-7.69
255.782	-3.32
255.998	-3.82
256.214	-0.54
256.43	-1.7
256.646	-2.52
256.861	-3.41
257.077	0.45
257.293	1.46
257.508	1.41
257.724	0.02
257.94	-1.35
258.155	-1.31
258.371	1.27
258.587	2
258.802	3.36
259.018	4.93
259.234	5.13
259.449	4.5
259.665	4.79
259.88	4.95
260.096	5.69
260.312	6.03
260.527	6.3
260.743	6.43
260.958	5.35
261.174	3.68
261.389	3.61
261.605	3.97
261.82	3.27
262.036	3.53
262.251	2.52
262.466	1.46
262.682	0.31
262.897	-1.61
263.113	-4.92
263.328	-5.14
263.543	-3.78
263.759	-6.75
263.974	-7.76
264.189	-6.34
264.405	-9.78
264.62	-7.46
264.835	-7.13
265.051	-8.37
265.266	-6.51
265.481	-5.83
265.696	-3.3
265.912	-5.56
266.127	-3.26
266.342	-1.63
266.557	-0.39
266.773	1.46
266.988	1.98
267.203	3.1
267.418	4.75
267.633	3.02
267.848	2.27
268.064	0.9
268.279	2.36
268.494	1.96
268.709	-0.18
268.924	-0.83
269.139	-0.34
269.354	-0.6
269.569	-0.41
269.784	-1.38
269.999	-0.89
270.214	1.99
270.429	1.94
270.644	1.83
270.859	2.13
271.074	2.18
271.289	2.26
271.504	0.94
271.719	-0.07
271.934	-1.21
272.149	-1.21
272.363	0.03
272.578	-0.51
272.793	1.3
273.008	2.8
273.223	2.84
273.438	3.19
273.653	1.68
273.867	2.31
274.082	2.79
274.297	3.24
274.512	3.76
274.726	3.4
274.941	4.04
275.156	3.42
275.371	1.53
275.585	1.05
275.8	2.27
276.015	3.81
276.229	2.47
276.444	2.73
276.659	2.41
276.873	2.34
277.088	1.25
277.302	0.9
277.517	-0.88
277.732	-0.18
277.946	-0.64
278.161	-0.85
278.375	-1.94
278.59	-0.63
278.804	-1.56
279.019	-0.72
279.233	-1.38
279.448	-0.51
279.662	-1.72
279.877	-1.43
280.091	-0.56
280.306	0.06
280.52	-2.53
280.735	-1.9
280.949	-1.08
281.163	-0.63
281.378	0.53
281.592	0.83
281.806	1
282.021	0.94
282.235	2.14
282.449	1.17
282.664	2.4
282.878	3.4
283.092	3.83
283.307	3.49
283.521	2.71
283.735	1.77
283.949	2.5
284.164	2.03
284.378	2.13
284.592	2.49
284.806	2.12
285.02	0.4
285.234	1.45
285.449	1.36
285.663	0.75
285.877	1.22
286.091	1.34
286.305	1.48
286.519	2.36
286.733	2.37
286.947	1.74
287.161	1.47
287.375	1.86
287.589	1.73
287.803	1.11
288.017	1.63
288.231	2.08
288.445	3.07
288.659	3.26
288.873	1.46
289.087	1.69
289.301	1.71
289.515	2.32
289.729	2.92
289.943	1.87
290.157	2.3
290.371	1.98
290.584	2.39
290.798	1
291.012	1.05
291.226	1.88
291.44	2.53
291.654	2.64
291.867	2.95
292.081	1.83
292.295	2.71
292.509	3.67
292.722	4.19
292.936	3.25
293.15	3.45
293.364	3.42
293.577	4.01
293.791	3.66
294.005	3.2
294.218	3.46
294.432	4.1
294.645	4.18
294.859	3.53
295.073	3.06
295.286	3.91
295.5	4.01
295.713	3.36
295.927	3.52
296.14	2.98
296.354	4.36
296.568	4.04
296.781	4.14
296.994	4.94
297.208	5.3
297.421	6.48
297.635	6.82
297.848	7.12
298.062	6.9
298.275	7.35
298.489	7.84
298.702	7.57
298.915	8.4
299.129	8.46
299.342	7.33
299.555	6.72
299.769	5.33
299.982	4.64
300.195	3.98
300.409	4.09
300.622	2.39
300.835	2.23
301.048	1.32
301.262	1.25
301.475	1.03
301.688	1.09
301.901	1.56
302.115	1.87
302.328	1.73
302.541	2.3
302.754	2.68
302.967	3.62
303.18	4.06
303.393	4.21
303.607	4.03
303.82	6.03
304.033	6.6
304.246	6.25
304.459	5.47
304.672	5.4
304.885	3.9
305.098	4.35
305.311	4.3
305.524	3.7
305.737	3.62
305.95	2.66
306.163	1.94
306.376	1.86
306.589	2.24
306.802	2.84
307.015	3.08
307.228	3.46
307.44	3.35
307.653	2.21
307.866	2.45
308.079	2.34
308.292	3.23
308.505	2.72
308.718	2.63
308.93	4.17
309.143	5.33
309.356	4.97
309.569	6.09
309.781	6.11
309.994	6.24
310.207	6.32
310.42	5.45
310.632	6.48
310.845	6.07
311.058	6.37
311.27	5.28
311.483	4.55
311.696	4.99
311.908	3.81
312.121	4.81
312.333	6.23
312.546	6.14
312.759	7.07
312.971	6.49
313.184	7.42
313.396	6.61
313.609	6.07
313.821	6.46
314.034	5.65
314.246	6.94
314.459	5.97
314.671	4.46
314.884	5.73
315.096	5.61
315.309	4.17
315.521	2.63
315.733	3.48
315.946	3.41
316.158	3.19
316.371	2.68
316.583	1.77
316.795	1.38
317.008	3.05
317.22	0.55
317.432	1.61
317.644	1.77
317.857	3.15
318.069	2.52
318.281	2.62
318.494	2.75
318.706	3.46
318.918	3.97
319.13	3.57
319.342	2.95
319.555	5.32
319.767	4.9
319.979	5.74
320.191	5.72
320.403	6.69
320.615	7.19
320.827	7.8
321.039	8.43
321.252	7.83
321.464	7.04
321.676	5.28
321.888	3.89
322.1	6.01
322.312	4.02
322.524	3.55
322.736	1.13
322.948	0.07
323.16	-0.26
323.372	-1.59
323.584	-1.21
323.796	-0.69
324.007	0.5
324.219	0.58
324.431	-1.52
324.643	-0.61
324.855	-0.83
325.067	2.17
325.279	3.86
325.491	2.91
325.702	5.05
325.914	5.08
326.126	4.91
326.338	4.75
326.55	4.96
326.761	5.8
326.973	6.8
327.185	7.07
327.396	5.97
327.608	5.07
327.82	5.74
328.032	4.89
328.243	5.71
328.455	6.06
328.666	6.59
328.878	5.93
329.09	5.3
329.301	4.94
329.513	5.75
329.725	6.57
329.936	7.81
330.148	7.34
330.359	7.67
330.571	6.63
330.782	5.73
330.994	5.48
331.205	7.8
331.417	7.39
331.628	7.09
331.84	7.03
332.051	6.01
332.262	4.46
332.474	5.73
332.685	4.3
332.897	5.32
333.108	6.38
333.319	5.99
333.531	5.31
333.742	6.05
333.953	7.36
334.165	7.02
334.376	7.49
334.587	7.95
334.799	7.17
335.01	7.1
335.221	6.74
335.432	7.71
335.644	7.52
335.855	5.62
336.066	4.4
336.277	3.01
336.488	2.97
336.7	2.01
336.911	2.94
337.122	3.01
337.333	3.83
337.544	4.36
337.755	3.99
337.966	4.85
338.177	7.04
338.388	8.03
338.599	9.1
338.811	9.4
339.022	9.73
339.233	9.47
339.444	9.91
339.655	10.25
339.866	9.42
340.076	8.49
340.287	7.18
340.498	6.48
340.709	6.27
340.92	4.49
341.131	4.14
341.342	5.09
341.553	3.88
341.764	3.28
341.975	3.75
342.185	4.31
342.396	4.91
342.607	6.29
342.818	6.53
343.029	5.94
343.239	6.82
343.45	6.48
343.661	6.16
343.872	6.08
344.082	6.21
344.293	5.37
344.504	5.73
344.714	6.26
344.925	6.08
345.136	5.49
345.346	6.51
345.557	6.36
345.768	6.41
345.978	5.73
346.189	7.14
346.399	7.3
346.61	7.77
346.821	7.04
347.031	6.43
347.242	5.62
347.452	5.81
347.663	6.3
347.873	6.47
348.084	5.93
348.294	6.55
348.504	5.71
348.715	5.66
348.925	6.34
349.136	7.39
349.346	7.01
349.557	7.35
349.767	6.97
349.977	6.71
350.188	6.68
350.398	7.55
350.608	7.82
350.819	6.57
351.029	6.58
351.239	6.54
351.449	6.12
351.66	6.9
351.87	6.27
352.08	7.35
352.29	6.78
352.501	6.8
352.711	6.27
352.921	5.33
353.131	5.83
353.341	5.59
353.552	4.12
353.762	3.89
353.972	3.87
354.182	5.17
354.392	5.07
354.602	5.41
354.812	5.84
355.022	5.44
355.232	6.54
355.442	6.98
355.652	7.41
355.862	7.7
356.072	7.75
356.282	7.87
356.492	8.33
356.702	8.09
356.912	7.71
357.122	7.89
357.332	8.34
357.542	7.54
357.752	7.56
357.962	7.28
358.171	6.9
358.381	7.52
358.591	7.11
358.801	6.34
359.011	6.01
359.221	5.33
359.43	4.74
359.64	4.65
359.85	5.13
360.06	4.99
360.269	5.3
360.479	5.98
360.689	5.28
360.899	5.81
361.108	5.74
361.318	6.11
361.528	6.49
361.737	7.1
361.947	7.52
362.156	7.29
362.366	7.76
362.576	7.34
362.785	6.88
362.995	7.35
363.204	6.94
363.414	6.45
363.623	6.03
363.833	5.71
364.042	4.97
364.252	5.29
364.461	4.92
364.671	4.35
364.88	5.13
365.09	5.53
365.299	4.98
365.509	4.69
365.718	5.13
365.927	4.5
366.137	5.05
366.346	5.22
366.555	4.38
366.765	4.96
366.974	5.13
367.183	3.84
367.393	3.76
367.602	4
367.811	4.36
368.021	4.67
368.23	4.88
368.439	4.5
368.648	4.38
368.857	4.77
369.067	4.45
369.276	4.28
369.485	5.11
369.694	4.4
369.903	3.72
370.112	3.8
370.321	3.7
370.531	4.17
370.74	4.4
370.949	4.35
371.158	3.57
371.367	4.22
371.576	4.31
371.785	3.96
371.994	4.33
372.203	4.72
372.412	4.94
372.621	4.83
372.83	4.93
373.039	4.92
373.248	4.86
373.457	5.49
373.666	5.21
373.874	5.04
374.083	4.8
374.292	4.58
374.501	4.72
374.71	3.9
374.919	3.78
375.128	4.22
375.336	4.28
375.545	4.58
375.754	4.22
375.963	3.99
376.171	4.31
376.38	5.27
376.589	5.84
376.798	6.15
377.006	6.45
377.215	6.45
377.424	5.88
377.632	5.6
377.841	4.95
378.05	5.16
378.258	5.32
378.467	5.11
378.675	4.45
378.884	3.71
379.093	3.33
379.301	3.65
379.51	3.7
379.718	3.43
379.927	3.57
380.135	4.09
380.344	3.63
380.552	3.31
380.761	3.68
380.969	4.07
381.177	4.54
381.386	4.46
381.594	4.35
381.803	4.29
382.011	4.59
382.219	4.6
382.428	4.68
382.636	4.94
382.845	5.13
383.053	4.4
383.261	3.78
383.469	3.82
383.678	3.61
383.886	3.12
384.094	3.33
384.302	3.43
384.511	3.64
384.719	3.06
384.927	2.72
385.135	2.63
385.343	2.84
385.552	2.87
385.76	2.82
385.968	2.89
386.176	3.27
386.384	2.75
386.592	2.75
386.8	2.53
387.008	3.17
387.216	3.45
387.424	3.46
387.633	3.34
387.841	3.29
388.049	3
388.257	3.63
388.465	3.73
388.672	4.05
388.88	4.05
389.088	3.94
389.296	3.7
389.504	3.53
389.712	3.46
389.92	3.85
390.128	3.71
390.336	3.86
390.544	3.4
390.751	2.99
390.959	2.96
391.167	2.61
391.375	3.06
391.583	2.89
391.79	3.36
391.998	3.41
392.206	3.12
392.414	3.47
392.621	3.5
392.829	3.3
393.037	3.42
393.244	3.75
393.452	3.58
393.66	3.16
393.867	3.49
394.075	2.88
394.283	3.02
394.49	3.23
394.698	3.12
394.905	2.99
395.113	2.84
395.32	3.08
395.528	2.91
395.735	3.36
395.943	3.29
396.15	2.89
396.358	3.05
396.565	3.32
396.773	2.87
396.98	3.31
397.188	3.6
397.395	3.91
397.602	3.41
397.81	3.36
398.017	3.37
398.225	3.65
398.432	3.97
398.639	3.82
398.847	3.42
399.054	3.49
399.261	3.05
399.468	3.1
399.676	2.95
399.883	3.01
400.09	2.62
400.297	2.79
400.505	2.55
400.712	2.66
400.919	3.02
401.126	2.81
401.333	2.78
401.54	3
401.748	2.52
401.955	2.66
402.162	3
402.369	3.16
402.576	2.94
402.783	3.33
402.99	2.83
403.197	2.87
403.404	2.96
403.611	3.19
403.818	3.25
404.025	3.19
404.232	3.09
404.439	3
404.646	3.02
404.853	2.85
405.06	2.56
405.267	2.66
405.474	2.38
405.681	2.63
405.887	2.57
406.094	2.28
406.301	2.27
406.508	2.14
406.715	2.19
406.922	2.08
407.128	2.1
407.335	1.98
407.542	1.99
407.749	2.14
407.955	1.67
408.162	1.65
408.369	1.94
408.575	2.49
408.782	2.53
408.989	2.26
409.195	2.33
409.402	2.4
409.609	2.44
409.815	2.5
410.022	2.57
410.228	2.97
410.435	2.78
410.642	2.59
410.848	2.27
411.055	2.53
411.261	2.63
411.468	2.4
411.674	2.22
411.881	2.08
412.087	2.22
412.294	2.19
412.5	2.01
412.706	2.52
412.913	2.35
413.119	2.4
413.326	2.1
413.532	2.01
413.738	2.41
413.945	2.4
414.151	2.86
414.357	2.82
414.564	2.55
414.77	2.7
414.976	2.26
415.182	2.25
415.389	2.42
415.595	2.46
415.801	2.61
416.007	2.42
416.214	2.41
416.42	2.3
416.626	2.22
416.832	2.3
417.038	2.22
417.244	2.24
417.45	2.2
417.657	2.27
417.863	2.27
418.069	2.09
418.275	2.3
418.481	2.29
418.687	2.28
418.893	2.44
419.099	2.49
419.305	2.48
419.511	2.56
419.717	2.66
419.923	2.55
420.129	2.75
420.335	2.85
420.541	2.75
420.746	2.91
420.952	2.82
421.158	2.69
421.364	2.69
421.57	2.8
421.776	2.91
421.982	2.92
422.187	2.81
422.393	2.66
422.599	2.61
422.805	2.57
423.01	2.49
423.216	2.61
423.422	2.53
423.628	2.57
423.833	2.49
424.039	2.4
424.245	2.47
424.45	2.63
424.656	2.65
424.862	2.77
425.067	2.78
425.273	2.88
425.478	2.68
425.684	2.78
425.889	2.77
426.095	2.57
426.301	2.44
426.506	2.35
426.712	2.33
426.917	2.15
427.123	2.16
427.328	2.11
427.533	1.85
427.739	2.08
427.944	2.09
428.15	1.99
428.355	2.09
428.561	2.18
428.766	1.95
428.971	1.78
429.177	1.96
429.382	1.58
429.587	1.53
429.793	1.57
429.998	1.55
430.203	1.56
430.408	1.89
430.614	2.13
430.819	2.09
431.024	2.2
431.229	2.14
431.434	2.01
431.64	2.43
431.845	2.66
432.05	2.68
432.255	2.56
432.46	2.43
432.665	1.9
432.87	1.9
433.076	1.96
433.281	1.92
433.486	1.93
433.691	2.02
433.896	1.82
434.101	1.73
434.306	1.71
434.511	1.85
434.716	1.95
434.921	2.28
435.126	2.32
435.331	2.36
435.535	2.5
435.74	2.58
435.945	2.68
436.15	2.63
436.355	2.55
436.56	2.46
436.765	2.19
436.97	2.06
437.174	1.91
437.379	1.65
437.584	1.49
437.789	1.34
437.993	1.34
438.198	1.37
438.403	1.38
438.608	1.37
438.812	1.62
439.017	1.8
439.222	1.91
439.426	2.05
439.631	2.22
439.836	2.44
440.04	2.65
440.245	2.63
440.45	2.41
440.654	2.55
440.859	2.61
441.063	2.63
441.268	2.59
441.472	2.61
441.677	2.55
441.881	2.4
442.086	2.19
442.29	2.17
442.495	2.17
442.699	2.18
442.904	1.95
443.108	1.93
443.312	1.7
443.517	1.74
443.721	1.74
443.925	1.81
444.13	1.95
444.334	2.11
444.538	2.15
444.743	2.14
444.947	2.34
445.151	2.47
445.356	2.47
445.56	2.53
445.764	2.52
445.968	2.46
446.173	2.46
446.377	2.4
446.581	2.39
446.785	2.22
446.989	2.21
447.193	2.19
447.398	2.24
447.602	2.3
447.806	2.41
448.01	2.2
448.214	2.36
448.418	2.37
448.622	2.32
448.826	2.35
449.03	2.39
449.234	2.45
449.438	2.51
449.642	2.47
449.846	2.57
450.05	2.47
450.254	2.75
450.458	2.54
450.662	2.28
450.866	2.35
451.069	2.07
451.273	2.09
451.477	2.04
451.681	2
451.885	2.05
452.089	1.92
452.292	1.93
452.496	1.89
452.7	1.86
452.904	2.08
453.107	2.03
453.311	2.2
453.515	2.19
453.719	2.16
453.922	2.07
454.126	1.93
454.33	1.91
454.533	1.94
454.737	1.88
454.94	1.8
455.144	1.79
455.348	1.89
455.551	1.92
455.755	1.65
455.958	1.66
456.162	1.71
456.365	1.64
456.569	1.7
456.772	1.62
456.976	1.7
457.179	1.72
457.383	1.56
457.586	1.65
457.79	1.57
457.993	1.78
458.196	1.94
458.4	2.03
458.603	2.1
458.807	1.92
459.01	1.92
459.213	1.91
459.417	2
459.62	2.11
459.823	2.12
460.026	2.11
460.23	2.22
460.433	2.04
460.636	1.88
460.839	1.91
461.042	1.9
461.246	1.92
461.449	1.85
461.652	1.66
461.855	1.52
462.058	1.34
462.261	1.36
462.464	1.23
462.668	1.31
462.871	1.42
463.074	1.26
463.277	1.53
463.48	1.28
463.683	1.3
463.886	1.71
464.089	1.96
464.292	2.04
464.495	2.08
464.698	2.22
464.901	2.39
465.104	2.4
465.306	2.52
465.509	2.21
465.712	2.16
465.915	2.22
466.118	1.97
466.321	1.63
466.524	1.54
466.726	1.39
466.929	1.31
467.132	1.2
467.335	1.1
467.538	0.97
467.74	1.02
467.943	1.22
468.146	1.27
468.348	1.31
468.551	1.51
468.754	1.73
468.956	1.9
469.159	1.72
469.362	1.81
469.564	2.01
469.767	2.07
469.969	2.04
470.172	2.19
470.375	2.24
470.577	2.29
470.78	2.22
470.982	1.96
471.185	2.07
471.387	2.23
471.59	2.09
471.792	1.87
471.995	1.88
472.197	1.89
472.399	1.77
472.602	1.57
472.804	1.46
473.007	1.67
473.209	1.79
473.411	1.7
473.614	1.89
473.816	1.83
474.018	1.86
474.22	1.77
474.423	1.96
474.625	1.96
474.827	2.03
475.03	2.04
475.232	1.72
475.434	1.74
475.636	1.63
475.838	1.58
476.04	1.67
476.243	1.73
476.445	1.73
476.647	1.66
476.849	1.71
477.051	1.95
477.253	2.02
477.455	2.16
477.657	2.13
477.859	2.07
478.061	1.88
478.263	1.91
478.465	1.9
478.667	2.02
478.869	1.9
479.071	1.93
479.273	1.81
479.475	1.88
479.677	1.9
479.879	1.88
480.081	2.05
480.283	2
480.485	2.03
480.686	1.92
480.888	1.75
481.09	1.81
481.292	1.86
481.494	1.87
481.695	1.84
481.897	1.91
482.099	2.05
482.301	1.94
482.502	2.11
482.704	2.12
482.906	2.24
483.107	2.33
483.309	2.4
483.511	2.37
483.712	2.31
483.914	2.28
484.115	2.26
484.317	2.24
484.519	2.36
484.72	2.32
484.922	2.29
485.123	2.27
485.325	2.26
485.526	2.18
485.728	2.18
485.929	2.2
486.131	2.22
486.332	2.3
486.534	2.33
486.735	2.16
486.936	2.14
487.138	2.22
487.339	2.24
487.541	2.19
487.742	2.21
487.943	2.23
488.144	2.23
488.346	2.23
488.547	2.17
488.748	2.12
488.95	2.17
489.151	2.21
489.352	2.16
489.553	2.1
489.755	2.2
489.956	2.18
490.157	2.11
490.358	2.09
490.559	2.11
490.76	2.18
490.961	2.21
491.163	2.23
491.364	2.16
491.565	2.22
491.766	2.27
491.967	2.25
492.168	2.32
492.369	2.32
492.57	2.34
492.771	2.43
492.972	2.42
493.173	2.45
493.374	2.35
493.575	2.45
493.776	2.49
493.976	2.41
494.177	2.36
494.378	2.3
494.579	2.31
494.78	2.29
494.981	2.11
495.182	2.09
495.382	1.94
495.583	2.08
495.784	2.18
495.985	2.05
496.185	2.28
496.386	2.32
496.587	2.28
496.788	2.26
496.988	2.43
497.189	2.37
497.39	2.33
497.59	2.46
497.791	2.52
497.992	2.3
498.192	2.3
498.393	2.12
498.593	2.21
498.794	2.25
498.994	2.23
499.195	2.19
499.395	2.32
499.596	2.23
499.796	2.31
499.997	2.25
500.197	2.28
500.398	2.33
500.598	2.38
500.799	2.2
500.999	2.24
501.199	2.22
501.4	2.19
501.6	2.25
501.801	2.21
502.001	2.09
502.201	2.13
502.402	2.31
502.602	2.17
502.802	2.05
503.002	1.98
503.203	1.93
503.403	2.05
503.603	2.08
503.803	1.97
504.003	2.04
504.204	2.06
504.404	1.89
504.604	1.65
504.804	1.77
505.004	1.8
505.204	1.91
505.404	1.9
505.604	1.92
505.804	1.84
506.005	1.86
506.205	1.84
506.405	1.83
506.605	1.93
506.805	2.01
507.005	2.08
507.204	2.25
507.404	2.43
507.604	2.56
507.804	2.57
508.004	2.65
508.204	2.72
508.404	2.86
508.604	2.89
508.804	3.05
509.003	3.11
509.203	3.07
509.403	3.01
509.603	2.83
509.803	2.73
510.002	2.73
510.202	2.68
510.402	2.63
510.602	2.48
510.801	2.38
511.001	2.32
511.201	2.21
511.4	2.07
511.6	1.96
511.8	1.95
511.999	2.04
512.199	2.08
512.398	2.19
512.598	2.14
512.797	2.15
512.997	2.19
513.197	2.11
513.396	2.19
513.596	2.28
513.795	2.33
513.994	2.38
514.194	2.38
514.393	2.21
514.593	2.2
514.792	2.17
514.992	2.13
515.191	2.01
515.39	2.07
515.59	2.17
515.789	2.2
515.988	2.15
516.188	2.27
516.387	2.3
516.586	2.38
516.786	2.3
516.985	2.5
517.184	2.61
517.383	2.8
517.582	2.81
517.782	2.77
517.981	2.79
518.18	2.95
518.379	3.01
518.578	2.87
518.777	2.86
518.976	3.01
519.176	3
519.375	3.05
519.574	3.02
519.773	3.13
519.972	3.15
520.171	3.29
520.37	3.33
520.569	3.27
520.768	3.45
520.967	3.55
521.166	3.46
521.365	3.39
521.564	3.31
521.762	3.3
521.961	3.1
522.16	3.32
522.359	3.26
522.558	3.1
522.757	3.09
522.956	2.92
523.154	2.95
523.353	2.87
523.552	3.02
523.751	3.08
523.949	3.13
524.148	3.24
524.347	3.13
524.546	3.06
524.744	3.1
524.943	3.14
525.142	3.28
525.34	3.28
525.539	3.43
525.737	3.42
525.936	3.38
526.135	3.27
526.333	3.31
526.532	3.38
526.73	3.39
526.929	3.54
527.127	3.64
527.326	3.68
527.524	3.59
527.723	3.56
527.921	3.61
528.12	3.68
528.318	3.79
528.516	3.84
528.715	3.85
528.913	3.79
529.112	3.68
529.31	3.64
529.508	3.6
529.707	3.67
529.905	3.68
530.103	3.61
530.301	3.59
530.5	3.51
530.698	3.46
530.896	3.41
531.094	3.56
531.293	3.69
531.491	3.73
531.689	3.75
531.887	3.77
532.085	3.81
532.283	3.86
532.481	3.93
532.68	4.04
532.878	4.13
533.076	4.08
533.274	4.1
533.472	4.1
533.67	4.02
533.868	4.09
534.066	4.1
534.264	4.1
534.462	4.17
534.66	4.15
534.858	4.16
535.056	4.08
535.253	4.09
535.451	4.08
535.649	4.1
535.847	4.21
536.045	4.17
536.243	4.32
536.441	4.35
536.638	4.26
536.836	4.24
537.034	4.29
537.232	4.31
537.43	4.42
537.627	4.44
537.825	4.47
538.023	4.39
538.22	4.39
538.418	4.35
538.616	4.37
538.813	4.57
539.011	4.78
539.209	4.61
539.406	4.68
539.604	4.69
539.801	4.69
539.999	4.73
540.196	4.85
540.394	4.9
540.591	4.97
540.789	5
540.986	4.98
541.184	4.89
541.381	4.98
541.579	5
541.776	5
541.974	5.06
542.171	5.15
542.368	5.22
542.566	5.24
542.763	5.23
542.96	5.27
543.158	5.19
543.355	5.34
543.552	5.33
543.75	5.31
543.947	5.42
544.144	5.5
544.341	5.43
544.539	5.38
544.736	5.38
544.933	5.3
545.13	5.22
545.327	5.34
545.524	5.34
545.722	5.47
545.919	5.48
546.116	5.4
546.313	5.35
546.51	5.42
546.707	5.57
546.904	5.72
547.101	5.7
547.298	5.8
547.495	5.76
547.692	5.6
547.889	5.75
548.086	6.06
548.283	6.12
548.48	6.06
548.677	6.03
548.874	5.95
549.07	5.8
549.267	5.98
549.464	6.14
549.661	6.37
549.858	6.54
550.055	6.42
550.251	6.12
550.448	6.3
550.645	6.53
550.842	6.76
551.038	6.95
551.235	7.26
551.432	7.36
551.628	7.3
551.825	7.19
552.022	7.35
552.218	7.37
552.415	7.48
552.612	7.46
552.808	7.59
553.005	7.55
553.201	7.64
553.398	7.39
553.594	7.58
553.791	7.73
553.987	7.97
554.184	8.02
554.38	8.08
554.577	8.09
554.773	7.99
554.97	7.82
555.166	7.96
555.362	7.93
555.559	8.14
555.755	8.09
555.952	8.16
556.148	8.08
556.344	8.24
556.541	8.59
556.737	8.71
556.933	9.02
557.129	9.24
557.326	9.12
557.522	9.17
557.718	9.3
557.914	9.28
558.11	9.38
558.307	9.31
558.503	9.16
558.699	9.09
558.895	9.25
559.091	9.07
559.287	9.31
559.483	9.39
559.679	9.5
559.876	9.6
560.072	9.63
560.268	9.65
560.464	10.07
560.66	10.05
560.856	10
561.052	9.88
561.247	9.98
561.443	9.95
561.639	9.84
561.835	9.67
562.031	9.72
562.227	9.97
562.423	9.81
562.619	9.71
562.815	9.88
563.01	9.89
563.206	10.18
563.402	10.46
563.598	10.28
563.793	10.59
563.989	10.73
564.185	10.78
564.381	10.74
564.576	10.81
564.772	10.84
564.968	11.01
565.163	11.23
565.359	11.25
565.555	11.28
565.75	11.52
565.946	11.61
566.141	11.71
566.337	11.75
566.532	12.1
566.728	12.4
566.923	12.57
567.119	12.49
567.314	12.51
567.51	12.56
567.705	12.65
567.901	12.78
568.096	12.69
568.292	12.94
568.487	13.17
568.682	12.91
568.878	12.93
569.073	13.32
569.268	13.37
569.464	13.43
569.659	13.44
569.854	13.57
570.05	13.52
570.245	13.72
570.44	13.63
570.635	13.29
570.831	13.48
571.026	13.41
571.221	13.17
571.416	13.4
571.611	13.52
571.806	13.58
572.002	13.42
572.197	13.55
572.392	13.46
572.587	13.66
572.782	13.97
572.977	14
573.172	13.92
573.367	13.93
573.562	13.81
573.757	13.46
573.952	13.51
574.147	13.59
574.342	13.5
574.537	13.65
574.732	13.6
574.927	13.51
575.121	13.61
575.316	13.97
575.511	14.08
575.706	14.26
575.901	14.57
576.096	14.63
576.29	14.49
576.485	14.6
576.68	14.58
576.875	14.68
577.069	14.83
577.264	14.74
577.459	14.7
577.654	14.57
577.848	14.56
578.043	14.71
578.238	14.78
578.432	15.24
578.627	15.29
578.821	15.41
579.016	15.32
579.21	15.34
579.405	15.26
579.6	15.28
579.794	15.45
579.989	15.49
580.183	15.37
580.378	15.45
580.572	15.21
580.766	15.21
580.961	15.38
581.155	15.29
581.35	15.11
581.544	15.22
581.738	15.04
581.933	15.23
582.127	15.17
582.321	15.43
582.516	15.45
582.71	15.52
582.904	15.6
583.099	15.37
583.293	15.4
583.487	15.71
583.681	15.77
583.875	15.94
584.07	15.75
584.264	15.82
584.458	15.79
584.652	15.67
584.846	15.85
585.04	16.07
585.234	16.18
585.428	16.45
585.623	16.41
585.817	16.39
586.011	16.32
586.205	16.16
586.399	16.12
586.593	16.01
586.787	16.18
586.981	16.26
587.174	15.94
587.368	15.96
587.562	15.96
587.756	16.21
587.95	16.25
588.144	16.69
588.338	16.98
588.532	17.13
588.725	17.18
588.919	17.04
589.113	17.14
589.307	17.5
589.501	17.29
589.694	17.27
589.888	17.2
590.082	17.34
590.275	17.07
590.469	17.06
590.663	17.14
590.856	17.43
591.05	17.75
591.244	17.52
591.437	17.49
591.631	17.74
591.824	17.74
592.018	17.65
592.212	17.57
592.405	17.3
592.599	17.3
592.792	17
592.986	16.72
593.179	16.58
593.372	16.61
593.566	16.44
593.759	16.67
593.953	16.61
594.146	16.55
594.339	16.65
594.533	16.84
594.726	16.89
594.92	17.04
595.113	17.22
595.306	17.32
595.499	17.33
595.693	17.51
595.886	17.66
596.079	17.77
596.272	17.89
596.466	17.99
596.659	18.03
596.852	18.05
597.045	18.31
597.238	18.04
597.431	17.8
597.624	17.74
597.818	17.57
598.011	17.34
598.204	17.3
598.397	17.23
598.59	17.13
598.783	17.21
598.976	17.09
599.169	16.84
599.362	17.05
599.555	17.14
599.748	17.28
599.941	17.38
600.134	17.3
600.326	17.42
600.519	17.49
600.712	17.61
600.905	17.93
601.098	18.05
601.291	18.21
601.483	18.1
601.676	18.22
601.869	18.14
602.062	18.25
602.255	18.51
602.447	18.31
602.64	18.48
602.833	18.38
603.025	18.11
603.218	18.21
603.411	18.07
603.603	18.2
603.796	18.33
603.989	18.29
604.181	18.14
604.374	18.03
604.566	18.08
604.759	18.13
604.951	18.06
605.144	18.02
605.336	17.99
605.529	18.08
605.721	18.07
605.914	17.95
606.106	18.15
606.299	18.18
606.491	18.17
606.683	18.16
606.876	17.78
607.068	17.99
607.26	17.91
607.453	17.93
607.645	17.84
607.837	18.06
608.03	17.93
608.222	17.79
608.414	17.9
608.606	17.89
608.799	18
608.991	18.27
609.183	18.24
609.375	18.33
609.567	18.31
609.759	18.36
609.952	18.22
610.144	18.17
610.336	18.36
610.528	18.36
610.72	18.31
610.912	18.11
611.104	18.08
611.296	17.99
611.488	18.09
611.68	17.94
611.872	17.75
612.064	17.83
612.256	18
612.448	17.83
612.64	17.68
612.832	17.85
613.023	17.99
613.215	17.86
613.407	17.79
613.599	17.51
613.791	17.66
613.983	17.85
614.174	17.51
614.366	17.65
614.558	17.64
614.75	17.51
614.941	17.21
615.133	17.44
615.325	17.56
615.516	17.53
615.708	17.81
615.9	17.83
616.091	18.12
616.283	18.22
616.475	18.15
616.666	18.24
616.858	18.6
617.049	18.65
617.241	18.33
617.432	17.94
617.624	18.04
617.815	18.02
618.007	18.18
618.198	17.84
618.39	17.83
618.581	17.61
618.773	17.63
618.964	17.44
619.155	17.77
619.347	17.85
619.538	18.24
619.729	18.55
619.921	18.64
620.112	18.52
620.303	18.82
620.494	19.14
620.686	19.65
620.877	19.84
621.068	20.12
621.259	19.86
621.451	20.16
621.642	19.9
621.833	19.49
622.024	19.34
622.215	19.12
622.406	18.96
622.597	18.77
622.788	18.33
622.98	18.32
623.171	18.27
623.362	18.42
623.553	18.43
623.744	18.64
623.935	18.7
624.126	19.19
624.317	19.35
624.508	19.3
624.698	19.12
624.889	19.28
625.08	19.23
625.271	18.79
625.462	18.81
625.653	18.71
625.844	18.82
626.034	18.71
626.225	18.35
626.416	18.32
626.607	18.63
626.798	18.63
626.988	18.85
627.179	18.54
627.37	18.77
627.56	18.6
627.751	18.64
627.942	18.65
628.132	18.92
628.323	18.93
628.514	18.93
628.704	18.84
628.895	18.88
629.085	18.73
629.276	19.01
629.466	18.83
629.657	18.86
629.847	18.7
630.038	18.31
630.228	18.01
630.419	18.17
630.609	18.38
630.8	18.16
630.99	18.26
631.181	18.51
631.371	18.49
631.561	18.71
631.752	18.96
631.942	18.93
632.132	19.22
632.323	19.32
632.513	19.36
632.703	18.96
632.893	19.06
633.084	19.29
633.274	19.28
633.464	19.16
633.654	19.18
633.844	18.96
634.034	19.18
634.225	18.96
634.415	19.02
634.605	19.06
634.795	19.21
634.985	19.42
635.175	19.31
635.365	18.92
635.555	19.08
635.745	19.2
635.935	19.19
636.125	19.29
636.315	19.38
636.505	19.6
636.695	19.26
636.885	19.28
637.075	18.71
637.265	18.54
637.455	18.87
637.644	19.01
637.834	19.04
638.024	19.65
638.214	19.58
638.404	19.87
638.593	19.43
638.783	19.55
638.973	19.88
639.163	20.08
639.352	20.28
639.542	20
639.732	19.79
639.921	19.8
640.111	19.58
640.301	19.59
640.49	19.41
640.68	19.55
640.87	19.62
641.059	19.51
641.249	19.71
641.438	19.51
641.628	19.41
641.817	18.88
642.007	18.92
642.196	18.41
642.386	18.65
642.575	18.78
642.764	19.17
642.954	19.55
643.143	19.69
643.333	19.62
643.522	19.8
643.711	20.01
643.901	20.64
644.09	20.93
644.279	21.41
644.469	20.6
644.658	20.98
644.847	20.67
645.036	20.29
645.226	19.83
645.415	19.73
645.604	19.24
645.793	19.32
645.982	19.21
646.171	18.69
646.361	18.12
646.55	18.72
646.739	18.35
646.928	18.75
647.117	18.85
647.306	18.93
647.495	18.89
647.684	19.42
647.873	19.54
648.062	19.26
648.251	19.08
648.44	19.67
648.629	19.54
648.818	19.77
649.007	19.16
649.196	19.07
649.384	19.04
649.573	18.9
649.762	18.96
649.951	18.65
650.14	18.88
650.328	19.22
650.517	19.38
650.706	18.72
650.895	19.06
651.083	19.31
651.272	18.93
651.461	19.45
651.65	19.87
651.838	19.96
652.027	20.28
652.216	20.45
652.404	20.85
652.593	20.29
652.781	21.1
652.97	20.73
653.158	20.89
653.347	21.41
653.535	20.62
653.724	20.27
653.912	19.84
654.101	19.48
654.289	19.13
654.478	18.13
654.666	18.5
654.855	18.08
655.043	17.87
655.231	17.86
655.42	17.4
655.608	17.87
655.796	18.02
655.985	17.88
656.173	17.84
656.361	18.24
656.55	18.58
656.738	18.39
656.926	18.67
657.114	18.71
657.302	18.79
657.491	19.31
657.679	19.15
657.867	19.39
658.055	19.9
658.243	20.17
658.431	19.91
658.619	19.97
658.807	20.22
658.996	20.3
659.184	20.36
659.372	20.12
659.56	19.9
659.748	20.35
659.936	20.25
660.124	20.14
660.311	20.2
660.499	20.54
660.687	20.8
660.875	20.83
661.063	20.53
661.251	20.42
661.439	20.73
661.627	21.03
661.814	20.73
662.002	21.02
662.19	21.27
662.378	21.2
662.565	20.71
662.753	20.1
662.941	19.94
663.129	20.15
663.316	20.1
663.504	20.06
663.692	19.33
663.879	19.18
664.067	18.64
664.254	18.25
664.442	17.99
664.63	18.51
664.817	18.81
665.005	18.83
665.192	18.97
665.38	19.37
665.567	19.69
665.755	19.96
665.942	19.85
666.13	19.92
666.317	20.06
666.504	20.14
666.692	19.64
666.879	19.76
667.067	19.73
667.254	19.67
667.441	19.75
667.629	19.52
667.816	19.13
668.003	19.39
668.19	19.66
668.378	19.76
668.565	19.63
668.752	19.69
668.939	19.56
669.127	19.62
669.314	19.49
669.501	19.65
669.688	19.25
669.875	19.91
670.062	20.13
670.249	19.75
670.436	19.71
670.623	19.66
670.81	19.83
670.997	19.91
671.184	19.34
671.371	19.64
671.558	18.98
671.745	19.2
671.932	19.25
672.119	18.98
672.306	18.71
672.493	18.71
672.68	19.28
672.867	19.08
673.054	18.71
673.24	19.11
673.427	18.89
673.614	18.68
673.801	18.85
673.988	18.92
674.174	19.26
674.361	20.09
674.548	19.95
674.734	20.01
674.921	20.04
675.108	20.65
675.294	20.8
675.481	20.71
675.668	21.59
675.854	21.68
676.041	21.45
676.227	21.24
676.414	21.2
676.601	21.55
676.787	21.27
676.974	21.55
677.16	21.37
677.347	21.01
677.533	21.4
677.719	20.77
677.906	20.3
678.092	20.13
678.279	20.13
678.465	19.97
678.651	19.8
678.838	19.83
679.024	20.33
679.21	19.99
679.397	20.02
679.583	19.8
679.769	19.79
679.955	20.08
680.142	20.17
680.328	20.01
680.514	19.71
680.7	19.58
680.886	19.56
681.073	18.76
681.259	18.76
681.445	18.65
681.631	18.45
681.817	18.52
682.003	18.43
682.189	18.2
682.375	17.76
682.561	18.1
682.747	18.08
682.933	17.78
683.119	18.12
683.305	18.91
683.491	19.48
683.677	19.55
683.863	19.47
684.049	19
684.235	19.51
684.42	20.48
684.606	20.02
684.792	20.23
684.978	20.38
685.164	20.5
685.349	19.72
685.535	19.51
685.721	19.7
685.907	20.04
686.092	20.22
686.278	20.14
686.464	19.91
686.649	20.38
686.835	20.44
687.021	20.34
687.206	20.33
687.392	20.28
687.577	20.6
687.763	20.48
687.948	20.45
688.134	20.42
688.319	20.24
688.505	20.13
688.69	19.86
688.876	19.67
689.061	19.7
689.247	19.45
689.432	19.63
689.618	19.76
689.803	19.7
689.988	19.31
690.174	19.45
690.359	19.29
690.544	18.95
690.73	19.14
690.915	19.42
691.1	19.3
691.285	18.96
691.471	19
691.656	17.97
691.841	18.45
692.026	18.69
692.211	18.96
692.396	18.41
692.582	18.6
692.767	18.59
692.952	18.02
693.137	18.14
693.322	18.08
693.507	18.31
693.692	18.77
693.877	18.27
694.062	17.92
694.247	17.72
694.432	18.48
694.617	18.32
694.802	18.46
694.987	18.91
695.172	18.64
695.357	19.46
695.541	19.48
695.726	19.77
695.911	19.74
696.096	20.31
696.281	19.96
696.466	19.82
696.65	19.86
696.835	20.04
697.02	19.95
697.204	19.72
697.389	19.78
697.574	19.69
697.759	19.4
697.943	19.43
698.128	19.12
698.312	19.67
698.497	19.62
698.682	19.83
698.866	19.71
699.051	19.84
699.235	20.29
699.42	19.69
699.604	19.97
699.789	19.92
699.973	20.02
700.158	20.45
700.342	20.34
700.527	20.79
700.711	20.61
700.895	20.18
701.08	20.03
701.264	19.63
701.448	20.01
701.633	19.15
701.817	19.46
702.001	19.49
702.186	18.87
702.37	18.76
702.554	18.4
702.738	18.08
702.923	18.76
703.107	18.97
703.291	19.32
703.475	19.78
703.659	20.64
703.843	20.54
704.027	20.35
704.212	20.01
704.396	19.47
704.58	19.4
704.764	19.5
704.948	19.2
705.132	18.33
705.316	18.66
705.5	18.52
705.684	18.04
705.868	17.51
706.052	17.46
706.235	18.03
706.419	18.12
706.603	17.79
706.787	18.65
706.971	18.65
707.155	19.36
707.339	18.92
707.522	18.81
707.706	18.87
707.89	19.63
708.074	19.25
708.257	19.16
708.441	18.5
708.625	18.61
708.808	18.16
708.992	18.34
709.176	17.91
709.359	18.8
709.543	18.45
709.727	18.49
709.91	19.03
710.094	19.5
710.277	19.64
710.461	20.24
710.644	20.42
710.828	20.43
711.011	19.94
711.195	20.22
711.378	19.07
711.562	19.36
711.745	19.52
711.928	18.97
712.112	19.2
712.295	18.99
712.478	19.58
712.662	19.97
712.845	19.91
713.028	19.9
713.212	20.34
713.395	20.64
713.578	20.8
713.761	20
713.945	19.55
714.128	19.76
714.311	20.04
714.494	19.88
714.677	19.85
714.86	19.78
715.043	20.09
715.227	19.27
715.41	18.99
715.593	18.63
715.776	19.58
715.959	20.81
716.142	20.05
716.325	19.69
716.508	19.21
716.691	18.72
716.874	19.08
717.057	18.97
717.239	19.29
717.422	19.01
717.605	19.18
717.788	18.83
717.971	18.58
718.154	19.92
718.337	20.28
718.519	20.99
718.702	21.33
718.885	21.48
719.068	21.86
719.25	21.38
719.433	22
719.616	21.2
719.798	20.99
719.981	20.02
720.164	18.5
720.346	18.24
720.529	17.44
720.712	16.84
720.894	16.8
721.077	16.56
721.259	17.08
721.442	16.94
721.624	17.12
721.807	17.55
721.989	17.72
722.172	18.27
722.354	17.85
722.537	17.14
722.719	16.86
722.901	16.22
723.084	15.67
723.266	15.31
723.448	16.04
723.631	16.95
723.813	16.46
723.995	15.78
724.178	16.48
724.36	17.04
724.542	18.72
724.724	18.79
724.907	19.14
725.089	19.54
725.271	19.31
725.453	19.24
725.635	18.76
725.817	18.42
725.999	18.96
726.181	17.61
726.364	17.4
726.546	17.62
726.728	17.87
726.91	16.83
727.092	17.53
727.274	17.74
727.456	17.75
727.638	18.5
727.819	18.22
728.001	18.56
728.183	18.57
728.365	18.7
728.547	18.36
728.729	18.1
728.911	18.39
729.093	17.88
729.274	18.67
729.456	17.85
729.638	17.6
729.82	18.68
730.001	17.74
730.183	18.44
730.365	18.63
730.546	18.28
730.728	19.11
730.91	19.11
731.091	19.04
731.273	18.28
731.455	19.26
731.636	18.87
731.818	18.66
731.999	19.93
732.181	19.71
732.362	18.85
732.544	19.19
732.725	18.76
732.907	18.85
733.088	18.51
733.27	19.33
733.451	18.55
733.633	19.28
733.814	20.09
733.995	19.55
734.177	19.78
734.358	20.45
734.539	21.05
734.721	20.8
734.902	20.07
735.083	21.09
735.264	19.97
735.446	21.27
735.627	20.5
735.808	19.76
735.989	18.88
736.17	18.49
736.351	18.3
736.533	16.68
736.714	16.34
736.895	17.63
737.076	17.46
737.257	17.41
737.438	15.67
737.619	16.1
737.8	16.01
737.981	17.45
738.162	16.86
738.343	15.92
738.524	16.64
738.705	16.63
738.886	15.93
739.067	14.89
739.247	15.7
739.428	16.29
739.609	16.14
739.79	16.1
739.971	15.01
740.151	16.31
740.332	17.66
740.513	18.1
740.694	19.05
740.874	19.57
741.055	20.43
741.236	19.69
741.417	20.27
741.597	20.02
741.778	19.21
741.958	18.94
742.139	18.25
742.32	18.45
742.5	18.2
742.681	18.26
742.861	17.44
743.042	15.77
743.222	15.78
743.403	15.73
743.583	15.84
743.764	15.91
743.944	16.41
744.124	16.83
744.305	15
744.485	12.84
744.666	11.72
744.846	12.67
745.026	13.91
745.207	15.08
745.387	14.81
745.567	14.78
745.747	15.15
745.928	15.18
746.108	15.7
746.288	16.59
746.468	19.11
746.648	20.77
746.829	20.48
747.009	21.13
747.189	18.81
747.369	17.32
747.549	16.86
747.729	16.13
747.909	16.11
748.089	16.43
748.269	15.43
748.449	13.54
748.629	11.92
748.809	11.01
748.989	9.82
749.169	10.91
749.349	11.73
749.529	13.05
749.709	14.42
749.889	14.51
750.068	12.93
750.248	14.81
750.428	14.57
750.608	13.23
750.788	13.86
750.967	14.06
751.147	14.18
751.327	15.13
751.507	14.99
751.686	15.39
751.866	15.44
752.046	15.98
752.225	15.49
752.405	16.16
752.585	18.28
752.764	18.53
752.944	18.17
753.123	20.26
753.303	20.72
753.482	19.2
753.662	19.52
753.841	19.35
754.021	19.63
754.2	20.5
754.38	21.54
754.559	21.14
754.739	21.37
754.918	22.41
755.097	22.36
755.277	20.59
755.456	21.92
755.635	21.05
755.815	20.85
755.994	20.49
756.173	19.71
756.352	19.44
756.532	18.52
756.711	17.97
756.89	16.02
757.069	14.71
757.248	15.51
757.427	15.75
757.607	15.55
757.786	15.34
757.965	14.34
758.144	14.33
758.323	13.83
758.502	14.87
758.681	14.7
758.86	16.36
759.039	16.55
759.218	16.89
759.397	17.05
759.576	17.33
759.755	17.98
759.934	16.95
760.113	17.29
760.291	15.94
760.47	14.65
760.649	14.75
760.828	14.26
761.007	14.57
761.186	14.37
761.364	12.66
761.543	11.85
761.722	10.83
761.901	12.34
762.079	11.36
762.258	12.66
762.437	14.03
762.615	13.53
762.794	14.43
762.972	14.18
763.151	13.88
763.33	15.55
763.508	16.33
763.687	16.87
763.865	17.97
764.044	18.71
764.222	18.99
764.401	18.54
764.579	20.1
764.758	19.42
764.936	18.67
765.114	18.43
765.293	17.55
765.471	18.63
765.65	19.43
765.828	17.05
766.006	17.14
766.184	17.37
766.363	17.24
766.541	15.36
766.719	15.25
766.898	15.74
767.076	16.11
767.254	16.68
767.432	13.91
767.61	11.82
767.788	13.37
767.967	12.08
768.145	11.54
768.323	13.21
768.501	13.29
768.679	13.68
768.857	14.32
769.035	14.89
769.213	15.3
769.391	16.97
769.569	17.46
769.747	18.34
769.925	19.61
770.103	21.85
770.281	22
770.459	21.62
770.636	20.92
770.814	19.11
770.992	18.81
771.17	16.17
771.348	15.95
771.525	17.11
771.703	15.78
771.881	14.59
772.059	14.13
772.236	11.72
772.414	11.53
772.592	15.15
772.769	17.78
772.947	18.24
773.125	21.76
773.302	20.24
773.48	19.73
773.657	18.28
773.835	20.03
774.013	17.13
774.19	17.4
774.368	19.68
774.545	16.78
774.723	15
774.9	16.26
775.077	15.43
775.255	18.07
775.432	17.84
775.61	20.5
775.787	18.77
775.964	18.93
776.142	18.73
776.319	20.03
776.496	19.47
776.674	19.31
776.851	19.31
777.028	19.24
777.205	17.92
777.382	17.88
777.56	17.98
777.737	17.19
777.914	18.89
778.091	19.19
778.268	15.16
778.445	15.95
778.622	18.06
778.8	17.96
778.977	14.1
779.154	12.72
779.331	13.35
779.508	9.98
779.685	11.66
779.862	10.28
780.038	8.58
780.215	8.84
780.392	9.32
780.569	8.05
780.746	8.92
780.923	10.34
781.1	10.24
781.277	8.7
781.453	12.19
781.63	13.18
781.807	11.33
781.984	14.33
782.16	13.07
782.337	15.27
782.514	15.68
782.691	12.3
782.867	15.46
783.044	18.63
783.221	14.28
783.397	15.83
783.574	13.71
783.75	16.34
783.927	16.57
784.103	17.79
784.28	14.9
784.456	13.49
784.633	17.97
784.809	17.89
784.986	17.06
785.162	21.04
785.339	19.37
785.515	19.33
785.692	17.75
785.868	19.31
786.044	20.68
786.221	20.44
786.397	20.23
786.573	16.53
786.749	13.77
786.926	13.38
787.102	13.73
787.278	12.94
787.454	15.35
787.631	15.42
787.807	11.29
787.983	13.97
788.159	14.64
788.335	14.35
788.511	15.64
788.687	18.39
788.863	17.5
789.039	17.64
789.216	18.27
789.392	15.52
789.568	13.68
789.744	14.78
789.919	12.37
790.095	8.3
790.271	12.46
790.447	9.51
790.623	5.74
790.799	5.18
790.975	9.46
791.151	10.69
791.327	8
791.502	8.62
791.678	10.85
791.854	9.83
792.03	12.66
792.205	8.57
792.381	10.74
792.557	12.53
792.733	11.97
792.908	5.38
793.084	4.31
793.259	7.23
793.435	8
793.611	7.82
793.786	9.46
793.962	9.14
794.137	9.6
794.313	6.83
794.488	7.69
794.664	6.56
794.839	9.63
795.015	9.29
795.19	13.54
795.366	13.91
795.541	12.31
795.716	12.27
795.892	15.05
796.067	15.2
796.242	17.53
796.418	18.52
796.593	18.57
796.768	18.45
796.944	18.26
797.119	14.2
797.294	15.46
797.469	13.2
797.644	10.92
797.82	8.86
797.995	11.92
798.17	12.51
798.345	13.06
798.52	14.91
798.695	12.3
798.87	12.07
799.045	14.93
799.22	16.31
799.395	16.57
799.57	13.79
799.745	15.12
799.92	14.49
800.095	16.5
800.27	11.65
800.445	11.09
800.62	13.23
800.795	10.15
800.97	7.26
801.145	1.35
801.319	1
801.494	5.17
801.669	1.57
801.844	-2.55
802.018	-8.58
802.193	-5.12
802.368	-4.27
802.543	-4.36
802.717	-4.32
802.892	-0.89
803.067	3.59
803.241	7.93
803.416	11.27
803.59	14.84
803.765	13.46
803.94	18.03
804.114	20.56
804.289	21.4
804.463	21.73
804.638	26.33
804.812	25.49
804.986	24
805.161	20.34
805.335	19.26
805.51	14.73
805.684	19.67
805.858	19.86
806.033	16.43
806.207	13.29
806.381	12.98
806.556	13.32
806.73	13.19
806.904	16.09
807.078	16.22
807.253	15.91
807.427	18.16
807.601	18.08
807.775	15.23
807.949	16.58
808.123	20.36
808.298	14.12
808.472	14.07
808.646	10.92
808.82	9.18
808.994	8.06
809.168	10.53
809.342	9.55
809.516	3.09
809.69	5.06
809.864	4.89
810.038	3.74
810.212	10.79
810.385	11.25
810.559	8.63
810.733	7.32
810.907	10.3
811.081	6.6
811.255	7.34
811.428	10.27
811.602	5.06
811.776	7.67
811.95	9.04
812.123	3.23
812.297	-1.01
812.471	3.35
812.644	6.58
812.818	2.42
812.992	-3.68
813.165	-2.15
813.339	0.72
813.512	5.23
813.686	0.74
813.86	-2.86
814.033	-0.74
814.207	3.29
814.38	4.96
814.554	-2.21
814.727	-0.16
814.9	10.37
815.074	4.79
815.247	-0.53
815.421	3.77
815.594	3.74
815.767	-2.11
815.941	-4.55
816.114	-5
816.287	-4.73
816.46	-0.92
816.634	0.01
816.807	-2.97
816.98	3.9
817.153	12.07
817.327	0.93
817.5	-3.32
817.673	2.95
817.846	3.52
818.019	5.27
818.192	1.87
818.365	2.26
818.538	7.96
818.711	11.06
818.884	9.53
819.057	5.66
819.23	14.28
819.403	19.76
819.576	19.16
819.749	19.19
819.922	18.7
820.095	21.83
820.268	24.98
820.441	21.17
820.614	21.27
820.786	21.42
820.959	25.79
821.132	25.44
821.305	24.67
821.477	24.39
821.65	24.77
821.823	23.01
821.996	21.54
822.168	21.38
822.341	21.41
822.514	21.54
822.686	21.33
822.859	19.89
823.031	18.93
823.204	19.06
823.376	19.19
823.549	19.62
823.722	19.54
823.894	19.94
824.067	18.73
824.239	18.79
824.411	18.51
824.584	18.67
824.756	18.58
824.929	18.7
825.101	18.23
825.273	17.48
825.446	16.85
825.618	16.42
825.79	15.68
825.963	16.59
826.135	17.03
826.307	15.93
826.479	17.13
826.652	15.66
826.824	17.39
826.996	17.69
827.168	18.6
827.34	18.34
827.512	19.29
827.684	18.54
827.856	17.84
828.029	18.62
828.201	18.52
828.373	15.76
828.545	17
828.717	14.91
828.889	13.88
829.061	12.48
829.232	11.84
829.404	13.66
829.576	14.69
829.748	15.07
829.92	10.19
830.092	10.78
830.264	13.29
830.436	11.75
830.607	14.18
830.779	11.24
830.951	9.7
831.123	9.7
831.294	6.24
831.466	5.46
831.638	8.41
831.809	16.05
831.981	15.78
832.153	9.86
832.324	9.67
832.496	5.92
832.667	11.02
832.839	14.34
833.011	13.01
833.182	11.36
833.354	12.05
833.525	10.76
833.697	6.94
833.868	5.89
834.039	7.06
834.211	9.19
834.382	10.01
834.554	8.59
834.725	7.55
834.896	4.6
835.068	5.07
835.239	3.49
835.41	2.74
835.581	1.92
835.753	2.06
835.924	6.36
836.095	5.62
836.266	3.26
836.438	4.55
836.609	0.81
836.78	4.59
836.951	6.47
837.122	9.92
837.293	7.04
837.464	10.58
837.635	12.38
837.806	11.82
837.977	9.5
838.148	12.15
838.319	7.7
838.49	13.96
838.661	11.64
838.832	11.98
839.003	10.05
839.174	7.67
839.345	7.39
839.516	0.75
839.687	-1.7
839.857	1.3
840.028	-12.41
840.199	-1.7
840.37	-12.28
840.54	-1.11
840.711	-11.74
840.882	-17.01
841.053	-7.61
841.223	-29.03
841.394	-23.92
841.564	-33.11
841.735	-35.75
841.906	-19.66
842.076	-11.43
842.247	-6.42
842.417	-15.64
842.588	-12.69
842.758	-2.28
842.929	-4.2
843.099	13.05
843.27	3.89
843.44	9.21
843.611	12.66
843.781	15.68
843.951	-8.93
844.122	-5.26
844.292	-4.4
844.462	-4.52
844.633	-11.03
844.803	-3.2
844.973	-18.63
845.144	-9.21
845.314	-28.05
845.484	-26.03
845.654	-18.26
845.824	-3.03
845.995	4.83
846.165	17.04
846.335	23.78
846.505	17.52
846.675	11.86
846.845	8.76
847.015	-10.58
847.185	-0.26
847.355	-0.57
847.525	-11.2
847.695	-35.35
847.865	-47.89
848.035	-120.75
848.205	-128.32
848.375	-105.07
848.545	-146.18
848.715	-148.28
848.884	-116.99
849.054	-88.06
849.224	-132.19
849.394	-148.76
849.564	-107.48
849.733	-60.78
849.903	-20.48
850.073	-15.57
850.243	8.68
850.412	-34.16
850.582	10.07
850.752	3.16
850.921	21.27
851.091	48.58
851.26	46.77
851.43	65.74
851.599	27.29
851.769	32.52
851.939	37.56
852.108	15.86
852.278	40.66
852.447	41.62
852.616	53.37
852.786	39.81
852.955	46.68
853.125	41.85
853.294	32.74
853.463	38.13
853.633	21.76
853.802	-16.65
853.971	-19.11
854.141	-39.41
854.31	-61.44
854.479	-104.43
854.648	-88.24
854.818	-411.8
854.987	-390.55
855.156	1116.41
855.325	-196.93
855.494	-137.5
855.663	-20.29
855.832	5.96
856.001	-4.7
856.171	-7.87
856.34	26.1
856.509	-3.23
856.678	-6.92
856.847	-8.59
857.016	-14.22
857.185	-29.32
857.353	-0.72
857.522	4.18
857.691	-20.26
857.86	-8.87
858.029	15.36
858.198	-40.95
858.367	-23.85
858.535	19.47
858.704	-5.98
858.873	20.8
859.042	33.46
859.21	-17
859.379	-11.17
859.548	-27.01
859.717	-19.06
859.885	-24.27
860.054	-38.04
860.222	-23.81
860.391	-57.61
860.56	-66.78
860.728	-65.76
860.897	-57.13
861.065	-64.69
861.234	-121.05
861.402	-52.29
861.571	-58.9
861.739	-77.11
861.908	-108.71
862.076	-215.41
862.244	-132.18
862.413	-108.95
862.581	-123.16
862.749	-165.62
862.918	-171.78
863.086	-167.79
863.254	-317.57
863.423	-373.17
863.591	-161.67
863.759	-68.18
863.927	-29
864.096	-26.95
864.264	-3.31
864.432	-12.54
864.6	-1.19
864.768	12.95
864.936	39.55
865.104	34.61
865.272	46.96
865.44	68.13
865.608	69.14
865.776	53.72
865.944	41.54
866.112	36.22
866.28	38.61
866.448	33.65
866.616	-5.25
866.784	-38.27
866.952	-92.57
867.12	-344.95
867.288	-277.46
867.455	-292.28
867.623	-288.06
867.791	-184.73
867.959	-148.19
868.127	-219.65
868.294	-101.12
868.462	-94.07
868.63	-63.79
868.797	-3.32
868.965	50.33
869.133	27.75
869.3	28.48
869.468	38.13
869.636	112.81
869.803	-28.2
869.971	-74.89
870.138	251.79
870.306	119.63
870.473	137.51
870.641	193.25
870.808	161.99
870.975	358.85
871.143	412.21
871.31	-376.17
871.478	-101.12
871.645	-46.22
871.812	-47.61
871.98	-76.44
872.147	-16.47
872.314	16.72
872.482	12.27
872.649	-110.12
872.816	-278.03
872.983	-364.47
873.15	5238.98
873.318	386.21
873.485	316.94
873.652	455.94
873.819	-581.64
873.986	-439.65
874.153	643.97
874.32	-146.68
874.487	21.78
874.654	8.72
874.821	-9.14
874.988	-70.39
875.155	-37.9
875.322	-20.54
875.489	-4.94
875.656	-69.18
875.823	-19.63
875.99	-18.79
876.157	-92.88
876.324	-143.93
876.49	-204.35
876.657	-258.06
876.824	-123.77
876.991	-196.14
877.157	-84.08
877.324	-155.51
877.491	-131.33
877.658	-342.78
877.824	-315.97
877.991	-129.28
878.157	-88
878.324	-44.76
878.491	-61.52
878.657	-28.99
878.824	-50.01
878.99	-80.09
879.157	-75.59
879.323	-49.89
879.49	-54.15
879.656	-142
879.823	-217.71
879.989	-289.1
880.156	-490.65
880.322	-1973.78
880.488	-522.64
880.655	-5138.86
880.821	-399.95
880.987	-141.99
881.154	-53.63
881.32	-59.79
881.486	-20.89
881.652	-10
881.819	-8.58
881.985	0.85
882.151	3.99
882.317	-1.11
882.483	9.27
882.649	10.68
882.816	16.22
882.982	16.19
883.148	20.28
883.314	18.48
883.48	17.66
883.646	19.16
883.812	20.26
883.978	22.81
884.144	26.05
884.31	21.93
884.476	21.72
884.642	18.05
884.807	14.67
884.973	14.51
885.139	14.64
885.305	18.76
885.471	17.22
885.637	14.72
885.802	9.26
885.968	5.77
886.134	8.74
886.3	-1.29
886.465	-7.26
886.631	-8.51
886.797	-17.94
886.962	-32.55
887.128	-51.98
887.293	-54.22
887.459	-60.97
887.625	-59.97
887.79	-59.54
887.956	-65.69
888.121	-58.97
888.287	-42.88
888.452	-53.95
888.618	-43.38
888.783	-17.06
