Data from 2938039_Reflection_2.txt Node
Date: Sun Jul 12 14:41:53 EDT 2015
User: robert
Spectrometer: USB4E03001
Autoset integration time: false
Trigger mode: 4
Integration Time (sec): 1.000000E-1
Scans to average: 10
Electric dark correction enabled: true
Nonlinearity correction enabled: false
Boxcar width: 5
Stray light correction enabled: false
XAxis mode: Wavelengths
Stop averaging: false
Number of Pixels in Spectrum: 3648
>>>>>Begin Spectral Data<<<<<
177.566	-169.49
177.785	-38.15
178.005	1806
178.225	176.91
178.445	177.82
178.665	99.13
178.885	225.88
179.105	-1116.28
179.324	728.27
179.544	4041.28
179.764	-126.89
179.984	-332.28
180.204	-155.06
180.423	-902.81
180.643	410.3
180.863	184.7
181.083	127.27
181.302	188.56
181.522	189.13
181.742	155.05
181.961	136.32
182.181	146.87
182.401	118.42
182.621	117.21
182.84	126.87
183.06	126.22
183.279	178.73
183.499	201.82
183.719	210.33
183.938	201.14
184.158	237.7
184.377	337.26
184.597	334.35
184.816	441.37
185.036	457.24
185.256	982.87
185.475	637.7
185.695	456.52
185.914	415.72
186.134	383.7
186.353	357.21
186.572	291.52
186.792	256.72
187.011	257.06
187.231	233.93
187.45	517.76
187.67	424.76
187.889	579.55
188.108	329.38
188.328	215.99
188.547	247.22
188.766	238.05
188.986	264.18
189.205	202.94
189.424	158.67
189.644	204.55
189.863	102.6
190.082	96.18
190.302	95.84
190.521	81.17
190.74	69.68
190.959	40.11
191.178	-1.78
191.398	3.71
191.617	14.52
191.836	23.51
192.055	53.21
192.274	55.34
192.494	65.18
192.713	72.43
192.932	105.35
193.151	81.19
193.37	90.59
193.589	107.02
193.808	84.16
194.027	82.24
194.246	83.63
194.465	82.59
194.685	104.43
194.904	73.26
195.123	91.48
195.342	76.87
195.561	98.87
195.78	137.43
195.999	199.5
196.218	207.93
196.436	287.78
196.655	770.88
196.874	958.06
197.093	214.33
197.312	221.36
197.531	174.79
197.75	165.36
197.969	186.71
198.188	165.65
198.407	138.29
198.625	132.93
198.844	120.21
199.063	80.33
199.282	112.6
199.501	129.1
199.719	114.21
199.938	116
200.157	136.24
200.376	155.69
200.594	151.1
200.813	135.2
201.032	127.13
201.251	157.86
201.469	144.81
201.688	114.73
201.907	104.42
202.125	38.79
202.344	-81.91
202.563	31.15
202.781	10.8
203	151.44
203.218	174.68
203.437	163.9
203.656	98.7
203.874	219.88
204.093	227.21
204.311	242.96
204.53	282.19
204.748	307.1
204.967	616.92
205.185	374.83
205.404	300.72
205.622	207.35
205.841	135.84
206.059	154.98
206.278	77.66
206.496	85.91
206.715	92.74
206.933	81.96
207.151	84.1
207.37	79.91
207.588	74.86
207.806	68.6
208.025	48.76
208.243	130.97
208.461	152.14
208.68	179.54
208.898	198.17
209.116	209.72
209.335	326.23
209.553	178.9
209.771	135.55
209.989	128.92
210.208	458.33
210.426	580.02
210.644	245.78
210.862	253.88
211.081	101.76
211.299	102.4
211.517	98.49
211.735	122.9
211.953	158.68
212.171	218.22
212.39	159.74
212.608	129.16
212.826	156.87
213.044	192.96
213.262	166.98
213.48	160.25
213.698	144.31
213.916	156.75
214.134	133.92
214.352	118.34
214.57	101.82
214.788	106.76
215.006	85.93
215.224	69.59
215.442	59.82
215.66	57.55
215.878	61.65
216.096	60.85
216.314	65.29
216.532	55.68
216.75	49.81
216.968	54.4
217.185	56.28
217.403	51.71
217.621	57.69
217.839	50.89
218.057	45.32
218.275	42.46
218.492	37.15
218.71	24.81
218.928	6.5
219.146	11.39
219.363	12.34
219.581	23.41
219.799	39.01
220.017	41.02
220.234	56.52
220.452	71.23
220.67	75.12
220.887	74.1
221.105	67.55
221.323	80.7
221.54	96.38
221.758	99.19
221.976	96.41
222.193	93.88
222.411	95.88
222.629	104.41
222.846	138.46
223.064	122.46
223.281	115.7
223.499	116.82
223.716	127.42
223.934	108.35
224.151	106.02
224.369	125.9
224.586	125.95
224.804	128.44
225.021	126.37
225.239	78.13
225.456	100.09
225.674	124.56
225.891	108.94
226.108	95.05
226.326	79.43
226.543	72.99
226.76	60.67
226.978	47.83
227.195	38.74
227.413	29.81
227.63	30.08
227.847	27.93
228.064	26.57
228.282	29.64
228.499	30.46
228.716	27.57
228.934	26.33
229.151	24.95
229.368	22.6
229.585	24.59
229.802	25.62
230.02	24.6
230.237	22.01
230.454	20.71
230.671	18.01
230.888	16.83
231.105	16.01
231.323	16.17
231.54	13.63
231.757	16.6
231.974	19.37
232.191	20.53
232.408	23.58
232.625	26.07
232.842	26.13
233.059	24.7
233.276	26.38
233.493	28.7
233.71	29.88
233.927	35.21
234.144	35.92
234.361	32.01
234.578	27.67
234.795	24.02
235.012	24.39
235.229	26.2
235.446	25.16
235.663	23.56
235.879	20.72
236.096	20.78
236.313	17.5
236.53	16.62
236.747	18.57
236.964	20.81
237.181	21.17
237.397	23.89
237.614	25.01
237.831	30.45
238.048	32.69
238.264	34.08
238.481	34.72
238.698	34.32
238.915	37.07
239.131	32.51
239.348	35.09
239.565	36.16
239.781	33.51
239.998	31.27
240.215	29.74
240.431	27.14
240.648	23.28
240.865	19.35
241.081	21.94
241.298	19
241.514	20.52
241.731	15.82
241.947	14.11
242.164	11.69
242.38	12.38
242.597	11.61
242.814	12.89
243.03	13.64
243.246	17.18
243.463	16.86
243.679	15.95
243.896	15.74
244.112	18.33
244.329	18.8
244.545	19.63
244.762	17.22
244.978	17.01
245.194	15.32
245.411	17.55
245.627	14.37
245.843	16.32
246.06	17.32
246.276	15.57
246.492	14.54
246.709	15.67
246.925	16.96
247.141	17.19
247.357	16.13
247.574	16.09
247.79	15.82
248.006	15.88
248.222	14.9
248.439	14.85
248.655	15.86
248.871	16.23
249.087	15.26
249.303	12.35
249.519	11.67
249.736	13.2
249.952	12.05
250.168	12.18
250.384	11.04
250.6	11.19
250.816	10.61
251.032	9.97
251.248	10.89
251.464	11.74
251.68	16.57
251.896	17.92
252.112	16.91
252.328	17.17
252.544	15.57
252.76	15.51
252.976	16.15
253.192	15.39
253.408	16.21
253.624	17.78
253.84	20.04
254.056	18.62
254.272	19.49
254.487	20.21
254.703	21.18
254.919	25.33
255.135	28.1
255.351	26.55
255.567	26.62
255.782	24.51
255.998	20.28
256.214	18.2
256.43	19.59
256.646	19.32
256.861	19.01
257.077	19.01
257.293	17.19
257.508	14.91
257.724	14.12
257.94	15.11
258.155	15.41
258.371	16
258.587	16.77
258.802	15.63
259.018	15.01
259.234	15.45
259.449	15.02
259.665	14.59
259.88	14.39
260.096	14.07
260.312	13.65
260.527	13.78
260.743	13.81
260.958	12.54
261.174	12.7
261.389	13.13
261.605	12.32
261.82	12.31
262.036	12.13
262.251	11.71
262.466	12.38
262.682	12.99
262.897	10.93
263.113	11.04
263.328	11.61
263.543	11.9
263.759	10.73
263.974	11.3
264.189	12.71
264.405	12.17
264.62	13.36
264.835	12.95
265.051	13.29
265.266	15.46
265.481	14.78
265.696	15.82
265.912	16.62
266.127	15.76
266.342	14.61
266.557	12.84
266.773	12.59
266.988	12.21
267.203	12.21
267.418	12.53
267.633	13.02
267.848	12.23
268.064	11.44
268.279	9.81
268.494	10.65
268.709	11.18
268.924	11.49
269.139	11.72
269.354	11.09
269.569	9.87
269.784	8.28
269.999	8.32
270.214	9.12
270.429	9.02
270.644	9.88
270.859	8.05
271.074	7.85
271.289	6.88
271.504	7.11
271.719	8.05
271.934	9.03
272.149	9.34
272.363	8.28
272.578	8.1
272.793	8.03
273.008	7.74
273.223	9.11
273.438	8.68
273.653	8.74
273.867	8.63
274.082	7.75
274.297	8.62
274.512	8
274.726	8.65
274.941	9.17
275.156	8.75
275.371	7.73
275.585	6.71
275.8	7.96
276.015	7.57
276.229	9.12
276.444	11.09
276.659	10.69
276.873	13.44
277.088	13.75
277.302	13.63
277.517	14.36
277.732	14.43
277.946	14.54
278.161	14.43
278.375	15.95
278.59	15
278.804	13.95
279.019	12.77
279.233	8.66
279.448	8.59
279.662	8.36
279.877	9.47
280.091	9.92
280.306	9.67
280.52	8.37
280.735	7.59
280.949	7.71
281.163	7.48
281.378	7.73
281.592	10.08
281.806	10.22
282.021	11.56
282.235	11.16
282.449	12.48
282.664	13.79
282.878	15.3
283.092	15.79
283.307	16.97
283.521	17
283.735	17.54
283.949	17.77
284.164	16.47
284.378	15.41
284.592	14.72
284.806	14.41
285.02	13.81
285.234	13.83
285.449	14.44
285.663	12.57
285.877	12.94
286.091	12.23
286.305	10.99
286.519	11.54
286.733	10.36
286.947	10.84
287.161	10.04
287.375	10.16
287.589	9.44
287.803	9.86
288.017	11.12
288.231	11.01
288.445	11.48
288.659	12.14
288.873	11.92
289.087	13.12
289.301	11.63
289.515	11.8
289.729	10.93
289.943	9.98
290.157	10.03
290.371	8.37
290.584	8.97
290.798	9.51
291.012	10.2
291.226	10.92
291.44	11.52
291.654	12.72
291.867	13.15
292.081	13.54
292.295	14.23
292.509	12.1
292.722	14.13
292.936	13.51
293.15	12.61
293.364	11.94
293.577	12.45
293.791	11.58
294.005	12.2
294.218	12.97
294.432	13.81
294.645	14.35
294.859	16.81
295.073	17.07
295.286	16.72
295.5	16.91
295.713	17.93
295.927	16.68
296.14	16.35
296.354	16.24
296.568	15.9
296.781	15.86
296.994	15.7
297.208	14.17
297.421	14.3
297.635	15.23
297.848	15.41
298.062	15.42
298.275	16.08
298.489	15.97
298.702	15.45
298.915	15.45
299.129	15.15
299.342	14.69
299.555	15.14
299.769	14.41
299.982	13.84
300.195	13.29
300.409	12.33
300.622	13.53
300.835	13.35
301.048	13.89
301.262	14.71
301.475	16.08
301.688	17.31
301.901	18.03
302.115	18.58
302.328	17.79
302.541	17.83
302.754	16.46
302.967	15.04
303.18	17.27
303.393	18.46
303.607	17.08
303.82	15.72
304.033	15.53
304.246	13.2
304.459	13.29
304.672	13.88
304.885	14.94
305.098	17.29
305.311	16.53
305.524	15.3
305.737	13.25
305.95	14.37
306.163	15.82
306.376	14.61
306.589	17.22
306.802	16.67
307.015	15.25
307.228	15.22
307.44	14.38
307.653	15.34
307.866	15.23
308.079	15.06
308.292	15.31
308.505	14.21
308.718	14.62
308.93	12.99
309.143	12.64
309.356	14.96
309.569	13.43
309.781	13.03
309.994	14.32
310.207	14.08
310.42	13.81
310.632	13.4
310.845	13.33
311.058	13.8
311.27	15.12
311.483	15.71
311.696	14.25
311.908	14.59
312.121	14.9
312.333	13.27
312.546	13.95
312.759	14.58
312.971	14.07
313.184	14.97
313.396	14.43
313.609	13.97
313.821	13.95
314.034	14.13
314.246	15.08
314.459	15.95
314.671	17.29
314.884	17.46
315.096	18.7
315.309	17.84
315.521	16.33
315.733	18.48
315.946	18.38
316.158	18.25
316.371	19.84
316.583	20.15
316.795	19.91
317.008	19.27
317.22	17.79
317.432	17.65
317.644	18.38
317.857	19.27
318.069	17.57
318.281	17.79
318.494	17.46
318.706	15.36
318.918	13.67
319.13	13.37
319.342	14.07
319.555	14.68
319.767	14.13
319.979	15.74
320.191	16.55
320.403	16.75
320.615	17.19
320.827	17.84
321.039	18.51
321.252	20.82
321.464	21.99
321.676	21.59
321.888	20.85
322.1	21.74
322.312	19.14
322.524	18.79
322.736	18.35
322.948	16.44
323.16	15.41
323.372	14.79
323.584	12.45
323.796	12.2
324.007	11.96
324.219	13.19
324.431	12.79
324.643	14.27
324.855	13.73
325.067	14.65
325.279	16.52
325.491	17.27
325.702	17.39
325.914	18.64
326.126	17.67
326.338	17.9
326.55	16.76
326.761	17.28
326.973	17.11
327.185	16.81
327.396	15.4
327.608	13.19
327.82	13.22
328.032	13.53
328.243	12.47
328.455	13.68
328.666	12.89
328.878	14.61
329.09	13.12
329.301	13.05
329.513	13.29
329.725	15.15
329.936	16.28
330.148	15.88
330.359	15.91
330.571	16.1
330.782	14.08
330.994	13.82
331.205	13.48
331.417	13.42
331.628	13.3
331.84	13.2
332.051	11.28
332.262	10.78
332.474	10.64
332.685	11.27
332.897	11.35
333.108	11.46
333.319	12.37
333.531	10.9
333.742	12.94
333.953	14.34
334.165	14.23
334.376	14.52
334.587	14.49
334.799	14.28
335.01	13.83
335.221	14.58
335.432	15.62
335.644	16.58
335.855	17.83
336.066	16.52
336.277	15.04
336.488	15.79
336.7	16.06
336.911	16.95
337.122	17.23
337.333	16.39
337.544	15.93
337.755	16.16
337.966	15.77
338.177	15.45
338.388	14.8
338.599	15.57
338.811	14.9
339.022	16.22
339.233	15.55
339.444	14.27
339.655	15.32
339.866	14.35
340.076	13.55
340.287	12.51
340.498	12.58
340.709	14.11
340.92	14.15
341.131	13.88
341.342	12.23
341.553	11.71
341.764	13.24
341.975	11.71
342.185	12.81
342.396	11.82
342.607	12.97
342.818	12.7
343.029	11.77
343.239	11.96
343.45	11.44
343.661	13.23
343.872	13.51
344.082	12.73
344.293	14.56
344.504	14.72
344.714	14.91
344.925	14.66
345.136	14.69
345.346	15.31
345.557	14.67
345.768	15.55
345.978	14.52
346.189	14.82
346.399	14.91
346.61	15
346.821	14.97
347.031	16.07
347.242	15.86
347.452	16.1
347.663	14.78
347.873	14.81
348.084	15.47
348.294	15.64
348.504	15.73
348.715	16.65
348.925	16.77
349.136	17.06
349.346	17.35
349.557	17.32
349.767	17.66
349.977	17.61
350.188	18.34
350.398	16.38
350.608	16.47
350.819	16.11
351.029	15.48
351.239	15.29
351.449	14.99
351.66	14.71
351.87	13.4
352.08	13.13
352.29	13.47
352.501	12.33
352.711	13.61
352.921	12.81
353.131	13.71
353.341	12.82
353.552	12.29
353.762	12.57
353.972	11.64
354.182	12.9
354.392	12.74
354.602	13.41
354.812	13.75
355.022	13.59
355.232	14.19
355.442	12.77
355.652	13.27
355.862	13.49
356.072	13.59
356.282	14.19
356.492	14.8
356.702	14.79
356.912	14
357.122	13.33
357.332	14.27
357.542	14.02
357.752	15.37
357.962	14.58
358.171	14.13
358.381	13.46
358.591	13.24
358.801	12.45
359.011	12.89
359.221	12.73
359.43	13.29
359.64	11.66
359.85	12.07
360.06	11.79
360.269	13.25
360.479	13.02
360.689	12.88
360.899	12.07
361.108	11.37
361.318	10.41
361.528	10.63
361.737	10.3
361.947	10.77
362.156	9.85
362.366	10.06
362.576	10.11
362.785	10.19
362.995	10.54
363.204	10.66
363.414	11.57
363.623	11.8
363.833	11.37
364.042	10.54
364.252	10.51
364.461	10.88
364.671	10.29
364.88	10.19
365.09	10.4
365.299	10.48
365.509	10.43
365.718	10.59
365.927	10.43
366.137	10.65
366.346	12.13
366.555	12.24
366.765	12.12
366.974	11.92
367.183	10.63
367.393	10.29
367.602	9.5
367.811	9.92
368.021	9.63
368.23	10.16
368.439	10.82
368.648	9.74
368.857	9.41
369.067	9.62
369.276	9.79
369.485	10
369.694	10.27
369.903	10.74
370.112	10.28
370.321	9.81
370.531	9.97
370.74	9.5
370.949	9.56
371.158	9.8
371.367	9.45
371.576	9.27
371.785	10.01
371.994	9.45
372.203	9.91
372.412	10.71
372.621	10.76
372.83	10.82
373.039	11.15
373.248	11.08
373.457	10.97
373.666	11.1
373.874	10.67
374.083	10.17
374.292	11.03
374.501	11.39
374.71	10.45
374.919	10.12
375.128	9.01
375.336	8.9
375.545	9.94
375.754	8.82
375.963	8.98
376.171	9.25
376.38	8.84
376.589	8.12
376.798	7.36
377.006	7.62
377.215	8.22
377.424	8.63
377.632	8.58
377.841	8.23
378.05	8.65
378.258	9.04
378.467	9.39
378.675	9.72
378.884	10.22
379.093	10.67
379.301	11.02
379.51	10.21
379.718	9.97
379.927	9.86
380.135	9.58
380.344	9.71
380.552	8.87
380.761	8.65
380.969	8.68
381.177	8.55
381.386	7.92
381.594	7.81
381.803	8.44
382.011	8.27
382.219	8.48
382.428	7.94
382.636	8.5
382.845	8.58
383.053	8.38
383.261	8.61
383.469	8.54
383.678	8.25
383.886	8.13
384.094	7.77
384.302	8.31
384.511	7.89
384.719	7.79
384.927	7.19
385.135	7.38
385.343	7.45
385.552	7.77
385.76	7.57
385.968	7.96
386.176	7.75
386.384	7.77
386.592	7.63
386.8	7.82
387.008	8.18
387.216	8.27
387.424	7.6
387.633	7.23
387.841	6.7
388.049	6.83
388.257	6.71
388.465	6.45
388.672	6.35
388.88	6.24
389.088	6.26
389.296	6.41
389.504	6
389.712	6.79
389.92	6.81
390.128	6.9
390.336	6.73
390.544	6.98
390.751	7.21
390.959	7.39
391.167	7.03
391.375	6.78
391.583	6.52
391.79	6.49
391.998	6.28
392.206	6.41
392.414	6.11
392.621	6.05
392.829	5.42
393.037	5.26
393.244	4.97
393.452	5.11
393.66	5.47
393.867	5.33
394.075	5.71
394.283	5.52
394.49	5.41
394.698	5.62
394.905	5.74
395.113	5.68
395.32	5.66
395.528	5.51
395.735	5.82
395.943	5.66
396.15	5.77
396.358	5.78
396.565	5.79
396.773	5.68
396.98	5.64
397.188	5.6
397.395	6.03
397.602	6.14
397.81	6.44
398.017	6.13
398.225	5.44
398.432	5.25
398.639	5.27
398.847	5.54
399.054	5.4
399.261	5.09
399.468	4.87
399.676	4.59
399.883	4.6
400.09	4.84
400.297	5.11
400.505	5.29
400.712	5.17
400.919	5.02
401.126	4.91
401.333	4.77
401.54	4.9
401.748	4.98
401.955	5.2
402.162	5.57
402.369	5.11
402.576	4.9
402.783	4.98
402.99	5.2
403.197	5.35
403.404	5.25
403.611	5.49
403.818	5.5
404.025	5.31
404.232	5.38
404.439	4.98
404.646	5.1
404.853	5.18
405.06	5.38
405.267	5.36
405.474	5.44
405.681	5.55
405.887	5.78
406.094	5.71
406.301	5.84
406.508	5.67
406.715	5.81
406.922	5.69
407.128	5.45
407.335	5.39
407.542	5.56
407.749	5.34
407.955	5.03
408.162	4.58
408.369	4.61
408.575	4.67
408.782	4.77
408.989	4.89
409.195	4.89
409.402	5.06
409.609	5.1
409.815	4.78
410.022	4.79
410.228	4.98
410.435	5.16
410.642	5.33
410.848	5.55
411.055	5.46
411.261	5.23
411.468	5.3
411.674	5.24
411.881	5.37
412.087	5.52
412.294	5.73
412.5	5.45
412.706	5.32
412.913	5.15
413.119	5.25
413.326	5.2
413.532	5.02
413.738	4.95
413.945	4.74
414.151	4.43
414.357	4.33
414.564	4.36
414.77	4.52
414.976	4.78
415.182	4.92
415.389	4.36
415.595	4.44
415.801	4.54
416.007	4.46
416.214	4.7
416.42	4.68
416.626	4.83
416.832	4.69
417.038	4.65
417.244	4.79
417.45	4.48
417.657	4.52
417.863	4.46
418.069	4.35
418.275	4.53
418.481	4.49
418.687	4.5
418.893	4.4
419.099	4.13
419.305	4.11
419.511	3.93
419.717	4.24
419.923	4.32
420.129	4.23
420.335	4.35
420.541	4.37
420.746	4.36
420.952	4.26
421.158	4.28
421.364	4.37
421.57	4.6
421.776	4.56
421.982	4.49
422.187	4.61
422.393	4.62
422.599	4.47
422.805	4.36
423.01	4.42
423.216	4.57
423.422	4.55
423.628	4.46
423.833	4.17
424.039	4.06
424.245	3.91
424.45	3.74
424.656	3.82
424.862	3.88
425.067	3.93
425.273	3.91
425.478	3.97
425.684	3.99
425.889	4.24
426.095	4.32
426.301	4.44
426.506	4.47
426.712	4.49
426.917	4.5
427.123	4.59
427.328	4.61
427.533	4.61
427.739	4.54
427.944	4.69
428.15	4.68
428.355	4.82
428.561	4.94
428.766	4.97
428.971	4.87
429.177	4.63
429.382	4.76
429.587	4.72
429.793	4.81
429.998	4.64
430.203	4.5
430.408	4.28
430.614	4.14
430.819	4.02
431.024	4.07
431.229	4.22
431.434	4.32
431.64	3.97
431.845	4.12
432.05	3.9
432.255	3.99
432.46	3.93
432.665	3.92
432.87	3.94
433.076	3.99
433.281	3.99
433.486	3.96
433.691	3.92
433.896	4.17
434.101	4.05
434.306	4.06
434.511	4.19
434.716	4.15
434.921	4.27
435.126	4.34
435.331	4.42
435.535	4.43
435.74	4.48
435.945	4.56
436.15	4.44
436.355	4.48
436.56	4.48
436.765	4.37
436.97	4.36
437.174	4.18
437.379	4.15
437.584	4.11
437.789	4.09
437.993	4.05
438.198	4.1
438.403	4.03
438.608	4
438.812	3.95
439.017	4.09
439.222	4.18
439.426	4.34
439.631	4.17
439.836	4.02
440.04	4.14
440.245	4.18
440.45	4.09
440.654	4.11
440.859	4.06
441.063	4.12
441.268	3.92
441.472	3.9
441.677	3.95
441.881	4.04
442.086	4.15
442.29	4.02
442.495	3.91
442.699	3.81
442.904	3.76
443.108	3.83
443.312	3.95
443.517	3.99
443.721	4.3
443.925	4.15
444.13	4.16
444.334	4.1
444.538	4.16
444.743	4.13
444.947	4.22
445.151	4.27
445.356	4.15
445.56	3.96
445.764	3.87
445.968	3.55
446.173	3.56
446.377	3.6
446.581	3.55
446.785	3.46
446.989	3.48
447.193	3.44
447.398	3.38
447.602	3.44
447.806	3.62
448.01	3.69
448.214	3.74
448.418	3.83
448.622	3.78
448.826	3.84
449.03	3.92
449.234	4.09
449.438	4.2
449.642	4.26
449.846	4.24
450.05	4.17
450.254	4.09
450.458	3.89
450.662	3.79
450.866	3.81
451.069	3.91
451.273	3.94
451.477	3.77
451.681	3.71
451.885	3.8
452.089	4
452.292	3.97
452.496	4.17
452.7	4.33
452.904	4.3
453.107	4.28
453.311	4.25
453.515	4.23
453.719	4.27
453.922	4.36
454.126	4.28
454.33	4.14
454.533	4.11
454.737	3.95
454.94	4.16
455.144	4.29
455.348	4.25
455.551	4.25
455.755	4.25
455.958	4.26
456.162	4.16
456.365	4.18
456.569	4.1
456.772	4.12
456.976	4.22
457.179	3.98
457.383	3.95
457.586	3.87
457.79	3.83
457.993	3.63
458.196	3.57
458.4	3.52
458.603	3.7
458.807	3.8
459.01	3.78
459.213	3.72
459.417	3.96
459.62	3.87
459.823	3.84
460.026	3.85
460.23	4.06
460.433	4.14
460.636	4.23
460.839	4.08
461.042	3.9
461.246	3.97
461.449	4.01
461.652	3.8
461.855	3.81
462.058	3.98
462.261	3.95
462.464	3.88
462.668	3.9
462.871	3.84
463.074	4.07
463.277	4.11
463.48	3.89
463.683	3.87
463.886	3.64
464.089	3.68
464.292	3.74
464.495	3.74
464.698	3.8
464.901	3.72
465.104	3.88
465.306	3.89
465.509	3.88
465.712	4.07
465.915	3.97
466.118	4.07
466.321	4.12
466.524	4.02
466.726	4.13
466.929	4.04
467.132	4.06
467.335	3.94
467.538	3.83
467.74	3.89
467.943	3.93
468.146	4.17
468.348	4.16
468.551	4.05
468.754	4.19
468.956	4.18
469.159	4.23
469.362	4.13
469.564	4.1
469.767	4.28
469.969	4.16
470.172	4.15
470.375	3.92
470.577	4.15
470.78	4.18
470.982	4.08
471.185	3.86
471.387	3.61
471.59	3.47
471.792	3.66
471.995	3.29
472.197	3.5
472.399	3.31
472.602	3.53
472.804	3.47
473.007	3.4
473.209	3.41
473.411	3.67
473.614	3.92
473.816	4.12
474.018	3.97
474.22	4.22
474.423	4.09
474.625	4.38
474.827	4.32
475.03	4.27
475.232	4.31
475.434	4.16
475.636	4.08
475.838	4.05
476.04	4.1
476.243	4.08
476.445	4.06
476.647	4.1
476.849	3.95
477.051	3.98
477.253	3.96
477.455	3.9
477.657	3.97
477.859	3.98
478.061	3.97
478.263	3.98
478.465	3.98
478.667	3.87
478.869	3.88
479.071	3.88
479.273	3.72
479.475	3.68
479.677	4
479.879	4.05
480.081	4.11
480.283	4.16
480.485	4.15
480.686	4.16
480.888	4.27
481.09	4.27
481.292	4.24
481.494	4.2
481.695	4.23
481.897	3.97
482.099	3.84
482.301	3.69
482.502	3.59
482.704	3.53
482.906	3.46
483.107	3.35
483.309	3.34
483.511	3.37
483.712	3.41
483.914	3.41
484.115	3.42
484.317	3.46
484.519	3.44
484.72	3.45
484.922	3.46
485.123	3.47
485.325	3.51
485.526	3.49
485.728	3.44
485.929	3.4
486.131	3.41
486.332	3.44
486.534	3.44
486.735	3.48
486.936	3.46
487.138	3.43
487.339	3.42
487.541	3.41
487.742	3.42
487.943	3.44
488.144	3.5
488.346	3.4
488.547	3.43
488.748	3.36
488.95	3.37
489.151	3.41
489.352	3.45
489.553	3.52
489.755	3.59
489.956	3.65
490.157	3.68
490.358	3.68
490.559	3.78
490.76	3.77
490.961	3.88
491.163	3.91
491.364	3.9
491.565	3.83
491.766	3.74
491.967	3.67
492.168	3.67
492.369	3.63
492.57	3.58
492.771	3.49
492.972	3.44
493.173	3.4
493.374	3.35
493.575	3.3
493.776	3.28
493.976	3.4
494.177	3.52
494.378	3.51
494.579	3.48
494.78	3.52
494.981	3.66
495.182	3.69
495.382	3.74
495.583	3.88
495.784	4.08
495.985	4.27
496.185	4.22
496.386	4.09
496.587	4.05
496.788	4.1
496.988	4.1
497.189	4.19
497.39	4.27
497.59	4.17
497.791	4
497.992	3.93
498.192	3.82
498.393	3.89
498.593	3.94
498.794	3.88
498.994	4.03
499.195	3.99
499.395	3.87
499.596	3.83
499.796	4.02
499.997	4.14
500.197	4.11
500.398	4.3
500.598	4.21
500.799	4.21
500.999	4.4
501.199	4.23
501.4	4.16
501.6	4.33
501.801	4.26
502.001	3.98
502.201	4.02
502.402	4
502.602	3.84
502.802	3.83
503.002	3.92
503.203	3.76
503.403	3.78
503.603	3.9
503.803	3.79
504.003	3.9
504.204	4.12
504.404	4.23
504.604	4.19
504.804	4.3
505.004	4.38
505.204	4.38
505.404	4.58
505.604	4.52
505.804	4.44
506.005	4.3
506.205	4.26
506.405	4.28
506.605	4.09
506.805	4.17
507.005	4.11
507.204	4.19
507.404	4.23
507.604	4.32
507.804	4.32
508.004	4.33
508.204	4.49
508.404	4.5
508.604	4.51
508.804	4.41
509.003	4.41
509.203	4.46
509.403	4.44
509.603	4.36
509.803	4.18
510.002	4.31
510.202	4.46
510.402	4.28
510.602	4.12
510.801	4
511.001	4.11
511.201	4.04
511.4	3.98
511.6	3.92
511.8	3.96
511.999	3.99
512.199	3.81
512.398	3.85
512.598	4.08
512.797	4.3
512.997	4.38
513.197	4.32
513.396	4.46
513.596	4.5
513.795	4.61
513.994	4.52
514.194	4.43
514.393	4.55
514.593	4.43
514.792	4.22
514.992	4.18
515.191	4.1
515.39	4.26
515.59	4.17
515.789	4.22
515.988	4.06
516.188	4.12
516.387	4.11
516.586	4.15
516.786	4.06
516.985	4.03
517.184	4.09
517.383	4.12
517.582	4.01
517.782	3.88
517.981	3.76
518.18	3.92
518.379	3.94
518.578	4.07
518.777	4.01
518.976	4.07
519.176	4.16
519.375	4.05
519.574	4.09
519.773	4.1
519.972	4.3
520.171	4.39
520.37	4.23
520.569	4.29
520.768	4.2
520.967	4.26
521.166	4.28
521.365	4.31
521.564	4.42
521.762	4.33
521.961	4.43
522.16	4.32
522.359	4.35
522.558	4.5
522.757	4.39
522.956	4.37
523.154	4.36
523.353	4.41
523.552	4.47
523.751	4.53
523.949	4.72
524.148	4.55
524.347	4.6
524.546	4.52
524.744	4.41
524.943	4.39
525.142	4.53
525.34	4.53
525.539	4.54
525.737	4.58
525.936	4.58
526.135	4.54
526.333	4.61
526.532	4.54
526.73	4.51
526.929	4.5
527.127	4.6
527.326	4.45
527.524	4.49
527.723	4.45
527.921	4.44
528.12	4.36
528.318	4.35
528.516	4.36
528.715	4.36
528.913	4.43
529.112	4.39
529.31	4.38
529.508	4.51
529.707	4.49
529.905	4.47
530.103	4.48
530.301	4.57
530.5	4.62
530.698	4.64
530.896	4.71
531.094	4.69
531.293	4.76
531.491	4.83
531.689	4.88
531.887	4.91
532.085	4.95
532.283	4.9
532.481	4.8
532.68	4.62
532.878	4.62
533.076	4.61
533.274	4.64
533.472	4.7
533.67	4.61
533.868	4.5
534.066	4.59
534.264	4.68
534.462	4.7
534.66	4.8
534.858	4.99
535.056	5.07
535.253	4.98
535.451	4.96
535.649	4.99
535.847	5.04
536.045	4.98
536.243	4.84
536.441	4.87
536.638	4.89
536.836	4.79
537.034	4.77
537.232	4.67
537.43	4.8
537.627	4.78
537.825	4.73
538.023	4.79
538.22	4.88
538.418	5.02
538.616	4.87
538.813	4.88
539.011	5
539.209	4.98
539.406	5.1
539.604	5.22
539.801	5.28
539.999	5.32
540.196	5.4
540.394	5.34
540.591	5.3
540.789	5.41
540.986	5.45
541.184	5.46
541.381	5.44
541.579	5.4
541.776	5.33
541.974	5.36
542.171	5.34
542.368	5.26
542.566	5.42
542.763	5.39
542.96	5.32
543.158	5.28
543.355	5.35
543.552	5.45
543.75	5.63
543.947	5.69
544.144	5.72
544.341	5.86
544.539	5.97
544.736	5.98
544.933	6.1
545.13	6.3
545.327	6.44
545.524	6.42
545.722	6.41
545.919	6.36
546.116	6.45
546.313	6.45
546.51	6.48
546.707	6.52
546.904	6.51
547.101	6.55
547.298	6.56
547.495	6.57
547.692	6.46
547.889	6.48
548.086	6.52
548.283	6.66
548.48	6.7
548.677	6.72
548.874	6.61
549.07	6.56
549.267	6.6
549.464	6.57
549.661	6.77
549.858	7.1
550.055	7.08
550.251	7.05
550.448	6.88
550.645	6.75
550.842	6.61
551.038	6.82
551.235	6.71
551.432	6.72
551.628	6.86
551.825	6.8
552.022	6.83
552.218	6.81
552.415	6.95
552.612	7.13
552.808	7.36
553.005	7.47
553.201	7.52
553.398	7.78
553.594	7.75
553.791	7.64
553.987	7.58
554.184	7.61
554.38	7.82
554.577	7.85
554.773	7.89
554.97	7.95
555.166	8.19
555.362	8.2
555.559	8.35
555.755	8.54
555.952	8.66
556.148	8.76
556.344	8.73
556.541	8.76
556.737	8.8
556.933	8.8
557.129	9.01
557.326	8.85
557.522	9.07
557.718	8.79
557.914	9.03
558.11	8.97
558.307	8.91
558.503	8.89
558.699	9.04
558.895	9.07
559.091	8.95
559.287	8.94
559.483	9.17
559.679	9.04
559.876	9.3
560.072	9.12
560.268	9.26
560.464	9.43
560.66	9.51
560.856	9.57
561.052	9.43
561.247	9.74
561.443	9.65
561.639	9.69
561.835	9.75
562.031	9.57
562.227	9.66
562.423	9.77
562.619	9.82
562.815	9.92
563.01	9.75
563.206	10.02
563.402	9.82
563.598	9.76
563.793	9.75
563.989	9.77
564.185	10.01
564.381	10.15
564.576	10.17
564.772	10.41
564.968	10.63
565.163	10.88
565.359	11.01
565.555	11.43
565.75	11.63
565.946	11.73
566.141	11.67
566.337	11.89
566.532	11.91
566.728	12.06
566.923	12.08
567.119	12.05
567.314	12.11
567.51	12.07
567.705	12
567.901	11.97
568.096	12.11
568.292	12.4
568.487	12.31
568.682	12.32
568.878	12.35
569.073	12.27
569.268	12.12
569.464	12.19
569.659	12.2
569.854	12.09
570.05	12.25
570.245	12.17
570.44	12.09
570.635	12.12
570.831	12.08
571.026	12.11
571.221	12.12
571.416	12.37
571.611	12.44
571.806	12.52
572.002	12.64
572.197	12.71
572.392	12.76
572.587	12.7
572.782	12.79
572.977	13.1
573.172	13.02
573.367	13.03
573.562	12.98
573.757	12.96
573.952	12.91
574.147	12.96
574.342	13.03
574.537	13.04
574.732	13.28
574.927	13.53
575.121	13.4
575.316	13.54
575.511	13.93
575.706	13.93
575.901	14.03
576.096	14.22
576.29	14.45
576.485	14.41
576.68	14.34
576.875	14.35
577.069	14.14
577.264	14.4
577.459	14.27
577.654	14.15
577.848	14.31
578.043	14.4
578.238	14.31
578.432	14.06
578.627	14.08
578.821	14.37
579.016	14.57
579.21	14.68
579.405	14.31
579.6	14.48
579.794	14.37
579.989	14.46
580.183	14.35
580.378	14.5
580.572	14.66
580.766	14.7
580.961	14.84
581.155	14.69
581.35	14.83
581.544	14.85
581.738	15.01
581.933	14.95
582.127	14.92
582.321	15.2
582.516	15.02
582.71	15.09
582.904	15.29
583.099	15.26
583.293	15.36
583.487	15.42
583.681	15.67
583.875	15.65
584.07	15.9
584.264	15.96
584.458	15.83
584.652	16.22
584.846	16.34
585.04	16.3
585.234	16.28
585.428	16.14
585.623	16.24
585.817	16.12
586.011	16.27
586.205	16.28
586.399	16.26
586.593	16.41
586.787	16.21
586.981	16.18
587.174	16.37
587.368	16.44
587.562	16.66
587.756	16.7
587.95	16.91
588.144	16.91
588.338	16.98
588.532	17.02
588.725	16.86
588.919	16.94
589.113	16.79
589.307	16.47
589.501	16.34
589.694	16.46
589.888	16.21
590.082	16
590.275	15.74
590.469	15.54
590.663	15.47
590.856	15.37
591.05	15.5
591.244	15.28
591.437	15.34
591.631	15.58
591.824	15.23
592.018	15.21
592.212	15.67
592.405	15.89
592.599	16.08
592.792	16.38
592.986	16.58
593.179	16.72
593.372	16.92
593.566	16.94
593.759	16.91
593.953	17.22
594.146	17.3
594.339	17.27
594.533	17.37
594.726	17.5
594.92	17.36
595.113	17.45
595.306	17.28
595.499	17.49
595.693	17.66
595.886	17.47
596.079	17.4
596.272	17.5
596.466	17.33
596.659	17.38
596.852	17.37
597.045	17.41
597.238	17.3
597.431	17.27
597.624	17.28
597.818	17.25
598.011	17.46
598.204	17.5
598.397	17.49
598.59	17.4
598.783	17.23
598.976	17.06
599.169	17.1
599.362	17.43
599.555	17.47
599.748	17.32
599.941	17.46
600.134	17.63
600.326	17.83
600.519	18.01
600.712	18.17
600.905	18.16
601.098	18.04
601.291	18.05
601.483	17.63
601.676	17.83
601.869	17.77
602.062	17.49
602.255	17.14
602.447	17.06
602.64	17.02
602.833	17.18
603.025	17.13
603.218	17.52
603.411	17.47
603.603	17.66
603.796	17.55
603.989	17.8
604.181	17.76
604.374	17.72
604.566	17.75
604.759	17.62
604.951	17.67
605.144	17.76
605.336	17.69
605.529	17.72
605.721	17.56
605.914	17.62
606.106	17.46
606.299	17.65
606.491	17.7
606.683	17.58
606.876	17.7
607.068	17.53
607.26	17.76
607.453	17.59
607.645	17.61
607.837	17.69
608.03	17.76
608.222	17.87
608.414	17.91
608.606	18.09
608.799	18.01
608.991	18.15
609.183	17.9
609.375	17.74
609.567	17.79
609.759	17.74
609.952	17.87
610.144	17.61
610.336	17.52
610.528	17.46
610.72	17.54
610.912	17.81
611.104	17.73
611.296	18.01
611.488	18.21
611.68	18.07
611.872	18.05
612.064	17.95
612.256	18.18
612.448	18.12
612.64	17.92
612.832	17.68
613.023	17.58
613.215	17.68
613.407	17.67
613.599	17.74
613.791	17.82
613.983	18.01
614.174	18.15
614.366	18.12
614.558	18.27
614.75	18.78
614.941	18.91
615.133	19.16
615.325	18.83
615.516	18.97
615.708	18.86
615.9	19.07
616.091	19.11
616.283	19.05
616.475	18.9
616.666	18.81
616.858	18.27
617.049	18.36
617.241	18.05
617.432	18.46
617.624	18.23
617.815	18.25
618.007	18.44
618.198	18.23
618.39	18.14
618.581	18.45
618.773	18.65
618.964	18.65
619.155	18.75
619.347	18.56
619.538	18.36
619.729	18.45
619.921	18.31
620.112	17.99
620.303	18.27
620.494	18.27
620.686	18.47
620.877	18.21
621.068	18.55
621.259	18.39
621.451	18.67
621.642	18.76
621.833	18.78
622.024	18.95
622.215	19.16
622.406	19.09
622.597	18.93
622.788	19.01
622.98	19.09
623.171	19.24
623.362	19.19
623.553	19.06
623.744	19
623.935	19.18
624.126	19.28
624.317	18.93
624.508	18.87
624.698	19.36
624.889	18.8
625.08	18.99
625.271	18.74
625.462	18.94
625.653	18.9
625.844	18.8
626.034	18.74
626.225	18.6
626.416	18.45
626.607	18.47
626.798	18.38
626.988	18.36
627.179	18.47
627.37	18.7
627.56	18.47
627.751	18.46
627.942	18.46
628.132	18.34
628.323	18.52
628.514	18.85
628.704	18.8
628.895	18.5
629.085	18.87
629.276	18.79
629.466	18.5
629.657	18.86
629.847	18.88
630.038	18.59
630.228	18.68
630.419	18.4
630.609	18.34
630.8	18.33
630.99	18.63
631.181	18.28
631.371	18.38
631.561	18.66
631.752	18.64
631.942	18.83
632.132	19.09
632.323	19.31
632.513	19.43
632.703	19.55
632.893	19.72
633.084	19.86
633.274	20.11
633.464	19.68
633.654	19.36
633.844	19.18
634.034	18.98
634.225	19.04
634.415	18.74
634.605	18.81
634.795	18.75
634.985	18.54
635.175	18.39
635.365	18.34
635.555	18.58
635.745	18.54
635.935	18.45
636.125	18.51
636.315	18.58
636.505	19.1
636.695	19.19
636.885	19.07
637.075	18.86
637.265	18.73
637.455	18.67
637.644	18.47
637.834	19.23
638.024	19.34
638.214	19.51
638.404	19.13
638.593	18.79
638.783	18.65
638.973	18.97
639.163	19.33
639.352	19.35
639.542	19.22
639.732	19.36
639.921	18.94
640.111	18.7
640.301	18.85
640.49	19.29
640.68	18.97
640.87	19
641.059	18.62
641.249	18.54
641.438	18.54
641.628	18.4
641.817	18.49
642.007	18.44
642.196	18.02
642.386	17.86
642.575	17.66
642.764	17.78
642.954	17.52
643.143	17.55
643.333	17.48
643.522	17.23
643.711	17.73
643.901	17.55
644.09	17.58
644.279	18.57
644.469	18.54
644.658	18.65
644.847	18.66
645.036	18.77
645.226	18.87
645.415	19.19
645.604	19.44
645.793	19.33
645.982	19.47
646.171	19.37
646.361	19.24
646.55	19.24
646.739	19.62
646.928	19.95
647.117	19.87
647.306	20
647.495	19.81
647.684	20.02
647.873	20.16
648.062	20.13
648.251	20.12
648.44	19.77
648.629	20.03
648.818	19.53
649.007	19.66
649.196	20.1
649.384	19.9
649.573	19.83
649.762	19.35
649.951	19.09
650.14	18.87
650.328	19.25
650.517	19.57
650.706	19.25
650.895	19.58
651.083	19.47
651.272	19.42
651.461	19.53
651.65	19.67
651.838	19.99
652.027	20.06
652.216	20.17
652.404	19.48
652.593	19.43
652.781	19.73
652.97	19.98
653.158	19.81
653.347	19.6
653.535	19.38
653.724	19.35
653.912	19.8
654.101	20.16
654.289	20.6
654.478	20.86
654.666	20.86
654.855	20.88
655.043	20.33
655.231	20.42
655.42	20.42
655.608	20.66
655.796	20.85
655.985	20.59
656.173	19.89
656.361	19.21
656.55	19.66
656.738	19.67
656.926	19.68
657.114	20.03
657.302	19.72
657.491	19.88
657.679	20.06
657.867	19.84
658.055	19.63
658.243	20.41
658.431	20.66
658.619	20.32
658.807	20.2
658.996	20.05
659.184	20.05
659.372	20.34
659.56	20.3
659.748	20.16
659.936	20.17
660.124	20.43
660.311	20.15
660.499	20.35
660.687	20.46
660.875	20.47
661.063	20.68
661.251	20.65
661.439	20.36
661.627	20.33
661.814	20.72
662.002	21.01
662.19	20.28
662.378	20.34
662.565	20.15
662.753	19.85
662.941	20.31
663.129	19.79
663.316	19.53
663.504	19.71
663.692	19.86
663.879	19.65
664.067	19.44
664.254	20.23
664.442	20.08
664.63	20.04
664.817	20.6
665.005	20.66
665.192	21.36
665.38	21.4
665.567	21.05
665.755	20.8
665.942	20.89
666.13	20.77
666.317	20.49
666.504	20.37
666.692	20.36
666.879	20.16
667.067	19.98
667.254	19.74
667.441	20.07
667.629	20.62
667.816	20.38
668.003	20.56
668.19	21.09
668.378	20.85
668.565	20.98
668.752	21.45
668.939	21.75
669.127	21.55
669.314	21.42
669.501	21.18
669.688	21.43
669.875	21.94
670.062	21.4
670.249	21.1
670.436	21.42
670.623	21.54
670.81	21.45
670.997	21.35
671.184	20.86
671.371	20.78
671.558	20.4
671.745	20.34
671.932	20.52
672.119	20.51
672.306	20.05
672.493	19.94
672.68	20.04
672.867	19.76
673.054	19.27
673.24	19.45
673.427	19.72
673.614	20.86
673.801	20.39
673.988	20.02
674.174	20.15
674.361	20.19
674.548	20.27
674.734	20.17
674.921	20.42
675.108	20.77
675.294	20.8
675.481	20.36
675.668	19.94
675.854	20.1
676.041	20.1
676.227	20.15
676.414	20.95
676.601	20.99
676.787	20.97
676.974	21.04
677.16	21.03
677.347	21.29
677.533	21.73
677.719	21.48
677.906	21.41
678.092	21.33
678.279	21.36
678.465	21.25
678.651	21.58
678.838	20.76
679.024	20.22
679.21	20.78
679.397	20.82
679.583	20.64
679.769	20.52
679.955	20.2
680.142	20.37
680.328	20.23
680.514	20.03
680.7	19.82
680.886	20.43
681.073	20.85
681.259	20.39
681.445	20.98
681.631	20.41
681.817	20.95
682.003	21.17
682.189	20.72
682.375	20.98
682.561	21.11
682.747	21.26
682.933	21.18
683.119	20.74
683.305	20.8
683.491	20.1
683.677	21.14
683.863	21.27
684.049	21.5
684.235	22.02
684.42	22.08
684.606	21.96
684.792	21.71
684.978	22.21
685.164	22.26
685.349	22.48
685.535	22.63
685.721	22.04
685.907	21.51
686.092	21.76
686.278	21.72
686.464	21.74
686.649	21.69
686.835	21.68
687.021	21.31
687.206	21.75
687.392	22.13
687.577	22.25
687.763	22.34
687.948	22.24
688.134	22.2
688.319	22
688.505	21.97
688.69	21.93
688.876	21.75
689.061	21.75
689.247	21.76
689.432	21.38
689.618	21.11
689.803	21.1
689.988	20.71
690.174	20.43
690.359	21.03
690.544	20.73
690.73	20.91
690.915	21.39
691.1	21.45
691.285	21.57
691.471	21.49
691.656	21.68
691.841	22.01
692.026	22.28
692.211	22.15
692.396	22.33
692.582	22.15
692.767	22.34
692.952	21.81
693.137	21.18
693.322	20.51
693.507	20.32
693.692	20.48
693.877	20.38
694.062	20.89
694.247	21.22
694.432	20.97
694.617	20.95
694.802	20.61
694.987	21.09
695.172	21.61
695.357	22.03
695.541	22.09
695.726	21.87
695.911	21.86
696.096	21.56
696.281	21.53
696.466	21.07
696.65	21.78
696.835	21.42
697.02	21.16
697.204	21.31
697.389	21.28
697.574	21.29
697.759	21.18
697.943	21.27
698.128	21.79
698.312	21.8
698.497	21.93
698.682	21.98
698.866	22.12
699.051	21.97
699.235	21.66
699.42	21.92
699.604	22.14
699.789	22.41
699.973	22.34
700.158	21.91
700.342	22.02
700.527	22.25
700.711	21.99
700.895	22.15
701.08	22.76
701.264	22.91
701.448	22.99
701.633	23.12
701.817	23.16
702.001	23.81
702.186	24.37
702.37	23.72
702.554	24.01
702.738	24.33
702.923	24.2
703.107	24.34
703.291	24.85
703.475	24.22
703.659	23.77
703.843	23.95
704.027	22.69
704.212	22.59
704.396	22.64
704.58	22.33
704.764	21.59
704.948	22.35
705.132	22.47
705.316	22.9
705.5	23.39
705.684	23.23
705.868	23.21
706.052	23.85
706.235	23.26
706.419	23.72
706.603	23.16
706.787	23.53
706.971	22.75
707.155	21.87
707.339	21.5
707.522	21.53
707.706	21.03
707.89	20.87
708.074	21.07
708.257	21.71
708.441	21.37
708.625	21.2
708.808	21.55
708.992	21.24
709.176	22.03
709.359	22.38
709.543	21.89
709.727	22.37
709.91	22.35
710.094	22.24
710.277	21.44
710.461	21.71
710.644	21.9
710.828	22.27
711.011	22.48
711.195	22.15
711.378	21.87
711.562	21.93
711.745	21.55
711.928	21.25
712.112	20.75
712.295	21.52
712.478	21.47
712.662	21.6
712.845	20.86
713.028	20.48
713.212	20.56
713.395	20.32
713.578	19.68
713.761	20.25
713.945	19.67
714.128	19.63
714.311	18.61
714.494	18.35
714.677	18.58
714.86	19.6
715.043	20.12
715.227	19.81
715.41	19.92
715.593	21.25
715.776	21.5
715.959	22.04
716.142	22.75
716.325	23.32
716.508	24.12
716.691	23.79
716.874	23.06
717.057	23.2
717.239	23.21
717.422	23.28
717.605	22.3
717.788	21.64
717.971	21.78
718.154	21.56
718.337	21.55
718.519	20.88
718.702	21.43
718.885	21.6
719.068	21.17
719.25	22.2
719.433	22.05
719.616	21.8
719.798	22.99
719.981	22.23
720.164	22.39
720.346	21.63
720.529	22.7
720.712	22.67
720.894	22.6
721.077	23.38
721.259	22.24
721.442	22.24
721.624	23.36
721.807	22.75
721.989	24.21
722.172	23.88
722.354	23.6
722.537	23.33
722.719	23.55
722.901	22.63
723.084	22.59
723.266	23.4
723.448	24.15
723.631	24.19
723.813	23.68
723.995	23.49
724.178	23.31
724.36	24.95
724.542	23.37
724.724	23.55
724.907	25.72
725.089	26.27
725.271	25.8
725.453	25.06
725.635	25.43
725.817	26.08
725.999	25.85
726.181	25.86
726.364	25.56
726.546	26.52
726.728	25.89
726.91	24.06
727.092	23.43
727.274	23.4
727.456	24.1
727.638	23.28
727.819	23.03
728.001	22.17
728.183	22.85
728.365	23.06
728.547	23.27
728.729	22.92
728.911	23.37
729.093	22.95
729.274	22.7
729.456	21.82
729.638	22.05
729.82	21.46
730.001	22.04
730.183	22.45
730.365	21.29
730.546	21.89
730.728	22.07
730.91	22.03
731.091	21.94
731.273	22.67
731.455	23.21
731.636	22.81
731.818	23.98
731.999	23.7
732.181	22.56
732.362	23.87
732.544	22.22
732.725	22.04
732.907	22.35
733.088	23.21
733.27	22.66
733.451	22.55
733.633	22.68
733.814	21.69
733.995	21.96
734.177	22.83
734.358	22.78
734.539	23.66
734.721	25.2
734.902	25.36
735.083	24.24
735.264	24.01
735.446	23.44
735.627	24.18
735.808	24.3
735.989	24.19
736.17	23.97
736.351	23.12
736.533	23.06
736.714	20.88
736.895	21.37
737.076	21.78
737.257	22.37
737.438	23.17
737.619	21.67
737.8	21.61
737.981	21.1
738.162	20.67
738.343	21.24
738.524	22.1
738.705	22.66
738.886	21.18
739.067	21.72
739.247	22.84
739.428	22.6
739.609	23.87
739.79	24.43
739.971	26.54
740.151	26.02
740.332	25.22
740.513	24.64
740.694	25.23
740.874	26.27
741.055	26.41
741.236	24.49
741.417	24.82
741.597	25.06
741.778	23.63
741.958	22.28
742.139	24.22
742.32	25.81
742.5	26.88
742.681	26.77
742.861	27.09
743.042	26.95
743.222	29.1
743.403	27.85
743.583	27.4
743.764	28.5
743.944	29.28
744.124	28.7
744.305	26.95
744.485	26.79
744.666	25.52
744.846	25.45
745.026	25.47
745.207	23.63
745.387	24.95
745.567	24.58
745.747	25.07
745.928	24.39
746.108	22.39
746.288	23.12
746.468	21.53
746.648	22.69
746.829	22.34
747.009	22.07
747.189	22.44
747.369	20.72
747.549	20.66
747.729	21.04
747.909	20.85
748.089	21.73
748.269	22.16
748.449	22.79
748.629	22.41
748.809	21.41
748.989	22.19
749.169	21.91
749.349	23.45
749.529	24.23
749.709	23.3
749.889	23.01
750.068	22.78
750.248	23.03
750.428	22.89
750.608	22.51
750.788	23.71
750.967	22.72
751.147	22.19
751.327	22.02
751.507	21.99
751.686	21.36
751.866	20.42
752.046	21.44
752.225	21.62
752.405	21.83
752.585	21.93
752.764	22.03
752.944	22.42
753.123	23.66
753.303	22.61
753.482	21.91
753.662	22.58
753.841	23.68
754.021	23.72
754.2	23.63
754.38	24.37
754.559	24.85
754.739	24.13
754.918	23.7
755.097	22.96
755.277	24.63
755.456	25.51
755.635	24.51
755.815	23.35
755.994	22.87
756.173	21.6
756.352	21.22
756.532	22.18
756.711	24
756.89	24.21
757.069	23.02
757.248	22.58
757.427	21.72
757.607	23.33
757.786	23.47
757.965	22.93
758.144	24.32
758.323	24.17
758.502	23.73
758.681	20.57
758.86	20.73
759.039	22.33
759.218	21.24
759.397	22.34
759.576	23.12
759.755	24.89
759.934	25.49
760.113	22.38
760.291	22.66
760.47	22.47
760.649	25.19
760.828	25.48
761.007	25.27
761.186	26.29
761.364	24.9
761.543	25.35
761.722	24.59
761.901	24.42
762.079	27.33
762.258	26.92
762.437	26.6
762.615	25.89
762.794	25.81
762.972	25.59
763.151	25.32
763.33	25.4
763.508	25.47
763.687	25.62
763.865	26.31
764.044	26.23
764.222	25.65
764.401	24.86
764.579	24.42
764.758	24.42
764.936	25.13
765.114	25.23
765.293	26.93
765.471	25.99
765.65	25.19
765.828	24.23
766.006	24.16
766.184	24.35
766.363	25.24
766.541	25.25
766.719	25.71
766.898	25.27
767.076	25.55
767.254	23.25
767.432	22.83
767.61	23.68
767.788	25.67
767.967	25.91
768.145	25.61
768.323	26.47
768.501	26.29
768.679	25.81
768.857	25.63
769.035	24.69
769.213	25.83
769.391	26.31
769.569	27.07
769.747	26.8
769.925	24.62
770.103	26.08
770.281	25.46
770.459	25.01
770.636	25.05
770.814	25.38
770.992	25.14
771.17	25.95
771.348	25.55
771.525	25.74
771.703	23.41
771.881	26.83
772.059	26.36
772.236	26.9
772.414	28.24
772.592	27.95
772.769	28.3
772.947	26.6
773.125	28.28
773.302	28.94
773.48	28.3
773.657	30.23
773.835	26.97
774.013	28.38
774.19	28.66
774.368	28.53
774.545	29.35
774.723	29.47
774.9	32.52
775.077	30.21
775.255	31.25
775.432	33.01
775.61	31.58
775.787	32.58
775.964	33.14
776.142	31.06
776.319	31.85
776.496	31.86
776.674	31.79
776.851	31.41
777.028	30.59
777.205	30.3
777.382	27.06
777.56	26.89
777.737	25.29
777.914	22.68
778.091	24.96
778.268	23.11
778.445	22.85
778.622	23.26
778.8	22.1
778.977	22.96
779.154	22.72
779.331	23.52
779.508	23.43
779.685	26.72
779.862	28.83
780.038	27.83
780.215	29.04
780.392	30.27
780.569	30.74
780.746	33.88
780.923	34.49
781.1	33.5
781.277	33.78
781.453	35.46
781.63	34.77
781.807	33.17
781.984	33.16
782.16	35.28
782.337	33.97
782.514	33.41
782.691	32.78
782.867	31.75
783.044	33.23
783.221	34.27
783.397	33.48
783.574	35.76
783.75	35.94
783.927	37.5
784.103	35.44
784.28	36.74
784.456	36.04
784.633	36.08
784.809	35.22
784.986	35.48
785.162	35.31
785.339	34.96
785.515	33.05
785.692	33.56
785.868	31.58
786.044	32.13
786.221	31.14
786.397	31.49
786.573	30.07
786.749	31.53
786.926	28.33
787.102	29.95
787.278	31.71
787.454	28.93
787.631	29.97
787.807	29.63
787.983	29.27
788.159	30.32
788.335	27.42
788.511	27.82
788.687	27.79
788.863	31.5
789.039	30.22
789.216	30.73
789.392	32.03
789.568	30.66
789.744	33.09
789.919	31.64
790.095	30.54
790.271	33.88
790.447	34.67
790.623	37.02
790.799	34.5
790.975	33.97
791.151	32.82
791.327	32.21
791.502	32.57
791.678	32.84
791.854	33.57
792.03	32.04
792.205	34.71
792.381	33.74
792.557	32.09
792.733	32.68
792.908	32.93
793.084	31.99
793.259	35.53
793.435	35.6
793.611	35.08
793.786	36.57
793.962	36.34
794.137	34.61
794.313	33.63
794.488	32.92
794.664	31.33
794.839	30.53
795.015	29.63
795.19	28.21
795.366	28.53
795.541	29.34
795.716	28.26
795.892	29.79
796.067	29.04
796.242	30.8
796.418	30.61
796.593	29.84
796.768	29.41
796.944	30.21
797.119	30.21
797.294	27.45
797.469	22.88
797.644	23.84
797.82	21.43
797.995	20.91
798.17	23.75
798.345	23.44
798.52	26.8
798.695	29.06
798.87	28.49
799.045	25.32
799.22	25.65
799.395	28.28
799.57	29
799.745	34.05
799.92	35.35
800.095	31.96
800.27	30.01
800.445	29.64
800.62	27.9
800.795	28.39
800.97	30.71
801.145	35.44
801.319	37.09
801.494	36.18
801.669	30.7
801.844	28.17
802.018	27.51
802.193	30.63
802.368	28.09
802.543	29.15
802.717	32.78
802.892	34.22
803.067	32.12
803.241	31.41
803.416	31.39
803.59	30
803.765	33.25
803.94	32.13
804.114	32.15
804.289	35.02
804.463	35.82
804.638	33.28
804.812	32.93
804.986	32.57
805.161	29.87
805.335	29.55
805.51	34.52
805.684	29.93
805.858	33.45
806.033	33.72
806.207	34.13
806.381	33.42
806.556	33.42
806.73	33.35
806.904	32.09
807.078	35.28
807.253	35.21
807.427	34.66
807.601	35.43
807.775	35.59
807.949	35.04
808.123	34.1
808.298	33.63
808.472	34.53
808.646	35.91
808.82	37.39
808.994	33.78
809.168	34.4
809.342	36.7
809.516	38.45
809.69	35.01
809.864	37.74
810.038	33.08
810.212	32.18
810.385	30.15
810.559	27.27
810.733	27.39
810.907	27.04
811.081	24.11
811.255	23.39
811.428	26.5
811.602	32.49
811.776	28.9
811.95	33.19
812.123	32.64
812.297	34.2
812.471	34.82
812.644	35.74
812.818	37.74
812.992	41.59
813.165	40.25
813.339	40.13
813.512	35.74
813.686	34.94
813.86	38.26
814.033	39.98
814.207	40.04
814.38	44.47
814.554	40.88
814.727	42.05
814.9	40.3
815.074	43.8
815.247	40.28
815.421	42.13
815.594	43.17
815.767	38.96
815.941	41.03
816.114	42.87
816.287	36.05
816.46	39.94
816.634	37.25
816.807	37.34
816.98	37.42
817.153	36.6
817.327	37.57
817.5	36.58
817.673	38.69
817.846	39.16
818.019	36.9
818.192	42.1
818.365	42.65
818.538	41.73
818.711	39.54
818.884	35.25
819.057	39.18
819.23	37.16
819.403	40.7
819.576	38.49
819.749	37.54
819.922	37.21
820.095	36.59
820.268	33.68
820.441	36.41
820.614	39.07
820.786	37.01
820.959	34.98
821.132	33.89
821.305	31.36
821.477	29.78
821.65	28.15
821.823	27.46
821.996	26.7
822.168	27.03
822.341	26.4
822.514	25.77
822.686	25.8
822.859	25.62
823.031	25.51
823.204	25.65
823.376	25.84
823.549	26.26
823.722	26.66
823.894	27.66
824.067	27.57
824.239	26.74
824.411	26.12
824.584	27.33
824.756	26.36
824.929	26.59
825.101	26.91
825.273	28.07
825.446	28.29
825.618	28.55
825.79	27.35
825.963	26.74
826.135	28.07
826.307	28.36
826.479	26.35
826.652	28.2
826.824	29.35
826.996	29.04
827.168	28.81
827.34	28.57
827.512	26.51
827.684	26.17
827.856	25.34
828.029	24.13
828.201	23.97
828.373	25.82
828.545	26.14
828.717	24.18
828.889	25.01
829.061	23.81
829.232	24.68
829.404	26.19
829.576	26.89
829.748	30.06
829.92	32.82
830.092	33.61
830.264	33.82
830.436	33
830.607	34.97
830.779	32.85
830.951	36.05
831.123	37.28
831.294	38.04
831.466	38.06
831.638	37.73
831.809	37.47
831.981	40.04
832.153	37.47
832.324	36.36
832.496	33.34
832.667	33.43
832.839	28.31
833.011	21.6
833.182	22.1
833.354	22.64
833.525	25.5
833.697	26.35
833.868	24.83
834.039	24.22
834.211	26.26
834.382	27.9
834.554	30.6
834.725	32.37
834.896	34.78
835.068	35.21
835.239	33.04
835.41	32.04
835.581	34.86
835.753	33.9
835.924	36.11
836.095	34.76
836.266	34.88
836.438	33.68
836.609	36.04
836.78	40.36
836.951	38.05
837.122	43.85
837.293	43.73
837.464	38.67
837.635	39.56
837.806	38.83
837.977	43.54
838.148	46.78
838.319	44.25
838.49	38.27
838.661	31.28
838.832	31.9
839.003	28.76
839.174	27.15
839.345	25.6
839.516	30.83
839.687	33.35
839.857	30.17
840.028	30.26
840.199	33.92
840.37	38.31
840.54	40.52
840.711	41.64
840.882	40.02
841.053	47.23
841.223	47.98
841.394	47.06
841.564	43.92
841.735	44.34
841.906	41.12
842.076	35.23
842.247	33.46
842.417	30.53
842.588	34.12
842.758	37.04
842.929	28.46
843.099	30.47
843.27	26.75
843.44	33.08
843.611	37.09
843.781	36.14
843.951	46.29
844.122	50.8
844.292	58.73
844.462	56.19
844.633	55.62
844.803	59.96
844.973	61.16
845.144	63.51
845.314	67.83
845.484	66.63
845.654	66.52
845.824	65.03
845.995	59.12
846.165	54.58
846.335	61.1
846.505	66.79
846.675	73.09
846.845	67.57
847.015	75.52
847.185	71.51
847.355	67.39
847.525	69.12
847.695	72.95
847.865	74.29
848.035	87.6
848.205	85.1
848.375	82.68
848.545	79.02
848.715	80.5
848.884	75.23
849.054	63.59
849.224	70.5
849.394	68.71
849.564	63.98
849.733	73.48
849.903	60.86
850.073	62.91
850.243	60.94
850.412	59.1
850.582	55.07
850.752	49
850.921	55.28
851.091	48.02
851.26	50.88
851.43	39.56
851.599	27.89
851.769	25.05
851.939	30.64
852.108	35.22
852.278	26.4
852.447	30.09
852.616	32.27
852.786	32.25
852.955	44.62
853.125	48.98
853.294	61.43
853.463	81.84
853.633	93.86
853.802	100.84
853.971	108.88
854.141	95.09
854.31	96.27
854.479	91.64
854.648	85.43
854.818	89.92
854.987	72.38
855.156	79.54
855.325	74.41
855.494	68.37
855.663	59.12
855.832	46.07
856.001	51.73
856.171	48.76
856.34	50.01
856.509	46.98
856.678	44.4
856.847	60.43
857.016	53.97
857.185	48.76
857.353	47.94
857.522	58.85
857.691	64.94
857.86	67.81
858.029	73.75
858.198	72.35
858.367	95.81
858.535	80.13
858.704	65.07
858.873	70.04
859.042	67.13
859.21	56.39
859.379	52.33
859.548	57.29
859.717	58.51
859.885	55.06
860.054	58.71
860.222	60.89
860.391	67.25
860.56	68.94
860.728	64.5
860.897	65.73
861.065	76.41
861.234	78.3
861.402	64.58
861.571	59.07
861.739	66.98
861.908	64.09
862.076	61.74
862.244	69.02
862.413	84.3
862.581	95.91
862.749	90.57
862.918	79.76
863.086	71.38
863.254	78.03
863.423	70.57
863.591	61.2
863.759	70.92
863.927	53.18
864.096	61.13
864.264	44.03
864.432	45.49
864.6	62.27
864.768	71.65
864.936	82.31
865.104	78.21
865.272	99.76
865.44	110.36
865.608	84.01
865.776	96.81
865.944	89.38
866.112	84.64
866.28	90.01
866.448	117.03
866.616	121.75
866.784	110.88
866.952	132.58
867.12	149.38
867.288	167.22
867.455	177.05
867.623	209.25
867.791	200.62
867.959	244.71
868.127	218.01
868.294	170.82
868.462	142.29
868.63	200.63
868.797	172.58
868.965	180.46
869.133	165.37
869.3	178.75
869.468	139.07
869.636	152.84
869.803	166.72
869.971	114.59
870.138	147.59
870.306	199.75
870.473	122.09
870.641	108.12
870.808	92.19
870.975	94.93
871.143	102.64
871.31	97.64
871.478	85.81
871.645	77.66
871.812	106.02
871.98	89.35
872.147	77.89
872.314	73.41
872.482	70.98
872.649	70.62
872.816	60
872.983	58.42
873.15	59.57
873.318	65.21
873.485	62.21
873.652	62.01
873.819	55.67
873.986	61.58
874.153	72.91
874.32	86.23
874.487	66.93
874.654	73.49
874.821	79.24
874.988	72.52
875.155	52.79
875.322	44.5
875.489	28.39
875.656	35.28
875.823	35.84
875.99	22.09
876.157	14.85
876.324	36.12
876.49	34.8
876.657	32.08
876.824	42.77
876.991	53.83
877.157	64.71
877.324	61.57
877.491	58.88
877.658	56.17
877.824	51.76
877.991	55.78
878.157	53.13
878.324	55.35
878.491	77.54
878.657	70.21
878.824	62.95
878.99	56.27
879.157	68.77
879.323	73.34
879.49	65.07
879.656	79.76
879.823	79.73
879.989	76.2
880.156	71.97
880.322	57.72
880.488	50.51
880.655	50.89
880.821	42.84
880.987	44.88
881.154	35.77
881.32	38.36
881.486	24.03
881.652	25.85
881.819	23.12
881.985	32.32
882.151	31.44
882.317	38.04
882.483	41.34
882.649	41.69
882.816	37.59
882.982	38.53
883.148	40.1
883.314	44.09
883.48	45.44
883.646	46.33
883.812	41.72
883.978	40.75
884.144	39.17
884.31	35.81
884.476	36.58
884.642	36.37
884.807	41.02
884.973	40.6
885.139	40.19
885.305	40.82
885.471	39.5
885.637	41.74
885.802	43.14
885.968	42.75
886.134	45.78
886.3	48.84
886.465	51.35
886.631	48.57
886.797	48.12
886.962	42.64
887.128	38.56
887.293	44.62
887.459	47.85
887.625	48.35
887.79	51.4
887.956	50.52
888.121	45.66
888.287	48.52
888.452	41.34
888.618	41.18
888.783	57.56
