Data from 2938027_Reflection_2.txt Node
Date: Sun Jul 12 15:11:04 EDT 2015
User: robert
Spectrometer: USB4E03001
Autoset integration time: false
Trigger mode: 4
Integration Time (sec): 1.000000E-1
Scans to average: 10
Electric dark correction enabled: true
Nonlinearity correction enabled: false
Boxcar width: 5
Stray light correction enabled: false
XAxis mode: Wavelengths
Stop averaging: false
Number of Pixels in Spectrum: 3648
>>>>>Begin Spectral Data<<<<<
177.566	326.32
177.785	359.69
178.005	324.52
178.225	294.94
178.445	115.53
178.665	116.86
178.885	152.93
179.105	131.4
179.324	149.38
179.544	123.06
179.764	141.72
179.984	167.73
180.204	183.15
180.423	110.84
180.643	113.76
180.863	87.77
181.083	89.48
181.302	75.58
181.522	79
181.742	61.36
181.961	41.25
182.181	52.53
182.401	24.45
182.621	16.39
182.84	60.3
183.06	28.96
183.279	19.66
183.499	19.45
183.719	36.71
183.938	21.39
184.158	23.65
184.377	36.43
184.597	7.44
184.816	5.96
185.036	25.62
185.256	44.37
185.475	47.62
185.695	41.05
185.914	23.81
186.134	17.66
186.353	-45.76
186.572	-132.37
186.792	-42.7
187.011	-87.47
187.231	-31.2
187.45	-52.43
187.67	-171.32
187.889	-62.01
188.108	-68.01
188.328	-50.51
188.547	-64.96
188.766	-33.81
188.986	-27.64
189.205	-21.65
189.424	5.32
189.644	5.1
189.863	7.47
190.082	56.6
190.302	72.53
190.521	73.17
190.74	95.54
190.959	94.68
191.178	110.22
191.398	107.54
191.617	104.3
191.836	103.87
192.055	99.34
192.274	81.16
192.494	67.47
192.713	66.75
192.932	52.86
193.151	20.77
193.37	5.67
193.589	16.6
193.808	38.65
194.027	28.58
194.246	27.48
194.465	38.39
194.685	72.47
194.904	96.25
195.123	107.22
195.342	180.77
195.561	166.4
195.78	451.41
195.999	-44900
196.218	1460.6
196.436	1323.02
196.655	539.11
196.874	-6709.18
197.093	276.05
197.312	178.43
197.531	133.39
197.75	99.14
197.969	159.79
198.188	72.79
198.407	55.98
198.625	83.85
198.844	24.71
199.063	29.65
199.282	27.54
199.501	5.42
199.719	21.11
199.938	31.35
200.157	35.98
200.376	43.93
200.594	61.78
200.813	73.58
201.032	55.3
201.251	80.89
201.469	72.28
201.688	95.63
201.907	140.69
202.125	135.91
202.344	98.17
202.563	72.31
202.781	32.9
203	6.21
203.218	-10.53
203.437	35.06
203.656	-0.47
203.874	-35.9
204.093	-40.7
204.311	-33.95
204.53	-38.62
204.748	-44.37
204.967	-64.02
205.185	56.37
205.404	69.9
205.622	203.72
205.841	143.86
206.059	-109.5
206.278	673.22
206.496	530.33
206.715	250.52
206.933	-62542.86
207.151	483.58
207.37	275.87
207.588	176.08
207.806	119.77
208.025	75.75
208.243	79.83
208.461	75.6
208.68	40.66
208.898	82.78
209.116	74.41
209.335	85.53
209.553	79.37
209.771	58.11
209.989	58.89
210.208	49.85
210.426	79.38
210.644	85.39
210.862	79.08
211.081	115.34
211.299	62.02
211.517	129.77
211.735	62.24
211.953	84.15
212.171	87.77
212.39	118.89
212.608	132.96
212.826	65.54
213.044	61.72
213.262	67.88
213.48	61.3
213.698	77.16
213.916	52.7
214.134	73.78
214.352	60.55
214.57	69.41
214.788	61.4
215.006	27.17
215.224	-43.96
215.442	346.5
215.66	157.2
215.878	645.84
216.096	-507.27
216.314	4.83
216.532	-60.7
216.75	-33.98
216.968	-111.07
217.185	-2.59
217.403	46.27
217.621	60.35
217.839	57.03
218.057	58.09
218.275	66.96
218.492	41.81
218.71	44.87
218.928	66.14
219.146	63.07
219.363	62.87
219.581	64.01
219.799	84.17
220.017	93.55
220.234	93.31
220.452	80.35
220.67	59.37
220.887	38.6
221.105	26.03
221.323	30.07
221.54	28.58
221.758	50.85
221.976	53.47
222.193	16.65
222.411	-7.03
222.629	-20.76
222.846	-0.26
223.064	12.55
223.281	23.91
223.499	21.25
223.716	1.76
223.934	4.51
224.151	-11.83
224.369	-25.6
224.586	-5.72
224.804	13.63
225.021	11.41
225.239	1.47
225.456	-14.39
225.674	-14.78
225.891	-4.05
226.108	-0.69
226.326	-7.54
226.543	-13.33
226.76	-8
226.978	1.4
227.195	-13.12
227.413	-7.16
227.63	4.16
227.847	14.11
228.064	19.88
228.282	21.88
228.499	22.19
228.716	21.67
228.934	26.01
229.151	23.06
229.368	17.64
229.585	17.58
229.802	18.02
230.02	15.02
230.237	13.86
230.454	11.18
230.671	8.05
230.888	3.7
231.105	3.03
231.323	-0.73
231.54	0.25
231.757	1.74
231.974	4.61
232.191	0.72
232.408	0.66
232.625	1.66
232.842	1.84
233.059	4.38
233.276	6.87
233.493	3.82
233.71	4.66
233.927	7.02
234.144	9.93
234.361	8.94
234.578	12.6
234.795	10.26
235.012	10.62
235.229	12.89
235.446	15.29
235.663	14.6
235.879	15.98
236.096	10.68
236.313	10.41
236.53	11.33
236.747	10.62
236.964	8.02
237.181	9.15
237.397	4.43
237.614	3.83
237.831	0.06
238.048	2.31
238.264	8.6
238.481	17.13
238.698	15.21
238.915	13.25
239.131	14.53
239.348	15.6
239.565	17.86
239.781	23.46
239.998	22.42
240.215	21.68
240.431	23.93
240.648	19.91
240.865	15.67
241.081	17.63
241.298	14.29
241.514	14.55
241.731	14.34
241.947	14.12
242.164	11.84
242.38	11.4
242.597	11.47
242.814	10.97
243.03	11.12
243.246	11.55
243.463	9.75
243.679	11.55
243.896	9.75
244.112	8.96
244.329	8.34
244.545	9.68
244.762	8
244.978	9.8
245.194	11.22
245.411	11.6
245.627	11.37
245.843	12.35
246.06	11.38
246.276	11.79
246.492	12.08
246.709	11.55
246.925	11.67
247.141	12.26
247.357	11.16
247.574	10.3
247.79	11.02
248.006	10.57
248.222	10.06
248.439	11.22
248.655	11.39
248.871	9.83
249.087	9.78
249.303	8.92
249.519	8.85
249.736	8.78
249.952	8.14
250.168	5.77
250.384	6.13
250.6	6.52
250.816	5.2
251.032	5.64
251.248	7.69
251.464	9.04
251.68	9.59
251.896	10.04
252.112	8.57
252.328	9.26
252.544	8.65
252.76	8.23
252.976	7.82
253.192	6.66
253.408	6.23
253.624	5.23
253.84	4.53
254.056	3.3
254.272	1.72
254.487	4.8
254.703	5.48
254.919	8.44
255.135	9.27
255.351	8.91
255.567	8.06
255.782	5.14
255.998	6.64
256.214	6.56
256.43	8.1
256.646	8.12
256.861	6.32
257.077	3.74
257.293	2.24
257.508	3.05
257.724	2.61
257.94	4.13
258.155	6.12
258.371	7.13
258.587	6.52
258.802	6.84
259.018	7.13
259.234	7.96
259.449	8.86
259.665	9.04
259.88	9.25
260.096	10.18
260.312	9.96
260.527	10.37
260.743	9.58
260.958	9.93
261.174	8.54
261.389	9.09
261.605	9.75
261.82	9.41
262.036	9.75
262.251	9.52
262.466	8.59
262.682	9.29
262.897	7.62
263.113	7.76
263.328	6.56
263.543	9.15
263.759	9.79
263.974	6.91
264.189	7.84
264.405	7.34
264.62	7.5
264.835	9.1
265.051	8.96
265.266	8.92
265.481	9.47
265.696	10.74
265.912	10.64
266.127	7.9
266.342	9.59
266.557	9.55
266.773	9.87
266.988	8.77
267.203	7.86
267.418	6.96
267.633	9.01
267.848	10.58
268.064	9.81
268.279	9.72
268.494	8.52
268.709	7.28
268.924	5.84
269.139	5.58
269.354	6.83
269.569	6.45
269.784	6.51
269.999	4.32
270.214	0.88
270.429	0.01
270.644	0.41
270.859	4.64
271.074	6.14
271.289	7.14
271.504	7.55
271.719	7.01
271.934	7.12
272.149	7.24
272.363	7.17
272.578	7.93
272.793	8.75
273.008	8.31
273.223	7.41
273.438	6.95
273.653	5.98
273.867	6.41
274.082	6.28
274.297	5.2
274.512	4.92
274.726	4.8
274.941	5.49
275.156	6.32
275.371	5.62
275.585	6.99
275.8	6.41
276.015	8.6
276.229	7.62
276.444	8.7
276.659	8.56
276.873	8.67
277.088	9.24
277.302	9.38
277.517	7.6
277.732	10.01
277.946	7.91
278.161	8.3
278.375	6.37
278.59	5.57
278.804	6.03
279.019	7.93
279.233	7.77
279.448	7.64
279.662	6.61
279.877	7.27
280.091	5.86
280.306	5.98
280.52	6.49
280.735	7.6
280.949	7.88
281.163	5.91
281.378	4.17
281.592	4.91
281.806	5.26
282.021	7.71
282.235	8.87
282.449	7.88
282.664	9.54
282.878	8.2
283.092	8.41
283.307	9.39
283.521	10.93
283.735	13.49
283.949	11.62
284.164	11.25
284.378	9.2
284.592	8.84
284.806	9.76
285.02	9.01
285.234	7.65
285.449	6.55
285.663	5.81
285.877	5.37
286.091	4.07
286.305	5.05
286.519	5.37
286.733	5.24
286.947	5.78
287.161	5.08
287.375	4.62
287.589	5.64
287.803	5.75
288.017	4.45
288.231	4.42
288.445	5.12
288.659	5.64
288.873	5.17
289.087	6.42
289.301	5.77
289.515	6.49
289.729	6.57
289.943	6.86
290.157	8.76
290.371	10.76
290.584	9.69
290.798	9.25
291.012	9.2
291.226	9.44
291.44	8.71
291.654	8.14
291.867	9.14
292.081	8.34
292.295	8.36
292.509	7.89
292.722	8.14
292.936	9.92
293.15	8.8
293.364	8.44
293.577	8.59
293.791	6.68
294.005	8.42
294.218	6.57
294.432	7.57
294.645	7.5
294.859	6.76
295.073	7.33
295.286	5.85
295.5	5.92
295.713	6.41
295.927	6.71
296.14	8.25
296.354	8.21
296.568	9.01
296.781	8.65
296.994	9.62
297.208	10.11
297.421	9.82
297.635	9.9
297.848	10.68
298.062	10.85
298.275	11.25
298.489	11.05
298.702	10.32
298.915	9.69
299.129	9.93
299.342	9.6
299.555	8.81
299.769	8.07
299.982	9.18
300.195	8.75
300.409	9.14
300.622	7.5
300.835	7.4
301.048	7.93
301.262	8.6
301.475	8.61
301.688	7.72
301.901	7.7
302.115	7.29
302.328	7.31
302.541	8.14
302.754	7.25
302.967	8.94
303.18	11.42
303.393	12.52
303.607	12.75
303.82	12.75
304.033	14.33
304.246	16.08
304.459	16.99
304.672	16.56
304.885	14.85
305.098	16.01
305.311	15.93
305.524	15.18
305.737	13.79
305.95	14.01
306.163	14.01
306.376	13.38
306.589	11.16
306.802	11.24
307.015	11.92
307.228	14.67
307.44	13.42
307.653	13.07
307.866	12
308.079	12.99
308.292	14.96
308.505	14.69
308.718	16.05
308.93	16.5
309.143	15.93
309.356	14.71
309.569	13.22
309.781	12.73
309.994	12.07
310.207	11.84
310.42	10.49
310.632	8.87
310.845	9.13
311.058	7.19
311.27	7.09
311.483	7.06
311.696	7.46
311.908	7.69
312.121	7.4
312.333	7.04
312.546	6.85
312.759	7.78
312.971	7.46
313.184	8.01
313.396	8.03
313.609	7.09
313.821	5.72
314.034	5.78
314.246	5.42
314.459	5.94
314.671	6.6
314.884	7.24
315.096	6.15
315.309	6.98
315.521	5.9
315.733	7.06
315.946	8.79
316.158	10.27
316.371	9.69
316.583	9.32
316.795	9.73
317.008	8.33
317.22	8.34
317.432	8.26
317.644	7.22
317.857	8.01
318.069	7.61
318.281	6.82
318.494	6.03
318.706	6.5
318.918	7.93
319.13	9.06
319.342	12.37
319.555	12.7
319.767	13.89
319.979	14.29
320.191	13.12
320.403	12.63
320.615	12.22
320.827	11.3
321.039	12.14
321.252	11.3
321.464	10.44
321.676	9.77
321.888	7.79
322.1	7.31
322.312	5.91
322.524	6.89
322.736	6.83
322.948	6.88
323.16	7.57
323.372	5.98
323.584	6.45
323.796	7.57
324.007	6.53
324.219	8.23
324.431	7.99
324.643	10.14
324.855	9.69
325.067	10.23
325.279	11.19
325.491	11.79
325.702	12.41
325.914	11.25
326.126	10.97
326.338	10.35
326.55	9.83
326.761	9.67
326.973	7.88
327.185	7.31
327.396	6.36
327.608	6.57
327.82	5.63
328.032	5.35
328.243	7.6
328.455	6.42
328.666	8.02
328.878	8.74
329.09	9.49
329.301	9.65
329.513	8.16
329.725	8.74
329.936	7.5
330.148	6.97
330.359	9.27
330.571	8.85
330.782	9.2
330.994	9.95
331.205	9.94
331.417	11.51
331.628	11.33
331.84	13.73
332.051	11.96
332.262	13.06
332.474	14.47
332.685	12.25
332.897	12.33
333.108	10.31
333.319	9.86
333.531	10.18
333.742	9.4
333.953	10.22
334.165	9.22
334.376	10.71
334.587	10.67
334.799	12.23
335.01	12.9
335.221	11.28
335.432	12.88
335.644	12.35
335.855	12.48
336.066	12.4
336.277	13.17
336.488	14.11
336.7	14.06
336.911	13.48
337.122	10.87
337.333	11.04
337.544	10.92
337.755	11.52
337.966	11.97
338.177	11.19
338.388	10.43
338.599	10.42
338.811	9.88
339.022	10.35
339.233	10.01
339.444	10.08
339.655	8.68
339.866	9.91
340.076	10.13
340.287	10.14
340.498	10.24
340.709	10.76
340.92	9.86
341.131	9.39
341.342	8.78
341.553	9.13
341.764	10.54
341.975	11.46
342.185	11.67
342.396	12.03
342.607	11.82
342.818	11.81
343.029	11.41
343.239	11.43
343.45	11.83
343.661	12.43
343.872	12.11
344.082	11.67
344.293	11.32
344.504	12.55
344.714	11.29
344.925	11.08
345.136	10.93
345.346	11.28
345.557	11.21
345.768	11.95
345.978	11.47
346.189	11.64
346.399	11.91
346.61	11.36
346.821	9.45
347.031	10.24
347.242	9.6
347.452	9.15
347.663	8.99
347.873	9.93
348.084	9.73
348.294	9.02
348.504	9.53
348.715	9.86
348.925	12.12
349.136	11.43
349.346	10.57
349.557	11.43
349.767	12.01
349.977	10.69
350.188	9.26
350.398	9.19
350.608	9.79
350.819	8.9
351.029	8.42
351.239	8.22
351.449	8.17
351.66	8.15
351.87	7.37
352.08	6.68
352.29	7.26
352.501	8.46
352.711	7.79
352.921	9
353.131	10.03
353.341	9.85
353.552	8.47
353.762	9.69
353.972	9.7
354.182	9.51
354.392	9.85
354.602	10.97
354.812	10.17
355.022	10.63
355.232	9.79
355.442	10.08
355.652	9.48
355.862	10.03
356.072	9.13
356.282	9.3
356.492	10.44
356.702	10.22
356.912	9.64
357.122	10.15
357.332	10.2
357.542	10.49
357.752	10.09
357.962	10.61
358.171	10.64
358.381	11.23
358.591	11.07
358.801	10.52
359.011	10.29
359.221	10.39
359.43	10.38
359.64	10.09
359.85	10.61
360.06	9.1
360.269	8.08
360.479	6.82
360.689	7.13
360.899	7.66
361.108	7.81
361.318	8.07
361.528	7.49
361.737	7.06
361.947	7.03
362.156	6.77
362.366	7.64
362.576	7.83
362.785	8.86
362.995	8.74
363.204	8.84
363.414	8.49
363.623	8.97
363.833	9.53
364.042	9.55
364.252	10
364.461	10.03
364.671	10.37
364.88	10.83
365.09	10.84
365.299	10.4
365.509	10.69
365.718	10.93
365.927	11.1
366.137	10.7
366.346	10.06
366.555	9.68
366.765	9.12
366.974	8.65
367.183	7.97
367.393	6.76
367.602	6.7
367.811	5.42
368.021	5.48
368.23	4.52
368.439	4.26
368.648	5.5
368.857	5.64
369.067	6.63
369.276	6.44
369.485	8.11
369.694	9.52
369.903	9.33
370.112	9.37
370.321	9.18
370.531	9.28
370.74	9.31
370.949	9.17
371.158	8.8
371.367	7.66
371.576	7.89
371.785	6.65
371.994	5.88
372.203	6.25
372.412	6.61
372.621	6.26
372.83	6.24
373.039	5.39
373.248	5.18
373.457	5.21
373.666	5.3
373.874	6.28
374.083	6.53
374.292	6.06
374.501	6.07
374.71	5.74
374.919	5.66
375.128	6.28
375.336	6.9
375.545	7.18
375.754	7.08
375.963	7.08
376.171	6.04
376.38	6.27
376.589	7.63
376.798	7.32
377.006	7.79
377.215	7.83
377.424	7.93
377.632	8.05
377.841	7.87
378.05	7.74
378.258	7.76
378.467	8.08
378.675	7.56
378.884	7.12
379.093	7.01
379.301	6.72
379.51	6.65
379.718	6.09
379.927	7.01
380.135	7.43
380.344	7.27
380.552	7.54
380.761	7.18
380.969	7.16
381.177	7.17
381.386	6.99
381.594	6.83
381.803	7.49
382.011	7.29
382.219	6.56
382.428	5.6
382.636	5.51
382.845	4.95
383.053	4.88
383.261	5.4
383.469	5.57
383.678	5.51
383.886	5.49
384.094	4.72
384.302	5.06
384.511	5.19
384.719	5.61
384.927	5.67
385.135	5.69
385.343	5.92
385.552	6.06
385.76	5.74
385.968	5.96
386.176	5.87
386.384	6.3
386.592	6.06
386.8	5.69
387.008	5.58
387.216	5.58
387.424	5.57
387.633	5.61
387.841	5.35
388.049	5.55
388.257	5.37
388.465	5.8
388.672	6.05
388.88	6.24
389.088	6.58
389.296	6.78
389.504	6.79
389.712	7.08
389.92	6.88
390.128	6.55
390.336	6.03
390.544	6.27
390.751	6.09
390.959	5.67
391.167	5.64
391.375	5.36
391.583	5.69
391.79	5.86
391.998	5.6
392.206	5.57
392.414	5.58
392.621	5.73
392.829	5.28
393.037	4.87
393.244	5.3
393.452	5.25
393.66	5.24
393.867	4.65
394.075	4.68
394.283	4.78
394.49	4.73
394.698	4.8
394.905	4.48
395.113	5.12
395.32	5.14
395.528	4.64
395.735	4.36
395.943	4.27
396.15	4.26
396.358	3.6
396.565	3.43
396.773	3.59
396.98	3.56
397.188	3.7
397.395	3.19
397.602	3.29
397.81	3.46
398.017	3.61
398.225	4.08
398.432	4.29
398.639	4.77
398.847	4.92
399.054	4.69
399.261	4.51
399.468	4.79
399.676	4.71
399.883	4.95
400.09	4.85
400.297	4.74
400.505	4.15
400.712	3.87
400.919	3.95
401.126	3.97
401.333	4.17
401.54	4.2
401.748	3.9
401.955	4
402.162	3.86
402.369	4.04
402.576	3.9
402.783	3.95
402.99	4.03
403.197	4.1
403.404	4.23
403.611	3.94
403.818	3.95
404.025	3.91
404.232	3.97
404.439	4.25
404.646	4.4
404.853	4.43
405.06	4.58
405.267	4.68
405.474	4.48
405.681	4.27
405.887	4.59
406.094	4.53
406.301	4.4
406.508	4.48
406.715	4.2
406.922	4.01
407.128	4.33
407.335	4.53
407.542	4.4
407.749	4.63
407.955	4.73
408.162	4.57
408.369	4.61
408.575	4.59
408.782	4.66
408.989	4.58
409.195	4.32
409.402	4.22
409.609	4.03
409.815	3.77
410.022	3.57
410.228	3.24
410.435	3.41
410.642	3.45
410.848	3.5
411.055	3.16
411.261	2.99
411.468	3.02
411.674	3.08
411.881	3.22
412.087	3.06
412.294	3.17
412.5	3.53
412.706	3.08
412.913	3.1
413.119	3.44
413.326	3.54
413.532	3.82
413.738	4.07
413.945	3.68
414.151	3.34
414.357	3.66
414.564	3.62
414.77	3.39
414.976	3.3
415.182	3.39
415.389	3.37
415.595	3.39
415.801	3.02
416.007	2.81
416.214	2.89
416.42	2.94
416.626	3
416.832	2.94
417.038	2.99
417.244	3.29
417.45	3.3
417.657	3.14
417.863	3.2
418.069	3.49
418.275	3.39
418.481	3.48
418.687	3.3
418.893	3.3
419.099	3.19
419.305	3.37
419.511	3.44
419.717	3.45
419.923	3.54
420.129	3.47
420.335	3.42
420.541	3.51
420.746	3.51
420.952	3.7
421.158	3.78
421.364	3.82
421.57	3.64
421.776	3.44
421.982	3.51
422.187	3.36
422.393	3.27
422.599	3.34
422.805	3.28
423.01	3.22
423.216	3.22
423.422	3.15
423.628	3.06
423.833	3.12
424.039	3.29
424.245	3.19
424.45	3.25
424.656	3.27
424.862	3.14
425.067	3.06
425.273	2.97
425.478	2.81
425.684	2.72
425.889	2.67
426.095	2.49
426.301	2.11
426.506	2.15
426.712	2.05
426.917	2.22
427.123	2.3
427.328	2.24
427.533	2.31
427.739	2.36
427.944	2.28
428.15	2.24
428.355	2.43
428.561	2.65
428.766	2.55
428.971	2.86
429.177	2.92
429.382	2.95
429.587	3.28
429.793	3.43
429.998	3.46
430.203	3.62
430.408	3.77
430.614	3.69
430.819	3.65
431.024	3.81
431.229	3.6
431.434	3.29
431.64	3.22
431.845	3.15
432.05	3.24
432.255	3.44
432.46	3.17
432.665	3.25
432.87	3.16
433.076	3.34
433.281	3.15
433.486	3.2
433.691	3.25
433.896	3.06
434.101	3
434.306	2.88
434.511	2.71
434.716	2.94
434.921	2.8
435.126	2.9
435.331	2.72
435.535	2.67
435.74	2.45
435.945	2.56
436.15	2.73
436.355	2.9
436.56	2.88
436.765	2.87
436.97	2.78
437.174	2.72
437.379	2.68
437.584	2.87
437.789	2.88
437.993	3.06
438.198	2.85
438.403	2.93
438.608	2.7
438.812	2.64
439.017	2.7
439.222	2.73
439.426	2.82
439.631	2.75
439.836	2.64
440.04	2.77
440.245	2.66
440.45	2.84
440.654	2.81
440.859	3.07
441.063	3.1
441.268	3.03
441.472	2.97
441.677	3.07
441.881	3
442.086	3.1
442.29	3
442.495	3.22
442.699	3.27
442.904	3.18
443.108	2.94
443.312	3.02
443.517	3.21
443.721	3.41
443.925	3.26
444.13	3.44
444.334	3.26
444.538	3.24
444.743	3.03
444.947	2.89
445.151	2.92
445.356	2.95
445.56	2.87
445.764	2.82
445.968	2.55
446.173	2.59
446.377	2.75
446.581	2.84
446.785	2.83
446.989	2.85
447.193	2.97
447.398	3.01
447.602	2.99
447.806	3
448.01	2.83
448.214	2.98
448.418	2.93
448.622	2.69
448.826	2.69
449.03	2.66
449.234	2.77
449.438	2.67
449.642	2.68
449.846	2.76
450.05	2.79
450.254	3.06
450.458	3.11
450.662	3.22
450.866	3.19
451.069	3.19
451.273	3.21
451.477	3.2
451.681	3.18
451.885	2.91
452.089	2.92
452.292	2.84
452.496	2.71
452.7	2.65
452.904	2.7
453.107	2.93
453.311	2.95
453.515	3.04
453.719	2.9
453.922	2.74
454.126	2.98
454.33	2.87
454.533	2.83
454.737	2.63
454.94	2.45
455.144	2.42
455.348	2.26
455.551	2.23
455.755	2.07
455.958	2.03
456.162	1.8
456.365	1.87
456.569	1.97
456.772	2.11
456.976	2.26
457.179	2.4
457.383	2.66
457.586	2.53
457.79	2.54
457.993	2.63
458.196	2.85
458.4	3.26
458.603	3.08
458.807	3.06
459.01	3.12
459.213	3.05
459.417	3.18
459.62	2.95
459.823	3
460.026	2.97
460.23	2.94
460.433	2.79
460.636	2.75
460.839	2.87
461.042	2.82
461.246	2.74
461.449	2.82
461.652	2.75
461.855	2.87
462.058	3.05
462.261	3.01
462.464	2.98
462.668	2.85
462.871	2.9
463.074	2.81
463.277	2.85
463.48	2.88
463.683	2.92
463.886	2.96
464.089	2.79
464.292	2.58
464.495	2.58
464.698	2.61
464.901	2.88
465.104	2.87
465.306	2.72
465.509	2.85
465.712	2.73
465.915	2.66
466.118	2.53
466.321	2.66
466.524	2.59
466.726	2.83
466.929	2.87
467.132	2.79
467.335	2.58
467.538	2.71
467.74	2.56
467.943	2.62
468.146	2.71
468.348	2.89
468.551	2.84
468.754	3.09
468.956	2.98
469.159	2.89
469.362	2.92
469.564	3.05
469.767	3.07
469.969	3.11
470.172	3.04
470.375	3.04
470.577	3.06
470.78	3.09
470.982	3.02
471.185	2.9
471.387	3.09
471.59	3.09
471.792	3.18
471.995	3.24
472.197	3.23
472.399	3.4
472.602	3.25
472.804	2.95
473.007	2.84
473.209	2.72
473.411	2.67
473.614	2.64
473.816	2.82
474.018	2.88
474.22	2.88
474.423	3.05
474.625	3.05
474.827	3.28
475.03	3.43
475.232	3.52
475.434	3.52
475.636	3.64
475.838	3.54
476.04	3.33
476.243	3.04
476.445	3.04
476.647	2.63
476.849	2.49
477.051	2.41
477.253	2.49
477.455	2.46
477.657	2.63
477.859	2.74
478.061	2.82
478.263	2.89
478.465	3.12
478.667	3.03
478.869	3.26
479.071	3.3
479.273	3.2
479.475	3.02
479.677	2.98
479.879	2.85
480.081	2.76
480.283	2.73
480.485	2.7
480.686	2.69
480.888	2.66
481.09	2.7
481.292	2.75
481.494	2.71
481.695	2.66
481.897	2.6
482.099	2.62
482.301	2.5
482.502	2.51
482.704	2.51
482.906	2.44
483.107	2.42
483.309	2.4
483.511	2.33
483.712	2.4
483.914	2.42
484.115	2.46
484.317	2.46
484.519	2.48
484.72	2.39
484.922	2.36
485.123	2.37
485.325	2.37
485.526	2.33
485.728	2.33
485.929	2.24
486.131	2.19
486.332	2.19
486.534	2.24
486.735	2.3
486.936	2.49
487.138	2.45
487.339	2.45
487.541	2.49
487.742	2.5
487.943	2.43
488.144	2.48
488.346	2.56
488.547	2.55
488.748	2.48
488.95	2.4
489.151	2.28
489.352	2.34
489.553	2.37
489.755	2.37
489.956	2.38
490.157	2.53
490.358	2.5
490.559	2.52
490.76	2.5
490.961	2.56
491.163	2.58
491.364	2.62
491.565	2.57
491.766	2.52
491.967	2.41
492.168	2.43
492.369	2.48
492.57	2.58
492.771	2.56
492.972	2.65
493.173	2.7
493.374	2.72
493.575	2.76
493.776	2.79
493.976	2.81
494.177	2.94
494.378	2.96
494.579	2.84
494.78	2.81
494.981	2.87
495.182	2.72
495.382	2.62
495.583	2.73
495.784	2.72
495.985	2.8
496.185	2.83
496.386	2.82
496.587	2.85
496.788	2.89
496.988	2.74
497.189	2.72
497.39	2.85
497.59	2.96
497.791	3
497.992	3
498.192	2.92
498.393	2.87
498.593	2.95
498.794	2.77
498.994	2.84
499.195	2.94
499.395	3.06
499.596	3.07
499.796	2.94
499.997	2.77
500.197	2.78
500.398	2.79
500.598	2.76
500.799	2.82
500.999	3.02
501.199	3.07
501.4	3.24
501.6	3.19
501.801	3.12
502.001	3.09
502.201	3.27
502.402	3.41
502.602	3.64
502.802	3.76
503.002	3.81
503.203	3.86
503.403	3.67
503.603	3.65
503.803	3.53
504.003	3.68
504.204	3.67
504.404	3.47
504.604	3.4
504.804	3.24
505.004	3.25
505.204	2.9
505.404	2.8
505.604	2.88
505.804	2.75
506.005	2.78
506.205	2.6
506.405	2.63
506.605	2.7
506.805	2.53
507.005	2.51
507.204	2.62
507.404	2.97
507.604	2.96
507.804	2.89
508.004	2.84
508.204	3.04
508.404	3.12
508.604	3.13
508.804	3.18
509.003	3.47
509.203	3.59
509.403	3.46
509.603	3.39
509.803	3.52
510.002	3.65
510.202	3.63
510.402	3.47
510.602	3.42
510.801	3.43
511.001	3.34
511.201	3.29
511.4	3.28
511.6	3.42
511.8	3.59
511.999	3.51
512.199	3.55
512.398	3.65
512.598	3.77
512.797	3.77
512.997	3.84
513.197	3.85
513.396	3.94
513.596	3.9
513.795	3.9
513.994	3.71
514.194	3.81
514.393	3.81
514.593	3.88
514.792	3.83
514.992	3.9
515.191	3.8
515.39	3.92
515.59	3.68
515.789	3.65
515.988	3.56
516.188	3.72
516.387	3.63
516.586	3.5
516.786	3.37
516.985	3.35
517.184	3.39
517.383	3.28
517.582	3.29
517.782	3.36
517.981	3.41
518.18	3.35
518.379	3.27
518.578	3.26
518.777	3.29
518.976	3.28
519.176	3.29
519.375	3.2
519.574	3.41
519.773	3.45
519.972	3.37
520.171	3.35
520.37	3.39
520.569	3.32
520.768	3.36
520.967	3.34
521.166	3.43
521.365	3.43
521.564	3.48
521.762	3.31
521.961	3.29
522.16	3.5
522.359	3.57
522.558	3.78
522.757	4.02
522.956	3.84
523.154	3.92
523.353	3.88
523.552	3.95
523.751	4.03
523.949	4.14
524.148	4.08
524.347	4.06
524.546	4.13
524.744	4.13
524.943	3.99
525.142	3.99
525.34	4.05
525.539	4.07
525.737	4.09
525.936	4.17
526.135	4.1
526.333	4.08
526.532	4.05
526.73	3.93
526.929	3.86
527.127	3.94
527.326	4.06
527.524	4.07
527.723	4.1
527.921	4.01
528.12	3.88
528.318	3.87
528.516	3.88
528.715	3.87
528.913	3.94
529.112	3.96
529.31	3.95
529.508	3.98
529.707	3.93
529.905	3.93
530.103	3.99
530.301	4.11
530.5	4.15
530.698	4.23
530.896	4.24
531.094	4.17
531.293	4.27
531.491	4.26
531.689	4.21
531.887	4.34
532.085	4.39
532.283	4.48
532.481	4.49
532.68	4.52
532.878	4.53
533.076	4.61
533.274	4.67
533.472	4.6
533.67	4.6
533.868	4.69
534.066	4.64
534.264	4.64
534.462	4.62
534.66	4.56
534.858	4.7
535.056	4.7
535.253	4.76
535.451	4.75
535.649	4.79
535.847	4.87
536.045	4.88
536.243	4.97
536.441	4.98
536.638	5.02
536.836	5.18
537.034	5.03
537.232	5.02
537.43	5.03
537.627	5.12
537.825	5.17
538.023	5.09
538.22	5.09
538.418	4.96
538.616	4.92
538.813	5
539.011	4.86
539.209	4.9
539.406	4.97
539.604	4.87
539.801	4.93
539.999	4.94
540.196	5.02
540.394	5
540.591	5.07
540.789	5.14
540.986	5.06
541.184	5.15
541.381	5.22
541.579	5.29
541.776	5.38
541.974	5.36
542.171	5.34
542.368	5.47
542.566	5.54
542.763	5.63
542.96	5.7
543.158	5.83
543.355	5.87
543.552	5.89
543.75	5.86
543.947	5.85
544.144	5.92
544.341	6.05
544.539	6.05
544.736	5.95
544.933	5.97
545.13	5.97
545.327	5.94
545.524	5.97
545.722	6.05
545.919	6.14
546.116	6.15
546.313	6.12
546.51	6.07
546.707	6.07
546.904	6.24
547.101	6.25
547.298	6.23
547.495	6.26
547.692	6.3
547.889	6.54
548.086	6.7
548.283	6.68
548.48	6.7
548.677	6.88
548.874	7
549.07	7.03
549.267	7.01
549.464	7.07
549.661	7.13
549.858	7.16
550.055	7
550.251	6.87
550.448	7.09
550.645	7.24
550.842	7.39
551.038	7.4
551.235	7.15
551.432	7.25
551.628	7.49
551.825	7.49
552.022	7.41
552.218	7.24
552.415	7.4
552.612	7.43
552.808	7.28
553.005	7.12
553.201	7.04
553.398	7.27
553.594	7.22
553.791	7.24
553.987	7.32
554.184	7.56
554.38	7.69
554.577	7.52
554.773	7.54
554.97	7.64
555.166	7.8
555.362	7.84
555.559	8.13
555.755	8.33
555.952	8.42
556.148	8.48
556.344	8.38
556.541	8.74
556.737	8.84
556.933	9.04
557.129	9.31
557.326	9.32
557.522	9.36
557.718	8.99
557.914	8.83
558.11	8.67
558.307	8.57
558.503	8.8
558.699	8.71
558.895	8.67
559.091	8.42
559.287	8.31
559.483	8.38
559.679	8.28
559.876	8.56
560.072	8.88
560.268	8.84
560.464	8.87
560.66	9.12
560.856	9.14
561.052	9.26
561.247	9.3
561.443	9.58
561.639	9.55
561.835	9.73
562.031	9.78
562.227	9.69
562.423	9.84
562.619	10.08
562.815	9.7
563.01	9.87
563.206	10
563.402	10.2
563.598	10.26
563.793	10.27
563.989	10.33
564.185	10.49
564.381	10.56
564.576	10.61
564.772	10.59
564.968	10.54
565.163	10.39
565.359	10.39
565.555	10.45
565.75	10.26
565.946	10.09
566.141	10.07
566.337	9.94
566.532	10.06
566.728	10.13
566.923	10.1
567.119	10.3
567.314	10.34
567.51	10.3
567.705	10.26
567.901	10.31
568.096	10.62
568.292	10.44
568.487	10.56
568.682	10.68
568.878	10.71
569.073	10.74
569.268	10.73
569.464	10.75
569.659	10.97
569.854	11
570.05	11.01
570.245	11.05
570.44	11.34
570.635	11.26
570.831	11.02
571.026	11.08
571.221	11.12
571.416	11.27
571.611	11.26
571.806	11.34
572.002	11.45
572.197	11.57
572.392	11.6
572.587	11.69
572.782	11.78
572.977	11.98
573.172	11.86
573.367	11.9
573.562	11.92
573.757	11.9
573.952	11.81
574.147	11.93
574.342	11.94
574.537	11.96
574.732	12.05
574.927	12.12
575.121	12.18
575.316	12.33
575.511	12.4
575.706	12.44
575.901	12.42
576.096	12.36
576.29	12.27
576.485	12.34
576.68	12.5
576.875	12.39
577.069	12.43
577.264	12.37
577.459	12.23
577.654	12.14
577.848	11.85
578.043	12.17
578.238	12.32
578.432	12.47
578.627	12.36
578.821	12.16
579.016	12.33
579.21	12.5
579.405	12.5
579.6	12.85
579.794	12.97
579.989	13.06
580.183	13.02
580.378	13.02
580.572	12.93
580.766	13.07
580.961	13.28
581.155	13.4
581.35	13.16
581.544	13.41
581.738	13.34
581.933	13.38
582.127	13.56
582.321	13.61
582.516	13.33
582.71	13.2
582.904	13.09
583.099	12.86
583.293	12.7
583.487	12.96
583.681	12.72
583.875	12.6
584.07	12.49
584.264	12.55
584.458	12.61
584.652	12.96
584.846	12.93
585.04	13.19
585.234	13.16
585.428	13.06
585.623	13.07
585.817	13.21
586.011	13.05
586.205	13.29
586.399	13.31
586.593	13.4
586.787	13.41
586.981	13.44
587.174	13.34
587.368	13.39
587.562	13.58
587.756	13.38
587.95	13.37
588.144	13.62
588.338	13.54
588.532	13.52
588.725	13.18
588.919	13.14
589.113	13.15
589.307	13.06
589.501	13.25
589.694	13.15
589.888	13.43
590.082	13.62
590.275	13.55
590.469	13.62
590.663	13.53
590.856	13.66
591.05	14
591.244	14.4
591.437	14.69
591.631	14.55
591.824	14.63
592.018	14.16
592.212	14.03
592.405	13.94
592.599	13.94
592.792	14.07
592.986	14.14
593.179	13.73
593.372	13.53
593.566	13.42
593.759	13.56
593.953	13.51
594.146	14.01
594.339	14.07
594.533	14.09
594.726	14.03
594.92	14.11
595.113	14.03
595.306	14.05
595.499	14.2
595.693	14.1
595.886	14.09
596.079	14.1
596.272	13.88
596.466	13.81
596.659	13.93
596.852	13.8
597.045	13.72
597.238	13.71
597.431	13.72
597.624	13.65
597.818	13.65
598.011	13.69
598.204	13.85
598.397	13.99
598.59	13.98
598.783	13.96
598.976	14.13
599.169	14.16
599.362	14.27
599.555	14.23
599.748	14.2
599.941	14.4
600.134	14.59
600.326	14.4
600.519	14.13
600.712	14.23
600.905	14.4
601.098	14.25
601.291	14.32
601.483	14.47
601.676	14.57
601.869	14.53
602.062	14.53
602.255	14.26
602.447	14.41
602.64	14.62
602.833	14.75
603.025	14.81
603.218	15.01
603.411	15.11
603.603	15.37
603.796	15.41
603.989	15.29
604.181	15.19
604.374	15.22
604.566	15.17
604.759	15.17
604.951	14.87
605.144	14.74
605.336	14.7
605.529	14.62
605.721	14.33
605.914	14.32
606.106	14.42
606.299	14.45
606.491	14.48
606.683	14.43
606.876	14.43
607.068	14.66
607.26	14.76
607.453	14.83
607.645	15.07
607.837	15.2
608.03	15.11
608.222	15.11
608.414	15.27
608.606	15.28
608.799	15.26
608.991	15.15
609.183	14.87
609.375	15
609.567	14.96
609.759	14.62
609.952	14.45
610.144	14.56
610.336	14.64
610.528	14.55
610.72	14.41
610.912	14.53
611.104	14.51
611.296	14.79
611.488	14.49
611.68	14.76
611.872	14.94
612.064	15.01
612.256	14.83
612.448	14.82
612.64	14.76
612.832	14.86
613.023	14.76
613.215	14.97
613.407	14.86
613.599	14.98
613.791	14.62
613.983	14.61
614.174	14.53
614.366	14.49
614.558	14.61
614.75	14.55
614.941	14.48
615.133	14.61
615.325	14.66
615.516	14.75
615.708	14.78
615.9	15.1
616.091	15.18
616.283	15.21
616.475	15.23
616.666	15.1
616.858	15.36
617.049	15.52
617.241	15.61
617.432	15.64
617.624	15.56
617.815	15.81
618.007	15.68
618.198	15.81
618.39	15.82
618.581	15.87
618.773	15.82
618.964	15.71
619.155	15.77
619.347	15.63
619.538	15.38
619.729	15.76
619.921	15.51
620.112	15.66
620.303	15.66
620.494	15.75
620.686	15.65
620.877	15.82
621.068	15.96
621.259	15.64
621.451	15.56
621.642	15.49
621.833	15.19
622.024	15.19
622.215	14.7
622.406	14.3
622.597	14.28
622.788	14.59
622.98	14.56
623.171	14.47
623.362	14.95
623.553	15.22
623.744	15.6
623.935	15.57
624.126	15.67
624.317	15.82
624.508	15.85
624.698	15.94
624.889	15.93
625.08	15.47
625.271	15.23
625.462	15.21
625.653	15.33
625.844	15.34
626.034	15.39
626.225	15.47
626.416	15.52
626.607	15.49
626.798	15.46
626.988	15.58
627.179	16.06
627.37	16.08
627.56	16.15
627.751	15.75
627.942	15.74
628.132	15.62
628.323	15.37
628.514	15.26
628.704	15.38
628.895	15.35
629.085	15.31
629.276	15.21
629.466	15.47
629.657	15.07
629.847	15.37
630.038	15.4
630.228	15.73
630.419	15.87
630.609	16.11
630.8	16.48
630.99	16.75
631.181	16.81
631.371	16.67
631.561	16.58
631.752	17.16
631.942	16.9
632.132	16.67
632.323	16.62
632.513	16.76
632.703	16.51
632.893	16.09
633.084	16.1
633.274	15.83
633.464	16.01
633.654	16
633.844	15.75
634.034	16.17
634.225	16.26
634.415	16.17
634.605	16.19
634.795	16.42
634.985	16.62
635.175	16.58
635.365	16.55
635.555	16.44
635.745	16.53
635.935	16.4
636.125	16.13
636.315	16.39
636.505	16.29
636.695	16.08
636.885	16.3
637.075	16.07
637.265	15.72
637.455	15.92
637.644	16.03
637.834	15.86
638.024	15.84
638.214	15.58
638.404	15.31
638.593	15.39
638.783	15.47
638.973	15.19
639.163	15.35
639.352	15.29
639.542	15.13
639.732	14.8
639.921	14.95
640.111	14.86
640.301	15.01
640.49	15.3
640.68	15.43
640.87	15.16
641.059	15.11
641.249	14.97
641.438	15
641.628	15.22
641.817	15.45
642.007	15.19
642.196	15.06
642.386	14.95
642.575	14.66
642.764	14.38
642.954	14.44
643.143	14.55
643.333	15.24
643.522	15.12
643.711	15.13
643.901	14.81
644.09	15.04
644.279	15.72
644.469	16.38
644.658	16.31
644.847	16.49
645.036	16.99
645.226	16.94
645.415	16.63
645.604	17.22
645.793	17.29
645.982	17.29
646.171	17.09
646.361	16.65
646.55	16.26
646.739	16.3
646.928	16.13
647.117	15.9
647.306	15.84
647.495	15.38
647.684	15.14
647.873	15.2
648.062	15.26
648.251	15.48
648.44	15.71
648.629	15.92
648.818	15.88
649.007	16.06
649.196	15.99
649.384	16.33
649.573	16.51
649.762	16.41
649.951	16.22
650.14	16.23
650.328	16.58
650.517	16.13
650.706	16.19
650.895	16.2
651.083	15.92
651.272	15.99
651.461	15.56
651.65	15.82
651.838	15.92
652.027	15.86
652.216	16.25
652.404	16.17
652.593	16.71
652.781	16.52
652.97	16.89
653.158	17.19
653.347	17.31
653.535	17.59
653.724	17.51
653.912	17.5
654.101	17.46
654.289	17.18
654.478	16.94
654.666	16.92
654.855	16.96
655.043	16.72
655.231	16.62
655.42	16.46
655.608	16.71
655.796	16.55
655.985	16.37
656.173	16.93
656.361	17.29
656.55	17.1
656.738	17.18
656.926	16.97
657.114	17.03
657.302	17.11
657.491	17
657.679	16.58
657.867	16.56
658.055	16.55
658.243	16.46
658.431	16.36
658.619	16.69
658.807	16.58
658.996	16.96
659.184	16.92
659.372	17.23
659.56	17.47
659.748	17.67
659.936	17.54
660.124	17.65
660.311	17.15
660.499	17.13
660.687	16.88
660.875	16.52
661.063	16.23
661.251	16.51
661.439	16.51
661.627	16.08
661.814	15.74
662.002	15.69
662.19	15.81
662.378	16.39
662.565	16.76
662.753	16.96
662.941	17.2
663.129	17.29
663.316	17.27
663.504	17.31
663.692	17.83
663.879	18.49
664.067	18.91
664.254	19.03
664.442	18.7
664.63	18.31
664.817	18.21
665.005	18.07
665.192	17.97
665.38	17.6
665.567	17.14
665.755	17.3
665.942	16.69
666.13	16.51
666.317	16.64
666.504	16.87
666.692	17.08
666.879	17.23
667.067	17.78
667.254	17.43
667.441	17.64
667.629	18.01
667.816	17.75
668.003	18.01
668.19	18.55
668.378	17.91
668.565	18.54
668.752	17.86
668.939	17.91
669.127	17.68
669.314	18.05
669.501	18.04
669.688	17.8
669.875	18.15
670.062	18.61
670.249	18.24
670.436	18.75
670.623	18.16
670.81	18.7
670.997	18.71
671.184	18.91
671.371	18.75
671.558	18.93
671.745	19.27
671.932	19.15
672.119	18.66
672.306	18.58
672.493	19.06
672.68	19.3
672.867	19.66
673.054	19.55
673.24	19.71
673.427	20.19
673.614	20.12
673.801	20.5
673.988	20.13
674.174	20.27
674.361	20.37
674.548	19.85
674.734	19.63
674.921	19.14
675.108	19.01
675.294	18.88
675.481	18.5
675.668	18.54
675.854	18.29
676.041	18.65
676.227	18.73
676.414	18.84
676.601	18.19
676.787	18.42
676.974	18.81
677.16	18.97
677.347	18.88
677.533	19.06
677.719	18.58
677.906	18.19
678.092	18.2
678.279	18.3
678.465	18.13
678.651	18.37
678.838	18.34
679.024	18.19
679.21	18.31
679.397	17.95
679.583	18.25
679.769	18.15
679.955	18.1
680.142	17.82
680.328	17.24
680.514	17.35
680.7	17.46
680.886	17.36
681.073	17.39
681.259	17.35
681.445	17.67
681.631	17.8
681.817	18.06
682.003	18.36
682.189	18.48
682.375	18.6
682.561	18.83
682.747	19.03
682.933	18.87
683.119	18.89
683.305	18.8
683.491	18.69
683.677	18.26
683.863	18.47
684.049	18.21
684.235	17.95
684.42	18.49
684.606	17.95
684.792	17.82
684.978	17.84
685.164	17.75
685.349	17.74
685.535	18.01
685.721	18.41
685.907	18.2
686.092	18.31
686.278	18.38
686.464	17.86
686.649	17.86
686.835	17.96
687.021	17.97
687.206	17.52
687.392	17.83
687.577	17.92
687.763	17.43
687.948	17.31
688.134	17.07
688.319	16.88
688.505	17.01
688.69	16.99
688.876	17.07
689.061	16.94
689.247	17.37
689.432	17.38
689.618	17.21
689.803	16.96
689.988	17.25
690.174	17.68
690.359	18.66
690.544	18.67
690.73	19.67
690.915	19.92
691.1	19.67
691.285	19.81
691.471	19.59
691.656	19.25
691.841	20.05
692.026	19.98
692.211	19.79
692.396	19.63
692.582	20.19
692.767	19.64
692.952	19.31
693.137	19.43
693.322	19.04
693.507	19.47
693.692	19.57
693.877	19.25
694.062	19.62
694.247	19.88
694.432	19.13
694.617	18.76
694.802	18.85
694.987	18.35
695.172	18.76
695.357	19.85
695.541	18.62
695.726	19.31
695.911	19.04
696.096	18.77
696.281	18.56
696.466	19.11
696.65	18.91
696.835	18.53
697.02	19.11
697.204	18.59
697.389	18.03
697.574	18.3
697.759	18.02
697.943	17.92
698.128	17.87
698.312	17.85
698.497	17.64
698.682	17.89
698.866	18.15
699.051	18.19
699.235	18.47
699.42	18.23
699.604	18.38
699.789	17.81
699.973	17.74
700.158	17.73
700.342	17.64
700.527	17.46
700.711	17.09
700.895	16.98
701.08	16.78
701.264	16.69
701.448	16.55
701.633	17
701.817	17.58
702.001	18.37
702.186	18.52
702.37	19.29
702.554	19.72
702.738	20.09
702.923	20.15
703.107	20.26
703.291	21.32
703.475	22.48
703.659	22.1
703.843	21.85
704.027	21.2
704.212	20.65
704.396	20.16
704.58	20.14
704.764	20.3
704.948	20.55
705.132	19.92
705.316	18.36
705.5	17.85
705.684	18.23
705.868	19.04
706.052	19.16
706.235	19.61
706.419	19.7
706.603	19.77
706.787	19.84
706.971	19.76
707.155	20.67
707.339	21.4
707.522	21.81
707.706	21.68
707.89	21.04
708.074	21.27
708.257	21.37
708.441	21.14
708.625	20.76
708.808	21.09
708.992	21.57
709.176	21.53
709.359	21.1
709.543	20.41
709.727	20.3
709.91	20.8
710.094	20.23
710.277	19.99
710.461	19.82
710.644	20.38
710.828	19.69
711.011	18.79
711.195	19
711.378	19.43
711.562	19.75
711.745	19.33
711.928	18.92
712.112	19.06
712.295	18.86
712.478	19.36
712.662	18.94
712.845	18.96
713.028	18.66
713.212	18.01
713.395	18.62
713.578	18.88
713.761	19.1
713.945	19.13
714.128	19.41
714.311	19.73
714.494	20.05
714.677	20.57
714.86	20.92
715.043	21
715.227	20.6
715.41	20.28
715.593	19.61
715.776	20.02
715.959	20.15
716.142	20.74
716.325	21.13
716.508	20.22
716.691	20.01
716.874	19.65
717.057	20.18
717.239	20.86
717.422	20.66
717.605	20.3
717.788	19.33
717.971	19.72
718.154	19
718.337	18.32
718.519	18.89
718.702	18.82
718.885	19
719.068	18.89
719.25	19
719.433	19.31
719.616	20.7
719.798	21.52
719.981	20.8
720.164	20.59
720.346	20.34
720.529	19.32
720.712	19.53
720.894	19.87
721.077	20.8
721.259	22.04
721.442	21.61
721.624	21.16
721.807	22.05
721.989	23.12
722.172	23.49
722.354	24.18
722.537	24.02
722.719	24.32
722.901	24.2
723.084	23.87
723.266	22.3
723.448	22.82
723.631	22.32
723.813	21.83
723.995	21.08
724.178	20.95
724.36	21.15
724.542	21.74
724.724	21.25
724.907	21.67
725.089	21.38
725.271	21.7
725.453	21.89
725.635	21.85
725.817	21.91
725.999	22.37
726.181	22.4
726.364	22.51
726.546	23.33
726.728	23.5
726.91	23.49
727.092	23.16
727.274	23.26
727.456	22.28
727.638	21.79
727.819	22.08
728.001	21.65
728.183	22.94
728.365	22.26
728.547	21.73
728.729	21.58
728.911	21.43
729.093	21.52
729.274	21.37
729.456	22.51
729.638	22.27
729.82	21.14
730.001	20.88
730.183	19.68
730.365	20.04
730.546	20.61
730.728	21.05
730.91	20.46
731.091	20.8
731.273	21.13
731.455	20.8
731.636	21.48
731.818	21.6
731.999	21.92
732.181	21.65
732.362	22.94
732.544	22.56
732.725	21.67
732.907	22.51
733.088	21.79
733.27	20.51
733.451	19.32
733.633	19.3
733.814	19.25
733.995	18.04
734.177	17.63
734.358	15.72
734.539	16.07
734.721	16.14
734.902	15.28
735.083	15.86
735.264	17.06
735.446	18.52
735.627	18.52
735.808	19.11
735.989	21.12
736.17	21.38
736.351	22.22
736.533	20.78
736.714	20.17
736.895	20.64
737.076	20.82
737.257	20.37
737.438	20.35
737.619	21.07
737.8	21.05
737.981	21.07
738.162	21.63
738.343	21.81
738.524	22.16
738.705	23.07
738.886	23.43
739.067	23.83
739.247	24.68
739.428	24.99
739.609	24.13
739.79	24.25
739.971	23.75
740.151	23.62
740.332	22.4
740.513	21.33
740.694	20.4
740.874	19.91
741.055	18.95
741.236	17.95
741.417	16.21
741.597	16.93
741.778	17.95
741.958	17.72
742.139	17.95
742.32	19.04
742.5	21.29
742.681	23
742.861	22.31
743.042	22.99
743.222	23.43
743.403	23.52
743.583	23.99
743.764	22.61
743.944	22.84
744.124	22.5
744.305	21.71
744.485	20.93
744.666	20.82
744.846	21.17
745.026	21.21
745.207	21.89
745.387	22.98
745.567	21.54
745.747	21.54
745.928	21.15
746.108	21.04
746.288	20.81
746.468	21.64
746.648	21.04
746.829	21.6
747.009	21.44
747.189	21.28
747.369	20.01
747.549	20.57
747.729	19.73
747.909	20.7
748.089	20.75
748.269	21.01
748.449	20.33
748.629	20.14
748.809	19.89
748.989	18.4
749.169	16.95
749.349	18.28
749.529	19.47
749.709	19.67
749.889	17.85
750.068	17.06
750.248	17.32
750.428	17.28
750.608	16.88
750.788	17.82
750.967	18.1
751.147	19.78
751.327	19.01
751.507	18.63
751.686	20.84
751.866	21.25
752.046	21.56
752.225	21.8
752.405	22.57
752.585	23.27
752.764	22.35
752.944	24.21
753.123	24.39
753.303	24.26
753.482	24.33
753.662	22.04
753.841	21.99
754.021	22.54
754.2	23.09
754.38	23.81
754.559	24.03
754.739	23.83
754.918	22.39
755.097	21.78
755.277	22.85
755.456	22.98
755.635	25.82
755.815	26.75
755.994	25.82
756.173	24.81
756.352	23.52
756.532	22.54
756.711	22.86
756.89	24.29
757.069	24.46
757.248	23.14
757.427	22.29
757.607	22.15
757.786	22.6
757.965	23.11
758.144	23.29
758.323	23.15
758.502	23.44
758.681	23.89
758.86	22.82
759.039	22.17
759.218	22.16
759.397	23.46
759.576	21.09
759.755	20.93
759.934	20.82
760.113	20.69
760.291	21.23
760.47	21.97
760.649	22.01
760.828	22.6
761.007	23.15
761.186	24.23
761.364	23.51
761.543	24.57
761.722	25.2
761.901	26.28
762.079	26.92
762.258	24.9
762.437	24.45
762.615	24.15
762.794	23.44
762.972	23.28
763.151	22.45
763.33	22.38
763.508	21.88
763.687	21.84
763.865	21.19
764.044	21.05
764.222	22.51
764.401	22.87
764.579	21.95
764.758	22.34
764.936	22.62
765.114	23.97
765.293	23.81
765.471	24.17
765.65	23.54
765.828	23.59
766.006	24.03
766.184	22.45
766.363	21.93
766.541	21.74
766.719	23.08
766.898	22.73
767.076	21.65
767.254	20.9
767.432	20.27
767.61	20.64
767.788	20.8
767.967	18.72
768.145	20.87
768.323	20.91
768.501	22.16
768.679	20.88
768.857	20.78
769.035	19.31
769.213	19.89
769.391	20.76
769.569	20.15
769.747	20.58
769.925	22.15
770.103	22.25
770.281	22.45
770.459	22.85
770.636	22.39
770.814	21.62
770.992	23.59
771.17	24.37
771.348	23.28
771.525	24.69
771.703	22.8
771.881	24.38
772.059	25.05
772.236	23.73
772.414	22.47
772.592	22.19
772.769	21.95
772.947	22.28
773.125	22.62
773.302	22.97
773.48	21.92
773.657	21.68
773.835	20.39
774.013	17.95
774.19	17.89
774.368	19.85
774.545	20.08
774.723	22.27
774.9	21.46
775.077	21.55
775.255	22.94
775.432	23.2
775.61	24.9
775.787	24.51
775.964	26
776.142	29.19
776.319	29.63
776.496	28.54
776.674	27.96
776.851	27.96
777.028	28.04
777.205	27.79
777.382	27.41
777.56	28.8
777.737	29.59
777.914	27.21
778.091	25.36
778.268	22.08
778.445	23.35
778.622	22.92
778.8	24.27
778.977	25.14
779.154	24.46
779.331	22.64
779.508	21.26
779.685	17.74
779.862	21.28
780.038	20.75
780.215	22.06
780.392	23.04
780.569	23.04
780.746	22.06
780.923	19.9
781.1	18.53
781.277	19.61
781.453	19.68
781.63	23.27
781.807	21.7
781.984	21.51
782.16	20.59
782.337	16.35
782.514	17.05
782.691	16.8
782.867	17.3
783.044	18.58
783.221	19.47
783.397	20.72
783.574	17.68
783.75	18.59
783.927	20.75
784.103	25.21
784.28	28.28
784.456	28.2
784.633	27.49
784.809	29.34
784.986	28.33
785.162	27.02
785.339	21.69
785.515	23.4
785.692	20.25
785.868	20.5
786.044	18.67
786.221	18.67
786.397	19.47
786.573	21.34
786.749	19.68
786.926	21.94
787.102	24.17
787.278	25.97
787.454	24.24
787.631	26.77
787.807	26
787.983	24.99
788.159	23.82
788.335	20.81
788.511	17.4
788.687	19.92
788.863	18.91
789.039	17.96
789.216	22.29
789.392	20.4
789.568	20.2
789.744	18.66
789.919	18.8
790.095	21.82
790.271	23.47
790.447	24.04
790.623	22.87
790.799	23.15
790.975	24.04
791.151	18.74
791.327	21.79
791.502	20.57
791.678	20.91
791.854	21
792.03	18.97
792.205	19.4
792.381	20.92
792.557	20.09
792.733	16.35
792.908	13
793.084	15.53
793.259	13.09
793.435	15.12
793.611	14.34
793.786	15.04
793.962	15.88
794.137	14.38
794.313	14.97
794.488	12.62
794.664	18.04
794.839	18.39
795.015	18.83
795.19	22.04
795.366	23.5
795.541	23.08
795.716	21.09
795.892	19.79
796.067	19.26
796.242	15.16
796.418	15.72
796.593	13.18
796.768	16.88
796.944	15.6
797.119	15.5
797.294	12.39
797.469	12.75
797.644	16.48
797.82	17.24
797.995	16.66
798.17	20.07
798.345	20.62
798.52	22.82
798.695	20.81
798.87	20.81
799.045	18.32
799.22	21.11
799.395	22.86
799.57	19.28
799.745	17.11
799.92	18.94
800.095	19.38
800.27	18.44
800.445	13.33
800.62	13.22
800.795	15.45
800.97	17.08
801.145	16.71
801.319	16.36
801.494	17.99
801.669	17.8
801.844	19.16
802.018	15.33
802.193	16.33
802.368	19.75
802.543	18.97
802.717	17.49
802.892	19.46
803.067	18.98
803.241	18.53
803.416	19.51
803.59	23.2
803.765	22.42
803.94	24.81
804.114	24.75
804.289	22.17
804.463	22.9
804.638	23.06
804.812	24.19
804.986	19.95
805.161	23.68
805.335	25.93
805.51	25.4
805.684	22.93
805.858	25.44
806.033	23.95
806.207	25.46
806.381	26.39
806.556	25.51
806.73	24.15
806.904	25.71
807.078	22.11
807.253	18.81
807.427	17.51
807.601	20.89
807.775	21.12
807.949	22.55
808.123	21.15
808.298	16.22
808.472	19.74
808.646	20.98
808.82	23.43
808.994	26.23
809.168	26.87
809.342	26.83
809.516	27.05
809.69	27.75
809.864	24.24
810.038	25.24
810.212	27.37
810.385	23.62
810.559	22.52
810.733	19.84
810.907	14.31
811.081	10.46
811.255	13.12
811.428	14.35
811.602	10.44
811.776	15.97
811.95	16.37
812.123	18.41
812.297	23.93
812.471	19.38
812.644	20.17
812.818	24.32
812.992	24.31
813.165	23.53
813.339	19.26
813.512	20.76
813.686	21.56
813.86	21.14
814.033	22.15
814.207	22.72
814.38	24.88
814.554	29.35
814.727	29.24
814.9	33.18
815.074	36.81
815.247	42.33
815.421	42.58
815.594	39.58
815.767	43.84
815.941	44.06
816.114	33.94
816.287	36.47
816.46	34.14
816.634	27.96
816.807	25.55
816.98	21.09
817.153	16.25
817.327	14.12
817.5	16.58
817.673	10.82
817.846	11.23
818.019	14.44
818.192	17.94
818.365	12.18
818.538	14.73
818.711	12.7
818.884	15.2
819.057	17.95
819.23	21.23
819.403	19.11
819.576	22.46
819.749	21.81
819.922	25.09
820.095	22.65
820.268	25.85
820.441	25.75
820.614	29.61
820.786	27.77
820.959	26.6
821.132	23.72
821.305	24.95
821.477	22.75
821.65	23.39
821.823	22.7
821.996	22.14
822.168	21.65
822.341	22.12
822.514	21.7
822.686	21.7
822.859	21.65
823.031	22.14
823.204	21.32
823.376	22.1
823.549	22.44
823.722	22.93
823.894	23.75
824.067	23.71
824.239	23.28
824.411	23.42
824.584	23.85
824.756	24.09
824.929	24.43
825.101	24.89
825.273	24.66
825.446	23.39
825.618	21.82
825.79	19.87
825.963	20.24
826.135	22.1
826.307	21.72
826.479	20.19
826.652	18.85
826.824	17.27
826.996	17.07
827.168	17.59
827.34	17.58
827.512	19.68
827.684	19.93
827.856	20.66
828.029	19.23
828.201	19.75
828.373	21.1
828.545	22.24
828.717	24.71
828.889	25.34
829.061	26.97
829.232	26.87
829.404	24.84
829.576	26.49
829.748	25.49
829.92	26.15
830.092	24.44
830.264	25.67
830.436	23.47
830.607	22.47
830.779	19.33
830.951	12.96
831.123	12.75
831.294	13.15
831.466	8.98
831.638	6.73
831.809	6.37
831.981	9.67
832.153	4.2
832.324	8.01
832.496	8.88
832.667	12.19
832.839	14.07
833.011	16
833.182	15.08
833.354	13.09
833.525	16.31
833.697	15.84
833.868	13.33
834.039	17.16
834.211	18.69
834.382	19.53
834.554	18.87
834.725	19.54
834.896	19.83
835.068	20.81
835.239	22.02
835.41	22.26
835.581	23.08
835.753	24.79
835.924	23.68
836.095	22.83
836.266	24.03
836.438	24.47
836.609	22.5
836.78	23.41
836.951	20.88
837.122	26
837.293	26.52
837.464	25.06
837.635	23.66
837.806	23.79
837.977	24.54
838.148	21.92
838.319	25.14
838.49	28.26
838.661	27.29
838.832	36.45
839.003	36.8
839.174	33.62
839.345	33.96
839.516	32.87
839.687	30.47
839.857	27.69
840.028	27.81
840.199	24.46
840.37	24.88
840.54	23.86
840.711	19.23
840.882	10.53
841.053	9.35
841.223	6.98
841.394	10.68
841.564	8.36
841.735	10.54
841.906	15.16
842.076	15.08
842.247	15.82
842.417	14.76
842.588	13.74
842.758	22.2
842.929	26.61
843.099	30.64
843.27	32.42
843.44	41.86
843.611	32.11
843.781	28.56
843.951	32.49
844.122	26.37
844.292	31.5
844.462	28.52
844.633	2.11
844.803	3.77
844.973	6.88
845.144	5.89
845.314	9.32
845.484	11.03
845.654	-9.23
845.824	-12.94
845.995	-1.77
846.165	-9.49
846.335	-3
846.505	11.3
846.675	10.31
846.845	9.12
847.015	19.85
847.185	18.93
847.355	30.07
847.525	44.49
847.695	49.32
847.865	41.6
848.035	44.92
848.205	43.57
848.375	49.96
848.545	45.79
848.715	38.83
848.884	49.26
849.054	39.34
849.224	34.05
849.394	22.89
849.564	29.42
849.733	36.71
849.903	34.65
850.073	31.17
850.243	20.03
850.412	37.22
850.582	45.83
850.752	34.4
850.921	21.36
851.091	25.2
851.26	32.68
851.43	33.76
851.599	23.55
851.769	28.29
851.939	27.25
852.108	20.22
852.278	14.25
852.447	15.91
852.616	4.8
852.786	22.04
852.955	30.31
853.125	34.61
853.294	32.24
853.463	34.11
853.633	26.55
853.802	41.99
853.971	52.04
854.141	51.23
854.31	45.02
854.479	50.75
854.648	49.23
854.818	48.26
854.987	40.19
855.156	34.06
855.325	34.85
855.494	44.16
855.663	23.81
855.832	22.3
856.001	17.78
856.171	16.73
856.34	12.7
856.509	21.97
856.678	13.79
856.847	15.57
857.016	17.78
857.185	17.09
857.353	13.12
857.522	15.04
857.691	15.97
857.86	20.63
858.029	17.57
858.198	15.64
858.367	0.39
858.535	12.75
858.704	12.75
858.873	14.94
859.042	12.25
859.21	19.79
859.379	32.8
859.548	11.66
859.717	6.39
859.885	18.07
860.054	21.83
860.222	38.41
860.391	33.5
860.56	27.15
860.728	26.19
860.897	27.44
861.065	19.58
861.234	1.53
861.402	27.32
861.571	28.97
861.739	28.79
861.908	32.06
862.076	23.44
862.244	23.61
862.413	20.41
862.581	29.85
862.749	35.27
862.918	51.42
863.086	50.8
863.254	45.76
863.423	49.41
863.591	40.43
863.759	46.41
863.927	53.89
864.096	41.12
864.264	44.39
864.432	46.99
864.6	43.94
864.768	41.39
864.936	34.44
865.104	40.15
865.272	45.21
865.44	54.08
865.608	54.66
865.776	40.92
865.944	47.45
866.112	39.71
866.28	32.37
866.448	35.47
866.616	17.04
866.784	17.83
866.952	4.53
867.12	4.35
867.288	-5.54
867.455	-8.65
867.623	10.86
867.791	-3.94
867.959	17.07
868.127	1.75
868.294	-19.72
868.462	7.46
868.63	-1.74
868.797	-1.86
868.965	-7.82
869.133	-11.17
869.3	-20.45
869.468	-24.13
869.636	7.97
869.803	8.43
869.971	23.97
870.138	38.53
870.306	37.98
870.473	49.34
870.641	63.63
870.808	59.84
870.975	62.8
871.143	68.1
871.31	69.35
871.478	52.84
871.645	49.83
871.812	42.44
871.98	34.15
872.147	32.68
872.314	2.85
872.482	-3.4
872.649	-8.29
872.816	9.54
872.983	3.94
873.15	-11.56
873.318	6.97
873.485	18.27
873.652	18.87
873.819	31.99
873.986	35.04
874.153	40.28
874.32	37.68
874.487	39.21
874.654	52.03
874.821	51.28
874.988	64.93
875.155	45.74
875.322	42.35
875.489	48.26
875.656	42.81
875.823	35.8
875.99	46.26
876.157	51.51
876.324	56.98
876.49	40.96
876.657	43.11
876.824	33.55
876.991	48.93
877.157	53.47
877.324	35.26
877.491	32.44
877.658	37.69
877.824	34.24
877.991	26.75
878.157	25.48
878.324	23.94
878.491	20.9
878.657	21.51
878.824	25.7
878.99	18.73
879.157	41.09
879.323	44.4
879.49	40.1
879.656	45.62
879.823	53.29
879.989	44.5
880.156	39.74
880.322	34.74
880.488	40.76
880.655	34
880.821	40.39
880.987	32
881.154	36.03
881.32	40.62
881.486	36.22
881.652	32.16
881.819	31.74
881.985	28.91
882.151	26.72
882.317	23.01
882.483	27.42
882.649	26.31
882.816	28.15
882.982	24.51
883.148	23.2
883.314	23.01
883.48	23.47
883.646	21.42
883.812	24.76
883.978	25.82
884.144	25.06
884.31	23.21
884.476	22.26
884.642	21.4
884.807	25.02
884.973	22.25
885.139	25.15
885.305	24.98
885.471	27.8
885.637	27.52
885.802	25.91
885.968	26.24
886.134	28.61
886.3	27.83
886.465	32.72
886.631	28.71
886.797	31.07
886.962	29.79
887.128	31.2
887.293	27.94
887.459	22.62
887.625	23.88
887.79	32.14
887.956	21.78
888.121	21.96
888.287	6.59
888.452	12.61
888.618	17.65
888.783	-5.1
