Data from 2938090_Reflection_1.txt Node
Date: Sat Jul 11 19:19:49 EDT 2015
User: robert
Spectrometer: USB4E03001
Autoset integration time: false
Trigger mode: 4
Integration Time (sec): 1.000000E-1
Scans to average: 10
Electric dark correction enabled: true
Nonlinearity correction enabled: false
Boxcar width: 5
Stray light correction enabled: false
XAxis mode: Wavelengths
Stop averaging: false
Number of Pixels in Spectrum: 3648
>>>>>Begin Spectral Data<<<<<
177.566	37.58
177.785	1.23
178.005	38.21
178.225	66.33
178.445	44.44
178.665	-4.87
178.885	75.77
179.105	36.89
179.324	60.03
179.544	51.27
179.764	42.47
179.984	43.62
180.204	-1.7
180.423	8.46
180.643	3.18
180.863	-42.9
181.083	-150.39
181.302	-134
181.522	-582.07
181.742	-295.41
181.961	-167.91
182.181	-352.17
182.401	-61.39
182.621	-32.25
182.84	-16.63
183.06	-36.09
183.279	-8.74
183.499	0.79
183.719	-8.08
183.938	26.1
184.158	31.58
184.377	21.62
184.597	19.77
184.816	3.99
185.036	-9.05
185.256	11.35
185.475	32.48
185.695	33.97
185.914	34.62
186.134	32.36
186.353	27.23
186.572	32.1
186.792	20.06
187.011	42.42
187.231	45.19
187.45	27.78
187.67	4.82
187.889	-16.91
188.108	3.88
188.328	7.76
188.547	1.55
188.766	-47.16
188.986	-148.95
189.205	-23.43
189.424	-25.4
189.644	-18.42
189.863	15.9
190.082	21.83
190.302	55.68
190.521	69.05
190.74	121.28
190.959	106.19
191.178	156.96
191.398	114.3
191.617	92.74
191.836	91.9
192.055	99.44
192.274	106.63
192.494	117.25
192.713	104.04
192.932	88.32
193.151	77.03
193.37	106.99
193.589	79.16
193.808	93.68
194.027	81.27
194.246	3353.06
194.465	-213.7
194.685	68.66
194.904	163.94
195.123	165.24
195.342	109.92
195.561	104.58
195.78	76.02
195.999	-25.5
196.218	-27.71
196.436	75.28
196.655	-6.8
196.874	-6.76
197.093	7.7
197.312	-13.44
197.531	-46.77
197.75	1.76
197.969	-53.5
198.188	-108.32
198.407	-703.73
198.625	-426.49
198.844	-127.5
199.063	-61.98
199.282	8.36
199.501	62.73
199.719	69.15
199.938	64.41
200.157	25.27
200.376	42.67
200.594	34.03
200.813	46.93
201.032	29.75
201.251	33.38
201.469	26.5
201.688	7.41
201.907	13.03
202.125	3.09
202.344	-3.48
202.563	-5.32
202.781	-41.37
203	-41.02
203.218	-43.61
203.437	-68.61
203.656	-52.33
203.874	-45.2
204.093	-49.64
204.311	-51.18
204.53	-63.87
204.748	-101.9
204.967	-110.66
205.185	-60.23
205.404	-36.14
205.622	-28.97
205.841	15.59
206.059	2.03
206.278	5.46
206.496	15.95
206.715	8.94
206.933	13.78
207.151	34.7
207.37	50.17
207.588	49.78
207.806	57.37
208.025	68.9
208.243	64.5
208.461	60.66
208.68	59.28
208.898	56.19
209.116	75.16
209.335	64
209.553	46.99
209.771	41.73
209.989	47.16
210.208	-14.12
210.426	-269.87
210.644	-782.39
210.862	-60.59
211.081	-87.62
211.299	-55.71
211.517	-81.36
211.735	-172.4
211.953	-270.03
212.171	-253.29
212.39	-397.04
212.608	-248.18
212.826	-304.78
213.044	-319.31
213.262	-216.51
213.48	-351.09
213.698	4714.4
213.916	-768.32
214.134	-252.02
214.352	-191.28
214.57	-137.35
214.788	-39.4
215.006	-45.19
215.224	-19.74
215.442	-28.65
215.66	-14.08
215.878	0.65
216.096	25.32
216.314	18.33
216.532	-1.59
216.75	-14.6
216.968	-22.56
217.185	-16.29
217.403	-12.03
217.621	-23.84
217.839	12.07
218.057	-17.78
218.275	-27.83
218.492	-51.96
218.71	-56.52
218.928	-47.55
219.146	-43.73
219.363	-54.83
219.581	-75.34
219.799	-59.93
220.017	-84.82
220.234	-129.47
220.452	-157.49
220.67	-53.54
220.887	-29.19
221.105	-34.13
221.323	-12.97
221.54	-42.18
221.758	-8.49
221.976	-25.55
222.193	-334.97
222.411	-53.42
222.629	-29.06
222.846	20.13
223.064	-11.17
223.281	-5.11
223.499	-8.61
223.716	-16.69
223.934	0.44
224.151	6.83
224.369	24.43
224.586	29.87
224.804	41.24
225.021	36.96
225.239	34.18
225.456	27.22
225.674	27.58
225.891	33.93
226.108	38.3
226.326	46.45
226.543	44.12
226.76	32.62
226.978	23.7
227.195	25.29
227.413	19.32
227.63	16.18
227.847	13.73
228.064	15.66
228.282	11.77
228.499	11.91
228.716	12.02
228.934	15.07
229.151	16.31
229.368	16
229.585	11.1
229.802	12.41
230.02	10.68
230.237	16.55
230.454	15.9
230.671	15.92
230.888	13.35
231.105	11.5
231.323	9.34
231.54	5.92
231.757	6.53
231.974	15.22
232.191	18.52
232.408	17.06
232.625	4.02
232.842	0.49
233.059	-0.22
233.276	4.14
233.493	0.85
233.71	-5.44
233.927	-6.91
234.144	-5.69
234.361	-17.52
234.578	-25.2
234.795	-17.34
235.012	-11.35
235.229	-10.73
235.446	-5.38
235.663	-10.59
235.879	-6.88
236.096	-2.44
236.313	0.95
236.53	2.63
236.747	10.35
236.964	8.16
237.181	10.16
237.397	15.6
237.614	18.96
237.831	19.49
238.048	21.66
238.264	26.19
238.481	20.95
238.698	23.76
238.915	14.97
239.131	16.07
239.348	21.42
239.565	17.93
239.781	13.39
239.998	11.45
240.215	6.79
240.431	2.81
240.648	-2.15
240.865	1.48
241.081	2.9
241.298	8.15
241.514	5.82
241.731	4.54
241.947	4.91
242.164	7.6
242.38	6.85
242.597	8.49
242.814	9.67
243.03	9.68
243.246	11.39
243.463	10.54
243.679	11.2
243.896	10.97
244.112	8.87
244.329	7.61
244.545	8.02
244.762	8.43
244.978	7.23
245.194	7.11
245.411	8.99
245.627	8.61
245.843	6.12
246.06	6.27
246.276	7.51
246.492	8.3
246.709	9.16
246.925	8.77
247.141	9.38
247.357	9.78
247.574	10.2
247.79	9.42
248.006	8.48
248.222	9.19
248.439	8.53
248.655	8.6
248.871	8.84
249.087	9.42
249.303	8.53
249.519	7.41
249.736	5.14
249.952	5.03
250.168	4.62
250.384	5.42
250.6	4.06
250.816	5.86
251.032	4.97
251.248	4.93
251.464	6.26
251.68	5.99
251.896	6.06
252.112	7.21
252.328	7.12
252.544	7.78
252.76	6.42
252.976	8.61
253.192	6.2
253.408	5.84
253.624	5.71
253.84	3.45
254.056	5.18
254.272	6.75
254.487	8.37
254.703	10.03
254.919	10.13
255.135	8.88
255.351	8.58
255.567	6.78
255.782	8.03
255.998	6.21
256.214	2.21
256.43	-0.9
256.646	-5.67
256.861	-9.06
257.077	-14.05
257.293	-11.65
257.508	-7.18
257.724	-5.51
257.94	-3.38
258.155	-2.51
258.371	0.14
258.587	2.06
258.802	3.49
259.018	6.24
259.234	7.43
259.449	7.62
259.665	8.09
259.88	8.12
260.096	7.66
260.312	9.04
260.527	9.32
260.743	9.53
260.958	10.01
261.174	10
261.389	9.91
261.605	9.26
261.82	11.17
262.036	10.73
262.251	10.71
262.466	10.24
262.682	8.77
262.897	7.87
263.113	7.34
263.328	7.76
263.543	6.02
263.759	4.81
263.974	6.46
264.189	3.46
264.405	4.22
264.62	5.91
264.835	6.08
265.051	5.26
265.266	6.43
265.481	7.78
265.696	6.69
265.912	9.6
266.127	8.21
266.342	9.14
266.557	10.08
266.773	8.07
266.988	6.91
267.203	5.27
267.418	6.17
267.633	6.83
267.848	6.34
268.064	4.39
268.279	4.08
268.494	4.54
268.709	2.76
268.924	2.05
269.139	4.45
269.354	5.63
269.569	8.02
269.784	8.17
269.999	7.46
270.214	8.46
270.429	10.22
270.644	9.71
270.859	10.76
271.074	10.65
271.289	10.17
271.504	9.27
271.719	9.55
271.934	10.48
272.149	9.77
272.363	10.44
272.578	8.51
272.793	8.52
273.008	8.56
273.223	8.85
273.438	8.84
273.653	8.97
273.867	7.62
274.082	5.95
274.297	4.46
274.512	6.02
274.726	4.87
274.941	5.43
275.156	5.54
275.371	5.13
275.585	2.11
275.8	0.93
276.015	1.36
276.229	1.57
276.444	3.27
276.659	2.58
276.873	1.18
277.088	0.74
277.302	-0.05
277.517	1.51
277.732	2.39
277.946	3.29
278.161	4.9
278.375	4.98
278.59	6.21
278.804	4.25
279.019	6.13
279.233	8.76
279.448	7.4
279.662	9.49
279.877	9.41
280.091	8.48
280.306	8.81
280.52	9.61
280.735	8.95
280.949	10.36
281.163	11.01
281.378	10.33
281.592	7.96
281.806	9.39
282.021	7.7
282.235	6.75
282.449	7.77
282.664	7.34
282.878	7.46
283.092	8.16
283.307	7.65
283.521	8.86
283.735	8.94
283.949	8.45
284.164	8.43
284.378	9.27
284.592	9.48
284.806	7.85
285.02	8.13
285.234	7.58
285.449	7.66
285.663	7.53
285.877	6.95
286.091	6.54
286.305	6.42
286.519	7.5
286.733	7.61
286.947	7.4
287.161	7.22
287.375	7.94
287.589	7.93
287.803	7.01
288.017	6.52
288.231	5.56
288.445	5.8
288.659	7.57
288.873	5.29
289.087	3.53
289.301	4.1
289.515	5.6
289.729	5.89
289.943	7.04
290.157	8.7
290.371	8.65
290.584	10.15
290.798	10.47
291.012	9.1
291.226	10.63
291.44	12.03
291.654	11.52
291.867	9.7
292.081	9.87
292.295	7.67
292.509	6.74
292.722	7.73
292.936	7.63
293.15	5.31
293.364	4.22
293.577	3.26
293.791	2.76
294.005	3.04
294.218	5.58
294.432	5.81
294.645	8.39
294.859	10.53
295.073	9.56
295.286	8.99
295.5	9.65
295.713	10.15
295.927	11.45
296.14	12.22
296.354	12.82
296.568	12.66
296.781	10.71
296.994	9.33
297.208	7.14
297.421	6.81
297.635	6.63
297.848	8.21
298.062	8.17
298.275	7.6
298.489	7.69
298.702	6.87
298.915	6.57
299.129	7.68
299.342	8.16
299.555	7.97
299.769	8.46
299.982	8.63
300.195	9.33
300.409	9.12
300.622	7.95
300.835	7.69
301.048	6.94
301.262	7.79
301.475	7.42
301.688	8.52
301.901	7.92
302.115	6.83
302.328	5.6
302.541	5.22
302.754	6.12
302.967	6.68
303.18	6.93
303.393	7.51
303.607	6.1
303.82	6.1
304.033	4.84
304.246	6.06
304.459	7.53
304.672	8.72
304.885	6.46
305.098	5.9
305.311	7.02
305.524	6.57
305.737	6.7
305.95	5.72
306.163	5.69
306.376	7.45
306.589	7.09
306.802	6.94
307.015	7.02
307.228	7.98
307.44	8.47
307.653	7.63
307.866	7.7
308.079	7.4
308.292	8.57
308.505	9.93
308.718	8.94
308.93	9.02
309.143	6.69
309.356	7
309.569	6.11
309.781	6.99
309.994	6.46
310.207	7.4
310.42	7.49
310.632	8.79
310.845	9.27
311.058	9.5
311.27	9.91
311.483	12.69
311.696	11.58
311.908	11.95
312.121	11.93
312.333	12.39
312.546	11.95
312.759	13.92
312.971	13.46
313.184	13.95
313.396	14.22
313.609	15.23
313.821	14.28
314.034	14.66
314.246	15.78
314.459	16.77
314.671	16.42
314.884	14.57
315.096	13.71
315.309	13.45
315.521	10.64
315.733	8.37
315.946	8.59
316.158	9.72
316.371	10.12
316.583	8.86
316.795	7.39
317.008	8.61
317.22	10.79
317.432	9.18
317.644	9.87
317.857	9.83
318.069	10.15
318.281	10.92
318.494	9.03
318.706	9.58
318.918	8.78
319.13	9.11
319.342	8.27
319.555	7.57
319.767	8.33
319.979	8.08
320.191	10.27
320.403	10.45
320.615	5.24
320.827	6.02
321.039	5.82
321.252	8.06
321.464	8.08
321.676	9.53
321.888	9.41
322.1	10.01
322.312	9.97
322.524	8.59
322.736	8.82
322.948	8.7
323.16	9.74
323.372	8.22
323.584	6.29
323.796	4.52
324.007	4.01
324.219	3.25
324.431	1.81
324.643	1.89
324.855	2.15
325.067	2.24
325.279	5.29
325.491	3.7
325.702	5.27
325.914	6.46
326.126	7.7
326.338	6.74
326.55	7.52
326.761	8.51
326.973	8.06
327.185	8.25
327.396	8.18
327.608	7.58
327.82	7.99
328.032	7.43
328.243	6.73
328.455	6.07
328.666	6.44
328.878	5.99
329.09	4.38
329.301	4.87
329.513	4.6
329.725	5.66
329.936	5.45
330.148	6.6
330.359	6.88
330.571	7.58
330.782	7.89
330.994	7.64
331.205	7.61
331.417	8.08
331.628	7.81
331.84	8.73
332.051	7.78
332.262	6.36
332.474	6.01
332.685	6.13
332.897	7.5
333.108	8.21
333.319	8.53
333.531	8.42
333.742	8.71
333.953	7.88
334.165	8.48
334.376	8.37
334.587	8.35
334.799	8.6
335.01	7.3
335.221	5.31
335.432	4.27
335.644	3.37
335.855	3.42
336.066	3.61
336.277	3.54
336.488	3.64
336.7	3.67
336.911	4.44
337.122	5
337.333	5.86
337.544	6.83
337.755	7.61
337.966	7.86
338.177	7.42
338.388	5.59
338.599	5.25
338.811	3.48
339.022	4.47
339.233	3.87
339.444	1.72
339.655	2.33
339.866	2.2
340.076	1.79
340.287	2.24
340.498	2.71
340.709	4.34
340.92	5.4
341.131	6.77
341.342	5.78
341.553	7.27
341.764	8.72
341.975	9.18
342.185	8.64
342.396	7.71
342.607	8.64
342.818	10.07
343.029	11.55
343.239	11.29
343.45	11.52
343.661	12.48
343.872	11.69
344.082	11.41
344.293	10.83
344.504	10.61
344.714	11.68
344.925	11.36
345.136	9.86
345.346	8.8
345.557	9.32
345.768	8.3
345.978	8.12
346.189	9.25
346.399	8.52
346.61	7.99
346.821	8.96
347.031	9.63
347.242	9.97
347.452	10.71
347.663	11.39
347.873	10.1
348.084	10.62
348.294	10.14
348.504	7.36
348.715	7.47
348.925	7.91
349.136	7.7
349.346	6.72
349.557	6.03
349.767	4.88
349.977	4.48
350.188	4.08
350.398	5.64
350.608	3.88
350.819	4.48
351.029	5.42
351.239	5.86
351.449	4.43
351.66	5.37
351.87	5.27
352.08	6.48
352.29	5.66
352.501	7.18
352.711	6.65
352.921	7.58
353.131	8.29
353.341	6.31
353.552	6.38
353.762	6.18
353.972	5.65
354.182	4.53
354.392	4.1
354.602	4.37
354.812	4.96
355.022	3.72
355.232	4.8
355.442	5.4
355.652	5.91
355.862	5.49
356.072	5.78
356.282	6.11
356.492	7.42
356.702	7.51
356.912	7.87
357.122	7.38
357.332	7.23
357.542	6.86
357.752	7.29
357.962	7.67
358.171	7.59
358.381	8.25
358.591	7.28
358.801	7.93
359.011	6.92
359.221	6.38
359.43	5.89
359.64	6.51
359.85	7
360.06	6.36
360.269	6.76
360.479	6.9
360.689	6.4
360.899	6.73
361.108	5.04
361.318	5.96
361.528	6.09
361.737	6.18
361.947	5.81
362.156	5.26
362.366	4.73
362.576	3.87
362.785	4.13
362.995	4.46
363.204	3.59
363.414	4.36
363.623	4.06
363.833	4.29
364.042	3.91
364.252	3.81
364.461	3.85
364.671	4.6
364.88	5.51
365.09	4.32
365.299	4.36
365.509	5.47
365.718	5.79
365.927	5.74
366.137	5.91
366.346	6.25
366.555	6.05
366.765	5.98
366.974	5.56
367.183	4.59
367.393	5.11
367.602	4.45
367.811	3.93
368.021	3.59
368.23	2.99
368.439	2.15
368.648	2.18
368.857	2.59
369.067	2.56
369.276	2.25
369.485	2.74
369.694	2.56
369.903	3.5
370.112	3.66
370.321	3.16
370.531	4.72
370.74	5.02
370.949	5.06
371.158	5.39
371.367	5.42
371.576	6.74
371.785	7.24
371.994	6.81
372.203	7.1
372.412	7.27
372.621	6.97
372.83	5.6
373.039	6.65
373.248	6.67
373.457	6.26
373.666	6.09
373.874	5.04
374.083	4.14
374.292	4.25
374.501	3.06
374.71	2.02
374.919	2.71
375.128	3.28
375.336	1.57
375.545	2.19
375.754	2.78
375.963	3.26
376.171	3.8
376.38	4.12
376.589	4.08
376.798	4.06
377.006	4.68
377.215	4.8
377.424	4.26
377.632	5.4
377.841	4.91
378.05	4.27
378.258	4.59
378.467	3.76
378.675	3.21
378.884	3.27
379.093	3.57
379.301	3.88
379.51	3.51
379.718	3.75
379.927	2.63
380.135	2.72
380.344	2.47
380.552	1.26
380.761	1.36
380.969	1.57
381.177	1.76
381.386	1.56
381.594	1.5
381.803	1.61
382.011	1.75
382.219	2.07
382.428	2.36
382.636	2.74
382.845	2.86
383.053	3.29
383.261	3.38
383.469	3.2
383.678	3.24
383.886	3.13
384.094	3.2
384.302	3.77
384.511	4.32
384.719	4.03
384.927	3.52
385.135	3.76
385.343	3.24
385.552	3.61
385.76	3.7
385.968	3.99
386.176	3.67
386.384	3.56
386.592	3.03
386.8	2.07
387.008	2.04
387.216	2.09
387.424	1.84
387.633	2.07
387.841	1.54
388.049	1.97
388.257	2.08
388.465	2.26
388.672	2.49
388.88	2.44
389.088	2.86
389.296	2.25
389.504	2.37
389.712	2.97
389.92	2.98
390.128	3.32
390.336	3.43
390.544	3.28
390.751	3.23
390.959	3.07
391.167	2.8
391.375	2.72
391.583	3.56
391.79	3.98
391.998	3.71
392.206	3.87
392.414	3.77
392.621	3.27
392.829	3.04
393.037	3.06
393.244	2.84
393.452	3.35
393.66	3.61
393.867	3.22
394.075	2.86
394.283	2.44
394.49	2.39
394.698	2.26
394.905	2.32
395.113	2.39
395.32	2
395.528	2.22
395.735	2.23
395.943	2.16
396.15	1.97
396.358	1.87
396.565	2.02
396.773	2.1
396.98	2.46
397.188	2.46
397.395	2.2
397.602	2.78
397.81	2.62
398.017	2.11
398.225	1.88
398.432	1.6
398.639	1.79
398.847	1.84
399.054	1.55
399.261	1.4
399.468	1.51
399.676	1.75
399.883	1.41
400.09	1.32
400.297	1.3
400.505	1.46
400.712	1.85
400.919	1.59
401.126	2.19
401.333	2.12
401.54	1.95
401.748	1.96
401.955	1.98
402.162	1.82
402.369	1.92
402.576	2.3
402.783	2.44
402.99	2.25
403.197	2.05
403.404	1.45
403.611	1.81
403.818	1.82
404.025	1.76
404.232	1.62
404.439	1.63
404.646	1.62
404.853	1.52
405.06	1.65
405.267	1.7
405.474	2.19
405.681	2.11
405.887	1.72
406.094	1.79
406.301	1.76
406.508	1.98
406.715	1.8
406.922	1.7
407.128	1.57
407.335	1.42
407.542	1.86
407.749	1.49
407.955	1.59
408.162	1.73
408.369	1.41
408.575	1.53
408.782	1.62
408.989	2
409.195	1.99
409.402	2.18
409.609	2.14
409.815	1.95
410.022	1.99
410.228	2.42
410.435	2.43
410.642	2.78
410.848	2.83
411.055	2.74
411.261	2.97
411.468	3.14
411.674	3.18
411.881	3.17
412.087	2.79
412.294	2.75
412.5	2.59
412.706	2.67
412.913	2.89
413.119	2.49
413.326	2.35
413.532	2.26
413.738	1.7
413.945	1.6
414.151	1.58
414.357	1.79
414.564	2.02
414.77	1.98
414.976	2
415.182	1.5
415.389	1.71
415.595	2.03
415.801	2.01
416.007	2.17
416.214	2.15
416.42	2.13
416.626	2.08
416.832	1.91
417.038	1.82
417.244	1.78
417.45	1.96
417.657	1.8
417.863	1.46
418.069	1.59
418.275	1.89
418.481	1.92
418.687	1.75
418.893	1.64
419.099	1.72
419.305	1.6
419.511	1.58
419.717	1.66
419.923	1.67
420.129	1.7
420.335	1.51
420.541	1.49
420.746	1.44
420.952	1.46
421.158	1.52
421.364	1.46
421.57	1.61
421.776	1.56
421.982	1.53
422.187	1.5
422.393	1.57
422.599	1.53
422.805	1.42
423.01	1.42
423.216	1.57
423.422	1.63
423.628	1.67
423.833	1.74
424.039	1.77
424.245	1.76
424.45	1.88
424.656	1.81
424.862	1.96
425.067	2.14
425.273	2.22
425.478	2.19
425.684	2.07
425.889	2.06
426.095	1.99
426.301	2.05
426.506	2.06
426.712	2.03
426.917	2.01
427.123	1.87
427.328	1.81
427.533	1.67
427.739	1.48
427.944	1.52
428.15	1.61
428.355	1.26
428.561	1.22
428.766	1.04
428.971	1.06
429.177	1.28
429.382	1.19
429.587	0.79
429.793	0.81
429.998	0.82
430.203	0.83
430.408	0.73
430.614	0.9
430.819	0.79
431.024	0.84
431.229	0.88
431.434	0.72
431.64	0.68
431.845	0.98
432.05	1.15
432.255	1.1
432.46	1.33
432.665	1.46
432.87	1.57
433.076	1.67
433.281	1.66
433.486	1.52
433.691	1.43
433.896	1.57
434.101	1.57
434.306	1.41
434.511	1.52
434.716	1.55
434.921	1.41
435.126	1.35
435.331	1.19
435.535	1.16
435.74	1.31
435.945	1.38
436.15	1.4
436.355	1.56
436.56	1.52
436.765	1.3
436.97	1.17
437.174	1.12
437.379	1.01
437.584	1.19
437.789	1.52
437.993	1.39
438.198	1.47
438.403	1.38
438.608	1.17
438.812	1.13
439.017	1.08
439.222	1.19
439.426	1.21
439.631	1.34
439.836	1.55
440.04	1.41
440.245	1.41
440.45	1.46
440.654	1.53
440.859	1.59
441.063	1.77
441.268	1.95
441.472	1.74
441.677	1.86
441.881	2
442.086	1.71
442.29	1.74
442.495	1.88
442.699	1.86
442.904	1.62
443.108	1.52
443.312	1.35
443.517	1.35
443.721	1.41
443.925	1.3
444.13	1.04
444.334	1.26
444.538	1.2
444.743	1.07
444.947	1.02
445.151	1.16
445.356	1.28
445.56	1.32
445.764	1.34
445.968	1.46
446.173	1.62
446.377	1.67
446.581	1.53
446.785	1.44
446.989	1.49
447.193	1.44
447.398	1.58
447.602	1.5
447.806	1.37
448.01	1.53
448.214	1.43
448.418	1.2
448.622	1.16
448.826	1.15
449.03	1.26
449.234	1.21
449.438	1.23
449.642	1.11
449.846	1.19
450.05	1.31
450.254	1.2
450.458	1.07
450.662	1.17
450.866	1.06
451.069	1.02
451.273	0.97
451.477	1.04
451.681	1.21
451.885	1.13
452.089	1.1
452.292	1.26
452.496	1.17
452.7	1.38
452.904	1.33
453.107	1.63
453.311	1.76
453.515	1.57
453.719	1.6
453.922	1.56
454.126	1.5
454.33	1.37
454.533	1.22
454.737	1.23
454.94	1.23
455.144	1.29
455.348	1.03
455.551	1.2
455.755	1.39
455.958	1.17
456.162	1.46
456.365	1.4
456.569	1.52
456.772	1.53
456.976	1.4
457.179	1.32
457.383	1.17
457.586	1.32
457.79	1.19
457.993	1.36
458.196	1.44
458.4	1.22
458.603	1.35
458.807	1.23
459.01	1.17
459.213	1.28
459.417	1.33
459.62	1.3
459.823	1.24
460.026	1.09
460.23	0.95
460.433	0.98
460.636	0.86
460.839	0.89
461.042	1.08
461.246	1.2
461.449	1.14
461.652	1.01
461.855	1.33
462.058	1.45
462.261	1.58
462.464	1.72
462.668	1.82
462.871	1.93
463.074	1.84
463.277	1.62
463.48	1.63
463.683	1.63
463.886	1.8
464.089	1.59
464.292	1.27
464.495	1.24
464.698	1.19
464.901	1.13
465.104	1.23
465.306	1.35
465.509	1.43
465.712	1.4
465.915	1.49
466.118	1.36
466.321	1.29
466.524	1.53
466.726	1.65
466.929	1.59
467.132	1.48
467.335	1.52
467.538	1.21
467.74	1.31
467.943	1.28
468.146	1.25
468.348	1.28
468.551	1.43
468.754	1.22
468.956	0.97
469.159	1.27
469.362	1.25
469.564	0.96
469.767	1.14
469.969	1.38
470.172	1.47
470.375	1.39
470.577	1.2
470.78	1.16
470.982	1.56
471.185	1.73
471.387	1.3
471.59	1.4
471.792	1.69
471.995	1.82
472.197	1.51
472.399	1.47
472.602	1.46
472.804	1.65
473.007	1.4
473.209	1.24
473.411	1.12
473.614	1.27
473.816	1.31
474.018	1.18
474.22	1.09
474.423	1.09
474.625	1.13
474.827	1.12
475.03	1.16
475.232	1.33
475.434	1.03
475.636	1.37
475.838	1.37
476.04	1.37
476.243	1.42
476.445	1.64
476.647	1.56
476.849	1.47
477.051	1.43
477.253	1.46
477.455	1.38
477.657	1.59
477.859	1.39
478.061	1.36
478.263	1.22
478.465	1.2
478.667	1.09
478.869	1.3
479.071	1.37
479.273	1.37
479.475	1.35
479.677	1.34
479.879	1.43
480.081	1.53
480.283	1.66
480.485	1.76
480.686	1.67
480.888	1.68
481.09	1.5
481.292	1.43
481.494	1.61
481.695	1.66
481.897	1.64
482.099	1.56
482.301	1.46
482.502	1.36
482.704	1.35
482.906	1.39
483.107	1.39
483.309	1.37
483.511	1.35
483.712	1.35
483.914	1.33
484.115	1.36
484.317	1.39
484.519	1.35
484.72	1.37
484.922	1.34
485.123	1.29
485.325	1.28
485.526	1.34
485.728	1.36
485.929	1.31
486.131	1.28
486.332	1.36
486.534	1.27
486.735	1.35
486.936	1.33
487.138	1.38
487.339	1.45
487.541	1.44
487.742	1.34
487.943	1.32
488.144	1.31
488.346	1.28
488.547	1.15
488.748	1.24
488.95	1.25
489.151	1.19
489.352	1.13
489.553	1.03
489.755	1.02
489.956	0.96
490.157	1
490.358	1.03
490.559	1.12
490.76	1.16
490.961	1.08
491.163	1.09
491.364	1.2
491.565	1.24
491.766	1.27
491.967	1.31
492.168	1.46
492.369	1.42
492.57	1.36
492.771	1.33
492.972	1.33
493.173	1.35
493.374	1.4
493.575	1.41
493.776	1.51
493.976	1.51
494.177	1.43
494.378	1.36
494.579	1.45
494.78	1.58
494.981	1.64
495.182	1.59
495.382	1.55
495.583	1.38
495.784	1.27
495.985	1.24
496.185	1.33
496.386	1.24
496.587	1.31
496.788	1.36
496.988	1.29
497.189	1.27
497.39	1.44
497.59	1.57
497.791	1.61
497.992	1.68
498.192	1.68
498.393	1.63
498.593	1.72
498.794	1.67
498.994	1.6
499.195	1.62
499.395	1.62
499.596	1.53
499.796	1.33
499.997	1.35
500.197	1.31
500.398	1.34
500.598	1.32
500.799	1.28
500.999	1.5
501.199	1.57
501.4	1.52
501.6	1.44
501.801	1.5
502.001	1.48
502.201	1.37
502.402	1.61
502.602	1.7
502.802	1.63
503.002	1.61
503.203	1.27
503.403	1.24
503.603	1.2
503.803	1.33
504.003	1.22
504.204	1.18
504.404	1.36
504.604	1.05
504.804	0.79
505.004	0.79
505.204	0.92
505.404	1.16
505.604	1.14
505.804	1.23
506.005	1.24
506.205	1.32
506.405	1.46
506.605	1.19
506.805	1.32
507.005	1.38
507.204	1.51
507.404	1.45
507.604	1.29
507.804	1.3
508.004	1.19
508.204	1.11
508.404	1.07
508.604	1.12
508.804	1.23
509.003	1.16
509.203	1.23
509.403	1.3
509.603	1.34
509.803	1.44
510.002	1.48
510.202	1.83
510.402	1.99
510.602	1.99
510.801	2.05
511.001	2.17
511.201	2.22
511.4	2.21
511.6	2.29
511.8	2.05
511.999	2.03
512.199	1.96
512.398	1.76
512.598	1.64
512.797	1.84
512.997	1.84
513.197	1.84
513.396	1.84
513.596	1.82
513.795	1.57
513.994	1.75
514.194	1.65
514.393	1.61
514.593	1.65
514.792	1.51
514.992	1.27
515.191	1.18
515.39	1.28
515.59	1.29
515.789	1.45
515.988	1.55
516.188	1.48
516.387	1.61
516.586	1.71
516.786	1.75
516.985	1.84
517.184	1.69
517.383	1.79
517.582	1.64
517.782	1.77
517.981	1.76
518.18	1.87
518.379	1.89
518.578	1.75
518.777	1.84
518.976	1.84
519.176	1.96
519.375	2.2
519.574	2.09
519.773	2.16
519.972	2.01
520.171	1.85
520.37	1.77
520.569	1.78
520.768	1.88
520.967	1.76
521.166	1.63
521.365	1.49
521.564	1.28
521.762	1.34
521.961	1.23
522.16	1.26
522.359	1.44
522.558	1.35
522.757	1.55
522.956	1.53
523.154	1.68
523.353	1.84
523.552	1.78
523.751	1.99
523.949	2.02
524.148	2.08
524.347	2.11
524.546	2.13
524.744	2.29
524.943	2.22
525.142	2.26
525.34	2.22
525.539	2.27
525.737	2.3
525.936	2.24
526.135	2.3
526.333	2.41
526.532	2.46
526.73	2.34
526.929	2.25
527.127	2.3
527.326	2.26
527.524	2.25
527.723	2.22
527.921	2.25
528.12	2.22
528.318	2.18
528.516	2.14
528.715	2.1
528.913	2.17
529.112	2.1
529.31	2.08
529.508	2.12
529.707	2.11
529.905	2.07
530.103	2.04
530.301	2.09
530.5	2.08
530.698	2
530.896	2.02
531.094	2
531.293	2.18
531.491	2.24
531.689	2.18
531.887	2.21
532.085	2.24
532.283	2.35
532.481	2.38
532.68	2.38
532.878	2.42
533.076	2.43
533.274	2.44
533.472	2.48
533.67	2.43
533.868	2.53
534.066	2.46
534.264	2.44
534.462	2.42
534.66	2.44
534.858	2.5
535.056	2.51
535.253	2.53
535.451	2.52
535.649	2.41
535.847	2.35
536.045	2.39
536.243	2.44
536.441	2.38
536.638	2.43
536.836	2.38
537.034	2.37
537.232	2.34
537.43	2.4
537.627	2.46
537.825	2.48
538.023	2.6
538.22	2.55
538.418	2.64
538.616	2.76
538.813	2.6
539.011	2.62
539.209	2.68
539.406	2.75
539.604	2.72
539.801	2.67
539.999	2.67
540.196	2.62
540.394	2.67
540.591	2.68
540.789	2.76
540.986	2.91
541.184	2.93
541.381	2.93
541.579	2.96
541.776	2.94
541.974	3.02
542.171	3.14
542.368	3.12
542.566	3.08
542.763	3.06
542.96	3.08
543.158	3.06
543.355	3.09
543.552	3.09
543.75	3.13
543.947	3.12
544.144	3.03
544.341	2.97
544.539	3.08
544.736	3.04
544.933	3.17
545.13	3.13
545.327	3.08
545.524	3.05
545.722	3.2
545.919	3.13
546.116	3.34
546.313	3.38
546.51	3.38
546.707	3.38
546.904	3.46
547.101	3.55
547.298	3.56
547.495	3.65
547.692	3.84
547.889	3.71
548.086	3.76
548.283	3.64
548.48	3.88
548.677	3.97
548.874	4.13
549.07	4.22
549.267	4.26
549.464	4.29
549.661	4.38
549.858	4.2
550.055	4.24
550.251	4.25
550.448	4.44
550.645	4.24
550.842	4.24
551.038	4.16
551.235	4.35
551.432	4.26
551.628	4.43
551.825	4.46
552.022	4.6
552.218	4.66
552.415	4.81
552.612	4.8
552.808	4.9
553.005	4.96
553.201	5.19
553.398	5.11
553.594	5.05
553.791	5.06
553.987	4.94
554.184	4.78
554.38	5.14
554.577	5.31
554.773	5.39
554.97	5.23
555.166	5.17
555.362	5.06
555.559	4.93
555.755	5.12
555.952	5.19
556.148	5.42
556.344	5.48
556.541	5.09
556.737	5
556.933	4.92
557.129	5.19
557.326	5.41
557.522	5.63
557.718	5.91
557.914	5.97
558.11	5.9
558.307	5.85
558.503	6.11
558.699	6.36
558.895	6.61
559.091	6.73
559.287	6.67
559.483	6.72
559.679	6.66
559.876	6.62
560.072	6.48
560.268	6.71
560.464	6.73
560.66	6.7
560.856	6.59
561.052	6.52
561.247	6.28
561.443	6.33
561.639	6.17
561.835	5.97
562.031	6.18
562.227	6.31
562.423	6.11
562.619	6.26
562.815	6.27
563.01	6.32
563.206	6.23
563.402	6.35
563.598	6.61
563.793	6.6
563.989	6.92
564.185	6.81
564.381	6.85
564.576	7.11
564.772	7.06
564.968	7.2
565.163	7.39
565.359	7.5
565.555	7.76
565.75	7.74
565.946	7.88
566.141	7.85
566.337	7.91
566.532	7.99
566.728	7.77
566.923	7.8
567.119	7.94
567.314	7.85
567.51	7.84
567.705	7.77
567.901	7.75
568.096	7.71
568.292	7.71
568.487	7.45
568.682	7.57
568.878	7.82
569.073	7.78
569.268	7.66
569.464	7.89
569.659	8.05
569.854	8.18
570.05	8.24
570.245	8.33
570.44	8.45
570.635	8.74
570.831	8.57
571.026	8.49
571.221	8.75
571.416	8.83
571.611	8.74
571.806	8.6
572.002	8.3
572.197	8.33
572.392	8.45
572.587	8.45
572.782	8.57
572.977	8.75
573.172	9.01
573.367	8.95
573.562	8.89
573.757	9.01
573.952	9.02
574.147	9.26
574.342	9.17
574.537	9.16
574.732	9.07
574.927	9
575.121	9.02
575.316	9
575.511	9.03
575.706	9.17
575.901	9.15
576.096	9.28
576.29	9.18
576.485	9.25
576.68	9.31
576.875	9.4
577.069	9.49
577.264	9.45
577.459	9.17
577.654	9.22
577.848	9.15
578.043	9.13
578.238	9.23
578.432	9.46
578.627	9.55
578.821	9.46
579.016	9.45
579.21	9.35
579.405	9.42
579.6	9.68
579.794	9.85
579.989	9.68
580.183	9.65
580.378	9.54
580.572	9.44
580.766	9.22
580.961	9.2
581.155	9.35
581.35	9.32
581.544	9.47
581.738	9.43
581.933	9.21
582.127	9.58
582.321	9.53
582.516	9.68
582.71	9.66
582.904	9.92
583.099	10.12
583.293	10.23
583.487	10.49
583.681	10.15
583.875	10.17
584.07	10.24
584.264	10.25
584.458	10.38
584.652	10.39
584.846	10.33
585.04	10.25
585.234	10.33
585.428	10.19
585.623	10
585.817	10.18
586.011	10.09
586.205	9.85
586.399	9.67
586.593	9.53
586.787	9.34
586.981	9.56
587.174	9.66
587.368	9.5
587.562	9.23
587.756	9.42
587.95	9.47
588.144	9.6
588.338	9.86
588.532	9.89
588.725	10.12
588.919	10.19
589.113	10.07
589.307	10
589.501	10.07
589.694	10.07
589.888	9.95
590.082	9.92
590.275	9.89
590.469	9.81
590.663	9.86
590.856	9.76
591.05	9.88
591.244	10.06
591.437	10.12
591.631	10.15
591.824	10.34
592.018	10.44
592.212	10.4
592.405	10.5
592.599	10.42
592.792	10.31
592.986	10.5
593.179	10.5
593.372	10.36
593.566	10.59
593.759	10.22
593.953	10.31
594.146	10.2
594.339	10.53
594.533	10.41
594.726	10.7
594.92	10.75
595.113	10.48
595.306	10.52
595.499	10.65
595.693	10.48
595.886	10.79
596.079	10.76
596.272	10.77
596.466	10.65
596.659	10.58
596.852	10.54
597.045	10.63
597.238	10.71
597.431	10.93
597.624	10.86
597.818	10.66
598.011	10.64
598.204	10.52
598.397	10.64
598.59	10.58
598.783	10.59
598.976	10.63
599.169	10.37
599.362	10.61
599.555	10.35
599.748	10.26
599.941	10.57
600.134	10.77
600.326	10.95
600.519	10.98
600.712	10.84
600.905	11.05
601.098	10.88
601.291	11.22
601.483	10.97
601.676	11.01
601.869	10.99
602.062	11.12
602.255	10.96
602.447	11.08
602.64	10.85
602.833	10.93
603.025	11.07
603.218	11.33
603.411	11.1
603.603	11.13
603.796	10.98
603.989	11.13
604.181	11.25
604.374	11.31
604.566	11.37
604.759	11.55
604.951	11.54
605.144	11.36
605.336	11.35
605.529	11.36
605.721	11.39
605.914	11.5
606.106	11.6
606.299	11.42
606.491	11.31
606.683	11.31
606.876	11.18
607.068	11.3
607.26	11.57
607.453	11.33
607.645	11.5
607.837	11.66
608.03	11.54
608.222	11.43
608.414	11.13
608.606	10.99
608.799	10.77
608.991	10.89
609.183	10.75
609.375	10.51
609.567	10.44
609.759	10.4
609.952	10.27
610.144	10.32
610.336	10.31
610.528	10.29
610.72	10.47
610.912	10.4
611.104	10.19
611.296	10.15
611.488	10.14
611.68	10.2
611.872	10.45
612.064	10.54
612.256	10.58
612.448	10.7
612.64	10.93
612.832	10.88
613.023	11.08
613.215	11.07
613.407	11.11
613.599	11.26
613.791	11.21
613.983	10.88
614.174	10.69
614.366	10.36
614.558	10.15
614.75	10.03
614.941	10.27
615.133	10.53
615.325	10.97
615.516	11.25
615.708	11.05
615.9	10.96
616.091	10.87
616.283	10.88
616.475	11.14
616.666	11.14
616.858	11.5
617.049	11.3
617.241	10.75
617.432	10.5
617.624	10.53
617.815	10.77
618.007	11.13
618.198	11.06
618.39	11.02
618.581	11.06
618.773	11.16
618.964	11
619.155	11.17
619.347	11.3
619.538	11.38
619.729	11.1
619.921	10.84
620.112	10.81
620.303	11.06
620.494	11.13
620.686	10.95
620.877	11.08
621.068	11
621.259	10.8
621.451	10.89
621.642	10.7
621.833	10.66
622.024	10.71
622.215	10.58
622.406	10.47
622.597	10.57
622.788	11.14
622.98	11.04
623.171	11.06
623.362	11.25
623.553	11.28
623.744	11.45
623.935	11.56
624.126	11.82
624.317	11.8
624.508	11.89
624.698	12.05
624.889	11.99
625.08	11.83
625.271	11.8
625.462	11.41
625.653	11.32
625.844	11.46
626.034	11.73
626.225	11.43
626.416	11.58
626.607	11.46
626.798	11.24
626.988	10.85
627.179	10.96
627.37	11.18
627.56	11.39
627.751	11.12
627.942	11.17
628.132	10.97
628.323	11.03
628.514	10.8
628.704	10.95
628.895	11.01
629.085	11.14
629.276	10.97
629.466	10.87
629.657	11.03
629.847	11.52
630.038	11.38
630.228	11.15
630.419	11.39
630.609	11.5
630.8	11.22
630.99	11.19
631.181	11.22
631.371	11.48
631.561	11.34
631.752	11.25
631.942	11.24
632.132	11.23
632.323	11.4
632.513	11.3
632.703	11.34
632.893	11.5
633.084	11.62
633.274	11.79
633.464	11.55
633.654	11.71
633.844	11.5
634.034	11.46
634.225	11.45
634.415	11.23
634.605	11.05
634.795	11.18
634.985	11.18
635.175	11.13
635.365	11.22
635.555	11.17
635.745	11
635.935	11.01
636.125	10.87
636.315	10.71
636.505	11.25
636.695	11.33
636.885	10.77
637.075	10.77
637.265	10.79
637.455	10.61
637.644	10.8
637.834	10.87
638.024	10.77
638.214	11.08
638.404	11.3
638.593	11.23
638.783	11.27
638.973	11.83
639.163	12.25
639.352	12.22
639.542	12.08
639.732	11.97
639.921	11.72
640.111	11.75
640.301	11.41
640.49	11.4
640.68	10.92
640.87	11.23
641.059	11.23
641.249	11.01
641.438	11.05
641.628	11.18
641.817	11.24
642.007	11.63
642.196	11.81
642.386	11.73
642.575	11.37
642.764	11.71
642.954	11.49
643.143	11.17
643.333	11.09
643.522	11.06
643.711	10.84
643.901	11.01
644.09	10.93
644.279	11.33
644.469	11.64
644.658	11.65
644.847	11.76
645.036	11.35
645.226	11.76
645.415	11.52
645.604	11.04
645.793	11
645.982	11.08
646.171	10.76
646.361	10.66
646.55	10.59
646.739	10.92
646.928	10.63
647.117	11
647.306	10.89
647.495	11.12
647.684	11.44
647.873	11.31
648.062	10.88
648.251	11.08
648.44	10.9
648.629	11.16
648.818	10.75
649.007	10.83
649.196	10.98
649.384	10.93
649.573	11.19
649.762	10.99
649.951	11.59
650.14	12.02
650.328	12.13
650.517	11.72
650.706	11.38
650.895	11.77
651.083	11.81
651.272	11.87
651.461	12.2
651.65	11.54
651.838	11.72
652.027	11.42
652.216	11.78
652.404	11.64
652.593	11.89
652.781	12
652.97	11.95
653.158	11.86
653.347	11.47
653.535	11.57
653.724	11.74
653.912	11.72
654.101	12
654.289	11.63
654.478	11.59
654.666	11.86
654.855	11.22
655.043	11.15
655.231	11.08
655.42	11.35
655.608	10.67
655.796	11.01
655.985	11.32
656.173	10.9
656.361	10.9
656.55	11.15
656.738	11.17
656.926	11.53
657.114	11.71
657.302	11.89
657.491	11.66
657.679	11.69
657.867	11.58
658.055	11.26
658.243	11.44
658.431	11.31
658.619	11.07
658.807	11.24
658.996	11.36
659.184	11.54
659.372	11.65
659.56	11.76
659.748	11.81
659.936	11.62
660.124	11.79
660.311	11.6
660.499	11.9
660.687	11.94
660.875	11.4
661.063	11.92
661.251	11.53
661.439	11.77
661.627	11.87
661.814	11.79
662.002	12.04
662.19	11.98
662.378	12.25
662.565	11.78
662.753	11.81
662.941	12.04
663.129	11.56
663.316	11.39
663.504	11.1
663.692	10.68
663.879	10.79
664.067	11.31
664.254	11.15
664.442	11.16
664.63	11.18
664.817	11.49
665.005	11.75
665.192	11.83
665.38	12.25
665.567	11.71
665.755	12.48
665.942	12.6
666.13	11.8
666.317	12.13
666.504	12.25
666.692	12.11
666.879	11.85
667.067	11.86
667.254	11.5
667.441	11.88
667.629	11.9
667.816	11.62
668.003	11.76
668.19	12.1
668.378	12.04
668.565	11.85
668.752	12.27
668.939	12.76
669.127	12.87
669.314	12.87
669.501	12.33
669.688	12.78
669.875	12.9
670.062	12.74
670.249	12.8
670.436	12.58
670.623	12.84
670.81	12.75
670.997	12.39
671.184	12.24
671.371	12.61
671.558	12.41
671.745	12.03
671.932	11.86
672.119	11.78
672.306	11.91
672.493	12.07
672.68	12.05
672.867	11.82
673.054	12.13
673.24	12.41
673.427	12.14
673.614	12.64
673.801	12.87
673.988	12.89
674.174	13.01
674.361	12.56
674.548	12.52
674.734	12.75
674.921	12.95
675.108	12.03
675.294	10.99
675.481	10.93
675.668	11.26
675.854	11.34
676.041	11.03
676.227	11.2
676.414	11.04
676.601	11.24
676.787	10.61
676.974	10.43
677.16	10.79
677.347	11.37
677.533	11.7
677.719	11.29
677.906	11.52
678.092	11.68
678.279	11.14
678.465	11.74
678.651	11.42
678.838	11.89
679.024	12.19
679.21	12.18
679.397	11.97
679.583	11.54
679.769	11.65
679.955	11.46
680.142	11.47
680.328	11.76
680.514	11.42
680.7	11.57
680.886	11.68
681.073	11.25
681.259	11.55
681.445	12.2
681.631	12.3
681.817	12.29
682.003	11.97
682.189	12.32
682.375	12.63
682.561	12.9
682.747	12.74
682.933	12.46
683.119	13.16
683.305	12.84
683.491	12.4
683.677	12.32
683.863	11.65
684.049	12.4
684.235	12.13
684.42	11.71
684.606	11.21
684.792	11.43
684.978	11.34
685.164	10.97
685.349	10.78
685.535	10.88
685.721	11.57
685.907	11.65
686.092	10.93
686.278	10.98
686.464	10.94
686.649	11.33
686.835	11.16
687.021	11.32
687.206	11.03
687.392	11.29
687.577	10.9
687.763	10.35
687.948	10.94
688.134	11.44
688.319	11.6
688.505	11.46
688.69	11.17
688.876	11.64
689.061	11.74
689.247	11.73
689.432	11.83
689.618	12.17
689.803	12.63
689.988	12.16
690.174	12.26
690.359	11.75
690.544	12.22
690.73	12.58
690.915	12.47
691.1	12.17
691.285	13.03
691.471	13.18
691.656	13.02
691.841	12.94
692.026	12.9
692.211	12.73
692.396	13.15
692.582	12.77
692.767	12.07
692.952	11.76
693.137	11.55
693.322	11.01
693.507	10.94
693.692	10.87
693.877	10.32
694.062	11.01
694.247	11.35
694.432	11.08
694.617	11.1
694.802	11.68
694.987	12.09
695.172	12.3
695.357	11.97
695.541	12.42
695.726	12.59
695.911	12.59
696.096	11.97
696.281	11.64
696.466	11.96
696.65	12.37
696.835	12.36
697.02	12.08
697.204	12.37
697.389	13.1
697.574	13.05
697.759	13.1
697.943	13.52
698.128	13.5
698.312	13.29
698.497	12.6
698.682	12.75
698.866	12.83
699.051	12.51
699.235	12.31
699.42	11.75
699.604	11.14
699.789	11.08
699.973	11.08
700.158	11.21
700.342	11.15
700.527	11.8
700.711	11.16
700.895	11.29
701.08	11.59
701.264	11.53
701.448	11.97
701.633	12.48
701.817	12.27
702.001	12.02
702.186	12.05
702.37	12.05
702.554	12.1
702.738	12.75
702.923	11.88
703.107	12.51
703.291	12.64
703.475	12.99
703.659	12.73
703.843	13.16
704.027	12.72
704.212	12.31
704.396	11.93
704.58	11.82
704.764	11.58
704.948	11.47
705.132	10.91
705.316	11.2
705.5	9.88
705.684	10.2
705.868	10.44
706.052	10.54
706.235	10.79
706.419	11.24
706.603	10.81
706.787	11.07
706.971	11.89
707.155	11.22
707.339	11
707.522	11.09
707.706	10.9
707.89	10.14
708.074	10.93
708.257	11.12
708.441	11.1
708.625	11.43
708.808	11.75
708.992	11.22
709.176	11.97
709.359	11.94
709.543	12.5
709.727	12.89
709.91	13.39
710.094	12.76
710.277	13.04
710.461	13.42
710.644	13.68
710.828	13.25
711.011	13.91
711.195	13.35
711.378	13.61
711.562	14.07
711.745	13.91
711.928	13.83
712.112	13.85
712.295	13.68
712.478	13.17
712.662	13.32
712.845	13.24
713.028	12.29
713.212	13.19
713.395	13.08
713.578	12.23
713.761	11.6
713.945	11.25
714.128	11.54
714.311	11.42
714.494	11.07
714.677	10.91
714.86	10.64
715.043	11.27
715.227	10.66
715.41	10.56
715.593	11.55
715.776	11.65
715.959	11.39
716.142	11.27
716.325	11.4
716.508	12.05
716.691	11.45
716.874	11.09
717.057	11.04
717.239	10.96
717.422	11.01
717.605	10.63
717.788	11.8
717.971	12.3
718.154	12.33
718.337	12.29
718.519	11.78
718.702	13.12
718.885	14.29
719.068	14.47
719.25	14.76
719.433	14.49
719.616	14.06
719.798	14.5
719.981	14.9
720.164	15.17
720.346	14.82
720.529	15.62
720.712	14.76
720.894	13.53
721.077	13.62
721.259	14.97
721.442	14.31
721.624	14.6
721.807	13.12
721.989	13.3
722.172	13.28
722.354	13.59
722.537	13.58
722.719	13.17
722.901	14.21
723.084	14.64
723.266	13.11
723.448	13.91
723.631	13.7
723.813	13.45
723.995	13.6
724.178	13.29
724.36	14.31
724.542	13.11
724.724	11.51
724.907	11.19
725.089	10.59
725.271	10.74
725.453	10.61
725.635	11.05
725.817	11.29
725.999	10.66
726.181	10.81
726.364	9.87
726.546	11.12
726.728	13.02
726.91	12.93
727.092	13.1
727.274	12.39
727.456	12.95
727.638	13.15
727.819	12.9
728.001	12.65
728.183	12.7
728.365	12.5
728.547	12.32
728.729	12.15
728.911	12.28
729.093	12.64
729.274	13.14
729.456	12.12
729.638	12.19
729.82	14.15
730.001	14.85
730.183	15.33
730.365	15.64
730.546	15.16
730.728	14.85
730.91	13.8
731.091	13.29
731.273	12.98
731.455	13.58
731.636	13.4
731.818	11.45
731.999	11.54
732.181	10.83
732.362	10.44
732.544	10.83
732.725	10.45
732.907	11.3
733.088	11.9
733.27	12.68
733.451	13.12
733.633	12.39
733.814	12.4
733.995	11.79
734.177	11.67
734.358	11.52
734.539	11.84
734.721	12.55
734.902	12.39
735.083	11.73
735.264	12.03
735.446	11.32
735.627	11.97
735.808	12.42
735.989	12.59
736.17	13.41
736.351	14.57
736.533	14.73
736.714	15.09
736.895	15.49
737.076	15.55
737.257	15.83
737.438	14.6
737.619	14.35
737.8	13.98
737.981	14.46
738.162	14.42
738.343	13.72
738.524	13.25
738.705	13.69
738.886	13.29
739.067	12.44
739.247	10.5
739.428	12.02
739.609	12.66
739.79	13.3
739.971	13.17
740.151	12.36
740.332	12.19
740.513	11.33
740.694	9.75
740.874	9.56
741.055	10.96
741.236	12.16
741.417	11.85
741.597	10.07
741.778	9.87
741.958	9.55
742.139	10.3
742.32	10.4
742.5	11.88
742.681	12.83
742.861	12.93
743.042	11.84
743.222	11.03
743.403	10.45
743.583	11.19
743.764	9.77
743.944	7.93
744.124	7.53
744.305	7.72
744.485	7.13
744.666	6.53
744.846	7.18
745.026	7.93
745.207	9.06
745.387	9.6
745.567	10.3
745.747	10.1
745.928	11.43
746.108	12.03
746.288	12.07
746.468	11.47
746.648	10.47
746.829	11.21
747.009	10.1
747.189	9.83
747.369	10
747.549	10.17
747.729	11.84
747.909	12.9
748.089	11.53
748.269	10.07
748.449	10.2
748.629	11.13
748.809	9.63
748.989	10.25
749.169	10.07
749.349	9.74
749.529	8.47
749.709	7.53
749.889	7.09
750.068	8.35
750.248	10.01
750.428	10.04
750.608	10.54
750.788	11.53
750.967	11.91
751.147	12.12
751.327	13.64
751.507	14.14
751.686	15.84
751.866	15.95
752.046	15.54
752.225	15.1
752.405	16.08
752.585	15.91
752.764	15.42
752.944	15.77
753.123	16.43
753.303	17.01
753.482	17.37
753.662	16.57
753.841	16.26
754.021	16.18
754.2	17.95
754.38	18.91
754.559	18.52
754.739	19.11
754.918	18.65
755.097	18.38
755.277	16.45
755.456	16.96
755.635	16.73
755.815	15.79
755.994	15.64
756.173	13.31
756.352	11.21
756.532	11.45
756.711	10.57
756.89	11.5
757.069	11.84
757.248	12.35
757.427	10.69
757.607	9.92
757.786	10.22
757.965	10.15
758.144	10.92
758.323	12.1
758.502	13.17
758.681	14.2
758.86	13.47
759.039	11.72
759.218	11.39
759.397	11.09
759.576	11.99
759.755	12.7
759.934	14.08
760.113	14.05
760.291	13.49
760.47	13
760.649	13.13
760.828	13.57
761.007	13.7
761.186	14.06
761.364	15.56
761.543	15.48
761.722	15.45
761.901	15
762.079	15.27
762.258	15.22
762.437	14.66
762.615	14.42
762.794	13.98
762.972	14.54
763.151	14.1
763.33	13.93
763.508	13.93
763.687	14.15
763.865	13.55
764.044	13.8
764.222	13.33
764.401	13.19
764.579	13.49
764.758	13.18
764.936	13.53
765.114	13.98
765.293	14.47
765.471	14.51
765.65	14.32
765.828	14.55
766.006	12.67
766.184	12.91
766.363	12.4
766.541	11.09
766.719	12.08
766.898	12.28
767.076	11.16
767.254	11.06
767.432	10.63
767.61	11.39
767.788	11.68
767.967	13.82
768.145	14.76
768.323	14.3
768.501	14.3
768.679	14.87
768.857	13.89
769.035	15.46
769.213	15.51
769.391	15.5
769.569	12.44
769.747	12.11
769.925	11.61
770.103	10.54
770.281	12.9
770.459	15.79
770.636	15.37
770.814	15.86
770.992	16.12
771.17	12.99
771.348	14.59
771.525	15.35
771.703	14.74
771.881	14.37
772.059	14.71
772.236	13.63
772.414	9.54
772.592	8.34
772.769	9.52
772.947	8.85
773.125	11.49
773.302	10.72
773.48	12.8
773.657	11.24
773.835	10.95
774.013	11
774.19	11.76
774.368	13.73
774.545	12.95
774.723	10.84
774.9	11.46
775.077	9.01
775.255	7.76
775.432	5.82
775.61	8.1
775.787	6.7
775.964	6.24
776.142	4
776.319	3.07
776.496	4.11
776.674	4.85
776.851	4.07
777.028	5.12
777.205	6
777.382	6.18
777.56	5.11
777.737	6.32
777.914	4.97
778.091	7.55
778.268	8.14
778.445	10.41
778.622	10.06
778.8	8.5
778.977	8.5
779.154	8.23
779.331	8.01
779.508	9.2
779.685	10.22
779.862	12.29
780.038	9.83
780.215	10.1
780.392	5.96
780.569	6.6
780.746	4.65
780.923	6.63
781.1	3.73
781.277	3.74
781.453	3.98
781.63	-0.03
781.807	-3.73
781.984	-0.27
782.16	1.65
782.337	3.03
782.514	2.29
782.691	8.11
782.867	8.4
783.044	11.71
783.221	13.94
783.397	12.1
783.574	14.99
783.75	16.05
783.927	15.9
784.103	13.5
784.28	14.27
784.456	13.76
784.633	10.71
784.809	11.16
784.986	7.66
785.162	4.76
785.339	7.19
785.515	7.47
785.692	12.81
785.868	12.85
786.044	12.87
786.221	13.61
786.397	13.73
786.573	15.58
786.749	14.82
786.926	17.09
787.102	17.31
787.278	15.78
787.454	15.56
787.631	12.55
787.807	13.2
787.983	14.27
788.159	11.58
788.335	9.27
788.511	8.8
788.687	8.92
788.863	6.84
789.039	10.65
789.216	12
789.392	10.58
789.568	9.5
789.744	8.08
789.919	9.08
790.095	11.32
790.271	14.98
790.447	14.37
790.623	14.34
790.799	16.44
790.975	14.65
791.151	15.19
791.327	16.89
791.502	14.44
791.678	14.81
791.854	11.6
792.03	9.78
792.205	7.06
792.381	5.97
792.557	2.52
792.733	1.65
792.908	-1.89
793.084	-1.29
793.259	1.9
793.435	4.82
793.611	5.84
793.786	7.72
793.962	12.44
794.137	12.37
794.313	15.35
794.488	17.82
794.664	17.15
794.839	15.95
795.015	12.72
795.19	8.29
795.366	8.82
795.541	6.03
795.716	2.74
795.892	-1.61
796.067	2.98
796.242	2.03
796.418	-0.58
796.593	2.29
796.768	4.93
796.944	4.97
797.119	7.25
797.294	10.26
797.469	12.81
797.644	11.34
797.82	13.5
797.995	11.63
798.17	8.39
798.345	11.72
798.52	8.84
798.695	5.92
798.87	6.8
799.045	6.87
799.22	4.64
799.395	4.68
799.57	6.86
799.745	3.55
799.92	4
800.095	8.23
800.27	7.68
800.445	10.16
800.62	12.9
800.795	13.64
800.97	12.77
801.145	12.06
801.319	6.24
801.494	5.49
801.669	8.09
801.844	7.15
802.018	4.55
802.193	4.4
802.368	1.81
802.543	-0.37
802.717	1.05
802.892	2.01
803.067	1.26
803.241	3.95
803.416	6.96
803.59	5.66
803.765	8.69
803.94	11.94
804.114	13.4
804.289	15.69
804.463	19.27
804.638	18.87
804.812	19.44
804.986	17.56
805.161	19.46
805.335	20.82
805.51	20.3
805.684	15.87
805.858	13.04
806.033	7.03
806.207	7.83
806.381	5.57
806.556	2.99
806.73	0.12
806.904	1.18
807.078	1.14
807.253	-1.14
807.427	1.15
807.601	4.4
807.775	7.26
807.949	14.62
808.123	13
808.298	10.37
808.472	12.38
808.646	15.3
808.82	15.83
808.994	16.3
809.168	15.61
809.342	14.62
809.516	12.71
809.69	11.94
809.864	10.8
810.038	13
810.212	16.42
810.385	15.77
810.559	16.95
810.733	18.41
810.907	16.71
811.081	20.37
811.255	21.89
811.428	22.72
811.602	21.67
811.776	19.9
811.95	18.25
812.123	16.03
812.297	15.03
812.471	9.41
812.644	11.05
812.818	12.59
812.992	9.85
813.165	9.12
813.339	10.09
813.512	11.43
813.686	7.85
813.86	6.42
814.033	5.2
814.207	11.54
814.38	14.28
814.554	12.1
814.727	15.91
814.9	11.32
815.074	10.28
815.247	9.64
815.421	9.36
815.594	13.76
815.767	13.32
815.941	14.38
816.114	12.32
816.287	10.6
816.46	9.14
816.634	4.13
816.807	6.53
816.98	9.94
817.153	11.12
817.327	12.69
817.5	9.69
817.673	12.12
817.846	13.95
818.019	10.26
818.192	11.65
818.365	11.35
818.538	8.84
818.711	10.56
818.884	9.3
819.057	5.6
819.23	2.87
819.403	1.68
819.576	4.67
819.749	4.49
819.922	4.79
820.095	5.11
820.268	9.75
820.441	9.92
820.614	8.6
820.786	11.38
820.959	12.97
821.132	16.11
821.305	17.16
821.477	15.5
821.65	17.24
821.823	17.25
821.996	17.28
822.168	16.75
822.341	17.28
822.514	17.72
822.686	16.13
822.859	16.12
823.031	15.63
823.204	15.39
823.376	15.99
823.549	15.14
823.722	15.68
823.894	15.37
824.067	14.78
824.239	13.94
824.411	13.54
824.584	14.2
824.756	14.34
824.929	14.41
825.101	14.59
825.273	15.04
825.446	15.45
825.618	14.71
825.79	14.97
825.963	16.52
826.135	17.26
826.307	17
826.479	17.71
826.652	17.56
826.824	15.02
826.996	14.26
827.168	12.61
827.34	11.99
827.512	11.05
827.684	11.68
827.856	9.35
828.029	8.91
828.201	10.41
828.373	9.56
828.545	11.01
828.717	13.69
828.889	14.82
829.061	16.01
829.232	16.62
829.404	18.42
829.576	19.01
829.748	22.83
829.92	24.8
830.092	24.44
830.264	23.44
830.436	22.9
830.607	22.34
830.779	22.54
830.951	19.78
831.123	19.38
831.294	19.43
831.466	17.21
831.638	14.65
831.809	10.3
831.981	9.2
832.153	11.2
832.324	10.28
832.496	13.02
832.667	14.04
832.839	15.59
833.011	17.51
833.182	17.42
833.354	18.66
833.525	16.79
833.697	17.27
833.868	17.85
834.039	17.15
834.211	14.56
834.382	12.06
834.554	12.54
834.725	14.02
834.896	12.22
835.068	12.28
835.239	10.93
835.41	10.41
835.581	12.72
835.753	10.86
835.924	10.29
836.095	13.24
836.266	13.37
836.438	12.54
836.609	7.4
836.78	3.16
836.951	1.22
837.122	1.04
837.293	1.4
837.464	-0.57
837.635	3.31
837.806	6.42
837.977	1
838.148	2.69
838.319	0.22
838.49	5.46
838.661	9.62
838.832	9.35
839.003	10.95
839.174	16.23
839.345	16.4
839.516	10.88
839.687	10.17
839.857	15.23
840.028	16.23
840.199	20.58
840.37	23.1
840.54	23.37
840.711	25.18
840.882	23.07
841.053	16.53
841.223	17.39
841.394	20.78
841.564	19.96
841.735	18.51
841.906	18.54
842.076	13.44
842.247	13.16
842.417	14.46
842.588	7.98
842.758	12.35
842.929	27.58
843.099	25.42
843.27	24.23
843.44	13.6
843.611	18.79
843.781	23.13
843.951	24.38
844.122	15.17
844.292	13.72
844.462	15.73
844.633	24.79
844.803	13.03
844.973	22.3
845.144	23.19
845.314	29.46
845.484	23.65
845.654	13.41
845.824	18.6
845.995	13.18
846.165	16.84
846.335	20.89
846.505	0.09
846.675	3.82
846.845	-33.39
847.015	-48.02
847.185	-43.17
847.355	-35.16
847.525	-22.33
847.695	-27.52
847.865	-21.2
848.035	-13.26
848.205	-24.38
848.375	-5.57
848.545	-19.17
848.715	-1.42
848.884	-17.65
849.054	-20.47
849.224	-11.24
849.394	-16.39
849.564	-22.77
849.733	-25.12
849.903	-12.89
850.073	-11.23
850.243	-41.56
850.412	-24.9
850.582	-14.75
850.752	4.91
850.921	4.33
851.091	1.72
851.26	7.96
851.43	10.86
851.599	24.45
851.769	0.4
851.939	4.64
852.108	21.72
852.278	14.36
852.447	10.78
852.616	25.28
852.786	21.19
852.955	18.92
853.125	2.7
853.294	11.75
853.463	3.87
853.633	13.8
853.802	14.02
853.971	12.21
854.141	14.17
854.31	12.29
854.479	1.01
854.648	3.72
854.818	4.97
854.987	9.23
855.156	-1.99
855.325	-9.41
855.494	-22.47
855.663	-23
855.832	-15.85
856.001	-31.35
856.171	-50.04
856.34	-33.92
856.509	-58.97
856.678	-98.9
856.847	-114.56
857.016	-68.44
857.185	-87.1
857.353	-56.22
857.522	-89.44
857.691	-60.35
857.86	-34.9
858.029	-25.05
858.198	-33.45
858.367	-19.6
858.535	5.7
858.704	15.27
858.873	18.79
859.042	24.97
859.21	32
859.379	42.54
859.548	42.67
859.717	31.11
859.885	20.5
860.054	27.38
860.222	17.24
860.391	10.9
860.56	13.38
860.728	6.24
860.897	11.81
861.065	4.2
861.234	-10.17
861.402	-4.27
861.571	-1.14
861.739	10.62
861.908	4.56
862.076	6.02
862.244	3.52
862.413	-10.06
862.581	2.6
862.749	-9.12
862.918	-11
863.086	-7.59
863.254	-11.3
863.423	-11.18
863.591	-4.42
863.759	0.22
863.927	-4.72
864.096	-5.61
864.264	-15.72
864.432	-23.5
864.6	-15.4
864.768	-17.06
864.936	3.7
865.104	-0.89
865.272	-5.51
865.44	-12.05
865.608	-19.15
865.776	1.62
865.944	-9.45
866.112	15.8
866.28	7.86
866.448	22.5
866.616	24.62
866.784	22.38
866.952	28.08
867.12	32.5
867.288	34.86
867.455	40.32
867.623	38.64
867.791	46.05
867.959	52.99
868.127	50.72
868.294	56.22
868.462	65.03
868.63	65.13
868.797	67.09
868.965	65.68
869.133	60.62
869.3	49.65
869.468	47.58
869.636	38.31
869.803	31.07
869.971	38.95
870.138	15.21
870.306	6.66
870.473	22.28
870.641	31.56
870.808	18.31
870.975	33.41
871.143	44.23
871.31	49.34
871.478	47.82
871.645	45.98
871.812	45.2
871.98	46.59
872.147	36.09
872.314	38.96
872.482	47.22
872.649	60.06
872.816	53.33
872.983	44.96
873.15	42.11
873.318	44.11
873.485	33.34
873.652	22.37
873.819	12.6
873.986	30.59
874.153	13.47
874.32	1.97
874.487	-7.71
874.654	6.12
874.821	8.91
874.988	4.67
875.155	13.91
875.322	19.34
875.489	24.32
875.656	30.9
875.823	16.1
875.99	20.45
876.157	28.48
876.324	33.43
876.49	19.46
876.657	17.32
876.824	21.02
876.991	16.78
877.157	12.28
877.324	8.64
877.491	-4.59
877.658	7.75
877.824	11.23
877.991	-6.6
878.157	-9.93
878.324	-0.71
878.491	-4.67
878.657	-7.47
878.824	-22.62
878.99	-4.1
879.157	18.32
879.323	22.48
879.49	21.45
879.656	26.83
879.823	34.7
879.989	44.59
880.156	34.69
880.322	38.89
880.488	34.56
880.655	31.17
880.821	10.92
880.987	0.42
881.154	4.45
881.32	14.66
881.486	18.64
881.652	11.84
881.819	0.64
881.985	7.14
882.151	8.95
882.317	10.49
882.483	11.68
882.649	11.61
882.816	15.72
882.982	17.3
883.148	13.87
883.314	10.62
883.48	14.52
883.646	17.05
883.812	16.95
883.978	19.5
884.144	19.49
884.31	20.62
884.476	24.54
884.642	19.75
884.807	16.3
884.973	16.59
885.139	17.15
885.305	16.74
885.471	12.81
885.637	15.56
885.802	17.13
885.968	14.71
886.134	16.38
886.3	14.59
886.465	12.27
886.631	17.59
886.797	19.22
886.962	18.65
887.128	16
887.293	19.03
887.459	14.65
887.625	3.15
887.79	2.32
887.956	7.81
888.121	6.9
888.287	14.96
888.452	6.09
888.618	1.84
888.783	1.05
