Data from 2938043_Reflection_3.txt Node
Date: Sun Jul 12 14:33:01 EDT 2015
User: robert
Spectrometer: USB4E03001
Autoset integration time: false
Trigger mode: 4
Integration Time (sec): 1.000000E-1
Scans to average: 10
Electric dark correction enabled: true
Nonlinearity correction enabled: false
Boxcar width: 5
Stray light correction enabled: false
XAxis mode: Wavelengths
Stop averaging: false
Number of Pixels in Spectrum: 3648
>>>>>Begin Spectral Data<<<<<
177.566	203.07
177.785	245.52
178.005	-14256.25
178.225	5.84
178.445	40.67
178.665	56.63
178.885	93.19
179.105	119.53
179.324	161.97
179.544	-627.85
179.764	1355.14
179.984	-455.94
180.204	-132.96
180.423	-61.35
180.643	-90.2
180.863	-72.86
181.083	-103.02
181.302	-92.8
181.522	-48.56
181.742	-33.23
181.961	-49.22
182.181	-54.13
182.401	-52.77
182.621	-52.46
182.84	-91.96
183.06	-59.72
183.279	-87.49
183.499	-63.36
183.719	-76.07
183.938	-88.79
184.158	-89.3
184.377	-74.8
184.597	-69.89
184.816	-36.64
185.036	-91.65
185.256	-80.48
185.475	-102.24
185.695	-93.53
185.914	-135.63
186.134	-77.59
186.353	-71.7
186.572	-69.26
186.792	-46.98
187.011	-83.02
187.231	-101.63
187.45	-58.62
187.67	-75.75
187.889	-14.91
188.108	-16.05
188.328	-35.31
188.547	-30.67
188.766	-14.39
188.986	-42.84
189.205	-45.08
189.424	-158.17
189.644	-180.4
189.863	-64.44
190.082	-61.14
190.302	-97.4
190.521	-203.36
190.74	-147.24
190.959	-149.9
191.178	-301.15
191.398	-194.31
191.617	-770.06
191.836	-87.84
192.055	-113.16
192.274	-558.31
192.494	-299.06
192.713	-1334.55
192.932	2139.03
193.151	-157.88
193.37	45588.89
193.589	-24.64
193.808	-90.87
194.027	-52.48
194.246	-127.91
194.465	-177.93
194.685	-99.76
194.904	-205.91
195.123	-169.18
195.342	-304.84
195.561	1880
195.78	419.91
195.999	415.06
196.218	489.3
196.436	-1152.67
196.655	-472.84
196.874	-103.61
197.093	-139.29
197.312	-48.91
197.531	-67.39
197.75	-41.42
197.969	-28.63
198.188	-3.08
198.407	10.07
198.625	21.5
198.844	19.65
199.063	16.26
199.282	12.05
199.501	12.16
199.719	21.67
199.938	47.41
200.157	49.78
200.376	44.66
200.594	41.46
200.813	54.04
201.032	47.22
201.251	35.83
201.469	41.78
201.688	56.47
201.907	52.12
202.125	38.6
202.344	12.64
202.563	9.81
202.781	-24.72
203	18.31
203.218	-5.51
203.437	-19.84
203.656	-20.03
203.874	-37.55
204.093	-55.58
204.311	-60.01
204.53	-53.45
204.748	-53.06
204.967	-171.41
205.185	-159.75
205.404	-837.82
205.622	527.51
205.841	487.3
206.059	2281.5
206.278	1329.64
206.496	868.32
206.715	-3444.54
206.933	-572.52
207.151	-4214.71
207.37	-171.53
207.588	-287.43
207.806	-170.05
208.025	-130.96
208.243	-121.47
208.461	-157.59
208.68	-112.84
208.898	-73.19
209.116	-80.93
209.335	-102.4
209.553	-107.72
209.771	-127.79
209.989	-82.64
210.208	-86.71
210.426	-119.18
210.644	-189.63
210.862	-345.22
211.081	-739.74
211.299	-761.8
211.517	-2245.95
211.735	-2262.61
211.953	-3628.69
212.171	-5012.89
212.39	422.66
212.608	381.13
212.826	1401.5
213.044	-370.1
213.262	-164.36
213.48	-157.72
213.698	-237.04
213.916	-159.63
214.134	-207.03
214.352	-69.85
214.57	-78.75
214.788	-67.62
215.006	-49.99
215.224	-29.51
215.442	-68.67
215.66	-30.07
215.878	-52.43
216.096	-62.33
216.314	-129.51
216.532	-92.68
216.75	-83.86
216.968	-61.05
217.185	-52.78
217.403	-59.09
217.621	-78.33
217.839	-78.76
218.057	-128.08
218.275	-46.77
218.492	-45.2
218.71	-16.24
218.928	-13.41
219.146	-16.83
219.363	-14.48
219.581	2.28
219.799	18.15
220.017	33.53
220.234	35.72
220.452	33.15
220.67	31.08
220.887	39.4
221.105	23
221.323	19.83
221.54	1.29
221.758	-2.46
221.976	-15.53
222.193	-58.17
222.411	-138.29
222.629	-226.12
222.846	-199.14
223.064	-222.93
223.281	-104.61
223.499	-69.15
223.716	-70.36
223.934	-54.25
224.151	-78.46
224.369	-95.32
224.586	-44.15
224.804	-50.68
225.021	-20.9
225.239	-25.16
225.456	-11.79
225.674	-25.32
225.891	-29.02
226.108	-27.44
226.326	-33.18
226.543	-24.34
226.76	-18.28
226.978	-34.29
227.195	-18.77
227.413	-17.15
227.63	-3.34
227.847	-2.84
228.064	-2.77
228.282	-1.18
228.499	-0.09
228.716	-1.41
228.934	2.51
229.151	2.55
229.368	4.27
229.585	5
229.802	4.49
230.02	1.34
230.237	3.94
230.454	3.93
230.671	5.64
230.888	4.51
231.105	8.97
231.323	4.44
231.54	3.75
231.757	-1.05
231.974	-2.66
232.191	-2.93
232.408	-2.26
232.625	-9.6
232.842	-8.79
233.059	-13.27
233.276	-13.08
233.493	-14.59
233.71	-11.87
233.927	-4.95
234.144	0.67
234.361	4.41
234.578	2.1
234.795	-2.49
235.012	4.25
235.229	5.22
235.446	2.27
235.663	1.47
235.879	-3.37
236.096	-2.41
236.313	-5.45
236.53	-3.61
236.747	-5.27
236.964	-3.76
237.181	3.72
237.397	1.4
237.614	4.36
237.831	6.97
238.048	8.71
238.264	9.46
238.481	8.79
238.698	5.83
238.915	8.28
239.131	8.94
239.348	5.81
239.565	3.72
239.781	4.97
239.998	2.77
240.215	4.46
240.431	-0.39
240.648	1.69
240.865	2.72
241.081	2.2
241.298	-0.63
241.514	0.95
241.731	2.89
241.947	5.06
242.164	5.41
242.38	5.96
242.597	6.05
242.814	7.89
243.03	7.76
243.246	6.99
243.463	5.17
243.679	6.76
243.896	4.17
244.112	4.16
244.329	0.4
244.545	-2
244.762	-2.77
244.978	-3.62
245.194	-3.75
245.411	-2
245.627	-0.67
245.843	1.67
246.06	-1.39
246.276	0.69
246.492	1.69
246.709	1.75
246.925	2.84
247.141	2.87
247.357	2.75
247.574	3.14
247.79	3.36
248.006	3.19
248.222	3.2
248.439	4.14
248.655	4.75
248.871	4.67
249.087	5.55
249.303	4.9
249.519	4.23
249.736	5.37
249.952	2.86
250.168	1.32
250.384	0.07
250.6	-1.21
250.816	0.74
251.032	0.47
251.248	-1.42
251.464	-1.58
251.68	-0.31
251.896	1.1
252.112	-1.58
252.328	-0.07
252.544	-1.2
252.76	-2.67
252.976	-3.33
253.192	-5.41
253.408	-7.91
253.624	-10.33
253.84	-12.72
254.056	-13.02
254.272	-16.82
254.487	-17.09
254.703	-15.68
254.919	-12.87
255.135	-11.72
255.351	-11.32
255.567	-11.26
255.782	-7
255.998	-2.96
256.214	0.1
256.43	-6.48
256.646	-3.73
256.861	-0.17
257.077	0.28
257.293	-2.32
257.508	-2.56
257.724	-1.81
257.94	-0.58
258.155	-3.13
258.371	-2.22
258.587	-2.06
258.802	1.82
259.018	0.13
259.234	-0.29
259.449	-0.84
259.665	-0.47
259.88	0.91
260.096	2.01
260.312	1.64
260.527	1.75
260.743	1.85
260.958	1.54
261.174	1.67
261.389	3.19
261.605	2.7
261.82	2.05
262.036	2.67
262.251	1.16
262.466	1.7
262.682	2.51
262.897	3.17
263.113	2.5
263.328	2.44
263.543	-0.03
263.759	-1.06
263.974	1.37
264.189	3.96
264.405	4.47
264.62	5.2
264.835	3.38
265.051	3.38
265.266	4.54
265.481	4.9
265.696	5.93
265.912	4.53
266.127	6.12
266.342	4.76
266.557	2.59
266.773	1.17
266.988	3.65
267.203	2.24
267.418	2.38
267.633	-0.57
267.848	-0.12
268.064	-0.43
268.279	1.18
268.494	0.09
268.709	-0.09
268.924	1.41
269.139	1.84
269.354	0.59
269.569	1.75
269.784	1.41
269.999	2.95
270.214	3.15
270.429	2.77
270.644	2.94
270.859	2.27
271.074	1.65
271.289	1.11
271.504	1.6
271.719	0.68
271.934	0.07
272.149	0.54
272.363	0.77
272.578	1.02
272.793	1.64
273.008	1.68
273.223	2.61
273.438	2.75
273.653	3.08
273.867	2.93
274.082	4.42
274.297	5.43
274.512	5.5
274.726	6.04
274.941	5.62
275.156	4.99
275.371	5.14
275.585	4.78
275.8	6.11
276.015	5.76
276.229	6.85
276.444	4.54
276.659	3.47
276.873	2.43
277.088	0.97
277.302	1.34
277.517	0.76
277.732	1
277.946	0.13
278.161	-1.73
278.375	-2.04
278.59	-4.4
278.804	-1.86
279.019	-1.92
279.233	-3.6
279.448	-2.72
279.662	-3.46
279.877	-1.59
280.091	-2
280.306	-0.59
280.52	-0.64
280.735	-2.1
280.949	-1.83
281.163	-2.37
281.378	-1.89
281.592	-0.5
281.806	-2.29
282.021	-2.31
282.235	-3.13
282.449	-3.12
282.664	-4.21
282.878	-3.68
283.092	-2.38
283.307	-2.55
283.521	-2.32
283.735	-1.76
283.949	-0.99
284.164	2.55
284.378	4.38
284.592	4.12
284.806	4.18
285.02	3.49
285.234	4.74
285.449	4.48
285.663	5.04
285.877	4.55
286.091	5.14
286.305	3.44
286.519	2.85
286.733	1
286.947	0.84
287.161	0.29
287.375	0.74
287.589	0.03
287.803	0.27
288.017	0.32
288.231	-1.03
288.445	-1.38
288.659	0.31
288.873	-1.16
289.087	-0.97
289.301	-0.23
289.515	0.69
289.729	1.3
289.943	1.87
290.157	2.07
290.371	3.02
290.584	3.65
290.798	2.98
291.012	2.86
291.226	4.15
291.44	5.46
291.654	4.91
291.867	4.13
292.081	4.02
292.295	2.76
292.509	4.03
292.722	2.64
292.936	2.93
293.15	3.61
293.364	4.9
293.577	4.27
293.791	3.64
294.005	5.23
294.218	6.25
294.432	4.84
294.645	6.92
294.859	5.65
295.073	6.24
295.286	6.78
295.5	6.49
295.713	6.09
295.927	7
296.14	6.47
296.354	5.65
296.568	6.65
296.781	8.04
296.994	6.17
297.208	6.54
297.421	6.15
297.635	5.86
297.848	5.72
298.062	5.43
298.275	5.24
298.489	6.07
298.702	6.28
298.915	5.36
299.129	5.37
299.342	6.73
299.555	7.24
299.769	8.28
299.982	8.85
300.195	10.03
300.409	9.4
300.622	7.65
300.835	7.58
301.048	8.14
301.262	7.91
301.475	7.09
301.688	5.45
301.901	5.42
302.115	5.11
302.328	3.68
302.541	3.19
302.754	4.68
302.967	5.03
303.18	4.97
303.393	5.57
303.607	4.86
303.82	4.38
304.033	5.94
304.246	5.2
304.459	5.3
304.672	5.74
304.885	5.36
305.098	4.76
305.311	6.43
305.524	4.72
305.737	2.9
305.95	2.68
306.163	3.92
306.376	5.09
306.589	4.69
306.802	4.08
307.015	3.73
307.228	5.45
307.44	5
307.653	4.74
307.866	6.78
308.079	7.04
308.292	7.9
308.505	7.74
308.718	6.35
308.93	6.81
309.143	6.48
309.356	7.23
309.569	6.85
309.781	7.07
309.994	6.58
310.207	6.78
310.42	7.61
310.632	7.41
310.845	7.65
311.058	7.46
311.27	8.17
311.483	8.84
311.696	9.67
311.908	10.48
312.121	9.76
312.333	11.11
312.546	9.41
312.759	9.12
312.971	8.76
313.184	9.56
313.396	10.43
313.609	9.77
313.821	8.79
314.034	7.1
314.246	5.44
314.459	8.12
314.671	7.83
314.884	9.29
315.096	8.08
315.309	9.81
315.521	7.22
315.733	7.36
315.946	6.59
316.158	7.27
316.371	7.7
316.583	7.47
316.795	5.86
317.008	4.62
317.22	3.73
317.432	4.81
317.644	4.4
317.857	6.4
318.069	5.19
318.281	5.86
318.494	6.05
318.706	6.98
318.918	8.31
319.13	7.24
319.342	5.51
319.555	7.46
319.767	8.03
319.979	6.39
320.191	6.89
320.403	7.63
320.615	6.9
320.827	6.42
321.039	4.63
321.252	3.64
321.464	4.05
321.676	6.23
321.888	3.61
322.1	3.34
322.312	4.67
322.524	3.72
322.736	4.32
322.948	5.34
323.16	6.83
323.372	8.89
323.584	7.44
323.796	9.19
324.007	9.66
324.219	10.62
324.431	10.07
324.643	10.26
324.855	10.41
325.067	9.29
325.279	9.72
325.491	8.99
325.702	8.86
325.914	10.89
326.126	9.74
326.338	9.91
326.55	10.5
326.761	10.37
326.973	9.72
327.185	8.99
327.396	10.59
327.608	10.6
327.82	11.12
328.032	10.61
328.243	9.43
328.455	9.15
328.666	8.76
328.878	9.27
329.09	10.75
329.301	11.38
329.513	13.56
329.725	13.66
329.936	14.1
330.148	13.45
330.359	12.85
330.571	13.49
330.782	13.09
330.994	14.47
331.205	14.69
331.417	16.64
331.628	16.39
331.84	14.56
332.051	14.78
332.262	14.13
332.474	13.75
332.685	15.46
332.897	15.45
333.108	18
333.319	16.5
333.531	16.44
333.742	14.5
333.953	14.65
334.165	15.76
334.376	15.69
334.587	16.52
334.799	16.58
335.01	16.37
335.221	16.41
335.432	16.4
335.644	16.28
335.855	15.61
336.066	16.02
336.277	16.77
336.488	17.47
336.7	16.68
336.911	16.44
337.122	17.33
337.333	18.03
337.544	18.32
337.755	17.57
337.966	18.99
338.177	19.48
338.388	20.44
338.599	21.1
338.811	20.11
339.022	20.22
339.233	20.36
339.444	20.12
339.655	18.59
339.866	17.37
340.076	17.3
340.287	16.32
340.498	15.92
340.709	15.21
340.92	14.14
341.131	14.21
341.342	14.6
341.553	14.61
341.764	16.19
341.975	17.02
342.185	18.53
342.396	18.2
342.607	18.78
342.818	19.26
343.029	19.39
343.239	20.04
343.45	21.48
343.661	21.5
343.872	21.12
344.082	20.91
344.293	20.62
344.504	20.27
344.714	20.44
344.925	20.39
345.136	20.55
345.346	21.33
345.557	21.04
345.768	19.68
345.978	18.72
346.189	19.05
346.399	18.28
346.61	19.98
346.821	20.46
347.031	22.02
347.242	21.17
347.452	22.13
347.663	21.99
347.873	22.18
348.084	22.68
348.294	24.29
348.504	24.43
348.715	23.84
348.925	22.74
349.136	22.2
349.346	20.56
349.557	21.17
349.767	19.7
349.977	18.87
350.188	19.61
350.398	20.16
350.608	18.54
350.819	19.51
351.029	19.22
351.239	20.86
351.449	21.46
351.66	21.11
351.87	22.05
352.08	22.75
352.29	23.61
352.501	23.23
352.711	22.88
352.921	24.18
353.131	22.56
353.341	25.06
353.552	22.97
353.762	22.89
353.972	23.51
354.182	22.98
354.392	22.77
354.602	22.11
354.812	23.07
355.022	23.2
355.232	22.7
355.442	24.18
355.652	22.65
355.862	23.13
356.072	22.41
356.282	22.35
356.492	21.9
356.702	22.08
356.912	21.85
357.122	20.72
357.332	20.99
357.542	21.48
357.752	20.96
357.962	19.78
358.171	20.61
358.381	21.22
358.591	21.5
358.801	21.79
359.011	21.88
359.221	22.63
359.43	22.64
359.64	22.31
359.85	22.65
360.06	22.41
360.269	24.2
360.479	23.86
360.689	23.95
360.899	24.4
361.108	24.38
361.318	25.09
361.528	24.86
361.737	25.3
361.947	25.07
362.156	25.29
362.366	25.58
362.576	24.41
362.785	23.74
362.995	22.9
363.204	22.65
363.414	22.34
363.623	21.18
363.833	21.24
364.042	20.54
364.252	21.17
364.461	20.51
364.671	20.69
364.88	21.76
365.09	22.84
365.299	23.56
365.509	23.49
365.718	23.97
365.927	25.19
366.137	25.25
366.346	25.42
366.555	25.12
366.765	25
366.974	25.55
367.183	25.66
367.393	24.73
367.602	25.26
367.811	25.37
368.021	25.28
368.23	24.01
368.439	24.19
368.648	23.69
368.857	23.57
369.067	23.18
369.276	22.37
369.485	21.99
369.694	22.12
369.903	21.52
370.112	21.25
370.321	21.3
370.531	21.23
370.74	19.98
370.949	20.56
371.158	20.92
371.367	21.85
371.576	22.26
371.785	21.82
371.994	22.45
372.203	22.8
372.412	22.25
372.621	22.34
372.83	22.7
373.039	23.63
373.248	23.46
373.457	23.3
373.666	23.33
373.874	22.66
374.083	23.23
374.292	22.74
374.501	22.66
374.71	22.97
374.919	23.06
375.128	23.2
375.336	22.61
375.545	23.34
375.754	22.74
375.963	22.29
376.171	22.65
376.38	22.62
376.589	22.03
376.798	22.17
377.006	22.67
377.215	22.57
377.424	22.1
377.632	22.39
377.841	22.48
378.05	23.51
378.258	24.08
378.467	24.09
378.675	24.17
378.884	24.78
379.093	25.07
379.301	25.01
379.51	25.65
379.718	26.02
379.927	25.47
380.135	25.23
380.344	25.16
380.552	24.24
380.761	24.52
380.969	24.45
381.177	24.3
381.386	23.82
381.594	23.7
381.803	23.17
382.011	23.46
382.219	24.07
382.428	23.47
382.636	22.99
382.845	23.47
383.053	23.18
383.261	23.48
383.469	23.24
383.678	23.31
383.886	23.37
384.094	23.2
384.302	22.82
384.511	22.52
384.719	22.98
384.927	22.82
385.135	22.72
385.343	22.64
385.552	22.26
385.76	22.47
385.968	22.55
386.176	22.82
386.384	23.02
386.592	23.23
386.8	23.45
387.008	23.46
387.216	23.26
387.424	23.59
387.633	23.38
387.841	23.52
388.049	23.52
388.257	23.51
388.465	23.26
388.672	23.17
388.88	23.14
389.088	23.33
389.296	23.34
389.504	23.53
389.712	23.43
389.92	23.88
390.128	24.17
390.336	24.23
390.544	24.36
390.751	24.2
390.959	24.22
391.167	24.22
391.375	23.88
391.583	23.7
391.79	23.82
391.998	23.41
392.206	23.17
392.414	23.1
392.621	23.23
392.829	23.39
393.037	23.47
393.244	23.46
393.452	23.49
393.66	23.65
393.867	23.9
394.075	23.76
394.283	24.36
394.49	24.35
394.698	24.49
394.905	24.6
395.113	24.43
395.32	24.44
395.528	24.53
395.735	24.71
395.943	24.9
396.15	24.7
396.358	24.78
396.565	24.54
396.773	25.1
396.98	25.13
397.188	24.91
397.395	25.18
397.602	25.7
397.81	25.95
398.017	25.7
398.225	25.85
398.432	26.25
398.639	26.75
398.847	27.11
399.054	27.03
399.261	26.83
399.468	27.14
399.676	27.07
399.883	26.73
400.09	26.87
400.297	27
400.505	26.91
400.712	26.77
400.919	26.51
401.126	26.09
401.333	25.81
401.54	26
401.748	26.24
401.955	26.32
402.162	26.46
402.369	26.28
402.576	26.25
402.783	26.1
402.99	26.19
403.197	26.16
403.404	26.68
403.611	26.94
403.818	27.05
404.025	26.94
404.232	26.78
404.439	26.87
404.646	26.81
404.853	26.97
405.06	27.2
405.267	27.05
405.474	27.24
405.681	27.26
405.887	27.12
406.094	27.18
406.301	27.14
406.508	27.28
406.715	27
406.922	27.19
407.128	27.42
407.335	27.54
407.542	27.54
407.749	27.34
407.955	26.92
408.162	27.16
408.369	26.91
408.575	26.9
408.782	26.61
408.989	26.95
409.195	26.74
409.402	26.57
409.609	26.61
409.815	26.67
410.022	27.04
410.228	27.08
410.435	26.96
410.642	26.97
410.848	26.65
411.055	27.01
411.261	26.86
411.468	27.12
411.674	27.02
411.881	26.87
412.087	26.96
412.294	26.72
412.5	26.68
412.706	26.68
412.913	26.66
413.119	26.89
413.326	26.98
413.532	27.06
413.738	26.75
413.945	26.88
414.151	27.1
414.357	27.17
414.564	27.13
414.77	27.48
414.976	27.31
415.182	27.51
415.389	27.3
415.595	27.16
415.801	27.23
416.007	27.27
416.214	27.23
416.42	26.96
416.626	26.96
416.832	26.97
417.038	26.69
417.244	26.52
417.45	26.44
417.657	26.76
417.863	26.72
418.069	26.83
418.275	26.86
418.481	26.63
418.687	26.59
418.893	26.55
419.099	26.69
419.305	26.8
419.511	26.88
419.717	26.77
419.923	26.63
420.129	26.48
420.335	26.33
420.541	26.24
420.746	26.24
420.952	26.28
421.158	26.17
421.364	26.06
421.57	26.06
421.776	26.2
421.982	26.23
422.187	26.2
422.393	26.25
422.599	26.17
422.805	26.3
423.01	26.36
423.216	26.41
423.422	26.39
423.628	26.44
423.833	26.36
424.039	26.27
424.245	26.27
424.45	26.34
424.656	26.3
424.862	26.37
425.067	26.34
425.273	26.28
425.478	26.13
425.684	26.16
425.889	26
426.095	25.93
426.301	25.89
426.506	25.59
426.712	25.36
426.917	25.32
427.123	25.23
427.328	25.04
427.533	25.07
427.739	24.97
427.944	24.9
428.15	24.95
428.355	25.01
428.561	24.93
428.766	25.13
428.971	25.25
429.177	25.06
429.382	25.04
429.587	25.15
429.793	25.1
429.998	25.38
430.203	25.17
430.408	25.09
430.614	24.96
430.819	24.75
431.024	24.85
431.229	24.7
431.434	25.04
431.64	24.96
431.845	24.92
432.05	25.09
432.255	24.95
432.46	25.12
432.665	24.9
432.87	24.85
433.076	25.09
433.281	25.04
433.486	25.22
433.691	25.09
433.896	25.25
434.101	25.39
434.306	25.42
434.511	25.25
434.716	25.44
434.921	25.69
435.126	25.73
435.331	25.66
435.535	25.73
435.74	25.63
435.945	25.58
436.15	25.55
436.355	25.41
436.56	25.29
436.765	25.52
436.97	25.44
437.174	25.32
437.379	25.48
437.584	25.44
437.789	25.38
437.993	25.33
438.198	25.39
438.403	25.33
438.608	25.17
438.812	25.1
439.017	25.05
439.222	24.93
439.426	24.99
439.631	25.04
439.836	24.99
440.04	24.97
440.245	25.03
440.45	25.08
440.654	25.11
440.859	25.19
441.063	25.18
441.268	25.08
441.472	25.14
441.677	25.12
441.881	24.92
442.086	25.05
442.29	25.13
442.495	25.03
442.699	24.93
442.904	24.82
443.108	24.77
443.312	24.9
443.517	24.86
443.721	24.71
443.925	24.82
444.13	24.85
444.334	24.8
444.538	24.84
444.743	24.89
444.947	24.96
445.151	24.9
445.356	24.91
445.56	24.88
445.764	25.03
445.968	25.03
446.173	24.88
446.377	25.02
446.581	25.01
446.785	24.93
446.989	24.96
447.193	24.89
447.398	24.96
447.602	24.84
447.806	24.74
448.01	24.68
448.214	24.72
448.418	24.61
448.622	24.35
448.826	24.43
449.03	24.39
449.234	24.34
449.438	24.37
449.642	24.19
449.846	24.27
450.05	24.27
450.254	24.41
450.458	24.44
450.662	24.65
450.866	24.62
451.069	24.29
451.273	24.38
451.477	24.4
451.681	24.29
451.885	24.45
452.089	24.55
452.292	24.55
452.496	24.52
452.7	24.53
452.904	24.53
453.107	24.74
453.311	24.91
453.515	24.78
453.719	24.6
453.922	24.74
454.126	24.36
454.33	24.2
454.533	24.02
454.737	23.77
454.94	23.78
455.144	23.71
455.348	23.47
455.551	23.41
455.755	23.36
455.958	23.43
456.162	23.24
456.365	23.56
456.569	23.87
456.772	24.11
456.976	24.32
457.179	24.02
457.383	24.04
457.586	24.23
457.79	24.46
457.993	24.57
458.196	24.73
458.4	24.8
458.603	24.75
458.807	24.63
459.01	24.55
459.213	24.62
459.417	24.74
459.62	24.67
459.823	24.62
460.026	24.47
460.23	24.56
460.433	24.49
460.636	24.46
460.839	24.45
461.042	24.52
461.246	24.47
461.449	24.26
461.652	24.22
461.855	24.47
462.058	24.6
462.261	24.67
462.464	24.56
462.668	24.49
462.871	24.47
463.074	24.48
463.277	24.28
463.48	24.32
463.683	24.43
463.886	24.52
464.089	24.2
464.292	23.97
464.495	23.88
464.698	23.77
464.901	23.88
465.104	23.96
465.306	23.91
465.509	24.01
465.712	23.92
465.915	23.96
466.118	23.86
466.321	23.97
466.524	24.05
466.726	24.01
466.929	23.99
467.132	23.99
467.335	24.01
467.538	24.16
467.74	24.07
467.943	24.42
468.146	24.43
468.348	24.45
468.551	24.43
468.754	24.48
468.956	24.44
469.159	24.56
469.362	24.51
469.564	24.5
469.767	24.54
469.969	24.77
470.172	24.49
470.375	24.31
470.577	24.47
470.78	24.44
470.982	24.3
471.185	24.4
471.387	24.54
471.59	24.48
471.792	24.58
471.995	24.48
472.197	24.31
472.399	24.4
472.602	24.39
472.804	24.24
473.007	24.28
473.209	24.35
473.411	24.47
473.614	24.38
473.816	24.48
474.018	24.45
474.22	24.43
474.423	24.55
474.625	24.56
474.827	24.83
475.03	24.79
475.232	24.72
475.434	24.74
475.636	24.62
475.838	24.5
476.04	24.3
476.243	24.35
476.445	24.27
476.647	24.27
476.849	24.36
477.051	24.23
477.253	24.39
477.455	24.47
477.657	24.47
477.859	24.48
478.061	24.49
478.263	24.78
478.465	24.71
478.667	24.61
478.869	24.46
479.071	24.57
479.273	24.6
479.475	24.45
479.677	24.46
479.879	24.62
480.081	24.65
480.283	24.9
480.485	24.78
480.686	24.79
480.888	25.15
481.09	25.24
481.292	25.16
481.494	25.21
481.695	25.24
481.897	25.28
482.099	25.16
482.301	25.26
482.502	25.22
482.704	25.3
482.906	25.34
483.107	25.26
483.309	25.3
483.511	25.27
483.712	25.25
483.914	25.32
484.115	25.29
484.317	25.38
484.519	25.35
484.72	25.34
484.922	25.27
485.123	25.23
485.325	25.24
485.526	25.2
485.728	25.24
485.929	25.22
486.131	25.19
486.332	25.2
486.534	25.05
486.735	25.06
486.936	24.99
487.138	24.97
487.339	25.06
487.541	25.04
487.742	25.01
487.943	24.96
488.144	24.97
488.346	25
488.547	24.97
488.748	25.01
488.95	24.98
489.151	24.97
489.352	25
489.553	24.87
489.755	24.86
489.956	24.88
490.157	24.94
490.358	24.87
490.559	24.9
490.76	25.03
490.961	25.05
491.163	25.06
491.364	25.12
491.565	25.14
491.766	25.19
491.967	25.27
492.168	25.3
492.369	25.26
492.57	25.31
492.771	25.31
492.972	25.21
493.173	25.24
493.374	25.27
493.575	25.38
493.776	25.42
493.976	25.4
494.177	25.24
494.378	25.31
494.579	25.44
494.78	25.4
494.981	25.46
495.182	25.7
495.382	25.63
495.583	25.67
495.784	25.38
495.985	25.34
496.185	25.43
496.386	25.56
496.587	25.48
496.788	25.31
496.988	25.49
497.189	25.34
497.39	25.21
497.59	25.23
497.791	25.29
497.992	25.4
498.192	25.46
498.393	25.33
498.593	25.45
498.794	25.48
498.994	25.61
499.195	25.4
499.395	25.35
499.596	25.39
499.796	25.37
499.997	25.17
500.197	25.23
500.398	25.25
500.598	25.35
500.799	25.15
500.999	25.18
501.199	25.19
501.4	25.31
501.6	25.32
501.801	25.35
502.001	25.38
502.201	25.41
502.402	25.5
502.602	25.53
502.802	25.5
503.002	25.43
503.203	25.28
503.403	25.31
503.603	25.45
503.803	25.49
504.003	25.64
504.204	25.72
504.404	25.83
504.604	25.84
504.804	25.78
505.004	25.97
505.204	26.06
505.404	26.29
505.604	26.35
505.804	26.34
506.005	26.38
506.205	26.12
506.405	26.37
506.605	26.4
506.805	26.48
507.005	26.53
507.204	26.44
507.404	26.43
507.604	26.41
507.804	26.43
508.004	26.45
508.204	26.49
508.404	26.59
508.604	26.49
508.804	26.5
509.003	26.41
509.203	26.41
509.403	26.44
509.603	26.54
509.803	26.5
510.002	26.36
510.202	26.33
510.402	26.32
510.602	26.36
510.801	26.39
511.001	26.37
511.201	26.47
511.4	26.52
511.6	26.57
511.8	26.52
511.999	26.53
512.199	26.69
512.398	26.84
512.598	26.93
512.797	27.02
512.997	26.89
513.197	27.04
513.396	27.1
513.596	27.13
513.795	27.1
513.994	27.18
514.194	27.16
514.393	27.12
514.593	26.94
514.792	26.96
514.992	26.85
515.191	27.1
515.39	27.04
515.59	27
515.789	27.02
515.988	26.9
516.188	27
516.387	27.11
516.586	27.13
516.786	27.26
516.985	27.39
517.184	27.43
517.383	27.24
517.582	27.25
517.782	27.37
517.981	27.46
518.18	27.67
518.379	27.72
518.578	27.66
518.777	27.68
518.976	27.68
519.176	27.65
519.375	27.7
519.574	27.7
519.773	27.85
519.972	27.83
520.171	27.83
520.37	27.78
520.569	27.51
520.768	27.65
520.967	27.68
521.166	27.73
521.365	27.62
521.564	27.65
521.762	27.81
521.961	27.61
522.16	27.51
522.359	27.52
522.558	27.54
522.757	27.69
522.956	27.7
523.154	27.62
523.353	27.72
523.552	27.89
523.751	27.75
523.949	27.74
524.148	27.87
524.347	27.79
524.546	27.8
524.744	27.7
524.943	27.83
525.142	27.96
525.34	28.02
525.539	27.93
525.737	27.93
525.936	28.04
526.135	28.11
526.333	28.07
526.532	28.26
526.73	28.33
526.929	28.43
527.127	28.41
527.326	28.32
527.524	28.41
527.723	28.57
527.921	28.6
528.12	28.61
528.318	28.54
528.516	28.63
528.715	28.57
528.913	28.59
529.112	28.62
529.31	28.68
529.508	28.73
529.707	28.68
529.905	28.57
530.103	28.64
530.301	28.68
530.5	28.79
530.698	28.75
530.896	28.83
531.094	28.78
531.293	28.78
531.491	28.75
531.689	28.78
531.887	28.89
532.085	29.05
532.283	28.97
532.481	28.95
532.68	28.99
532.878	28.98
533.076	28.92
533.274	29
533.472	29.07
533.67	29.06
533.868	29.07
534.066	29.05
534.264	29
534.462	29.01
534.66	28.98
534.858	28.89
535.056	28.88
535.253	29.06
535.451	29.1
535.649	29.15
535.847	29.22
536.045	29.21
536.243	29.17
536.441	29.1
536.638	29.15
536.836	29.21
537.034	29.24
537.232	29.29
537.43	29.12
537.627	29.11
537.825	29.05
538.023	29.09
538.22	29.06
538.418	29.07
538.616	29.21
538.813	29.1
539.011	29.16
539.209	29.15
539.406	29.24
539.604	29.48
539.801	29.48
539.999	29.55
540.196	29.5
540.394	29.61
540.591	29.73
540.789	29.75
540.986	29.7
541.184	29.65
541.381	29.68
541.579	29.71
541.776	29.73
541.974	29.78
542.171	29.77
542.368	29.84
542.566	29.84
542.763	29.83
542.96	29.77
543.158	29.93
543.355	29.91
543.552	30
543.75	29.89
543.947	29.84
544.144	29.75
544.341	29.69
544.539	29.64
544.736	29.67
544.933	29.54
545.13	29.69
545.327	29.74
545.524	29.8
545.722	29.72
545.919	29.84
546.116	29.95
546.313	30.05
546.51	30.24
546.707	30.3
546.904	30.22
547.101	30.35
547.298	30.34
547.495	30.24
547.692	30.41
547.889	30.54
548.086	30.6
548.283	30.55
548.48	30.56
548.677	30.58
548.874	30.57
549.07	30.76
549.267	30.79
549.464	30.86
549.661	30.91
549.858	30.79
550.055	30.79
550.251	30.85
550.448	31.01
550.645	31.1
550.842	31.24
551.038	31.24
551.235	31.26
551.432	31.36
551.628	31.41
551.825	31.56
552.022	31.51
552.218	31.58
552.415	31.45
552.612	31.3
552.808	31.3
553.005	31.27
553.201	31.5
553.398	31.48
553.594	31.36
553.791	31.31
553.987	31.39
554.184	31.57
554.38	31.58
554.577	31.69
554.773	31.61
554.97	31.6
555.166	31.6
555.362	31.59
555.559	31.72
555.755	31.86
555.952	31.95
556.148	31.74
556.344	31.76
556.541	31.74
556.737	31.79
556.933	32.04
557.129	32.12
557.326	31.92
557.522	31.86
557.718	32.01
557.914	31.91
558.11	32.01
558.307	32.26
558.503	32.53
558.699	32.66
558.895	32.72
559.091	32.72
559.287	32.86
559.483	33
559.679	33.14
559.876	32.96
560.072	33.33
560.268	33.3
560.464	33.28
560.66	33.07
560.856	33.2
561.052	33.51
561.247	33.46
561.443	33.48
561.639	33.53
561.835	33.52
562.031	33.77
562.227	33.62
562.423	33.67
562.619	33.73
562.815	33.93
563.01	34.09
563.206	33.94
563.402	33.92
563.598	33.9
563.793	33.94
563.989	34.06
564.185	33.98
564.381	34.08
564.576	34.04
564.772	34.19
564.968	34.03
565.163	33.87
565.359	33.9
565.555	34.12
565.75	34.14
565.946	34.16
566.141	34.33
566.337	34.22
566.532	34.33
566.728	34.44
566.923	34.36
567.119	34.52
567.314	34.57
567.51	34.77
567.705	34.8
567.901	34.75
568.096	34.78
568.292	34.62
568.487	34.84
568.682	34.76
568.878	34.77
569.073	34.68
569.268	34.63
569.464	34.68
569.659	34.42
569.854	34.24
570.05	34.28
570.245	34.39
570.44	34.39
570.635	34.5
570.831	34.55
571.026	34.72
571.221	34.8
571.416	34.84
571.611	34.8
571.806	34.89
572.002	34.99
572.197	35.16
572.392	35.16
572.587	35.15
572.782	35.11
572.977	35.02
573.172	34.83
573.367	35.09
573.562	35.13
573.757	35.26
573.952	35.27
574.147	35.23
574.342	35.11
574.537	35.19
574.732	35.03
574.927	34.98
575.121	35.02
575.316	35.21
575.511	35.02
575.706	34.92
575.901	34.77
576.096	34.76
576.29	34.94
576.485	35.17
576.68	35.25
576.875	35.35
577.069	35.23
577.264	35.37
577.459	35.14
577.654	35.3
577.848	35.27
578.043	35.32
578.238	35.35
578.432	35.03
578.627	34.97
578.821	34.73
579.016	35.11
579.21	35.42
579.405	35.3
579.6	35.48
579.794	35.24
579.989	35.05
580.183	35.21
580.378	35.35
580.572	35.82
580.766	35.69
580.961	35.6
581.155	35.01
581.35	34.95
581.544	35.18
581.738	35.15
581.933	35.33
582.127	35.67
582.321	35.81
582.516	35.96
582.71	35.67
582.904	35.81
583.099	35.79
583.293	35.93
583.487	35.97
583.681	35.91
583.875	36.14
584.07	36.12
584.264	36.24
584.458	36.17
584.652	35.86
584.846	36.04
585.04	35.79
585.234	35.96
585.428	36.31
585.623	36.37
585.817	36.37
586.011	36.16
586.205	36.04
586.399	36.16
586.593	36.07
586.787	36
586.981	35.98
587.174	36.3
587.368	36.49
587.562	36.55
587.756	36.43
587.95	36.33
588.144	36.49
588.338	36.61
588.532	36.54
588.725	36.59
588.919	36.55
589.113	36.49
589.307	36.55
589.501	36.35
589.694	36.1
589.888	36.02
590.082	36.08
590.275	35.94
590.469	36
590.663	36
590.856	35.99
591.05	36.11
591.244	36.15
591.437	36.28
591.631	36.24
591.824	36.59
592.018	36.7
592.212	36.65
592.405	36.76
592.599	36.58
592.792	36.41
592.986	36.65
593.179	36.78
593.372	36.69
593.566	36.27
593.759	36.38
593.953	36.5
594.146	36.49
594.339	36.96
594.533	36.93
594.726	36.94
594.92	36.97
595.113	36.56
595.306	36.62
595.499	36.5
595.693	36.58
595.886	36.68
596.079	36.48
596.272	36.36
596.466	36.09
596.659	36.18
596.852	36.36
597.045	36.56
597.238	36.75
597.431	36.62
597.624	36.78
597.818	36.67
598.011	36.51
598.204	36.43
598.397	36.5
598.59	36.49
598.783	36.4
598.976	36.21
599.169	36.23
599.362	36.22
599.555	36.57
599.748	36.39
599.941	36.71
600.134	36.9
600.326	36.86
600.519	36.99
600.712	36.85
600.905	36.85
601.098	37.01
601.291	36.99
601.483	37.07
601.676	36.76
601.869	37.11
602.062	36.98
602.255	36.85
602.447	37.06
602.64	36.85
602.833	37.07
603.025	36.9
603.218	36.86
603.411	36.77
603.603	36.61
603.796	36.69
603.989	36.54
604.181	36.53
604.374	36.74
604.566	36.66
604.759	36.83
604.951	36.84
605.144	37.1
605.336	37.11
605.529	37.1
605.721	37.28
605.914	37.11
606.106	37.29
606.299	37.38
606.491	37.38
606.683	37.44
606.876	37.26
607.068	37.11
607.26	36.86
607.453	36.92
607.645	36.9
607.837	36.75
608.03	36.76
608.222	36.64
608.414	36.62
608.606	36.51
608.799	36.85
608.991	37.02
609.183	37.09
609.375	37.27
609.567	37.29
609.759	37.41
609.952	37.44
610.144	37.47
610.336	37.58
610.528	37.52
610.72	37.53
610.912	37.35
611.104	37.34
611.296	37.56
611.488	37.41
611.68	37.42
611.872	37.23
612.064	37.07
612.256	37.09
612.448	37.03
612.64	37.11
612.832	37.17
613.023	37.11
613.215	37.04
613.407	36.79
613.599	36.84
613.791	36.55
613.983	36.39
614.174	36.67
614.366	36.67
614.558	36.72
614.75	36.61
614.941	36.47
615.133	36.51
615.325	36.75
615.516	36.67
615.708	36.75
615.9	37.11
616.091	37.45
616.283	37.41
616.475	37.55
616.666	37.52
616.858	37.54
617.049	37.64
617.241	37.23
617.432	37.05
617.624	37.29
617.815	37.5
618.007	37.22
618.198	36.95
618.39	36.74
618.581	36.53
618.773	36.72
618.964	36.36
619.155	36.37
619.347	36.84
619.538	36.57
619.729	36.12
619.921	35.91
620.112	35.91
620.303	35.89
620.494	35.97
620.686	36.21
620.877	35.74
621.068	36.33
621.259	36.23
621.451	35.96
621.642	36.43
621.833	36.69
622.024	36.77
622.215	36.72
622.406	36.71
622.597	36.61
622.788	36.6
622.98	36.72
623.171	36.58
623.362	36.45
623.553	36.35
623.744	35.81
623.935	35.88
624.126	35.55
624.317	35.81
624.508	35.86
624.698	36.08
624.889	35.78
625.08	35.86
625.271	35.96
625.462	36.22
625.653	36.56
625.844	37.1
626.034	37.18
626.225	37.4
626.416	37.57
626.607	37.6
626.798	37.69
626.988	37.77
627.179	37.59
627.37	37.38
627.56	37.49
627.751	37.11
627.942	36.87
628.132	36.56
628.323	36.72
628.514	36.43
628.704	36.42
628.895	36.3
629.085	36.69
629.276	37
629.466	37.14
629.657	37.02
629.847	37.5
630.038	37.54
630.228	37.91
630.419	37.72
630.609	37.87
630.8	38.03
630.99	38.15
631.181	37.85
631.371	37.31
631.561	37.35
631.752	37.36
631.942	37
632.132	37.15
632.323	37.2
632.513	37.28
632.703	37.3
632.893	37.31
633.084	37.14
633.274	36.93
633.464	37.54
633.654	37.62
633.844	37.36
634.034	37.68
634.225	37.55
634.415	37.4
634.605	37.27
634.795	37.06
634.985	36.83
635.175	36.6
635.365	37.11
635.555	37.09
635.745	36.85
635.935	36.82
636.125	36.6
636.315	36.53
636.505	36.46
636.695	36.61
636.885	36.69
637.075	36.9
637.265	37.35
637.455	36.83
637.644	36.38
637.834	36.47
638.024	36.24
638.214	36.21
638.404	36.27
638.593	36.55
638.783	36.07
638.973	36.36
639.163	36.17
639.352	35.62
639.542	35.97
639.732	36.39
639.921	36.45
640.111	36.86
640.301	36.72
640.49	36.68
640.68	36.35
640.87	36.54
641.059	36.31
641.249	36.53
641.438	36.93
641.628	36.69
641.817	36.64
642.007	36.52
642.196	36.45
642.386	36.79
642.575	36.69
642.764	36.7
642.954	36.8
643.143	36.94
643.333	36.72
643.522	36.9
643.711	37.08
643.901	37.11
644.09	37.47
644.279	37.79
644.469	37.27
644.658	37.01
644.847	37.08
645.036	36.99
645.226	36.65
645.415	36.59
645.604	36.49
645.793	37.01
645.982	36.81
646.171	36.2
646.361	36.26
646.55	36.4
646.739	36.73
646.928	36.91
647.117	37.36
647.306	37.08
647.495	36.96
647.684	36.86
647.873	35.91
648.062	36.19
648.251	36.22
648.44	35.41
648.629	35.98
648.818	35.49
649.007	35.47
649.196	34.96
649.384	35.47
649.573	35.82
649.762	35.8
649.951	36.33
650.14	36.38
650.328	36.84
650.517	36.99
650.706	36.61
650.895	36.99
651.083	36.96
651.272	37.06
651.461	37.34
651.65	37.18
651.838	36.95
652.027	36.84
652.216	36.69
652.404	36.27
652.593	36.71
652.781	36.74
652.97	36.51
653.158	36.14
653.347	36.52
653.535	35.95
653.724	36.44
653.912	36.92
654.101	36.88
654.289	36.61
654.478	37.22
654.666	37.13
654.855	36.99
655.043	37.54
655.231	37.71
655.42	37.06
655.608	37.48
655.796	37
655.985	36.86
656.173	36.75
656.361	36.79
656.55	36.64
656.738	36.63
656.926	36.61
657.114	36.75
657.302	37.02
657.491	37.27
657.679	37.08
657.867	36.94
658.055	36.75
658.243	36.77
658.431	36.48
658.619	36.53
658.807	36.67
658.996	36.9
659.184	36.63
659.372	36.26
659.56	36.73
659.748	36.92
659.936	36.87
660.124	36.96
660.311	36.93
660.499	37.1
660.687	36.97
660.875	37.06
661.063	36.9
661.251	36.68
661.439	36.97
661.627	36.35
661.814	36.32
662.002	36.38
662.19	36.54
662.378	36.84
662.565	36.73
662.753	36.61
662.941	36.38
663.129	36.26
663.316	36.68
663.504	36.58
663.692	36.55
663.879	36.52
664.067	36.62
664.254	36.36
664.442	36.03
664.63	36.19
664.817	36.22
665.005	36.14
665.192	36.17
665.38	36.11
665.567	36.45
665.755	36.69
665.942	36.27
666.13	36.4
666.317	35.88
666.504	36.07
666.692	36.37
666.879	36.48
667.067	36.36
667.254	36.61
667.441	36.26
667.629	35.92
667.816	35.81
668.003	35.86
668.19	36.13
668.378	37.1
668.565	37.38
668.752	37.55
668.939	37.34
669.127	37.49
669.314	37.4
669.501	38.03
669.688	38.34
669.875	38.19
670.062	38.46
670.249	38.09
670.436	37.28
670.623	36.97
670.81	36.84
670.997	37.24
671.184	37.11
671.371	36.87
671.558	36.52
671.745	36.35
671.932	36.22
672.119	36.02
672.306	36.23
672.493	36.48
672.68	36.12
672.867	35.71
673.054	35.4
673.24	35.46
673.427	35.66
673.614	35.59
673.801	35.69
673.988	36.25
674.174	36.22
674.361	36.57
674.548	36.78
674.734	36.72
674.921	36.68
675.108	37.14
675.294	37.08
675.481	36.99
675.668	37.79
675.854	37.84
676.041	37.8
676.227	37.81
676.414	37.16
676.601	37.33
676.787	37.59
676.974	37.93
677.16	37.64
677.347	38.12
677.533	38.23
677.719	37.31
677.906	36.66
678.092	36.04
678.279	35.78
678.465	35.94
678.651	36.15
678.838	36.18
679.024	36.2
679.21	35.87
679.397	35.57
679.583	35.39
679.769	35.41
679.955	35.76
680.142	36.08
680.328	36.21
680.514	36.06
680.7	35.78
680.886	36.17
681.073	36.04
681.259	35.98
681.445	36.03
681.631	35.91
681.817	35.97
682.003	36.06
682.189	36.01
682.375	36.22
682.561	36.71
682.747	36.43
682.933	36.01
683.119	36.29
683.305	36.5
683.491	36.08
683.677	36.66
683.863	36.69
684.049	36.92
684.235	37.26
684.42	36.89
684.606	36.62
684.792	36.9
684.978	37.19
685.164	37.08
685.349	37.29
685.535	37.57
685.721	37.23
685.907	37.18
686.092	36.69
686.278	36.37
686.464	36.52
686.649	36.5
686.835	36.52
687.021	36.47
687.206	36.24
687.392	36.22
687.577	36.39
687.763	36.72
687.948	36.77
688.134	37.45
688.319	37.57
688.505	37.99
688.69	37.68
688.876	37.65
689.061	37.45
689.247	37.45
689.432	37.35
689.618	37.38
689.803	37.32
689.988	37.46
690.174	36.61
690.359	36.57
690.544	36.33
690.73	36.61
690.915	36.92
691.1	36.76
691.285	37.26
691.471	37.56
691.656	37.64
691.841	37.2
692.026	36.93
692.211	37.19
692.396	37.28
692.582	37.33
692.767	37.22
692.952	36.79
693.137	36.99
693.322	36.35
693.507	35.93
693.692	35.91
693.877	35.86
694.062	36.55
694.247	36.96
694.432	36.84
694.617	37
694.802	37.19
694.987	37.15
695.172	36.77
695.357	37.24
695.541	37.29
695.726	37.31
695.911	37.52
696.096	37.47
696.281	36.97
696.466	36.73
696.65	36.39
696.835	36.45
697.02	36.47
697.204	36.4
697.389	36.47
697.574	37.01
697.759	36.92
697.943	36.68
698.128	36.47
698.312	36.82
698.497	37.44
698.682	37.96
698.866	37.87
699.051	37.99
699.235	38.1
699.42	37.95
699.604	37.37
699.789	37.28
699.973	37.07
700.158	37.03
700.342	36.65
700.527	36.36
700.711	35.93
700.895	35.94
701.08	35.76
701.264	35.59
701.448	35.46
701.633	35.32
701.817	35.19
702.001	35.71
702.186	35.32
702.37	34.96
702.554	34.61
702.738	33.96
702.923	34.78
703.107	34.43
703.291	35.3
703.475	35.43
703.659	35.74
703.843	36.5
704.027	36.19
704.212	37.06
704.396	36.99
704.58	36.61
704.764	37.05
704.948	35.82
705.132	35.55
705.316	35.31
705.5	34.84
705.684	34.78
705.868	34.48
706.052	34.87
706.235	33.85
706.419	34.4
706.603	35.03
706.787	36.2
706.971	35.68
707.155	36.42
707.339	36.22
707.522	35.99
707.706	35.67
707.89	34.83
708.074	34.78
708.257	34.94
708.441	35.15
708.625	34.82
708.808	33.62
708.992	34.66
709.176	33.98
709.359	33.54
709.543	34.07
709.727	34.7
709.91	34.54
710.094	34.73
710.277	35.31
710.461	35.19
710.644	34.87
710.828	35.06
711.011	34.73
711.195	35.67
711.378	35.9
711.562	35.96
711.745	35.8
711.928	36.62
712.112	36.36
712.295	36.58
712.478	36.69
712.662	37.41
712.845	36.67
713.028	36.87
713.212	35.73
713.395	35.62
713.578	35.11
713.761	34.71
713.945	34.25
714.128	33.94
714.311	33.36
714.494	33.57
714.677	33.26
714.86	33.5
715.043	33.51
715.227	34.01
715.41	34.2
715.593	34.55
715.776	34.97
715.959	35.77
716.142	35.79
716.325	35.88
716.508	35.19
716.691	34.72
716.874	34.48
717.057	34.33
717.239	34.29
717.422	34.35
717.605	34.3
717.788	33.86
717.971	33.67
718.154	33.78
718.337	33.69
718.519	34.05
718.702	33.71
718.885	34.71
719.068	34.93
719.25	36.01
719.433	35.63
719.616	35.75
719.798	36.05
719.981	36.15
720.164	37.12
720.346	37.09
720.529	36.99
720.712	37.82
720.894	38.06
721.077	37.19
721.259	36.91
721.442	36.62
721.624	35.52
721.807	35.55
721.989	34.95
722.172	34.58
722.354	33.91
722.537	33.31
722.719	32.8
722.901	32.23
723.084	32.7
723.266	31.85
723.448	32.76
723.631	33.97
723.813	34.3
723.995	33.83
724.178	33.24
724.36	33.6
724.542	34.11
724.724	34.93
724.907	35.08
725.089	33.84
725.271	33.86
725.453	33.59
725.635	33.25
725.817	32.86
725.999	33.05
726.181	33.71
726.364	33.8
726.546	33.25
726.728	32.9
726.91	32.08
727.092	32.5
727.274	32.56
727.456	32.56
727.638	32.27
727.819	31.58
728.001	31.74
728.183	31.51
728.365	31.24
728.547	32.41
728.729	33.3
728.911	34.27
729.093	34.81
729.274	35.19
729.456	35.78
729.638	36.13
729.82	36.46
730.001	36.5
730.183	36.47
730.365	36.84
730.546	36.46
730.728	36.34
730.91	35.5
731.091	35.22
731.273	35.16
731.455	35.02
731.636	35.73
731.818	35.56
731.999	35.94
732.181	34.92
732.362	34.98
732.544	35.13
732.725	34.96
732.907	34.49
733.088	34.73
733.27	35.17
733.451	33.8
733.633	33.17
733.814	33.26
733.995	32.37
734.177	33.47
734.358	32.75
734.539	33.08
734.721	33.11
734.902	33.92
735.083	32.93
735.264	32.1
735.446	32.87
735.627	32.78
735.808	32.73
735.989	32.53
736.17	31.84
736.351	32.27
736.533	32.26
736.714	31
736.895	30.06
737.076	31.38
737.257	30.73
737.438	31.15
737.619	31.64
737.8	31.98
737.981	33.74
738.162	34.34
738.343	34.5
738.524	34.2
738.705	34.68
738.886	35.52
739.067	35.2
739.247	36.31
739.428	35.43
739.609	35.58
739.79	36.08
739.971	34.77
740.151	34.57
740.332	34.43
740.513	33.87
740.694	33.07
740.874	33.23
741.055	34.06
741.236	34.03
741.417	34.62
741.597	33.54
741.778	33.71
741.958	34.25
742.139	34.13
742.32	33.86
742.5	34.15
742.681	34.48
742.861	34.17
743.042	33.37
743.222	33.76
743.403	32.66
743.583	33.37
743.764	33.25
743.944	32.04
744.124	31.59
744.305	32.31
744.485	31.2
744.666	33.11
744.846	33.68
745.026	34.79
745.207	34.58
745.387	34.75
745.567	34.77
745.747	33.08
745.928	33.61
746.108	34.71
746.288	34.04
746.468	34.96
746.648	33.74
746.829	32.39
747.009	30.47
747.189	29.63
747.369	30.79
747.549	30.87
747.729	31.77
747.909	32.62
748.089	31.99
748.269	32.25
748.449	31.81
748.629	31.65
748.809	31.51
748.989	32.39
749.169	32.75
749.349	32
749.529	31.21
749.709	30.26
749.889	30.04
750.068	30.35
750.248	31.34
750.428	31.6
750.608	31.22
750.788	33.34
750.967	33.52
751.147	33.46
751.327	33.53
751.507	33.07
751.686	34.12
751.866	34.17
752.046	33.93
752.225	32.15
752.405	31.56
752.585	30.99
752.764	29.89
752.944	29.16
753.123	28.01
753.303	27.78
753.482	28.68
753.662	29.39
753.841	29.64
754.021	29.02
754.2	29.84
754.38	30.59
754.559	31.45
754.739	30.5
754.918	30.51
755.097	31.86
755.277	33.16
755.456	31.92
755.635	30.32
755.815	29.51
755.994	28.56
756.173	28.12
756.352	27.69
756.532	27.98
756.711	27.92
756.89	27.98
757.069	27.72
757.248	26.54
757.427	27.41
757.607	27.89
757.786	27.77
757.965	29.46
758.144	30.58
758.323	30.34
758.502	29.83
758.681	31.32
758.86	31.33
759.039	30.69
759.218	30.26
759.397	30.71
759.576	29.64
759.755	30.14
759.934	30.79
760.113	31.13
760.291	31.33
760.47	33.01
760.649	33.39
760.828	34.27
761.007	35.56
761.186	37.95
761.364	38.13
761.543	40.07
761.722	40.75
761.901	38.15
762.079	38.01
762.258	37.49
762.437	36.89
762.615	35.27
762.794	34.51
762.972	33.92
763.151	32.26
763.33	31.48
763.508	30.72
763.687	29.97
763.865	31.53
764.044	31.18
764.222	30.61
764.401	29.92
764.579	31.13
764.758	31.69
764.936	31.54
765.114	32.01
765.293	32.41
765.471	33.34
765.65	32.88
765.828	31.68
766.006	30.93
766.184	31.31
766.363	30.89
766.541	29.8
766.719	30.17
766.898	31.22
767.076	31.41
767.254	30.97
767.432	30.33
767.61	31.44
767.788	31.79
767.967	32.74
768.145	33.5
768.323	34.49
768.501	34.54
768.679	34.04
768.857	32.68
769.035	32.94
769.213	34.24
769.391	33.59
769.569	31.74
769.747	31.36
769.925	30.74
770.103	31.2
770.281	31.34
770.459	32.87
770.636	31.9
770.814	32.61
770.992	32.57
771.17	30.48
771.348	30.82
771.525	30.45
771.703	32.87
771.881	33.03
772.059	34.64
772.236	32.74
772.414	31.48
772.592	33.6
772.769	33.73
772.947	32.94
773.125	34.83
773.302	36.28
773.48	38.96
773.657	36.75
773.835	37.04
774.013	34.78
774.19	35.09
774.368	35.04
774.545	33.55
774.723	32.23
774.9	30.87
775.077	30.21
775.255	29.89
775.432	28.31
775.61	28.82
775.787	29.53
775.964	27.18
776.142	29.15
776.319	28.72
776.496	29.09
776.674	27.29
776.851	28.54
777.028	29.65
777.205	26.47
777.382	24.8
777.56	25.07
777.737	24.6
777.914	26.03
778.091	23.87
778.268	24.37
778.445	24.87
778.622	25.48
778.8	25.86
778.977	22.14
779.154	21.84
779.331	21.77
779.508	22.42
779.685	22.37
779.862	23.31
780.038	25.21
780.215	26.44
780.392	26.49
780.569	27.15
780.746	27.69
780.923	30.66
781.1	31.96
781.277	33.74
781.453	31.26
781.63	31.58
781.807	31.27
781.984	30.55
782.16	29.05
782.337	26.81
782.514	28.12
782.691	25.88
782.867	23.89
783.044	23.81
783.221	20.62
783.397	24.93
783.574	24.5
783.75	23.97
783.927	23.51
784.103	22.88
784.28	23.4
784.456	21.79
784.633	23.73
784.809	23.66
784.986	20.71
785.162	23.04
785.339	20.39
785.515	15.96
785.692	17.13
785.868	17.9
786.044	17.64
786.221	13.6
786.397	16.48
786.573	16.61
786.749	16.77
786.926	20.75
787.102	22.39
787.278	22.69
787.454	26.32
787.631	28.02
787.807	27.52
787.983	27.47
788.159	31.92
788.335	30.39
788.511	30.49
788.687	30.83
788.863	30.07
789.039	28.29
789.216	28.69
789.392	27.11
789.568	26.82
789.744	29.57
789.919	31.53
790.095	31.28
790.271	32.5
790.447	30.14
790.623	29.99
790.799	30.56
790.975	33.02
791.151	33.48
791.327	32.01
791.502	30.71
791.678	27.17
791.854	25.18
792.03	23.29
792.205	19.93
792.381	22.44
792.557	23.4
792.733	23.74
792.908	23.23
793.084	24.05
793.259	26.83
793.435	27.47
793.611	28.65
793.786	30.06
793.962	30.04
794.137	30.46
794.313	30.22
794.488	31.7
794.664	31.5
794.839	28.83
795.015	30.18
795.19	28.67
795.366	28.96
795.541	28.43
795.716	27.3
795.892	26.48
796.067	29.81
796.242	29.71
796.418	29.16
796.593	30.51
796.768	33.3
796.944	32.27
797.119	34.17
797.294	34.61
797.469	36.08
797.644	35.65
797.82	38.06
797.995	38.25
798.17	39.07
798.345	39.19
798.52	36.54
798.695	36.91
798.87	37.23
799.045	34.91
799.22	34.81
799.395	33.69
799.57	33.65
799.745	33.4
799.92	29.92
800.095	30.63
800.27	26.66
800.445	27.57
800.62	28.82
800.795	26.14
800.97	29.28
801.145	31.28
801.319	32.89
801.494	31.33
801.669	29.27
801.844	31.87
802.018	29.6
802.193	33.41
802.368	35.05
802.543	31.28
802.717	31.67
802.892	32.59
803.067	29.33
803.241	30.04
803.416	34.57
803.59	33.98
803.765	32.42
803.94	34.5
804.114	35.62
804.289	34.09
804.463	35.45
804.638	36.91
804.812	36.38
804.986	36.93
805.161	34.87
805.335	33.28
805.51	34.9
805.684	35.44
805.858	35.51
806.033	30.18
806.207	32.25
806.381	30.79
806.556	30.32
806.73	30.78
806.904	31.5
807.078	29.4
807.253	29.64
807.427	30.13
807.601	29.08
807.775	23.91
807.949	30.48
808.123	27.12
808.298	24.69
808.472	21.84
808.646	18.36
808.82	15.96
808.994	16.65
809.168	16.51
809.342	13.44
809.516	14.82
809.69	18.14
809.864	15.77
810.038	18.64
810.212	21.14
810.385	20
810.559	20.91
810.733	20.88
810.907	30.32
811.081	26.98
811.255	29.35
811.428	30.03
811.602	26.16
811.776	24.56
811.95	24.34
812.123	25.52
812.297	21.13
812.471	18.81
812.644	17.44
812.818	8.29
812.992	12.72
813.165	13.98
813.339	14.25
813.512	18.33
813.686	18.21
813.86	15.76
814.033	13.97
814.207	19.88
814.38	23.52
814.554	25.9
814.727	24.5
814.9	22.05
815.074	22.58
815.247	20.98
815.421	15.51
815.594	16.87
815.767	17.11
815.941	17.33
816.114	18.6
816.287	18.44
816.46	16.43
816.634	15.07
816.807	17.1
816.98	18.3
817.153	18.4
817.327	21.29
817.5	20.64
817.673	23.18
817.846	25.88
818.019	24.46
818.192	24.24
818.365	25.26
818.538	28.82
818.711	29.5
818.884	26.22
819.057	23.95
819.23	24.99
819.403	25.71
819.576	26.97
819.749	27.95
819.922	31.53
820.095	32.36
820.268	33.15
820.441	31.01
820.614	30.36
820.786	30.2
820.959	33.66
821.132	35.11
821.305	35.33
821.477	34.32
821.65	33.41
821.823	32.57
821.996	33.12
822.168	32.44
822.341	33.07
822.514	33.59
822.686	33.44
822.859	33.42
823.031	33.42
823.204	33.74
823.376	33.74
823.549	34.42
823.722	34.37
823.894	33.26
824.067	33.63
824.239	32.04
824.411	31.73
824.584	31.28
824.756	29.95
824.929	28.9
825.101	27.58
825.273	28.19
825.446	27.48
825.618	28.04
825.79	28.8
825.963	29.27
826.135	31.1
826.307	31.93
826.479	33.27
826.652	33.09
826.824	32.86
826.996	34.25
827.168	33.89
827.34	33.31
827.512	32.31
827.684	30.86
827.856	30.15
828.029	30.65
828.201	30.03
828.373	29.89
828.545	31.52
828.717	32.11
828.889	30.33
829.061	28.71
829.232	27.46
829.404	27.61
829.576	28.46
829.748	26.61
829.92	24.38
830.092	21.84
830.264	21.83
830.436	17.92
830.607	16.13
830.779	16.07
830.951	15.17
831.123	17.97
831.294	16.73
831.466	16.44
831.638	16.12
831.809	17.89
831.981	18.03
832.153	17.1
832.324	16.49
832.496	15.08
832.667	15.82
832.839	16.53
833.011	18.09
833.182	19.72
833.354	18.39
833.525	18.97
833.697	15.73
833.868	16.5
834.039	16.48
834.211	18
834.382	20.78
834.554	21.17
834.725	20.55
834.896	18.44
835.068	17.94
835.239	17.97
835.41	17.24
835.581	19.68
835.753	19.36
835.924	19.06
836.095	20.31
836.266	19.1
836.438	19.13
836.609	20.68
836.78	22.96
836.951	26.16
837.122	26.48
837.293	30.79
837.464	29.55
837.635	31.86
837.806	33.14
837.977	34.25
838.148	33.39
838.319	32.65
838.49	29.94
838.661	29.51
838.832	25.12
839.003	28.2
839.174	25.96
839.345	35.07
839.516	34.82
839.687	34.74
839.857	31.72
840.028	32.2
840.199	33.04
840.37	33.93
840.54	32.12
840.711	35.74
840.882	33.39
841.053	32.32
841.223	26.26
841.394	30.49
841.564	28.83
841.735	29.63
841.906	33.82
842.076	33.96
842.247	35.98
842.417	37.07
842.588	31
842.758	37.57
842.929	38.12
843.099	41.18
843.27	31.32
843.44	41
843.611	43.8
843.781	40.66
843.951	38.16
844.122	35.53
844.292	26.77
844.462	30.64
844.633	22.99
844.803	18.24
844.973	8.84
845.144	6.18
845.314	9.15
845.484	3.12
845.654	6.72
845.824	3.77
845.995	0.26
846.165	4.61
846.335	-2.62
846.505	1.3
846.675	11.37
846.845	2.06
847.015	15.31
847.185	-10.98
847.355	-46.32
847.525	-42.55
847.695	-37.68
847.865	-15.99
848.035	-21.59
848.205	-9.31
848.375	-19.29
848.545	-27.69
848.715	-16.28
848.884	-22.34
849.054	-9.9
849.224	3.07
849.394	2.99
849.564	14.52
849.733	7.92
849.903	13.49
850.073	13.98
850.243	29.11
850.412	35.21
850.582	44.86
850.752	47.2
850.921	47.25
851.091	41.94
851.26	35.97
851.43	26.55
851.599	20.73
851.769	26.66
851.939	21.08
852.108	16.39
852.278	2.9
852.447	-15.34
852.616	-4.89
852.786	8.74
852.955	30.31
853.125	43.53
853.294	42.38
853.463	50.86
853.633	47.02
853.802	49.39
853.971	43.58
854.141	52.1
854.31	60.76
854.479	68.06
854.648	58.99
854.818	52.72
854.987	33.01
855.156	27.98
855.325	28.08
855.494	26
855.663	31.34
855.832	24.6
856.001	31.89
856.171	27.51
856.34	19.78
856.509	14.79
856.678	16.28
856.847	20.26
857.016	22.66
857.185	15.7
857.353	16.21
857.522	22.9
857.691	32.45
857.86	-2.19
858.029	-3.35
858.198	-17.2
858.367	-11.53
858.535	-16.72
858.704	-9.61
858.873	-12.61
859.042	-3.72
859.21	2.38
859.379	-20.04
859.548	-0.43
859.717	8.54
859.885	5
860.054	18.64
860.222	12.48
860.391	9.89
860.56	8.98
860.728	27.3
860.897	23.11
861.065	8.62
861.234	19.76
861.402	-3.72
861.571	-15.4
861.739	-7.91
861.908	-3.8
862.076	3.18
862.244	-4.1
862.413	-15.44
862.581	-72.72
862.749	-46.17
862.918	-40.12
863.086	-41.56
863.254	-29.2
863.423	-22.3
863.591	-28.19
863.759	-30.09
863.927	-26.38
864.096	-10.24
864.264	0.4
864.432	16.48
864.6	8.4
864.768	7.5
864.936	2.64
865.104	2.21
865.272	13.47
865.44	11.73
865.608	18.35
865.776	2.62
865.944	5.41
866.112	-14.69
866.28	-10.73
866.448	-0.05
866.616	3.12
866.784	1.59
866.952	11
867.12	10
867.288	6.96
867.455	-0.12
867.623	11.22
867.791	9.97
867.959	12.82
868.127	19.35
868.294	3.88
868.462	7
868.63	8.12
868.797	-24.88
868.965	-4.57
869.133	16.03
869.3	-6.38
869.468	-4.12
869.636	-27.02
869.803	-4.34
869.971	-27.26
870.138	-0.08
870.306	-9.93
870.473	7.12
870.641	2.8
870.808	-2.52
870.975	-5.66
871.143	9.62
871.31	13.87
871.478	10.42
871.645	15.56
871.812	30.01
871.98	26.11
872.147	24.87
872.314	16.14
872.482	25.64
872.649	18.32
872.816	20.37
872.983	6.89
873.15	-3.95
873.318	6.42
873.485	-11.04
873.652	-27.45
873.819	-29.43
873.986	-24.66
874.153	-30.12
874.32	-16.66
874.487	-9.41
874.654	-16.03
874.821	-6.95
874.988	-6.3
875.155	-8.05
875.322	10.77
875.489	14.88
875.656	20.3
875.823	21.63
875.99	14.6
876.157	17.36
876.324	12.88
876.49	20.76
876.657	16.31
876.824	12.05
876.991	10.2
877.157	12.16
877.324	10
877.491	4.46
877.658	1.07
877.824	7.26
877.991	7.97
878.157	8.91
878.324	-0.88
878.491	11.62
878.657	-0.65
878.824	3.88
878.99	2.41
879.157	12.16
879.323	11.99
879.49	18.32
879.656	21.86
879.823	17.98
879.989	12.85
880.156	9.76
880.322	5.88
880.488	7.44
880.655	-1.81
880.821	-11.26
880.987	-26.33
881.154	-32.76
881.32	-22.91
881.486	-14.54
881.652	-3.61
881.819	5.55
881.985	9.58
882.151	8.15
882.317	11.34
882.483	15.88
882.649	20.04
882.816	23.68
882.982	27.05
883.148	27.85
883.314	29.02
883.48	24.56
883.646	25.71
883.812	25.25
883.978	26.65
884.144	29.88
884.31	29.25
884.476	24.67
884.642	25.9
884.807	25.1
884.973	21.72
885.139	20.56
885.305	25.42
885.471	22.98
885.637	23.47
885.802	23.92
885.968	21.46
886.134	22.81
886.3	23.37
886.465	17.99
886.631	19.42
886.797	24.44
886.962	18.05
887.128	10.87
887.293	9.4
887.459	2.22
887.625	-8.75
887.79	-12.06
887.956	-20.28
888.121	-13.49
888.287	-11.18
888.452	-21.92
888.618	-45.57
888.783	-29.4
