Data from 2938044_Reflection_3.txt Node
Date: Sun Jul 12 14:30:50 EDT 2015
User: robert
Spectrometer: USB4E03001
Autoset integration time: false
Trigger mode: 4
Integration Time (sec): 1.000000E-1
Scans to average: 10
Electric dark correction enabled: true
Nonlinearity correction enabled: false
Boxcar width: 5
Stray light correction enabled: false
XAxis mode: Wavelengths
Stop averaging: false
Number of Pixels in Spectrum: 3648
>>>>>Begin Spectral Data<<<<<
177.566	131.99
177.785	-272.9
178.005	-158.28
178.225	-79.01
178.445	-165.95
178.665	55.88
178.885	42.5
179.105	22.58
179.324	120.53
179.544	150.88
179.764	35.39
179.984	-55.47
180.204	178.11
180.423	142.15
180.643	81.78
180.863	53.2
181.083	372.44
181.302	-29933.33
181.522	164.62
181.742	227.44
181.961	158.92
182.181	270.13
182.401	93.65
182.621	88.53
182.84	163.22
183.06	94.7
183.279	605.67
183.499	579.37
183.719	141.56
183.938	137.61
184.158	87.01
184.377	89.69
184.597	74.86
184.816	66.83
185.036	67.19
185.256	57.01
185.475	96.62
185.695	72.59
185.914	55.93
186.134	71.76
186.353	88.02
186.572	77.33
186.792	96.34
187.011	110.06
187.231	64.45
187.45	107.46
187.67	361.27
187.889	194.02
188.108	91.24
188.328	85.96
188.547	110.41
188.766	42.12
188.986	83.68
189.205	55.17
189.424	27.6
189.644	61.6
189.863	50.73
190.082	40.52
190.302	38.11
190.521	37.79
190.74	44.68
190.959	30.97
191.178	25.44
191.398	14.02
191.617	7.43
191.836	-27.48
192.055	71.58
192.274	10
192.494	103.37
192.713	1110.13
192.932	232.6
193.151	-10.16
193.37	66.31
193.589	97.18
193.808	-154.52
194.027	362.44
194.246	151.03
194.465	76.87
194.685	77.56
194.904	105.81
195.123	109.38
195.342	60.25
195.561	23.28
195.78	29.8
195.999	7.24
196.218	46.68
196.436	-156.72
196.655	158.49
196.874	20.22
197.093	50.31
197.312	118.7
197.531	-34.15
197.75	43.28
197.969	-1134.23
198.188	-586.86
198.407	-606.86
198.625	-89.4
198.844	26.11
199.063	19.6
199.282	-14.63
199.501	12.36
199.719	43.27
199.938	60.35
200.157	121.69
200.376	188.62
200.594	144.81
200.813	135.49
201.032	158.49
201.251	121.75
201.469	123.43
201.688	103.58
201.907	95.11
202.125	126.81
202.344	103.9
202.563	87.12
202.781	151.35
203	153.13
203.218	203.16
203.437	187.55
203.656	169.38
203.874	168.6
204.093	335.29
204.311	371.98
204.53	55.12
204.748	225.82
204.967	64.01
205.185	55.27
205.404	9621.87
205.622	-414.36
205.841	-129.83
206.059	-145.62
206.278	-133.05
206.496	-76.9
206.715	87.17
206.933	141.17
207.151	73.21
207.37	120.6
207.588	62.66
207.806	483.42
208.025	295.93
208.243	271.48
208.461	213.87
208.68	181.28
208.898	156.11
209.116	126.78
209.335	169.83
209.553	167.71
209.771	129.44
209.989	114.58
210.208	96.84
210.426	90.8
210.644	86.29
210.862	94.48
211.081	75.76
211.299	96.12
211.517	99.45
211.735	85.81
211.953	107.46
212.171	141.54
212.39	227.13
212.608	449.24
212.826	1409.86
213.044	-448.01
213.262	9106.06
213.48	-2626.87
213.698	178.85
213.916	126.95
214.134	80.73
214.352	47.18
214.57	54.41
214.788	58.57
215.006	42.3
215.224	40.91
215.442	34.56
215.66	29.47
215.878	8.29
216.096	13.47
216.314	1.17
216.532	21.94
216.75	24.02
216.968	23.87
217.185	25.04
217.403	4.05
217.621	-8.81
217.839	6.41
218.057	13.11
218.275	29.28
218.492	37.71
218.71	59.36
218.928	37.39
219.146	48.13
219.363	30.81
219.581	40.72
219.799	45.24
220.017	58.41
220.234	35.15
220.452	55.39
220.67	27.23
220.887	8.9
221.105	-25.8
221.323	8.56
221.54	0.8
221.758	-8.15
221.976	-53.94
222.193	-33.78
222.411	-41.15
222.629	-14.41
222.846	-57.95
223.064	-34.19
223.281	-23.88
223.499	1.76
223.716	-29.76
223.934	-50.1
224.151	-45.34
224.369	-14.27
224.586	9.92
224.804	20.01
225.021	23.49
225.239	35.28
225.456	32.46
225.674	39.11
225.891	24.48
226.108	31.23
226.326	31.28
226.543	31.52
226.76	19.01
226.978	6.44
227.195	10.57
227.413	9.74
227.63	13.95
227.847	16.17
228.064	12.59
228.282	12.55
228.499	15.58
228.716	16.65
228.934	15.46
229.151	15.78
229.368	17.57
229.585	16.73
229.802	15.97
230.02	13.44
230.237	9.87
230.454	10.77
230.671	9.76
230.888	8.42
231.105	7.16
231.323	3.54
231.54	4.29
231.757	-2.56
231.974	-3.63
232.191	-5.27
232.408	-3.97
232.625	-6.54
232.842	-1.43
233.059	5.74
233.276	3.54
233.493	4.2
233.71	9.5
233.927	5.14
234.144	14.57
234.361	15.67
234.578	18.74
234.795	20.59
235.012	23.2
235.229	23.34
235.446	21.21
235.663	20.1
235.879	19.72
236.096	25.47
236.313	23.95
236.53	25.34
236.747	25.22
236.964	25.25
237.181	22.44
237.397	18.76
237.614	13.61
237.831	11.55
238.048	10.57
238.264	8.53
238.481	6.95
238.698	12.66
238.915	10.01
239.131	10.17
239.348	7.94
239.565	10.13
239.781	13.22
239.998	14.59
240.215	13.79
240.431	14.82
240.648	14.03
240.865	12.61
241.081	12.71
241.298	13.44
241.514	12.11
241.731	12.12
241.947	10.58
242.164	11.05
242.38	9.24
242.597	9.02
242.814	8.91
243.03	8.42
243.246	7.63
243.463	6.69
243.679	6.24
243.896	7.25
244.112	6.99
244.329	5.78
244.545	5.2
244.762	6.97
244.978	8.26
245.194	8.81
245.411	8.52
245.627	10
245.843	10.11
246.06	7.32
246.276	6.23
246.492	5.54
246.709	5.86
246.925	5.43
247.141	5.26
247.357	4.68
247.574	3.42
247.79	3.12
248.006	2.6
248.222	2.16
248.439	3.08
248.655	2.78
248.871	2.17
249.087	3.13
249.303	3
249.519	3.21
249.736	2.92
249.952	4.13
250.168	4.65
250.384	3.56
250.6	3.21
250.816	2.96
251.032	5.26
251.248	6.65
251.464	4.86
251.68	6.94
251.896	5.65
252.112	5.87
252.328	5.27
252.544	6.59
252.76	8.89
252.976	9.75
253.192	9
253.408	6.65
253.624	6.97
253.84	8.43
254.056	5.34
254.272	5.74
254.487	8.25
254.703	10.16
254.919	8.97
255.135	5.42
255.351	3.21
255.567	8.02
255.782	9.94
255.998	9.93
256.214	9.86
256.43	11.65
256.646	12.26
256.861	10.75
257.077	7.99
257.293	6.71
257.508	8.25
257.724	8.41
257.94	7.16
258.155	4.92
258.371	4.05
258.587	2.69
258.802	2.28
259.018	1.24
259.234	1.43
259.449	1.82
259.665	2.18
259.88	2.37
260.096	2.63
260.312	2
260.527	3.26
260.743	3.47
260.958	3.55
261.174	3.2
261.389	4.4
261.605	3.51
261.82	3.6
262.036	4.47
262.251	4.52
262.466	4.39
262.682	4.44
262.897	3.78
263.113	4.26
263.328	5.5
263.543	6.29
263.759	7.71
263.974	9.94
264.189	9.68
264.405	7.44
264.62	6.7
264.835	5.41
265.051	5.16
265.266	4.28
265.481	4.93
265.696	3.76
265.912	4.41
266.127	2.23
266.342	1.28
266.557	2.51
266.773	4.13
266.988	3.74
267.203	4.79
267.418	6.02
267.633	7
267.848	5.51
268.064	5.64
268.279	4.59
268.494	5.13
268.709	6.13
268.924	3.86
269.139	2.93
269.354	3.58
269.569	3.29
269.784	2.72
269.999	2.1
270.214	2.25
270.429	2.21
270.644	3.83
270.859	3.04
271.074	3.17
271.289	4.08
271.504	4.56
271.719	4.04
271.934	3.43
272.149	2.4
272.363	3.09
272.578	3.68
272.793	4
273.008	3.46
273.223	3.06
273.438	2.34
273.653	2.36
273.867	2.37
274.082	2.97
274.297	2.85
274.512	3.98
274.726	4.1
274.941	3.48
275.156	2.76
275.371	2.67
275.585	3.6
275.8	3.02
276.015	3.95
276.229	3.16
276.444	1.52
276.659	1.97
276.873	0.32
277.088	-0.21
277.302	1.31
277.517	1.78
277.732	1.15
277.946	1.22
278.161	1.43
278.375	1.12
278.59	2.07
278.804	2.75
279.019	2.05
279.233	3.42
279.448	4.06
279.662	2.51
279.877	2.34
280.091	2.65
280.306	2.66
280.52	1.68
280.735	1.75
280.949	0.66
281.163	1.01
281.378	3.33
281.592	3.6
281.806	2.91
282.021	3.32
282.235	3.28
282.449	4.2
282.664	3.89
282.878	5.94
283.092	5.76
283.307	6.52
283.521	7.84
283.735	7.33
283.949	6.64
284.164	7.23
284.378	7.24
284.592	8.31
284.806	7.56
285.02	7.96
285.234	7.66
285.449	7.71
285.663	7.68
285.877	6.92
286.091	6.7
286.305	7.67
286.519	7.38
286.733	7.7
286.947	6.66
287.161	6.99
287.375	7.27
287.589	6.75
287.803	7.77
288.017	8.29
288.231	8.02
288.445	8.18
288.659	6.97
288.873	6.08
289.087	5.59
289.301	7.01
289.515	6.51
289.729	6.48
289.943	5.77
290.157	5.21
290.371	3.15
290.584	4
290.798	3.92
291.012	5.74
291.226	6.44
291.44	6.65
291.654	5.64
291.867	6.41
292.081	5.47
292.295	5.07
292.509	5
292.722	7.3
292.936	6.87
293.15	6.15
293.364	5.03
293.577	3.51
293.791	4.54
294.005	5.22
294.218	5.55
294.432	5.8
294.645	7.98
294.859	7.98
295.073	7.51
295.286	6.09
295.5	6.81
295.713	6.2
295.927	6.86
296.14	4.7
296.354	3.91
296.568	3.29
296.781	4.75
296.994	4.61
297.208	4
297.421	4.63
297.635	5.66
297.848	5.55
298.062	6.12
298.275	6.21
298.489	7.71
298.702	7.53
298.915	8.06
299.129	6.57
299.342	5.76
299.555	6.66
299.769	6.81
299.982	7.11
300.195	7.02
300.409	6.12
300.622	7.03
300.835	6.26
301.048	7.31
301.262	5.97
301.475	7.1
301.688	6.82
301.901	5.9
302.115	5.92
302.328	5.08
302.541	5.07
302.754	5.55
302.967	4.78
303.18	4.77
303.393	5
303.607	5.42
303.82	4.03
304.033	5.05
304.246	6.76
304.459	6.71
304.672	8.13
304.885	9.4
305.098	9.85
305.311	9.91
305.524	10.54
305.737	8.94
305.95	9.22
306.163	10.1
306.376	11.22
306.589	9.63
306.802	9.76
307.015	6.94
307.228	6.12
307.44	6.09
307.653	6.74
307.866	7.85
308.079	9.94
308.292	10.87
308.505	10.65
308.718	9.97
308.93	10.92
309.143	9.56
309.356	11.8
309.569	11.48
309.781	11.74
309.994	11.71
310.207	10.56
310.42	9.47
310.632	9.66
310.845	9.47
311.058	9.05
311.27	8.98
311.483	9.46
311.696	8.72
311.908	8.1
312.121	7.31
312.333	6.1
312.546	6.34
312.759	6.31
312.971	5
313.184	5.36
313.396	5.19
313.609	5.37
313.821	5.05
314.034	4.98
314.246	5.11
314.459	5.9
314.671	6.47
314.884	6.06
315.096	6.6
315.309	7.09
315.521	7.74
315.733	8.11
315.946	7.99
316.158	9.94
316.371	9.65
316.583	11.55
316.795	11.14
317.008	11.05
317.22	11.65
317.432	11.51
317.644	12.47
317.857	11.98
318.069	12.07
318.281	12.78
318.494	12.91
318.706	13.81
318.918	12.77
319.13	12.14
319.342	13.38
319.555	12.85
319.767	12.62
319.979	11.89
320.191	13.11
320.403	11.3
320.615	10.9
320.827	9.5
321.039	8.69
321.252	9.23
321.464	10.76
321.676	11.04
321.888	11.2
322.1	12.98
322.312	13.31
322.524	13.83
322.736	15.1
322.948	14.43
323.16	14.72
323.372	15.16
323.584	14.29
323.796	13.11
324.007	13.04
324.219	12.8
324.431	12.52
324.643	12.63
324.855	11.39
325.067	11.52
325.279	12.42
325.491	11.43
325.702	11.18
325.914	11.61
326.126	12.74
326.338	12.7
326.55	13.39
326.761	13.27
326.973	12.03
327.185	12.2
327.396	13.4
327.608	12.02
327.82	13.91
328.032	14.47
328.243	14.02
328.455	13.55
328.666	13.87
328.878	14.89
329.09	14.1
329.301	15.18
329.513	13.71
329.725	13.3
329.936	14.12
330.148	14.78
330.359	15.7
330.571	16.56
330.782	14.99
330.994	14.78
331.205	14.21
331.417	15.78
331.628	16.53
331.84	17.98
332.051	19.03
332.262	19.21
332.474	17.75
332.685	18.47
332.897	19.05
333.108	20.97
333.319	21.15
333.531	21.79
333.742	21.04
333.953	21.24
334.165	21.55
334.376	21.71
334.587	22.79
334.799	23.56
335.01	23.14
335.221	23.16
335.432	23.72
335.644	23.81
335.855	24.04
336.066	24.39
336.277	23.93
336.488	24.83
336.7	23.76
336.911	24.14
337.122	24.55
337.333	23.53
337.544	23.82
337.755	22.88
337.966	22.98
338.177	23.22
338.388	23.46
338.599	25.37
338.811	24.01
339.022	25.08
339.233	24.33
339.444	22.86
339.655	23.78
339.866	23.43
340.076	23.91
340.287	24.36
340.498	23.43
340.709	23.44
340.92	22.19
341.131	22.91
341.342	21.76
341.553	21.58
341.764	22.1
341.975	21.83
342.185	22.16
342.396	22.33
342.607	22.57
342.818	23.37
343.029	24.43
343.239	25.82
343.45	25.71
343.661	24.6
343.872	24.98
344.082	25.36
344.293	25.59
344.504	25.09
344.714	24.21
344.925	23.66
345.136	23.68
345.346	22.94
345.557	22
345.768	22.25
345.978	24.52
346.189	25.01
346.399	26.11
346.61	26.62
346.821	27.2
347.031	27.79
347.242	27.65
347.452	26.74
347.663	26.79
347.873	27.05
348.084	26.2
348.294	25.69
348.504	24.92
348.715	23.63
348.925	23.81
349.136	23.22
349.346	24.1
349.557	24.42
349.767	25.53
349.977	25.3
350.188	25.3
350.398	26.74
350.608	26.62
350.819	26.57
351.029	26.96
351.239	26.69
351.449	27.26
351.66	26.92
351.87	26.42
352.08	25
352.29	25.21
352.501	25.23
352.711	24.34
352.921	24.26
353.131	25.4
353.341	24.96
353.552	24.99
353.762	24.2
353.972	24.14
354.182	25.48
354.392	26.57
354.602	26.43
354.812	25.97
355.022	26.04
355.232	26.79
355.442	25.37
355.652	25.43
355.862	25.31
356.072	26.15
356.282	26.62
356.492	25.44
356.702	25.42
356.912	25.23
357.122	24.98
357.332	25.29
357.542	24.76
357.752	25.03
357.962	25.23
358.171	25.81
358.381	24.93
358.591	24.74
358.801	25.02
359.011	25.03
359.221	25.65
359.43	25.89
359.64	25.42
359.85	25.43
360.06	25.61
360.269	25.47
360.479	25.62
360.689	26.05
360.899	26.04
361.108	26.22
361.318	25.98
361.528	25.97
361.737	25.74
361.947	26.38
362.156	26.23
362.366	26.66
362.576	26.7
362.785	25.45
362.995	25.42
363.204	25.24
363.414	25.31
363.623	26
363.833	25.79
364.042	26.11
364.252	26.68
364.461	26.45
364.671	26.55
364.88	26.61
365.09	27.53
365.299	27.66
365.509	27.34
365.718	27.17
365.927	26.67
366.137	26.86
366.346	27.45
366.555	26.42
366.765	26.57
366.974	26.82
367.183	27.21
367.393	27.26
367.602	27.85
367.811	27.74
368.021	27.13
368.23	26.72
368.439	26.08
368.648	25.18
368.857	24.94
369.067	24.96
369.276	24.17
369.485	24.39
369.694	24.03
369.903	23.43
370.112	24.27
370.321	24.29
370.531	24.49
370.74	24.2
370.949	24.75
371.158	24.91
371.367	24.76
371.576	25.04
371.785	24.3
371.994	24.74
372.203	24.49
372.412	24.24
372.621	25.12
372.83	24.76
373.039	25.71
373.248	25.35
373.457	25.27
373.666	25.85
373.874	25.6
374.083	25.87
374.292	25.62
374.501	25.79
374.71	26.19
374.919	25.87
375.128	26.33
375.336	25.77
375.545	25.63
375.754	26.29
375.963	25.69
376.171	25.9
376.38	26.23
376.589	26.07
376.798	26.58
377.006	26.22
377.215	26.19
377.424	26.36
377.632	26.45
377.841	26.56
378.05	26.04
378.258	26
378.467	26.12
378.675	25.82
378.884	25.64
379.093	25.4
379.301	24.99
379.51	25.18
379.718	24.93
379.927	24.95
380.135	24.97
380.344	24.98
380.552	25.08
380.761	24.91
380.969	24.43
381.177	24.85
381.386	24.82
381.594	25.22
381.803	24.42
382.011	24.82
382.219	24.58
382.428	24.73
382.636	24.43
382.845	24.67
383.053	24.76
383.261	25.07
383.469	25.12
383.678	24.78
383.886	25
384.094	25.92
384.302	25.48
384.511	26.2
384.719	26.33
384.927	26.49
385.135	26.65
385.343	26.69
385.552	26.78
385.76	26.58
385.968	27
386.176	27.11
386.384	26.76
386.592	27
386.8	26.57
387.008	26.52
387.216	26.48
387.424	26.66
387.633	26.58
387.841	26.53
388.049	26.84
388.257	26.59
388.465	26.5
388.672	26.22
388.88	25.89
389.088	25.85
389.296	25.72
389.504	26.06
389.712	26.03
389.92	26.09
390.128	26.2
390.336	26
390.544	25.84
390.751	25.51
390.959	25.86
391.167	26.06
391.375	26.41
391.583	26.47
391.79	26.44
391.998	26.45
392.206	26.47
392.414	26.32
392.621	26.22
392.829	26.48
393.037	26.76
393.244	26.9
393.452	27.02
393.66	26.83
393.867	27.14
394.075	26.94
394.283	26.82
394.49	26.88
394.698	27.05
394.905	27.18
395.113	27.24
395.32	27.38
395.528	27.4
395.735	27.55
395.943	27.59
396.15	27.25
396.358	27.37
396.565	27.35
396.773	27.31
396.98	27.29
397.188	27.31
397.395	27.56
397.602	27.36
397.81	27.19
398.017	26.8
398.225	26.82
398.432	27.13
398.639	27.32
398.847	27.41
399.054	27.32
399.261	27.23
399.468	27.32
399.676	26.95
399.883	27.35
400.09	27.37
400.297	27.76
400.505	28.16
400.712	28.22
400.919	28.33
401.126	28.44
401.333	28.77
401.54	28.92
401.748	29.07
401.955	29.28
402.162	29.02
402.369	29.35
402.576	29.33
402.783	28.97
402.99	28.84
403.197	28.81
403.404	28.77
403.611	28.56
403.818	29.06
404.025	28.93
404.232	28.94
404.439	28.93
404.646	28.8
404.853	28.63
405.06	28.67
405.267	28.61
405.474	28.77
405.681	28.63
405.887	28.86
406.094	28.83
406.301	28.76
406.508	28.89
406.715	28.94
406.922	28.82
407.128	28.95
407.335	29.15
407.542	29.24
407.749	28.84
407.955	29.23
408.162	29.01
408.369	29.13
408.575	29.43
408.782	29.33
408.989	29.44
409.195	29.43
409.402	29.41
409.609	29.3
409.815	29.47
410.022	30.02
410.228	29.86
410.435	29.72
410.642	29.26
410.848	29.34
411.055	29.17
411.261	28.92
411.468	29.24
411.674	29.39
411.881	29.35
412.087	29.29
412.294	29.01
412.5	29.18
412.706	29.65
412.913	29.87
413.119	29.59
413.326	29.84
413.532	29.83
413.738	29.51
413.945	29.34
414.151	29.49
414.357	29.24
414.564	29.05
414.77	28.84
414.976	28.49
415.182	28.65
415.389	28.47
415.595	28.41
415.801	28.63
416.007	28.69
416.214	28.79
416.42	28.74
416.626	28.71
416.832	28.93
417.038	29.03
417.244	29.01
417.45	28.88
417.657	29.14
417.863	29.06
418.069	29.05
418.275	29.1
418.481	28.97
418.687	28.91
418.893	28.98
419.099	28.81
419.305	28.72
419.511	28.68
419.717	28.45
419.923	28.45
420.129	28.48
420.335	28.33
420.541	28.3
420.746	28.32
420.952	28.4
421.158	28.41
421.364	28.31
421.57	28.17
421.776	28.31
421.982	28.42
422.187	28.35
422.393	28.29
422.599	28.34
422.805	28.28
423.01	28.26
423.216	28.06
423.422	27.98
423.628	28.1
423.833	28.23
424.039	28.09
424.245	27.93
424.45	27.83
424.656	27.77
424.862	27.77
425.067	27.77
425.273	27.85
425.478	27.84
425.684	27.81
425.889	27.89
426.095	27.71
426.301	27.56
426.506	27.68
426.712	27.83
426.917	27.82
427.123	27.63
427.328	27.55
427.533	27.35
427.739	27.21
427.944	27.16
428.15	26.89
428.355	26.72
428.561	26.72
428.766	26.5
428.971	26.33
429.177	26.44
429.382	26.62
429.587	26.84
429.793	26.83
429.998	27.1
430.203	27.32
430.408	27.48
430.614	27.78
430.819	27.78
431.024	27.87
431.229	27.72
431.434	27.67
431.64	27.67
431.845	27.41
432.05	27.38
432.255	27.42
432.46	27.31
432.665	27.24
432.87	27.4
433.076	27.55
433.281	27.8
433.486	27.9
433.691	27.89
433.896	27.89
434.101	27.97
434.306	27.94
434.511	27.87
434.716	27.94
434.921	28.01
435.126	27.82
435.331	27.87
435.535	27.53
435.74	27.46
435.945	27.46
436.15	27.32
436.355	27.27
436.56	27.36
436.765	27.14
436.97	27.17
437.174	26.97
437.379	26.96
437.584	26.87
437.789	26.98
437.993	27.17
438.198	27.37
438.403	27.49
438.608	27.52
438.812	27.55
439.017	27.74
439.222	27.63
439.426	27.77
439.631	27.62
439.836	27.59
440.04	27.71
440.245	27.64
440.45	27.41
440.654	27.48
440.859	27.42
441.063	27.38
441.268	27.39
441.472	27.42
441.677	27.39
441.881	27.44
442.086	27.38
442.29	27.34
442.495	27.26
442.699	27.24
442.904	26.94
443.108	26.95
443.312	27.09
443.517	27.02
443.721	26.93
443.925	26.88
444.13	26.87
444.334	26.92
444.538	26.91
444.743	26.97
444.947	27.09
445.151	27.14
445.356	27.25
445.56	27.23
445.764	27.24
445.968	27.29
446.173	27.35
446.377	27.54
446.581	27.64
446.785	27.48
446.989	27.42
447.193	27.48
447.398	27.54
447.602	27.52
447.806	27.46
448.01	27.48
448.214	27.44
448.418	27.3
448.622	27.22
448.826	26.97
449.03	27.04
449.234	27.19
449.438	26.99
449.642	27
449.846	26.96
450.05	26.84
450.254	26.76
450.458	26.82
450.662	26.82
450.866	26.77
451.069	27.08
451.273	27.19
451.477	27.04
451.681	27.34
451.885	27.41
452.089	27.28
452.292	27.29
452.496	27.35
452.7	27.24
452.904	27.29
453.107	27.39
453.311	27.25
453.515	27.12
453.719	27.17
453.922	27.14
454.126	26.91
454.33	26.98
454.533	26.86
454.737	26.97
454.94	27.08
455.144	26.97
455.348	26.84
455.551	26.98
455.755	27.18
455.958	27.12
456.162	27.14
456.365	27.08
456.569	27.08
456.772	27.29
456.976	27.11
457.179	27.11
457.383	27.32
457.586	27.4
457.79	27.28
457.993	27.02
458.196	27.02
458.4	26.96
458.603	27.15
458.807	27.32
459.01	27.25
459.213	27.23
459.417	27.23
459.62	27.19
459.823	27.21
460.026	27.25
460.23	27.37
460.433	27.38
460.636	27.27
460.839	27.2
461.042	27.23
461.246	27.19
461.449	27.26
461.652	27.3
461.855	27.36
462.058	27.27
462.261	27.25
462.464	27.11
462.668	27.27
462.871	27.27
463.074	27.27
463.277	27.16
463.48	27.37
463.683	27.54
463.886	27.56
464.089	27.42
464.292	27.74
464.495	27.81
464.698	28.07
464.901	27.95
465.104	28.1
465.306	28.14
465.509	28.03
465.712	27.86
465.915	27.78
466.118	27.79
466.321	27.86
466.524	27.73
466.726	27.72
466.929	27.73
467.132	27.92
467.335	27.94
467.538	28.04
467.74	28.18
467.943	28.35
468.146	28.33
468.348	28.36
468.551	28.36
468.754	28.23
468.956	28.03
469.159	28.17
469.362	28.16
469.564	28.29
469.767	28.4
469.969	28.26
470.172	28.3
470.375	28.32
470.577	28.41
470.78	28.43
470.982	28.61
471.185	28.77
471.387	28.57
471.59	28.61
471.792	28.38
471.995	28.3
472.197	28.33
472.399	28.46
472.602	28.33
472.804	28.22
473.007	28.21
473.209	28.11
473.411	28.1
473.614	28.22
473.816	28.04
474.018	28.04
474.22	28.11
474.423	28.16
474.625	28.08
474.827	28.22
475.03	28.11
475.232	28.21
475.434	28.23
475.636	28.26
475.838	28.2
476.04	28.34
476.243	28.38
476.445	28.36
476.647	28.31
476.849	28.25
477.051	28.09
477.253	28.36
477.455	28.34
477.657	28.53
477.859	28.48
478.061	28.44
478.263	28.33
478.465	28.2
478.667	28.38
478.869	28.52
479.071	28.41
479.273	28.55
479.475	28.38
479.677	28.4
479.879	28.28
480.081	28.36
480.283	28.46
480.485	28.51
480.686	28.55
480.888	28.5
481.09	28.56
481.292	28.58
481.494	28.52
481.695	28.35
481.897	28.28
482.099	28.35
482.301	28.42
482.502	28.22
482.704	28.18
482.906	28.19
483.107	28
483.309	27.9
483.511	27.92
483.712	27.9
483.914	27.93
484.115	27.95
484.317	27.87
484.519	27.74
484.72	27.77
484.922	27.75
485.123	27.75
485.325	27.8
485.526	27.88
485.728	27.93
485.929	27.85
486.131	27.91
486.332	27.96
486.534	27.93
486.735	28.04
486.936	27.99
487.138	27.93
487.339	27.94
487.541	27.96
487.742	27.8
487.943	27.76
488.144	27.89
488.346	27.95
488.547	27.84
488.748	27.91
488.95	27.89
489.151	27.92
489.352	27.98
489.553	27.95
489.755	28.06
489.956	28.16
490.157	28.11
490.358	28.16
490.559	28.1
490.76	28.15
490.961	28.13
491.163	28.12
491.364	28.18
491.565	28.14
491.766	28.16
491.967	28.1
492.168	28.16
492.369	28.3
492.57	28.17
492.771	28.19
492.972	28.22
493.173	28.27
493.374	28.39
493.575	28.45
493.776	28.52
493.976	28.63
494.177	28.73
494.378	28.77
494.579	28.66
494.78	28.89
494.981	28.79
495.182	28.75
495.382	28.9
495.583	28.83
495.784	28.82
495.985	28.89
496.185	28.82
496.386	28.92
496.587	28.79
496.788	28.89
496.988	28.8
497.189	28.78
497.39	28.78
497.59	28.59
497.791	28.65
497.992	28.79
498.192	28.82
498.393	28.87
498.593	28.82
498.794	28.87
498.994	28.96
499.195	29.03
499.395	29.2
499.596	29.42
499.796	29.64
499.997	29.66
500.197	29.61
500.398	29.81
500.598	29.87
500.799	29.91
500.999	30.04
501.199	30.02
501.4	30.2
501.6	30.18
501.801	30.06
502.001	30.1
502.201	30.09
502.402	30.08
502.602	30.02
502.802	29.98
503.002	29.93
503.203	29.93
503.403	29.95
503.603	29.88
503.803	30
504.003	30.04
504.204	29.91
504.404	30
504.604	30.2
504.804	30.16
505.004	30.19
505.204	30.26
505.404	30.29
505.604	30.14
505.804	30.2
506.005	30.06
506.205	30.08
506.405	30.27
506.605	30.34
506.805	30.19
507.005	30.28
507.204	30.51
507.404	30.49
507.604	30.66
507.804	30.74
508.004	30.72
508.204	30.76
508.404	30.82
508.604	30.67
508.804	30.65
509.003	30.67
509.203	30.56
509.403	30.56
509.603	30.65
509.803	30.51
510.002	30.68
510.202	30.77
510.402	30.79
510.602	30.93
510.801	31.07
511.001	31.05
511.201	31.08
511.4	31.17
511.6	31.1
511.8	31.08
511.999	31.16
512.199	31.09
512.398	31.05
512.598	31.34
512.797	31.34
512.997	31.44
513.197	31.62
513.396	31.74
513.596	31.84
513.795	31.84
513.994	31.72
514.194	31.81
514.393	31.87
514.593	31.99
514.792	31.91
514.992	31.84
515.191	31.81
515.39	31.67
515.59	31.61
515.789	31.55
515.988	31.52
516.188	31.68
516.387	31.56
516.586	31.62
516.786	31.65
516.985	31.75
517.184	31.8
517.383	31.88
517.582	31.91
517.782	31.95
517.981	32.16
518.18	32.23
518.379	32.27
518.578	32.29
518.777	32.33
518.976	32.3
519.176	32.23
519.375	32.35
519.574	32.3
519.773	32.36
519.972	32.49
520.171	32.23
520.37	32.47
520.569	32.6
520.768	32.77
520.967	32.88
521.166	33.02
521.365	33.05
521.564	33.1
521.762	33.3
521.961	33.38
522.16	33.45
522.359	33.83
522.558	33.74
522.757	33.65
522.956	33.51
523.154	33.47
523.353	33.5
523.552	33.49
523.751	33.42
523.949	33.32
524.148	33.15
524.347	33.11
524.546	33.03
524.744	32.77
524.943	32.85
525.142	32.93
525.34	32.92
525.539	32.86
525.737	32.93
525.936	32.97
526.135	32.95
526.333	33.12
526.532	32.99
526.73	33.06
526.929	33.24
527.127	33.16
527.326	33.13
527.524	33.08
527.723	33.13
527.921	33.07
528.12	33.04
528.318	33.09
528.516	32.99
528.715	33.04
528.913	33
529.112	33.04
529.31	33.05
529.508	33.08
529.707	33.16
529.905	33.21
530.103	33.26
530.301	33.24
530.5	33.27
530.698	33.42
530.896	33.48
531.094	33.54
531.293	33.56
531.491	33.66
531.689	33.72
531.887	33.66
532.085	33.61
532.283	33.67
532.481	33.82
532.68	33.77
532.878	33.76
533.076	33.73
533.274	33.7
533.472	33.64
533.67	33.67
533.868	33.66
534.066	33.75
534.264	33.79
534.462	33.75
534.66	33.7
534.858	33.74
535.056	33.71
535.253	33.85
535.451	33.91
535.649	33.99
535.847	33.96
536.045	34
536.243	33.9
536.441	33.76
536.638	33.84
536.836	33.91
537.034	33.98
537.232	34
537.43	33.97
537.627	34.03
537.825	34.09
538.023	34.09
538.22	34.06
538.418	34.14
538.616	34.28
538.813	34.34
539.011	34.41
539.209	34.31
539.406	34.35
539.604	34.55
539.801	34.45
539.999	34.44
540.196	34.35
540.394	34.36
540.591	34.32
540.789	34.25
540.986	34.04
541.184	33.94
541.381	33.98
541.579	34.01
541.776	33.86
541.974	33.79
542.171	33.81
542.368	33.89
542.566	33.82
542.763	33.8
542.96	33.82
543.158	34.02
543.355	34.06
543.552	33.94
543.75	33.9
543.947	34.09
544.144	34.31
544.341	34.24
544.539	34.22
544.736	34.33
544.933	34.46
545.13	34.44
545.327	34.37
545.524	34.36
545.722	34.63
545.919	34.67
546.116	34.49
546.313	34.48
546.51	34.6
546.707	34.71
546.904	34.77
547.101	34.68
547.298	34.85
547.495	34.82
547.692	34.87
547.889	34.79
548.086	34.83
548.283	34.94
548.48	34.79
548.677	34.78
548.874	34.63
549.07	34.67
549.267	34.78
549.464	34.56
549.661	34.7
549.858	34.81
550.055	35
550.251	34.94
550.448	34.7
550.645	34.91
550.842	34.78
551.038	34.81
551.235	34.86
551.432	34.92
551.628	35.08
551.825	35.07
552.022	35.18
552.218	35.12
552.415	35.24
552.612	35.56
552.808	35.5
553.005	35.59
553.201	35.6
553.398	35.56
553.594	35.62
553.791	35.66
553.987	35.76
554.184	35.47
554.38	35.32
554.577	35.19
554.773	35.18
554.97	35.25
555.166	35.36
555.362	35.36
555.559	35.32
555.755	35.37
555.952	35.35
556.148	35.12
556.344	35.49
556.541	35.68
556.737	35.8
556.933	35.64
557.129	35.84
557.326	35.64
557.522	35.71
557.718	35.81
557.914	35.81
558.11	35.66
558.307	35.66
558.503	35.44
558.699	35.44
558.895	35.37
559.091	35.55
559.287	35.14
559.483	35.38
559.679	35.34
559.876	35.26
560.072	35.21
560.268	35.62
560.464	35.92
560.66	35.97
560.856	35.84
561.052	35.84
561.247	35.87
561.443	35.97
561.639	35.96
561.835	35.92
562.031	35.98
562.227	35.9
562.423	35.52
562.619	35.49
562.815	35.43
563.01	35.39
563.206	35.34
563.402	35.17
563.598	35.07
563.793	34.91
563.989	35.13
564.185	35.24
564.381	35.38
564.576	35.64
564.772	35.66
564.968	35.79
565.163	35.92
565.359	35.99
565.555	36.03
565.75	36.1
565.946	36.05
566.141	36.03
566.337	36
566.532	35.9
566.728	35.82
566.923	35.52
567.119	35.5
567.314	35.46
567.51	35.56
567.705	35.47
567.901	35.65
568.096	35.74
568.292	35.76
568.487	35.87
568.682	36
568.878	36.09
569.073	36.11
569.268	36.16
569.464	36.13
569.659	36.03
569.854	36.04
570.05	36.04
570.245	36.07
570.44	35.88
570.635	35.71
570.831	35.48
571.026	35.54
571.221	35.85
571.416	35.74
571.611	35.92
571.806	35.71
572.002	35.67
572.197	35.43
572.392	35.6
572.587	35.73
572.782	35.6
572.977	35.72
573.172	35.63
573.367	35.58
573.562	35.64
573.757	35.53
573.952	35.73
574.147	35.77
574.342	35.89
574.537	35.76
574.732	35.89
574.927	36.06
575.121	35.94
575.316	35.98
575.511	35.89
575.706	35.92
575.901	35.89
576.096	35.82
576.29	36.06
576.485	36.29
576.68	36.36
576.875	36.21
577.069	36.41
577.264	36.54
577.459	36.54
577.654	36.42
577.848	36.38
578.043	36.46
578.238	36.44
578.432	36.25
578.627	36
578.821	36.05
579.016	36.18
579.21	35.92
579.405	36.2
579.6	36.24
579.794	36.63
579.989	36.7
580.183	36.37
580.378	36.74
580.572	36.63
580.766	36.85
580.961	36.8
581.155	36.86
581.35	36.8
581.544	36.65
581.738	36.49
581.933	36.25
582.127	36.41
582.321	37.01
582.516	37.02
582.71	37.26
582.904	37.11
583.099	37.08
583.293	36.86
583.487	37
583.681	36.76
583.875	36.91
584.07	37.19
584.264	36.95
584.458	36.89
584.652	36.72
584.846	36.75
585.04	36.88
585.234	36.77
585.428	36.75
585.623	36.76
585.817	36.99
586.011	36.87
586.205	36.65
586.399	36.64
586.593	36.58
586.787	36.63
586.981	36.45
587.174	36.49
587.368	36.42
587.562	36.51
587.756	36.3
587.95	36.19
588.144	36.3
588.338	36.15
588.532	36.07
588.725	36.01
588.919	36.02
589.113	36.03
589.307	35.91
589.501	36.04
589.694	36.16
589.888	36.44
590.082	36.58
590.275	36.88
590.469	37.24
590.663	37.3
590.856	37.26
591.05	37.19
591.244	37.41
591.437	37.42
591.631	37.1
591.824	37.26
592.018	37.36
592.212	37.04
592.405	36.98
592.599	36.79
592.792	36.87
592.986	36.98
593.179	37.03
593.372	36.9
593.566	37.14
593.759	37.6
593.953	37.22
594.146	37
594.339	37.04
594.533	36.75
594.726	36.74
594.92	36.71
595.113	36.65
595.306	36.58
595.499	36.58
595.693	36.5
595.886	36.34
596.079	36.46
596.272	36.44
596.466	36.49
596.659	36.5
596.852	36.71
597.045	36.79
597.238	36.76
597.431	36.7
597.624	36.63
597.818	36.47
598.011	36.52
598.204	36.54
598.397	36.83
598.59	37.1
598.783	37.29
598.976	37.43
599.169	37.47
599.362	37.63
599.555	37.88
599.748	38.05
599.941	38.06
600.134	38.22
600.326	38.13
600.519	38.04
600.712	38.03
600.905	38.15
601.098	37.98
601.291	37.84
601.483	37.65
601.676	37.59
601.869	37.6
602.062	37.7
602.255	37.49
602.447	37.68
602.64	37.92
602.833	37.9
603.025	37.51
603.218	37.51
603.411	37.66
603.603	37.64
603.796	37.75
603.989	37.61
604.181	37.52
604.374	37.61
604.566	37.53
604.759	37.21
604.951	37.1
605.144	37.23
605.336	36.97
605.529	36.87
605.721	37.06
605.914	37.08
606.106	37.15
606.299	37.42
606.491	37.37
606.683	37.56
606.876	37.54
607.068	37.62
607.26	37.75
607.453	37.68
607.645	37.63
607.837	37.56
608.03	37.68
608.222	37.68
608.414	37.72
608.606	37.74
608.799	37.66
608.991	37.91
609.183	37.81
609.375	37.67
609.567	37.8
609.759	38.09
609.952	38.04
610.144	38.09
610.336	37.98
610.528	37.77
610.72	37.73
610.912	37.68
611.104	37.64
611.296	37.78
611.488	37.91
611.68	38.26
611.872	38.05
612.064	38.18
612.256	37.93
612.448	38.26
612.64	38.34
612.832	38.57
613.023	38.33
613.215	38.04
613.407	38.13
613.599	38.35
613.791	38.21
613.983	38.31
614.174	38.27
614.366	38.01
614.558	38.03
614.75	38.23
614.941	38.36
615.133	38.52
615.325	38.86
615.516	39.05
615.708	38.98
615.9	38.89
616.091	39.13
616.283	39.04
616.475	39.28
616.666	39.28
616.858	38.95
617.049	38.6
617.241	38.99
617.432	39.03
617.624	38.55
617.815	38.53
618.007	38.67
618.198	38.54
618.39	38.69
618.581	38.63
618.773	38.52
618.964	38.74
619.155	38.66
619.347	38.64
619.538	38.73
619.729	39.12
619.921	38.97
620.112	39
620.303	38.69
620.494	38.77
620.686	38.96
620.877	38.88
621.068	38.95
621.259	39.02
621.451	38.82
621.642	38.65
621.833	38.35
622.024	38.32
622.215	38.13
622.406	38.29
622.597	38.24
622.788	38.03
622.98	37.99
623.171	38.09
623.362	38.45
623.553	38.47
623.744	38.6
623.935	38.67
624.126	38.87
624.317	39.16
624.508	39.13
624.698	39.03
624.889	39.08
625.08	38.89
625.271	38.9
625.462	38.56
625.653	38.61
625.844	38.29
626.034	38.58
626.225	38.49
626.416	38.37
626.607	38.23
626.798	38.36
626.988	38.36
627.179	38.65
627.37	38.51
627.56	38.64
627.751	38.66
627.942	38.89
628.132	38.62
628.323	38.5
628.514	38.47
628.704	38.65
628.895	38.6
629.085	38.44
629.276	38.38
629.466	38.41
629.657	38.6
629.847	38.56
630.038	38.42
630.228	38.28
630.419	38.13
630.609	38.13
630.8	38.32
630.99	38
631.181	37.63
631.371	37.67
631.561	37.57
631.752	37.37
631.942	37.28
632.132	37.37
632.323	37.67
632.513	38.17
632.703	38.33
632.893	38.16
633.084	38.48
633.274	39.08
633.464	38.97
633.654	38.84
633.844	38.74
634.034	38.93
634.225	38.73
634.415	38.73
634.605	38.87
634.795	38.64
634.985	38.31
635.175	38.33
635.365	38.5
635.555	38.61
635.745	38.76
635.935	38.84
636.125	38.58
636.315	38.96
636.505	38.94
636.695	38.66
636.885	38.65
637.075	39.11
637.265	38.92
637.455	38.7
637.644	38.64
637.834	38.67
638.024	38.58
638.214	38.82
638.404	38.46
638.593	38.23
638.783	38.11
638.973	38.42
639.163	38.41
639.352	38.71
639.542	38.68
639.732	38.96
639.921	38.95
640.111	38.95
640.301	39.07
640.49	39.32
640.68	39.71
640.87	39.79
641.059	39.83
641.249	39.57
641.438	39.54
641.628	39.52
641.817	39.09
642.007	38.88
642.196	39.28
642.386	39.14
642.575	39.08
642.764	39.08
642.954	39.21
643.143	39.35
643.333	39.35
643.522	39.11
643.711	39.25
643.901	39.3
644.09	39.62
644.279	39.24
644.469	39.06
644.658	39.3
644.847	38.79
645.036	38.62
645.226	38.03
645.415	38.11
645.604	37.85
645.793	38.27
645.982	38.28
646.171	38.13
646.361	38.2
646.55	38.17
646.739	37.8
646.928	38.34
647.117	38.51
647.306	38.78
647.495	38.89
647.684	38.9
647.873	38.41
648.062	38.49
648.251	38.35
648.44	38.35
648.629	38.72
648.818	38.58
649.007	38.42
649.196	38.19
649.384	38.59
649.573	38.81
649.762	39.01
649.951	39.07
650.14	39.42
650.328	39.51
650.517	39.47
650.706	38.99
650.895	39.29
651.083	39.72
651.272	39.62
651.461	39.4
651.65	38.98
651.838	39.19
652.027	38.92
652.216	38.63
652.404	39.1
652.593	39.23
652.781	39.19
652.97	38.92
653.158	38.32
653.347	38.22
653.535	37.88
653.724	37.98
653.912	37.81
654.101	37.98
654.289	38.2
654.478	37.86
654.666	38.01
654.855	38.09
655.043	38.45
655.231	38.42
655.42	38.56
655.608	38.64
655.796	38.77
655.985	38.65
656.173	39.01
656.361	38.69
656.55	39.06
656.738	38.95
656.926	38.98
657.114	38.88
657.302	38.82
657.491	38.74
657.679	38.36
657.867	38.25
658.055	38.46
658.243	38.25
658.431	38.11
658.619	37.97
658.807	38.07
658.996	38.13
659.184	38.19
659.372	37.98
659.56	37.98
659.748	38.08
659.936	38.31
660.124	38.4
660.311	38.84
660.499	39.1
660.687	39.1
660.875	38.86
661.063	38.74
661.251	38.75
661.439	39.31
661.627	39.61
661.814	39.91
662.002	39.92
662.19	39.72
662.378	39.12
662.565	39.24
662.753	39.59
662.941	39.65
663.129	40.02
663.316	39.5
663.504	39.29
663.692	39.45
663.879	39.69
664.067	39.35
664.254	39.07
664.442	39.07
664.63	38.73
664.817	38.55
665.005	38.61
665.192	38.64
665.38	39.64
665.567	39.22
665.755	38.89
665.942	38.97
666.13	38.98
666.317	39.14
666.504	39.29
666.692	39.46
666.879	39.26
667.067	39.73
667.254	39.52
667.441	39.33
667.629	39.96
667.816	40.05
668.003	39.95
668.19	40.04
668.378	40.44
668.565	40.25
668.752	40.2
668.939	40.1
669.127	40.11
669.314	40.5
669.501	39.97
669.688	39.9
669.875	39.51
670.062	39.2
670.249	39.3
670.436	39.1
670.623	39.39
670.81	39.25
670.997	38.86
671.184	38.24
671.371	38.14
671.558	38.34
671.745	38.35
671.932	38.47
672.119	38.55
672.306	38.37
672.493	38.22
672.68	38.04
672.867	38.06
673.054	38.6
673.24	38.92
673.427	38.84
673.614	38.59
673.801	38.32
673.988	39.21
674.174	39.14
674.361	39
674.548	39.11
674.734	39.07
674.921	38.81
675.108	38.41
675.294	37.95
675.481	37.74
675.668	38.06
675.854	38.32
676.041	37.83
676.227	38.16
676.414	38.35
676.601	38.44
676.787	38.58
676.974	39.56
677.16	40.14
677.347	40.8
677.533	41.24
677.719	41.04
677.906	40.64
678.092	39.88
678.279	39.36
678.465	39.47
678.651	39.21
678.838	39.1
679.024	39.1
679.21	38.65
679.397	38.32
679.583	37.97
679.769	37.83
679.955	38.04
680.142	38.71
680.328	38.78
680.514	38.35
680.7	38.49
680.886	38.6
681.073	38.11
681.259	38.07
681.445	37.84
681.631	37.52
681.817	37.85
682.003	38.18
682.189	37.67
682.375	37.99
682.561	38.46
682.747	38.61
682.933	38.88
683.119	38.93
683.305	39.37
683.491	39.52
683.677	39.37
683.863	39.52
684.049	39.23
684.235	39.62
684.42	39.64
684.606	39.49
684.792	39.09
684.978	38.37
685.164	37.93
685.349	37.45
685.535	37.4
685.721	37.88
685.907	37.63
686.092	37.94
686.278	37.91
686.464	37.52
686.649	37.63
686.835	38.21
687.021	38.26
687.206	38.62
687.392	38.81
687.577	39.18
687.763	39.49
687.948	39.35
688.134	39.23
688.319	38.92
688.505	39.42
688.69	39.36
688.876	39.26
689.061	39.87
689.247	40.11
689.432	40.05
689.618	39.54
689.803	39.66
689.988	39.81
690.174	39.93
690.359	40.1
690.544	39.76
690.73	40.07
690.915	39.59
691.1	39.01
691.285	38.93
691.471	38.76
691.656	39.4
691.841	39.16
692.026	39.33
692.211	39.22
692.396	39.26
692.582	39.42
692.767	39
692.952	38.78
693.137	39.56
693.322	39.74
693.507	39.58
693.692	39
693.877	39.06
694.062	39.1
694.247	38.95
694.432	39.28
694.617	38.97
694.802	39.02
694.987	39.5
695.172	39.35
695.357	39.06
695.541	39.91
695.726	39.98
695.911	39.61
696.096	38.78
696.281	38.26
696.466	37.74
696.65	37.89
696.835	37.84
697.02	37.82
697.204	37.54
697.389	38.11
697.574	37.54
697.759	37.69
697.943	37.85
698.128	38.54
698.312	38.66
698.497	38.79
698.682	38.76
698.866	38.42
699.051	38.4
699.235	38.46
699.42	37.53
699.604	37.99
699.789	38.35
699.973	38.28
700.158	38.04
700.342	37.87
700.527	38.02
700.711	38.28
700.895	38.83
701.08	38.92
701.264	38.75
701.448	39.57
701.633	38.77
701.817	38.11
702.001	38.05
702.186	37.65
702.37	37.85
702.554	37.99
702.738	37.67
702.923	37.24
703.107	37.58
703.291	38.44
703.475	38.41
703.659	39.85
703.843	40.45
704.027	41.05
704.212	41.64
704.396	42.34
704.58	42
704.764	41.74
704.948	42.24
705.132	42.27
705.316	41.39
705.5	41.47
705.684	40.36
705.868	40.43
706.052	39.91
706.235	39.82
706.419	39.33
706.603	39.28
706.787	38.93
706.971	38.6
707.155	38.45
707.339	38.46
707.522	38.77
707.706	38.92
707.89	39.08
708.074	39.13
708.257	38.7
708.441	39.17
708.625	39.94
708.808	40.15
708.992	40.61
709.176	40.28
709.359	40.38
709.543	40.05
709.727	40.22
709.91	39.91
710.094	40.75
710.277	40.98
710.461	40.95
710.644	40.72
710.828	41.23
711.011	41.05
711.195	41.33
711.378	41.31
711.562	41.67
711.745	41.33
711.928	41.31
712.112	40.23
712.295	40.93
712.478	40.74
712.662	40.92
712.845	41.07
713.028	41.96
713.212	41.77
713.395	42.15
713.578	41.85
713.761	42.01
713.945	42.23
714.128	43.01
714.311	42.43
714.494	42.32
714.677	42.03
714.86	41.93
715.043	40.54
715.227	40.39
715.41	40.5
715.593	40.43
715.776	40.64
715.959	39.73
716.142	39.04
716.325	39.2
716.508	38.71
716.691	38.63
716.874	38.65
717.057	39.61
717.239	40.57
717.422	40.42
717.605	40.38
717.788	39.95
717.971	40.62
718.154	40.69
718.337	40.07
718.519	40.56
718.702	40.01
718.885	39.3
719.068	38.6
719.25	37.63
719.433	37.68
719.616	37.65
719.798	36.94
719.981	37.03
720.164	38.4
720.346	38.76
720.529	39.01
720.712	39.24
720.894	38.83
721.077	38.34
721.259	38.37
721.442	38.15
721.624	38.32
721.807	38.54
721.989	37.82
722.172	36.21
722.354	36.46
722.537	36.36
722.719	36.81
722.901	38.07
723.084	38.66
723.266	39.15
723.448	38.96
723.631	38.8
723.813	39.32
723.995	39.79
724.178	40.08
724.36	39.26
724.542	39.4
724.724	38.52
724.907	38.26
725.089	38.66
725.271	38.86
725.453	38.18
725.635	38.3
725.817	37.54
725.999	38.03
726.181	38.32
726.364	38.64
726.546	38.19
726.728	38.68
726.91	38.82
727.092	38.06
727.274	37.6
727.456	38.08
727.638	37.6
727.819	38.18
728.001	37.84
728.183	37.68
728.365	37.63
728.547	37.47
728.729	37.57
728.911	36.56
729.093	36.94
729.274	37.79
729.456	38.5
729.638	39.9
729.82	40.48
730.001	40.09
730.183	40.25
730.365	40.3
730.546	40.37
730.728	39.95
730.91	40.88
731.091	41.42
731.273	40.21
731.455	40.04
731.636	39.03
731.818	38.9
731.999	38.9
732.181	38.56
732.362	37.69
732.544	38.06
732.725	37.71
732.907	37.46
733.088	36.61
733.27	37.03
733.451	36.66
733.633	36.53
733.814	36.77
733.995	36.58
734.177	36.39
734.358	37.31
734.539	37.06
734.721	37
734.902	37.23
735.083	37.54
735.264	37.21
735.446	37.17
735.627	37.87
735.808	36.24
735.989	36.2
736.17	36.72
736.351	37.24
736.533	37.96
736.714	38.87
736.895	38.83
737.076	38.81
737.257	38.71
737.438	39.15
737.619	38.85
737.8	38.83
737.981	39.95
738.162	39.99
738.343	40.28
738.524	39.17
738.705	38.08
738.886	36.84
739.067	37.84
739.247	38.03
739.428	37.89
739.609	38.04
739.79	38.43
739.971	38.19
740.151	37.14
740.332	35.68
740.513	35.7
740.694	35.31
740.874	37.94
741.055	36.55
741.236	36.28
741.417	35.09
741.597	34.9
741.778	36.13
741.958	34.82
742.139	36.65
742.32	37.99
742.5	39.07
742.681	40.07
742.861	39.19
743.042	39.97
743.222	40.83
743.403	41.5
743.583	40.43
743.764	40.54
743.944	42.2
744.124	40.58
744.305	40.6
744.485	39.34
744.666	40.03
744.846	39.97
745.026	41.03
745.207	39.87
745.387	40.23
745.567	41.59
745.747	41.26
745.928	41.48
746.108	42.62
746.288	41.8
746.468	41.7
746.648	41.38
746.829	39.09
747.009	38.05
747.189	38.3
747.369	38.73
747.549	37.09
747.729	36.81
747.909	35.77
748.089	34.2
748.269	34.09
748.449	35.05
748.629	36.03
748.809	38.48
748.989	38.78
749.169	37.35
749.349	35.62
749.529	36.58
749.709	36.26
749.889	36.07
750.068	36.81
750.248	36.48
750.428	36.17
750.608	35.48
750.788	34.04
750.967	34.38
751.147	36.97
751.327	36.87
751.507	36.76
751.686	37.7
751.866	38.09
752.046	39.21
752.225	40.82
752.405	40.73
752.585	40.74
752.764	40.62
752.944	40.35
753.123	39.99
753.303	41.61
753.482	42.18
753.662	41
753.841	42
754.021	40.74
754.2	39.83
754.38	39.62
754.559	39.61
754.739	40.38
754.918	39.85
755.097	40.01
755.277	39.43
755.456	39.6
755.635	39.78
755.815	39.03
755.994	39.74
756.173	39.81
756.352	40.71
756.532	40.79
756.711	40.15
756.89	40.21
757.069	38.8
757.248	38.18
757.427	36.42
757.607	36.99
757.786	37.61
757.965	37.85
758.144	36.94
758.323	36.81
758.502	36.92
758.681	38.28
758.86	38.55
759.039	38.16
759.218	38.5
759.397	39.51
759.576	39.23
759.755	37.48
759.934	36.44
760.113	36.41
760.291	35.29
760.47	34.55
760.649	34.12
760.828	34.26
761.007	34.13
761.186	34.7
761.364	34.22
761.543	34.64
761.722	35.96
761.901	37.01
762.079	38.8
762.258	39.4
762.437	38.79
762.615	38.53
762.794	38.3
762.972	39.19
763.151	37.67
763.33	37.79
763.508	36.68
763.687	36.12
763.865	36.3
764.044	34.92
764.222	35.16
764.401	35.68
764.579	35.29
764.758	35.09
764.936	35.15
765.114	36.02
765.293	36.91
765.471	37.78
765.65	37.37
765.828	36.87
766.006	38.34
766.184	37.64
766.363	38.88
766.541	39.72
766.719	38.83
766.898	37.44
767.076	37.54
767.254	35.97
767.432	37.69
767.61	38.04
767.788	37.14
767.967	36.37
768.145	37.13
768.323	35.32
768.501	34.38
768.679	36.54
768.857	36.91
769.035	36.33
769.213	37.22
769.391	36.43
769.569	37.52
769.747	39.98
769.925	40.81
770.103	39.52
770.281	41.55
770.459	41.47
770.636	39.11
770.814	41.15
770.992	42.43
771.17	42.22
771.348	41.05
771.525	40.69
771.703	39.88
771.881	38.68
772.059	40.58
772.236	39.37
772.414	39.54
772.592	41.23
772.769	39.65
772.947	39.11
773.125	38.25
773.302	37.99
773.48	37.68
773.657	36.99
773.835	37.6
774.013	37.71
774.19	38.4
774.368	35.88
774.545	36.48
774.723	38.83
774.9	39.04
775.077	38.42
775.255	39.33
775.432	41.73
775.61	41.82
775.787	41.84
775.964	41.33
776.142	40.22
776.319	44.13
776.496	41.74
776.674	40.4
776.851	39.49
777.028	40.33
777.205	37.13
777.382	34.17
777.56	33.07
777.737	31.1
777.914	28.1
778.091	27.65
778.268	27.94
778.445	29.89
778.622	32.01
778.8	34.99
778.977	35.52
779.154	38.32
779.331	39.7
779.508	41.72
779.685	43.58
779.862	46.75
780.038	47.02
780.215	45
780.392	43.3
780.569	41.07
780.746	38.54
780.923	39.46
781.1	38.63
781.277	38.16
781.453	35.77
781.63	32.71
781.807	30.59
781.984	31.47
782.16	33.71
782.337	36.78
782.514	34.11
782.691	34.3
782.867	33.95
783.044	33.24
783.221	33.95
783.397	35.47
783.574	38.94
783.75	39.75
783.927	40.89
784.103	40.2
784.28	38.29
784.456	40.67
784.633	43.14
784.809	43.4
784.986	44.91
785.162	43.94
785.339	44.27
785.515	44.31
785.692	44.59
785.868	41.86
786.044	40.19
786.221	41.76
786.397	41.78
786.573	38.55
786.749	38.2
786.926	38.84
787.102	38.23
787.278	37.84
787.454	34.56
787.631	33.6
787.807	32.31
787.983	32.22
788.159	27.91
788.335	29.32
788.511	30.5
788.687	30.16
788.863	28.05
789.039	28.21
789.216	31.07
789.392	33
789.568	34.01
789.744	36.18
789.919	37.03
790.095	39.73
790.271	40.12
790.447	39.09
790.623	39.28
790.799	40.33
790.975	43.83
791.151	41.15
791.327	39.9
791.502	37.22
791.678	35.48
791.854	34.94
792.03	35.89
792.205	33.31
792.381	33.32
792.557	32.47
792.733	32.84
792.908	29.64
793.084	29.6
793.259	29.48
793.435	32.78
793.611	32.32
793.786	32.35
793.962	32.84
794.137	33.6
794.313	35.58
794.488	35.91
794.664	36.15
794.839	37.51
795.015	38.93
795.19	40.3
795.366	39.48
795.541	41.52
795.716	43.01
795.892	42.26
796.067	43.77
796.242	44.14
796.418	42.23
796.593	40.08
796.768	36.81
796.944	33.98
797.119	36.06
797.294	36.93
797.469	36.82
797.644	36.99
797.82	38.85
797.995	37.56
798.17	34.93
798.345	36.81
798.52	34.34
798.695	36.83
798.87	40.55
799.045	34.77
799.22	33.78
799.395	33.78
799.57	30.68
799.745	27.83
799.92	27.77
800.095	26.96
800.27	26.38
800.445	29.73
800.62	31.16
800.795	26.48
800.97	28.38
801.145	28.46
801.319	24.69
801.494	26.59
801.669	26.86
801.844	25.5
802.018	25.67
802.193	23.54
802.368	23.26
802.543	23.1
802.717	27.25
802.892	26.76
803.067	26.45
803.241	30
803.416	29.63
803.59	29.34
803.765	30.21
803.94	32.26
804.114	31.8
804.289	33.21
804.463	30.01
804.638	28.28
804.812	30.72
804.986	31.59
805.161	32.8
805.335	32.72
805.51	34.38
805.684	36.26
805.858	35.46
806.033	39.88
806.207	40.68
806.381	42.27
806.556	42.55
806.73	39.49
806.904	38.78
807.078	36.76
807.253	35.28
807.427	32.97
807.601	32.94
807.775	33.93
807.949	30.42
808.123	28.49
808.298	29.42
808.472	28.27
808.646	30.12
808.82	29.97
808.994	32.22
809.168	32.02
809.342	34.97
809.516	35.7
809.69	35.57
809.864	35.41
810.038	38.64
810.212	37.51
810.385	39.55
810.559	40.17
810.733	39.09
810.907	39.44
811.081	44.08
811.255	45.01
811.428	42.92
811.602	39.61
811.776	41.41
811.95	38.72
812.123	38.23
812.297	37.94
812.471	38.04
812.644	40.19
812.818	37.29
812.992	34.48
813.165	33.62
813.339	33.75
813.512	37.04
813.686	35.02
813.86	35.92
814.033	34.05
814.207	34.33
814.38	33.96
814.554	33.12
814.727	36.12
814.9	37.28
815.074	37.94
815.247	36.28
815.421	33.31
815.594	34.27
815.767	33.27
815.941	31.1
816.114	33.06
816.287	31.48
816.46	32.36
816.634	30.57
816.807	26.78
816.98	23.76
817.153	25.96
817.327	25.66
817.5	27.5
817.673	26.78
817.846	32.44
818.019	26.94
818.192	29.74
818.365	32.41
818.538	34.23
818.711	36.76
818.884	37
819.057	35.91
819.23	36.85
819.403	37.47
819.576	41.37
819.749	41.1
819.922	42.07
820.095	40.81
820.268	40.2
820.441	37.84
820.614	36.62
820.786	35.55
820.959	35.3
821.132	35.56
821.305	34.95
821.477	34.3
821.65	34.01
821.823	35.21
821.996	34.73
822.168	34.97
822.341	35.31
822.514	35.95
822.686	36.28
822.859	36.29
823.031	35.71
823.204	35.33
823.376	34.58
823.549	35.43
823.722	35.38
823.894	35.56
824.067	34.79
824.239	34.49
824.411	34.66
824.584	35.06
824.756	35.47
824.929	35.47
825.101	35.04
825.273	35.38
825.446	33.23
825.618	32.74
825.79	32.84
825.963	32.63
826.135	33.68
826.307	33.44
826.479	32.29
826.652	32.86
826.824	33.81
826.996	35.95
827.168	35.62
827.34	35.58
827.512	34.39
827.684	34.28
827.856	34.76
828.029	34.94
828.201	33.21
828.373	34.09
828.545	34.49
828.717	33.75
828.889	33.91
829.061	33.19
829.232	33.93
829.404	34.53
829.576	35.36
829.748	36.44
829.92	33.07
830.092	35.03
830.264	34.2
830.436	32.07
830.607	34.83
830.779	33.07
830.951	35.37
831.123	35.27
831.294	36.16
831.466	36.1
831.638	33.22
831.809	36
831.981	35.15
832.153	33.14
832.324	34.02
832.496	32.2
832.667	28.29
832.839	28.97
833.011	31
833.182	32.18
833.354	33.65
833.525	34.99
833.697	34.28
833.868	33.09
834.039	35.09
834.211	32.9
834.382	33.13
834.554	35.36
834.725	33.73
834.896	34.3
835.068	31.66
835.239	28.01
835.41	28.08
835.581	27.97
835.753	29.31
835.924	29.41
836.095	29.73
836.266	26.15
836.438	28.12
836.609	32.16
836.78	29.74
836.951	30.2
837.122	34.7
837.293	37.09
837.464	35.06
837.635	34.25
837.806	32.54
837.977	32.41
838.148	39.18
838.319	34.47
838.49	29.72
838.661	29.32
838.832	32.68
839.003	30.76
839.174	23.27
839.345	25.52
839.516	25.41
839.687	26.99
839.857	27.66
840.028	22.82
840.199	24.97
840.37	25.31
840.54	28.92
840.711	28.11
840.882	28.45
841.053	28.68
841.223	28.13
841.394	30.61
841.564	26.5
841.735	25.89
841.906	30.19
842.076	33.23
842.247	29.61
842.417	23.71
842.588	24.41
842.758	25.08
842.929	25.49
843.099	28.53
843.27	30.63
843.44	34.62
843.611	35.81
843.781	36.19
843.951	27.22
844.122	27.13
844.292	33.12
844.462	23.24
844.633	22.08
844.803	25.8
844.973	27.06
845.144	20.81
845.314	17.89
845.484	18.44
845.654	20.15
845.824	24.52
845.995	15.54
846.165	6.63
846.335	16.95
846.505	18.32
846.675	17
846.845	18.84
847.015	29.83
847.185	39.76
847.355	35.1
847.525	32.46
847.695	34.5
847.865	53.81
848.035	60.48
848.205	68.24
848.375	70.84
848.545	70.33
848.715	73.59
848.884	74.64
849.054	69.27
849.224	81.76
849.394	87.29
849.564	88.95
849.733	80.16
849.903	82.71
850.073	73.45
850.243	75.22
850.412	89.95
850.582	68.99
850.752	52.68
850.921	47.88
851.091	27.46
851.26	28.13
851.43	23.7
851.599	12.02
851.769	8.47
851.939	7.86
852.108	13.22
852.278	-3.21
852.447	-0.19
852.616	-0.53
852.786	5.14
852.955	13.71
853.125	14.81
853.294	23.6
853.463	33.89
853.633	38.42
853.802	37.35
853.971	36.6
854.141	51.24
854.31	55.22
854.479	59.79
854.648	57.91
854.818	53.08
854.987	45.79
855.156	44.07
855.325	32.5
855.494	25.62
855.663	35.78
855.832	36.22
856.001	21.77
856.171	3.85
856.34	16.57
856.509	18.92
856.678	7.61
856.847	19.74
857.016	28.35
857.185	26.87
857.353	37.92
857.522	30.88
857.691	26.29
857.86	24.73
858.029	30.77
858.198	22.57
858.367	16.13
858.535	34.25
858.704	17.28
858.873	3.55
859.042	9.47
859.21	17.32
859.379	24.68
859.548	22.05
859.717	39.26
859.885	48.84
860.054	46.12
860.222	52.17
860.391	39.57
860.56	56.67
860.728	55.62
860.897	59.18
861.065	60.54
861.234	60.63
861.402	64.91
861.571	63.31
861.739	52.73
861.908	58.49
862.076	69.58
862.244	77.34
862.413	67.78
862.581	67.74
862.749	73.19
862.918	64.19
863.086	62.45
863.254	66.34
863.423	62.05
863.591	67.77
863.759	65.94
863.927	56
864.096	46.09
864.264	53.58
864.432	51.64
864.6	37.26
864.768	32.37
864.936	22.22
865.104	18.6
865.272	20.87
865.44	25.04
865.608	19.44
865.776	23.76
865.944	25.54
866.112	22.69
866.28	29.88
866.448	32.91
866.616	29.79
866.784	37.81
866.952	36.02
867.12	26.93
867.288	15.45
867.455	25.96
867.623	24.58
867.791	29.32
867.959	18.84
868.127	4.33
868.294	19.2
868.462	18.68
868.63	16.18
868.797	9.09
868.965	36.93
869.133	21.67
869.3	-2.93
869.468	-0.43
869.636	-26.18
869.803	4.06
869.971	12.58
870.138	10.17
870.306	19.94
870.473	10.83
870.641	38.09
870.808	24.66
870.975	44.32
871.143	69.09
871.31	53.33
871.478	56.68
871.645	76.27
871.812	54.01
871.98	45.8
872.147	30.92
872.314	12.04
872.482	10.66
872.649	9.42
872.816	-4.76
872.983	-12.39
873.15	-0.61
873.318	-12.28
873.485	-15.27
873.652	-2.01
873.819	-2.16
873.986	11.7
874.153	32.73
874.32	12.01
874.487	9.63
874.654	17.31
874.821	18.9
874.988	16.76
875.155	21.78
875.322	9.52
875.489	-4.08
875.656	7.23
875.823	16.13
875.99	15.46
876.157	16.84
876.324	33.1
876.49	34.07
876.657	28
876.824	28.36
876.991	31.61
877.157	53.06
877.324	61.75
877.491	45.34
877.658	32.17
877.824	49.59
877.991	58.06
878.157	45.51
878.324	53.38
878.491	71.86
878.657	75.17
878.824	70.58
878.99	58.65
879.157	57.64
879.323	64.42
879.49	62.91
879.656	51.72
879.823	47.31
879.989	48.08
880.156	39.6
880.322	14.75
880.488	5.95
880.655	-4.37
880.821	16.38
880.987	15.3
881.154	20.19
881.32	16.56
881.486	16.53
881.652	21.04
881.819	27.55
881.985	28.06
882.151	32.89
882.317	33.21
882.483	32.26
882.649	27.18
882.816	22.06
882.982	21.38
883.148	25.05
883.314	25.42
883.48	21.04
883.646	20.3
883.812	19.86
883.978	18.96
884.144	21.07
884.31	23.18
884.476	23.89
884.642	26.74
884.807	27.03
884.973	23.68
885.139	25.41
885.305	33.43
885.471	32.72
885.637	36.7
885.802	36.84
885.968	34.77
886.134	31.97
886.3	31.13
886.465	30.66
886.631	30.52
886.797	34.64
886.962	29.4
887.128	25.39
887.293	20.76
887.459	17
887.625	13.62
887.79	4.37
887.956	2.57
888.121	0.44
888.287	-4.12
888.452	-18.72
888.618	-49.36
888.783	-30.84
