Data from 2938076_Reflection_1.txt Node
Date: Sat Jul 11 20:23:57 EDT 2015
User: robert
Spectrometer: USB4E03001
Autoset integration time: false
Trigger mode: 4
Integration Time (sec): 1.000000E-1
Scans to average: 10
Electric dark correction enabled: true
Nonlinearity correction enabled: false
Boxcar width: 5
Stray light correction enabled: false
XAxis mode: Wavelengths
Stop averaging: false
Number of Pixels in Spectrum: 3648
>>>>>Begin Spectral Data<<<<<
177.566	215.2
177.785	177.45
178.005	334.23
178.225	46.73
178.445	28.74
178.665	118.23
178.885	83.88
179.105	136.54
179.324	122.95
179.544	-974.35
179.764	13.34
179.984	-10.16
180.204	21.09
180.423	-12.75
180.643	-32.32
180.863	-33.84
181.083	-85.15
181.302	-41.35
181.522	9.15
181.742	30.05
181.961	61.87
182.181	-19.19
182.401	38.2
182.621	-1.57
182.84	11.77
183.06	20.43
183.279	-274.78
183.499	150.38
183.719	-42.25
183.938	-64.56
184.158	67.5
184.377	55.2
184.597	-13.38
184.816	-13.82
185.036	-44.28
185.256	-60.42
185.475	-51.4
185.695	-316.19
185.914	-53.99
186.134	857.47
186.353	485.61
186.572	49.57
186.792	58.91
187.011	56.07
187.231	156.15
187.45	117.63
187.67	179.75
187.889	17.52
188.108	4.44
188.328	111.96
188.547	410.08
188.766	193.09
188.986	195.11
189.205	117.51
189.424	57.14
189.644	31.33
189.863	-16.58
190.082	-187.44
190.302	1674.63
190.521	278.55
190.74	275.4
190.959	231.04
191.178	160.9
191.398	79.98
191.617	56.8
191.836	275.11
192.055	120.44
192.274	2650.44
192.494	390.84
192.713	123.11
192.932	153.81
193.151	120.2
193.37	59.01
193.589	41.02
193.808	43.61
194.027	17.08
194.246	27.95
194.465	0.11
194.685	-4.28
194.904	-51.83
195.123	-36.77
195.342	-42.16
195.561	-7674.29
195.78	204.98
195.999	98.38
196.218	121.4
196.436	121.95
196.655	-77.8
196.874	-146.53
197.093	-48.08
197.312	-136.94
197.531	-92.97
197.75	547.19
197.969	291.62
198.188	-507.8
198.407	-56.64
198.625	-63.36
198.844	-46.68
199.063	38.53
199.282	57.15
199.501	-196.61
199.719	2055.06
199.938	-55.2
200.157	-45.62
200.376	-48.9
200.594	-611.82
200.813	-367.77
201.032	24545.45
201.251	438.65
201.469	302.46
201.688	142.84
201.907	194.23
202.125	34.96
202.344	54.49
202.563	22.61
202.781	58.8
203	26.51
203.218	33.42
203.437	67.94
203.656	138.05
203.874	145.54
204.093	265.81
204.311	174.78
204.53	263.78
204.748	-550.52
204.967	4055.17
205.185	-277.71
205.404	-187.2
205.622	-65.47
205.841	59.85
206.059	-84.79
206.278	-14.2
206.496	164.69
206.715	-13863.64
206.933	105.28
207.151	815.53
207.37	-209.16
207.588	-166.03
207.806	-151.8
208.025	31247.06
208.243	-160.22
208.461	-227.15
208.68	-27.03
208.898	21.21
209.116	38
209.335	35.27
209.553	13.57
209.771	21.3
209.989	49.36
210.208	34.81
210.426	29.33
210.644	-3.84
210.862	-36.6
211.081	-128.02
211.299	-74.17
211.517	-98.54
211.735	-141.9
211.953	-30.25
212.171	21.65
212.39	7.44
212.608	19.05
212.826	68.35
213.044	100.49
213.262	149.84
213.48	118.91
213.698	93.55
213.916	77.94
214.134	42.15
214.352	42.05
214.57	13.08
214.788	32.12
215.006	13.53
215.224	15.94
215.442	12.45
215.66	-96.03
215.878	-75.5
216.096	-115.68
216.314	4496.84
216.532	-146.22
216.75	-57.21
216.968	-0.28
217.185	-8.91
217.403	28.25
217.621	-6.27
217.839	-8.45
218.057	-5.39
218.275	-25.94
218.492	5.88
218.71	-5.85
218.928	30.14
219.146	-47.7
219.363	-231.26
219.581	-116.03
219.799	-29.44
220.017	-9.17
220.234	4.09
220.452	-4.39
220.67	22.72
220.887	9.04
221.105	17.13
221.323	0.57
221.54	-11.81
221.758	-8.71
221.976	-30.29
222.193	-29.24
222.411	-21.61
222.629	-32.75
222.846	6.3
223.064	3.35
223.281	-3.09
223.499	7.14
223.716	26.41
223.934	59.92
224.151	55.76
224.369	54.09
224.586	32.78
224.804	16.7
225.021	19.51
225.239	24.8
225.456	15.99
225.674	28.77
225.891	14.27
226.108	22.67
226.326	16.02
226.543	15.75
226.76	21.92
226.978	20.38
227.195	27.19
227.413	29.47
227.63	21.08
227.847	18.56
228.064	14.94
228.282	20.51
228.499	16.78
228.716	13.45
228.934	14.41
229.151	13.19
229.368	15.73
229.585	15.75
229.802	13.62
230.02	11.01
230.237	12.4
230.454	9.65
230.671	7.34
230.888	7.73
231.105	11.41
231.323	9.63
231.54	3.19
231.757	-3.12
231.974	-7.79
232.191	-5.69
232.408	5.69
232.625	6.72
232.842	13.96
233.059	11.18
233.276	9.52
233.493	8.08
233.71	16.83
233.927	17.41
234.144	21.42
234.361	16.75
234.578	19.02
234.795	10.48
235.012	6.79
235.229	1.54
235.446	-1.11
235.663	-1.85
235.879	-5.94
236.096	-7.19
236.313	0.36
236.53	-3.61
236.747	2.78
236.964	-3.93
237.181	-4.79
237.397	-12.86
237.614	-2
237.831	-6.87
238.048	-6.1
238.264	0.59
238.481	-2.7
238.698	-12.48
238.915	-14.58
239.131	-20.8
239.348	-11.8
239.565	-3.42
239.781	6.89
239.998	0.71
240.215	7.58
240.431	9.51
240.648	12.04
240.865	13.65
241.081	15.86
241.298	14.41
241.514	15.92
241.731	15.72
241.947	15.41
242.164	15.61
242.38	15.78
242.597	14.22
242.814	13.02
243.03	12.33
243.246	10.82
243.463	9.87
243.679	11.96
243.896	12.91
244.112	13.11
244.329	11.18
244.545	8.76
244.762	7.4
244.978	7.43
245.194	12.44
245.411	11.1
245.627	9.94
245.843	11.19
246.06	10.21
246.276	8.91
246.492	8.25
246.709	9.34
246.925	9.04
247.141	10.18
247.357	10.55
247.574	8.49
247.79	8.69
248.006	9.8
248.222	10.87
248.439	11.88
248.655	12.08
248.871	11.49
249.087	11.17
249.303	12.16
249.519	12.6
249.736	13.7
249.952	15.45
250.168	14.99
250.384	13.48
250.6	10.52
250.816	7.97
251.032	7.8
251.248	7
251.464	9.65
251.68	8.64
251.896	6.71
252.112	5.36
252.328	5.73
252.544	5.7
252.76	6.36
252.976	5.09
253.192	5.34
253.408	5.24
253.624	6.67
253.84	5.2
254.056	5.64
254.272	5.96
254.487	7.65
254.703	5.91
254.919	7.24
255.135	9.51
255.351	9.57
255.567	11.05
255.782	9.34
255.998	9.2
256.214	11.38
256.43	12.51
256.646	11.96
256.861	10.39
257.077	13.28
257.293	13.46
257.508	11.58
257.724	11.71
257.94	9.39
258.155	11.23
258.371	11.88
258.587	9.93
258.802	9.23
259.018	10.1
259.234	9.09
259.449	7.47
259.665	7.1
259.88	6.96
260.096	7.94
260.312	7.81
260.527	7.28
260.743	7.39
260.958	7.15
261.174	7.31
261.389	6.34
261.605	7.36
261.82	7.41
262.036	7.12
262.251	8.12
262.466	7.33
262.682	7.8
262.897	8.12
263.113	9.16
263.328	10.18
263.543	8.85
263.759	11.57
263.974	13.01
264.189	13.15
264.405	15.12
264.62	15.3
264.835	16.2
265.051	16.08
265.266	18.21
265.481	14.4
265.696	14.34
265.912	14.77
266.127	11.83
266.342	10.94
266.557	12.43
266.773	12.4
266.988	11.16
267.203	11.18
267.418	10.53
267.633	10.57
267.848	13.24
268.064	12.56
268.279	12.67
268.494	13.94
268.709	12.26
268.924	11.43
269.139	11.04
269.354	11.38
269.569	10.01
269.784	11.86
269.999	8.2
270.214	5.47
270.429	6.97
270.644	7.19
270.859	6.54
271.074	6.46
271.289	6.12
271.504	5.67
271.719	4.87
271.934	5.92
272.149	4.18
272.363	6.2
272.578	7.24
272.793	6.47
273.008	5.69
273.223	5.71
273.438	6.49
273.653	6.91
273.867	6.11
274.082	5.69
274.297	5
274.512	6.06
274.726	5.75
274.941	5.99
275.156	4.89
275.371	4.1
275.585	4.13
275.8	4.7
276.015	3.42
276.229	4.69
276.444	5.13
276.659	5.5
276.873	6.11
277.088	5.91
277.302	6.53
277.517	7.51
277.732	8.9
277.946	9.54
278.161	8.07
278.375	8.57
278.59	8.14
278.804	8.48
279.019	8.04
279.233	7.79
279.448	8.33
279.662	8.09
279.877	9.32
280.091	10.55
280.306	10.44
280.52	12.68
280.735	13.45
280.949	13.88
281.163	13.8
281.378	13.1
281.592	13.29
281.806	12.14
282.021	12.35
282.235	10.76
282.449	9.06
282.664	9.42
282.878	7.81
283.092	6.28
283.307	5.73
283.521	6.56
283.735	6.03
283.949	4.99
284.164	5.69
284.378	5.66
284.592	5.21
284.806	5.84
285.02	6.34
285.234	6.31
285.449	6.92
285.663	6.51
285.877	6.08
286.091	7.9
286.305	9.36
286.519	9.92
286.733	8.94
286.947	8.74
287.161	6.74
287.375	4.94
287.589	4.65
287.803	4.7
288.017	5.4
288.231	4.84
288.445	4.49
288.659	2.86
288.873	2.31
289.087	3.59
289.301	5.6
289.515	7.89
289.729	9.05
289.943	10.2
290.157	11.51
290.371	11.62
290.584	11.61
290.798	12.06
291.012	12.54
291.226	12.7
291.44	12.27
291.654	11.29
291.867	10.66
292.081	11.39
292.295	12.01
292.509	10.37
292.722	8.66
292.936	9.88
293.15	9.44
293.364	9.36
293.577	9.24
293.791	8.8
294.005	9.36
294.218	9.91
294.432	9.51
294.645	8.32
294.859	9.88
295.073	12.16
295.286	12.21
295.5	12.01
295.713	12.58
295.927	13.25
296.14	13.87
296.354	13.88
296.568	13.4
296.781	14.24
296.994	14.56
297.208	14
297.421	12.93
297.635	12.61
297.848	12.66
298.062	12.13
298.275	12.45
298.489	13.27
298.702	12.2
298.915	12.85
299.129	12.5
299.342	11.58
299.555	12.64
299.769	12.76
299.982	13.03
300.195	13.37
300.409	12.79
300.622	11.91
300.835	11.06
301.048	11.44
301.262	11.67
301.475	10.34
301.688	10.22
301.901	9.97
302.115	10.01
302.328	9.77
302.541	8.53
302.754	10.05
302.967	10.18
303.18	9.19
303.393	9.55
303.607	8.93
303.82	9.27
304.033	10.56
304.246	10.31
304.459	11.54
304.672	11.65
304.885	13.59
305.098	14.45
305.311	13.92
305.524	14.4
305.737	14.2
305.95	15.13
306.163	15.74
306.376	16.05
306.589	14.67
306.802	13.8
307.015	14.32
307.228	13.31
307.44	12.85
307.653	14.57
307.866	14.34
308.079	15.13
308.292	15.98
308.505	15.76
308.718	14.75
308.93	16.46
309.143	17.82
309.356	18.21
309.569	18.12
309.781	19.43
309.994	18.69
310.207	18
310.42	18.67
310.632	17.63
310.845	17.51
311.058	17.29
311.27	16.61
311.483	15.41
311.696	16.13
311.908	16.64
312.121	14.56
312.333	14.12
312.546	14.92
312.759	13.99
312.971	13.72
313.184	14.43
313.396	16.47
313.609	17
313.821	16.73
314.034	15.34
314.246	15.22
314.459	17.12
314.671	17.29
314.884	18.51
315.096	17.82
315.309	19
315.521	18.33
315.733	16.19
315.946	15.25
316.158	15.42
316.371	15.91
316.583	15.26
316.795	13.84
317.008	13.47
317.22	12.1
317.432	14.07
317.644	13.98
317.857	14.89
318.069	16.23
318.281	17.35
318.494	18.11
318.706	18.7
318.918	19.89
319.13	19.72
319.342	20.46
319.555	20.05
319.767	19.52
319.979	18.09
320.191	17.42
320.403	16.28
320.615	15.98
320.827	16.89
321.039	16.85
321.252	16.11
321.464	17.42
321.676	17.81
321.888	19.45
322.1	20.02
322.312	21.11
322.524	20.38
322.736	20.94
322.948	19.98
323.16	19.19
323.372	18.59
323.584	17.33
323.796	16.28
324.007	15.13
324.219	13.47
324.431	12.89
324.643	12.48
324.855	12.22
325.067	12.29
325.279	12.8
325.491	13.55
325.702	11.73
325.914	13.23
326.126	13.16
326.338	14.08
326.55	15.27
326.761	14.98
326.973	14.95
327.185	14.57
327.396	15.59
327.608	16.39
327.82	15.78
328.032	18.02
328.243	16.64
328.455	16.12
328.666	16.65
328.878	15.96
329.09	16.16
329.301	15.32
329.513	17.1
329.725	16.11
329.936	15.5
330.148	15.56
330.359	14.56
330.571	15.29
330.782	18.07
330.994	17.9
331.205	17.32
331.417	17.7
331.628	19.89
331.84	18.76
332.051	18.86
332.262	18.68
332.474	19.59
332.685	19.85
332.897	20.98
333.108	18.8
333.319	18.97
333.531	18.95
333.742	18.93
333.953	18.25
334.165	19.34
334.376	19.34
334.587	20.04
334.799	18.71
335.01	18.84
335.221	18.5
335.432	19.02
335.644	18.81
335.855	19.08
336.066	18.75
336.277	19.72
336.488	19.68
336.7	20.23
336.911	19.93
337.122	20.47
337.333	20.58
337.544	19.96
337.755	19.78
337.966	18.27
338.177	17.81
338.388	19.22
338.599	19.34
338.811	20.08
339.022	19.71
339.233	18.32
339.444	18.59
339.655	18.64
339.866	18.81
340.076	17.86
340.287	18.14
340.498	19.1
340.709	18.94
340.92	17.84
341.131	16.29
341.342	16.19
341.553	17.16
341.764	17.08
341.975	16.65
342.185	16.95
342.396	18.01
342.607	18.99
342.818	18.6
343.029	17.59
343.239	17.23
343.45	17.62
343.661	18.01
343.872	18.03
344.082	17.84
344.293	17.57
344.504	17.34
344.714	17.76
344.925	17.21
345.136	18.1
345.346	18.35
345.557	18.57
345.768	17.12
345.978	16.41
346.189	16.51
346.399	15.76
346.61	16.26
346.821	16.42
347.031	15.08
347.242	15.63
347.452	15.62
347.663	15.45
347.873	15.22
348.084	17.3
348.294	17.71
348.504	17.66
348.715	18.35
348.925	18.25
349.136	17.17
349.346	17.9
349.557	17.21
349.767	16.44
349.977	15.28
350.188	15.69
350.398	15.28
350.608	15.6
350.819	15.66
351.029	15.84
351.239	15.62
351.449	16.05
351.66	16.04
351.87	16.92
352.08	17.6
352.29	17.06
352.501	17.39
352.711	16.58
352.921	15.52
353.131	14.88
353.341	14.68
353.552	14.41
353.762	14.61
353.972	15.24
354.182	15.63
354.392	14.3
354.602	15.25
354.812	15.24
355.022	15.78
355.232	16.38
355.442	15.95
355.652	15.54
355.862	16.06
356.072	17.04
356.282	16.79
356.492	15.71
356.702	15.88
356.912	16.54
357.122	15.89
357.332	15.58
357.542	15.73
357.752	15.13
357.962	14.62
358.171	13.95
358.381	13.85
358.591	13.33
358.801	13.44
359.011	13.38
359.221	13.35
359.43	13.74
359.64	14.46
359.85	14.4
360.06	15.22
360.269	15.83
360.479	15.4
360.689	14.03
360.899	13.99
361.108	13.67
361.318	14.22
361.528	14.31
361.737	13.97
361.947	13.6
362.156	12.83
362.366	12.69
362.576	12.5
362.785	13.28
362.995	13.99
363.204	14.22
363.414	14.35
363.623	14.23
363.833	13.95
364.042	14.27
364.252	14.1
364.461	15.1
364.671	14.55
364.88	15.42
365.09	15.68
365.299	14.59
365.509	14.45
365.718	14.8
365.927	14.31
366.137	14.17
366.346	13.09
366.555	13.02
366.765	12.31
366.974	12.92
367.183	12.11
367.393	11.16
367.602	11.86
367.811	12.21
368.021	12.04
368.23	12.44
368.439	12.14
368.648	12.91
368.857	12.24
369.067	12.84
369.276	12.6
369.485	12.88
369.694	13.25
369.903	14.06
370.112	12.65
370.321	12.22
370.531	11.13
370.74	11.29
370.949	12.31
371.158	12.62
371.367	11.98
371.576	12.78
371.785	12.02
371.994	11.72
372.203	10.83
372.412	11.25
372.621	11.95
372.83	12.71
373.039	12.96
373.248	11.6
373.457	11.93
373.666	12.29
373.874	11.97
374.083	12.58
374.292	13.11
374.501	13.9
374.71	13.76
374.919	13.04
375.128	13.62
375.336	12.87
375.545	12.92
375.754	11.96
375.963	12.17
376.171	11.86
376.38	11.46
376.589	11.07
376.798	10.57
377.006	10.79
377.215	11.13
377.424	10.5
377.632	10.5
377.841	9.94
378.05	10.28
378.258	9.41
378.467	9.2
378.675	8.77
378.884	9.19
379.093	9.1
379.301	9.35
379.51	9.14
379.718	9.55
379.927	9.62
380.135	10.56
380.344	10.71
380.552	11.55
380.761	11.91
380.969	12.41
381.177	12.21
381.386	11.7
381.594	11.16
381.803	10.9
382.011	9.64
382.219	9.85
382.428	9.53
382.636	9.57
382.845	9.13
383.053	9.06
383.261	8.62
383.469	8.26
383.678	8.24
383.886	8.06
384.094	7.69
384.302	8.5
384.511	8.34
384.719	8.08
384.927	7.82
385.135	7.62
385.343	7.34
385.552	7.16
385.76	7.12
385.968	7.59
386.176	8.05
386.384	8.03
386.592	7.68
386.8	7.51
387.008	8.21
387.216	8.2
387.424	7.98
387.633	8.29
387.841	8.3
388.049	8.12
388.257	8.12
388.465	7.65
388.672	7.43
388.88	7.9
389.088	8.11
389.296	7.32
389.504	7.45
389.712	7.1
389.92	6.86
390.128	7.15
390.336	7.61
390.544	7.25
390.751	7.36
390.959	7.88
391.167	7.39
391.375	6.72
391.583	6.86
391.79	6.93
391.998	7.2
392.206	7.21
392.414	7.35
392.621	6.82
392.829	6.8
393.037	6.83
393.244	6.91
393.452	6.88
393.66	7.4
393.867	7.22
394.075	7
394.283	7.42
394.49	7.34
394.698	6.83
394.905	7.23
395.113	7.28
395.32	7.56
395.528	7.14
395.735	6.69
395.943	6.51
396.15	6.89
396.358	6.95
396.565	6.67
396.773	6.44
396.98	7
397.188	6.69
397.395	6.32
397.602	5.95
397.81	6.51
398.017	6.92
398.225	6.96
398.432	6.83
398.639	6.78
398.847	6.25
399.054	6.36
399.261	6.22
399.468	6.39
399.676	6.41
399.883	6.18
400.09	5.59
400.297	5.3
400.505	5.01
400.712	4.55
400.919	4.75
401.126	5.2
401.333	5.34
401.54	5.1
401.748	4.77
401.955	4.83
402.162	4.94
402.369	5.28
402.576	5.6
402.783	5.92
402.99	6.24
403.197	6.08
403.404	5.95
403.611	5.93
403.818	6.07
404.025	6.31
404.232	6.35
404.439	6.23
404.646	5.98
404.853	6.26
405.06	6.15
405.267	6.14
405.474	5.96
405.681	5.86
405.887	5.83
406.094	5.96
406.301	5.98
406.508	6.13
406.715	6.48
406.922	6.39
407.128	6.04
407.335	6.24
407.542	6.18
407.749	6.25
407.955	6.46
408.162	6.3
408.369	5.8
408.575	5.71
408.782	5.61
408.989	5.6
409.195	5.61
409.402	5.59
409.609	5.3
409.815	5.32
410.022	5.36
410.228	5.45
410.435	5.53
410.642	5.49
410.848	5.4
411.055	5.3
411.261	5.11
411.468	5.23
411.674	5.22
411.881	5.44
412.087	5.46
412.294	5.46
412.5	5.3
412.706	5.49
412.913	5.53
413.119	5.7
413.326	5.8
413.532	5.69
413.738	5.59
413.945	5.58
414.151	5.42
414.357	5.53
414.564	5.61
414.77	5.91
414.976	5.6
415.182	5.72
415.389	5.54
415.595	5.31
415.801	5.61
416.007	5.68
416.214	5.66
416.42	5.6
416.626	5.45
416.832	4.97
417.038	4.8
417.244	4.9
417.45	5.03
417.657	5.1
417.863	5.53
418.069	5.45
418.275	5.55
418.481	5.67
418.687	5.64
418.893	5.64
419.099	5.95
419.305	5.96
419.511	5.82
419.717	5.88
419.923	5.78
420.129	5.61
420.335	5.59
420.541	5.53
420.746	5.45
420.952	5.47
421.158	5.43
421.364	5.34
421.57	5.31
421.776	5.45
421.982	5.37
422.187	5.39
422.393	5.28
422.599	5.27
422.805	5.33
423.01	5.41
423.216	5.3
423.422	5.29
423.628	5.39
423.833	5.24
424.039	5.19
424.245	5.18
424.45	5.27
424.656	5.44
424.862	5.37
425.067	5.31
425.273	5.36
425.478	5.57
425.684	5.74
425.889	5.68
426.095	5.92
426.301	5.84
426.506	5.76
426.712	5.59
426.917	5.47
427.123	5.49
427.328	5.59
427.533	5.58
427.739	5.4
427.944	5.25
428.15	5.19
428.355	5.17
428.561	5.26
428.766	5.35
428.971	5.42
429.177	5.44
429.382	5.52
429.587	5.33
429.793	5.29
429.998	5.59
430.203	5.44
430.408	5.46
430.614	5.26
430.819	5.37
431.024	5.36
431.229	5.39
431.434	5.37
431.64	5.45
431.845	5.43
432.05	5.26
432.255	5.1
432.46	5.29
432.665	5.4
432.87	5.46
433.076	5.45
433.281	5.52
433.486	5.6
433.691	5.54
433.896	5.4
434.101	5.45
434.306	5.68
434.511	5.69
434.716	5.63
434.921	5.6
435.126	5.75
435.331	5.65
435.535	5.57
435.74	5.55
435.945	5.64
436.15	5.72
436.355	5.55
436.56	5.48
436.765	5.54
436.97	5.48
437.174	5.44
437.379	5.15
437.584	5.11
437.789	4.97
437.993	4.99
438.198	5.05
438.403	4.89
438.608	4.91
438.812	4.69
439.017	4.73
439.222	4.84
439.426	4.71
439.631	4.86
439.836	5.01
440.04	5.09
440.245	5.04
440.45	4.94
440.654	5.1
440.859	5.25
441.063	5.26
441.268	5.12
441.472	4.93
441.677	5.05
441.881	5.03
442.086	4.93
442.29	4.99
442.495	5.13
442.699	5.13
442.904	5.18
443.108	5.22
443.312	5.41
443.517	5.46
443.721	5.62
443.925	5.51
444.13	5.42
444.334	5.53
444.538	5.64
444.743	5.5
444.947	5.48
445.151	5.35
445.356	5.27
445.56	5.13
445.764	5.14
445.968	5.14
446.173	5.15
446.377	5.26
446.581	5.21
446.785	5.12
446.989	5.15
447.193	5.1
447.398	5.19
447.602	5.17
447.806	5.14
448.01	5.14
448.214	5.05
448.418	5.04
448.622	4.98
448.826	4.92
449.03	4.91
449.234	4.8
449.438	4.76
449.642	4.84
449.846	4.79
450.05	4.89
450.254	4.82
450.458	4.84
450.662	4.89
450.866	4.88
451.069	4.97
451.273	4.89
451.477	4.97
451.681	5.27
451.885	4.9
452.089	5
452.292	5.07
452.496	5.13
452.7	5.16
452.904	5.23
453.107	5.15
453.311	5.07
453.515	5.19
453.719	5.06
453.922	4.71
454.126	4.95
454.33	4.97
454.533	4.9
454.737	4.88
454.94	5.03
455.144	4.98
455.348	4.97
455.551	4.97
455.755	4.86
455.958	5.01
456.162	5.23
456.365	5.22
456.569	5.12
456.772	5.01
456.976	4.89
457.179	4.82
457.383	4.81
457.586	4.97
457.79	5.08
457.993	5.12
458.196	4.94
458.4	4.75
458.603	4.74
458.807	4.87
459.01	5.03
459.213	5.05
459.417	4.95
459.62	4.87
459.823	4.76
460.026	4.61
460.23	4.57
460.433	4.69
460.636	4.81
460.839	4.68
461.042	4.64
461.246	4.66
461.449	4.73
461.652	4.94
461.855	5.18
462.058	5.28
462.261	5.44
462.464	5.55
462.668	5.41
462.871	5.39
463.074	5.47
463.277	5.52
463.48	5.34
463.683	5.28
463.886	5.05
464.089	5.05
464.292	5
464.495	4.85
464.698	4.76
464.901	4.84
465.104	4.98
465.306	5.16
465.509	5.09
465.712	5.23
465.915	5.29
466.118	5.54
466.321	5.35
466.524	5.27
466.726	5.46
466.929	5.43
467.132	5.52
467.335	5.48
467.538	5.25
467.74	5.19
467.943	5.18
468.146	5.15
468.348	4.91
468.551	4.88
468.754	5.01
468.956	4.9
469.159	4.79
469.362	4.74
469.564	4.68
469.767	4.71
469.969	4.67
470.172	4.58
470.375	4.65
470.577	4.8
470.78	4.81
470.982	4.75
471.185	4.8
471.387	4.95
471.59	4.8
471.792	4.82
471.995	4.78
472.197	4.95
472.399	4.99
472.602	4.85
472.804	4.95
473.007	4.84
473.209	4.69
473.411	4.56
473.614	4.7
473.816	4.76
474.018	4.51
474.22	4.75
474.423	4.64
474.625	4.57
474.827	4.65
475.03	4.35
475.232	4.58
475.434	4.81
475.636	4.92
475.838	4.85
476.04	4.83
476.243	5.21
476.445	5.1
476.647	4.97
476.849	4.85
477.051	4.8
477.253	4.79
477.455	4.7
477.657	4.68
477.859	4.69
478.061	4.68
478.263	4.6
478.465	4.42
478.667	4.52
478.869	4.68
479.071	4.81
479.273	4.8
479.475	4.93
479.677	5.12
479.879	4.98
480.081	4.83
480.283	4.88
480.485	5.12
480.686	5.09
480.888	4.94
481.09	4.97
481.292	5.01
481.494	5.04
481.695	5.09
481.897	5
482.099	4.98
482.301	4.99
482.502	4.88
482.704	4.75
482.906	4.74
483.107	4.76
483.309	4.71
483.511	4.68
483.712	4.67
483.914	4.66
484.115	4.64
484.317	4.66
484.519	4.68
484.72	4.7
484.922	4.66
485.123	4.7
485.325	4.74
485.526	4.74
485.728	4.73
485.929	4.77
486.131	4.69
486.332	4.6
486.534	4.62
486.735	4.61
486.936	4.57
487.138	4.6
487.339	4.54
487.541	4.56
487.742	4.61
487.943	4.64
488.144	4.61
488.346	4.66
488.547	4.75
488.748	4.79
488.95	4.77
489.151	4.72
489.352	4.77
489.553	4.84
489.755	4.77
489.956	4.75
490.157	4.8
490.358	4.8
490.559	4.82
490.76	4.75
490.961	4.72
491.163	4.79
491.364	4.9
491.565	4.9
491.766	4.83
491.967	4.81
492.168	4.78
492.369	4.7
492.57	4.63
492.771	4.59
492.972	4.6
493.173	4.5
493.374	4.38
493.575	4.32
493.776	4.31
493.976	4.41
494.177	4.44
494.378	4.45
494.579	4.58
494.78	4.59
494.981	4.65
495.182	4.68
495.382	5.02
495.583	5.16
495.784	5.17
495.985	5.22
496.185	5.1
496.386	5.21
496.587	5.08
496.788	4.91
496.988	5.01
497.189	5.04
497.39	5.11
497.59	4.93
497.791	4.98
497.992	5.02
498.192	5.15
498.393	5.3
498.593	5.18
498.794	5.31
498.994	5.47
499.195	5.48
499.395	5.51
499.596	5.51
499.796	5.5
499.997	5.34
500.197	5.36
500.398	5.28
500.598	5.12
500.799	5.17
500.999	5.23
501.199	5.12
501.4	5.17
501.6	4.98
501.801	4.9
502.001	4.74
502.201	4.72
502.402	4.73
502.602	4.74
502.802	4.93
503.002	5.02
503.203	4.92
503.403	5.1
503.603	5.09
503.803	5.17
504.003	5.26
504.204	5.54
504.404	5.72
504.604	5.75
504.804	5.64
505.004	5.63
505.204	5.58
505.404	5.63
505.604	5.55
505.804	5.28
506.005	5.24
506.205	5.18
506.405	5.1
506.605	5.1
506.805	5.08
507.005	5.21
507.204	5.06
507.404	5.01
507.604	5.07
507.804	5.04
508.004	5.31
508.204	5.44
508.404	5.44
508.604	5.34
508.804	5.45
509.003	5.35
509.203	5.31
509.403	5.25
509.603	5.26
509.803	5.22
510.002	5.14
510.202	5.13
510.402	5.12
510.602	5.1
510.801	5.16
511.001	5.22
511.201	5.33
511.4	5.3
511.6	5.59
511.8	5.54
511.999	5.45
512.199	5.6
512.398	5.62
512.598	5.67
512.797	5.76
512.997	5.73
513.197	5.58
513.396	5.57
513.596	5.6
513.795	5.53
513.994	5.66
514.194	5.72
514.393	5.76
514.593	5.71
514.792	5.71
514.992	5.59
515.191	5.64
515.39	5.67
515.59	5.7
515.789	5.81
515.988	5.82
516.188	5.79
516.387	5.92
516.586	5.92
516.786	5.93
516.985	5.9
517.184	5.96
517.383	5.92
517.582	5.98
517.782	5.9
517.981	5.9
518.18	5.81
518.379	5.94
518.578	5.92
518.777	5.94
518.976	5.88
519.176	5.81
519.375	5.87
519.574	6.03
519.773	5.92
519.972	5.98
520.171	5.95
520.37	6.06
520.569	5.94
520.768	5.93
520.967	5.94
521.166	5.95
521.365	6
521.564	6.02
521.762	5.89
521.961	5.93
522.16	6.12
522.359	6.16
522.558	6.12
522.757	6.21
522.956	6.14
523.154	6.15
523.353	6.19
523.552	6.25
523.751	6.21
523.949	6.15
524.148	6.31
524.347	6.07
524.546	6.15
524.744	6.19
524.943	6.14
525.142	6.24
525.34	6.28
525.539	6.27
525.737	6.34
525.936	6.39
526.135	6.53
526.333	6.45
526.532	6.45
526.73	6.29
526.929	6.26
527.127	6.33
527.326	6.32
527.524	6.26
527.723	6.36
527.921	6.39
528.12	6.42
528.318	6.37
528.516	6.36
528.715	6.4
528.913	6.43
529.112	6.42
529.31	6.38
529.508	6.41
529.707	6.42
529.905	6.39
530.103	6.4
530.301	6.39
530.5	6.34
530.698	6.35
530.896	6.41
531.094	6.51
531.293	6.5
531.491	6.5
531.689	6.51
531.887	6.49
532.085	6.5
532.283	6.48
532.481	6.53
532.68	6.64
532.878	6.61
533.076	6.61
533.274	6.57
533.472	6.61
533.67	6.65
533.868	6.6
534.066	6.61
534.264	6.56
534.462	6.55
534.66	6.48
534.858	6.46
535.056	6.66
535.253	6.68
535.451	6.8
535.649	6.86
535.847	6.92
536.045	7.06
536.243	7.22
536.441	7.36
536.638	7.39
536.836	7.39
537.034	7.45
537.232	7.3
537.43	7.35
537.627	7.34
537.825	7.42
538.023	7.42
538.22	7.33
538.418	7.19
538.616	7.11
538.813	7.15
539.011	7.33
539.209	7.32
539.406	7.45
539.604	7.36
539.801	7.38
539.999	7.43
540.196	7.58
540.394	7.68
540.591	7.78
540.789	7.84
540.986	7.83
541.184	7.89
541.381	7.92
541.579	7.87
541.776	8.01
541.974	7.97
542.171	7.96
542.368	7.98
542.566	7.98
542.763	8
542.96	7.98
543.158	8.02
543.355	7.97
543.552	8.09
543.75	8.15
543.947	8.08
544.144	8.13
544.341	8.09
544.539	8.06
544.736	8.12
544.933	8.15
545.13	8.25
545.327	8.29
545.524	8.48
545.722	8.36
545.919	8.43
546.116	8.4
546.313	8.5
546.51	8.62
546.707	8.61
546.904	8.65
547.101	8.63
547.298	8.69
547.495	8.75
547.692	8.58
547.889	8.66
548.086	8.7
548.283	8.82
548.48	8.77
548.677	8.75
548.874	8.96
549.07	9.09
549.267	9.25
549.464	9.31
549.661	9.5
549.858	9.61
550.055	9.69
550.251	9.91
550.448	9.87
550.645	10.02
550.842	10.04
551.038	9.89
551.235	9.84
551.432	10.11
551.628	10.19
551.825	10.09
552.022	10.03
552.218	10.02
552.415	10.12
552.612	10.13
552.808	10.06
553.005	10.17
553.201	10.29
553.398	10.3
553.594	10.12
553.791	10.29
553.987	10.37
554.184	10.4
554.38	10.48
554.577	10.36
554.773	10.63
554.97	10.68
555.166	10.9
555.362	11.06
555.559	10.97
555.755	10.99
555.952	10.87
556.148	10.83
556.344	10.88
556.541	10.8
556.737	10.68
556.933	10.78
557.129	10.94
557.326	11
557.522	11.17
557.718	11.45
557.914	11.46
558.11	11.51
558.307	11.54
558.503	11.86
558.699	12.15
558.895	12.24
559.091	12.38
559.287	12.39
559.483	12.38
559.679	12.14
559.876	12.12
560.072	12.35
560.268	12.29
560.464	12.55
560.66	12.6
560.856	12.61
561.052	12.58
561.247	12.56
561.443	12.61
561.639	12.75
561.835	12.93
562.031	13.11
562.227	13.17
562.423	13.12
562.619	13.04
562.815	13.25
563.01	13.38
563.206	13.62
563.402	13.62
563.598	13.83
563.793	13.8
563.989	13.52
564.185	13.48
564.381	13.55
564.576	13.66
564.772	13.76
564.968	13.42
565.163	13.18
565.359	13.07
565.555	13.13
565.75	12.94
565.946	12.78
566.141	12.96
566.337	13.09
566.532	13.09
566.728	13.24
566.923	13.12
567.119	13.35
567.314	13.55
567.51	13.52
567.705	13.34
567.901	13.27
568.096	13.5
568.292	13.42
568.487	13.24
568.682	13.25
568.878	13.28
569.073	13.31
569.268	13.33
569.464	13.31
569.659	13.62
569.854	13.73
570.05	13.94
570.245	13.88
570.44	14.16
570.635	14.22
570.831	14.32
571.026	14.5
571.221	14.73
571.416	14.67
571.611	14.57
571.806	14.54
572.002	14.75
572.197	14.75
572.392	14.83
572.587	14.77
572.782	14.9
572.977	14.95
573.172	14.85
573.367	14.88
573.562	15.03
573.757	15.43
573.952	15.42
574.147	15.25
574.342	15.35
574.537	15.42
574.732	15.35
574.927	15.36
575.121	15.36
575.316	15.38
575.511	15.19
575.706	15.12
575.901	14.93
576.096	15.18
576.29	15.31
576.485	15.25
576.68	15.13
576.875	15.2
577.069	15.07
577.264	15.04
577.459	14.85
577.654	15.05
577.848	14.93
578.043	14.88
578.238	14.72
578.432	14.71
578.627	14.75
578.821	14.9
579.016	15.11
579.21	15.3
579.405	15.12
579.6	15.48
579.794	15.59
579.989	15.76
580.183	16.1
580.378	16.03
580.572	15.68
580.766	15.58
580.961	15.28
581.155	15.24
581.35	15.25
581.544	15.51
581.738	15.5
581.933	15.37
582.127	15.18
582.321	14.91
582.516	15.07
582.71	15.44
582.904	15.59
583.099	15.87
583.293	15.67
583.487	15.53
583.681	15.21
583.875	15.22
584.07	15.34
584.264	15.65
584.458	15.87
584.652	15.89
584.846	15.9
585.04	15.97
585.234	15.85
585.428	16.09
585.623	16.07
585.817	16.32
586.011	16.1
586.205	15.95
586.399	15.8
586.593	15.31
586.787	15.29
586.981	15.2
587.174	15.26
587.368	15.37
587.562	15.42
587.756	15.64
587.95	15.6
588.144	15.84
588.338	15.92
588.532	15.82
588.725	15.94
588.919	15.99
589.113	16.22
589.307	15.94
589.501	15.88
589.694	15.9
589.888	15.86
590.082	16
590.275	16.11
590.469	16.2
590.663	16.19
590.856	16.34
591.05	16.44
591.244	16.41
591.437	16.87
591.631	17.13
591.824	17.03
592.018	16.88
592.212	16.85
592.405	16.77
592.599	16.68
592.792	16.77
592.986	16.92
593.179	16.73
593.372	16.83
593.566	16.54
593.759	16.36
593.953	16.43
594.146	16.6
594.339	16.56
594.533	16.63
594.726	16.44
594.92	16.6
595.113	16.53
595.306	16.55
595.499	16.36
595.693	16.53
595.886	16.47
596.079	16.66
596.272	16.41
596.466	16.42
596.659	16.24
596.852	16.38
597.045	16.43
597.238	16.33
597.431	16.24
597.624	16.46
597.818	16.43
598.011	16.47
598.204	16.4
598.397	16.83
598.59	16.94
598.783	17.12
598.976	17.38
599.169	17.5
599.362	17.54
599.555	17.98
599.748	17.79
599.941	17.6
600.134	17.74
600.326	17.8
600.519	17.62
600.712	17.29
600.905	16.9
601.098	16.96
601.291	16.93
601.483	17.04
601.676	16.84
601.869	17.01
602.062	17.53
602.255	17.5
602.447	17.41
602.64	17.39
602.833	17.57
603.025	17.89
603.218	17.6
603.411	17.47
603.603	17.64
603.796	17.53
603.989	17.53
604.181	17.41
604.374	17.38
604.566	17.28
604.759	17.36
604.951	17.34
605.144	17.34
605.336	17.45
605.529	17.53
605.721	17.41
605.914	17.68
606.106	17.62
606.299	17.62
606.491	17.96
606.683	17.99
606.876	17.93
607.068	17.98
607.26	17.9
607.453	17.82
607.645	17.64
607.837	17.78
608.03	17.62
608.222	17.69
608.414	17.39
608.606	17.02
608.799	17.2
608.991	17.22
609.183	17.27
609.375	17.31
609.567	17.24
609.759	17.32
609.952	17.1
610.144	16.93
610.336	16.68
610.528	16.73
610.72	16.68
610.912	16.58
611.104	16.51
611.296	16.32
611.488	16.22
611.68	16.27
611.872	16.02
612.064	15.86
612.256	16.11
612.448	16.31
612.64	16.44
612.832	16.44
613.023	16.37
613.215	16.18
613.407	16.53
613.599	16.52
613.791	16.61
613.983	16.84
614.174	17
614.366	16.63
614.558	16.77
614.75	16.89
614.941	17.26
615.133	17.21
615.325	17.2
615.516	17.05
615.708	16.97
615.9	17.09
616.091	17.22
616.283	17.46
616.475	17.53
616.666	17.56
616.858	17.61
617.049	17.25
617.241	17.65
617.432	17.99
617.624	17.88
617.815	18.33
618.007	18.24
618.198	18.12
618.39	17.91
618.581	17.99
618.773	17.7
618.964	17.84
619.155	18.12
619.347	17.99
619.538	17.54
619.729	17.6
619.921	17.24
620.112	17.21
620.303	17.08
620.494	17.27
620.686	17.32
620.877	17.24
621.068	17.19
621.259	17.04
621.451	16.8
621.642	17.25
621.833	17.13
622.024	17.59
622.215	17.31
622.406	17.52
622.597	17.43
622.788	17.39
622.98	17.36
623.171	17.25
623.362	17.36
623.553	17.28
623.744	17.24
623.935	17.43
624.126	17.27
624.317	17.3
624.508	17.32
624.698	17.33
624.889	17.46
625.08	17.78
625.271	17.57
625.462	17.53
625.653	17.46
625.844	17.58
626.034	17.73
626.225	17.64
626.416	17.89
626.607	17.78
626.798	17.82
626.988	18
627.179	18.07
627.37	18.34
627.56	18.38
627.751	18.62
627.942	18.46
628.132	18.44
628.323	18.34
628.514	18.25
628.704	18.37
628.895	18.38
629.085	18.4
629.276	18.17
629.466	17.92
629.657	17.85
629.847	17.95
630.038	17.99
630.228	18
630.419	18.47
630.609	18.65
630.8	18.86
630.99	19.05
631.181	18.86
631.371	18.96
631.561	19.33
631.752	19.55
631.942	19.63
632.132	19.82
632.323	19.83
632.513	19.29
632.703	19.23
632.893	19.31
633.084	19.32
633.274	19.32
633.464	19.28
633.654	19.02
633.844	19.1
634.034	18.89
634.225	18.97
634.415	18.88
634.605	19.01
634.795	19.06
634.985	18.78
635.175	18.69
635.365	18.72
635.555	18.67
635.745	18.79
635.935	18.51
636.125	18.34
636.315	18.33
636.505	18.09
636.695	18.16
636.885	18.42
637.075	18.4
637.265	18.39
637.455	18.41
637.644	18.86
637.834	18.98
638.024	19.1
638.214	19.17
638.404	18.98
638.593	19.08
638.783	19.13
638.973	19.03
639.163	19.43
639.352	19.45
639.542	19.4
639.732	19.03
639.921	18.32
640.111	18.62
640.301	18.85
640.49	19.14
640.68	18.94
640.87	18.93
641.059	18.34
641.249	18.23
641.438	18.07
641.628	18.25
641.817	18.74
642.007	19.13
642.196	18.78
642.386	18.72
642.575	18.47
642.764	19.08
642.954	18.96
643.143	19.14
643.333	18.75
643.522	18.74
643.711	18.58
643.901	17.95
644.09	18.05
644.279	17.98
644.469	18.07
644.658	18.2
644.847	17.91
645.036	17.83
645.226	18.51
645.415	18.61
645.604	18.71
645.793	18.98
645.982	19.23
646.171	19.18
646.361	19.61
646.55	19.35
646.739	19.04
646.928	18.96
647.117	19.25
647.306	18.71
647.495	19.29
647.684	19.19
647.873	18.54
648.062	18.62
648.251	18.62
648.44	18.09
648.629	18.39
648.818	18.67
649.007	18.73
649.196	18.5
649.384	18.29
649.573	17.99
649.762	18.21
649.951	18.61
650.14	18.44
650.328	18.31
650.517	18.55
650.706	18.27
650.895	17.82
651.083	18.21
651.272	18.26
651.461	18.34
651.65	18.23
651.838	18.1
652.027	18.14
652.216	18.54
652.404	18.82
652.593	18.97
652.781	19.54
652.97	19.88
653.158	19.67
653.347	19.88
653.535	20.01
653.724	20.08
653.912	20.06
654.101	20.15
654.289	20
654.478	20
654.666	19.96
654.855	19.56
655.043	19.31
655.231	19.37
655.42	19.47
655.608	19.56
655.796	19.26
655.985	19.39
656.173	19.13
656.361	19.24
656.55	19.16
656.738	18.64
656.926	18.71
657.114	19.03
657.302	18.88
657.491	18.78
657.679	18.72
657.867	19.23
658.055	19.09
658.243	19.22
658.431	19
658.619	19.05
658.807	19.33
658.996	19.19
659.184	19.17
659.372	19.52
659.56	19.55
659.748	20
659.936	19.7
660.124	19.59
660.311	19.38
660.499	19.42
660.687	19.47
660.875	19.21
661.063	19.43
661.251	19.55
661.439	19.24
661.627	19.12
661.814	18.32
662.002	18.66
662.19	18.93
662.378	19.1
662.565	19.63
662.753	19.41
662.941	20.18
663.129	20.23
663.316	20.29
663.504	20.16
663.692	20.12
663.879	20.46
664.067	20.26
664.254	20.19
664.442	19.92
664.63	19.39
664.817	19.34
665.005	18.5
665.192	18.22
665.38	18.18
665.567	18.31
665.755	18.66
665.942	19.05
666.13	18.87
666.317	18.54
666.504	19.18
666.692	18.84
666.879	19.15
667.067	19.56
667.254	19.91
667.441	19.9
667.629	19.86
667.816	19.54
668.003	19.34
668.19	19.01
668.378	19.12
668.565	19.29
668.752	19.59
668.939	19.93
669.127	20.07
669.314	19.65
669.501	19.21
669.688	19.22
669.875	19.06
670.062	19.06
670.249	19.62
670.436	20.33
670.623	19.92
670.81	19.94
670.997	19.38
671.184	19.11
671.371	19.44
671.558	19.69
671.745	19.54
671.932	19.38
672.119	19.73
672.306	19.39
672.493	19.01
672.68	19.39
672.867	19.66
673.054	19.61
673.24	19.45
673.427	19.63
673.614	20.28
673.801	20.29
673.988	20.78
674.174	20.56
674.361	20.71
674.548	20.6
674.734	20.06
674.921	20.13
675.108	20.59
675.294	20.57
675.481	20.91
675.668	20.92
675.854	21.16
676.041	20.83
676.227	21.06
676.414	21.2
676.601	21.08
676.787	21.57
676.974	21.04
677.16	21.04
677.347	21.27
677.533	21.07
677.719	20.57
677.906	20.54
678.092	20.32
678.279	20.1
678.465	19.97
678.651	20.48
678.838	20.59
679.024	20.81
679.21	20.78
679.397	20.75
679.583	20.58
679.769	20.51
679.955	20.42
680.142	20.87
680.328	20.59
680.514	20.64
680.7	20.55
680.886	19.97
681.073	20.25
681.259	20.11
681.445	20.07
681.631	19.63
681.817	19.45
682.003	19.47
682.189	19.6
682.375	19.91
682.561	19.83
682.747	19.52
682.933	19.79
683.119	19.46
683.305	19.41
683.491	19.56
683.677	19.83
683.863	20.4
684.049	20.66
684.235	20.3
684.42	19.73
684.606	19.61
684.792	19.68
684.978	19.91
685.164	19.55
685.349	19.15
685.535	19.51
685.721	19.69
685.907	18.99
686.092	18.45
686.278	17.75
686.464	17.72
686.649	17.79
686.835	17.52
687.021	17.25
687.206	17.11
687.392	17.6
687.577	17.29
687.763	17.13
687.948	16.75
688.134	17.31
688.319	18.15
688.505	18.73
688.69	18.97
688.876	19.23
689.061	19.25
689.247	19.41
689.432	19.5
689.618	19.23
689.803	19.44
689.988	20.05
690.174	19.42
690.359	19.97
690.544	20.29
690.73	20.43
690.915	20.34
691.1	20.04
691.285	20.19
691.471	19.97
691.656	20.15
691.841	20.44
692.026	20.65
692.211	20.75
692.396	20.05
692.582	19.38
692.767	18.5
692.952	18.73
693.137	18.98
693.322	19.65
693.507	19.51
693.692	18.96
693.877	18.69
694.062	18.02
694.247	18.28
694.432	18.29
694.617	18.39
694.802	19.19
694.987	18.71
695.172	18.64
695.357	18.34
695.541	18.18
695.726	18.82
695.911	18.57
696.096	19.62
696.281	19.81
696.466	20.44
696.65	20.01
696.835	19.53
697.02	19.78
697.204	20.21
697.389	19.82
697.574	20.42
697.759	20.25
697.943	20.23
698.128	19.82
698.312	19.62
698.497	19.1
698.682	19.82
698.866	20.24
699.051	20.44
699.235	20.12
699.42	20.21
699.604	19.67
699.789	19.9
699.973	20.16
700.158	20.56
700.342	21.19
700.527	21.68
700.711	20.95
700.895	21.6
701.08	21.39
701.264	21.51
701.448	21.68
701.633	21.85
701.817	21.11
702.001	21.21
702.186	21.13
702.37	20.38
702.554	20.33
702.738	20.96
702.923	19.79
703.107	19.74
703.291	19.81
703.475	20.29
703.659	20.71
703.843	21.65
704.027	21
704.212	21.16
704.396	21.54
704.58	21.33
704.764	21.17
704.948	21.1
705.132	20.8
705.316	20.37
705.5	20.28
705.684	20.84
705.868	21.27
706.052	21.47
706.235	20.4
706.419	19.64
706.603	19.54
706.787	20.42
706.971	20.16
707.155	20.87
707.339	21.15
707.522	20.67
707.706	20.05
707.89	19.07
708.074	19.37
708.257	19.88
708.441	20.54
708.625	20.85
708.808	19.68
708.992	20.22
709.176	20.19
709.359	20.62
709.543	20.83
709.727	20.47
709.91	19.85
710.094	19.65
710.277	20.03
710.461	19.03
710.644	18.23
710.828	18.19
711.011	18.26
711.195	17.55
711.378	17.52
711.562	17.82
711.745	18.39
711.928	19.29
712.112	19.41
712.295	19.38
712.478	20.37
712.662	20.67
712.845	21.39
713.028	20.98
713.212	21.57
713.395	21.01
713.578	21.13
713.761	21.13
713.945	21.32
714.128	21.81
714.311	21.47
714.494	21.93
714.677	22.97
714.86	22.3
715.043	22.73
715.227	23.14
715.41	23.51
715.593	23.01
715.776	23.22
715.959	23.73
716.142	22.66
716.325	23.02
716.508	22.25
716.691	20.91
716.874	20.56
717.057	20.3
717.239	19.66
717.422	19.62
717.605	19.01
717.788	18.1
717.971	17.09
718.154	17.73
718.337	17.11
718.519	17.13
718.702	17.75
718.885	18.71
719.068	19.45
719.25	19.23
719.433	18.9
719.616	19.38
719.798	19.48
719.981	20.72
720.164	20.83
720.346	20.93
720.529	20.74
720.712	20.72
720.894	20.58
721.077	19.85
721.259	20.51
721.442	19.65
721.624	19.7
721.807	21
721.989	19.26
722.172	18.88
722.354	19.23
722.537	19.85
722.719	19.78
722.901	20.54
723.084	20.85
723.266	19.77
723.448	21.35
723.631	22.36
723.813	21.52
723.995	21.96
724.178	21.71
724.36	21.36
724.542	20.81
724.724	20.38
724.907	19.96
725.089	19.89
725.271	21.77
725.453	20.99
725.635	20.21
725.817	20.13
725.999	19.47
726.181	19.04
726.364	18.33
726.546	17.91
726.728	18.69
726.91	18.09
727.092	17.96
727.274	16.82
727.456	17.25
727.638	17.15
727.819	17.38
728.001	18.26
728.183	18.79
728.365	19.66
728.547	20.57
728.729	20.57
728.911	20.23
729.093	20.19
729.274	20.81
729.456	20.53
729.638	20.93
729.82	20.91
730.001	21.13
730.183	21.7
730.365	21.41
730.546	20.76
730.728	20.57
730.91	20.92
731.091	21.22
731.273	20.91
731.455	21.28
731.636	21.48
731.818	21.47
731.999	21.02
732.181	21.13
732.362	21.51
732.544	22.54
732.725	22.77
732.907	22.53
733.088	21.79
733.27	21.89
733.451	21.9
733.633	21.28
733.814	20.5
733.995	20.85
734.177	20.9
734.358	20.98
734.539	19.78
734.721	18.89
734.902	20.08
735.083	21.14
735.264	21.23
735.446	21.53
735.627	20.99
735.808	23.11
735.989	22.68
736.17	21.35
736.351	21.36
736.533	22.17
736.714	22.41
736.895	21.8
737.076	21.16
737.257	21.25
737.438	20.74
737.619	22.11
737.8	21.29
737.981	20.98
738.162	21.93
738.343	21.5
738.524	21.19
738.705	21.46
738.886	20.36
739.067	21.02
739.247	19.9
739.428	19.39
739.609	18.51
739.79	17.6
739.971	18.2
740.151	17.82
740.332	18.83
740.513	19.19
740.694	19.42
740.874	21.39
741.055	21.16
741.236	21.5
741.417	21.27
741.597	20.23
741.778	20.73
741.958	21.4
742.139	20.95
742.32	20.04
742.5	20.16
742.681	19.62
742.861	18.41
743.042	17.03
743.222	16.59
743.403	17.06
743.583	18.56
743.764	18.69
743.944	17.82
744.124	18.44
744.305	20.39
744.485	20.45
744.666	21.86
744.846	21.65
745.026	22.44
745.207	23.58
745.387	23.92
745.567	24.79
745.747	24.93
745.928	24.63
746.108	25.12
746.288	23.36
746.468	23.64
746.648	22.69
746.829	22.93
747.009	24.9
747.189	22.17
747.369	22.3
747.549	21.42
747.729	21.05
747.909	21.38
748.089	21.12
748.269	22.12
748.449	20.79
748.629	21.15
748.809	21.65
748.989	19.66
749.169	21.23
749.349	22.71
749.529	23.11
749.709	23.24
749.889	22.49
750.068	22.2
750.248	21.58
750.428	23.25
750.608	22.86
750.788	22.25
750.967	22.61
751.147	23.94
751.327	22.83
751.507	21.76
751.686	21.07
751.866	21.98
752.046	21.26
752.225	19.83
752.405	18.29
752.585	18.41
752.764	18.66
752.944	17.38
753.123	16.68
753.303	16.71
753.482	17.48
753.662	17.73
753.841	18.64
754.021	19.04
754.2	19.47
754.38	19.17
754.559	18.95
754.739	18.22
754.918	19.3
755.097	19.9
755.277	20.41
755.456	21.97
755.635	21.66
755.815	20.38
755.994	20.81
756.173	20.84
756.352	20.91
756.532	19.79
756.711	20.67
756.89	19.62
757.069	20.1
757.248	20.13
757.427	18.41
757.607	20.02
757.786	19.86
757.965	20.78
758.144	22.88
758.323	24.11
758.502	25.39
758.681	24.99
758.86	26.53
759.039	25.68
759.218	24.28
759.397	23.96
759.576	23
759.755	23.72
759.934	22.14
760.113	20.94
760.291	20.49
760.47	20.49
760.649	20.83
760.828	21.84
761.007	21.77
761.186	22.53
761.364	23.41
761.543	23.56
761.722	22.74
761.901	23
762.079	22.8
762.258	22.18
762.437	22.29
762.615	22.19
762.794	21.08
762.972	19.93
763.151	20.11
763.33	18.69
763.508	18.73
763.687	18.93
763.865	19.04
764.044	19.31
764.222	19.36
764.401	20.07
764.579	19.19
764.758	18.74
764.936	20.01
765.114	18.78
765.293	20.06
765.471	19.62
765.65	20.05
765.828	20.56
766.006	20.22
766.184	19.92
766.363	18.09
766.541	19.17
766.719	19.42
766.898	18.95
767.076	20.44
767.254	19.64
767.432	20.61
767.61	20.12
767.788	20.85
767.967	21.71
768.145	23.94
768.323	23.74
768.501	24.91
768.679	25.27
768.857	26.28
769.035	25.72
769.213	25.86
769.391	25.05
769.569	25.46
769.747	23.47
769.925	21.92
770.103	19.28
770.281	20.27
770.459	19.56
770.636	18.91
770.814	17.32
770.992	18.52
771.17	19.3
771.348	19.66
771.525	20.32
771.703	21.98
771.881	22.45
772.059	24.33
772.236	23.93
772.414	22.18
772.592	23.37
772.769	22.93
772.947	23.14
773.125	23.55
773.302	22.31
773.48	21.82
773.657	21.26
773.835	22.34
774.013	20.87
774.19	21.97
774.368	22.49
774.545	20.06
774.723	21.99
774.9	19.81
775.077	17.99
775.255	18.69
775.432	16.94
775.61	16.23
775.787	15.7
775.964	17.75
776.142	16.18
776.319	17.71
776.496	19.26
776.674	16.73
776.851	17.94
777.028	18.46
777.205	18.09
777.382	18.38
777.56	18.41
777.737	18.26
777.914	17.9
778.091	19.07
778.268	19.14
778.445	20.31
778.622	22.9
778.8	20.93
778.977	21.2
779.154	23.09
779.331	25.53
779.508	28.07
779.685	28.32
779.862	28.04
780.038	29.66
780.215	27.94
780.392	27.55
780.569	28.92
780.746	31.65
780.923	34.53
781.1	32.77
781.277	31.22
781.453	29.1
781.63	29.78
781.807	31.03
781.984	29.35
782.16	29.63
782.337	29.95
782.514	28.17
782.691	25.3
782.867	22.34
783.044	23.5
783.221	22.73
783.397	24.92
783.574	28.1
783.75	28.22
783.927	27.9
784.103	29.27
784.28	28.9
784.456	27.64
784.633	29.58
784.809	29.89
784.986	29.29
785.162	30.17
785.339	27.67
785.515	23.86
785.692	20.59
785.868	24.07
786.044	22.34
786.221	21.79
786.397	24.86
786.573	23.74
786.749	22.95
786.926	22.4
787.102	21.65
787.278	20.91
787.454	18.38
787.631	19.54
787.807	16.87
787.983	18.47
788.159	16.31
788.335	16.26
788.511	18.23
788.687	20.93
788.863	22.92
789.039	24.06
789.216	24.56
789.392	26.18
789.568	28.58
789.744	28.47
789.919	25.95
790.095	27.85
790.271	26
790.447	25.23
790.623	23.82
790.799	22.35
790.975	21.31
791.151	22.58
791.327	23.86
791.502	22.56
791.678	19.49
791.854	24.24
792.03	24.05
792.205	25.6
792.381	26.89
792.557	26.56
792.733	24.27
792.908	22.13
793.084	25.86
793.259	22.58
793.435	20.86
793.611	22.25
793.786	21.72
793.962	20.16
794.137	18.27
794.313	17.22
794.488	18.17
794.664	20.43
794.839	25.59
795.015	22.96
795.19	23.33
795.366	22.41
795.541	22.75
795.716	21.34
795.892	21.76
796.067	23.38
796.242	22.92
796.418	21.32
796.593	19.4
796.768	17.57
796.944	14.92
797.119	16.1
797.294	17.92
797.469	17.8
797.644	14.54
797.82	16.78
797.995	17.31
798.17	17.14
798.345	18.09
798.52	19
798.695	15.2
798.87	15.53
799.045	16.5
799.22	17.5
799.395	18.38
799.57	20.89
799.745	20.43
799.92	20.11
800.095	20.39
800.27	21.87
800.445	23.49
800.62	26.93
800.795	27.62
800.97	25.62
801.145	26.27
801.319	26.94
801.494	28.52
801.669	25.32
801.844	26.01
802.018	24.08
802.193	25.82
802.368	23.18
802.543	22.17
802.717	24.47
802.892	25.41
803.067	23.89
803.241	23.65
803.416	21.55
803.59	23.24
803.765	21.47
803.94	23.18
804.114	20.38
804.289	20.58
804.463	20.58
804.638	19.94
804.812	18.42
804.986	17.52
805.161	16.16
805.335	16.71
805.51	20.13
805.684	20.07
805.858	21.02
806.033	21.85
806.207	24.76
806.381	22.76
806.556	19.23
806.73	19.06
806.904	17.32
807.078	17.18
807.253	18.3
807.427	13.85
807.601	14.38
807.775	15.08
807.949	11.96
808.123	10.22
808.298	12.31
808.472	14.95
808.646	17.24
808.82	17.64
808.994	20.7
809.168	21.27
809.342	24.01
809.516	23.62
809.69	21.23
809.864	25.26
810.038	24.87
810.212	23.33
810.385	21.86
810.559	20.06
810.733	18.16
810.907	15.19
811.081	15.28
811.255	17.54
811.428	16.34
811.602	15.4
811.776	14.11
811.95	15.78
812.123	20.54
812.297	20.77
812.471	20.85
812.644	22.94
812.818	26.67
812.992	26.95
813.165	22.38
813.339	27.88
813.512	27.87
813.686	28.39
813.86	29.63
814.033	23.13
814.207	18.77
814.38	19.18
814.554	19.07
814.727	17.07
814.9	14.08
815.074	14.73
815.247	10.12
815.421	15.36
815.594	15.05
815.767	11.5
815.941	13.67
816.114	17.69
816.287	20.16
816.46	20.89
816.634	24.06
816.807	28.61
816.98	26.9
817.153	25.85
817.327	25.84
817.5	26.01
817.673	24.99
817.846	31.58
818.019	30.83
818.192	32.63
818.365	31.12
818.538	23.44
818.711	21.61
818.884	24.1
819.057	26.13
819.23	26.9
819.403	23.39
819.576	24.02
819.749	21.94
819.922	26.16
820.095	23.42
820.268	24.23
820.441	26.98
820.614	26.85
820.786	26.93
820.959	24.78
821.132	22.94
821.305	23.22
821.477	24.47
821.65	22.95
821.823	21.5
821.996	21.64
822.168	21.53
822.341	22.09
822.514	22.75
822.686	22.74
822.859	23.24
823.031	22.94
823.204	23.42
823.376	22.95
823.549	22.72
823.722	22.65
823.894	23.2
824.067	23.68
824.239	23.47
824.411	23.45
824.584	23.51
824.756	23.11
824.929	24.19
825.101	22.95
825.273	23.58
825.446	23.87
825.618	24.18
825.79	23.48
825.963	24.85
826.135	24.97
826.307	24.25
826.479	24.81
826.652	25.42
826.824	25.11
826.996	25.71
827.168	24.67
827.34	24.4
827.512	25.05
827.684	24.8
827.856	23.05
828.029	22.75
828.201	21.56
828.373	19.74
828.545	19.03
828.717	17.85
828.889	18.83
829.061	18.62
829.232	18.01
829.404	18.45
829.576	18.89
829.748	19.07
829.92	19.27
830.092	19.38
830.264	22.49
830.436	23.67
830.607	23.48
830.779	22.35
830.951	24.85
831.123	29.1
831.294	27.29
831.466	26.63
831.638	27.99
831.809	27.66
831.981	29.29
832.153	24.28
832.324	19.83
832.496	19.4
832.667	20.65
832.839	18.16
833.011	14.06
833.182	18
833.354	20.52
833.525	19.92
833.697	20.23
833.868	20.89
834.039	23.99
834.211	26.07
834.382	26.12
834.554	26.46
834.725	26.78
834.896	29.03
835.068	28.2
835.239	27.65
835.41	27.46
835.581	26.65
835.753	27.98
835.924	26.86
836.095	27.41
836.266	29.58
836.438	29.93
836.609	32.17
836.78	32.13
836.951	31.17
837.122	30.28
837.293	26.88
837.464	26.41
837.635	25.2
837.806	24.36
837.977	24.56
838.148	22.4
838.319	23.31
838.49	20.56
838.661	23.53
838.832	20.1
839.003	14.75
839.174	21.93
839.345	25.4
839.516	20.61
839.687	22.24
839.857	18.58
840.028	19.71
840.199	15.07
840.37	13.63
840.54	9.61
840.711	13.8
840.882	16.99
841.053	12.02
841.223	10.32
841.394	15.77
841.564	15.81
841.735	14.42
841.906	13.09
842.076	12.37
842.247	13.85
842.417	12.34
842.588	19.33
842.758	21.74
842.929	23.62
843.099	21.67
843.27	24.63
843.44	15.76
843.611	18.36
843.781	14.9
843.951	19.28
844.122	22.53
844.292	22.45
844.462	13.67
844.633	15.6
844.803	13.31
844.973	21.83
845.144	28.53
845.314	41.37
845.484	44.26
845.654	50.73
845.824	54.03
845.995	49.02
846.165	57.02
846.335	55.02
846.505	53.64
846.675	53.04
846.845	55.64
847.015	37.61
847.185	48.44
847.355	53.21
847.525	54.39
847.695	43.53
847.865	34.27
848.035	28.05
848.205	20.18
848.375	19.73
848.545	14.44
848.715	4.77
848.884	2.34
849.054	-11.25
849.224	-16.41
849.394	-16.67
849.564	-6.66
849.733	-11.49
849.903	0.44
850.073	-20.76
850.243	-3.43
850.412	-0.91
850.582	2.92
850.752	21.94
850.921	15.42
851.091	11.18
851.26	14.81
851.43	19.32
851.599	28.25
851.769	25.09
851.939	54.48
852.108	62.83
852.278	56.21
852.447	51.9
852.616	31.33
852.786	52.13
852.955	47.55
853.125	42.71
853.294	25.13
853.463	32.62
853.633	25.73
853.802	22.56
853.971	17.23
854.141	21.1
854.31	33.26
854.479	29.57
854.648	21.76
854.818	24.58
854.987	27.92
855.156	47.3
855.325	37.67
855.494	39.17
855.663	37.89
855.832	39.02
856.001	42.65
856.171	34.68
856.34	43.55
856.509	33.02
856.678	49.02
856.847	38.19
857.016	30.97
857.185	31.16
857.353	16.48
857.522	14.65
857.691	-9.68
857.86	-32.47
858.029	-13.5
858.198	-16.24
858.367	23.31
858.535	15.18
858.704	18.88
858.873	-2.03
859.042	-21.23
859.21	38.55
859.379	10.67
859.548	61.7
859.717	89.04
859.885	81.52
860.054	88.42
860.222	67.08
860.391	65.98
860.56	76.2
860.728	75.79
860.897	80.61
861.065	56.51
861.234	54.84
861.402	53.49
861.571	50.99
861.739	49.88
861.908	51.62
862.076	51.75
862.244	45.92
862.413	27.22
862.581	27.97
862.749	31.76
862.918	43.98
863.086	45.97
863.254	31.55
863.423	24.64
863.591	27.55
863.759	31.53
863.927	8.16
864.096	1.21
864.264	10.88
864.432	4.48
864.6	-21.16
864.768	-3.81
864.936	9.36
865.104	16.16
865.272	20.04
865.44	19.71
865.608	28.8
865.776	29.14
865.944	38.8
866.112	39.15
866.28	43.81
866.448	43.15
866.616	29.15
866.784	18.06
866.952	26.36
867.12	32.24
867.288	25.02
867.455	-16.63
867.623	-17.64
867.791	-25.52
867.959	-21.84
868.127	-2.94
868.294	14.04
868.462	17
868.63	22.97
868.797	34.2
868.965	39.41
869.133	42.95
869.3	60.73
869.468	73.58
869.636	71.94
869.803	79.19
869.971	56.09
870.138	45.35
870.306	34.17
870.473	35.02
870.641	44.76
870.808	22.84
870.975	18.18
871.143	4.84
871.31	10.24
871.478	9.37
871.645	-6.23
871.812	0.82
871.98	-3.79
872.147	-0.65
872.314	-22.75
872.482	-50.49
872.649	-4.88
872.816	5.47
872.983	30.82
873.15	14.39
873.318	26.37
873.485	40.07
873.652	26.76
873.819	12.21
873.986	38.27
874.153	43.88
874.32	35.29
874.487	25.91
874.654	17.25
874.821	-13.19
874.988	-4.55
875.155	-6.6
875.322	-24.27
875.489	-12.86
875.656	6.7
875.823	-28.9
875.99	-13.33
876.157	-7.39
876.324	-24.09
876.49	-29.45
876.657	-17.44
876.824	-24.23
876.991	-27.9
877.157	-15.59
877.324	-6.93
877.491	-14.74
877.658	19.67
877.824	10.52
877.991	15.56
878.157	28.61
878.324	37.74
878.491	52.39
878.657	54.97
878.824	53.09
878.99	49.11
879.157	56.61
879.323	44.66
879.49	27.72
879.656	22.6
879.823	14.16
879.989	9.52
880.156	7.63
880.322	14.81
880.488	44.19
880.655	55.18
880.821	42.6
880.987	30.84
881.154	36.55
881.32	34.93
881.486	32.87
881.652	39.1
881.819	41.44
881.985	41.13
882.151	28.61
882.317	23.42
882.483	22.88
882.649	22.61
882.816	19.44
882.982	17.42
883.148	20.41
883.314	22.94
883.48	20.86
883.646	19.74
883.812	21.06
883.978	26.36
884.144	29.48
884.31	26.16
884.476	25.72
884.642	27.17
884.807	26.99
884.973	24.84
885.139	23.67
885.305	24.9
885.471	23.28
885.637	22.47
885.802	25.58
885.968	21.65
886.134	25.96
886.3	29.2
886.465	25.46
886.631	31.4
886.797	33.27
886.962	33.5
887.128	35.22
887.293	30.7
887.459	27.94
887.625	22.09
887.79	22.97
887.956	20.72
888.121	21.58
888.287	31.12
888.452	21.92
888.618	18.38
888.783	22.2
