Data from 2938123_Reflection_3.txt Node
Date: Sat Jul 11 17:38:43 EDT 2015
User: robert
Spectrometer: USB4E03001
Autoset integration time: false
Trigger mode: 4
Integration Time (sec): 1.000000E-1
Scans to average: 10
Electric dark correction enabled: true
Nonlinearity correction enabled: false
Boxcar width: 5
Stray light correction enabled: false
XAxis mode: Wavelengths
Stop averaging: false
Number of Pixels in Spectrum: 3648
>>>>>Begin Spectral Data<<<<<
177.566	585.19
177.785	-49.9
178.005	-50.95
178.225	-19.65
178.445	40.05
178.665	153.1
178.885	169.03
179.105	119.62
179.324	85.15
179.544	31.22
179.764	59.59
179.984	79.83
180.204	151.51
180.423	160.1
180.643	780.12
180.863	-870.59
181.083	311.52
181.302	389.53
181.522	275.67
181.742	301.78
181.961	311.2
182.181	270.96
182.401	411.3
182.621	1479.45
182.84	989.81
183.06	275.79
183.279	199.51
183.499	175.48
183.719	122.44
183.938	113.6
184.158	194.73
184.377	161.5
184.597	156.32
184.816	164.63
185.036	138.97
185.256	146.75
185.475	162.37
185.695	149.59
185.914	166.14
186.134	152.01
186.353	167.43
186.572	104.03
186.792	127.16
187.011	176.36
187.231	133.94
187.45	115.8
187.67	125.27
187.889	113.59
188.108	132.63
188.328	123.45
188.547	132.76
188.766	133.12
188.986	169.76
189.205	179.16
189.424	139.14
189.644	138.2
189.863	216.97
190.082	766.56
190.302	259.82
190.521	165.55
190.74	242.81
190.959	-1220.93
191.178	-524.14
191.398	399.89
191.617	155.93
191.836	200
192.055	371.68
192.274	274.58
192.494	246.7
192.713	1288.69
192.932	1080.37
193.151	-10186.6
193.37	-2026.44
193.589	-456.74
193.808	-2473.78
194.027	-1816.73
194.246	1007.73
194.465	17672.88
194.685	1555.87
194.904	-2577.06
195.123	480.83
195.342	-584.83
195.561	453.56
195.78	270.97
195.999	286.16
196.218	608
196.436	520.35
196.655	393.31
196.874	217.92
197.093	223.65
197.312	188.98
197.531	202.84
197.75	157.67
197.969	139.35
198.188	135.44
198.407	113.09
198.625	103.87
198.844	82.23
199.063	88.1
199.282	98.42
199.501	16.01
199.719	9.11
199.938	61.23
200.157	62.62
200.376	-325.74
200.594	169.82
200.813	134.42
201.032	113.55
201.251	127.35
201.469	145.69
201.688	107.88
201.907	139.29
202.125	120.22
202.344	138.56
202.563	119.64
202.781	141.28
203	97.1
203.218	122.69
203.437	146.47
203.656	164.95
203.874	134.8
204.093	99.9
204.311	90.55
204.53	96.74
204.748	102.41
204.967	104.69
205.185	89.11
205.404	82.4
205.622	76.84
205.841	85.21
206.059	88.91
206.278	98.51
206.496	113.74
206.715	122.19
206.933	125.83
207.151	150.79
207.37	219.93
207.588	364.12
207.806	309.94
208.025	561.61
208.243	410.25
208.461	270.61
208.68	-80.6
208.898	318
209.116	236.23
209.335	242.36
209.553	463.81
209.771	430.83
209.989	1507.99
210.208	-2233.77
210.426	-1006.24
210.644	-1148.32
210.862	377.8
211.081	256.28
211.299	315.92
211.517	388.19
211.735	488.26
211.953	201.1
212.171	185.33
212.39	132.22
212.608	111.98
212.826	80.82
213.044	89.51
213.262	108.33
213.48	93.99
213.698	93.29
213.916	126.01
214.134	96.04
214.352	115.42
214.57	105.42
214.788	117.42
215.006	131.42
215.224	118.77
215.442	102.06
215.66	106.27
215.878	141.27
216.096	140.63
216.314	104.74
216.532	81.19
216.75	79.55
216.968	106.58
217.185	111.12
217.403	113.22
217.621	193.06
217.839	202.2
218.057	135.71
218.275	132.95
218.492	156.73
218.71	147.87
218.928	182.11
219.146	238.05
219.363	170.71
219.581	241.91
219.799	-147.41
220.017	-2252.58
220.234	-65.5
220.452	-29.01
220.67	-28.79
220.887	181.1
221.105	188.83
221.323	73.91
221.54	66.08
221.758	53.76
221.976	36.78
222.193	36.73
222.411	30.85
222.629	26.08
222.846	30.45
223.064	36.1
223.281	41.22
223.499	38.71
223.716	50.36
223.934	42.4
224.151	47.61
224.369	64.2
224.586	65.79
224.804	63.78
225.021	66.7
225.239	67.32
225.456	53.48
225.674	53.54
225.891	63.58
226.108	55.35
226.326	55.72
226.543	53.08
226.76	44.35
226.978	44.48
227.195	43.55
227.413	42.89
227.63	39.89
227.847	44.93
228.064	38.95
228.282	39.05
228.499	37.77
228.716	37.49
228.934	38.1
229.151	35.29
229.368	34.43
229.585	34.01
229.802	34.22
230.02	31.12
230.237	29.62
230.454	28.17
230.671	24.33
230.888	22.24
231.105	16.95
231.323	13.8
231.54	11.85
231.757	14.44
231.974	14.51
232.191	17.54
232.408	20.12
232.625	22.32
232.842	25.34
233.059	29.88
233.276	32.52
233.493	37.37
233.71	35.36
233.927	34.6
234.144	31.43
234.361	33.67
234.578	28.78
234.795	24.12
235.012	19.91
235.229	14.87
235.446	8.59
235.663	8.62
235.879	8.9
236.096	2.35
236.313	2.04
236.53	4.28
236.747	-2.92
236.964	1.04
237.181	13.61
237.397	16.85
237.614	27.7
237.831	23.36
238.048	25.83
238.264	25.6
238.481	36.38
238.698	35.37
238.915	28.21
239.131	31.7
239.348	30.35
239.565	28.95
239.781	27.55
239.998	21.95
240.215	29.66
240.431	29.8
240.648	27.74
240.865	26.49
241.081	24.55
241.298	25.65
241.514	24.33
241.731	21.04
241.947	19.89
242.164	18.94
242.38	17.54
242.597	16.33
242.814	15.7
243.03	14.75
243.246	13.91
243.463	14.51
243.679	14.73
243.896	15.66
244.112	15.27
244.329	13.61
244.545	13.5
244.762	14.58
244.978	13.33
245.194	12.81
245.411	14.26
245.627	13.89
245.843	12.15
246.06	10.38
246.276	9.71
246.492	11.47
246.709	10.89
246.925	10.45
247.141	9.72
247.357	9.24
247.574	9.4
247.79	9.85
248.006	9.29
248.222	9.44
248.439	9.45
248.655	8.38
248.871	7.5
249.087	8.66
249.303	8.48
249.519	9.4
249.736	9.63
249.952	8.29
250.168	6
250.384	7.62
250.6	10.47
250.816	12.51
251.032	16.88
251.248	17.42
251.464	18.71
251.68	19.93
251.896	19.22
252.112	18.42
252.328	16.18
252.544	17.31
252.76	17.13
252.976	15.33
253.192	15.03
253.408	13.46
253.624	12.47
253.84	13.23
254.056	14.89
254.272	17.07
254.487	16.48
254.703	19.56
254.919	19.06
255.135	18.43
255.351	21.79
255.567	19.49
255.782	19.96
255.998	22.29
256.214	19.32
256.43	18.21
256.646	16.39
256.861	16.61
257.077	15.66
257.293	17.88
257.508	16.62
257.724	12.57
257.94	11.74
258.155	11.45
258.371	13.66
258.587	11.98
258.802	11.04
259.018	10.79
259.234	10.03
259.449	9.41
259.665	8.77
259.88	8.65
260.096	8.71
260.312	9.2
260.527	8.83
260.743	6.99
260.958	7.13
261.174	6.52
261.389	6.58
261.605	6.88
261.82	7.19
262.036	6.76
262.251	6.94
262.466	6.78
262.682	8.89
262.897	9.11
263.113	11.07
263.328	11.47
263.543	13.39
263.759	11.86
263.974	14.43
264.189	13.23
264.405	12.72
264.62	13.75
264.835	13.83
265.051	12.94
265.266	13.1
265.481	9.68
265.696	11.19
265.912	10.75
266.127	11.02
266.342	8.7
266.557	9
266.773	8.6
266.988	6.91
267.203	7.21
267.418	5.43
267.633	5.35
267.848	7.22
268.064	6.64
268.279	7.01
268.494	8.09
268.709	8.54
268.924	9.58
269.139	10.75
269.354	12.24
269.569	11.95
269.784	11.43
269.999	11.37
270.214	10.34
270.429	10.99
270.644	10.85
270.859	10.79
271.074	9.91
271.289	9.16
271.504	8.39
271.719	8.35
271.934	9.67
272.149	11.17
272.363	11.47
272.578	10.29
272.793	9.64
273.008	9.62
273.223	9.06
273.438	9.39
273.653	10.57
273.867	10.37
274.082	10.7
274.297	10.53
274.512	10.31
274.726	8.66
274.941	10.43
275.156	11.49
275.371	9.95
275.585	10.25
275.8	11.14
276.015	10.49
276.229	11.33
276.444	9.92
276.659	9.4
276.873	9.18
277.088	11.31
277.302	13.3
277.517	11.69
277.732	13.41
277.946	12.87
278.161	14.2
278.375	14.7
278.59	15.59
278.804	17.48
279.019	17.57
279.233	18
279.448	17.18
279.662	16.42
279.877	17.2
280.091	14.25
280.306	15.21
280.52	13.72
280.735	10.93
280.949	10.88
281.163	10.11
281.378	9.16
281.592	8.87
281.806	8.86
282.021	8.96
282.235	8.55
282.449	10.15
282.664	9.74
282.878	9.82
283.092	11.36
283.307	11.16
283.521	10.77
283.735	10.77
283.949	9.63
284.164	9.93
284.378	9.63
284.592	9.54
284.806	11.03
285.02	10.58
285.234	10.53
285.449	9.81
285.663	9.35
285.877	9.01
286.091	9.7
286.305	11.19
286.519	10.56
286.733	9.25
286.947	10.45
287.161	9.16
287.375	9
287.589	9.88
287.803	11.75
288.017	12.39
288.231	13.75
288.445	13.25
288.659	13.43
288.873	15.12
289.087	16.11
289.301	14.09
289.515	14.76
289.729	15.81
289.943	15.33
290.157	15.55
290.371	15.42
290.584	14.88
290.798	14.91
291.012	15.06
291.226	14.2
291.44	15.14
291.654	14.93
291.867	15.02
292.081	15.17
292.295	14.41
292.509	13.88
292.722	13.09
292.936	12.74
293.15	13.89
293.364	14.74
293.577	15.93
293.791	14.47
294.005	16.09
294.218	14.83
294.432	13.3
294.645	13.55
294.859	13.67
295.073	13.22
295.286	13.92
295.5	12.56
295.713	10.92
295.927	10.56
296.14	11.6
296.354	11.86
296.568	11.78
296.781	13.18
296.994	12.97
297.208	12.58
297.421	13.65
297.635	14
297.848	14.79
298.062	14.9
298.275	14.84
298.489	15.06
298.702	15.96
298.915	17.12
299.129	16.42
299.342	18.49
299.555	18.61
299.769	18.68
299.982	18.47
300.195	18.84
300.409	20.66
300.622	20.82
300.835	21.22
301.048	20.43
301.262	20.52
301.475	21.63
301.688	20.76
301.901	22.13
302.115	22.38
302.328	22.64
302.541	22.78
302.754	21.85
302.967	23.72
303.18	20.79
303.393	21.14
303.607	20.86
303.82	18.99
304.033	18.57
304.246	19.6
304.459	19.25
304.672	19.24
304.885	18.46
305.098	18.98
305.311	16.36
305.524	19.07
305.737	18.34
305.95	19.93
306.163	21.84
306.376	22.19
306.589	19.76
306.802	19.65
307.015	18.9
307.228	18.38
307.44	17.48
307.653	18.99
307.866	19.51
308.079	20.39
308.292	17.49
308.505	15.64
308.718	16.13
308.93	16.98
309.143	17.36
309.356	17.2
309.569	17.27
309.781	18.18
309.994	17.26
310.207	17.53
310.42	16.2
310.632	16.82
310.845	17.95
311.058	18.66
311.27	17.45
311.483	17.87
311.696	17.91
311.908	18.85
312.121	17.29
312.333	17.83
312.546	17.6
312.759	19.6
312.971	19.26
313.184	18.15
313.396	15.75
313.609	15.76
313.821	15.36
314.034	16.85
314.246	15.92
314.459	18.15
314.671	17.68
314.884	16.38
315.096	16.67
315.309	17.05
315.521	18.33
315.733	19.36
315.946	20.4
316.158	19.43
316.371	18.69
316.583	19.84
316.795	18.25
317.008	18.83
317.22	20.47
317.432	19.5
317.644	20.55
317.857	21.54
318.069	22.59
318.281	23.54
318.494	25.19
318.706	25.29
318.918	26.45
319.13	26.38
319.342	27.06
319.555	25.79
319.767	25.09
319.979	24.45
320.191	23.46
320.403	23.54
320.615	23.11
320.827	22.1
321.039	22.45
321.252	21.44
321.464	22.87
321.676	23.22
321.888	23.57
322.1	24.97
322.312	25
322.524	24.75
322.736	24.3
322.948	25.37
323.16	26.37
323.372	27.07
323.584	26.8
323.796	26.95
324.007	24.99
324.219	25.49
324.431	25.62
324.643	26.3
324.855	26.93
325.067	27.47
325.279	28.3
325.491	28.85
325.702	28.97
325.914	29.96
326.126	29.07
326.338	29.62
326.55	30.58
326.761	31.57
326.973	31.87
327.185	32.25
327.396	31.46
327.608	29.84
327.82	29.76
328.032	29.61
328.243	30.01
328.455	30.97
328.666	32.43
328.878	31.98
329.09	29.27
329.301	28.06
329.513	28.02
329.725	28.85
329.936	31.28
330.148	32.75
330.359	33.1
330.571	32.16
330.782	33.54
330.994	34.72
331.205	35.31
331.417	37.58
331.628	38.51
331.84	38.93
332.051	40.25
332.262	40.56
332.474	41.18
332.685	42.15
332.897	42.86
333.108	42.88
333.319	42.67
333.531	43.59
333.742	44.49
333.953	45.18
334.165	46.39
334.376	47.12
334.587	46.16
334.799	45.79
335.01	46.08
335.221	46.1
335.432	46.14
335.644	45.57
335.855	45.88
336.066	46.36
336.277	46.93
336.488	46
336.7	45.16
336.911	45.9
337.122	46.52
337.333	46.32
337.544	48.33
337.755	49.28
337.966	49.83
338.177	48.74
338.388	48.52
338.599	49.71
338.811	49.61
339.022	50.52
339.233	50.48
339.444	50.22
339.655	50.55
339.866	49.44
340.076	49.16
340.287	50.19
340.498	50.1
340.709	49.67
340.92	48.95
341.131	49.88
341.342	51.33
341.553	52.77
341.764	52.55
341.975	52.82
342.185	53.84
342.396	53.06
342.607	54.07
342.818	55.25
343.029	56.74
343.239	57.82
343.45	59.51
343.661	57.88
343.872	56.51
344.082	55.96
344.293	55.46
344.504	54.48
344.714	55.68
344.925	54.82
345.136	54.86
345.346	54.51
345.557	54.1
345.768	52.12
345.978	52.64
346.189	54
346.399	54.35
346.61	53.75
346.821	53.92
347.031	53.64
347.242	54.14
347.452	53.71
347.663	52.78
347.873	52.03
348.084	52.86
348.294	52.87
348.504	51.98
348.715	52.78
348.925	53.59
349.136	53.83
349.346	53.18
349.557	51.58
349.767	52.33
349.977	52.33
350.188	52.48
350.398	52.74
350.608	51.57
350.819	50.97
351.029	49.77
351.239	50
351.449	49.96
351.66	49.94
351.87	51.31
352.08	50.44
352.29	51.03
352.501	51.69
352.711	50.92
352.921	51.8
353.131	52.84
353.341	54.2
353.552	53.71
353.762	53.01
353.972	54.04
354.182	53.39
354.392	54.27
354.602	55.08
354.812	54.5
355.022	54.91
355.232	53.6
355.442	53.48
355.652	52.59
355.862	53.83
356.072	54.53
356.282	53.2
356.492	53.64
356.702	53.39
356.912	52.92
357.122	52.9
357.332	53.71
357.542	53.99
357.752	53.57
357.962	53.61
358.171	52.68
358.381	52.76
358.591	52.43
358.801	51.92
359.011	51.61
359.221	51.79
359.43	51.48
359.64	50.75
359.85	50.62
360.06	50.17
360.269	50.77
360.479	51.29
360.689	51.2
360.899	51.04
361.108	51.1
361.318	51.74
361.528	51.3
361.737	51.14
361.947	50.82
362.156	51.25
362.366	52.3
362.576	51.88
362.785	51.33
362.995	51.59
363.204	51.82
363.414	51.46
363.623	50.96
363.833	51.03
364.042	51.91
364.252	52.24
364.461	52.14
364.671	50.94
364.88	51.56
365.09	51.3
365.299	51.14
365.509	51.73
365.718	51.52
365.927	51.34
366.137	51.54
366.346	50.73
366.555	49.38
366.765	48.95
366.974	49.05
367.183	48.1
367.393	48.46
367.602	47.68
367.811	47.73
368.021	48.11
368.23	48.19
368.439	47.3
368.648	48.06
368.857	48.76
369.067	49.19
369.276	48.42
369.485	48.17
369.694	48.34
369.903	48.68
370.112	48.13
370.321	48.21
370.531	47.99
370.74	48.31
370.949	48.17
371.158	48.48
371.367	48.54
371.576	49.29
371.785	49.84
371.994	49
372.203	49.39
372.412	48.75
372.621	48.34
372.83	48.77
373.039	48.51
373.248	47.39
373.457	46.99
373.666	47.1
373.874	47.02
374.083	46.72
374.292	47.24
374.501	45.95
374.71	46.48
374.919	46.07
375.128	45.58
375.336	45.13
375.545	45.9
375.754	46.01
375.963	44.55
376.171	44.44
376.38	44.07
376.589	44.14
376.798	44.02
377.006	43.75
377.215	43.17
377.424	42.89
377.632	43.5
377.841	42.25
378.05	42.13
378.258	42.68
378.467	42.27
378.675	42.07
378.884	41.3
379.093	41.57
379.301	41.41
379.51	41.63
379.718	41.38
379.927	40.78
380.135	41.46
380.344	41.29
380.552	40.83
380.761	40.7
380.969	40.88
381.177	40.47
381.386	40.21
381.594	39.69
381.803	39.58
382.011	39.46
382.219	39.4
382.428	38.64
382.636	38.45
382.845	38.45
383.053	38.55
383.261	38.09
383.469	38.4
383.678	38.64
383.886	39.33
384.094	39.77
384.302	39.58
384.511	39.46
384.719	39.43
384.927	38.83
385.135	38.58
385.343	38.69
385.552	38.67
385.76	38.52
385.968	38.3
386.176	38.12
386.384	37.42
386.592	36.78
386.8	36.46
387.008	36.63
387.216	36.7
387.424	36.82
387.633	36.29
387.841	35.91
388.049	35.7
388.257	35.56
388.465	34.96
388.672	35.02
388.88	35.95
389.088	35.44
389.296	35.11
389.504	34.96
389.712	34.55
389.92	34.13
390.128	34.16
390.336	34.15
390.544	33.45
390.751	33.1
390.959	32.58
391.167	31.69
391.375	31.94
391.583	31.89
391.79	31.71
391.998	31.79
392.206	32.01
392.414	31.93
392.621	31.94
392.829	32.09
393.037	32.39
393.244	32.66
393.452	32.44
393.66	32.44
393.867	32.06
394.075	32.01
394.283	32.18
394.49	31.9
394.698	32.02
394.905	31.72
395.113	31.72
395.32	31.7
395.528	31.91
395.735	32.02
395.943	32.06
396.15	32.34
396.358	32.46
396.565	32.17
396.773	32.36
396.98	32.43
397.188	32.31
397.395	32.29
397.602	32.01
397.81	31.76
398.017	31.81
398.225	31.22
398.432	31.52
398.639	31.67
398.847	31.57
399.054	31.47
399.261	31.35
399.468	31.36
399.676	31.14
399.883	31.18
400.09	30.98
400.297	31.13
400.505	31.45
400.712	31.28
400.919	31.15
401.126	31.38
401.333	31.35
401.54	31.07
401.748	31.1
401.955	31.04
402.162	30.98
402.369	31.21
402.576	31.09
402.783	31.27
402.99	31.31
403.197	31.16
403.404	31.2
403.611	31.27
403.818	31.4
404.025	31.48
404.232	31.76
404.439	31.9
404.646	31.52
404.853	31.41
405.06	31.35
405.267	31.19
405.474	31.29
405.681	31.13
405.887	31.12
406.094	31.09
406.301	31.3
406.508	30.94
406.715	30.65
406.922	30.79
407.128	30.86
407.335	30.61
407.542	30.68
407.749	30.62
407.955	30.53
408.162	30.34
408.369	30.45
408.575	30.2
408.782	30.28
408.989	30.47
409.195	30.44
409.402	30.45
409.609	30.63
409.815	30.47
410.022	30.27
410.228	30.33
410.435	30.76
410.642	30.38
410.848	30.54
411.055	30.71
411.261	30.87
411.468	31.18
411.674	31.19
411.881	30.87
412.087	30.55
412.294	30.8
412.5	30.93
412.706	30.73
412.913	31.08
413.119	30.9
413.326	30.74
413.532	30.4
413.738	30.11
413.945	29.94
414.151	30.04
414.357	30.26
414.564	30.03
414.77	29.87
414.976	29.82
415.182	29.71
415.389	29.82
415.595	30.08
415.801	30.02
416.007	29.97
416.214	30
416.42	29.81
416.626	30.02
416.832	29.91
417.038	29.8
417.244	29.56
417.45	29.57
417.657	29.2
417.863	29.07
418.069	29.06
418.275	29.07
418.481	28.97
418.687	28.97
418.893	28.67
419.099	28.71
419.305	28.65
419.511	28.64
419.717	28.49
419.923	28.69
420.129	28.49
420.335	28.6
420.541	28.59
420.746	28.69
420.952	28.7
421.158	28.75
421.364	28.57
421.57	28.62
421.776	28.53
421.982	28.55
422.187	28.43
422.393	28.5
422.599	28.38
422.805	28.24
423.01	28.24
423.216	28.21
423.422	28.2
423.628	28.4
423.833	28.29
424.039	28.47
424.245	28.4
424.45	28.43
424.656	28.48
424.862	28.54
425.067	28.61
425.273	28.57
425.478	28.56
425.684	28.6
425.889	28.53
426.095	28.55
426.301	28.31
426.506	28.45
426.712	28.44
426.917	28.37
427.123	28.3
427.328	28.34
427.533	28.24
427.739	28.22
427.944	28.22
428.15	28.3
428.355	28.24
428.561	28.37
428.766	28.27
428.971	28.14
429.177	28.14
429.382	27.99
429.587	27.99
429.793	27.98
429.998	28.2
430.203	28.04
430.408	27.76
430.614	27.91
430.819	27.77
431.024	27.77
431.229	27.73
431.434	27.5
431.64	27.42
431.845	27.35
432.05	27.51
432.255	27.36
432.46	27.46
432.665	27.58
432.87	27.49
433.076	27.66
433.281	27.6
433.486	27.63
433.691	27.92
433.896	28.2
434.101	28.28
434.306	28.23
434.511	28.33
434.716	28.34
434.921	28.5
435.126	28.57
435.331	28.49
435.535	28.5
435.74	28.6
435.945	28.5
436.15	28.43
436.355	28.42
436.56	28.47
436.765	28.55
436.97	28.36
437.174	28.11
437.379	28.31
437.584	28.32
437.789	28.32
437.993	28.34
438.198	28.41
438.403	28.25
438.608	28.23
438.812	28.01
439.017	27.77
439.222	27.9
439.426	28.09
439.631	27.75
439.836	27.65
440.04	27.46
440.245	27.46
440.45	27.21
440.654	27.18
440.859	27
441.063	27.04
441.268	27.14
441.472	27.01
441.677	26.88
441.881	26.89
442.086	26.98
442.29	27.27
442.495	27.13
442.699	27.29
442.904	27.39
443.108	27.62
443.312	27.86
443.517	27.9
443.721	27.92
443.925	27.92
444.13	28.11
444.334	27.94
444.538	27.61
444.743	27.66
444.947	27.58
445.151	27.5
445.356	27.36
445.56	27.21
445.764	27.1
445.968	27.16
446.173	27.12
446.377	27.08
446.581	27.12
446.785	27.18
446.989	27.12
447.193	27.13
447.398	27.05
447.602	27.13
447.806	27.11
448.01	27.16
448.214	27.16
448.418	27.23
448.622	27.23
448.826	27.23
449.03	27.29
449.234	27.26
449.438	27.23
449.642	27.27
449.846	27.05
450.05	27.22
450.254	27.05
450.458	27.03
450.662	26.98
450.866	27.01
451.069	27.23
451.273	27.2
451.477	27.22
451.681	27.14
451.885	27.18
452.089	27.21
452.292	26.92
452.496	27.17
452.7	27.1
452.904	27.09
453.107	27.08
453.311	26.84
453.515	26.74
453.719	26.78
453.922	26.83
454.126	26.94
454.33	27.14
454.533	27.24
454.737	27.16
454.94	27.19
455.144	27.23
455.348	27.05
455.551	27.06
455.755	27.27
455.958	27.4
456.162	27.59
456.365	27.72
456.569	27.56
456.772	27.47
456.976	27.63
457.179	27.61
457.383	27.62
457.586	27.64
457.79	27.58
457.993	27.51
458.196	27.33
458.4	27.33
458.603	27.11
458.807	27.08
459.01	27.19
459.213	27.13
459.417	27.24
459.62	27.14
459.823	27.19
460.026	27.31
460.23	27.25
460.433	27.38
460.636	27.32
460.839	27.38
461.042	27.51
461.246	27.58
461.449	27.48
461.652	27.37
461.855	27.43
462.058	27.42
462.261	27.43
462.464	27.47
462.668	27.35
462.871	27.45
463.074	27.55
463.277	27.5
463.48	27.57
463.683	27.63
463.886	27.58
464.089	27.59
464.292	27.47
464.495	27.33
464.698	27.21
464.901	27.18
465.104	27.19
465.306	27.24
465.509	27.25
465.712	27.05
465.915	27.03
466.118	26.99
466.321	27.21
466.524	27.25
466.726	27.27
466.929	27.66
467.132	27.63
467.335	27.55
467.538	27.31
467.74	27.28
467.943	27.2
468.146	27.19
468.348	27.43
468.551	27.28
468.754	27.45
468.956	27.47
469.159	27.42
469.362	27.75
469.564	27.93
469.767	28.03
469.969	28.14
470.172	28.28
470.375	28.39
470.577	28.37
470.78	28.06
470.982	27.92
471.185	27.92
471.387	27.7
471.59	27.38
471.792	27.2
471.995	27.23
472.197	27.21
472.399	27.25
472.602	27.32
472.804	27.28
473.007	27.47
473.209	27.41
473.411	27.61
473.614	27.79
473.816	28.03
474.018	28.03
474.22	28.11
474.423	28.14
474.625	28.25
474.827	28.05
475.03	28.04
475.232	28.12
475.434	28.16
475.636	28.13
475.838	27.91
476.04	27.81
476.243	27.87
476.445	27.9
476.647	27.94
476.849	27.79
477.051	27.87
477.253	27.79
477.455	27.73
477.657	27.76
477.859	27.69
478.061	27.77
478.263	27.86
478.465	27.85
478.667	27.83
478.869	27.66
479.071	27.69
479.273	27.51
479.475	27.52
479.677	27.55
479.879	27.37
480.081	27.28
480.283	27.42
480.485	27.3
480.686	27.37
480.888	27.26
481.09	27.36
481.292	27.39
481.494	27.43
481.695	27.39
481.897	27.43
482.099	27.5
482.301	27.49
482.502	27.36
482.704	27.26
482.906	27.17
483.107	27.13
483.309	27.06
483.511	26.97
483.712	26.93
483.914	26.99
484.115	26.97
484.317	26.94
484.519	26.89
484.72	26.9
484.922	26.88
485.123	26.84
485.325	26.88
485.526	26.9
485.728	27.02
485.929	27.07
486.131	27.01
486.332	26.96
486.534	26.96
486.735	26.94
486.936	26.92
487.138	26.94
487.339	26.95
487.541	26.93
487.742	26.88
487.943	26.76
488.144	26.81
488.346	26.82
488.547	26.91
488.748	27.01
488.95	27.09
489.151	27.18
489.352	27.19
489.553	27.17
489.755	27.17
489.956	27.24
490.157	27.25
490.358	27.17
490.559	27.22
490.76	27.17
490.961	27.09
491.163	27.07
491.364	26.98
491.565	26.99
491.766	27.15
491.967	27.2
492.168	27.22
492.369	27.34
492.57	27.36
492.771	27.36
492.972	27.32
493.173	27.4
493.374	27.45
493.575	27.54
493.776	27.7
493.976	27.65
494.177	27.72
494.378	27.68
494.579	27.73
494.78	27.89
494.981	27.93
495.182	27.92
495.382	27.87
495.583	28.15
495.784	28.14
495.985	28.1
496.185	28.06
496.386	27.96
496.587	27.96
496.788	27.77
496.988	27.85
497.189	27.85
497.39	27.96
497.59	28.15
497.791	27.88
497.992	27.96
498.192	28.05
498.393	28.2
498.593	28.39
498.794	28.69
498.994	28.92
499.195	28.85
499.395	28.82
499.596	28.94
499.796	28.85
499.997	28.88
500.197	28.78
500.398	28.9
500.598	28.85
500.799	28.75
500.999	28.7
501.199	28.66
501.4	28.69
501.6	28.81
501.801	28.79
502.001	28.8
502.201	28.96
502.402	29
502.602	29.04
502.802	29.06
503.002	29.1
503.203	29.03
503.403	29.1
503.603	29.15
503.803	29.14
504.003	29.08
504.204	29.05
504.404	29.18
504.604	29.35
504.804	29.25
505.004	29.34
505.204	29.54
505.404	29.54
505.604	29.46
505.804	29.58
506.005	29.69
506.205	29.99
506.405	30.13
506.605	30.06
506.805	30.19
507.005	30.15
507.204	30.15
507.404	29.99
507.604	30.02
507.804	30.21
508.004	30.37
508.204	30.41
508.404	30.3
508.604	30.36
508.804	30.52
509.003	30.37
509.203	30.55
509.403	30.66
509.603	30.7
509.803	30.81
510.002	30.94
510.202	30.89
510.402	30.85
510.602	30.89
510.801	30.95
511.001	30.96
511.201	31.11
511.4	31.01
511.6	30.94
511.8	30.94
511.999	31.08
512.199	31.01
512.398	31.01
512.598	31.19
512.797	31.24
512.997	31.25
513.197	31.23
513.396	31.32
513.596	31.54
513.795	31.62
513.994	31.83
514.194	31.75
514.393	31.96
514.593	32.04
514.792	32.1
514.992	32.19
515.191	32.15
515.39	32.35
515.59	32.29
515.789	32.29
515.988	32.49
516.188	32.59
516.387	32.59
516.586	32.5
516.786	32.42
516.985	32.34
517.184	32.32
517.383	32.46
517.582	32.45
517.782	32.54
517.981	32.5
518.18	32.44
518.379	32.34
518.578	32.49
518.777	32.58
518.976	32.75
519.176	32.87
519.375	32.94
519.574	32.92
519.773	32.96
519.972	33.07
520.171	33.08
520.37	33.34
520.569	33.57
520.768	33.82
520.967	33.86
521.166	33.96
521.365	33.99
521.564	34.21
521.762	34.39
521.961	34.46
522.16	34.59
522.359	34.71
522.558	34.54
522.757	34.52
522.956	34.25
523.154	34.24
523.353	34.31
523.552	34.39
523.751	34.34
523.949	34.41
524.148	34.54
524.347	34.52
524.546	34.55
524.744	34.5
524.943	34.52
525.142	34.58
525.34	34.6
525.539	34.58
525.737	34.48
525.936	34.55
526.135	34.48
526.333	34.44
526.532	34.33
526.73	34.33
526.929	34.44
527.127	34.33
527.326	34.42
527.524	34.44
527.723	34.43
527.921	34.49
528.12	34.56
528.318	34.59
528.516	34.65
528.715	34.7
528.913	34.73
529.112	34.72
529.31	34.86
529.508	34.88
529.707	34.89
529.905	35
530.103	35.02
530.301	35
530.5	35.11
530.698	35.07
530.896	35.13
531.094	35.21
531.293	35.27
531.491	35.38
531.689	35.37
531.887	35.39
532.085	35.31
532.283	35.4
532.481	35.32
532.68	35.21
532.878	35.23
533.076	35.29
533.274	35.34
533.472	35.26
533.67	35.24
533.868	35.23
534.066	35.3
534.264	35.39
534.462	35.39
534.66	35.52
534.858	35.63
535.056	35.64
535.253	35.65
535.451	35.7
535.649	35.93
535.847	35.86
536.045	35.97
536.243	35.83
536.441	35.89
536.638	35.92
536.836	35.89
537.034	35.95
537.232	36.09
537.43	36.2
537.627	36.2
537.825	36.12
538.023	36.18
538.22	36.2
538.418	36.46
538.616	36.49
538.813	36.63
539.011	36.76
539.209	36.69
539.406	36.61
539.604	36.73
539.801	36.82
539.999	36.84
540.196	36.79
540.394	36.73
540.591	36.74
540.789	36.8
540.986	36.75
541.184	36.74
541.381	36.85
541.579	37.05
541.776	36.99
541.974	37
542.171	37.15
542.368	37.32
542.566	37.54
542.763	37.67
542.96	37.76
543.158	37.81
543.355	37.89
543.552	38.06
543.75	38.08
543.947	38.23
544.144	38.36
544.341	38.45
544.539	38.51
544.736	38.54
544.933	38.61
545.13	38.7
545.327	38.92
545.524	39.03
545.722	38.81
545.919	38.73
546.116	38.77
546.313	38.81
546.51	38.69
546.707	38.64
546.904	38.52
547.101	38.55
547.298	38.33
547.495	38.33
547.692	38.25
547.889	38.37
548.086	38.45
548.283	38.43
548.48	38.26
548.677	38.36
548.874	38.46
549.07	38.49
549.267	38.36
549.464	38.61
549.661	38.5
549.858	38.69
550.055	38.83
550.251	38.72
550.448	38.82
550.645	38.97
550.842	38.87
551.038	38.8
551.235	38.92
551.432	38.94
551.628	38.84
551.825	38.91
552.022	38.85
552.218	38.63
552.415	38.66
552.612	38.39
552.808	38.35
553.005	38.24
553.201	38.16
553.398	38.06
553.594	38.1
553.791	38.31
553.987	38.25
554.184	38.35
554.38	38.49
554.577	38.42
554.773	38.73
554.97	38.8
555.166	39.06
555.362	39.25
555.559	39.37
555.755	39.51
555.952	39.21
556.148	39.12
556.344	39.13
556.541	39.16
556.737	39.26
556.933	39.14
557.129	39.14
557.326	39.12
557.522	38.84
557.718	38.86
557.914	38.74
558.11	38.92
558.307	39.14
558.503	38.91
558.699	38.87
558.895	38.89
559.091	39.03
559.287	39.13
559.483	39.23
559.679	39.32
559.876	39.31
560.072	39.42
560.268	39.27
560.464	39.14
560.66	39.25
560.856	39.41
561.052	39.18
561.247	39
561.443	38.83
561.639	38.7
561.835	38.79
562.031	38.6
562.227	38.46
562.423	38.58
562.619	38.8
562.815	39.06
563.01	38.91
563.206	38.95
563.402	39.14
563.598	39.28
563.793	39.09
563.989	39.23
564.185	39.34
564.381	39.42
564.576	39.19
564.772	38.91
564.968	38.59
565.163	38.63
565.359	38.72
565.555	38.72
565.75	38.8
565.946	38.9
566.141	38.78
566.337	38.91
566.532	38.94
566.728	38.97
566.923	39.15
567.119	39.31
567.314	39.35
567.51	39.46
567.705	39.28
567.901	39.16
568.096	39.28
568.292	39.31
568.487	39.29
568.682	39.24
568.878	39.4
569.073	39.26
569.268	39.29
569.464	39.27
569.659	39.2
569.854	39.09
570.05	39.15
570.245	39.01
570.44	38.92
570.635	38.88
570.831	38.73
571.026	38.59
571.221	38.66
571.416	38.64
571.611	38.65
571.806	38.77
572.002	38.86
572.197	38.74
572.392	39
572.587	39.28
572.782	39.19
572.977	39.3
573.172	39.3
573.367	39.34
573.562	39.37
573.757	39.49
573.952	39.46
574.147	39.52
574.342	39.63
574.537	39.55
574.732	39.35
574.927	39.57
575.121	39.54
575.316	39.6
575.511	39.68
575.706	39.67
575.901	39.53
576.096	39.46
576.29	39.51
576.485	39.61
576.68	39.74
576.875	39.77
577.069	39.67
577.264	39.91
577.459	40.02
577.654	40.07
577.848	40.13
578.043	40.36
578.238	40.62
578.432	40.81
578.627	40.84
578.821	40.73
579.016	40.84
579.21	40.8
579.405	40.82
579.6	40.97
579.794	41.02
579.989	41.11
580.183	41.16
580.378	41.21
580.572	41.12
580.766	41.15
580.961	41.28
581.155	41.17
581.35	41.46
581.544	41.35
581.738	41.32
581.933	41.34
582.127	41.28
582.321	41.23
582.516	41.04
582.71	41.21
582.904	41.23
583.099	41.01
583.293	40.91
583.487	40.84
583.681	41.12
583.875	41.01
584.07	41.07
584.264	41.04
584.458	41.19
584.652	41.28
584.846	41.18
585.04	41.18
585.234	41.35
585.428	41.69
585.623	41.71
585.817	41.52
586.011	41.67
586.205	41.62
586.399	41.68
586.593	41.45
586.787	41.61
586.981	41.5
587.174	41.77
587.368	41.63
587.562	41.41
587.756	41.25
587.95	41.29
588.144	41.19
588.338	41.14
588.532	41.09
588.725	41.22
588.919	41.12
589.113	41.05
589.307	40.85
589.501	40.77
589.694	40.88
589.888	40.88
590.082	40.67
590.275	40.69
590.469	40.68
590.663	40.71
590.856	40.53
591.05	40.64
591.244	40.84
591.437	40.89
591.631	41.07
591.824	41.11
592.018	41.14
592.212	41.37
592.405	41.34
592.599	41.28
592.792	41.03
592.986	41.22
593.179	41.03
593.372	40.83
593.566	40.87
593.759	40.78
593.953	41.07
594.146	41.22
594.339	41.24
594.533	41.35
594.726	41.47
594.92	41.57
595.113	41.53
595.306	41.5
595.499	41.59
595.693	41.24
595.886	41.15
596.079	40.88
596.272	41.03
596.466	40.88
596.659	40.85
596.852	40.77
597.045	41.08
597.238	41.06
597.431	41.06
597.624	41.08
597.818	41.14
598.011	41.52
598.204	41.49
598.397	41.26
598.59	41.3
598.783	41.19
598.976	41.08
599.169	40.83
599.362	40.73
599.555	41.04
599.748	41.12
599.941	41.2
600.134	40.79
600.326	40.78
600.519	40.83
600.712	40.7
600.905	41.07
601.098	41.43
601.291	41.61
601.483	41.64
601.676	41.3
601.869	41.35
602.062	41.39
602.255	41.54
602.447	41.69
602.64	41.79
602.833	41.86
603.025	41.74
603.218	41.42
603.411	41.22
603.603	41.27
603.796	41.31
603.989	41.08
604.181	40.92
604.374	40.98
604.566	41.11
604.759	41.21
604.951	41.26
605.144	41.35
605.336	41.39
605.529	41.33
605.721	41.37
605.914	41.48
606.106	41.69
606.299	41.98
606.491	41.9
606.683	41.67
606.876	41.53
607.068	41.38
607.26	41.27
607.453	41.4
607.645	41.78
607.837	41.84
608.03	41.99
608.222	41.92
608.414	42.08
608.606	42.46
608.799	42.65
608.991	42.74
609.183	43.03
609.375	43.49
609.567	43.95
609.759	44.26
609.952	44.76
610.144	45.07
610.336	45.82
610.528	46.29
610.72	46.46
610.912	46.87
611.104	47.21
611.296	47.69
611.488	47.77
611.68	47.74
611.872	47.64
612.064	47.25
612.256	46.86
612.448	46.35
612.64	46.05
612.832	45.97
613.023	45.37
613.215	45.3
613.407	45.09
613.599	44.59
613.791	44.4
613.983	44.32
614.174	44.45
614.366	44.52
614.558	44.16
614.75	44.13
614.941	44.06
615.133	44.24
615.325	43.97
615.516	43.86
615.708	44.01
615.9	43.82
616.091	43.59
616.283	43.61
616.475	43.55
616.666	44
616.858	43.83
617.049	43.61
617.241	43.59
617.432	43.68
617.624	43.49
617.815	43.57
618.007	43.58
618.198	43.8
618.39	43.61
618.581	43.52
618.773	43.3
618.964	43.32
619.155	43.31
619.347	43.52
619.538	43.17
619.729	43.3
619.921	43.18
620.112	43.11
620.303	42.89
620.494	42.97
620.686	43.09
620.877	43.14
621.068	43
621.259	43.19
621.451	42.95
621.642	43.2
621.833	43.2
622.024	43.16
622.215	43.3
622.406	43.27
622.597	42.95
622.788	42.91
622.98	42.85
623.171	42.88
623.362	42.52
623.553	42.55
623.744	42.46
623.935	42.47
624.126	42.46
624.317	42.42
624.508	42.32
624.698	42.16
624.889	42.11
625.08	41.91
625.271	41.74
625.462	41.92
625.653	41.82
625.844	41.91
626.034	41.99
626.225	41.92
626.416	41.78
626.607	42.05
626.798	42.35
626.988	42.5
627.179	42.61
627.37	42.76
627.56	42.83
627.751	42.88
627.942	43.05
628.132	42.81
628.323	42.88
628.514	42.96
628.704	42.97
628.895	43.08
629.085	42.92
629.276	42.97
629.466	42.84
629.657	42.53
629.847	42.6
630.038	42.43
630.228	42.62
630.419	42.56
630.609	42.81
630.8	42.6
630.99	42.39
631.181	42.21
631.371	42.3
631.561	42
631.752	42.09
631.942	41.83
632.132	42.07
632.323	41.9
632.513	41.94
632.703	41.56
632.893	41.72
633.084	41.56
633.274	41.64
633.464	41.37
633.654	41.78
633.844	41.83
634.034	42.03
634.225	41.68
634.415	41.59
634.605	41.64
634.795	41.8
634.985	41.8
635.175	42.31
635.365	42.33
635.555	42.5
635.745	42.75
635.935	42.9
636.125	42.69
636.315	42.36
636.505	42.44
636.695	42.54
636.885	43.08
637.075	43.26
637.265	43.07
637.455	43.32
637.644	43.43
637.834	43.21
638.024	42.97
638.214	43.68
638.404	44.11
638.593	44.17
638.783	44.08
638.973	43.6
639.163	43.25
639.352	42.97
639.542	43.04
639.732	42.94
639.921	42.89
640.111	43.25
640.301	42.51
640.49	42.53
640.68	42.88
640.87	42.92
641.059	42.96
641.249	43.03
641.438	43.45
641.628	43.78
641.817	44.02
642.007	44.21
642.196	44.02
642.386	44.72
642.575	45.16
642.764	45.08
642.954	44.96
643.143	44.82
643.333	45.03
643.522	44.86
643.711	44.68
643.901	44.41
644.09	44.57
644.279	44.87
644.469	44.19
644.658	44.13
644.847	43.97
645.036	43.86
645.226	44.27
645.415	44.26
645.604	43.61
645.793	43.23
645.982	43.74
646.171	43.33
646.361	42.82
646.55	42.98
646.739	42.19
646.928	42.18
647.117	42.4
647.306	41.88
647.495	41.8
647.684	42.71
647.873	43.15
648.062	42.4
648.251	42.65
648.44	43.24
648.629	43.17
648.818	43.74
649.007	43.77
649.196	43.56
649.384	43.85
649.573	43.85
649.762	43.77
649.951	43.28
650.14	43.96
650.328	43.93
650.517	43.48
650.706	43.71
650.895	44
651.083	43.94
651.272	44.46
651.461	44.67
651.65	44.49
651.838	44.39
652.027	44.37
652.216	43.9
652.404	43.8
652.593	44.31
652.781	44.08
652.97	43.5
653.158	43.46
653.347	42.83
653.535	42.84
653.724	42.87
653.912	42.64
654.101	43.37
654.289	43.17
654.478	43.43
654.666	42.78
654.855	42.99
655.043	43.01
655.231	42.79
655.42	42.7
655.608	42.16
655.796	42.52
655.985	42.87
656.173	42.03
656.361	42.43
656.55	41.97
656.738	42.19
656.926	42.4
657.114	42.51
657.302	42.66
657.491	42.77
657.679	42.89
657.867	42.31
658.055	42.02
658.243	42.56
658.431	42.82
658.619	42.86
658.807	43.29
658.996	43.1
659.184	43.07
659.372	43.04
659.56	42.99
659.748	43.11
659.936	43.34
660.124	43.17
660.311	43
660.499	42.82
660.687	43.3
660.875	42.74
661.063	42.74
661.251	42.41
661.439	42.16
661.627	42.46
661.814	42.41
662.002	42.65
662.19	43.37
662.378	43.48
662.565	43.56
662.753	43.05
662.941	43.06
663.129	43.52
663.316	44.12
663.504	44.39
663.692	44.46
663.879	44.15
664.067	43.89
664.254	43.34
664.442	43.67
664.63	43.63
664.817	44.14
665.005	44.37
665.192	44.23
665.38	44.41
665.567	44.16
665.755	44.06
665.942	44.63
666.13	45.17
666.317	45.42
666.504	44.78
666.692	44.72
666.879	44.6
667.067	44.77
667.254	44.51
667.441	44.24
667.629	44.72
667.816	44.53
668.003	44.21
668.19	44.06
668.378	43.93
668.565	44.53
668.752	44.71
668.939	44.25
669.127	43.75
669.314	43.85
669.501	43.88
669.688	43.89
669.875	44.57
670.062	44.6
670.249	44.12
670.436	43.95
670.623	43.41
670.81	43.15
670.997	43.25
671.184	43.88
671.371	43.73
671.558	43.92
671.745	43.73
671.932	42.9
672.119	42.64
672.306	42.77
672.493	43.11
672.68	43.32
672.867	43.07
673.054	43.31
673.24	42.91
673.427	43.47
673.614	43.37
673.801	43.71
673.988	44.25
674.174	44.78
674.361	45.08
674.548	45.04
674.734	44.69
674.921	44.58
675.108	44.31
675.294	44.53
675.481	43.6
675.668	43.23
675.854	43.34
676.041	42.96
676.227	42.43
676.414	42.14
676.601	41.9
676.787	42.41
676.974	43.03
677.16	43.32
677.347	43.13
677.533	43.44
677.719	43.5
677.906	43.51
678.092	44.07
678.279	44.48
678.465	44.61
678.651	44.29
678.838	43.87
679.024	43.31
679.21	43.34
679.397	43.26
679.583	43.17
679.769	43.08
679.955	42.48
680.142	41.88
680.328	41.64
680.514	41.09
680.7	41.38
680.886	41.26
681.073	41.53
681.259	41.53
681.445	41.25
681.631	41.16
681.817	41.14
682.003	41.61
682.189	41.97
682.375	42.34
682.561	43.03
682.747	43.03
682.933	43.16
683.119	42.88
683.305	42.58
683.491	42.89
683.677	43.24
683.863	43.32
684.049	43.02
684.235	42.99
684.42	42.85
684.606	42.46
684.792	42.57
684.978	42.84
685.164	43.11
685.349	43.25
685.535	43.43
685.721	42.97
685.907	43.04
686.092	43.73
686.278	43.58
686.464	43.13
686.649	43.56
686.835	43.58
687.021	43.71
687.206	43.82
687.392	43.79
687.577	43.67
687.763	43.84
687.948	44.46
688.134	43.68
688.319	43.88
688.505	44.43
688.69	44.43
688.876	44.54
689.061	44.24
689.247	44.07
689.432	43.85
689.618	44.32
689.803	44.28
689.988	44.05
690.174	44.53
690.359	44.16
690.544	43.82
690.73	43.92
690.915	43.9
691.1	43.74
691.285	43.78
691.471	43.76
691.656	43.59
691.841	43.83
692.026	43.74
692.211	43.34
692.396	43.49
692.582	43.38
692.767	43.05
692.952	42.92
693.137	43.15
693.322	43.28
693.507	43.88
693.692	43.72
693.877	44.03
694.062	44.15
694.247	43.99
694.432	43.99
694.617	44.02
694.802	43.4
694.987	43.75
695.172	43.55
695.357	43.2
695.541	43.14
695.726	43.36
695.911	42.98
696.096	42.31
696.281	42.44
696.466	42.68
696.65	42.73
696.835	43
697.02	42.65
697.204	43.05
697.389	42.79
697.574	42.64
697.759	42.45
697.943	42.48
698.128	42.58
698.312	42.53
698.497	42.37
698.682	42.43
698.866	42.59
699.051	42.81
699.235	42.34
699.42	42.56
699.604	42.19
699.789	42.31
699.973	42.49
700.158	42.65
700.342	43.24
700.527	43.22
700.711	43.04
700.895	43.2
701.08	42.88
701.264	42.88
701.448	43.16
701.633	43.78
701.817	43.38
702.001	43.33
702.186	43.31
702.37	42.92
702.554	42.69
702.738	42.62
702.923	43.19
703.107	42.86
703.291	43.84
703.475	43.8
703.659	43.25
703.843	43.37
704.027	43.36
704.212	43.29
704.396	43.38
704.58	43.85
704.764	45.09
704.948	44.48
705.132	44.68
705.316	44.43
705.5	44.21
705.684	45.11
705.868	45.35
706.052	45.35
706.235	46.75
706.419	46.6
706.603	46.84
706.787	46.35
706.971	46.3
707.155	46.84
707.339	46.79
707.522	47.31
707.706	46.72
707.89	46.38
708.074	46.72
708.257	45.65
708.441	45.51
708.625	45.05
708.808	44.85
708.992	45.55
709.176	45.11
709.359	45.06
709.543	45.73
709.727	45.77
709.91	45.99
710.094	46.08
710.277	46.25
710.461	46.16
710.644	46.32
710.828	46.36
711.011	45.56
711.195	45.78
711.378	46.06
711.562	45.09
711.745	45.45
711.928	45.12
712.112	44.71
712.295	44.29
712.478	44.69
712.662	44.47
712.845	43.98
713.028	43.92
713.212	43.6
713.395	43.93
713.578	43.64
713.761	42.85
713.945	43.48
714.128	43.07
714.311	43.19
714.494	42.89
714.677	43.37
714.86	43.87
715.043	44.02
715.227	44.39
715.41	43.49
715.593	43.4
715.776	43.77
715.959	43.99
716.142	44.3
716.325	44.02
716.508	43.83
716.691	42.76
716.874	42.35
717.057	42
717.239	41.1
717.422	40.94
717.605	41.72
717.788	41.78
717.971	41.59
718.154	40.96
718.337	41.42
718.519	41.34
718.702	42.3
718.885	42.49
719.068	42.87
719.25	44.24
719.433	44.51
719.616	44.42
719.798	44.11
719.981	43.37
720.164	44.13
720.346	44.27
720.529	44.86
720.712	43.96
720.894	43.9
721.077	43.77
721.259	43.21
721.442	43.44
721.624	42.55
721.807	43.42
721.989	43.87
722.172	43.04
722.354	43.44
722.537	43.1
722.719	43.45
722.901	43.82
723.084	43.45
723.266	42.88
723.448	41.97
723.631	42.69
723.813	42.53
723.995	42.13
724.178	42.2
724.36	41.82
724.542	42.09
724.724	42.42
724.907	41.41
725.089	42.95
725.271	43.62
725.453	44.03
725.635	43.03
725.817	42.63
725.999	42.67
726.181	43.71
726.364	42.34
726.546	42.3
726.728	42.33
726.91	43.01
727.092	42.29
727.274	41.9
727.456	41.69
727.638	42.57
727.819	42.92
728.001	42.85
728.183	42.62
728.365	43.42
728.547	43.78
728.729	42.84
728.911	43.24
729.093	42.92
729.274	42.63
729.456	43.19
729.638	42.08
729.82	41.86
730.001	42.17
730.183	41.88
730.365	42.22
730.546	41.6
730.728	43.15
730.91	42.94
731.091	41.95
731.273	43.2
731.455	43.2
731.636	44.65
731.818	43.98
731.999	43.72
732.181	43.93
732.362	43.44
732.544	43.8
732.725	43.96
732.907	44.09
733.088	45.48
733.27	45.11
733.451	44.95
733.633	43.11
733.814	43.9
733.995	44.3
734.177	44.67
734.358	45.6
734.539	45.72
734.721	44.55
734.902	44.29
735.083	44.4
735.264	44.57
735.446	45.26
735.627	46.88
735.808	46.96
735.989	45.97
736.17	45.2
736.351	45.29
736.533	44.84
736.714	45.61
736.895	45.09
737.076	44.89
737.257	44.06
737.438	43.18
737.619	43.4
737.8	43.38
737.981	43.94
738.162	43.38
738.343	42.79
738.524	42.26
738.705	41.69
738.886	41.75
739.067	41.5
739.247	42.07
739.428	42.23
739.609	42.63
739.79	41.31
739.971	41.86
740.151	42.24
740.332	42.93
740.513	43.64
740.694	43.89
740.874	44.38
741.055	43.83
741.236	44.8
741.417	44.76
741.597	43.82
741.778	45.36
741.958	44.78
742.139	46.34
742.32	44.55
742.5	44.78
742.681	44.92
742.861	44.64
743.042	45.61
743.222	43.57
743.403	43.78
743.583	44.35
743.764	44.77
743.944	44.42
744.124	43.98
744.305	44.99
744.485	45.16
744.666	45.69
744.846	46.51
745.026	46.48
745.207	47.9
745.387	48
745.567	47.77
745.747	46.89
745.928	46.1
746.108	45.68
746.288	46.28
746.468	45.54
746.648	45.04
746.829	45.3
747.009	45.51
747.189	46.41
747.369	47.92
747.549	48.77
747.729	48.57
747.909	49.79
748.089	49.2
748.269	47.61
748.449	48.26
748.629	47.5
748.809	45.77
748.989	44.2
749.169	43.3
749.349	42.76
749.529	42.26
749.709	43.2
749.889	42.98
750.068	42.7
750.248	43.73
750.428	43.05
750.608	43.21
750.788	44.06
750.967	45.15
751.147	44.51
751.327	43.78
751.507	43.81
751.686	43.33
751.866	43.05
752.046	43.2
752.225	43.25
752.405	43.09
752.585	44.12
752.764	43.04
752.944	41.16
753.123	41.96
753.303	42.38
753.482	41.96
753.662	42.56
753.841	42.56
754.021	42.92
754.2	42.48
754.38	43.58
754.559	43.77
754.739	45.28
754.918	46.58
755.097	45.74
755.277	44.92
755.456	45.03
755.635	44.94
755.815	44.36
755.994	43.05
756.173	42.87
756.352	41.99
756.532	41.84
756.711	41.27
756.89	41.39
757.069	41.76
757.248	41.98
757.427	43.02
757.607	42.66
757.786	43.83
757.965	44.47
758.144	44.6
758.323	44.67
758.502	44.7
758.681	45.26
758.86	46.03
759.039	45.75
759.218	45.72
759.397	43.8
759.576	42.29
759.755	41.75
759.934	42.23
760.113	42.45
760.291	41.29
760.47	41.71
760.649	42.02
760.828	40.48
761.007	41.77
761.186	41.7
761.364	42.33
761.543	43.52
761.722	44.15
761.901	43.87
762.079	44
762.258	45.24
762.437	44.7
762.615	43.85
762.794	44.96
762.972	44.16
763.151	43.73
763.33	44.36
763.508	43.57
763.687	43.4
763.865	43.68
764.044	43.13
764.222	43.43
764.401	43.07
764.579	43.56
764.758	43.35
764.936	43.4
765.114	44.34
765.293	43.68
765.471	43.78
765.65	43.02
765.828	43.02
766.006	42.62
766.184	42.65
766.363	41.3
766.541	41.03
766.719	39.7
766.898	39.77
767.076	39.01
767.254	39.61
767.432	41.48
767.61	40.69
767.788	39.13
767.967	39.76
768.145	38.79
768.323	39.57
768.501	39.89
768.679	40.75
768.857	41.33
769.035	41.42
769.213	40.45
769.391	39.25
769.569	42
769.747	43.4
769.925	43.15
770.103	43.31
770.281	44.89
770.459	43.81
770.636	43.16
770.814	40.43
770.992	40.17
771.17	38.45
771.348	38.86
771.525	37.55
771.703	37.66
771.881	38.61
772.059	40.35
772.236	39.94
772.414	41.06
772.592	41.15
772.769	43.53
772.947	44.18
773.125	44.75
773.302	44.72
773.48	46.71
773.657	46.2
773.835	46.68
774.013	43.19
774.19	44
774.368	43.28
774.545	44.28
774.723	44.11
774.9	44.73
775.077	46.81
775.255	45.3
775.432	44.55
775.61	47.42
775.787	47.33
775.964	49.61
776.142	48.24
776.319	49.74
776.496	49.43
776.674	47.36
776.851	45.08
777.028	44.59
777.205	46.16
777.382	46.64
777.56	46.01
777.737	46.17
777.914	45.07
778.091	45.94
778.268	43.73
778.445	44.21
778.622	45.83
778.8	44.67
778.977	43.67
779.154	42.28
779.331	41.4
779.508	40.43
779.685	39.99
779.862	41.11
780.038	40.35
780.215	41.57
780.392	42.47
780.569	42.9
780.746	44.31
780.923	47.32
781.1	49.6
781.277	51.73
781.453	49.94
781.63	50.46
781.807	49.96
781.984	50.61
782.16	50.32
782.337	47.02
782.514	45.45
782.691	47.36
782.867	46.4
783.044	44.75
783.221	42.98
783.397	45.77
783.574	45.45
783.75	45.29
783.927	44.79
784.103	45.18
784.28	47.31
784.456	47.07
784.633	46.7
784.809	42.47
784.986	43.1
785.162	40.59
785.339	39.56
785.515	39.01
785.692	39.67
785.868	38.02
786.044	37.56
786.221	38.02
786.397	37.97
786.573	40.05
786.749	44.52
786.926	42.72
787.102	41.96
787.278	41.14
787.454	43.11
787.631	40.78
787.807	40.78
787.983	38.63
788.159	40.07
788.335	38.54
788.511	35.7
788.687	37.71
788.863	38.07
789.039	41.15
789.216	40.22
789.392	38.98
789.568	40.45
789.744	42.45
789.919	44.67
790.095	42.14
790.271	44.38
790.447	45.99
790.623	43.6
790.799	42.32
790.975	38.81
791.151	40.72
791.327	41.4
791.502	42.39
791.678	43.69
791.854	43.47
792.03	43.91
792.205	44.31
792.381	41.04
792.557	39.31
792.733	41.93
792.908	45.52
793.084	43.34
793.259	40.41
793.435	39.42
793.611	34.83
793.786	35.17
793.962	34.56
794.137	34.54
794.313	36.08
794.488	36.02
794.664	36.63
794.839	34.74
795.015	36.49
795.19	36.3
795.366	37.52
795.541	40.06
795.716	41.33
795.892	42.21
796.067	41.51
796.242	44.5
796.418	44.79
796.593	46.24
796.768	45.71
796.944	46.02
797.119	48.32
797.294	48.69
797.469	50
797.644	47.77
797.82	45.8
797.995	44.27
798.17	42.88
798.345	44.98
798.52	41.39
798.695	44.25
798.87	46.86
799.045	46.24
799.22	45.46
799.395	42.52
799.57	42.58
799.745	43.24
799.92	44.41
800.095	42.73
800.27	41.19
800.445	44.09
800.62	43.4
800.795	38.28
800.97	39.27
801.145	40.34
801.319	40.06
801.494	44.58
801.669	46.01
801.844	48.04
802.018	48.96
802.193	49.97
802.368	46.15
802.543	45.7
802.717	52.2
802.892	49.46
803.067	45.77
803.241	49.33
803.416	42.92
803.59	42.11
803.765	38.87
803.94	37.17
804.114	39.45
804.289	45.53
804.463	46.89
804.638	44.28
804.812	48.1
804.986	45.93
805.161	47.14
805.335	47.16
805.51	49.9
805.684	49.42
805.858	51.57
806.033	49.17
806.207	45.06
806.381	43.6
806.556	40.7
806.73	38.41
806.904	42.12
807.078	38.88
807.253	38.18
807.427	34.65
807.601	33.88
807.775	29.62
807.949	32.36
808.123	32.59
808.298	32.3
808.472	37.33
808.646	41.54
808.82	42.37
808.994	42.81
809.168	45.72
809.342	44.23
809.516	49.04
809.69	50.12
809.864	47.83
810.038	48.86
810.212	48.49
810.385	42.74
810.559	39.99
810.733	42.72
810.907	43.19
811.081	38.66
811.255	43.12
811.428	42.97
811.602	44.55
811.776	46.86
811.95	46.53
812.123	45.12
812.297	49.29
812.471	50.04
812.644	49.21
812.818	49.26
812.992	49.08
813.165	51.35
813.339	50.31
813.512	48.89
813.686	48.32
813.86	50.01
814.033	50.84
814.207	48.45
814.38	46.57
814.554	47.15
814.727	47.78
814.9	50.02
815.074	48.07
815.247	48.19
815.421	50.09
815.594	47.66
815.767	48.15
815.941	51.14
816.114	53.02
816.287	53.69
816.46	50.67
816.634	49.87
816.807	49.92
816.98	51.99
817.153	53.84
817.327	50.82
817.5	53.12
817.673	54.22
817.846	49.65
818.019	45.09
818.192	43.91
818.365	42.34
818.538	41.31
818.711	44.87
818.884	38.62
819.057	33.78
819.23	35.04
819.403	35.45
819.576	33.51
819.749	34.97
819.922	35.74
820.095	36.34
820.268	40.17
820.441	40.63
820.614	38.72
820.786	42.09
820.959	42.74
821.132	43.62
821.305	42.53
821.477	42.57
821.65	43.11
821.823	43.38
821.996	42.34
822.168	40.56
822.341	40.68
822.514	40.69
822.686	39.96
822.859	40.72
823.031	40.02
823.204	39.77
823.376	38.97
823.549	38.38
823.722	37.81
823.894	37.84
824.067	38.24
824.239	37.21
824.411	37.07
824.584	36.56
824.756	35.19
824.929	34.69
825.101	34.72
825.273	34.62
825.446	34.51
825.618	34.59
825.79	34.35
825.963	33.94
826.135	35.98
826.307	37.17
826.479	36.79
826.652	36.55
826.824	37.17
826.996	37.43
827.168	38.55
827.34	38.53
827.512	39.23
827.684	40.87
827.856	40.43
828.029	39.6
828.201	38.1
828.373	37.75
828.545	37.93
828.717	37.46
828.889	37.74
829.061	36.37
829.232	35.7
829.404	34.76
829.576	31.9
829.748	32.31
829.92	31.81
830.092	32.82
830.264	33.12
830.436	32.58
830.607	34.9
830.779	34.78
830.951	38.32
831.123	39.27
831.294	38.45
831.466	38.92
831.638	38.68
831.809	38.49
831.981	38.88
832.153	41.11
832.324	42.4
832.496	42.39
832.667	41.87
832.839	43.02
833.011	46.39
833.182	45.35
833.354	44.41
833.525	43.4
833.697	44.59
833.868	43.26
834.039	42.68
834.211	44.11
834.382	41.68
834.554	41.91
834.725	40.21
834.896	38.99
835.068	41
835.239	40.96
835.41	42.54
835.581	42.53
835.753	41.26
835.924	41.09
836.095	38.58
836.266	40.55
836.438	38.97
836.609	36.61
836.78	36.37
836.951	34.65
837.122	35.79
837.293	37.35
837.464	33.9
837.635	35.39
837.806	35.46
837.977	39.77
838.148	41.36
838.319	43.34
838.49	46.23
838.661	46.6
838.832	51.11
839.003	55.24
839.174	55.79
839.345	56.19
839.516	59.17
839.687	66.29
839.857	64.39
840.028	62.4
840.199	60.16
840.37	64.49
840.54	62.9
840.711	62.37
840.882	54.88
841.053	52.37
841.223	56.22
841.394	58.14
841.564	52.41
841.735	49.11
841.906	47.97
842.076	49.32
842.247	45.98
842.417	49.78
842.588	46.15
842.758	52.62
842.929	53.37
843.099	56.37
843.27	51.98
843.44	55.01
843.611	57.83
843.781	61.24
843.951	58.54
844.122	64.26
844.292	62.96
844.462	68.29
844.633	64.9
844.803	62.72
844.973	57.87
845.144	56.94
845.314	56.01
845.484	61.75
845.654	63.59
845.824	72.56
845.995	60.27
846.165	65.82
846.335	63.95
846.505	78.64
846.675	75.2
846.845	76.25
847.015	84.98
847.185	88.57
847.355	78.14
847.525	73.65
847.695	66.6
847.865	75.27
848.035	70.86
848.205	73.29
848.375	70.73
848.545	69.59
848.715	78.03
848.884	80.06
849.054	82.86
849.224	93.79
849.394	108.84
849.564	103.58
849.733	106.76
849.903	95.22
850.073	99.39
850.243	102.57
850.412	106.71
850.582	109.81
850.752	118.46
850.921	126.4
851.091	100.98
851.26	93.08
851.43	92.33
851.599	76.59
851.769	91.7
851.939	88.23
852.108	85.66
852.278	78.35
852.447	57.75
852.616	50.94
852.786	52.24
852.955	65.01
853.125	58.76
853.294	70.67
853.463	82.58
853.633	82.92
853.802	80.49
853.971	76.48
854.141	78.01
854.31	86.62
854.479	90.06
854.648	78.02
854.818	69.11
854.987	81.33
855.156	75.4
855.325	71.88
855.494	61.9
855.663	55.16
855.832	52.39
856.001	57.2
856.171	57.11
856.34	57.07
856.509	68.6
856.678	65.84
856.847	52.94
857.016	46.97
857.185	32.62
857.353	26.45
857.522	28.97
857.691	33.07
857.86	34.87
858.029	35.74
858.198	36.78
858.367	30.48
858.535	28.48
858.704	35.79
858.873	51.63
859.042	70.26
859.21	101.31
859.379	116.69
859.548	122.95
859.717	104.46
859.885	97.1
860.054	89.33
860.222	86.34
860.391	95.85
860.56	91.85
860.728	81.17
860.897	83.33
861.065	69.06
861.234	65.07
861.402	49.43
861.571	56.47
861.739	59.72
861.908	59.42
862.076	67.2
862.244	58.41
862.413	62.24
862.581	68.04
862.749	71.53
862.918	81.36
863.086	83.77
863.254	91.45
863.423	95.72
863.591	87.63
863.759	103.12
863.927	91.54
864.096	93.72
864.264	90.21
864.432	82.55
864.6	82.24
864.768	77.04
864.936	73.61
865.104	87.86
865.272	96.92
865.44	118.12
865.608	97.89
865.776	104.94
865.944	124.4
866.112	135.64
866.28	153.09
866.448	155.91
866.616	168.88
866.784	183.29
866.952	134.08
867.12	109.5
867.288	98.94
867.455	112.25
867.623	111.71
867.791	77.19
867.959	62.66
868.127	56.09
868.294	56.57
868.462	52.9
868.63	58.9
868.797	69.57
868.965	71.85
869.133	76.44
869.3	75.35
869.468	75.46
869.636	84.08
869.803	87.57
869.971	95.95
870.138	110.88
870.306	115.78
870.473	93.34
870.641	77.55
870.808	91.42
870.975	82.23
871.143	73.29
871.31	76.75
871.478	75.29
871.645	75.18
871.812	82.7
871.98	68.96
872.147	48.09
872.314	52.36
872.482	51.81
872.649	45.71
872.816	55.53
872.983	54.16
873.15	51.64
873.318	64.76
873.485	58.65
873.652	46
873.819	49.52
873.986	59.32
874.153	66.39
874.32	66.41
874.487	64.22
874.654	48.96
874.821	62.66
874.988	67.82
875.155	47.85
875.322	31.9
875.489	39.64
875.656	32.64
875.823	23.1
875.99	12.05
876.157	19.07
876.324	27.63
876.49	21.75
876.657	5.93
876.824	-7.91
876.991	6.94
877.157	11.13
877.324	7.39
877.491	15.47
877.658	25
877.824	26.02
877.991	26.61
878.157	25.17
878.324	40.74
878.491	34.61
878.657	44.68
878.824	51.03
878.99	54.83
879.157	63.53
879.323	63.73
879.49	64.56
879.656	69.05
879.823	63.74
879.989	56.35
880.156	47.88
880.322	65.1
880.488	59.06
880.655	48.04
880.821	62.49
880.987	58.83
881.154	51.06
881.32	55
881.486	51.83
881.652	53.94
881.819	52.03
881.985	48.46
882.151	45.42
882.317	45.82
882.483	48.67
882.649	46.02
882.816	44.86
882.982	45.53
883.148	41.54
883.314	43.31
883.48	40.91
883.646	42.33
883.812	43.92
883.978	43.16
884.144	45.17
884.31	44.28
884.476	45.08
884.642	47.55
884.807	51.19
884.973	52.5
885.139	54.12
885.305	54.45
885.471	54.39
885.637	52.02
885.802	53.69
885.968	50.37
886.134	53.05
886.3	48.66
886.465	49.53
886.631	46.77
886.797	50.14
886.962	46.25
887.128	50.58
887.293	47.74
887.459	53.83
887.625	56.52
887.79	56.47
887.956	55.13
888.121	65.56
888.287	59.71
888.452	57.11
888.618	54.68
888.783	59.27
