Data from 2938096_Reflection_2.txt Node
Date: Sat Jul 11 19:00:58 EDT 2015
User: robert
Spectrometer: USB4E03001
Autoset integration time: false
Trigger mode: 4
Integration Time (sec): 1.000000E-1
Scans to average: 10
Electric dark correction enabled: true
Nonlinearity correction enabled: false
Boxcar width: 5
Stray light correction enabled: false
XAxis mode: Wavelengths
Stop averaging: false
Number of Pixels in Spectrum: 3648
>>>>>Begin Spectral Data<<<<<
177.566	322.99
177.785	472.06
178.005	1374.53
178.225	435.05
178.445	134.18
178.665	109.51
178.885	-23.91
179.105	167.55
179.324	212.88
179.544	327.28
179.764	412.44
179.984	539.77
180.204	357.13
180.423	391.62
180.643	380.52
180.863	233.34
181.083	257.78
181.302	238.03
181.522	456.98
181.742	239.39
181.961	175.09
182.181	479.8
182.401	-15929.63
182.621	-94.44
182.84	-82.24
183.06	-1129.92
183.279	-117.53
183.499	-54.41
183.719	-21.81
183.938	0.57
184.158	35.51
184.377	19.68
184.597	27.88
184.816	45.98
185.036	-34.69
185.256	-18.01
185.475	30.93
185.695	-5.53
185.914	-59.59
186.134	-85.24
186.353	-159.22
186.572	-33600
186.792	-440.42
187.011	-199.32
187.231	-75.41
187.45	-29.38
187.67	-39.43
187.889	-146.03
188.108	-286.75
188.328	-27.35
188.547	-36.81
188.766	-26.62
188.986	-53.8
189.205	-68.95
189.424	-27.35
189.644	-20.85
189.863	-59.49
190.082	-64.44
190.302	-48.55
190.521	-14.46
190.74	-167.41
190.959	-135.99
191.178	-1381.16
191.398	772.33
191.617	262.25
191.836	100.72
192.055	65.07
192.274	47.38
192.494	34.01
192.713	48.27
192.932	61.72
193.151	37.35
193.37	47.23
193.589	-28.58
193.808	-58.57
194.027	15.55
194.246	17.63
194.465	154.1
194.685	-548.08
194.904	-2992.41
195.123	-291.8
195.342	1234.09
195.561	-1810.38
195.78	153.73
195.999	-1000.19
196.218	899.19
196.436	285.67
196.655	613.12
196.874	361.21
197.093	288.06
197.312	457.62
197.531	1727.6
197.75	3495.35
197.969	-737
198.188	-295.66
198.407	962.95
198.625	569.84
198.844	491.14
199.063	242
199.282	356.76
199.501	253.13
199.719	213.21
199.938	240.25
200.157	220.45
200.376	184.8
200.594	156.42
200.813	172.36
201.032	283.17
201.251	721.49
201.469	-298.34
201.688	-220.48
201.907	-112.64
202.125	-99.91
202.344	-118.39
202.563	-149.64
202.781	-186.56
203	-21.73
203.218	-10.46
203.437	-129.35
203.656	-281.37
203.874	552.76
204.093	173.72
204.311	239.76
204.53	407.35
204.748	474.32
204.967	1640.27
205.185	-1301.72
205.404	638.67
205.622	287.44
205.841	701.88
206.059	389.15
206.278	472.74
206.496	-3794.89
206.715	1025.43
206.933	674.28
207.151	335.18
207.37	285.03
207.588	447.81
207.806	1071.08
208.025	-266.21
208.243	-450.4
208.461	-259.92
208.68	-381.6
208.898	-4188.54
209.116	685.41
209.335	1145.68
209.553	-1050.11
209.771	-438.3
209.989	235.98
210.208	320.48
210.426	70.96
210.644	72.4
210.862	47.46
211.081	188.26
211.299	628.35
211.517	94
211.735	92.22
211.953	39.09
212.171	31.31
212.39	54.16
212.608	32.91
212.826	29.11
213.044	22.37
213.262	-3.39
213.48	-37.83
213.698	-39.28
213.916	-156.34
214.134	-288.01
214.352	-133.84
214.57	-107.95
214.788	-110.02
215.006	-72.13
215.224	-183.66
215.442	-257.93
215.66	-294.64
215.878	-327.13
216.096	-413.91
216.314	-138.8
216.532	-30.24
216.75	-74.84
216.968	-23.87
217.185	-42.89
217.403	-71.04
217.621	-95.24
217.839	-45.09
218.057	4.1
218.275	-3.5
218.492	-19.54
218.71	-27.13
218.928	-40
219.146	-71.41
219.363	-124.01
219.581	-117.8
219.799	-85.98
220.017	0.66
220.234	-22.6
220.452	-39.91
220.67	38.09
220.887	23.97
221.105	-4.97
221.323	19.8
221.54	27.64
221.758	37.53
221.976	26.7
222.193	2.3
222.411	-6.3
222.629	-13.16
222.846	-47.45
223.064	-50.99
223.281	-46.47
223.499	-44.16
223.716	-69.57
223.934	-62.99
224.151	-71.71
224.369	-39.58
224.586	-15.89
224.804	-9.09
225.021	-8.09
225.239	14.39
225.456	10.14
225.674	27.82
225.891	32.57
226.108	41.23
226.326	41.49
226.543	33.14
226.76	20.3
226.978	13.51
227.195	10.62
227.413	3.13
227.63	4.1
227.847	-1.31
228.064	-4.88
228.282	-7.09
228.499	-4.76
228.716	-5.32
228.934	-3.83
229.151	-2.15
229.368	-3.36
229.585	-1.64
229.802	0.1
230.02	-1.36
230.237	0.6
230.454	0.76
230.671	2.35
230.888	-0.6
231.105	0.58
231.323	1.72
231.54	-1.52
231.757	-0.71
231.974	-4.17
232.191	-0.98
232.408	-0.26
232.625	-4.49
232.842	-6.47
233.059	-4.2
233.276	-7.04
233.493	-6.06
233.71	1.25
233.927	3.01
234.144	3.32
234.361	1.76
234.578	-0.04
234.795	-4.9
235.012	4.14
235.229	4.78
235.446	-4.51
235.663	-5.36
235.879	-8.92
236.096	-17.56
236.313	-17.32
236.53	-18.77
236.747	-15.43
236.964	-14.82
237.181	-11.99
237.397	-14.62
237.614	-11.43
237.831	-9.25
238.048	-7.49
238.264	-10.64
238.481	-7.67
238.698	-11.99
238.915	-10.13
239.131	-10.45
239.348	-10.91
239.565	-14.16
239.781	-8.94
239.998	-7.95
240.215	-6.78
240.431	-3.14
240.648	3.04
240.865	3.51
241.081	3.23
241.298	6.11
241.514	7.85
241.731	7.22
241.947	8.42
242.164	7.25
242.38	7.09
242.597	9.03
242.814	8.69
243.03	7.18
243.246	7.4
243.463	9.87
243.679	8.26
243.896	8.8
244.112	9.73
244.329	10.46
244.545	9.66
244.762	10.54
244.978	7.2
245.194	7.81
245.411	5.45
245.627	4.28
245.843	2.99
246.06	4.47
246.276	4.34
246.492	5.51
246.709	5.6
246.925	5.92
247.141	5.38
247.357	6.32
247.574	6.5
247.79	6.3
248.006	6.19
248.222	6.49
248.439	6.78
248.655	5.61
248.871	4.64
249.087	3.61
249.303	2.38
249.519	2.47
249.736	3.24
249.952	3.65
250.168	6.87
250.384	6.65
250.6	3.39
250.816	0.26
251.032	1.32
251.248	0.37
251.464	0.29
251.68	2.46
251.896	0.17
252.112	-0.82
252.328	-3.45
252.544	-6.54
252.76	-5
252.976	-3
253.192	-4.53
253.408	-4.17
253.624	-3.23
253.84	-6.61
254.056	-5.32
254.272	-3.14
254.487	-4.29
254.703	-6.1
254.919	-7.36
255.135	-8.88
255.351	-12.26
255.567	-9.66
255.782	-9.31
255.998	-11.28
256.214	-3.46
256.43	-7.68
256.646	-8.2
256.861	-4.99
257.077	-2.38
257.293	1.08
257.508	1.58
257.724	2.66
257.94	3.48
258.155	1.73
258.371	4.15
258.587	3.34
258.802	4.43
259.018	4.83
259.234	4.22
259.449	4.4
259.665	4.77
259.88	4.76
260.096	5.01
260.312	5.5
260.527	6.3
260.743	5.98
260.958	5.34
261.174	5.15
261.389	5.49
261.605	5.54
261.82	5.46
262.036	4.63
262.251	4.36
262.466	4.25
262.682	3.59
262.897	3.18
263.113	2.83
263.328	3.75
263.543	3.29
263.759	2.68
263.974	3.35
264.189	3.67
264.405	3.17
264.62	1.32
264.835	1.91
265.051	2.1
265.266	1.05
265.481	0.15
265.696	1.43
265.912	2.91
266.127	2.98
266.342	2.82
266.557	2.66
266.773	2.77
266.988	4.35
267.203	4.73
267.418	4.41
267.633	4.25
267.848	4.6
268.064	4.38
268.279	2.75
268.494	0.65
268.709	-1.43
268.924	-2.01
269.139	-2.8
269.354	-2.84
269.569	-2.68
269.784	-2.74
269.999	-2.52
270.214	-3.3
270.429	-2.79
270.644	0.3
270.859	1.57
271.074	3.14
271.289	3.28
271.504	4.57
271.719	3.48
271.934	3.08
272.149	2.87
272.363	3.03
272.578	2.91
272.793	1.89
273.008	0.4
273.223	-0.3
273.438	-1.21
273.653	0.22
273.867	-0.63
274.082	0
274.297	0.21
274.512	0.9
274.726	0.92
274.941	1.46
275.156	1.2
275.371	1.65
275.585	2.78
275.8	4.4
276.015	3.91
276.229	5.46
276.444	6.49
276.659	6.09
276.873	6.27
277.088	7.6
277.302	8.9
277.517	10.1
277.732	8.72
277.946	7.59
278.161	6.18
278.375	2.87
278.59	3.54
278.804	1.95
279.019	3.09
279.233	2.32
279.448	0.19
279.662	-0.63
279.877	-0.86
280.091	-0.25
280.306	3.27
280.52	4.94
280.735	6.88
280.949	7.09
281.163	6.13
281.378	5.06
281.592	5.28
281.806	6.3
282.021	6.24
282.235	5.16
282.449	5.27
282.664	3.29
282.878	2.83
283.092	2.14
283.307	0.83
283.521	1.88
283.735	2.73
283.949	2.84
284.164	1.41
284.378	0.5
284.592	1.1
284.806	0.69
285.02	0.67
285.234	1.92
285.449	3.53
285.663	4.05
285.877	4.82
286.091	3.75
286.305	3.93
286.519	4.96
286.733	6.39
286.947	6.48
287.161	7.74
287.375	8.02
287.589	6.58
287.803	6.78
288.017	6.98
288.231	6.48
288.445	6.97
288.659	6.22
288.873	6.08
289.087	5.87
289.301	6.12
289.515	4.13
289.729	2.97
289.943	2.96
290.157	1.84
290.371	0.96
290.584	0.3
290.798	1.55
291.012	0.85
291.226	1.67
291.44	2.54
291.654	2.69
291.867	4.74
292.081	6.05
292.295	7.38
292.509	8.55
292.722	8.47
292.936	9.14
293.15	8.1
293.364	8.73
293.577	7.83
293.791	5.76
294.005	7.25
294.218	6.43
294.432	6.4
294.645	5.06
294.859	2.9
295.073	3.22
295.286	3.34
295.5	3.32
295.713	4.73
295.927	5.41
296.14	5.5
296.354	3.87
296.568	3.38
296.781	4.21
296.994	5.76
297.208	6.27
297.421	5.74
297.635	6.13
297.848	5.74
298.062	6.23
298.275	6.08
298.489	5.52
298.702	5.71
298.915	5.42
299.129	3.9
299.342	1.78
299.555	0.78
299.769	1.65
299.982	1.35
300.195	1.3
300.409	-0.22
300.622	-0.15
300.835	0.29
301.048	1.02
301.262	2.06
301.475	3.71
301.688	5.11
301.901	6.07
302.115	6.04
302.328	5.48
302.541	5.43
302.754	7.43
302.967	5.71
303.18	7.14
303.393	7.75
303.607	7.99
303.82	7.68
304.033	7.42
304.246	7.29
304.459	8.02
304.672	9.64
304.885	10.51
305.098	8.66
305.311	10.25
305.524	8.98
305.737	6.8
305.95	5.12
306.163	3.88
306.376	3.67
306.589	5.01
306.802	4.99
307.015	2.78
307.228	2.42
307.44	3.38
307.653	2.34
307.866	4.24
308.079	5.52
308.292	7.91
308.505	8.41
308.718	7.85
308.93	6.46
309.143	5.82
309.356	6.43
309.569	6.19
309.781	5.72
309.994	6.54
310.207	5.97
310.42	5.57
310.632	4.85
310.845	4.3
311.058	5.02
311.27	3.98
311.483	4.8
311.696	5.32
311.908	5.18
312.121	3.83
312.333	4.45
312.546	3.82
312.759	4.16
312.971	4.18
313.184	5.56
313.396	4.94
313.609	7.28
313.821	5.87
314.034	5.99
314.246	6.07
314.459	8.26
314.671	7.93
314.884	7.97
315.096	7.67
315.309	7.26
315.521	6.14
315.733	5.66
315.946	4.31
316.158	5.19
316.371	3.83
316.583	5.27
316.795	4.86
317.008	4.03
317.22	4.89
317.432	3.55
317.644	4.94
317.857	5.55
318.069	6.61
318.281	7.69
318.494	6.3
318.706	7.72
318.918	7.01
319.13	5.79
319.342	7.14
319.555	6.35
319.767	10.37
319.979	10.34
320.191	10.92
320.403	10.07
320.615	8.19
320.827	9.63
321.039	8.6
321.252	6.97
321.464	6.5
321.676	5.43
321.888	4.94
322.1	3.73
322.312	2.83
322.524	2.84
322.736	3.35
322.948	5.01
323.16	4.17
323.372	5.3
323.584	5.21
323.796	6.12
324.007	5.07
324.219	5.25
324.431	4.09
324.643	4.57
324.855	4.41
325.067	4.29
325.279	3.6
325.491	4.41
325.702	3.64
325.914	6.08
326.126	5.22
326.338	5.64
326.55	5.66
326.761	6.88
326.973	6.73
327.185	5.73
327.396	6.61
327.608	8.76
327.82	8.5
328.032	8.18
328.243	6.67
328.455	7.64
328.666	8.3
328.878	8.92
329.09	8.21
329.301	7.5
329.513	9.54
329.725	9.47
329.936	7.31
330.148	9.22
330.359	9.53
330.571	10.34
330.782	10.24
330.994	10.64
331.205	10.47
331.417	10.11
331.628	11.51
331.84	10.54
332.051	9.49
332.262	9.79
332.474	7.42
332.685	8.34
332.897	7.52
333.108	6.76
333.319	6.84
333.531	7.24
333.742	8.03
333.953	7.22
334.165	7.39
334.376	8.36
334.587	7.69
334.799	7.05
335.01	8.05
335.221	8.46
335.432	10.24
335.644	9.49
335.855	8.93
336.066	7.73
336.277	7.79
336.488	7.16
336.7	6.45
336.911	8.4
337.122	9.36
337.333	8.43
337.544	9.16
337.755	9.04
337.966	11.26
338.177	12.87
338.388	14.67
338.599	15.28
338.811	15.17
339.022	16.04
339.233	15.71
339.444	16.11
339.655	14.4
339.866	14.56
340.076	12.6
340.287	10.95
340.498	10.49
340.709	9.3
340.92	8.43
341.131	8.73
341.342	9.02
341.553	9.9
341.764	10.64
341.975	11.4
342.185	9.23
342.396	10.28
342.607	10.06
342.818	10.17
343.029	10.5
343.239	11.4
343.45	12.06
343.661	10.52
343.872	9.65
344.082	9.1
344.293	10.4
344.504	10.96
344.714	11.2
344.925	10.69
345.136	10.44
345.346	10.33
345.557	9.88
345.768	9.55
345.978	10.49
346.189	9.12
346.399	8.49
346.61	8.25
346.821	9.14
347.031	9.14
347.242	8.85
347.452	9.61
347.663	10.3
347.873	10.05
348.084	9.64
348.294	8.83
348.504	9.11
348.715	9.24
348.925	8.25
349.136	8.7
349.346	8.12
349.557	8.89
349.767	7.91
349.977	6.23
350.188	6.91
350.398	7.85
350.608	9.19
350.819	10.4
351.029	11.49
351.239	12.41
351.449	11.95
351.66	11.49
351.87	12.08
352.08	11.3
352.29	12.7
352.501	13.23
352.711	13.69
352.921	12.6
353.131	11.97
353.341	11.76
353.552	12.18
353.762	12.73
353.972	13.71
354.182	13.12
354.392	14.03
354.602	13.75
354.812	13.79
355.022	13.75
355.232	14.42
355.442	14.62
355.652	13.14
355.862	11.84
356.072	11.87
356.282	12.64
356.492	11.82
356.702	11.31
356.912	11.47
357.122	10.72
357.332	9.74
357.542	10.1
357.752	10.54
357.962	11.79
358.171	11.99
358.381	12.05
358.591	11.61
358.801	12.25
359.011	13.06
359.221	12.95
359.43	13.26
359.64	13
359.85	12.86
360.06	12.47
360.269	12.27
360.479	12.24
360.689	11.42
360.899	11.26
361.108	10.8
361.318	10.01
361.528	9.11
361.737	8.73
361.947	9.65
362.156	9.44
362.366	9.79
362.576	9.43
362.785	9.36
362.995	9.81
363.204	9.64
363.414	9.59
363.623	9.93
363.833	10.78
364.042	10.64
364.252	10.09
364.461	9.72
364.671	8.68
364.88	8.88
365.09	9.12
365.299	8.85
365.509	9.05
365.718	9.65
365.927	9.4
366.137	9.41
366.346	9.67
366.555	8.91
366.765	8.36
366.974	8.56
367.183	8.99
367.393	8.42
367.602	8.16
367.811	8.42
368.021	7.6
368.23	8.19
368.439	8.35
368.648	8.72
368.857	9.8
369.067	10.82
369.276	11.3
369.485	10.58
369.694	11.07
369.903	10.98
370.112	10.38
370.321	10.84
370.531	9.44
370.74	9.41
370.949	8.85
371.158	8.41
371.367	8.14
371.576	8.15
371.785	7.94
371.994	8.06
372.203	7.66
372.412	7.74
372.621	7.45
372.83	8.34
373.039	8.01
373.248	8.17
373.457	8.29
373.666	8.38
373.874	8.07
374.083	8.82
374.292	8.47
374.501	9.16
374.71	9.18
374.919	9.52
375.128	9.12
375.336	9.34
375.545	9.02
375.754	8.96
375.963	8.37
376.171	8.21
376.38	8.22
376.589	8.37
376.798	8.54
377.006	7.98
377.215	7.61
377.424	7.67
377.632	7.52
377.841	7.86
378.05	7.73
378.258	8.11
378.467	8.1
378.675	7.17
378.884	7.04
379.093	6.58
379.301	7.17
379.51	7.64
379.718	7.34
379.927	6.93
380.135	6.84
380.344	6.76
380.552	7.21
380.761	7.75
380.969	8.54
381.177	8.39
381.386	8.64
381.594	8.4
381.803	8.1
382.011	8.39
382.219	8.46
382.428	7.99
382.636	7.42
382.845	6.94
383.053	6.78
383.261	6.91
383.469	7.03
383.678	6.54
383.886	6.62
384.094	6.53
384.302	6.66
384.511	6.1
384.719	6.23
384.927	6.75
385.135	6.61
385.343	6.41
385.552	6.16
385.76	5.98
385.968	6.5
386.176	6.22
386.384	6.07
386.592	5.91
386.8	6.34
387.008	6.49
387.216	6.08
387.424	6.04
387.633	5.84
387.841	5.42
388.049	5.22
388.257	4.74
388.465	4.89
388.672	5.22
388.88	4.96
389.088	5.4
389.296	5.03
389.504	5.28
389.712	5.51
389.92	5.29
390.128	5.46
390.336	5.65
390.544	5.75
390.751	5.23
390.959	4.86
391.167	4.77
391.375	4.35
391.583	4.59
391.79	4.74
391.998	4.25
392.206	4.52
392.414	4.63
392.621	4.87
392.829	4.95
393.037	5.45
393.244	5.85
393.452	6.02
393.66	5.92
393.867	5.76
394.075	5.47
394.283	5.79
394.49	5.79
394.698	5.73
394.905	5.3
395.113	5.03
395.32	5.13
395.528	4.87
395.735	4.58
395.943	4.29
396.15	4.13
396.358	4.38
396.565	4.32
396.773	3.75
396.98	3.48
397.188	3.48
397.395	3.83
397.602	3.27
397.81	3.19
398.017	3.54
398.225	4.03
398.432	4.08
398.639	3.7
398.847	3.68
399.054	4.23
399.261	4.45
399.468	4.71
399.676	4.68
399.883	4.48
400.09	4.65
400.297	4.72
400.505	4.76
400.712	4.74
400.919	5.1
401.126	5.08
401.333	4.76
401.54	4.44
401.748	4.24
401.955	3.67
402.162	4.1
402.369	3.89
402.576	3.8
402.783	3.56
402.99	3.46
403.197	3.16
403.404	2.98
403.611	3.27
403.818	3.27
404.025	3.34
404.232	3.68
404.439	3.64
404.646	3.97
404.853	3.73
405.06	3.82
405.267	4.16
405.474	4.14
405.681	4.21
405.887	4.08
406.094	4.18
406.301	4.32
406.508	4.38
406.715	4.33
406.922	4.04
407.128	3.98
407.335	3.96
407.542	3.7
407.749	4.07
407.955	4.26
408.162	4.23
408.369	4
408.575	3.69
408.782	3.55
408.989	3.73
409.195	3.64
409.402	3.85
409.609	3.81
409.815	3.83
410.022	3.31
410.228	3.04
410.435	2.94
410.642	3.2
410.848	3.17
411.055	3.32
411.261	3.06
411.468	2.98
411.674	2.9
411.881	2.82
412.087	2.89
412.294	2.94
412.5	3.13
412.706	3.24
412.913	2.94
413.119	2.74
413.326	2.68
413.532	2.84
413.738	3.02
413.945	2.89
414.151	2.84
414.357	2.59
414.564	2.73
414.77	2.71
414.976	2.85
415.182	3.03
415.389	3.5
415.595	3.28
415.801	3.14
416.007	3.21
416.214	3.1
416.42	3.26
416.626	3.35
416.832	3.36
417.038	3.26
417.244	3.19
417.45	3.35
417.657	3.03
417.863	3.24
418.069	3.47
418.275	3.32
418.481	3.52
418.687	3.5
418.893	3.6
419.099	3.53
419.305	3.5
419.511	3.27
419.717	3.2
419.923	3.28
420.129	3.27
420.335	3.05
420.541	3.14
420.746	3.25
420.952	3.27
421.158	3.3
421.364	3.38
421.57	3.44
421.776	3.56
421.982	3.53
422.187	3.61
422.393	3.61
422.599	3.66
422.805	3.63
423.01	3.45
423.216	3.49
423.422	3.44
423.628	3.29
423.833	3.2
424.039	3.25
424.245	3.4
424.45	3.23
424.656	3.25
424.862	3.21
425.067	3.3
425.273	3.36
425.478	3.28
425.684	3.3
425.889	3.41
426.095	3.46
426.301	3.46
426.506	3.22
426.712	3.4
426.917	3.18
427.123	3.22
427.328	2.96
427.533	2.9
427.739	2.79
427.944	2.58
428.15	2.48
428.355	2.31
428.561	2.46
428.766	2.45
428.971	2.25
429.177	2.51
429.382	2.4
429.587	2.65
429.793	2.62
429.998	2.79
430.203	3.15
430.408	3.2
430.614	3.28
430.819	3.19
431.024	3.16
431.229	3.13
431.434	2.95
431.64	3.14
431.845	3.27
432.05	3.32
432.255	3.21
432.46	2.89
432.665	2.81
432.87	3
433.076	2.86
433.281	2.88
433.486	3.15
433.691	3.14
433.896	3.2
434.101	2.96
434.306	2.99
434.511	2.89
434.716	2.92
434.921	3.15
435.126	2.93
435.331	2.94
435.535	3.06
435.74	2.83
435.945	2.87
436.15	2.6
436.355	2.67
436.56	2.56
436.765	2.61
436.97	2.6
437.174	2.5
437.379	2.7
437.584	2.79
437.789	2.85
437.993	2.74
438.198	2.92
438.403	3.1
438.608	3.17
438.812	3.13
439.017	3.22
439.222	3.3
439.426	3.35
439.631	3.25
439.836	3.34
440.04	3.42
440.245	3.61
440.45	3.31
440.654	3.36
440.859	3.4
441.063	3.59
441.268	3.53
441.472	3.56
441.677	3.4
441.881	3.61
442.086	3.44
442.29	3.31
442.495	3.29
442.699	3.52
442.904	3.53
443.108	3.27
443.312	2.99
443.517	3.05
443.721	3.1
443.925	3.17
444.13	2.97
444.334	3.08
444.538	3.02
444.743	3
444.947	2.91
445.151	2.87
445.356	3.05
445.56	3.2
445.764	3.18
445.968	3.12
446.173	3.19
446.377	3.34
446.581	3.26
446.785	3.25
446.989	3.21
447.193	3.25
447.398	3.18
447.602	3.01
447.806	3.06
448.01	3.14
448.214	2.98
448.418	3
448.622	2.8
448.826	2.71
449.03	2.7
449.234	2.78
449.438	2.62
449.642	2.69
449.846	2.72
450.05	2.57
450.254	2.36
450.458	2.52
450.662	2.49
450.866	2.36
451.069	2.65
451.273	2.69
451.477	2.6
451.681	2.76
451.885	2.78
452.089	3.09
452.292	2.97
452.496	2.96
452.7	2.82
452.904	2.75
453.107	2.79
453.311	2.48
453.515	2.39
453.719	2.43
453.922	2.34
454.126	2.12
454.33	1.85
454.533	2.16
454.737	2.39
454.94	2.6
455.144	2.54
455.348	2.65
455.551	2.81
455.755	2.9
455.958	2.95
456.162	3.03
456.365	3.04
456.569	2.93
456.772	2.72
456.976	2.29
457.179	2.24
457.383	2.22
457.586	2.32
457.79	2.25
457.993	2.2
458.196	2.2
458.4	2.23
458.603	2.46
458.807	2.48
459.01	2.53
459.213	2.7
459.417	2.78
459.62	2.81
459.823	2.75
460.026	2.78
460.23	2.91
460.433	2.94
460.636	2.91
460.839	2.76
461.042	2.81
461.246	2.86
461.449	3.02
461.652	2.9
461.855	2.92
462.058	2.81
462.261	2.82
462.464	2.73
462.668	2.54
462.871	2.5
463.074	2.59
463.277	2.58
463.48	2.6
463.683	2.31
463.886	2.38
464.089	2.35
464.292	2.45
464.495	2.55
464.698	2.32
464.901	2.55
465.104	2.45
465.306	2.4
465.509	2.47
465.712	2.52
465.915	2.8
466.118	2.82
466.321	2.67
466.524	2.8
466.726	2.73
466.929	2.73
467.132	2.63
467.335	2.69
467.538	2.59
467.74	2.44
467.943	2.3
468.146	2.31
468.348	2.26
468.551	2.56
468.754	2.48
468.956	2.22
469.159	2.33
469.362	2.17
469.564	2.13
469.767	2.28
469.969	2.26
470.172	2.24
470.375	1.92
470.577	1.9
470.78	1.83
470.982	1.81
471.185	2.29
471.387	2.39
471.59	2.37
471.792	2.5
471.995	2.49
472.197	2.66
472.399	2.64
472.602	2.93
472.804	3.03
473.007	3.17
473.209	3.17
473.411	2.96
473.614	2.75
473.816	2.85
474.018	2.9
474.22	2.7
474.423	2.74
474.625	2.83
474.827	2.66
475.03	2.39
475.232	2.17
475.434	2.1
475.636	2.29
475.838	2.33
476.04	2.54
476.243	2.61
476.445	2.8
476.647	2.75
476.849	2.71
477.051	2.67
477.253	2.68
477.455	2.82
477.657	2.78
477.859	2.66
478.061	2.9
478.263	2.78
478.465	2.66
478.667	2.72
478.869	2.77
479.071	2.78
479.273	2.84
479.475	2.95
479.677	2.92
479.879	3.04
480.081	2.97
480.283	2.71
480.485	2.8
480.686	2.83
480.888	2.76
481.09	2.66
481.292	2.69
481.494	2.63
481.695	2.65
481.897	2.68
482.099	2.63
482.301	2.74
482.502	2.85
482.704	2.76
482.906	2.77
483.107	2.75
483.309	2.8
483.511	2.83
483.712	2.9
483.914	2.93
484.115	2.91
484.317	2.91
484.519	2.9
484.72	2.88
484.922	2.95
485.123	2.92
485.325	3.01
485.526	2.98
485.728	2.93
485.929	2.95
486.131	2.92
486.332	2.93
486.534	2.98
486.735	2.97
486.936	3.02
487.138	2.96
487.339	3
487.541	2.92
487.742	2.91
487.943	2.94
488.144	2.88
488.346	2.84
488.547	2.79
488.748	2.77
488.95	2.76
489.151	2.78
489.352	2.8
489.553	2.77
489.755	2.88
489.956	2.86
490.157	2.79
490.358	2.78
490.559	2.8
490.76	2.89
490.961	2.95
491.163	2.98
491.364	2.92
491.565	2.91
491.766	2.91
491.967	2.84
492.168	2.86
492.369	2.91
492.57	2.97
492.771	3.01
492.972	2.92
493.173	2.85
493.374	2.81
493.575	2.79
493.776	2.67
493.976	2.6
494.177	2.55
494.378	2.55
494.579	2.47
494.78	2.4
494.981	2.33
495.182	2.32
495.382	2.44
495.583	2.36
495.784	2.45
495.985	2.62
496.185	2.67
496.386	2.72
496.587	2.61
496.788	2.67
496.988	2.64
497.189	2.66
497.39	2.59
497.59	2.54
497.791	2.78
497.992	2.85
498.192	2.93
498.393	2.96
498.593	2.83
498.794	2.96
498.994	2.94
499.195	3.01
499.395	3.15
499.596	3.31
499.796	3.29
499.997	3
500.197	2.73
500.398	2.59
500.598	2.54
500.799	2.61
500.999	2.71
501.199	2.77
501.4	2.76
501.6	2.72
501.801	2.72
502.001	2.88
502.201	3.1
502.402	3.19
502.602	3.25
502.802	3.35
503.002	3.39
503.203	3.45
503.403	3.38
503.603	3.3
503.803	3.15
504.003	3.18
504.204	3.09
504.404	2.88
504.604	2.96
504.804	2.95
505.004	2.87
505.204	2.91
505.404	2.86
505.604	2.87
505.804	2.93
506.005	3.07
506.205	3.02
506.405	3.06
506.605	3.14
506.805	3.13
507.005	3.24
507.204	3.23
507.404	3.28
507.604	3.26
507.804	3.42
508.004	3.38
508.204	3.19
508.404	3.27
508.604	3.19
508.804	3.32
509.003	3.42
509.203	3.36
509.403	3.49
509.603	3.55
509.803	3.6
510.002	3.61
510.202	3.7
510.402	3.87
510.602	3.71
510.801	3.76
511.001	3.66
511.201	3.51
511.4	3.52
511.6	3.53
511.8	3.5
511.999	3.49
512.199	3.4
512.398	3.52
512.598	3.58
512.797	3.71
512.997	3.69
513.197	3.65
513.396	3.74
513.596	3.69
513.795	3.75
513.994	3.8
514.194	3.78
514.393	3.82
514.593	3.6
514.792	3.58
514.992	3.53
515.191	3.69
515.39	3.84
515.59	3.84
515.789	3.88
515.988	3.7
516.188	3.53
516.387	3.43
516.586	3.47
516.786	3.49
516.985	3.35
517.184	3.4
517.383	3.3
517.582	3.34
517.782	3.24
517.981	3.35
518.18	3.53
518.379	3.71
518.578	3.66
518.777	3.7
518.976	3.72
519.176	3.86
519.375	3.84
519.574	3.87
519.773	3.82
519.972	3.96
520.171	3.84
520.37	3.82
520.569	3.87
520.768	3.96
520.967	4.04
521.166	4.11
521.365	4.09
521.564	4.25
521.762	4.3
521.961	4.32
522.16	4.43
522.359	4.39
522.558	4.27
522.757	4.14
522.956	4.21
523.154	4.07
523.353	4.09
523.552	4.1
523.751	4.02
523.949	3.93
524.148	4
524.347	3.95
524.546	4.01
524.744	4.25
524.943	4.28
525.142	4.2
525.34	4.27
525.539	4.27
525.737	4.22
525.936	4.22
526.135	4.36
526.333	4.42
526.532	4.46
526.73	4.51
526.929	4.52
527.127	4.51
527.326	4.58
527.524	4.6
527.723	4.64
527.921	4.7
528.12	4.74
528.318	4.73
528.516	4.7
528.715	4.71
528.913	4.8
529.112	4.73
529.31	4.79
529.508	4.78
529.707	4.82
529.905	4.79
530.103	4.78
530.301	4.83
530.5	4.76
530.698	4.82
530.896	4.85
531.094	4.81
531.293	4.86
531.491	4.9
531.689	5.06
531.887	4.97
532.085	5.02
532.283	5.03
532.481	5.06
532.68	5.23
532.878	5.19
533.076	5.21
533.274	5.19
533.472	5.17
533.67	5.09
533.868	5.03
534.066	5.17
534.264	5.12
534.462	5.17
534.66	5.16
534.858	5
535.056	5.13
535.253	5.03
535.451	5.09
535.649	5.23
535.847	5.31
536.045	5.35
536.243	5.29
536.441	5.31
536.638	5.37
536.836	5.38
537.034	5.49
537.232	5.41
537.43	5.54
537.627	5.55
537.825	5.59
538.023	5.66
538.22	5.8
538.418	5.87
538.616	6.07
538.813	6.11
539.011	6.09
539.209	6.11
539.406	6.19
539.604	6.08
539.801	6.21
539.999	6.07
540.196	6.18
540.394	6.15
540.591	6.11
540.789	6.08
540.986	6.16
541.184	6.27
541.381	6.3
541.579	6.31
541.776	6.41
541.974	6.39
542.171	6.46
542.368	6.41
542.566	6.39
542.763	6.42
542.96	6.46
543.158	6.44
543.355	6.45
543.552	6.5
543.75	6.55
543.947	6.56
544.144	6.57
544.341	6.59
544.539	6.65
544.736	6.69
544.933	6.93
545.13	7.04
545.327	7.13
545.524	7.07
545.722	7.23
545.919	7.17
546.116	7.3
546.313	7.28
546.51	7.35
546.707	7.35
546.904	7.47
547.101	7.22
547.298	7.25
547.495	7.18
547.692	7.27
547.889	7.09
548.086	7.26
548.283	7.24
548.48	7.26
548.677	7.28
548.874	7.22
549.07	7.04
549.267	7.25
549.464	7.01
549.661	7.1
549.858	7.11
550.055	7.26
550.251	7.33
550.448	7.09
550.645	7.06
550.842	7.08
551.038	7.22
551.235	7.46
551.432	7.19
551.628	7.41
551.825	7.59
552.022	7.61
552.218	7.57
552.415	7.41
552.612	7.49
552.808	7.71
553.005	7.77
553.201	7.71
553.398	7.72
553.594	7.86
553.791	7.91
553.987	7.8
554.184	7.67
554.38	7.73
554.577	7.77
554.773	7.81
554.97	7.84
555.166	7.93
555.362	8.06
555.559	8.19
555.755	8.32
555.952	8.38
556.148	8.54
556.344	8.72
556.541	8.75
556.737	8.78
556.933	9.03
557.129	8.92
557.326	8.88
557.522	8.92
557.718	8.8
557.914	8.69
558.11	8.77
558.307	8.53
558.503	8.66
558.699	8.71
558.895	8.74
559.091	8.61
559.287	8.89
559.483	8.94
559.679	8.95
559.876	8.95
560.072	9.12
560.268	9.05
560.464	8.97
560.66	9.01
560.856	9.13
561.052	9.16
561.247	9.33
561.443	9.11
561.639	9.2
561.835	9.22
562.031	9.24
562.227	9.4
562.423	9.43
562.619	9.73
562.815	9.78
563.01	9.66
563.206	9.84
563.402	9.88
563.598	9.89
563.793	9.84
563.989	9.87
564.185	9.99
564.381	9.89
564.576	9.98
564.772	9.98
564.968	9.84
565.163	9.82
565.359	9.77
565.555	9.75
565.75	9.9
565.946	10.14
566.141	10.26
566.337	10.28
566.532	10.22
566.728	10.18
566.923	10.13
567.119	10.22
567.314	10.35
567.51	10.51
567.705	10.39
567.901	10.24
568.096	10.07
568.292	10.11
568.487	10.11
568.682	10.08
568.878	10
569.073	10.06
569.268	10.11
569.464	10.02
569.659	9.8
569.854	9.85
570.05	10.09
570.245	10.11
570.44	9.93
570.635	9.86
570.831	9.99
571.026	9.99
571.221	9.91
571.416	9.88
571.611	10.01
571.806	9.97
572.002	10.12
572.197	10.01
572.392	10.08
572.587	10.02
572.782	10.12
572.977	10.19
573.172	10.42
573.367	10.64
573.562	10.78
573.757	10.7
573.952	10.91
574.147	10.98
574.342	10.96
574.537	10.91
574.732	11
574.927	11.12
575.121	11.14
575.316	11.15
575.511	10.98
575.706	10.9
575.901	10.98
576.096	11.01
576.29	10.92
576.485	11.02
576.68	11.14
576.875	11.06
577.069	10.9
577.264	11.01
577.459	10.98
577.654	10.85
577.848	10.95
578.043	10.83
578.238	10.69
578.432	10.61
578.627	10.53
578.821	10.44
579.016	10.43
579.21	10.34
579.405	10.4
579.6	10.03
579.794	10.27
579.989	10.27
580.183	10.54
580.378	10.59
580.572	10.55
580.766	10.46
580.961	10.3
581.155	10.38
581.35	10.52
581.544	10.12
581.738	10.53
581.933	10.53
582.127	10.24
582.321	10
582.516	10.12
582.71	10.27
582.904	10.51
583.099	10.71
583.293	10.75
583.487	10.72
583.681	10.71
583.875	10.39
584.07	10.46
584.264	10.64
584.458	10.71
584.652	10.52
584.846	10.38
585.04	10.48
585.234	10.35
585.428	10.2
585.623	10.1
585.817	10.53
586.011	10.86
586.205	11.01
586.399	11.02
586.593	11.43
586.787	11.59
586.981	11.77
587.174	11.71
587.368	11.82
587.562	11.99
587.756	12.06
587.95	12.09
588.144	12.32
588.338	12.2
588.532	12.1
588.725	11.65
588.919	11.75
589.113	11.41
589.307	11.43
589.501	11.26
589.694	11.55
589.888	11.47
590.082	11.49
590.275	11.24
590.469	11.09
590.663	11.17
590.856	11.37
591.05	11.23
591.244	11.75
591.437	11.47
591.631	11.66
591.824	11.53
592.018	11.83
592.212	11.33
592.405	11.19
592.599	11.37
592.792	11.28
592.986	11.28
593.179	11.34
593.372	11.24
593.566	11.61
593.759	11.51
593.953	11.15
594.146	11.09
594.339	11.24
594.533	11.3
594.726	11.24
594.92	11.42
595.113	11.37
595.306	11.51
595.499	11.39
595.693	11.23
595.886	11.29
596.079	11.67
596.272	11.92
596.466	12.1
596.659	12.1
596.852	12.03
597.045	11.99
597.238	11.84
597.431	11.52
597.624	11.44
597.818	11.51
598.011	11.5
598.204	11.28
598.397	11
598.59	10.72
598.783	10.82
598.976	10.84
599.169	10.87
599.362	10.92
599.555	11.27
599.748	11.26
599.941	11.18
600.134	11.09
600.326	11.15
600.519	11.38
600.712	11.43
600.905	11.33
601.098	11.67
601.291	11.85
601.483	11.91
601.676	11.56
601.869	11.75
602.062	11.75
602.255	11.95
602.447	12.01
602.64	11.7
602.833	11.94
603.025	12.02
603.218	11.85
603.411	11.78
603.603	11.72
603.796	11.93
603.989	11.91
604.181	12.04
604.374	11.85
604.566	11.82
604.759	11.94
604.951	11.84
605.144	11.86
605.336	11.91
605.529	11.86
605.721	12.06
605.914	11.94
606.106	12
606.299	11.86
606.491	12.13
606.683	12.32
606.876	12.15
607.068	12.28
607.26	12.18
607.453	11.88
607.645	11.97
607.837	11.98
608.03	12.07
608.222	12.04
608.414	12.1
608.606	12.34
608.799	12.33
608.991	12.55
609.183	12.36
609.375	12.21
609.567	12.21
609.759	12.17
609.952	12.03
610.144	12.04
610.336	11.87
610.528	11.72
610.72	11.17
610.912	10.87
611.104	10.7
611.296	10.5
611.488	10.52
611.68	10.57
611.872	10.59
612.064	10.63
612.256	10.45
612.448	10.72
612.64	10.8
612.832	11.06
613.023	11.23
613.215	11.32
613.407	11.49
613.599	11.83
613.791	11.53
613.983	11.32
614.174	11.48
614.366	11.73
614.558	11.31
614.75	11.12
614.941	10.82
615.133	10.83
615.325	10.77
615.516	11.09
615.708	11.01
615.9	11.43
616.091	11.39
616.283	11.11
616.475	11.04
616.666	11.11
616.858	11.08
617.049	10.93
617.241	11
617.432	11.22
617.624	10.89
617.815	10.8
618.007	10.92
618.198	10.89
618.39	10.8
618.581	11.05
618.773	11.13
618.964	11.37
619.155	11.91
619.347	11.9
619.538	12.05
619.729	12.19
619.921	11.83
620.112	11.74
620.303	11.8
620.494	12.23
620.686	12.35
620.877	12.32
621.068	12.49
621.259	12.51
621.451	12.6
621.642	11.87
621.833	11.76
622.024	12.3
622.215	12.08
622.406	12.11
622.597	11.64
622.788	11.39
622.98	11.24
623.171	10.91
623.362	10.61
623.553	10.67
623.744	11.14
623.935	11.36
624.126	11
624.317	11.19
624.508	11.04
624.698	11.41
624.889	11.22
625.08	11.83
625.271	11.99
625.462	12.21
625.653	11.96
625.844	11.97
626.034	11.9
626.225	12.13
626.416	12
626.607	12.29
626.798	12.43
626.988	12.58
627.179	12.42
627.37	12.7
627.56	12.63
627.751	12.71
627.942	12.72
628.132	12.64
628.323	12.77
628.514	13.07
628.704	13.22
628.895	12.82
629.085	12.98
629.276	12.72
629.466	12.58
629.657	12.6
629.847	12.83
630.038	12.61
630.228	12.68
630.419	12.79
630.609	12.66
630.8	12.19
630.99	12.27
631.181	11.88
631.371	12
631.561	11.75
631.752	11.61
631.942	11.44
632.132	11.82
632.323	11.84
632.513	11.44
632.703	11.54
632.893	11.81
633.084	12.06
633.274	11.8
633.464	11.87
633.654	12.19
633.844	12.24
634.034	12.2
634.225	11.88
634.415	11.77
634.605	11.82
634.795	12.1
634.985	12.12
635.175	12.27
635.365	12.88
635.555	12.87
635.745	12.94
635.935	13.08
636.125	12.73
636.315	12.88
636.505	13.14
636.695	13.2
636.885	12.82
637.075	13.03
637.265	12.72
637.455	12.79
637.644	12.78
637.834	12.28
638.024	12.23
638.214	12.62
638.404	12.74
638.593	12.86
638.783	12.75
638.973	12.71
639.163	12.08
639.352	12.23
639.542	11.92
639.732	12.07
639.921	12.55
640.111	12.72
640.301	12.72
640.49	12.97
640.68	12.64
640.87	12.92
641.059	12.99
641.249	13.4
641.438	12.94
641.628	13.07
641.817	12.84
642.007	12.35
642.196	12.3
642.386	12.55
642.575	12.17
642.764	12.19
642.954	11.92
643.143	11.86
643.333	11.66
643.522	11.89
643.711	12.22
643.901	12.15
644.09	12.41
644.279	12.52
644.469	11.94
644.658	12.3
644.847	12.43
645.036	12.79
645.226	12.82
645.415	12.82
645.604	12.9
645.793	12.49
645.982	12.78
646.171	12.57
646.361	12.58
646.55	13.3
646.739	13.09
646.928	13
647.117	12.94
647.306	12.61
647.495	12.72
647.684	12.64
647.873	12.23
648.062	12.11
648.251	12.45
648.44	12.54
648.629	12.22
648.818	11.91
649.007	12.19
649.196	12.11
649.384	12.34
649.573	12.16
649.762	12.15
649.951	12.7
650.14	12.5
650.328	12.06
650.517	11.74
650.706	11.9
650.895	12.37
651.083	12.09
651.272	11.65
651.461	11.8
651.65	11.99
651.838	11.64
652.027	11.63
652.216	11.8
652.404	12.11
652.593	12.64
652.781	12.36
652.97	12.25
653.158	12.41
653.347	12.62
653.535	12.37
653.724	12.57
653.912	13.12
654.101	12.67
654.289	12.74
654.478	12.72
654.666	12.24
654.855	12.58
655.043	12.32
655.231	12.5
655.42	12.1
655.608	12.75
655.796	12.8
655.985	12.83
656.173	13.05
656.361	12.92
656.55	12.73
656.738	13.12
656.926	13.22
657.114	13.38
657.302	13.4
657.491	14.08
657.679	13.29
657.867	13.19
658.055	12.91
658.243	12.7
658.431	12.57
658.619	12.64
658.807	12.25
658.996	11.9
659.184	12.02
659.372	11.69
659.56	11.63
659.748	11.98
659.936	12.04
660.124	12.05
660.311	12.44
660.499	12.41
660.687	12.61
660.875	12.63
661.063	12.66
661.251	12.74
661.439	12.9
661.627	13.32
661.814	13.15
662.002	13.28
662.19	13.27
662.378	12.99
662.565	13.12
662.753	12.74
662.941	12.96
663.129	13.1
663.316	12.73
663.504	12.9
663.692	12.3
663.879	12.36
664.067	11.86
664.254	11.88
664.442	12.01
664.63	12.4
664.817	12.67
665.005	12.51
665.192	12.47
665.38	12.83
665.567	12.62
665.755	13.13
665.942	13.25
666.13	13.62
666.317	13.75
666.504	13.58
666.692	13.44
666.879	13.26
667.067	13.66
667.254	13.58
667.441	13.06
667.629	13.15
667.816	12.54
668.003	12.35
668.19	12.32
668.378	11.98
668.565	12.42
668.752	12.11
668.939	12.44
669.127	11.91
669.314	11.87
669.501	11.82
669.688	11.65
669.875	11.8
670.062	11.67
670.249	11.37
670.436	11.96
670.623	11.68
670.81	11.73
670.997	11.37
671.184	11.52
671.371	11.75
671.558	12.38
671.745	12.42
671.932	12.84
672.119	13.03
672.306	13.59
672.493	13.52
672.68	14.12
672.867	14.29
673.054	14.6
673.24	14.34
673.427	14.52
673.614	13.81
673.801	14.12
673.988	13.64
674.174	13.76
674.361	13.37
674.548	13.61
674.734	12.65
674.921	12.85
675.108	12.48
675.294	12.51
675.481	12.23
675.668	12.7
675.854	12.81
676.041	12.56
676.227	12.4
676.414	13.01
676.601	12.44
676.787	12.56
676.974	12.42
677.16	12.37
677.347	12.68
677.533	12.33
677.719	12.02
677.906	11.52
678.092	11.96
678.279	12.19
678.465	11.62
678.651	11.87
678.838	11.92
679.024	11.98
679.21	11.93
679.397	11.79
679.583	11.96
679.769	12.26
679.955	12.03
680.142	11.8
680.328	11.96
680.514	11.81
680.7	11.87
680.886	12.18
681.073	12.1
681.259	12.6
681.445	12.46
681.631	12.39
681.817	12.21
682.003	12.41
682.189	12.67
682.375	12.5
682.561	12.51
682.747	12.03
682.933	12.32
683.119	12
683.305	11.6
683.491	11.36
683.677	11.78
683.863	11.91
684.049	12.07
684.235	11.6
684.42	11.54
684.606	11.72
684.792	12.54
684.978	11.61
685.164	11.9
685.349	12.09
685.535	12.89
685.721	12.67
685.907	12
686.092	11.81
686.278	12.19
686.464	12.57
686.649	12.69
686.835	12.48
687.021	13.05
687.206	13.2
687.392	13.42
687.577	12.82
687.763	12.52
687.948	13.21
688.134	13.55
688.319	13.41
688.505	13.16
688.69	12.9
688.876	12.69
689.061	12.87
689.247	12.55
689.432	12.4
689.618	13.37
689.803	13.5
689.988	13.8
690.174	13.46
690.359	13.31
690.544	13.61
690.73	13.63
690.915	13.87
691.1	13.63
691.285	13.87
691.471	13.4
691.656	12.68
691.841	13.12
692.026	12.64
692.211	12.6
692.396	12.74
692.582	12.05
692.767	11.83
692.952	11.35
693.137	11.09
693.322	10.79
693.507	11.52
693.692	11.72
693.877	11.48
694.062	11.56
694.247	12.13
694.432	12.62
694.617	12.8
694.802	12.83
694.987	13.02
695.172	12.78
695.357	13.89
695.541	13.84
695.726	13.43
695.911	13.11
696.096	12.86
696.281	12.68
696.466	11.99
696.65	12.39
696.835	12.63
697.02	12.57
697.204	13.01
697.389	12.57
697.574	12.63
697.759	13.07
697.943	13.06
698.128	13.34
698.312	13.26
698.497	13.59
698.682	13.15
698.866	13.35
699.051	13.58
699.235	13.53
699.42	13.54
699.604	13.52
699.789	13.7
699.973	13.89
700.158	13.6
700.342	13.46
700.527	13.56
700.711	13.78
700.895	13.47
701.08	13.8
701.264	13.66
701.448	13.03
701.633	12.41
701.817	11.19
702.001	11.07
702.186	11.38
702.37	11.28
702.554	10.69
702.738	11.15
702.923	11.41
703.107	11.09
703.291	11.02
703.475	10.92
703.659	11.33
703.843	12.01
704.027	11.87
704.212	11.99
704.396	12.22
704.58	12.68
704.764	12.07
704.948	12.38
705.132	11.26
705.316	11.22
705.5	12.21
705.684	12.16
705.868	12.78
706.052	13.04
706.235	12.32
706.419	12.01
706.603	12.33
706.787	12.55
706.971	12.67
707.155	13.58
707.339	14.13
707.522	14.63
707.706	14.79
707.89	14.21
708.074	14.51
708.257	14.43
708.441	15.04
708.625	14.73
708.808	14.3
708.992	14.04
709.176	14.09
709.359	13.79
709.543	12.23
709.727	12.48
709.91	12.83
710.094	12.13
710.277	12.75
710.461	12.34
710.644	11.5
710.828	12.19
711.011	11.38
711.195	11.48
711.378	11.26
711.562	12
711.745	11.31
711.928	10.95
712.112	11.88
712.295	11.7
712.478	11.69
712.662	12.68
712.845	12.12
713.028	12.75
713.212	12.64
713.395	11.94
713.578	12.06
713.761	12.34
713.945	12.23
714.128	11.61
714.311	12.81
714.494	12.79
714.677	12.28
714.86	12.4
715.043	12.23
715.227	12.17
715.41	12.42
715.593	12.46
715.776	12.48
715.959	13.11
716.142	13.18
716.325	12.07
716.508	12.33
716.691	12.4
716.874	12.82
717.057	12.96
717.239	12.32
717.422	12.78
717.605	11.99
717.788	12.2
717.971	12.5
718.154	11.88
718.337	12.05
718.519	11.94
718.702	12.98
718.885	12.72
719.068	12.54
719.25	12.76
719.433	13.05
719.616	13.19
719.798	12.78
719.981	12.06
720.164	12.44
720.346	12.63
720.529	12.66
720.712	11.69
720.894	11.8
721.077	11.51
721.259	11.52
721.442	11.34
721.624	12.14
721.807	12.85
721.989	12.28
722.172	12.33
722.354	12.13
722.537	11.52
722.719	11.31
722.901	10.37
723.084	10.58
723.266	11.01
723.448	10.61
723.631	10.44
723.813	9.55
723.995	10.72
724.178	10.69
724.36	9.25
724.542	10.08
724.724	10.93
724.907	11.4
725.089	12.11
725.271	12.24
725.453	12.98
725.635	13.04
725.817	13.13
725.999	12.68
726.181	13.31
726.364	14.42
726.546	14.53
726.728	14.48
726.91	15.43
727.092	15.43
727.274	15.53
727.456	15.87
727.638	15.2
727.819	15.72
728.001	14.71
728.183	14.03
728.365	14.71
728.547	13.9
728.729	13.65
728.911	13.33
729.093	13.25
729.274	12.4
729.456	12.64
729.638	12.84
729.82	12.84
730.001	13.16
730.183	13.25
730.365	12.38
730.546	12.48
730.728	12.54
730.91	12.28
731.091	10.98
731.273	12.35
731.455	11.01
731.636	10.59
731.818	10.08
731.999	10.97
732.181	11.26
732.362	11.36
732.544	11.33
732.725	10.23
732.907	10.22
733.088	11.89
733.27	10.72
733.451	11.32
733.633	11.67
733.814	12.39
733.995	11.61
734.177	10.92
734.358	11.01
734.539	12.44
734.721	13.38
734.902	12.87
735.083	12.17
735.264	13.62
735.446	13.3
735.627	13.96
735.808	12.89
735.989	14.19
736.17	15.18
736.351	15.43
736.533	13.97
736.714	14.27
736.895	15.49
737.076	15.63
737.257	15.28
737.438	15.73
737.619	15.51
737.8	14.96
737.981	14.35
738.162	13.3
738.343	13.24
738.524	12.42
738.705	12.82
738.886	12.22
739.067	12.53
739.247	11.34
739.428	10.58
739.609	10.36
739.79	10.56
739.971	10.38
740.151	11.51
740.332	10.87
740.513	12.51
740.694	12.62
740.874	12.33
741.055	11.63
741.236	11.35
741.417	11.4
741.597	11.92
741.778	11.88
741.958	11.92
742.139	11.95
742.32	13.68
742.5	12.88
742.681	11.6
742.861	12.21
743.042	12.75
743.222	13.45
743.403	14.37
743.583	14.52
743.764	14.86
743.944	14.31
744.124	13.75
744.305	12.37
744.485	12.13
744.666	12.13
744.846	10.65
745.026	9.12
745.207	8.67
745.387	9.22
745.567	7.42
745.747	7.36
745.928	8.72
746.108	9.52
746.288	9.51
746.468	9.84
746.648	9.33
746.829	9.21
747.009	10.63
747.189	11.18
747.369	10.06
747.549	12.69
747.729	13.07
747.909	12.67
748.089	13.46
748.269	14.41
748.449	14.19
748.629	15.69
748.809	16.63
748.989	15.94
749.169	16.8
749.349	18.55
749.529	17.96
749.709	18.3
749.889	16.74
750.068	15.93
750.248	15.39
750.428	17.22
750.608	17.57
750.788	17.66
750.967	17.68
751.147	17.97
751.327	17.31
751.507	15.64
751.686	14.65
751.866	15.56
752.046	15.06
752.225	13.96
752.405	12.35
752.585	12.14
752.764	11.43
752.944	10.72
753.123	10.55
753.303	9.83
753.482	9.79
753.662	10.47
753.841	10.33
754.021	11.24
754.2	11.71
754.38	11.74
754.559	10.24
754.739	10.98
754.918	12.29
755.097	11.26
755.277	11.93
755.456	12.81
755.635	13.01
755.815	13.56
755.994	11.98
756.173	13.31
756.352	12.95
756.532	13.25
756.711	13.82
756.89	14.03
757.069	13
757.248	13.36
757.427	12.58
757.607	13.35
757.786	12.89
757.965	13.81
758.144	13.17
758.323	13.23
758.502	12.68
758.681	13.24
758.86	11.42
759.039	12.51
759.218	10.99
759.397	11.1
759.576	10.6
759.755	11.48
759.934	10.87
760.113	9.97
760.291	10.15
760.47	9.99
760.649	8.47
760.828	10.04
761.007	9.32
761.186	9.69
761.364	10.73
761.543	9.72
761.722	9.2
761.901	9.55
762.079	10.03
762.258	10.39
762.437	12.11
762.615	11.77
762.794	11.56
762.972	11.93
763.151	12.08
763.33	11.85
763.508	12.83
763.687	13.11
763.865	13.53
764.044	13.72
764.222	13.46
764.401	12.66
764.579	13.69
764.758	14.01
764.936	15.12
765.114	14.88
765.293	15.96
765.471	15.41
765.65	15.12
765.828	15.48
766.006	15.25
766.184	14.67
766.363	14.37
766.541	14.1
766.719	13.02
766.898	10.91
767.076	11.12
767.254	9.2
767.432	10.13
767.61	10.78
767.788	9.68
767.967	9.63
768.145	10.52
768.323	12.19
768.501	10.64
768.679	10.15
768.857	10.52
769.035	10.46
769.213	10.82
769.391	9.91
769.569	7.07
769.747	7.13
769.925	7.76
770.103	8.93
770.281	6.83
770.459	7.07
770.636	9.02
770.814	9.39
770.992	9.18
771.17	9.33
771.348	10.51
771.525	11.41
771.703	11.38
771.881	11.41
772.059	9.64
772.236	11.52
772.414	13.22
772.592	12.09
772.769	11.11
772.947	12.27
773.125	12.38
773.302	10.11
773.48	11.57
773.657	10.62
773.835	11.19
774.013	11.82
774.19	11.08
774.368	9.81
774.545	8.19
774.723	7.67
774.9	6.98
775.077	5.7
775.255	6.07
775.432	6.95
775.61	9.57
775.787	8.07
775.964	9.57
776.142	7.26
776.319	6.92
776.496	10.8
776.674	10.9
776.851	9.95
777.028	9.01
777.205	9.58
777.382	5.7
777.56	2.72
777.737	2.84
777.914	3.69
778.091	3.92
778.268	4.37
778.445	3.75
778.622	7.05
778.8	8.76
778.977	10
779.154	9.44
779.331	14.42
779.508	13.89
779.685	15.61
779.862	14.4
780.038	16.34
780.215	16.45
780.392	16.28
780.569	15.35
780.746	13.35
780.923	13.96
781.1	13.38
781.277	10.17
781.453	12.48
781.63	10.87
781.807	11.26
781.984	11.57
782.16	13.19
782.337	11.31
782.514	9.08
782.691	10.16
782.867	10.04
783.044	12.18
783.221	12.9
783.397	11.21
783.574	10.27
783.75	11.87
783.927	12.73
784.103	11.93
784.28	10.89
784.456	13.98
784.633	12.07
784.809	12.87
784.986	10.55
785.162	9.86
785.339	11.49
785.515	12.8
785.692	10.03
785.868	6.04
786.044	6.31
786.221	9.22
786.397	5.91
786.573	8.11
786.749	6.91
786.926	7.71
787.102	7.24
787.278	4.41
787.454	1.89
787.631	1.88
787.807	4.47
787.983	2.39
788.159	4.76
788.335	4.55
788.511	3.22
788.687	5.83
788.863	7.5
789.039	7.87
789.216	10.26
789.392	10.18
789.568	9.28
789.744	8.72
789.919	11.11
790.095	8.71
790.271	10.18
790.447	11.6
790.623	8.92
790.799	7.48
790.975	4.38
791.151	3.94
791.327	7.79
791.502	9.48
791.678	7.63
791.854	8.53
792.03	8.33
792.205	9.17
792.381	9
792.557	9.64
792.733	8.96
792.908	11.85
793.084	11.91
793.259	11.9
793.435	10.15
793.611	9.5
793.786	7.24
793.962	7.99
794.137	8.51
794.313	5.8
794.488	4.14
794.664	6.91
794.839	9.89
795.015	7.62
795.19	5.84
795.366	4.73
795.541	5.78
795.716	5.78
795.892	3.78
796.067	1.95
796.242	4.42
796.418	4.69
796.593	1.24
796.768	-3.08
796.944	0.06
797.119	1.83
797.294	3.67
797.469	3.47
797.644	4.35
797.82	5.5
797.995	3.05
798.17	4.54
798.345	5.71
798.52	6.6
798.695	6.28
798.87	6.3
799.045	5.28
799.22	5.97
799.395	5.97
799.57	3.17
799.745	0.68
799.92	2.77
800.095	5.62
800.27	3.67
800.445	4.54
800.62	8.03
800.795	4.29
800.97	3.79
801.145	2.44
801.319	4.92
801.494	6.74
801.669	8.55
801.844	8.18
802.018	3.2
802.193	5.21
802.368	-1.09
802.543	-0.71
802.717	4.13
802.892	2.72
803.067	2.04
803.241	1.92
803.416	2.09
803.59	1.25
803.765	2.92
803.94	0.6
804.114	-2.46
804.289	7.05
804.463	5.48
804.638	3.17
804.812	2.66
804.986	3.97
805.161	1.15
805.335	0.33
805.51	1.99
805.684	-0.15
805.858	4.04
806.033	5.01
806.207	0.78
806.381	0.66
806.556	3.48
806.73	4.49
806.904	4.05
807.078	4.72
807.253	6.61
807.427	7.65
807.601	11.17
807.775	10.77
807.949	11.64
808.123	11.54
808.298	10.78
808.472	6.45
808.646	7.15
808.82	5.79
808.994	5.86
809.168	2.09
809.342	1.9
809.516	2.71
809.69	1.66
809.864	3.18
810.038	3.01
810.212	3.37
810.385	3.99
810.559	8.13
810.733	13.77
810.907	14.28
811.081	12.37
811.255	14.79
811.428	11.58
811.602	13.57
811.776	12.4
811.95	14
812.123	12.84
812.297	7.63
812.471	6.31
812.644	-3.21
812.818	-1.06
812.992	-1.38
813.165	-7.25
813.339	-5.65
813.512	-11.44
813.686	-6.75
813.86	-3.56
814.033	-3.11
814.207	4.67
814.38	0.42
814.554	9.41
814.727	10.93
814.9	13.79
815.074	14.02
815.247	10.13
815.421	10.95
815.594	8.25
815.767	3.7
815.941	8.79
816.114	5.92
816.287	9.67
816.46	4.78
816.634	0.18
816.807	1.55
816.98	5.63
817.153	12.44
817.327	16.5
817.5	19.14
817.673	21.86
817.846	19.32
818.019	24.43
818.192	25.05
818.365	21.94
818.538	20.85
818.711	19.36
818.884	18.96
819.057	18.35
819.23	16.36
819.403	14.15
819.576	12.44
819.749	10.16
819.922	6.63
820.095	4.84
820.268	11.47
820.441	12.61
820.614	14.67
820.786	12.29
820.959	13.2
821.132	14.63
821.305	14.35
821.477	15.61
821.65	16.14
821.823	16.51
821.996	16.34
822.168	15.16
822.341	14.78
822.514	15.34
822.686	14.75
822.859	14.25
823.031	13.34
823.204	13.02
823.376	12.91
823.549	12.95
823.722	12.96
823.894	13.44
824.067	13.04
824.239	13.49
824.411	12.15
824.584	13.54
824.756	13.03
824.929	13.79
825.101	15.16
825.273	14.54
825.446	13.88
825.618	13.2
825.79	11.99
825.963	13.16
826.135	12.32
826.307	15.11
826.479	13.4
826.652	13.64
826.824	15.14
826.996	15.13
827.168	14.69
827.34	14.72
827.512	16.19
827.684	16.92
827.856	14.97
828.029	16.05
828.201	14.28
828.373	14.67
828.545	14.99
828.717	13.12
828.889	12.03
829.061	13.64
829.232	15
829.404	13.7
829.576	10.46
829.748	12.3
829.92	10.62
830.092	10.05
830.264	8.36
830.436	6.88
830.607	4.32
830.779	-0.21
830.951	-0.47
831.123	-3.85
831.294	-4.44
831.466	-1.28
831.638	-4.03
831.809	-5.27
831.981	-3.88
832.153	0.87
832.324	-0.41
832.496	1.53
832.667	1.72
832.839	0.18
833.011	4.66
833.182	3.28
833.354	5.31
833.525	12.23
833.697	10.14
833.868	8.83
834.039	6.94
834.211	10.02
834.382	12.06
834.554	12.87
834.725	12.32
834.896	9.72
835.068	9.34
835.239	10.59
835.41	5.97
835.581	8.41
835.753	8.95
835.924	8.89
836.095	8.3
836.266	5.88
836.438	8.15
836.609	6.71
836.78	11.84
836.951	15.26
837.122	11.66
837.293	13.45
837.464	17.4
837.635	17.6
837.806	17.86
837.977	18.6
838.148	20.63
838.319	17.05
838.49	21.77
838.661	14.19
838.832	16.04
839.003	22.12
839.174	18.4
839.345	16.31
839.516	13.54
839.687	16.14
839.857	9.31
840.028	7.21
840.199	13.63
840.37	7.9
840.54	15.47
840.711	6.28
840.882	6.28
841.053	8.3
841.223	7.61
841.394	6.03
841.564	3.25
841.735	5.69
841.906	12.35
842.076	8.84
842.247	3.86
842.417	-1.13
842.588	-2
842.758	-9.69
842.929	-14.01
843.099	-17.43
843.27	-14.17
843.44	-16.33
843.611	-13.24
843.781	-34.76
843.951	-38.57
844.122	-23.75
844.292	-23.2
844.462	-16.52
844.633	-20.8
844.803	-21.05
844.973	-27.95
845.144	-24.29
845.314	-13.63
845.484	-20.43
845.654	-6.02
845.824	-8.88
845.995	-23.47
846.165	-29.21
846.335	-41.2
846.505	-23.8
846.675	-31.5
846.845	-25.6
847.015	-38.66
847.185	-60.97
847.355	-54.42
847.525	-53.58
847.695	-49.82
847.865	-38.12
848.035	-18.7
848.205	-21.77
848.375	-79.13
848.545	-87.9
848.715	-52.48
848.884	-42.24
849.054	-57.63
849.224	-64.69
849.394	-75.8
849.564	-67.75
849.733	-99.83
849.903	-90.68
850.073	-89.9
850.243	-38.32
850.412	-12.88
850.582	-33.58
850.752	-36.19
850.921	-23.34
851.091	-28.6
851.26	-45.62
851.43	-57.02
851.599	-36.83
851.769	-65.95
851.939	-72.42
852.108	-74.94
852.278	-155.73
852.447	-193.08
852.616	-161.88
852.786	-147.98
852.955	-163.59
853.125	-139.16
853.294	-115.5
853.463	-143.81
853.633	-55.6
853.802	-12.94
853.971	-27.08
854.141	1.18
854.31	23.78
854.479	12.89
854.648	2.86
854.818	6.07
854.987	-7.91
855.156	-3.26
855.325	-3.85
855.494	-22.47
855.663	-27.63
855.832	-36.8
856.001	-32.29
856.171	-35.69
856.34	-48.27
856.509	-70.86
856.678	-56.76
856.847	-56
857.016	-63.23
857.185	-51.11
857.353	-28.46
857.522	-41.4
857.691	-23.39
857.86	-31.14
858.029	-76.57
858.198	-73.79
858.367	-79.87
858.535	-103.07
858.704	-71.32
858.873	-82.68
859.042	-65.12
859.21	-83.44
859.379	-75.53
859.548	-114.04
859.717	-110.66
859.885	-111.07
860.054	-94.76
860.222	-99.97
860.391	-114.65
860.56	-114.78
860.728	-103.06
860.897	-102.81
861.065	-94.45
861.234	-90.54
861.402	-53.91
861.571	-54.4
861.739	-24.95
861.908	-0.44
862.076	8.51
862.244	9.74
862.413	3.19
862.581	-39.88
862.749	-102.67
862.918	-65.32
863.086	-39.27
863.254	-71.42
863.423	-85.24
863.591	-85.58
863.759	-196.92
863.927	-209.29
864.096	-182.27
864.264	-117.12
864.432	-25.42
864.6	-10.34
864.768	3.95
864.936	-37.28
865.104	-19.42
865.272	-4.45
865.44	4.13
865.608	-8.83
865.776	-7.78
865.944	0.84
866.112	-18.34
866.28	-49.36
866.448	-50.49
866.616	-65.53
866.784	-40.72
866.952	-73.27
867.12	-123.77
867.288	-86.36
867.455	-100.36
867.623	-106.28
867.791	-99.18
867.959	-42.76
868.127	-23.79
868.294	-57.87
868.462	-80.2
868.63	-76.11
868.797	-62.56
868.965	-58.48
869.133	-89.35
869.3	-47.15
869.468	-45.81
869.636	-59.61
869.803	-94.8
869.971	-109.38
870.138	-72.6
870.306	-124.09
870.473	-129.53
870.641	-109.73
870.808	-94.73
870.975	-71.14
871.143	-84.4
871.31	-72.44
871.478	-89.86
871.645	-64.98
871.812	-61.37
871.98	-43.99
872.147	-12.18
872.314	-9.93
872.482	-10.57
872.649	-19.51
872.816	-36.96
872.983	-44.01
873.15	-52.86
873.318	-28.9
873.485	-29.64
873.652	-12.58
873.819	-47.06
873.986	-51.4
874.153	-32.13
874.32	-58.2
874.487	-58.58
874.654	-28.32
874.821	-20.4
874.988	-7.3
875.155	-6.51
875.322	-13.02
875.489	-32.9
875.656	-14.09
875.823	-33.75
875.99	-71.29
876.157	-49.23
876.324	-59.75
876.49	-59.51
876.657	-79.64
876.824	-118.06
876.991	-98.33
877.157	-76.21
877.324	-23.21
877.491	-29.01
877.658	4.55
877.824	12.76
877.991	29.42
878.157	41.71
878.324	25.47
878.491	23.03
878.657	8.29
878.824	4.73
878.99	5.77
879.157	-9.66
879.323	-27.13
879.49	-32.68
879.656	-48.59
879.823	-64.38
879.989	-47.71
880.156	-50.6
880.322	-50.17
880.488	-60.7
880.655	-64.38
880.821	-100.58
880.987	-100.54
881.154	-77.81
881.32	-70.04
881.486	-60.23
881.652	-37.52
881.819	-37.37
881.985	-25.76
882.151	-16.79
882.317	-3.29
882.483	2.46
882.649	7.17
882.816	12.2
882.982	14.67
883.148	17.45
883.314	18.08
883.48	17.77
883.646	18.56
883.812	19.6
883.978	17.56
884.144	15.12
884.31	12.97
884.476	11.27
884.642	11.77
884.807	11.27
884.973	9.2
885.139	8.92
885.305	8.39
885.471	10.4
885.637	9.72
885.802	7.88
885.968	7.97
886.134	5.64
886.3	11.03
886.465	4.79
886.631	4.79
886.797	-3.02
886.962	-0.85
887.128	-1.9
887.293	-15.85
887.459	-13.27
887.625	-23.94
887.79	-25.33
887.956	-13.81
888.121	-27.4
888.287	-26.56
888.452	-29.07
888.618	-17.7
888.783	-15.47
