Data from 2938038_Reflection_1.txt Node
Date: Sun Jul 12 14:44:06 EDT 2015
User: robert
Spectrometer: USB4E03001
Autoset integration time: false
Trigger mode: 4
Integration Time (sec): 1.000000E-1
Scans to average: 10
Electric dark correction enabled: true
Nonlinearity correction enabled: false
Boxcar width: 5
Stray light correction enabled: false
XAxis mode: Wavelengths
Stop averaging: false
Number of Pixels in Spectrum: 3648
>>>>>Begin Spectral Data<<<<<
177.566	168.4
177.785	269.01
178.005	-603.33
178.225	-3.08
178.445	-31.9
178.665	47.54
178.885	124.62
179.105	-693.02
179.324	419.48
179.544	654.13
179.764	54.75
179.984	70.81
180.204	120.14
180.423	36.8
180.643	135.65
180.863	115.93
181.083	125.43
181.302	183.73
181.522	179.18
181.742	149.02
181.961	142.35
182.181	122.98
182.401	99.62
182.621	74.2
182.84	89.78
183.06	82.53
183.279	95.07
183.499	89.48
183.719	79.28
183.938	76.21
184.158	60.88
184.377	60.51
184.597	90.73
184.816	114.03
185.036	203.32
185.256	325.37
185.475	229.74
185.695	178.84
185.914	181.5
186.134	162.96
186.353	127.51
186.572	130.32
186.792	147.29
187.011	106.13
187.231	133.25
187.45	209.21
187.67	191.08
187.889	169.92
188.108	105.85
188.328	78.07
188.547	97.08
188.766	123.12
188.986	128.01
189.205	101.9
189.424	112.54
189.644	137.25
189.863	62.27
190.082	54.49
190.302	79.08
190.521	81.01
190.74	86.48
190.959	85.66
191.178	74.04
191.398	80.78
191.617	89.36
191.836	77.8
192.055	54.98
192.274	46.16
192.494	39.98
192.713	20.05
192.932	-26.71
193.151	1.38
193.37	-42.9
193.589	12.12
193.808	10.03
194.027	32.75
194.246	36.73
194.465	41.35
194.685	54.38
194.904	50.37
195.123	46.01
195.342	69.75
195.561	92.74
195.78	94.02
195.999	89.45
196.218	96.43
196.436	58.19
196.655	136.32
196.874	64.99
197.093	39.24
197.312	81.79
197.531	104.39
197.75	92.87
197.969	89.04
198.188	58.07
198.407	71.11
198.625	58.55
198.844	82.68
199.063	61.26
199.282	82.49
199.501	110.89
199.719	86.11
199.938	69.07
200.157	54.55
200.376	40.25
200.594	61.17
200.813	37.74
201.032	40.98
201.251	62.39
201.469	32.56
201.688	28.95
201.907	46.52
202.125	5.7
202.344	-911.51
202.563	22.51
202.781	168.57
203	278.82
203.218	361.23
203.437	201.2
203.656	119.76
203.874	217.43
204.093	206.74
204.311	189.59
204.53	176.1
204.748	278.62
204.967	519.71
205.185	274.04
205.404	230.32
205.622	140.77
205.841	116.77
206.059	144.54
206.278	78.45
206.496	90.45
206.715	84.57
206.933	92.49
207.151	68.96
207.37	70.61
207.588	96.55
207.806	112.93
208.025	107.78
208.243	139.65
208.461	115.54
208.68	117.01
208.898	139.89
209.116	166.79
209.335	286.01
209.553	156.12
209.771	162.59
209.989	164.76
210.208	268.38
210.426	434
210.644	202.64
210.862	310.9
211.081	178.14
211.299	118.19
211.517	109.44
211.735	79.68
211.953	95.61
212.171	7.62
212.39	34.67
212.608	53.2
212.826	62.85
213.044	72.58
213.262	106.06
213.48	99.63
213.698	74.38
213.916	77.17
214.134	101.28
214.352	81.25
214.57	87.42
214.788	85.59
215.006	97.02
215.224	81.7
215.442	67.24
215.66	63.33
215.878	70.45
216.096	90.58
216.314	95.18
216.532	62
216.75	77.6
216.968	70.94
217.185	64.71
217.403	46.45
217.621	41.82
217.839	42.57
218.057	42.56
218.275	30.01
218.492	19.86
218.71	16.71
218.928	13.89
219.146	1.61
219.363	18.15
219.581	12.84
219.799	29.13
220.017	37.89
220.234	35.46
220.452	44.3
220.67	41.25
220.887	31.1
221.105	20.91
221.323	31.47
221.54	53.78
221.758	43.92
221.976	50.42
222.193	37.2
222.411	38.49
222.629	44.74
222.846	24.25
223.064	25.99
223.281	35.97
223.499	43.54
223.716	37.11
223.934	26.65
224.151	19.54
224.369	16.2
224.586	41.26
224.804	9.35
225.021	-14.25
225.239	-5.52
225.456	24.15
225.674	40.27
225.891	49.93
226.108	31.94
226.326	21.28
226.543	16.51
226.76	23.69
226.978	14.23
227.195	24.04
227.413	21.02
227.63	16.14
227.847	15.27
228.064	10.05
228.282	13.71
228.499	16.27
228.716	12.81
228.934	15.67
229.151	11.4
229.368	10.13
229.585	7.94
229.802	10.64
230.02	10.85
230.237	9.8
230.454	12.14
230.671	9.94
230.888	8.88
231.105	9.25
231.323	7.49
231.54	8.39
231.757	10.87
231.974	12.65
232.191	13.96
232.408	14.55
232.625	16.28
232.842	13.23
233.059	10.65
233.276	6.28
233.493	11.18
233.71	9.62
233.927	16.52
234.144	19.67
234.361	18.97
234.578	15.99
234.795	19.76
235.012	18.9
235.229	24.74
235.446	23.42
235.663	26.87
235.879	24.79
236.096	26.04
236.313	24.96
236.53	22.71
236.747	25.16
236.964	32.27
237.181	28.2
237.397	25.96
237.614	25.77
237.831	29.48
238.048	32.27
238.264	33.32
238.481	34.15
238.698	33.89
238.915	36.8
239.131	34.38
239.348	30.59
239.565	30.09
239.781	31.43
239.998	24.3
240.215	23.65
240.431	22.22
240.648	18.06
240.865	18.99
241.081	16.76
241.298	13.34
241.514	12.39
241.731	9.97
241.947	10.88
242.164	10.24
242.38	11.8
242.597	10.37
242.814	11.71
243.03	10.95
243.246	11.28
243.463	11.61
243.679	13.8
243.896	13.69
244.112	14.62
244.329	14.28
244.545	14.31
244.762	13.71
244.978	13.78
245.194	11.69
245.411	15.91
245.627	15.03
245.843	16.73
246.06	13.1
246.276	13.91
246.492	13.33
246.709	14.5
246.925	15.17
247.141	14.58
247.357	13.95
247.574	13.47
247.79	12.34
248.006	11.61
248.222	10.81
248.439	10.92
248.655	10.59
248.871	10.94
249.087	9.95
249.303	7.02
249.519	6.67
249.736	7.79
249.952	6.65
250.168	6.89
250.384	5.95
250.6	5.69
250.816	6.36
251.032	6.11
251.248	6.96
251.464	6.04
251.68	10.59
251.896	10.33
252.112	9.87
252.328	9.78
252.544	9.76
252.76	9.31
252.976	10.04
253.192	9.33
253.408	10.34
253.624	8.42
253.84	9.99
254.056	6.91
254.272	7.79
254.487	6.55
254.703	9.5
254.919	11.07
255.135	14.48
255.351	13
255.567	16.38
255.782	14.7
255.998	14.86
256.214	12.59
256.43	16.7
256.646	17.19
256.861	16.98
257.077	15.56
257.293	13.91
257.508	10.91
257.724	11.64
257.94	9.7
258.155	9.58
258.371	10.01
258.587	10.59
258.802	9.92
259.018	9.15
259.234	10.24
259.449	10.05
259.665	9.96
259.88	10.94
260.096	10.85
260.312	10.52
260.527	9.69
260.743	9.17
260.958	8.74
261.174	9.02
261.389	9.02
261.605	8.62
261.82	9.25
262.036	9.77
262.251	8.71
262.466	9.21
262.682	10.36
262.897	9.83
263.113	12.51
263.328	12.11
263.543	9.54
263.759	9.87
263.974	8.65
264.189	8.49
264.405	5.38
264.62	8.12
264.835	7.52
265.051	7.04
265.266	9.83
265.481	7.36
265.696	9.13
265.912	10.3
266.127	9.87
266.342	9.36
266.557	9.23
266.773	11.14
266.988	10.22
267.203	9
267.418	9.72
267.633	9.32
267.848	8.48
268.064	7.65
268.279	6.8
268.494	6.85
268.709	7.75
268.924	6.83
269.139	6.37
269.354	5.37
269.569	5.43
269.784	6.23
269.999	6.04
270.214	6.16
270.429	7.84
270.644	8.25
270.859	7.42
271.074	6.98
271.289	5.89
271.504	6.03
271.719	5.6
271.934	6.47
272.149	4.99
272.363	6.24
272.578	6.17
272.793	5.3
273.008	5.24
273.223	5.96
273.438	6.08
273.653	5.68
273.867	6.55
274.082	6.87
274.297	6.45
274.512	5.77
274.726	4.88
274.941	5.23
275.156	4.98
275.371	4.07
275.585	4.32
275.8	5.23
276.015	4.6
276.229	5.1
276.444	6.04
276.659	4.56
276.873	7.02
277.088	7.15
277.302	9.27
277.517	9.33
277.732	10.59
277.946	9.53
278.161	9.02
278.375	12.28
278.59	9.93
278.804	9.64
279.019	9.48
279.233	8.69
279.448	7.82
279.662	6.52
279.877	7.38
280.091	7.69
280.306	8.78
280.52	8.19
280.735	7.29
280.949	9.37
281.163	8.55
281.378	9.14
281.592	9.53
281.806	10.72
282.021	11.49
282.235	9.7
282.449	11.15
282.664	11.56
282.878	11.94
283.092	11.71
283.307	12.21
283.521	12.82
283.735	13.28
283.949	12.9
284.164	12.09
284.378	10.69
284.592	11.79
284.806	10.51
285.02	9.68
285.234	10.06
285.449	10.4
285.663	9.04
285.877	9.02
286.091	9.43
286.305	9.33
286.519	8.45
286.733	7.63
286.947	7.36
287.161	7.6
287.375	7.54
287.589	6.71
287.803	7.1
288.017	7.29
288.231	6.75
288.445	5.87
288.659	5.33
288.873	7.71
289.087	8.62
289.301	8.45
289.515	8.33
289.729	9.38
289.943	9.28
290.157	8.98
290.371	7.91
290.584	8.95
290.798	9.59
291.012	10.96
291.226	10.66
291.44	12.67
291.654	12.88
291.867	13.57
292.081	12.78
292.295	13.67
292.509	13.08
292.722	14.73
292.936	15.13
293.15	14.92
293.364	14.3
293.577	13.82
293.791	11.53
294.005	12.87
294.218	13
294.432	13.5
294.645	13.46
294.859	14.51
295.073	14.89
295.286	15.16
295.5	15.91
295.713	15.94
295.927	15.05
296.14	15.29
296.354	14.55
296.568	13.2
296.781	12.98
296.994	12.95
297.208	11.79
297.421	12.24
297.635	12.19
297.848	12.3
298.062	12.13
298.275	12.4
298.489	13.14
298.702	12.94
298.915	13.84
299.129	13.55
299.342	13.75
299.555	15.39
299.769	14.14
299.982	13.26
300.195	12.64
300.409	12.81
300.622	14.04
300.835	12.43
301.048	13.46
301.262	14.16
301.475	15.88
301.688	16.14
301.901	16.26
302.115	16.86
302.328	16.91
302.541	18.07
302.754	17.67
302.967	17.4
303.18	19.81
303.393	20.48
303.607	19.71
303.82	18.92
304.033	18.3
304.246	17.57
304.459	18.14
304.672	17.93
304.885	18.94
305.098	19.74
305.311	19.95
305.524	20.06
305.737	19.1
305.95	18.42
306.163	19.33
306.376	19.51
306.589	20.01
306.802	19.26
307.015	18.92
307.228	17.34
307.44	15.94
307.653	15.5
307.866	13.89
308.079	13.99
308.292	16.51
308.505	14.34
308.718	14.89
308.93	15.05
309.143	16.68
309.356	18.01
309.569	17.15
309.781	16.93
309.994	17.07
310.207	17.47
310.42	17.21
310.632	16.81
310.845	17.7
311.058	16.93
311.27	16.16
311.483	16.27
311.696	15.08
311.908	15.41
312.121	15.46
312.333	15.17
312.546	14.91
312.759	14.83
312.971	12.38
313.184	12.89
313.396	14.62
313.609	15.32
313.821	13.79
314.034	14.15
314.246	16.29
314.459	17.29
314.671	17.19
314.884	18.09
315.096	18.89
315.309	19.32
315.521	18.92
315.733	18.67
315.946	18.85
316.158	18.78
316.371	20.15
316.583	17.56
316.795	17.91
317.008	17.89
317.22	16.91
317.432	15.89
317.644	17.45
317.857	16.64
318.069	16.89
318.281	16.21
318.494	17.15
318.706	16.35
318.918	16.9
319.13	16.94
319.342	18.54
319.555	18.68
319.767	19.84
319.979	19.49
320.191	21.2
320.403	20.86
320.615	21.96
320.827	22.19
321.039	21.09
321.252	22.73
321.464	23.93
321.676	22.59
321.888	21.94
322.1	22.04
322.312	21.41
322.524	20.87
322.736	20.25
322.948	18.82
323.16	17.95
323.372	17.52
323.584	16.8
323.796	16
324.007	15.7
324.219	16.11
324.431	14.59
324.643	15.04
324.855	14.23
325.067	13.3
325.279	14.37
325.491	15.03
325.702	15.88
325.914	15.06
326.126	14.21
326.338	15.11
326.55	15.01
326.761	16.67
326.973	17.33
327.185	16.77
327.396	16.95
327.608	16.26
327.82	14.97
328.032	15
328.243	16.38
328.455	16.7
328.666	15.49
328.878	17.25
329.09	15.71
329.301	14.82
329.513	16.85
329.725	17.97
329.936	18.33
330.148	19.58
330.359	19.59
330.571	17.73
330.782	16.93
330.994	17.13
331.205	15.87
331.417	15.86
331.628	15.31
331.84	13.97
332.051	13.25
332.262	12.07
332.474	11.37
332.685	11.16
332.897	11.61
333.108	12.54
333.319	14.24
333.531	13.78
333.742	15.22
333.953	17.35
334.165	17.15
334.376	17.69
334.587	19.14
334.799	19.05
335.01	20.57
335.221	21.25
335.432	21.86
335.644	19.98
335.855	20.62
336.066	20.1
336.277	18.69
336.488	18.92
336.7	19.33
336.911	18.4
337.122	18.24
337.333	18.05
337.544	17.1
337.755	16.18
337.966	18.1
338.177	17.29
338.388	17.53
338.599	18.33
338.811	19.08
339.022	20.09
339.233	21.32
339.444	21.62
339.655	21.14
339.866	21.46
340.076	21.67
340.287	20.94
340.498	21.67
340.709	22.66
340.92	23.08
341.131	23.15
341.342	21.59
341.553	20.31
341.764	20.91
341.975	19.75
342.185	20.4
342.396	19.37
342.607	20.85
342.818	20.59
343.029	19.96
343.239	20.04
343.45	18.7
343.661	19.57
343.872	19.57
344.082	18.11
344.293	19.71
344.504	18.32
344.714	18.24
344.925	17.05
345.136	16.99
345.346	16.51
345.557	16.07
345.768	16.96
345.978	15.43
346.189	16.82
346.399	17.06
346.61	15.89
346.821	17.37
347.031	19.29
347.242	18.32
347.452	18.75
347.663	19.14
347.873	18.91
348.084	19.53
348.294	20.64
348.504	20.21
348.715	21.61
348.925	23.19
349.136	22.86
349.346	21.83
349.557	22.43
349.767	23.59
349.977	21.85
350.188	21.65
350.398	21.23
350.608	21.83
350.819	21.23
351.029	19.75
351.239	19.57
351.449	18.85
351.66	19.68
351.87	19.98
352.08	18.64
352.29	19.68
352.501	20.22
352.711	19.35
352.921	17.82
353.131	18.01
353.341	18.44
353.552	17.34
353.762	18.58
353.972	18.25
354.182	17.87
354.392	17.25
354.602	17.26
354.812	17.05
355.022	18.45
355.232	19.9
355.442	19.62
355.652	19.72
355.862	20.23
356.072	19.89
356.282	19.67
356.492	20.18
356.702	20.86
356.912	20.93
357.122	20.44
357.332	20.23
357.542	20.07
357.752	20.35
357.962	20.58
358.171	20.11
358.381	19.92
358.591	19.94
358.801	20.18
359.011	20.47
359.221	20.32
359.43	20.17
359.64	19.71
359.85	19.07
360.06	19.41
360.269	19.37
360.479	19.13
360.689	18.61
360.899	17.78
361.108	17.11
361.318	16.43
361.528	17.21
361.737	17.43
361.947	17.62
362.156	17.23
362.366	17.17
362.576	17.59
362.785	17.79
362.995	17.78
363.204	18.45
363.414	19.21
363.623	19.2
363.833	18.49
364.042	18.05
364.252	18.22
364.461	18.39
364.671	17.92
364.88	17.13
365.09	16.77
365.299	16.83
365.509	16.27
365.718	15.59
365.927	15.46
366.137	15.31
366.346	16.06
366.555	16.17
366.765	16.48
366.974	16.35
367.183	16.38
367.393	17.39
367.602	17.15
367.811	17.15
368.021	17.02
368.23	16.99
368.439	17.18
368.648	17.05
368.857	16.35
369.067	15.49
369.276	15.73
369.485	15.55
369.694	15.09
369.903	15.09
370.112	14.97
370.321	14.63
370.531	14.96
370.74	15.35
370.949	15.32
371.158	15.08
371.367	15.28
371.576	15.5
371.785	15.92
371.994	15.14
372.203	15.53
372.412	15.88
372.621	15.6
372.83	15.72
373.039	15.62
373.248	15.56
373.457	15.67
373.666	15.86
373.874	15.05
374.083	14.79
374.292	16.08
374.501	16.59
374.71	16.42
374.919	16.46
375.128	15.92
375.336	15.56
375.545	15.41
375.754	15.29
375.963	15.43
376.171	15.11
376.38	14.94
376.589	13.82
376.798	13.04
377.006	13.01
377.215	13.52
377.424	13.31
377.632	13.44
377.841	13.76
378.05	13.7
378.258	13.66
378.467	14.12
378.675	14.25
378.884	14.81
379.093	14.75
379.301	15.13
379.51	14.69
379.718	15
379.927	14.55
380.135	14.03
380.344	13.88
380.552	13.91
380.761	13.91
380.969	13.92
381.177	13.9
381.386	13.59
381.594	13.28
381.803	13.14
382.011	13.17
382.219	13.53
382.428	13.51
382.636	13.84
382.845	13.41
383.053	13.21
383.261	13.62
383.469	13.15
383.678	13.25
383.886	13.65
384.094	13.78
384.302	13.8
384.511	13.2
384.719	12.76
384.927	12.42
385.135	12.62
385.343	12.21
385.552	11.81
385.76	11.63
385.968	11.47
386.176	10.65
386.384	10.49
386.592	10.11
386.8	10.36
387.008	10.71
387.216	10.01
387.424	9.61
387.633	9.75
387.841	9.54
388.049	9.64
388.257	9.7
388.465	9.59
388.672	9.99
388.88	10.24
389.088	10.52
389.296	10.47
389.504	11.05
389.712	11.42
389.92	11.54
390.128	11.53
390.336	11.48
390.544	11.63
390.751	11.96
390.959	11.59
391.167	11.59
391.375	11.05
391.583	10.89
391.79	10.7
391.998	10.63
392.206	10.44
392.414	10.31
392.621	10.34
392.829	9.9
393.037	9.45
393.244	9.35
393.452	9.02
393.66	9.33
393.867	9.21
394.075	9.28
394.283	8.94
394.49	8.8
394.698	8.68
394.905	8.52
395.113	8.67
395.32	8.74
395.528	8.54
395.735	8.55
395.943	8.37
396.15	8.58
396.358	8.48
396.565	8.49
396.773	8.23
396.98	8.25
397.188	8.46
397.395	8.63
397.602	8.77
397.81	8.82
398.017	9.03
398.225	8.6
398.432	8.48
398.639	8.63
398.847	8.73
399.054	8.93
399.261	8.81
399.468	8.17
399.676	7.92
399.883	7.97
400.09	8.22
400.297	8.14
400.505	8.33
400.712	7.95
400.919	7.54
401.126	7.42
401.333	7.02
401.54	6.87
401.748	7.03
401.955	7.36
402.162	7.73
402.369	7.52
402.576	7.22
402.783	7.11
402.99	7.05
403.197	7.52
403.404	7.59
403.611	7.74
403.818	8.08
404.025	8.29
404.232	7.86
404.439	7.48
404.646	7.59
404.853	7.76
405.06	8.08
405.267	8.32
405.474	8.41
405.681	8.53
405.887	8.69
406.094	8.63
406.301	8.59
406.508	8.77
406.715	8.78
406.922	8.87
407.128	8.65
407.335	8.22
407.542	8.37
407.749	7.99
407.955	7.61
408.162	7.65
408.369	7.41
408.575	7.17
408.782	7.1
408.989	7.1
409.195	6.82
409.402	6.73
409.609	7.03
409.815	7.01
410.022	6.97
410.228	7.37
410.435	7.3
410.642	7.28
410.848	7.66
411.055	7.7
411.261	7.5
411.468	7.69
411.674	7.99
411.881	7.96
412.087	8.01
412.294	8.12
412.5	7.98
412.706	7.88
412.913	7.82
413.119	7.91
413.326	8.02
413.532	7.93
413.738	7.87
413.945	7.46
414.151	7.52
414.357	7.47
414.564	7.63
414.77	7.27
414.976	7.38
415.182	7.62
415.389	7.38
415.595	7.37
415.801	7.45
416.007	7.29
416.214	7.8
416.42	7.87
416.626	7.64
416.832	7.62
417.038	7.76
417.244	8.01
417.45	7.85
417.657	7.78
417.863	7.59
418.069	7.57
418.275	7.58
418.481	7.31
418.687	7.05
418.893	7.01
419.099	6.74
419.305	6.62
419.511	6.6
419.717	6.6
419.923	6.7
420.129	6.82
420.335	6.7
420.541	6.73
420.746	6.71
420.952	6.78
421.158	6.88
421.364	7.02
421.57	7.24
421.776	7.05
421.982	7.03
422.187	6.92
422.393	6.85
422.599	6.83
422.805	6.86
423.01	6.96
423.216	6.97
423.422	6.92
423.628	6.92
423.833	6.82
424.039	6.66
424.245	6.59
424.45	6.53
424.656	6.63
424.862	6.67
425.067	6.59
425.273	6.54
425.478	6.47
425.684	6.43
425.889	6.44
426.095	6.34
426.301	6.48
426.506	6.53
426.712	6.55
426.917	6.34
427.123	6.38
427.328	6.41
427.533	6.37
427.739	6.31
427.944	6.39
428.15	6.26
428.355	6.3
428.561	6.37
428.766	6.36
428.971	6.36
429.177	6.37
429.382	6.47
429.587	6.43
429.793	6.51
429.998	6.53
430.203	6.55
430.408	6.67
430.614	6.8
430.819	6.83
431.024	7.07
431.229	7.08
431.434	7.14
431.64	7.05
431.845	7.12
432.05	7.02
432.255	7.07
432.46	7.06
432.665	6.92
432.87	6.91
433.076	6.82
433.281	6.7
433.486	6.49
433.691	6.57
433.896	6.62
434.101	6.71
434.306	6.77
434.511	6.94
434.716	6.79
434.921	6.74
435.126	6.75
435.331	7.01
435.535	6.96
435.74	7.09
435.945	6.94
436.15	6.91
436.355	6.66
436.56	6.5
436.765	6.35
436.97	6.34
437.174	6.39
437.379	6.34
437.584	6.12
437.789	6.01
437.993	5.99
438.198	6.11
438.403	6
438.608	5.94
438.812	6.15
439.017	6.25
439.222	6.32
439.426	6.35
439.631	6.25
439.836	6.35
440.04	6.48
440.245	6.68
440.45	6.67
440.654	6.73
440.859	6.85
441.063	6.59
441.268	6.45
441.472	6.4
441.677	6.4
441.881	6.39
442.086	6.3
442.29	6.4
442.495	6.24
442.699	6.12
442.904	6.13
443.108	6.05
443.312	6.21
443.517	6.41
443.721	6.55
443.925	6.48
444.13	6.62
444.334	6.83
444.538	6.71
444.743	6.68
444.947	6.79
445.151	6.81
445.356	6.75
445.56	6.7
445.764	6.5
445.968	6.42
446.173	6.45
446.377	6.31
446.581	6.16
446.785	6.16
446.989	6.11
447.193	5.92
447.398	5.94
447.602	5.99
447.806	6.08
448.01	6.12
448.214	6.08
448.418	6
448.622	6.15
448.826	6
449.03	6.02
449.234	6.16
449.438	6.36
449.642	6.21
449.846	6.22
450.05	6.16
450.254	6.14
450.458	6.05
450.662	6.08
450.866	5.96
451.069	6.17
451.273	5.99
451.477	5.97
451.681	6.04
451.885	6.24
452.089	6.44
452.292	6.49
452.496	6.48
452.7	6.59
452.904	6.7
453.107	6.68
453.311	6.71
453.515	6.94
453.719	6.99
453.922	7.03
454.126	6.93
454.33	6.72
454.533	6.74
454.737	6.72
454.94	6.81
455.144	6.8
455.348	6.88
455.551	6.82
455.755	6.57
455.958	6.48
456.162	6.32
456.365	6.17
456.569	6.21
456.772	6.22
456.976	6.39
457.179	6.18
457.383	6.09
457.586	5.95
457.79	5.94
457.993	6.01
458.196	6.03
458.4	6
458.603	6.24
458.807	6.23
459.01	6.07
459.213	5.94
459.417	6.11
459.62	6.15
459.823	6.1
460.026	6.14
460.23	6.23
460.433	6.27
460.636	6.14
460.839	6.04
461.042	5.92
461.246	5.97
461.449	5.99
461.652	5.86
461.855	5.81
462.058	5.99
462.261	5.86
462.464	5.68
462.668	5.67
462.871	5.93
463.074	5.87
463.277	5.97
463.48	5.94
463.683	5.95
463.886	5.81
464.089	5.78
464.292	5.76
464.495	5.82
464.698	5.89
464.901	5.69
465.104	5.85
465.306	6.16
465.509	6.05
465.712	6.09
465.915	6.21
466.118	6.39
466.321	6.34
466.524	6.35
466.726	6.43
466.929	6.52
467.132	6.6
467.335	6.5
467.538	6.3
467.74	6.5
467.943	6.47
468.146	6.4
468.348	6.41
468.551	6.36
468.754	6.43
468.956	6.44
469.159	6.44
469.362	6.45
469.564	6.22
469.767	6.41
469.969	6.22
470.172	6.19
470.375	6.11
470.577	6.23
470.78	6.4
470.982	6.21
471.185	6.17
471.387	5.91
471.59	5.9
471.792	6.14
471.995	5.77
472.197	5.93
472.399	5.91
472.602	6.24
472.804	6.07
473.007	6.09
473.209	6.05
473.411	6.07
473.614	6.14
473.816	6.2
474.018	6.25
474.22	6.42
474.423	6.37
474.625	6.54
474.827	6.44
475.03	6.69
475.232	6.45
475.434	6.53
475.636	6.53
475.838	6.74
476.04	6.59
476.243	6.54
476.445	6.42
476.647	6.47
476.849	6.37
477.051	6.14
477.253	5.98
477.455	6.18
477.657	6.37
477.859	6.27
478.061	6.31
478.263	6.42
478.465	6.36
478.667	6.46
478.869	6.33
479.071	6.39
479.273	6.31
479.475	6.22
479.677	6.36
479.879	6.19
480.081	6.3
480.283	6.14
480.485	6.11
480.686	6.16
480.888	6.18
481.09	6.19
481.292	6.25
481.494	6.31
481.695	6.33
481.897	6.21
482.099	6.18
482.301	6.04
482.502	6.02
482.704	6
482.906	5.92
483.107	5.85
483.309	5.84
483.511	5.84
483.712	5.81
483.914	5.79
484.115	5.8
484.317	5.82
484.519	5.83
484.72	5.83
484.922	5.84
485.123	5.85
485.325	5.85
485.526	5.85
485.728	5.78
485.929	5.86
486.131	5.86
486.332	5.81
486.534	5.83
486.735	5.9
486.936	6
487.138	5.9
487.339	5.92
487.541	5.9
487.742	5.9
487.943	5.96
488.144	5.96
488.346	5.89
488.547	5.88
488.748	5.88
488.95	5.82
489.151	5.72
489.352	5.86
489.553	5.82
489.755	5.88
489.956	5.95
490.157	5.88
490.358	5.87
490.559	6.02
490.76	6.03
490.961	5.92
491.163	5.98
491.364	5.91
491.565	5.84
491.766	5.88
491.967	5.94
492.168	5.89
492.369	5.92
492.57	5.87
492.771	5.82
492.972	5.82
493.173	5.85
493.374	5.79
493.575	5.86
493.776	5.81
493.976	5.78
494.177	5.79
494.378	5.95
494.579	5.96
494.78	5.94
494.981	5.81
495.182	5.86
495.382	5.89
495.583	6.02
495.784	6.16
495.985	6.27
496.185	6.31
496.386	6.19
496.587	6.16
496.788	6.16
496.988	6.19
497.189	6.34
497.39	6.34
497.59	6.39
497.791	6.36
497.992	6.35
498.192	6.36
498.393	6.32
498.593	6.5
498.794	6.38
498.994	6.58
499.195	6.72
499.395	6.83
499.596	7.07
499.796	7.18
499.997	7.24
500.197	7.16
500.398	7.26
500.598	7.26
500.799	7.16
500.999	7.08
501.199	6.91
501.4	6.81
501.6	6.79
501.801	6.47
502.001	6.31
502.201	6.33
502.402	6.42
502.602	6.33
502.802	6.32
503.002	6.41
503.203	6.62
503.403	6.75
503.603	6.7
503.803	6.69
504.003	6.81
504.204	6.92
504.404	6.98
504.604	6.8
504.804	6.93
505.004	7.08
505.204	7.03
505.404	7.08
505.604	6.97
505.804	7
506.005	6.87
506.205	6.93
506.405	6.96
506.605	6.72
506.805	6.77
507.005	6.76
507.204	6.73
507.404	6.9
507.604	6.99
507.804	6.91
508.004	6.91
508.204	7.06
508.404	7.09
508.604	7.14
508.804	7.23
509.003	7.21
509.203	7.18
509.403	7.29
509.603	7.23
509.803	7.15
510.002	7.36
510.202	7.41
510.402	7.42
510.602	7.21
510.801	7.08
511.001	7.06
511.201	7.2
511.4	7.1
511.6	7.04
511.8	7.02
511.999	7
512.199	6.86
512.398	6.74
512.598	6.77
512.797	6.91
512.997	7
513.197	7.07
513.396	7.03
513.596	7.22
513.795	7.23
513.994	7.18
514.194	7.16
514.393	7.26
514.593	7.39
514.792	7.26
514.992	7.38
515.191	7.45
515.39	7.52
515.59	7.58
515.789	7.69
515.988	7.68
516.188	7.61
516.387	7.61
516.586	7.61
516.786	7.58
516.985	7.61
517.184	7.58
517.383	7.61
517.582	7.61
517.782	7.53
517.981	7.39
518.18	7.49
518.379	7.55
518.578	7.6
518.777	7.59
518.976	7.69
519.176	7.72
519.375	7.76
519.574	7.7
519.773	7.55
519.972	7.71
520.171	7.73
520.37	7.6
520.569	7.65
520.768	7.63
520.967	7.6
521.166	7.56
521.365	7.64
521.564	7.65
521.762	7.62
521.961	7.89
522.16	7.75
522.359	7.97
522.558	8.09
522.757	8
522.956	7.99
523.154	7.91
523.353	7.95
523.552	8
523.751	7.89
523.949	8.14
524.148	7.97
524.347	8.05
524.546	7.94
524.744	7.88
524.943	7.89
525.142	7.94
525.34	8.05
525.539	8.15
525.737	8.16
525.936	8.17
526.135	8.08
526.333	8.11
526.532	8.18
526.73	8.11
526.929	8.1
527.127	8.23
527.326	8.18
527.524	8.33
527.723	8.31
527.921	8.31
528.12	8.32
528.318	8.33
528.516	8.35
528.715	8.33
528.913	8.38
529.112	8.41
529.31	8.39
529.508	8.48
529.707	8.4
529.905	8.36
530.103	8.35
530.301	8.44
530.5	8.47
530.698	8.5
530.896	8.51
531.094	8.52
531.293	8.53
531.491	8.53
531.689	8.62
531.887	8.65
532.085	8.73
532.283	8.72
532.481	8.66
532.68	8.68
532.878	8.68
533.076	8.72
533.274	8.77
533.472	8.9
533.67	8.82
533.868	8.86
534.066	8.9
534.264	8.91
534.462	8.96
534.66	9.11
534.858	9.12
535.056	9.25
535.253	9.35
535.451	9.38
535.649	9.27
535.847	9.4
536.045	9.18
536.243	9.13
536.441	9.11
536.638	9.19
536.836	9.14
537.034	9.24
537.232	9.17
537.43	9.14
537.627	9.07
537.825	9.26
538.023	9.33
538.22	9.55
538.418	9.74
538.616	9.81
538.813	9.8
539.011	9.81
539.209	9.73
539.406	9.75
539.604	9.87
539.801	9.99
539.999	9.86
540.196	9.89
540.394	9.8
540.591	9.77
540.789	9.82
540.986	9.88
541.184	9.91
541.381	9.91
541.579	10
541.776	9.97
541.974	9.93
542.171	9.96
542.368	9.94
542.566	10.05
542.763	9.98
542.96	10.04
543.158	10.04
543.355	10.06
543.552	10.16
543.75	10.23
543.947	10.15
544.144	10.3
544.341	10.34
544.539	10.41
544.736	10.46
544.933	10.7
545.13	10.72
545.327	10.81
545.524	10.77
545.722	10.85
545.919	10.85
546.116	10.99
546.313	10.98
546.51	11
546.707	11.17
546.904	11.15
547.101	11.23
547.298	11.31
547.495	11.29
547.692	11.4
547.889	11.29
548.086	11.39
548.283	11.54
548.48	11.6
548.677	11.72
548.874	11.65
549.07	11.7
549.267	11.72
549.464	11.63
549.661	11.87
549.858	11.89
550.055	11.79
550.251	11.67
550.448	11.5
550.645	11.4
550.842	11.3
551.038	11.48
551.235	11.51
551.432	11.45
551.628	11.72
551.825	11.68
552.022	11.72
552.218	12.11
552.415	12.11
552.612	12.37
552.808	12.49
553.005	12.72
553.201	12.6
553.398	12.77
553.594	12.79
553.791	12.68
553.987	12.67
554.184	12.9
554.38	12.96
554.577	13.12
554.773	13.14
554.97	13.25
555.166	13.22
555.362	13.58
555.559	13.51
555.755	13.53
555.952	13.73
556.148	13.85
556.344	13.91
556.541	13.96
556.737	14.22
556.933	14.25
557.129	14.56
557.326	14.53
557.522	14.5
557.718	14.56
557.914	14.85
558.11	14.98
558.307	15.11
558.503	15.01
558.699	14.91
558.895	14.91
559.091	14.87
559.287	14.78
559.483	14.93
559.679	14.81
559.876	15
560.072	14.92
560.268	14.97
560.464	14.89
560.66	14.91
560.856	14.85
561.052	14.84
561.247	15.26
561.443	15.17
561.639	15.33
561.835	15.43
562.031	15.38
562.227	15.71
562.423	15.7
562.619	15.97
562.815	16.24
563.01	16.34
563.206	16.24
563.402	15.97
563.598	16.17
563.793	16.21
563.989	16.35
564.185	16.46
564.381	16.33
564.576	16.31
564.772	16.14
564.968	16.3
565.163	16.57
565.359	16.79
565.555	16.98
565.75	16.94
565.946	17.03
566.141	16.89
566.337	17.02
566.532	17.16
566.728	17.39
566.923	17.56
567.119	17.47
567.314	17.44
567.51	17.32
567.705	17.29
567.901	17.25
568.096	17.34
568.292	17.49
568.487	17.44
568.682	17.2
568.878	17.03
569.073	17.12
569.268	17.12
569.464	17.26
569.659	17.44
569.854	17.5
570.05	17.71
570.245	17.48
570.44	17.61
570.635	17.66
570.831	17.98
571.026	18.1
571.221	18.2
571.416	18.46
571.611	18.51
571.806	18.4
572.002	18.41
572.197	18.49
572.392	18.56
572.587	18.68
572.782	18.67
572.977	18.8
573.172	18.73
573.367	18.59
573.562	18.48
573.757	18.35
573.952	18.59
574.147	18.65
574.342	18.7
574.537	18.87
574.732	18.82
574.927	19.06
575.121	18.89
575.316	19.14
575.511	19.34
575.706	19.44
575.901	19.68
576.096	19.8
576.29	20.17
576.485	20.19
576.68	20.22
576.875	20.17
577.069	19.96
577.264	20.02
577.459	19.83
577.654	19.78
577.848	19.79
578.043	19.7
578.238	19.6
578.432	19.27
578.627	19.4
578.821	19.53
579.016	19.85
579.21	20.02
579.405	20.1
579.6	20.24
579.794	20.22
579.989	20.1
580.183	20.21
580.378	20.29
580.572	20.31
580.766	20.3
580.961	20.45
581.155	20.49
581.35	20.51
581.544	20.35
581.738	20.37
581.933	20.54
582.127	20.83
582.321	20.96
582.516	20.95
582.71	21.25
582.904	21.29
583.099	21.2
583.293	21.32
583.487	21.42
583.681	21.55
583.875	21.71
584.07	21.75
584.264	21.71
584.458	21.7
584.652	21.8
584.846	21.53
585.04	21.59
585.234	21.88
585.428	21.56
585.623	21.43
585.817	21.62
586.011	21.58
586.205	21.64
586.399	21.6
586.593	21.47
586.787	21.48
586.981	21.64
587.174	21.55
587.368	21.3
587.562	21.19
587.756	21.42
587.95	21.38
588.144	21.3
588.338	21.23
588.532	21.14
588.725	21.38
588.919	21.46
589.113	21.43
589.307	21.62
589.501	21.57
589.694	21.78
589.888	21.6
590.082	21.44
590.275	21.27
590.469	21.22
590.663	21.23
590.856	21.05
591.05	21.1
591.244	20.98
591.437	20.65
591.631	20.85
591.824	20.71
592.018	20.82
592.212	20.92
592.405	21.31
592.599	21.3
592.792	21.37
592.986	21.53
593.179	21.56
593.372	21.64
593.566	21.82
593.759	22.23
593.953	22.36
594.146	22.2
594.339	22.41
594.533	22.42
594.726	22.52
594.92	22.49
595.113	22.33
595.306	22.22
595.499	22.23
595.693	22.4
595.886	21.95
596.079	21.97
596.272	22.25
596.466	22.32
596.659	22.4
596.852	22.7
597.045	22.77
597.238	22.82
597.431	22.84
597.624	22.9
597.818	22.7
598.011	22.85
598.204	23.04
598.397	22.97
598.59	22.78
598.783	22.72
598.976	22.41
599.169	22.42
599.362	22.57
599.555	22.71
599.748	22.84
599.941	22.81
600.134	22.93
600.326	22.63
600.519	22.69
600.712	22.51
600.905	22.38
601.098	22.42
601.291	22.4
601.483	22.3
601.676	22.34
601.869	22.2
602.062	22.43
602.255	22.09
602.447	22.37
602.64	22.46
602.833	22.82
603.025	22.85
603.218	22.95
603.411	22.89
603.603	22.87
603.796	22.85
603.989	22.96
604.181	22.96
604.374	23.1
604.566	23.03
604.759	23.1
604.951	23.13
605.144	23.11
605.336	22.92
605.529	23.06
605.721	23.21
605.914	23.13
606.106	23.16
606.299	23.1
606.491	22.9
606.683	22.82
606.876	22.46
607.068	22.21
607.26	22.19
607.453	22.26
607.645	22.36
607.837	22.25
608.03	22.47
608.222	22.63
608.414	22.8
608.606	23.07
608.799	23.21
608.991	23.53
609.183	23.71
609.375	23.69
609.567	23.66
609.759	23.52
609.952	23.65
610.144	23.42
610.336	23.27
610.528	23.31
610.72	23.34
610.912	23.33
611.104	22.98
611.296	22.82
611.488	23.05
611.68	23.22
611.872	23.24
612.064	23.04
612.256	23.14
612.448	23.25
612.64	22.91
612.832	22.63
613.023	22.46
613.215	22.66
613.407	22.66
613.599	22.8
613.791	22.79
613.983	22.81
614.174	22.72
614.366	22.67
614.558	22.24
614.75	22.41
614.941	22.72
615.133	23.34
615.325	23.27
615.516	23.41
615.708	23.07
615.9	23.13
616.091	22.84
616.283	22.79
616.475	22.8
616.666	23.24
616.858	23.25
617.049	23.19
617.241	22.57
617.432	22.85
617.624	22.86
617.815	23.04
618.007	22.99
618.198	23.17
618.39	23.28
618.581	23.1
618.773	23.06
618.964	23.08
619.155	23.03
619.347	23.09
619.538	23
619.729	22.96
619.921	23.15
620.112	23.01
620.303	23.25
620.494	23.04
620.686	23.42
620.877	23.13
621.068	22.96
621.259	23.1
621.451	23.29
621.642	23.84
621.833	23.77
622.024	23.45
622.215	23.72
622.406	23.57
622.597	24.09
622.788	23.99
622.98	24.08
623.171	24.34
623.362	24.03
623.553	23.88
623.744	23.54
623.935	23.73
624.126	23.9
624.317	23.84
624.508	23.77
624.698	23.51
624.889	23.42
625.08	23.53
625.271	23.49
625.462	23.98
625.653	24.05
625.844	23.97
626.034	24.11
626.225	24.06
626.416	23.94
626.607	24.21
626.798	24.47
626.988	24.42
627.179	24.56
627.37	24.51
627.56	24.31
627.751	24.38
627.942	24.5
628.132	24.2
628.323	24.12
628.514	24.04
628.704	23.87
628.895	23.74
629.085	23.87
629.276	23.86
629.466	23.85
629.657	23.78
629.847	23.38
630.038	22.95
630.228	23.24
630.419	23.25
630.609	23.54
630.8	23.2
630.99	22.82
631.181	22.51
631.371	22.64
631.561	22.64
631.752	22.96
631.942	23.07
632.132	23.18
632.323	22.86
632.513	22.8
632.703	22.78
632.893	23.16
633.084	23.36
633.274	23.68
633.464	23.37
633.654	23.33
633.844	23.13
634.034	23.32
634.225	23.26
634.415	23.47
634.605	23.52
634.795	23.34
634.985	23.05
635.175	23.21
635.365	23.39
635.555	23.38
635.745	23.42
635.935	23.25
636.125	23.19
636.315	23.43
636.505	23.58
636.695	23.47
636.885	23.72
637.075	23.77
637.265	23.59
637.455	23.53
637.644	23.63
637.834	23.77
638.024	23.8
638.214	24
638.404	23.61
638.593	23.54
638.783	24.31
638.973	24.15
639.163	24.59
639.352	24.76
639.542	24.54
639.732	24.25
639.921	24.33
640.111	24.7
640.301	24.53
640.49	25.18
640.68	24.94
640.87	24.22
641.059	24.39
641.249	24.13
641.438	24.29
641.628	24.3
641.817	24.64
642.007	24.45
642.196	23.75
642.386	23.98
642.575	23.49
642.764	23.5
642.954	23.33
643.143	23.13
643.333	22.96
643.522	22.37
643.711	22.27
643.901	22.02
644.09	22.34
644.279	23.27
644.469	22.91
644.658	23.04
644.847	22.72
645.036	22.78
645.226	22.6
645.415	22.92
645.604	23.29
645.793	23.67
645.982	23.62
646.171	23.3
646.361	23.04
646.55	23
646.739	23.31
646.928	23.76
647.117	23.85
647.306	23.79
647.495	23.84
647.684	23.86
647.873	23.61
648.062	23.41
648.251	23.41
648.44	23.1
648.629	23.54
648.818	23.28
649.007	23.32
649.196	23.62
649.384	23.73
649.573	23.46
649.762	23
649.951	22.74
650.14	23.13
650.328	23.15
650.517	23.59
650.706	23.47
650.895	23.69
651.083	23.84
651.272	23.76
651.461	23.92
651.65	23.95
651.838	24.54
652.027	24.51
652.216	24.96
652.404	24.6
652.593	24.62
652.781	24.39
652.97	24.4
653.158	24.17
653.347	24.26
653.535	23.9
653.724	24.17
653.912	24.05
654.101	24.4
654.289	24.26
654.478	24.72
654.666	24.58
654.855	24.96
655.043	24.69
655.231	24.89
655.42	24.89
655.608	25.02
655.796	24.52
655.985	24.57
656.173	24.62
656.361	24.48
656.55	24.65
656.738	24.21
656.926	23.96
657.114	23.93
657.302	23.35
657.491	23.39
657.679	23.76
657.867	24.37
658.055	24.31
658.243	24.48
658.431	24.46
658.619	24.65
658.807	24.72
658.996	24.61
659.184	24.63
659.372	25.18
659.56	25.21
659.748	24.86
659.936	24.61
660.124	24.75
660.311	24.6
660.499	24.44
660.687	24.13
660.875	24.3
661.063	24.34
661.251	24.35
661.439	23.89
661.627	23.92
661.814	24.38
662.002	24.66
662.19	24.24
662.378	24.17
662.565	24.17
662.753	24.12
662.941	24.17
663.129	24.02
663.316	23.72
663.504	23.95
663.692	23.73
663.879	23.66
664.067	23.23
664.254	23.49
664.442	23.38
664.63	23.41
664.817	23.72
665.005	23.42
665.192	23.94
665.38	24.35
665.567	24.38
665.755	24.12
665.942	24.12
666.13	24.16
666.317	24.04
666.504	24.42
666.692	24.63
666.879	24.03
667.067	24.36
667.254	24.73
667.441	24.45
667.629	24.52
667.816	24.71
668.003	24.93
668.19	25.05
668.378	25.15
668.565	24.73
668.752	24.55
668.939	24.77
669.127	25.04
669.314	24.72
669.501	24.55
669.688	24.5
669.875	24.72
670.062	24.63
670.249	24.78
670.436	24.93
670.623	25.01
670.81	25.18
670.997	25.36
671.184	24.61
671.371	24.26
671.558	24.22
671.745	24.26
671.932	24.12
672.119	23.99
672.306	23.94
672.493	23.77
672.68	24.17
672.867	24.17
673.054	23.71
673.24	23.77
673.427	23.79
673.614	24.15
673.801	24.08
673.988	24.12
674.174	23.95
674.361	23.73
674.548	23.78
674.734	23.83
674.921	23.24
675.108	23.63
675.294	23.87
675.481	24.02
675.668	24.16
675.854	23.87
676.041	24.01
676.227	23.8
676.414	23.89
676.601	23.55
676.787	23.18
676.974	23.42
677.16	23.6
677.347	23.73
677.533	23.93
677.719	23.58
677.906	24.27
678.092	23.92
678.279	24.29
678.465	24.78
678.651	24.98
678.838	25.1
679.024	25
679.21	25.28
679.397	25.4
679.583	25.41
679.769	25.83
679.955	25.41
680.142	25.16
680.328	24.81
680.514	24.38
680.7	24.73
680.886	24.87
681.073	25.32
681.259	24.84
681.445	24.93
681.631	24.65
681.817	24.54
682.003	24.75
682.189	24.82
682.375	25.02
682.561	25.29
682.747	24.73
682.933	24.65
683.119	24.64
683.305	24.92
683.491	24.74
683.677	25.48
683.863	25.33
684.049	24.98
684.235	25.31
684.42	25.52
684.606	25.43
684.792	25.72
684.978	25.53
685.164	25.59
685.349	25.23
685.535	25.78
685.721	24.95
685.907	24.73
686.092	25.69
686.278	25.96
686.464	26.05
686.649	25.56
686.835	25.33
687.021	25.29
687.206	25.55
687.392	25.95
687.577	25.53
687.763	25.91
687.948	26.01
688.134	25.41
688.319	24.88
688.505	24.95
688.69	25.12
688.876	25.01
689.061	25.16
689.247	24.71
689.432	24.47
689.618	24.43
689.803	24.36
689.988	24.47
690.174	24.16
690.359	24.72
690.544	24.32
690.73	24.57
690.915	25.22
691.1	25.4
691.285	26
691.471	26.27
691.656	26.46
691.841	26.71
692.026	26.93
692.211	27.07
692.396	27.28
692.582	27.4
692.767	27.73
692.952	27.7
693.137	27.21
693.322	26.23
693.507	25.75
693.692	25.44
693.877	24.99
694.062	25
694.247	24.9
694.432	24.4
694.617	23.94
694.802	23.49
694.987	23.17
695.172	23.61
695.357	24.27
695.541	24.04
695.726	24.48
695.911	24.27
696.096	23.79
696.281	24.19
696.466	24.03
696.65	24.4
696.835	24.27
697.02	24.27
697.204	23.72
697.389	23.82
697.574	24.62
697.759	24.26
697.943	24.53
698.128	24.89
698.312	24.87
698.497	24.77
698.682	25.08
698.866	25.26
699.051	25.11
699.235	25.25
699.42	25.05
699.604	24.64
699.789	24.59
699.973	24.76
700.158	24.97
700.342	24.76
700.527	25.21
700.711	25.13
700.895	24.88
701.08	25.6
701.264	25.28
701.448	25.67
701.633	25.88
701.817	26.27
702.001	26.29
702.186	26.52
702.37	26.48
702.554	26.02
702.738	26.36
702.923	26.75
703.107	26.69
703.291	26.9
703.475	26.34
703.659	26.36
703.843	25.41
704.027	24.7
704.212	24.04
704.396	23.95
704.58	23.58
704.764	23.07
704.948	23.67
705.132	23.29
705.316	24.35
705.5	24.5
705.684	25.01
705.868	26.22
706.052	26.72
706.235	26.87
706.419	26.97
706.603	26.74
706.787	26.94
706.971	26
707.155	25.76
707.339	25.4
707.522	25.68
707.706	25.03
707.89	24.27
708.074	24.48
708.257	24.19
708.441	24.51
708.625	25.28
708.808	24.67
708.992	24.92
709.176	25.94
709.359	25.83
709.543	25.82
709.727	25.49
709.91	25.95
710.094	26.01
710.277	25.87
710.461	25.62
710.644	25.42
710.828	26
711.011	26.6
711.195	25.79
711.378	25.62
711.562	25.72
711.745	25.94
711.928	25.56
712.112	25.45
712.295	25.9
712.478	25.6
712.662	25.96
712.845	25.48
713.028	24.57
713.212	23.78
713.395	23.83
713.578	23.96
713.761	24.91
713.945	25.12
714.128	24.76
714.311	24.83
714.494	25.01
714.677	25.38
714.86	26.11
715.043	26.17
715.227	27.51
715.41	27.38
715.593	27.13
715.776	26.05
715.959	25.51
716.142	26.08
716.325	25.71
716.508	26.46
716.691	25.75
716.874	24.82
717.057	25.48
717.239	24.79
717.422	24.88
717.605	24.74
717.788	25.05
717.971	25.85
718.154	26.19
718.337	26.42
718.519	25.49
718.702	26.06
718.885	26.43
719.068	25.09
719.25	25.1
719.433	25.2
719.616	24.06
719.798	24.13
719.981	23.99
720.164	23.79
720.346	24.07
720.529	25.47
720.712	26.32
720.894	25.64
721.077	26.7
721.259	26.83
721.442	26.86
721.624	28
721.807	28.74
721.989	29.11
722.172	28.44
722.354	27.42
722.537	26.19
722.719	24.68
722.901	26.57
723.084	26.24
723.266	27.13
723.448	27.41
723.631	27.67
723.813	26.22
723.995	24.85
724.178	25.26
724.36	26.6
724.542	26.7
724.724	27.4
724.907	26.52
725.089	26.53
725.271	25.86
725.453	25.77
725.635	25.4
725.817	26.25
725.999	27.15
726.181	25.69
726.364	25.51
726.546	25.69
726.728	25.16
726.91	24.23
727.092	24.94
727.274	24.97
727.456	25.6
727.638	25.79
727.819	26
728.001	26.62
728.183	27.11
728.365	26.51
728.547	26.59
728.729	26.38
728.911	26.27
729.093	25.64
729.274	25.17
729.456	23.96
729.638	23.99
729.82	24.19
730.001	23.68
730.183	25.38
730.365	25.26
730.546	25.28
730.728	25.57
730.91	26.76
731.091	26.9
731.273	26.96
731.455	27.44
731.636	26.24
731.818	26.25
731.999	26.05
732.181	25.19
732.362	26.29
732.544	26.11
732.725	26.04
732.907	25.4
733.088	26.05
733.27	26.09
733.451	26.06
733.633	27.36
733.814	26.97
733.995	27.29
734.177	27.98
734.358	27.71
734.539	27.3
734.721	28.09
734.902	29.55
735.083	29.1
735.264	29.01
735.446	29.38
735.627	29.94
735.808	30.14
735.989	30.35
736.17	29.15
736.351	28.88
736.533	29.47
736.714	28.69
736.895	28.58
737.076	28.19
737.257	28.68
737.438	28.31
737.619	27.34
737.8	27.22
737.981	26.74
738.162	26.92
738.343	27.2
738.524	27.68
738.705	27.46
738.886	26.56
739.067	27.29
739.247	27.74
739.428	27.92
739.609	28.45
739.79	28.2
739.971	29.41
740.151	29.42
740.332	28.79
740.513	27.8
740.694	27.88
740.874	27.84
741.055	27.64
741.236	27.17
741.417	26.89
741.597	26.14
741.778	24.77
741.958	23.97
742.139	24.36
742.32	25.2
742.5	26.36
742.681	26.56
742.861	27.06
743.042	26.36
743.222	27.09
743.403	26.35
743.583	26.15
743.764	28.76
743.944	30.07
744.124	29.8
744.305	29.23
744.485	28.31
744.666	28.09
744.846	27.97
745.026	29.19
745.207	27.34
745.387	28.22
745.567	28.2
745.747	26.49
745.928	24.32
746.108	22.97
746.288	22.74
746.468	22.91
746.648	23.2
746.829	23.35
747.009	21.66
747.189	22.9
747.369	23.22
747.549	24.67
747.729	24.95
747.909	24.66
748.089	25.85
748.269	26.35
748.449	27.49
748.629	26.61
748.809	26.54
748.989	27.62
749.169	26.43
749.349	25.73
749.529	25.51
749.709	25.45
749.889	24.9
750.068	23.71
750.248	24.15
750.428	22.72
750.608	23.25
750.788	22.3
750.967	22.47
751.147	23.61
751.327	25.53
751.507	25.57
751.686	25.37
751.866	25.69
752.046	25.56
752.225	24.45
752.405	25.75
752.585	25.86
752.764	25.63
752.944	24.21
753.123	23.21
753.303	20.6
753.482	20.58
753.662	21.75
753.841	21.62
754.021	22.43
754.2	22.97
754.38	21.53
754.559	21.57
754.739	21.88
754.918	22.87
755.097	23.3
755.277	24.36
755.456	22.97
755.635	21.7
755.815	22.88
755.994	23.85
756.173	22.68
756.352	23.16
756.532	23.61
756.711	24.83
756.89	24.73
757.069	24.55
757.248	25.05
757.427	26.32
757.607	27.06
757.786	26.66
757.965	25.47
758.144	26.4
758.323	27.09
758.502	26.75
758.681	24.79
758.86	24.66
759.039	24.66
759.218	23.79
759.397	24.09
759.576	25.1
759.755	25.42
759.934	25.71
760.113	25.39
760.291	24.4
760.47	23.95
760.649	26.52
760.828	27.03
761.007	26.3
761.186	26.74
761.364	25.29
761.543	24.63
761.722	24.07
761.901	24.93
762.079	25.14
762.258	25.58
762.437	26.26
762.615	24.67
762.794	23.82
762.972	25.11
763.151	25.14
763.33	25.78
763.508	25.39
763.687	25.64
763.865	24.59
764.044	25.34
764.222	24.93
764.401	24.51
764.579	24.71
764.758	25.39
764.936	25.2
765.114	25.13
765.293	26.12
765.471	26.19
765.65	26.14
765.828	27.38
766.006	27.02
766.184	27.7
766.363	27.21
766.541	26.5
766.719	27.13
766.898	27.64
767.076	27.9
767.254	26.23
767.432	25.85
767.61	27.12
767.788	26.55
767.967	26.2
768.145	25.67
768.323	27.63
768.501	28.23
768.679	27.76
768.857	27.39
769.035	27.98
769.213	27.42
769.391	27.92
769.569	27.42
769.747	28.75
769.925	28.28
770.103	28.91
770.281	25.39
770.459	25.24
770.636	23.48
770.814	23.55
770.992	23.11
771.17	23.88
771.348	23.26
771.525	23
771.703	19.72
771.881	21.66
772.059	20.52
772.236	23.01
772.414	24.18
772.592	25.99
772.769	26.26
772.947	24.88
773.125	25.86
773.302	25.36
773.48	25.43
773.657	27.83
773.835	26.04
774.013	28.29
774.19	27.52
774.368	27.56
774.545	25.75
774.723	26.46
774.9	28.58
775.077	30.27
775.255	31.97
775.432	31.54
775.61	29.56
775.787	28.88
775.964	28.24
776.142	28.17
776.319	28.6
776.496	28.61
776.674	26.62
776.851	27.42
777.028	26.21
777.205	26.24
777.382	24.23
777.56	24.72
777.737	26.33
777.914	24.69
778.091	26.9
778.268	26.26
778.445	27.08
778.622	27.22
778.8	25.79
778.977	22.34
779.154	22
779.331	23.11
779.508	24.64
779.685	25.27
779.862	27.03
780.038	26.91
780.215	27.82
780.392	27.79
780.569	28.58
780.746	29.87
780.923	33.89
781.1	35.09
781.277	34.53
781.453	36.72
781.63	35.11
781.807	36.48
781.984	35.57
782.16	34.22
782.337	34.07
782.514	36.26
782.691	36.24
782.867	34.72
783.044	32.84
783.221	35.08
783.397	32.37
783.574	33.67
783.75	30.9
783.927	32.63
784.103	33.11
784.28	35.62
784.456	33.21
784.633	31.04
784.809	30.11
784.986	31.77
785.162	28.44
785.339	27.87
785.515	27.94
785.692	31.06
785.868	28.69
786.044	28.18
786.221	26.39
786.397	26.56
786.573	29.35
786.749	32.27
786.926	31.34
787.102	33.9
787.278	34.57
787.454	32.08
787.631	30.13
787.807	27.94
787.983	26.25
788.159	27.82
788.335	26.88
788.511	24.77
788.687	22.52
788.863	22.83
789.039	22.92
789.216	23.24
789.392	24.08
789.568	25.14
789.744	28.47
789.919	29.74
790.095	27.57
790.271	28.87
790.447	29.44
790.623	29.02
790.799	27.57
790.975	28.3
791.151	27.45
791.327	28.27
791.502	25.53
791.678	26.53
791.854	27.63
792.03	28.01
792.205	27.86
792.381	28.7
792.557	29.82
792.733	30.68
792.908	28.9
793.084	29.31
793.259	29.2
793.435	27.73
793.611	24.06
793.786	22.92
793.962	21.72
794.137	22.02
794.313	20.44
794.488	19.74
794.664	19.11
794.839	20.13
795.015	20.19
795.19	20.95
795.366	22.47
795.541	26.34
795.716	28.09
795.892	30.84
796.067	29.51
796.242	30.91
796.418	29.13
796.593	29.18
796.768	29.48
796.944	31.29
797.119	30.97
797.294	31.51
797.469	28.3
797.644	26.68
797.82	23.41
797.995	26.39
798.17	24.57
798.345	27.75
798.52	27.7
798.695	24.02
798.87	22.16
799.045	19.67
799.22	22.57
799.395	21.86
799.57	23.33
799.745	23.1
799.92	18.07
800.095	19.69
800.27	18.16
800.445	20.53
800.62	25.04
800.795	23.22
800.97	24.05
801.145	23.47
801.319	28.18
801.494	27.67
801.669	29.96
801.844	32.25
802.018	29.27
802.193	30.29
802.368	30.21
802.543	31.24
802.717	38.51
802.892	39.69
803.067	39.64
803.241	36.74
803.416	35.02
803.59	32.25
803.765	33.27
803.94	33.43
804.114	35.48
804.289	35.65
804.463	34.75
804.638	28.41
804.812	29.12
804.986	25.7
805.161	26.86
805.335	28.63
805.51	32.39
805.684	31.06
805.858	31.48
806.033	28.61
806.207	28.63
806.381	29.9
806.556	33.4
806.73	33.7
806.904	33.82
807.078	33.06
807.253	30.81
807.427	30.64
807.601	30.11
807.775	33.24
807.949	35.02
808.123	35.39
808.298	33.94
808.472	28.92
808.646	27.82
808.82	31.65
808.994	34.24
809.168	36.55
809.342	37.67
809.516	37.39
809.69	36.92
809.864	39.95
810.038	38.59
810.212	38.29
810.385	42.87
810.559	45.38
810.733	41.77
810.907	39.86
811.081	35.86
811.255	36.16
811.428	35.14
811.602	33.53
811.776	26.97
811.95	26.74
812.123	27.71
812.297	24.65
812.471	22.65
812.644	26.36
812.818	26.21
812.992	32.83
813.165	34.01
813.339	35.63
813.512	36.68
813.686	40.52
813.86	40.67
814.033	35.92
814.207	36.18
814.38	40.62
814.554	35.73
814.727	34.74
814.9	33.32
815.074	31.69
815.247	31.04
815.421	32.05
815.594	32.87
815.767	29.43
815.941	30.23
816.114	31.16
816.287	28.61
816.46	32.27
816.634	30
816.807	32.22
816.98	31.58
817.153	34.91
817.327	32.75
817.5	31.03
817.673	34.91
817.846	36.78
818.019	35.42
818.192	35.41
818.365	42.25
818.538	41.06
818.711	37.83
818.884	35.13
819.057	31.32
819.23	31.41
819.403	28.45
819.576	25.87
819.749	26.53
819.922	26.68
820.095	28.86
820.268	24.56
820.441	27.08
820.614	26.96
820.786	27.37
820.959	28.76
821.132	29.17
821.305	30.55
821.477	30.57
821.65	30.76
821.823	30.52
821.996	28.77
822.168	28.6
822.341	28.34
822.514	28.52
822.686	28.38
822.859	28.54
823.031	28.34
823.204	27.74
823.376	27.87
823.549	28.35
823.722	28.03
823.894	28.05
824.067	27.89
824.239	28.05
824.411	27.76
824.584	28.2
824.756	27.07
824.929	26.44
825.101	27.32
825.273	27.87
825.446	26.66
825.618	26.37
825.79	27.33
825.963	27.18
826.135	27.07
826.307	26.6
826.479	25.29
826.652	25.98
826.824	26.65
826.996	26.27
827.168	25.79
827.34	24.74
827.512	25.7
827.684	24.11
827.856	22.42
828.029	21.92
828.201	21.58
828.373	21.99
828.545	22.62
828.717	22.18
828.889	23.52
829.061	21.81
829.232	22.15
829.404	22.33
829.576	23.24
829.748	24.18
829.92	23.29
830.092	23.86
830.264	26.99
830.436	28.35
830.607	30.45
830.779	28.39
830.951	32.08
831.123	32.81
831.294	32.45
831.466	33.03
831.638	33.13
831.809	37.27
831.981	40.48
832.153	39.4
832.324	36.07
832.496	33.25
832.667	32.1
832.839	30.52
833.011	28.03
833.182	26.77
833.354	27.28
833.525	28.45
833.697	25.69
833.868	22.84
834.039	20.33
834.211	21.86
834.382	24.36
834.554	26.67
834.725	28.96
834.896	30.52
835.068	31.97
835.239	29.67
835.41	29.23
835.581	29.7
835.753	30.49
835.924	31.9
836.095	30.22
836.266	26.87
836.438	27.68
836.609	25.04
836.78	27.49
836.951	28.58
837.122	32.2
837.293	31.84
837.464	30.97
837.635	29.42
837.806	26.85
837.977	30.15
838.148	31.28
838.319	26.49
838.49	22.28
838.661	17.48
838.832	15.75
839.003	15.25
839.174	18
839.345	21.69
839.516	25.58
839.687	26.96
839.857	27.96
840.028	32.06
840.199	34.76
840.37	36.41
840.54	37.01
840.711	34.65
840.882	31.12
841.053	33.17
841.223	27.8
841.394	26.34
841.564	30.99
841.735	23.33
841.906	19.78
842.076	14.55
842.247	17.1
842.417	20.88
842.588	23.17
842.758	25.64
842.929	28.82
843.099	38.3
843.27	35.17
843.44	28.25
843.611	35.87
843.781	41.37
843.951	42.4
844.122	48.08
844.292	34.81
844.462	39.69
844.633	37.06
844.803	31.08
844.973	33.59
845.144	33.56
845.314	35.18
845.484	33.88
845.654	29.45
845.824	29
845.995	26.98
846.165	36.46
846.335	40.05
846.505	48.7
846.675	52.1
846.845	46
847.015	51.15
847.185	47.96
847.355	49.32
847.525	56.04
847.695	65.09
847.865	72.24
848.035	69.65
848.205	55.1
848.375	47.77
848.545	42.72
848.715	42.07
848.884	38.15
849.054	43.79
849.224	44.02
849.394	36.05
849.564	37.33
849.733	32.02
849.903	35.69
850.073	52.94
850.243	52.2
850.412	50.23
850.582	53.28
850.752	58.28
850.921	62.61
851.091	65.66
851.26	65.78
851.43	60.64
851.599	58.77
851.769	61.78
851.939	51.9
852.108	57.85
852.278	65.62
852.447	73.55
852.616	68.72
852.786	61.26
852.955	63.4
853.125	69.47
853.294	79.89
853.463	98.99
853.633	81.93
853.802	85.23
853.971	82.05
854.141	72.73
854.31	70.27
854.479	61.89
854.648	63.36
854.818	49.54
854.987	48.04
855.156	42.32
855.325	48.16
855.494	56.81
855.663	44.68
855.832	37.38
856.001	36.75
856.171	29.93
856.34	35
856.509	34.97
856.678	48.49
856.847	47.36
857.016	51.08
857.185	47.44
857.353	33.4
857.522	40.8
857.691	42.46
857.86	46.02
858.029	45.02
858.198	48.26
858.367	50.57
858.535	40.5
858.704	34.79
858.873	29.37
859.042	25.99
859.21	30.57
859.379	28.44
859.548	30.4
859.717	34.48
859.885	37.72
860.054	32.7
860.222	26.25
860.391	22.01
860.56	29.68
860.728	32.37
860.897	29.92
861.065	34.16
861.234	32.15
861.402	41.26
861.571	49.08
861.739	54.01
861.908	53.68
862.076	77.7
862.244	74.21
862.413	60.68
862.581	70.29
862.749	75.03
862.918	75.15
863.086	80.51
863.254	72.99
863.423	59.1
863.591	38.83
863.759	46.31
863.927	41.54
864.096	49.7
864.264	55.77
864.432	61.55
864.6	54.99
864.768	43.23
864.936	35.06
865.104	46.61
865.272	49.64
865.44	67.64
865.608	56.97
865.776	46.1
865.944	38.66
866.112	53.15
866.28	39.72
866.448	42.82
866.616	48.13
866.784	54.37
866.952	54.53
867.12	56.58
867.288	71.38
867.455	81.21
867.623	95.22
867.791	84.43
867.959	80.6
868.127	71.6
868.294	61.68
868.462	53.06
868.63	47.56
868.797	53.07
868.965	65.47
869.133	69.03
869.3	44.55
869.468	65.07
869.636	95.83
869.803	93.61
869.971	89.19
870.138	131.96
870.306	153.94
870.473	115.34
870.641	98.4
870.808	92.94
870.975	105.06
871.143	134.64
871.31	122.46
871.478	104.32
871.645	101.06
871.812	105.45
871.98	96.14
872.147	88.81
872.314	75.51
872.482	69.28
872.649	67.63
872.816	48.07
872.983	38.21
873.15	36.02
873.318	31.47
873.485	25.31
873.652	36.18
873.819	28.67
873.986	31.18
874.153	48.41
874.32	49.81
874.487	38.26
874.654	55.59
874.821	70.78
874.988	69.73
875.155	78.91
875.322	85.6
875.489	66.05
875.656	49.33
875.823	57.69
875.99	55.95
876.157	60
876.324	74.96
876.49	72.92
876.657	67.56
876.824	75.78
876.991	80.33
877.157	85.93
877.324	88.67
877.491	97.29
877.658	93.67
877.824	86.22
877.991	89.13
878.157	90.99
878.324	87.63
878.491	81.91
878.657	64.24
878.824	64.82
878.99	47.51
879.157	29.12
879.323	32.77
879.49	18.73
879.656	28.91
879.823	33.31
879.989	28.19
880.156	31.18
880.322	28.94
880.488	28.35
880.655	16.08
880.821	25.66
880.987	37.93
881.154	24.42
881.32	32.16
881.486	19.96
881.652	18
881.819	18.51
881.985	17.9
882.151	25.49
882.317	26.81
882.483	31.05
882.649	29.12
882.816	25.96
882.982	29.48
883.148	30.13
883.314	32.91
883.48	34.38
883.646	34.07
883.812	34.18
883.978	33.27
884.144	30.66
884.31	29.32
884.476	31.01
884.642	30.46
884.807	31.43
884.973	33.93
885.139	33.98
885.305	31.78
885.471	31.25
885.637	31.88
885.802	31.28
885.968	32.65
886.134	34.76
886.3	34.06
886.465	34.01
886.631	28.59
886.797	20.03
886.962	15.76
887.128	17.06
887.293	14.38
887.459	17.43
887.625	12.76
887.79	14.56
887.956	9.43
888.121	7.81
888.287	13.39
888.452	19.29
888.618	31.59
888.783	30.79
