Data from 2938121_Reflection_1.txt Node
Date: Sat Jul 11 17:48:41 EDT 2015
User: robert
Spectrometer: USB4E03001
Autoset integration time: false
Trigger mode: 4
Integration Time (sec): 1.000000E-1
Scans to average: 10
Electric dark correction enabled: true
Nonlinearity correction enabled: false
Boxcar width: 5
Stray light correction enabled: false
XAxis mode: Wavelengths
Stop averaging: false
Number of Pixels in Spectrum: 3648
>>>>>Begin Spectral Data<<<<<
177.566	836.57
177.785	-330.68
178.005	-114.17
178.225	6.17
178.445	-11.43
178.665	74.87
178.885	73.38
179.105	81.37
179.324	68.68
179.544	30.85
179.764	67.09
179.984	162.44
180.204	277.33
180.423	256.19
180.643	741
180.863	-1072.84
181.083	363.24
181.302	422.04
181.522	273.1
181.742	327.76
181.961	345.61
182.181	285.8
182.401	452.08
182.621	1748.28
182.84	1033.87
183.06	373.3
183.279	259.27
183.499	231.19
183.719	199.82
183.938	181.63
184.158	242.66
184.377	189.4
184.597	190.36
184.816	171.78
185.036	153.38
185.256	171.02
185.475	179.55
185.695	185.91
185.914	235.32
186.134	192.49
186.353	247.97
186.572	183.76
186.792	210.95
187.011	284.41
187.231	238.28
187.45	186.4
187.67	184.79
187.889	184.61
188.108	201.2
188.328	204.45
188.547	204.84
188.766	178.17
188.986	202.99
189.205	210.61
189.424	189.57
189.644	246.94
189.863	340.96
190.082	1613.15
190.302	424.29
190.521	379.6
190.74	385.84
190.959	-2649.13
191.178	-1618.82
191.398	996.71
191.617	395.78
191.836	426.39
192.055	642.23
192.274	563.85
192.494	399.02
192.713	1975.27
192.932	1308.51
193.151	-11927.84
193.37	-2175.63
193.589	-518.65
193.808	-2800.27
194.027	-1950
194.246	1112.8
194.465	20711.86
194.685	2260.5
194.904	-4389.25
195.123	895.49
195.342	-1041.7
195.561	715.83
195.78	331.56
195.999	277.31
196.218	580.79
196.436	482.39
196.655	368.01
196.874	176.42
197.093	151.47
197.312	122.71
197.531	155.07
197.75	146.64
197.969	151.06
198.188	162.94
198.407	168.28
198.625	179.56
198.844	191.97
199.063	201.46
199.282	310.08
199.501	322.94
199.719	531.17
199.938	329.58
200.157	671.53
200.376	-4626.47
200.594	462.51
200.813	243.83
201.032	167.89
201.251	148.66
201.469	175.82
201.688	134.76
201.907	157.12
202.125	121.09
202.344	152.67
202.563	126.91
202.781	161.12
203	133.24
203.218	163.24
203.437	166
203.656	189.63
203.874	144.67
204.093	107.55
204.311	105.45
204.53	134.29
204.748	119.16
204.967	123.29
205.185	104.49
205.404	111.26
205.622	105.16
205.841	115.71
206.059	142.56
206.278	146.62
206.496	190.01
206.715	229.47
206.933	250.05
207.151	361.01
207.37	436.43
207.588	721.12
207.806	425.88
208.025	765.23
208.243	569.75
208.461	457.86
208.68	-167.04
208.898	503.23
209.116	223.96
209.335	214.09
209.553	471.86
209.771	423.89
209.989	892.42
210.208	-1645.25
210.426	-919.56
210.644	-1306.9
210.862	363.61
211.081	342.86
211.299	399.11
211.517	747.9
211.735	802.33
211.953	316.84
212.171	323.99
212.39	293.58
212.608	230.15
212.826	178.02
213.044	167.57
213.262	166.84
213.48	131.65
213.698	129.52
213.916	129.52
214.134	94.69
214.352	94.47
214.57	76.81
214.788	86.37
215.006	98.73
215.224	99.14
215.442	93.37
215.66	116.27
215.878	125.71
216.096	119.31
216.314	132.4
216.532	138.79
216.75	137.27
216.968	178.24
217.185	151.05
217.403	172.49
217.621	266.08
217.839	296.03
218.057	197.48
218.275	214.65
218.492	190.25
218.71	101.42
218.928	98.52
219.146	112.03
219.363	88.23
219.581	118.18
219.799	54.43
220.017	576.29
220.234	153.95
220.452	163.41
220.67	281.44
220.887	213.85
221.105	309.17
221.323	224.9
221.54	136.61
221.758	128.5
221.976	132.68
222.193	105.35
222.411	80.92
222.629	74.7
222.846	93.5
223.064	99.6
223.281	78.94
223.499	88.43
223.716	91.45
223.934	79.66
224.151	81.28
224.369	76.38
224.586	88.76
224.804	91.1
225.021	91.68
225.239	72.05
225.456	66.61
225.674	69.57
225.891	66.47
226.108	65.07
226.326	78.45
226.543	72.44
226.76	70.23
226.978	66.37
227.195	73.71
227.413	76.46
227.63	79.87
227.847	72.45
228.064	71.38
228.282	68.37
228.499	58.49
228.716	52.59
228.934	52.15
229.151	50.95
229.368	48.88
229.585	44.66
229.802	44.55
230.02	39.93
230.237	38.49
230.454	34.74
230.671	30.59
230.888	31.86
231.105	33.87
231.323	33.37
231.54	27.52
231.757	24.98
231.974	29.45
232.191	27.51
232.408	33.98
232.625	43.82
232.842	48.31
233.059	50.88
233.276	48.68
233.493	50.05
233.71	52.13
233.927	52.86
234.144	56.44
234.361	57.21
234.578	54.21
234.795	48.33
235.012	36.81
235.229	34.08
235.446	36.92
235.663	42.05
235.879	39.61
236.096	38.15
236.313	44.13
236.53	39.15
236.747	39.45
236.964	38.01
237.181	40.52
237.397	45.43
237.614	53.2
237.831	48.35
238.048	49.01
238.264	50.31
238.481	45.95
238.698	46.5
238.915	45.91
239.131	40.82
239.348	38.84
239.565	38.07
239.781	36.77
239.998	33.54
240.215	36.89
240.431	32.82
240.648	28.84
240.865	28.12
241.081	27.48
241.298	27.05
241.514	24.36
241.731	24.82
241.947	24.29
242.164	22.79
242.38	22.29
242.597	20.14
242.814	19.85
243.03	21.28
243.246	22.09
243.463	22.78
243.679	23.88
243.896	25.96
244.112	25.57
244.329	25.66
244.545	25.95
244.762	25.37
244.978	27.19
245.194	27.66
245.411	26.15
245.627	24.53
245.843	23.26
246.06	21.26
246.276	18.95
246.492	20.36
246.709	19.29
246.925	20.2
247.141	19.16
247.357	18.13
247.574	18.14
247.79	19.58
248.006	19.37
248.222	19.01
248.439	18.87
248.655	18.82
248.871	17.37
249.087	19.01
249.303	17.53
249.519	18.4
249.736	18.37
249.952	16.67
250.168	14.99
250.384	16.5
250.6	17.85
250.816	14.19
251.032	16.95
251.248	20.55
251.464	19.85
251.68	21.35
251.896	22.73
252.112	21.66
252.328	22.51
252.544	20.89
252.76	21.29
252.976	20.34
253.192	24.43
253.408	24.1
253.624	22.27
253.84	23.92
254.056	24.96
254.272	24.47
254.487	25.63
254.703	26.11
254.919	26.31
255.135	26.08
255.351	26.47
255.567	25.28
255.782	28.3
255.998	28.19
256.214	26.17
256.43	22.21
256.646	22.06
256.861	23.71
257.077	20.21
257.293	21.79
257.508	19.36
257.724	18.25
257.94	16.9
258.155	15.16
258.371	16.01
258.587	14.13
258.802	14.61
259.018	13.46
259.234	12.53
259.449	13.69
259.665	12.82
259.88	12.69
260.096	12.45
260.312	12.33
260.527	11.98
260.743	11.52
260.958	12.06
261.174	11.65
261.389	11.97
261.605	12.11
261.82	12.09
262.036	12.86
262.251	13.55
262.466	13.8
262.682	14.89
262.897	14.34
263.113	14.27
263.328	13.47
263.543	15.4
263.759	15.66
263.974	17.55
264.189	16.23
264.405	15.78
264.62	13.94
264.835	13.71
265.051	13.53
265.266	15.12
265.481	13.66
265.696	15.54
265.912	15.17
266.127	14.85
266.342	13.39
266.557	13.81
266.773	13.91
266.988	14.79
267.203	14.33
267.418	15.07
267.633	14.87
267.848	16.27
268.064	15.52
268.279	15.54
268.494	17.08
268.709	16.25
268.924	17.05
269.139	15.76
269.354	16.62
269.569	18.05
269.784	17.45
269.999	17
270.214	15.87
270.429	16.88
270.644	17.4
270.859	18.05
271.074	17.59
271.289	17.32
271.504	18.5
271.719	19.03
271.934	17.94
272.149	17.38
272.363	17.27
272.578	17.18
272.793	16.44
273.008	15.66
273.223	13.19
273.438	14.58
273.653	16
273.867	15
274.082	14.01
274.297	15.65
274.512	16.51
274.726	17.79
274.941	18.46
275.156	18.59
275.371	18.66
275.585	19.68
275.8	18.35
276.015	17.02
276.229	17.32
276.444	16.03
276.659	14.65
276.873	14.25
277.088	12.64
277.302	12.76
277.517	13.14
277.732	13.24
277.946	14.66
278.161	17.15
278.375	16.66
278.59	18.01
278.804	20.19
279.019	20.75
279.233	20.5
279.448	20.75
279.662	20.56
279.877	20.31
280.091	18.26
280.306	16.98
280.52	14.93
280.735	13.51
280.949	12.12
281.163	12.11
281.378	12.54
281.592	12.41
281.806	12.67
282.021	13.6
282.235	14.56
282.449	14.23
282.664	13.34
282.878	13.7
283.092	14.64
283.307	16.08
283.521	14.26
283.735	12.42
283.949	11.88
284.164	11.9
284.378	11.5
284.592	10.51
284.806	12.03
285.02	12.61
285.234	13.29
285.449	13.9
285.663	13.02
285.877	14.47
286.091	15.58
286.305	16.01
286.519	15.32
286.733	14.79
286.947	15.3
287.161	15.72
287.375	15.57
287.589	14.94
287.803	15.55
288.017	16.68
288.231	16.06
288.445	15.99
288.659	16.03
288.873	17.48
289.087	17.77
289.301	16.05
289.515	17.21
289.729	19.3
289.943	20.63
290.157	20.31
290.371	19.42
290.584	20.01
290.798	19.96
291.012	19.53
291.226	18.74
291.44	19.46
291.654	19.17
291.867	18.55
292.081	17.32
292.295	15.47
292.509	14.5
292.722	13.27
292.936	12.17
293.15	12.46
293.364	15.17
293.577	17.29
293.791	17.96
294.005	19.22
294.218	18.67
294.432	18.57
294.645	18.51
294.859	18.26
295.073	19.16
295.286	20.87
295.5	19.46
295.713	17.89
295.927	16.55
296.14	15.55
296.354	15.41
296.568	15.06
296.781	14.72
296.994	14.95
297.208	15.73
297.421	16.1
297.635	15.56
297.848	16.49
298.062	17.42
298.275	16.89
298.489	15.94
298.702	16.62
298.915	17.31
299.129	17.51
299.342	18.12
299.555	17.77
299.769	18.6
299.982	18.27
300.195	16.35
300.409	16.05
300.622	16.78
300.835	18.64
301.048	18.36
301.262	17.97
301.475	17.33
301.688	16.87
301.901	16.2
302.115	14.72
302.328	14.96
302.541	18.4
302.754	17.98
302.967	18.51
303.18	15.88
303.393	15.87
303.607	17.41
303.82	17.17
304.033	17.42
304.246	19.11
304.459	18.89
304.672	18.84
304.885	18.16
305.098	18.58
305.311	17.56
305.524	19.93
305.737	18.76
305.95	17.6
306.163	18.29
306.376	18.65
306.589	16.83
306.802	16.81
307.015	16.79
307.228	13.72
307.44	14.2
307.653	15.54
307.866	15.28
308.079	17.31
308.292	16.98
308.505	15.76
308.718	16.04
308.93	17.62
309.143	18.31
309.356	17.57
309.569	19.44
309.781	18.71
309.994	18.19
310.207	18.83
310.42	17.18
310.632	16.47
310.845	16.25
311.058	15.25
311.27	14.03
311.483	14.26
311.696	14.22
311.908	14.43
312.121	13.33
312.333	13.59
312.546	12.38
312.759	13.2
312.971	13.09
313.184	14.69
313.396	14.53
313.609	14.73
313.821	15.31
314.034	15.96
314.246	15.6
314.459	16.21
314.671	16.69
314.884	15.96
315.096	15.24
315.309	16.75
315.521	17.28
315.733	18.71
315.946	19.13
316.158	17.23
316.371	17.6
316.583	17.96
316.795	17.74
317.008	16.11
317.22	19.22
317.432	21.2
317.644	21.76
317.857	21.62
318.069	20.7
318.281	21.56
318.494	22.12
318.706	22.23
318.918	22.65
319.13	23.01
319.342	25.55
319.555	23.35
319.767	23.94
319.979	23.31
320.191	23.14
320.403	23.55
320.615	22.2
320.827	22.28
321.039	23.11
321.252	22.23
321.464	22.6
321.676	21.78
321.888	21.89
322.1	19.43
322.312	18.82
322.524	19.31
322.736	18.18
322.948	18.92
323.16	18.94
323.372	16.36
323.584	15.59
323.796	16.56
324.007	15.62
324.219	15.95
324.431	16.6
324.643	16.82
324.855	16.25
325.067	17.73
325.279	18.31
325.491	18.35
325.702	19.27
325.914	19.62
326.126	19.11
326.338	19.29
326.55	18.68
326.761	18.54
326.973	18.75
327.185	18.66
327.396	17.31
327.608	15.29
327.82	15.84
328.032	14.7
328.243	14.28
328.455	12.96
328.666	12.2
328.878	10.65
329.09	12.17
329.301	10.55
329.513	9.67
329.725	10.24
329.936	11.93
330.148	14.08
330.359	15.01
330.571	17.16
330.782	18.16
330.994	19.81
331.205	20.89
331.417	19.04
331.628	19.41
331.84	19.46
332.051	19.94
332.262	20.5
332.474	17.3
332.685	17.23
332.897	15.7
333.108	13.86
333.319	13.2
333.531	14.26
333.742	14.69
333.953	14.97
334.165	14.81
334.376	15.27
334.587	13.77
334.799	13.67
335.01	14.84
335.221	14.99
335.432	16.33
335.644	15.7
335.855	15.14
336.066	14.55
336.277	14.13
336.488	14.12
336.7	13.19
336.911	14.27
337.122	15.31
337.333	14.72
337.544	16.21
337.755	16.34
337.966	15.92
338.177	16.49
338.388	15.6
338.599	16.87
338.811	16.34
339.022	16.39
339.233	15.6
339.444	14.62
339.655	13.51
339.866	11.9
340.076	11.1
340.287	12.6
340.498	11.23
340.709	12.3
340.92	12.09
341.131	13.54
341.342	12.85
341.553	13.23
341.764	14.22
341.975	14.96
342.185	15.66
342.396	16.6
342.607	16.24
342.818	17.38
343.029	17.76
343.239	17.41
343.45	17.63
343.661	18.43
343.872	17.7
344.082	17.32
344.293	18.3
344.504	18.13
344.714	17.67
344.925	17.31
345.136	16.83
345.346	17.1
345.557	17.24
345.768	16.56
345.978	16.85
346.189	17.33
346.399	17.45
346.61	16.02
346.821	15.49
347.031	15.28
347.242	16.02
347.452	16.39
347.663	16
347.873	16.9
348.084	17.36
348.294	16.37
348.504	15.7
348.715	15.89
348.925	17.46
349.136	18.19
349.346	17.77
349.557	15.86
349.767	16.56
349.977	14.51
350.188	13.13
350.398	13.89
350.608	13.9
350.819	14.16
351.029	13.59
351.239	13
351.449	13.28
351.66	12.91
351.87	13.31
352.08	12.22
352.29	14.11
352.501	14.29
352.711	13.99
352.921	13.82
353.131	15.38
353.341	15.99
353.552	15.33
353.762	13.5
353.972	15.68
354.182	15.37
354.392	14.89
354.602	14.29
354.812	14.34
355.022	12.59
355.232	12.59
355.442	11.75
355.652	12.08
355.862	12.16
356.072	11.55
356.282	8.96
356.492	9.24
356.702	9.85
356.912	9.79
357.122	9.63
357.332	11.12
357.542	11.06
357.752	10.84
357.962	10.02
358.171	9.69
358.381	11.84
358.591	12.68
358.801	13.14
359.011	13.14
359.221	13.74
359.43	13.08
359.64	11.71
359.85	11.24
360.06	11.03
360.269	10.61
360.479	11.22
360.689	10.42
360.899	9.99
361.108	9.59
361.318	9.68
361.528	9.61
361.737	10.27
361.947	10.28
362.156	10.92
362.366	10.79
362.576	10.53
362.785	10.52
362.995	10.16
363.204	10.23
363.414	10.12
363.623	9.3
363.833	9.28
364.042	9.05
364.252	10.1
364.461	10.65
364.671	10.91
364.88	12.04
365.09	11.21
365.299	12.76
365.509	13.9
365.718	14.47
365.927	14.76
366.137	14.84
366.346	14.44
366.555	13.28
366.765	12.1
366.974	10.93
367.183	10.73
367.393	11.63
367.602	10.83
367.811	9.19
368.021	9.18
368.23	9.27
368.439	9.78
368.648	10.12
368.857	10.83
369.067	11.16
369.276	11.76
369.485	10.77
369.694	10.17
369.903	8.7
370.112	9.94
370.321	10.16
370.531	10.26
370.74	9.74
370.949	10.11
371.158	9.84
371.367	9.93
371.576	10.77
371.785	10.53
371.994	10.68
372.203	11.86
372.412	11.3
372.621	10.99
372.83	11.54
373.039	11.12
373.248	10.63
373.457	10.95
373.666	10.73
373.874	9.77
374.083	9.73
374.292	9.77
374.501	9.13
374.71	9.52
374.919	9.24
375.128	8.57
375.336	8.99
375.545	9.46
375.754	8.67
375.963	8.48
376.171	8.98
376.38	9.1
376.589	8.69
376.798	8.26
377.006	8.34
377.215	8.22
377.424	8.06
377.632	8.31
377.841	7.91
378.05	8.48
378.258	8.61
378.467	8.02
378.675	8.41
378.884	7.74
379.093	8.02
379.301	7.88
379.51	8.21
379.718	8.18
379.927	7.07
380.135	6.99
380.344	6.59
380.552	6.61
380.761	7.02
380.969	7.08
381.177	7.7
381.386	7.86
381.594	7.52
381.803	7.19
382.011	7.48
382.219	7.35
382.428	7.55
382.636	7.72
382.845	7.44
383.053	7.42
383.261	7.21
383.469	7.17
383.678	7.34
383.886	7.39
384.094	7.73
384.302	7.48
384.511	8.09
384.719	7.53
384.927	6.84
385.135	7.34
385.343	7.45
385.552	8.02
385.76	8.24
385.968	8.32
386.176	8.68
386.384	8.17
386.592	8.14
386.8	8.08
387.008	8
387.216	8.45
387.424	7.89
387.633	7.75
387.841	7.16
388.049	6.48
388.257	6.03
388.465	5.56
388.672	5.49
388.88	5.92
389.088	5.43
389.296	5.62
389.504	5.6
389.712	5.86
389.92	5.74
390.128	5.93
390.336	6.55
390.544	6.13
390.751	6.03
390.959	5.94
391.167	5.3
391.375	5.19
391.583	5.52
391.79	5.33
391.998	5.31
392.206	5.2
392.414	5.08
392.621	4.73
392.829	5.2
393.037	5.38
393.244	5.74
393.452	5.48
393.66	6.08
393.867	5.55
394.075	5.51
394.283	5.18
394.49	4.89
394.698	4.93
394.905	4.93
395.113	4.9
395.32	5.03
395.528	4.96
395.735	5.19
395.943	4.84
396.15	4.95
396.358	5.31
396.565	5.76
396.773	6.71
396.98	6.65
397.188	6.55
397.395	6.24
397.602	5.84
397.81	5.72
398.017	5.77
398.225	5.6
398.432	5.58
398.639	5.14
398.847	4.84
399.054	3.91
399.261	3.82
399.468	3.66
399.676	3.92
399.883	3.76
400.09	3.42
400.297	3.5
400.505	3.75
400.712	3.76
400.919	4.03
401.126	4.18
401.333	4.37
401.54	4.35
401.748	4.71
401.955	4.71
402.162	5.06
402.369	5.28
402.576	5.28
402.783	4.86
402.99	4.82
403.197	4.41
403.404	4.38
403.611	4.44
403.818	4.69
404.025	4.5
404.232	4.36
404.439	4.43
404.646	4.32
404.853	3.98
405.06	4.43
405.267	4.35
405.474	4.45
405.681	4.14
405.887	4.22
406.094	4.2
406.301	4.58
406.508	4.55
406.715	4.41
406.922	4.63
407.128	4.9
407.335	4.6
407.542	4.89
407.749	5.21
407.955	5.57
408.162	5.41
408.369	5.21
408.575	4.96
408.782	5.2
408.989	5.35
409.195	5.17
409.402	5.41
409.609	5.34
409.815	5.25
410.022	5.03
410.228	5.2
410.435	5.27
410.642	5.18
410.848	5.4
411.055	5.33
411.261	5.41
411.468	5.76
411.674	5.47
411.881	5.28
412.087	5.14
412.294	5.18
412.5	4.96
412.706	5.12
412.913	5.02
413.119	4.67
413.326	4.37
413.532	3.93
413.738	3.76
413.945	3.95
414.151	4.21
414.357	4.18
414.564	4.13
414.77	4.13
414.976	4.21
415.182	4.39
415.389	4.58
415.595	4.77
415.801	4.78
416.007	4.77
416.214	4.43
416.42	4.52
416.626	4.62
416.832	4.69
417.038	4.43
417.244	4.4
417.45	4.36
417.657	4.08
417.863	3.94
418.069	4.09
418.275	3.97
418.481	3.77
418.687	3.71
418.893	3.42
419.099	3.39
419.305	3.36
419.511	3.25
419.717	3.12
419.923	3.22
420.129	3.14
420.335	3.07
420.541	3.05
420.746	3.26
420.952	3.22
421.158	3.35
421.364	3.28
421.57	3.2
421.776	3.19
421.982	3.24
422.187	3.28
422.393	3.41
422.599	3.36
422.805	3.33
423.01	3.33
423.216	3.28
423.422	3.2
423.628	3.37
423.833	3.45
424.039	3.43
424.245	3.52
424.45	3.5
424.656	3.4
424.862	3.47
425.067	3.46
425.273	3.49
425.478	3.62
425.684	3.86
425.889	3.68
426.095	3.82
426.301	3.81
426.506	3.72
426.712	3.73
426.917	3.89
427.123	3.71
427.328	3.81
427.533	3.76
427.739	3.62
427.944	3.46
428.15	3.53
428.355	3.21
428.561	3.29
428.766	3.34
428.971	3.36
429.177	3.46
429.382	3.48
429.587	3.38
429.793	3.52
429.998	3.51
430.203	3.29
430.408	3.25
430.614	3.7
430.819	3.57
431.024	3.6
431.229	3.44
431.434	3.26
431.64	3.36
431.845	3.57
432.05	3.56
432.255	3.66
432.46	3.79
432.665	3.64
432.87	3.32
433.076	3.38
433.281	3.28
433.486	3.34
433.691	3.32
433.896	3.27
434.101	3.07
434.306	2.89
434.511	2.87
434.716	2.76
434.921	2.92
435.126	3.1
435.331	2.99
435.535	2.95
435.74	2.97
435.945	2.94
436.15	3.17
436.355	3.11
436.56	3.27
436.765	3.3
436.97	3.55
437.174	3.5
437.379	3.65
437.584	3.51
437.789	3.59
437.993	3.74
438.198	3.9
438.403	3.63
438.608	3.67
438.812	3.68
439.017	3.51
439.222	3.28
439.426	3.11
439.631	2.77
439.836	2.79
440.04	2.73
440.245	2.63
440.45	2.39
440.654	2.57
440.859	2.54
441.063	2.44
441.268	2.45
441.472	2.5
441.677	2.75
441.881	2.86
442.086	3
442.29	2.92
442.495	2.82
442.699	2.86
442.904	2.91
443.108	3.07
443.312	3.21
443.517	3.27
443.721	3.26
443.925	3.18
444.13	3.4
444.334	3.3
444.538	3.38
444.743	3.43
444.947	3.47
445.151	3.17
445.356	2.99
445.56	3.07
445.764	3.11
445.968	3.27
446.173	3.12
446.377	3.03
446.581	2.99
446.785	2.98
446.989	2.86
447.193	2.92
447.398	2.85
447.602	2.87
447.806	2.73
448.01	2.72
448.214	2.55
448.418	2.55
448.622	2.4
448.826	2.55
449.03	2.64
449.234	2.79
449.438	2.7
449.642	2.94
449.846	2.76
450.05	2.83
450.254	2.76
450.458	2.77
450.662	2.89
450.866	2.79
451.069	3.06
451.273	2.85
451.477	2.61
451.681	2.59
451.885	2.59
452.089	2.91
452.292	2.84
452.496	2.96
452.7	3.01
452.904	2.84
453.107	2.82
453.311	2.37
453.515	2.3
453.719	2.59
453.922	2.76
454.126	2.63
454.33	2.79
454.533	2.84
454.737	2.73
454.94	2.7
455.144	2.86
455.348	2.86
455.551	2.99
455.755	3.26
455.958	3.28
456.162	3.16
456.365	3.23
456.569	2.95
456.772	2.84
456.976	3.02
457.179	2.97
457.383	3.08
457.586	3.02
457.79	2.9
457.993	2.75
458.196	2.68
458.4	2.61
458.603	2.53
458.807	2.54
459.01	2.6
459.213	2.56
459.417	2.59
459.62	2.54
459.823	2.75
460.026	2.83
460.23	2.84
460.433	2.71
460.636	2.79
460.839	2.86
461.042	2.98
461.246	2.91
461.449	2.86
461.652	2.76
461.855	2.63
462.058	2.68
462.261	2.69
462.464	2.74
462.668	2.94
462.871	2.82
463.074	2.92
463.277	2.97
463.48	3.07
463.683	3.24
463.886	3.46
464.089	3.68
464.292	3.8
464.495	3.72
464.698	3.62
464.901	3.63
465.104	3.7
465.306	3.7
465.509	3.61
465.712	3.47
465.915	3.34
466.118	3.24
466.321	3.39
466.524	3.04
466.726	3.04
466.929	3.37
467.132	3.28
467.335	3.3
467.538	3.27
467.74	3.25
467.943	3.18
468.146	3.15
468.348	3.24
468.551	3.18
468.754	3.29
468.956	3.21
469.159	3.04
469.362	3.17
469.564	3.3
469.767	3.28
469.969	3.2
470.172	3.43
470.375	3.58
470.577	3.42
470.78	3.16
470.982	3.18
471.185	3.44
471.387	3.31
471.59	3.2
471.792	2.95
471.995	2.91
472.197	2.75
472.399	2.81
472.602	2.76
472.804	2.92
473.007	2.97
473.209	3.02
473.411	2.84
473.614	2.75
473.816	2.86
474.018	3.03
474.22	3.07
474.423	3.22
474.625	3.1
474.827	2.9
475.03	2.7
475.232	2.84
475.434	2.88
475.636	3.03
475.838	3.1
476.04	2.99
476.243	3.08
476.445	3.15
476.647	3.1
476.849	3.1
477.051	3.11
477.253	3.2
477.455	3.1
477.657	2.9
477.859	2.8
478.061	2.87
478.263	2.81
478.465	2.47
478.667	2.47
478.869	2.53
479.071	2.58
479.273	2.66
479.475	2.61
479.677	2.63
479.879	2.62
480.081	2.6
480.283	2.56
480.485	2.56
480.686	2.86
480.888	2.78
481.09	2.74
481.292	2.63
481.494	2.57
481.695	2.59
481.897	2.58
482.099	2.65
482.301	2.69
482.502	2.64
482.704	2.54
482.906	2.42
483.107	2.41
483.309	2.39
483.511	2.42
483.712	2.35
483.914	2.36
484.115	2.37
484.317	2.39
484.519	2.33
484.72	2.33
484.922	2.37
485.123	2.4
485.325	2.43
485.526	2.47
485.728	2.48
485.929	2.55
486.131	2.54
486.332	2.49
486.534	2.37
486.735	2.42
486.936	2.41
487.138	2.42
487.339	2.4
487.541	2.4
487.742	2.38
487.943	2.37
488.144	2.38
488.346	2.46
488.547	2.49
488.748	2.59
488.95	2.54
489.151	2.59
489.352	2.64
489.553	2.68
489.755	2.65
489.956	2.66
490.157	2.66
490.358	2.62
490.559	2.5
490.76	2.46
490.961	2.38
491.163	2.46
491.364	2.43
491.565	2.35
491.766	2.41
491.967	2.49
492.168	2.48
492.369	2.43
492.57	2.47
492.771	2.52
492.972	2.56
493.173	2.7
493.374	2.67
493.575	2.77
493.776	2.96
493.976	3
494.177	3.01
494.378	2.95
494.579	3.12
494.78	3.24
494.981	3.2
495.182	3.31
495.382	3.26
495.583	3.2
495.784	3.05
495.985	2.81
496.185	2.77
496.386	2.65
496.587	2.8
496.788	2.72
496.988	2.68
497.189	2.58
497.39	2.55
497.59	2.48
497.791	2.51
497.992	2.66
498.192	2.79
498.393	2.81
498.593	2.89
498.794	2.92
498.994	3.05
499.195	2.95
499.395	3.12
499.596	3.04
499.796	3.04
499.997	3.12
500.197	3.15
500.398	3.15
500.598	3.09
500.799	3.16
500.999	2.99
501.199	2.69
501.4	2.87
501.6	2.81
501.801	2.82
502.001	2.65
502.201	2.67
502.402	2.38
502.602	2.58
502.802	2.53
503.002	2.49
503.203	2.6
503.403	2.67
503.603	2.6
503.803	2.74
504.003	2.9
504.204	3.1
504.404	3.32
504.604	3.54
504.804	3.39
505.004	3.3
505.204	3.4
505.404	3.37
505.604	3.5
505.804	3.37
506.005	3.42
506.205	3.48
506.405	3.53
506.605	3.36
506.805	3.34
507.005	3.31
507.204	3.47
507.404	3.27
507.604	3.19
507.804	3.2
508.004	3.44
508.204	3.27
508.404	3.14
508.604	3.03
508.804	3.03
509.003	3.08
509.203	3.08
509.403	2.94
509.603	3.02
509.803	3.19
510.002	3.19
510.202	3.21
510.402	3.37
510.602	3.43
510.801	3.48
511.001	3.53
511.201	3.53
511.4	3.56
511.6	3.53
511.8	3.51
511.999	3.43
512.199	3.39
512.398	3.3
512.598	3.23
512.797	3.23
512.997	3.23
513.197	3.25
513.396	3.14
513.596	3.19
513.795	3.28
513.994	3.34
514.194	3.33
514.393	3.46
514.593	3.46
514.792	3.42
514.992	3.28
515.191	3.26
515.39	3.38
515.59	3.33
515.789	3.38
515.988	3.54
516.188	3.51
516.387	3.36
516.586	3.23
516.786	3.07
516.985	3.01
517.184	3.14
517.383	3.19
517.582	2.99
517.782	3.01
517.981	2.95
518.18	2.97
518.379	2.94
518.578	3.08
518.777	3.2
518.976	3.37
519.176	3.33
519.375	3.39
519.574	3.3
519.773	3.39
519.972	3.45
520.171	3.54
520.37	3.53
520.569	3.67
520.768	3.68
520.967	3.7
521.166	3.75
521.365	3.96
521.564	4.05
521.762	4.12
521.961	4.1
522.16	4.11
522.359	3.97
522.558	3.76
522.757	3.64
522.956	3.65
523.154	3.52
523.353	3.38
523.552	3.25
523.751	3.08
523.949	3.14
524.148	3.15
524.347	3.28
524.546	3.24
524.744	3.32
524.943	3.34
525.142	3.36
525.34	3.47
525.539	3.47
525.737	3.58
525.936	3.56
526.135	3.46
526.333	3.39
526.532	3.38
526.73	3.38
526.929	3.4
527.127	3.39
527.326	3.41
527.524	3.4
527.723	3.38
527.921	3.36
528.12	3.4
528.318	3.39
528.516	3.43
528.715	3.37
528.913	3.36
529.112	3.37
529.31	3.4
529.508	3.4
529.707	3.38
529.905	3.41
530.103	3.37
530.301	3.41
530.5	3.52
530.698	3.58
530.896	3.7
531.094	3.83
531.293	3.88
531.491	3.92
531.689	3.93
531.887	3.98
532.085	3.96
532.283	3.93
532.481	3.88
532.68	3.84
532.878	3.82
533.076	3.76
533.274	3.71
533.472	3.69
533.67	3.69
533.868	3.66
534.066	3.59
534.264	3.68
534.462	3.81
534.66	3.91
534.858	4.02
535.056	4.01
535.253	4
535.451	4.1
535.649	4.15
535.847	4.13
536.045	4.25
536.243	4.3
536.441	4.36
536.638	4.35
536.836	4.2
537.034	4.11
537.232	4.13
537.43	4.24
537.627	4.16
537.825	4.1
538.023	4.23
538.22	4.33
538.418	4.4
538.616	4.35
538.813	4.38
539.011	4.6
539.209	4.67
539.406	4.65
539.604	4.62
539.801	4.84
539.999	4.9
540.196	4.72
540.394	4.6
540.591	4.57
540.789	4.57
540.986	4.59
541.184	4.52
541.381	4.51
541.579	4.66
541.776	4.6
541.974	4.49
542.171	4.59
542.368	4.72
542.566	4.74
542.763	4.75
542.96	4.78
543.158	4.72
543.355	4.73
543.552	4.88
543.75	4.82
543.947	4.99
544.144	5.08
544.341	5.02
544.539	5.03
544.736	5.08
544.933	5.19
545.13	5.33
545.327	5.49
545.524	5.58
545.722	5.43
545.919	5.44
546.116	5.56
546.313	5.64
546.51	5.75
546.707	5.82
546.904	5.86
547.101	6
547.298	5.98
547.495	6.03
547.692	6.12
547.889	6.27
548.086	6.34
548.283	6.36
548.48	6.52
548.677	6.52
548.874	6.52
549.07	6.58
549.267	6.46
549.464	6.57
549.661	6.64
549.858	6.66
550.055	6.64
550.251	6.93
550.448	6.77
550.645	6.64
550.842	6.74
551.038	6.69
551.235	6.96
551.432	6.99
551.628	7.02
551.825	7.03
552.022	7.03
552.218	7.02
552.415	7
552.612	7.09
552.808	7.15
553.005	7.06
553.201	7.14
553.398	7.05
553.594	7.13
553.791	7.27
553.987	7.35
554.184	7.49
554.38	7.77
554.577	7.7
554.773	7.92
554.97	7.88
555.166	7.96
555.362	8.12
555.559	8.17
555.755	8.31
555.952	8.22
556.148	8.04
556.344	8.05
556.541	8
556.737	8.11
556.933	8.02
557.129	8.21
557.326	8.48
557.522	8.51
557.718	8.77
557.914	8.72
558.11	8.88
558.307	9.2
558.503	9.42
558.699	9.54
558.895	9.49
559.091	9.61
559.287	9.82
559.483	9.82
559.679	9.81
559.876	9.7
560.072	9.97
560.268	9.81
560.464	9.76
560.66	9.52
560.856	9.55
561.052	9.54
561.247	9.64
561.443	9.48
561.639	9.56
561.835	9.72
562.031	9.84
562.227	9.69
562.423	9.8
562.619	9.97
562.815	10.28
563.01	10.16
563.206	10.3
563.402	10.3
563.598	10.37
563.793	10.33
563.989	10.39
564.185	10.33
564.381	10.34
564.576	10.35
564.772	10.34
564.968	10.2
565.163	10.33
565.359	10.29
565.555	10.25
565.75	10.45
565.946	10.53
566.141	10.57
566.337	10.51
566.532	10.7
566.728	10.7
566.923	10.74
567.119	10.85
567.314	11.03
567.51	11.13
567.705	11.13
567.901	11.08
568.096	11.16
568.292	11.08
568.487	11.2
568.682	11.31
568.878	11.48
569.073	11.38
569.268	11.61
569.464	11.5
569.659	11.81
569.854	11.91
570.05	11.91
570.245	11.86
570.44	11.99
570.635	12.04
570.831	11.85
571.026	11.9
571.221	12.05
571.416	11.84
571.611	11.95
571.806	11.84
572.002	11.98
572.197	11.89
572.392	12.05
572.587	12.12
572.782	12.13
572.977	12.1
573.172	12.07
573.367	12.08
573.562	12.2
573.757	12.21
573.952	12.28
574.147	12.23
574.342	12.4
574.537	12.45
574.732	12.36
574.927	12.38
575.121	12.44
575.316	12.39
575.511	12.53
575.706	12.59
575.901	12.57
576.096	12.55
576.29	12.45
576.485	12.38
576.68	12.13
576.875	12
577.069	11.97
577.264	12.24
577.459	12.41
577.654	12.35
577.848	12.28
578.043	12.26
578.238	12.24
578.432	12.44
578.627	12.53
578.821	12.63
579.016	12.87
579.21	13.11
579.405	13.06
579.6	12.94
579.794	13.14
579.989	13.38
580.183	13.27
580.378	13.42
580.572	13.52
580.766	13.88
580.961	14.09
581.155	14.13
581.35	14.08
581.544	13.81
581.738	14.16
581.933	14.05
582.127	14.03
582.321	14.16
582.516	14.06
582.71	13.84
582.904	13.61
583.099	13.63
583.293	13.64
583.487	13.88
583.681	14.4
583.875	14.28
584.07	14.27
584.264	14.25
584.458	14.54
584.652	14.53
584.846	14.78
585.04	14.66
585.234	14.62
585.428	14.69
585.623	14.24
585.817	13.94
586.011	14.2
586.205	14.17
586.399	14.15
586.593	13.98
586.787	13.88
586.981	13.98
587.174	14.21
587.368	14.18
587.562	14.21
587.756	14.29
587.95	14.34
588.144	14.14
588.338	14.42
588.532	14.46
588.725	14.56
588.919	14.87
589.113	14.52
589.307	14.54
589.501	14.76
589.694	14.89
589.888	15.13
590.082	15.2
590.275	15.32
590.469	15.05
590.663	15.03
590.856	15.03
591.05	15.12
591.244	15.33
591.437	15.39
591.631	15.13
591.824	15.17
592.018	15.12
592.212	15.22
592.405	15.11
592.599	15.13
592.792	14.95
592.986	15.08
593.179	14.96
593.372	15.08
593.566	15.17
593.759	15.51
593.953	15.6
594.146	15.51
594.339	15.64
594.533	15.65
594.726	15.46
594.92	15.9
595.113	15.88
595.306	15.88
595.499	15.98
595.693	15.84
595.886	15.87
596.079	15.66
596.272	15.81
596.466	15.72
596.659	15.71
596.852	16.06
597.045	16.06
597.238	15.9
597.431	15.82
597.624	15.81
597.818	15.89
598.011	15.88
598.204	15.76
598.397	15.77
598.59	15.66
598.783	15.76
598.976	15.56
599.169	15.38
599.362	15.45
599.555	15.6
599.748	15.52
599.941	15.38
600.134	15.04
600.326	15.22
600.519	15.43
600.712	15.21
600.905	15.09
601.098	15.17
601.291	15.15
601.483	15.19
601.676	15.05
601.869	15.18
602.062	15.05
602.255	15.19
602.447	15.57
602.64	15.38
602.833	15.57
603.025	15.57
603.218	15.75
603.411	15.9
603.603	15.84
603.796	15.91
603.989	15.77
604.181	15.72
604.374	15.83
604.566	15.74
604.759	15.87
604.951	16.05
605.144	16.04
605.336	15.93
605.529	15.84
605.721	15.92
605.914	16.04
606.106	16.28
606.299	16.73
606.491	16.75
606.683	16.54
606.876	16.55
607.068	16.48
607.26	16.48
607.453	16.59
607.645	16.67
607.837	16.48
608.03	16.36
608.222	16.2
608.414	15.9
608.606	15.86
608.799	15.95
608.991	15.96
609.183	16.1
609.375	16.28
609.567	16.08
609.759	15.92
609.952	16.28
610.144	16.24
610.336	16.21
610.528	16.31
610.72	16.21
610.912	16.09
611.104	16.03
611.296	15.69
611.488	15.66
611.68	15.81
611.872	15.93
612.064	15.63
612.256	15.68
612.448	15.52
612.64	15.46
612.832	15.69
613.023	15.89
613.215	15.76
613.407	16.02
613.599	15.75
613.791	15.71
613.983	15.51
614.174	15.69
614.366	15.92
614.558	16.2
614.75	16.56
614.941	16.78
615.133	16.62
615.325	16.9
615.516	16.63
615.708	16.98
615.9	17.06
616.091	17.34
616.283	17.39
616.475	17.16
616.666	17.27
616.858	17.05
617.049	16.59
617.241	16.77
617.432	16.69
617.624	17.06
617.815	17.16
618.007	17.13
618.198	17.1
618.39	16.96
618.581	16.9
618.773	16.97
618.964	16.86
619.155	16.94
619.347	16.95
619.538	16.76
619.729	16.49
619.921	16.53
620.112	16.46
620.303	16.46
620.494	16.11
620.686	16.15
620.877	16.09
621.068	16.45
621.259	16.71
621.451	16.52
621.642	16.81
621.833	16.98
622.024	16.58
622.215	16.62
622.406	16.69
622.597	17.13
622.788	17.59
622.98	17.69
623.171	17.44
623.362	17.56
623.553	17.75
623.744	17.36
623.935	17.57
624.126	17.77
624.317	17.47
624.508	17.46
624.698	17.35
624.889	17.03
625.08	16.66
625.271	16.54
625.462	16.45
625.653	16.27
625.844	16.51
626.034	16.25
626.225	16.25
626.416	16.4
626.607	16.42
626.798	16.4
626.988	16.58
627.179	16.65
627.37	16.82
627.56	16.73
627.751	16.83
627.942	16.93
628.132	17.16
628.323	17.08
628.514	17.19
628.704	17.09
628.895	17.24
629.085	17
629.276	16.99
629.466	16.8
629.657	16.81
629.847	16.92
630.038	16.98
630.228	17.04
630.419	17.19
630.609	17.23
630.8	17.33
630.99	17.02
631.181	16.99
631.371	17.14
631.561	16.92
631.752	17.09
631.942	17.02
632.132	17.05
632.323	16.76
632.513	16.38
632.703	16.27
632.893	16.11
633.084	16.48
633.274	16.45
633.464	16.24
633.654	16.43
633.844	16.21
634.034	16.43
634.225	16.04
634.415	15.85
634.605	15.88
634.795	15.8
634.985	15.85
635.175	15.74
635.365	16.01
635.555	15.86
635.745	15.92
635.935	16.07
636.125	15.74
636.315	16.26
636.505	16.5
636.695	16.94
636.885	17.31
637.075	17.69
637.265	17.95
637.455	17.77
637.644	17.87
637.834	18.07
638.024	17.93
638.214	18.6
638.404	18.45
638.593	18.57
638.783	18.43
638.973	18.43
639.163	18.08
639.352	17.86
639.542	17.91
639.732	18.27
639.921	18.04
640.111	18.15
640.301	17.63
640.49	17.6
640.68	17.69
640.87	17.74
641.059	17.42
641.249	17.75
641.438	17.97
641.628	17.95
641.817	17.92
642.007	18.38
642.196	18.38
642.386	18.8
642.575	18.93
642.764	18.99
642.954	18.8
643.143	18.93
643.333	18.61
643.522	18.49
643.711	18.53
643.901	18.5
644.09	18.05
644.279	18.23
644.469	17.16
644.658	16.93
644.847	16.62
645.036	16.86
645.226	17.06
645.415	16.88
645.604	16.74
645.793	16.51
645.982	16.06
646.171	15.96
646.361	15.76
646.55	16.58
646.739	16.23
646.928	16.54
647.117	16.55
647.306	16.5
647.495	16.93
647.684	17.42
647.873	17.49
648.062	17.71
648.251	17.9
648.44	18.33
648.629	18.11
648.818	18.2
649.007	18.07
649.196	17.97
649.384	17.93
649.573	17.66
649.762	17.41
649.951	17.58
650.14	17.54
650.328	17.67
650.517	17.18
650.706	17.28
650.895	17.74
651.083	17.88
651.272	18.05
651.461	18.19
651.65	18.07
651.838	18.03
652.027	17.83
652.216	17.79
652.404	17.57
652.593	17.52
652.781	17.65
652.97	17.2
653.158	17.04
653.347	16.77
653.535	16.86
653.724	16.96
653.912	17.2
654.101	17.44
654.289	17.7
654.478	18.22
654.666	18.7
654.855	18.75
655.043	18.84
655.231	18.86
655.42	18.46
655.608	17.61
655.796	18.1
655.985	17.91
656.173	17.8
656.361	18.35
656.55	18.27
656.738	18.12
656.926	18.19
657.114	18.19
657.302	17.69
657.491	18.03
657.679	18.46
657.867	17.74
658.055	17.78
658.243	17.91
658.431	17.41
658.619	17.14
658.807	16.92
658.996	16.7
659.184	16.85
659.372	17.17
659.56	17.25
659.748	17.19
659.936	17.6
660.124	17.51
660.311	17.54
660.499	17.72
660.687	17.9
660.875	18.04
661.063	18.17
661.251	18.04
661.439	18.11
661.627	18.33
661.814	18.56
662.002	18.66
662.19	18.99
662.378	18.9
662.565	18.99
662.753	18.6
662.941	18.58
663.129	18.57
663.316	18.84
663.504	18.64
663.692	18.85
663.879	19.04
664.067	18.99
664.254	18.52
664.442	18.61
664.63	18.26
664.817	18.85
665.005	18.85
665.192	18.95
665.38	18.92
665.567	19.02
665.755	18.67
665.942	18.42
666.13	18.51
666.317	18.51
666.504	17.9
666.692	17.94
666.879	17.63
667.067	18.06
667.254	18.29
667.441	18.03
667.629	18.05
667.816	17.72
668.003	18.2
668.19	17.85
668.378	18.04
668.565	19
668.752	19.17
668.939	19.06
669.127	18.72
669.314	18.39
669.501	18.12
669.688	18.17
669.875	18.83
670.062	18.42
670.249	18.26
670.436	18.03
670.623	17.99
670.81	17.71
670.997	17.8
671.184	17.61
671.371	17.54
671.558	17.78
671.745	17.97
671.932	17.81
672.119	17.8
672.306	18.48
672.493	18.74
672.68	18.66
672.867	18.92
673.054	19.23
673.24	18.88
673.427	19.08
673.614	19.34
673.801	19.7
673.988	19.8
674.174	20.14
674.361	19.48
674.548	19.51
674.734	19.02
674.921	18.92
675.108	19.08
675.294	19.21
675.481	19.07
675.668	18.93
675.854	18.62
676.041	18.02
676.227	17.77
676.414	17.99
676.601	18.36
676.787	18.78
676.974	18.84
677.16	18.61
677.347	18.77
677.533	18.9
677.719	18.69
677.906	18.59
678.092	19.15
678.279	19.29
678.465	19.49
678.651	19.02
678.838	18.91
679.024	19.16
679.21	18.89
679.397	18.92
679.583	18.7
679.769	18.73
679.955	18.48
680.142	18.33
680.328	18.19
680.514	17.8
680.7	17.89
680.886	17.63
681.073	17.48
681.259	17.29
681.445	16.92
681.631	16.68
681.817	16.47
682.003	16.69
682.189	16.83
682.375	17.1
682.561	17.65
682.747	17.69
682.933	17.35
683.119	17.14
683.305	17.47
683.491	18.38
683.677	18.12
683.863	18.59
684.049	18.75
684.235	18.85
684.42	18.57
684.606	18.17
684.792	18.06
684.978	18.52
685.164	18.98
685.349	19.16
685.535	18.35
685.721	18.57
685.907	18.07
686.092	18.01
686.278	17.79
686.464	17.87
686.649	18.02
686.835	18.16
687.021	18.44
687.206	18.79
687.392	18.57
687.577	19.07
687.763	18.66
687.948	19.26
688.134	18.9
688.319	18.7
688.505	18.8
688.69	19.01
688.876	19.14
689.061	19.16
689.247	18.26
689.432	18.35
689.618	17.83
689.803	18.94
689.988	19.52
690.174	19.9
690.359	20.2
690.544	19.52
690.73	20.06
690.915	20
691.1	19.66
691.285	19.96
691.471	19.92
691.656	20.86
691.841	20.96
692.026	20
692.211	19.74
692.396	19.75
692.582	20.23
692.767	19.6
692.952	19.11
693.137	19.74
693.322	20.47
693.507	20.8
693.692	20.39
693.877	19.68
694.062	19.87
694.247	20.39
694.432	20.15
694.617	19.86
694.802	19.73
694.987	20.44
695.172	20.61
695.357	20.23
695.541	19.81
695.726	19.88
695.911	20.5
696.096	20.25
696.281	19.79
696.466	19.74
696.65	20.1
696.835	20.16
697.02	20.29
697.204	19.96
697.389	19.8
697.574	19.59
697.759	19.63
697.943	19.36
698.128	19.37
698.312	19.14
698.497	19.24
698.682	19.37
698.866	19.41
699.051	19.13
699.235	19.05
699.42	18.58
699.604	18.9
699.789	18.76
699.973	19.13
700.158	19.59
700.342	19.78
700.527	19.99
700.711	19.74
700.895	19.43
701.08	19.66
701.264	19.55
701.448	20.58
701.633	20.93
701.817	21.02
702.001	20.2
702.186	19.92
702.37	20.65
702.554	20.52
702.738	20.62
702.923	21.1
703.107	20.39
703.291	20.41
703.475	19.69
703.659	18.9
703.843	19.24
704.027	20.34
704.212	20.63
704.396	20.5
704.58	20.64
704.764	21.15
704.948	20.83
705.132	20.9
705.316	21.53
705.5	21.88
705.684	22.06
705.868	22.05
706.052	21.42
706.235	21.6
706.419	21.72
706.603	21.77
706.787	21.97
706.971	22.71
707.155	22.88
707.339	21.95
707.522	21.59
707.706	21.54
707.89	21.55
708.074	22.37
708.257	21.72
708.441	21.22
708.625	20.25
708.808	19.96
708.992	20.36
709.176	19.66
709.359	19.55
709.543	19.8
709.727	19.55
709.91	19.61
710.094	19.98
710.277	20.3
710.461	20.19
710.644	20.78
710.828	20.11
711.011	19.41
711.195	20.12
711.378	21.3
711.562	20.75
711.745	21.52
711.928	20.92
712.112	20.41
712.295	20.2
712.478	20.6
712.662	20.6
712.845	20.87
713.028	20.63
713.212	20.56
713.395	20.76
713.578	21.26
713.761	21
713.945	21.31
714.128	20.6
714.311	20.92
714.494	20.92
714.677	21.39
714.86	21.48
715.043	21.47
715.227	22.16
715.41	20.76
715.593	20.38
715.776	20.5
715.959	20.07
716.142	20.36
716.325	20.33
716.508	19.63
716.691	19.22
716.874	19.75
717.057	19.56
717.239	19
717.422	19.13
717.605	20.06
717.788	19.86
717.971	20.99
718.154	20.99
718.337	21.2
718.519	22.13
718.702	22.14
718.885	21.28
719.068	21.38
719.25	22.01
719.433	22.72
719.616	22.52
719.798	22.72
719.981	21.81
720.164	21.99
720.346	21.48
720.529	21.75
720.712	21.85
720.894	21.59
721.077	21.58
721.259	20.75
721.442	20.84
721.624	20.15
721.807	19.49
721.989	20.21
722.172	19.56
722.354	20.8
722.537	20.27
722.719	20.56
722.901	22.18
723.084	22.16
723.266	21.7
723.448	20.8
723.631	21.37
723.813	22.43
723.995	21.34
724.178	21.28
724.36	21.25
724.542	21.96
724.724	21.6
724.907	20.29
725.089	21.71
725.271	22.69
725.453	23.56
725.635	22.95
725.817	22.46
725.999	23.07
726.181	23.33
726.364	21.77
726.546	20.73
726.728	21.16
726.91	21.97
727.092	20.87
727.274	20.65
727.456	20.85
727.638	21.62
727.819	21
728.001	20.26
728.183	20.96
728.365	21.3
728.547	21.79
728.729	22.02
728.911	22.01
729.093	21.63
729.274	21.57
729.456	20.88
729.638	20.33
729.82	21.43
730.001	21.48
730.183	21.16
730.365	21.73
730.546	20.9
730.728	20.28
730.91	20.31
731.091	20.06
731.273	20.33
731.455	20.01
731.636	20.57
731.818	20.7
731.999	22.07
732.181	22.06
732.362	22.01
732.544	23.28
732.725	24.41
732.907	24.15
733.088	24.63
733.27	24.78
733.451	25.42
733.633	24.45
733.814	24.62
733.995	23.62
734.177	23.96
734.358	24.1
734.539	23.49
734.721	23.34
734.902	22.37
735.083	22.74
735.264	22.93
735.446	22.35
735.627	23.48
735.808	22.91
735.989	23.28
736.17	22.6
736.351	22.55
736.533	23.2
736.714	22.48
736.895	24.08
737.076	24.44
737.257	23.6
737.438	24
737.619	24.26
737.8	24.76
737.981	25.05
738.162	24.43
738.343	23.82
738.524	23.09
738.705	22.53
738.886	21.36
739.067	20.3
739.247	20.17
739.428	19.92
739.609	19.09
739.79	17.22
739.971	16.15
740.151	16.93
740.332	16.7
740.513	16.73
740.694	15.51
740.874	16.77
741.055	17.42
741.236	18.81
741.417	20.65
741.597	20.92
741.778	23.08
741.958	24.35
742.139	24.63
742.32	24.27
742.5	24.59
742.681	26.69
742.861	25.91
743.042	25.98
743.222	24.31
743.403	21.98
743.583	22.96
743.764	22.91
743.944	21.86
744.124	23.5
744.305	24.49
744.485	24.55
744.666	24.97
744.846	24.9
745.026	26.09
745.207	26.53
745.387	27.62
745.567	26.77
745.747	25.66
745.928	25.12
746.108	23.97
746.288	23.34
746.468	23.81
746.648	22.21
746.829	23.85
747.009	22.69
747.189	22.95
747.369	23.41
747.549	24.43
747.729	24.34
747.909	25.9
748.089	24.81
748.269	25.02
748.449	24.91
748.629	25.96
748.809	23.68
748.989	23.74
749.169	24.29
749.349	25.12
749.529	24.64
749.709	24.76
749.889	24.22
750.068	24.44
750.248	25.39
750.428	24.6
750.608	24.01
750.788	26.01
750.967	25.88
751.147	26.31
751.327	25.04
751.507	23.78
751.686	22.97
751.866	22.83
752.046	23.4
752.225	23.59
752.405	22.11
752.585	21.46
752.764	20.29
752.944	19.14
753.123	19.26
753.303	19.17
753.482	19.81
753.662	21.51
753.841	21.91
754.021	20.93
754.2	20.28
754.38	21.09
754.559	23.34
754.739	22.78
754.918	22.56
755.097	21.3
755.277	21.86
755.456	21.33
755.635	20.98
755.815	21.02
755.994	20.16
756.173	19.25
756.352	19.9
756.532	19.19
756.711	19.85
756.89	22.8
757.069	22.24
757.248	23.2
757.427	24.26
757.607	24.62
757.786	24.06
757.965	25.39
758.144	25.87
758.323	26.2
758.502	25.32
758.681	25.7
758.86	23.19
759.039	25.14
759.218	23.58
759.397	23.3
759.576	20.2
759.755	19.69
759.934	20.6
760.113	20.41
760.291	21.07
760.47	22.01
760.649	22.8
760.828	23.73
761.007	23.3
761.186	23.23
761.364	23.3
761.543	26.01
761.722	26.65
761.901	24.9
762.079	25.81
762.258	24.42
762.437	23.9
762.615	24.15
762.794	24.43
762.972	24.38
763.151	24.19
763.33	23.82
763.508	22.64
763.687	22.65
763.865	23.29
764.044	22.88
764.222	23.32
764.401	23.37
764.579	21.72
764.758	20.75
764.936	20.66
765.114	20.66
765.293	20.77
765.471	21.54
765.65	20.97
765.828	21.39
766.006	21.92
766.184	22.52
766.363	21.68
766.541	22.46
766.719	23.46
766.898	23.7
767.076	24.46
767.254	25.03
767.432	24.74
767.61	25.78
767.788	25.71
767.967	24.66
768.145	24.03
768.323	24.5
768.501	25.28
768.679	25.33
768.857	25.58
769.035	24.58
769.213	23.73
769.391	23.78
769.569	23.3
769.747	23.15
769.925	23.22
770.103	22.18
770.281	20.92
770.459	21.05
770.636	19.76
770.814	17.8
770.992	18.38
771.17	17.75
771.348	18.44
771.525	18.35
771.703	17.75
771.881	19.39
772.059	20.62
772.236	24.15
772.414	24.04
772.592	24.95
772.769	26.03
772.947	26.34
773.125	26.28
773.302	26.73
773.48	27.36
773.657	27.39
773.835	27.62
774.013	25.2
774.19	23.59
774.368	24.91
774.545	24.37
774.723	25.26
774.9	26.29
775.077	26.55
775.255	27.03
775.432	27.71
775.61	29.27
775.787	27.99
775.964	31.13
776.142	29.36
776.319	28.08
776.496	28.89
776.674	29.75
776.851	27.59
777.028	29.6
777.205	29.01
777.382	30.56
777.56	29.41
777.737	31.24
777.914	30.47
778.091	31.73
778.268	30.77
778.445	32.27
778.622	30.41
778.8	29.59
778.977	28.41
779.154	28.02
779.331	25.81
779.508	24.6
779.685	24.05
779.862	25.46
780.038	24.11
780.215	24.06
780.392	22.39
780.569	23.45
780.746	25.46
780.923	25.88
781.1	26.7
781.277	28.62
781.453	30.29
781.63	31.42
781.807	30.36
781.984	34.5
782.16	34.19
782.337	34.58
782.514	33.37
782.691	34.78
782.867	36.98
783.044	37.19
783.221	36.87
783.397	39.84
783.574	40.37
783.75	41.26
783.927	39.85
784.103	41.84
784.28	42.51
784.456	41.95
784.633	40.59
784.809	36.3
784.986	35.24
785.162	33.87
785.339	29.09
785.515	24.92
785.692	22.11
785.868	21.34
786.044	21.46
786.221	21.85
786.397	23.94
786.573	24.48
786.749	25.13
786.926	24.4
787.102	24.93
787.278	25
787.454	28.59
787.631	29.8
787.807	28.72
787.983	26.68
788.159	27.07
788.335	22.61
788.511	21.69
788.687	23.29
788.863	25.16
789.039	25.47
789.216	26.92
789.392	24.67
789.568	25.28
789.744	28.46
789.919	30.82
790.095	28.71
790.271	31.34
790.447	33.15
790.623	32.68
790.799	29.31
790.975	27.51
791.151	28.64
791.327	30.59
791.502	31.37
791.678	31.5
791.854	30.59
792.03	31.74
792.205	33.5
792.381	31.53
792.557	34.38
792.733	39.47
792.908	41.32
793.084	40.71
793.259	37.76
793.435	37.38
793.611	34.42
793.786	33.88
793.962	32.53
794.137	31.66
794.313	31.14
794.488	28.44
794.664	25.14
794.839	22.65
795.015	22.8
795.19	22.57
795.366	24.8
795.541	26.22
795.716	25.77
795.892	27.99
796.067	28.11
796.242	27.33
796.418	27.22
796.593	30.57
796.768	31.03
796.944	29.14
797.119	32.07
797.294	29.25
797.469	31.22
797.644	32.42
797.82	31.27
797.995	30.98
798.17	34.45
798.345	34.33
798.52	31.99
798.695	33.41
798.87	34.16
799.045	32.32
799.22	33.64
799.395	32.53
799.57	29.52
799.745	28.72
799.92	30.08
800.095	31.22
800.27	30.64
800.445	31.91
800.62	31.55
800.795	31.06
800.97	32.3
801.145	30.75
801.319	31.29
801.494	36.61
801.669	41
801.844	41.14
802.018	39.5
802.193	41.8
802.368	38.35
802.543	39.26
802.717	43.46
802.892	40.09
803.067	42.37
803.241	44.14
803.416	39.56
803.59	37.38
803.765	34.27
803.94	29.54
804.114	28.01
804.289	30.08
804.463	30.01
804.638	28.2
804.812	31.15
804.986	27.21
805.161	23.87
805.335	25.12
805.51	24.73
805.684	24.21
805.858	29.61
806.033	30.22
806.207	31.4
806.381	31.43
806.556	32.48
806.73	28.11
806.904	28.51
807.078	29.54
807.253	33.35
807.427	31.07
807.601	35.64
807.775	33.86
807.949	35.73
808.123	38.35
808.298	39.64
808.472	37.31
808.646	40.97
808.82	41.63
808.994	39.37
809.168	38.25
809.342	40.77
809.516	36.69
809.69	37.66
809.864	37.97
810.038	34.06
810.212	33.61
810.385	33.64
810.559	34.2
810.733	35.07
810.907	35.52
811.081	35.1
811.255	39.63
811.428	42.28
811.602	40.92
811.776	40.7
811.95	40.09
812.123	41.01
812.297	40.04
812.471	40.89
812.644	40.95
812.818	41.87
812.992	42.46
813.165	38.92
813.339	38.06
813.512	36.09
813.686	35.67
813.86	38.32
814.033	38.76
814.207	43.22
814.38	41.42
814.554	44.79
814.727	47.07
814.9	43.31
815.074	41.95
815.247	43.04
815.421	45.52
815.594	41.63
815.767	38.21
815.941	37.5
816.114	35.49
816.287	34.29
816.46	31.65
816.634	27.89
816.807	30.93
816.98	33.29
817.153	33.53
817.327	30.26
817.5	33.43
817.673	35.19
817.846	32.69
818.019	29.63
818.192	33.11
818.365	28.43
818.538	30.51
818.711	30.95
818.884	27.39
819.057	27.19
819.23	29.63
819.403	31.02
819.576	31.81
819.749	32.87
819.922	33.79
820.095	33.66
820.268	35.61
820.441	34.59
820.614	32.05
820.786	31.09
820.959	28.74
821.132	27.47
821.305	26.77
821.477	24.81
821.65	23.57
821.823	22.6
821.996	22.57
822.168	21.79
822.341	22.23
822.514	21.81
822.686	21.67
822.859	21.86
823.031	22.13
823.204	21.78
823.376	21.83
823.549	21.89
823.722	22.31
823.894	22.03
824.067	22.89
824.239	21.84
824.411	23.11
824.584	24.02
824.756	24.82
824.929	24.79
825.101	25.26
825.273	25.73
825.446	25.52
825.618	26.81
825.79	27.35
825.963	26.73
826.135	26.63
826.307	26.92
826.479	24.97
826.652	23.48
826.824	23.94
826.996	23.77
827.168	24.17
827.34	25.28
827.512	24.52
827.684	24.53
827.856	24.11
828.029	25.03
828.201	23.18
828.373	25.43
828.545	25.12
828.717	24.12
828.889	23.1
829.061	23.61
829.232	24.2
829.404	21.66
829.576	20.19
829.748	21.55
829.92	23.49
830.092	26.01
830.264	24.47
830.436	26.64
830.607	29.26
830.779	32.4
830.951	32.68
831.123	31.36
831.294	33.89
831.466	33.26
831.638	32.69
831.809	31.84
831.981	28.7
832.153	30.92
832.324	29.13
832.496	29.42
832.667	29.19
832.839	30.05
833.011	28.39
833.182	28.85
833.354	28.43
833.525	26.17
833.697	26.79
833.868	27.36
834.039	26.18
834.211	26.1
834.382	24.43
834.554	23.96
834.725	21.53
834.896	21.86
835.068	23.89
835.239	24.53
835.41	27.39
835.581	26.91
835.753	29.53
835.924	32.49
836.095	31.9
836.266	33.26
836.438	33.43
836.609	34.21
836.78	36.7
836.951	36.79
837.122	37.49
837.293	35.88
837.464	37.11
837.635	38.15
837.806	34.01
837.977	36.63
838.148	38.74
838.319	39.56
838.49	43.03
838.661	44.9
838.832	40.58
839.003	43.87
839.174	47.63
839.345	46.74
839.516	45.88
839.687	54.31
839.857	48.27
840.028	43.48
840.199	41.18
840.37	37.9
840.54	32.68
840.711	35.94
840.882	27.84
841.053	28.84
841.223	33.06
841.394	29.93
841.564	26.44
841.735	29.63
841.906	28.88
842.076	29.86
842.247	33.48
842.417	39.87
842.588	42.56
842.758	48.41
842.929	46.65
843.099	46.59
843.27	45.71
843.44	45.78
843.611	50.72
843.781	48.74
843.951	53.91
844.122	59.05
844.292	55.52
844.462	58.73
844.633	66.32
844.803	57.51
844.973	46.89
845.144	47.36
845.314	49.64
845.484	46.24
845.654	63.99
845.824	62.45
845.995	51.99
846.165	54.91
846.335	52.49
846.505	50.29
846.675	68.28
846.845	78.78
847.015	98.39
847.185	99.71
847.355	95.74
847.525	86.84
847.695	83.45
847.865	90.57
848.035	87.46
848.205	88.35
848.375	100.1
848.545	92.55
848.715	93.85
848.884	90.71
849.054	81.04
849.224	84.37
849.394	97.97
849.564	77.13
849.733	65.79
849.903	53.14
850.073	60.72
850.243	38.51
850.412	50.18
850.582	43.69
850.752	37.04
850.921	46.82
851.091	47.03
851.26	23.97
851.43	48.49
851.599	51.54
851.769	64.75
851.939	56.58
852.108	65.76
852.278	63.67
852.447	63.03
852.616	49.02
852.786	53.51
852.955	54.26
853.125	53.23
853.294	53.19
853.463	59.04
853.633	60.25
853.802	65.06
853.971	80.93
854.141	77.85
854.31	72.47
854.479	87.6
854.648	79.53
854.818	81.7
854.987	92.83
855.156	100.32
855.325	91.88
855.494	103.08
855.663	83.53
855.832	68.67
856.001	79.31
856.171	82.61
856.34	71.77
856.509	76.3
856.678	74.79
856.847	65.46
857.016	58.18
857.185	68.24
857.353	50.7
857.522	58.13
857.691	59.77
857.86	44.29
858.029	46.2
858.198	54.56
858.367	50.02
858.535	49.77
858.704	50.89
858.873	54.56
859.042	50.81
859.21	58.21
859.379	65.87
859.548	67.69
859.717	76.96
859.885	62.77
860.054	54.32
860.222	58.73
860.391	52.98
860.56	79.19
860.728	76.3
860.897	78.92
861.065	76
861.234	81.24
861.402	67.19
861.571	70.74
861.739	76.12
861.908	80.41
862.076	74.86
862.244	75.43
862.413	60.39
862.581	64.2
862.749	62.76
862.918	59.39
863.086	64.18
863.254	69.02
863.423	75.35
863.591	79.69
863.759	80.54
863.927	84.74
864.096	89.2
864.264	91.27
864.432	83.71
864.6	85.84
864.768	83.99
864.936	82.47
865.104	110.86
865.272	92.65
865.44	118
865.608	117.77
865.776	132.26
865.944	154.43
866.112	156.59
866.28	190.76
866.448	179.79
866.616	200.85
866.784	215.67
866.952	148.85
867.12	147.22
867.288	122.24
867.455	134.94
867.623	129.66
867.791	90.25
867.959	87.09
868.127	60.9
868.294	70.69
868.462	71.85
868.63	64.31
868.797	67.74
868.965	63.7
869.133	62.47
869.3	58.51
869.468	63.65
869.636	88.13
869.803	82.61
869.971	100.44
870.138	129.99
870.306	129.28
870.473	126.25
870.641	116.42
870.808	133.84
870.975	131.07
871.143	138.03
871.31	143.48
871.478	117.54
871.645	121.51
871.812	120.08
871.98	98.82
872.147	94.7
872.314	94.77
872.482	97.15
872.649	87.04
872.816	74.58
872.983	79.42
873.15	70.23
873.318	82.94
873.485	76.85
873.652	72.66
873.819	67.2
873.986	60.18
874.153	73.42
874.32	79.16
874.487	75.41
874.654	65.99
874.821	53.31
874.988	64.37
875.155	57.68
875.322	37.61
875.489	38.53
875.656	35.13
875.823	41.15
875.99	34.34
876.157	36.43
876.324	50.97
876.49	57.57
876.657	57.13
876.824	60.27
876.991	52.2
877.157	71.6
877.324	74.39
877.491	85.28
877.658	76.25
877.824	75.01
877.991	73.93
878.157	69.85
878.324	76.8
878.491	81.01
878.657	77.96
878.824	83.48
878.99	71.2
879.157	67.57
879.323	64.23
879.49	57.73
879.656	68.48
879.823	56.98
879.989	56.81
880.156	57.76
880.322	60.08
880.488	61.83
880.655	63.82
880.821	57.86
880.987	65.04
881.154	54.98
881.32	51.62
881.486	46.77
881.652	44.26
881.819	46.65
881.985	44.1
882.151	43.45
882.317	43.43
882.483	44.27
882.649	43.44
882.816	39.49
882.982	39.49
883.148	39.64
883.314	39.5
883.48	39.67
883.646	36.06
883.812	35.87
883.978	34.35
884.144	32.19
884.31	31.05
884.476	31.93
884.642	34.56
884.807	35.98
884.973	36.18
885.139	36.11
885.305	34.44
885.471	38.45
885.637	39.51
885.802	40.37
885.968	39.34
886.134	40.31
886.3	39.69
886.465	38.21
886.631	37.8
886.797	41.26
886.962	41.96
887.128	46.73
887.293	45.67
887.459	41.52
887.625	43.23
887.79	45.87
887.956	45.23
888.121	51.49
888.287	52.97
888.452	54.71
888.618	52.3
888.783	54.25
