Data from 2938046_Reflection_3.txt Node
Date: Sun Jul 12 14:25:42 EDT 2015
User: robert
Spectrometer: USB4E03001
Autoset integration time: false
Trigger mode: 4
Integration Time (sec): 1.000000E-1
Scans to average: 10
Electric dark correction enabled: true
Nonlinearity correction enabled: false
Boxcar width: 5
Stray light correction enabled: false
XAxis mode: Wavelengths
Stop averaging: false
Number of Pixels in Spectrum: 3648
>>>>>Begin Spectral Data<<<<<
177.566	-47.95
177.785	-64.85
178.005	-65.7
178.225	-40.47
178.445	-21.4
178.665	19.69
178.885	-21.18
179.105	-726.67
179.324	184
179.544	184.3
179.764	345.89
179.984	239.84
180.204	292.24
180.423	168.26
180.643	195.79
180.863	175.73
181.083	213.68
181.302	144.89
181.522	135.69
181.742	173.34
181.961	164.47
182.181	139.64
182.401	151.59
182.621	116.76
182.84	105.95
183.06	105.56
183.279	89.63
183.499	76.15
183.719	74.39
183.938	73.65
184.158	76.46
184.377	93.91
184.597	123.56
184.816	112.31
185.036	173.08
185.256	222.4
185.475	140
185.695	135.35
185.914	173.1
186.134	188.42
186.353	185.73
186.572	136.34
186.792	112.02
187.011	103.29
187.231	107.07
187.45	95.3
187.67	111.45
187.889	118.84
188.108	119.07
188.328	86.54
188.547	72.2
188.766	59.58
188.986	67.69
189.205	75.61
189.424	58.44
189.644	74.32
189.863	84.95
190.082	67.5
190.302	75.7
190.521	83.09
190.74	104.07
190.959	150.43
191.178	117.25
191.398	167.46
191.617	172.91
191.836	300.93
192.055	259.95
192.274	266.93
192.494	842.04
192.713	231.5
192.932	164.47
193.151	111.16
193.37	81.05
193.589	82.81
193.808	65.67
194.027	69.56
194.246	69.77
194.465	84.84
194.685	107.35
194.904	121.35
195.123	183.86
195.342	205.01
195.561	266.08
195.78	421.16
195.999	307.23
196.218	292.09
196.436	298.38
196.655	460.37
196.874	330.52
197.093	254.03
197.312	211.52
197.531	198.42
197.75	139.88
197.969	152.28
198.188	137.53
198.407	144.53
198.625	140.22
198.844	109.12
199.063	93.18
199.282	78.29
199.501	69.79
199.719	67.12
199.938	56.69
200.157	95.6
200.376	82.86
200.594	82.31
200.813	89.34
201.032	92.86
201.251	115.25
201.469	125.2
201.688	118.45
201.907	122.91
202.125	125.24
202.344	101.72
202.563	108.83
202.781	145.8
203	124.1
203.218	108.19
203.437	127.42
203.656	97.57
203.874	96.44
204.093	89.86
204.311	91.32
204.53	112.61
204.748	199.62
204.967	160.89
205.185	138.3
205.404	178.15
205.622	234.83
205.841	138.09
206.059	130.55
206.278	133.4
206.496	124.82
206.715	143.78
206.933	124.8
207.151	119.39
207.37	122.75
207.588	105.92
207.806	103.22
208.025	112.1
208.243	124.02
208.461	159.38
208.68	216.74
208.898	244.13
209.116	193.76
209.335	238.96
209.553	126.55
209.771	142.74
209.989	102.49
210.208	99.69
210.426	107.59
210.644	73.94
210.862	82.05
211.081	73.05
211.299	90.45
211.517	85.91
211.735	83.53
211.953	88.26
212.171	85.33
212.39	84.12
212.608	84.29
212.826	79.17
213.044	81.96
213.262	85.26
213.48	90.46
213.698	88.72
213.916	88.8
214.134	83.55
214.352	87.02
214.57	82.02
214.788	91.29
215.006	87.08
215.224	85.39
215.442	83.9
215.66	74.39
215.878	48.18
216.096	43.54
216.314	32.51
216.532	43.72
216.75	44.89
216.968	53.67
217.185	51.17
217.403	62.74
217.621	62.49
217.839	64.77
218.057	64.77
218.275	81.59
218.492	88.08
218.71	92.56
218.928	82.96
219.146	81.6
219.363	74.1
219.581	88.29
219.799	75.35
220.017	78.6
220.234	81.54
220.452	73.06
220.67	58.81
220.887	54.2
221.105	48.43
221.323	61.87
221.54	64.81
221.758	59.75
221.976	39.45
222.193	42.5
222.411	43.42
222.629	33.39
222.846	40.08
223.064	45.34
223.281	42.37
223.499	27.06
223.716	38.16
223.934	22.14
224.151	34.5
224.369	46.63
224.586	55.37
224.804	42.67
225.021	58.19
225.239	51.88
225.456	54.21
225.674	47.23
225.891	51.52
226.108	40.61
226.326	45.03
226.543	44.87
226.76	41.6
226.978	40.19
227.195	42.4
227.413	34.81
227.63	33.21
227.847	26.34
228.064	25.4
228.282	20.93
228.499	18.95
228.716	20.14
228.934	18.67
229.151	19.3
229.368	18.1
229.585	13.65
229.802	15.36
230.02	15.14
230.237	16.64
230.454	15.38
230.671	16.83
230.888	19.13
231.105	18.54
231.323	16.68
231.54	18.26
231.757	21.01
231.974	25.71
232.191	25.32
232.408	22.48
232.625	21.29
232.842	22.37
233.059	28.19
233.276	27.16
233.493	25.81
233.71	23.88
233.927	21.39
234.144	16.72
234.361	21.61
234.578	26.67
234.795	27.65
235.012	27.81
235.229	27.59
235.446	31.12
235.663	33.08
235.879	35.43
236.096	39.44
236.313	39.24
236.53	39.02
236.747	35.48
236.964	30.91
237.181	22.88
237.397	25.02
237.614	26.22
237.831	18.59
238.048	19.37
238.264	18.19
238.481	21.3
238.698	21.43
238.915	19.01
239.131	16.47
239.348	18.18
239.565	25.55
239.781	25.59
239.998	22.31
240.215	22.78
240.431	23.5
240.648	23.22
240.865	20.35
241.081	18.18
241.298	18.28
241.514	18.07
241.731	16.06
241.947	14.06
242.164	13
242.38	13.47
242.597	10.9
242.814	8.99
243.03	10
243.246	9.12
243.463	8.59
243.679	8.38
243.896	9.15
244.112	10.65
244.329	11.56
244.545	12.53
244.762	15.69
244.978	17.42
245.194	18.05
245.411	16.24
245.627	15.84
245.843	15.38
246.06	16.13
246.276	13.72
246.492	11.52
246.709	9.92
246.925	8.77
247.141	6.81
247.357	5.82
247.574	6.07
247.79	6.46
248.006	6.91
248.222	6.3
248.439	6.66
248.655	8.25
248.871	8.2
249.087	9.22
249.303	11.36
249.519	13.39
249.736	15.43
249.952	14.87
250.168	15.56
250.384	14.84
250.6	14.27
250.816	13.36
251.032	11.23
251.248	12.32
251.464	12.45
251.68	10.86
251.896	9.47
252.112	9.51
252.328	10.02
252.544	8.52
252.76	8.8
252.976	10.68
253.192	11.55
253.408	11.71
253.624	14.66
253.84	15.83
254.056	16.42
254.272	18.41
254.487	21.14
254.703	21.34
254.919	23.5
255.135	25.14
255.351	25.43
255.567	25.25
255.782	24.89
255.998	21.81
256.214	21.13
256.43	22.45
256.646	19.94
256.861	16.54
257.077	15.2
257.293	15.11
257.508	13.35
257.724	13.37
257.94	11.03
258.155	11.44
258.371	11.98
258.587	10.6
258.802	8.84
259.018	8.02
259.234	8.07
259.449	7.92
259.665	7.62
259.88	8.16
260.096	8.49
260.312	8.34
260.527	7.39
260.743	6.38
260.958	6.73
261.174	6.41
261.389	7
261.605	7.18
261.82	7.62
262.036	7.81
262.251	8.77
262.466	9.31
262.682	10.1
262.897	11.31
263.113	12.71
263.328	11.09
263.543	12.73
263.759	13.89
263.974	13.77
264.189	13.5
264.405	11.36
264.62	10.73
264.835	9.59
265.051	9.61
265.266	8.4
265.481	8.62
265.696	11.05
265.912	9.9
266.127	10.64
266.342	8.77
266.557	8.81
266.773	11.27
266.988	8.99
267.203	8.19
267.418	8.37
267.633	8.32
267.848	8.84
268.064	8.82
268.279	9.5
268.494	7.64
268.709	8.45
268.924	8.65
269.139	8.77
269.354	9.98
269.569	9.77
269.784	7.95
269.999	8.24
270.214	7.51
270.429	6.91
270.644	6.24
270.859	7.22
271.074	7.51
271.289	7.72
271.504	7.23
271.719	7.68
271.934	7.53
272.149	8.28
272.363	9.04
272.578	8.82
272.793	9.46
273.008	9.81
273.223	9.56
273.438	10.13
273.653	9.58
273.867	9.06
274.082	8.87
274.297	10.19
274.512	9.97
274.726	9.47
274.941	8.48
275.156	9.05
275.371	8.64
275.585	9.16
275.8	8.35
276.015	8.9
276.229	8.83
276.444	8.46
276.659	7.25
276.873	7.9
277.088	8.93
277.302	9.58
277.517	6.11
277.732	5.57
277.946	5.07
278.161	5.46
278.375	3.74
278.59	6.1
278.804	5.99
279.019	7.1
279.233	6.96
279.448	4.79
279.662	5.09
279.877	6.34
280.091	6.79
280.306	6.47
280.52	5.8
280.735	8.64
280.949	7.75
281.163	7.61
281.378	6.88
281.592	8.41
281.806	9.24
282.021	9.17
282.235	11.71
282.449	13.11
282.664	13.48
282.878	14.35
283.092	12.84
283.307	11.93
283.521	12.62
283.735	12.41
283.949	11.26
284.164	10.6
284.378	10.36
284.592	9.35
284.806	6.81
285.02	5.86
285.234	4.9
285.449	6.95
285.663	7.69
285.877	6.67
286.091	7.21
286.305	7.34
286.519	7.77
286.733	7.8
286.947	6.76
287.161	9.43
287.375	10.58
287.589	10.65
287.803	9.21
288.017	8.56
288.231	9.9
288.445	8.76
288.659	9.3
288.873	8.99
289.087	10.08
289.301	10.71
289.515	8.21
289.729	5.8
289.943	7.68
290.157	8.14
290.371	9.23
290.584	8.88
290.798	10.13
291.012	9.76
291.226	11.56
291.44	10.83
291.654	11.91
291.867	13.4
292.081	14.68
292.295	13.71
292.509	15.98
292.722	15.02
292.936	15.36
293.15	14.18
293.364	13.69
293.577	13.37
293.791	14.29
294.005	13.08
294.218	11.54
294.432	10.84
294.645	11.12
294.859	7.78
295.073	7.22
295.286	6.38
295.5	6.78
295.713	6.31
295.927	5.05
296.14	3.46
296.354	4.05
296.568	4.23
296.781	6.27
296.994	7.9
297.208	8.86
297.421	9.58
297.635	9.88
297.848	9.57
298.062	9.46
298.275	9.5
298.489	10.02
298.702	9.3
298.915	9.85
299.129	8.59
299.342	7.42
299.555	7.73
299.769	7.83
299.982	8.31
300.195	10.18
300.409	11.15
300.622	11.09
300.835	12.43
301.048	13.78
301.262	14.87
301.475	16.49
301.688	14.79
301.901	14.84
302.115	15.17
302.328	14.62
302.541	13.21
302.754	12.97
302.967	13.54
303.18	13.52
303.393	13.16
303.607	11.89
303.82	11.21
304.033	13.42
304.246	12.24
304.459	11.2
304.672	12.15
304.885	13.01
305.098	13.92
305.311	13.22
305.524	12.6
305.737	13.46
305.95	13.53
306.163	14.8
306.376	13.24
306.589	14.13
306.802	14.74
307.015	14.05
307.228	12.62
307.44	11.04
307.653	11.58
307.866	11.8
308.079	13.63
308.292	14.88
308.505	12.84
308.718	12.28
308.93	12.94
309.143	13.53
309.356	13.65
309.569	15.25
309.781	16.39
309.994	16.9
310.207	17.6
310.42	14.58
310.632	14.5
310.845	14.17
311.058	15.6
311.27	15.36
311.483	13.02
311.696	12.23
311.908	13.22
312.121	12.83
312.333	13.96
312.546	13.54
312.759	14.56
312.971	14.96
313.184	15.9
313.396	15.64
313.609	15.1
313.821	17.01
314.034	18.21
314.246	15.47
314.459	15.52
314.671	15.17
314.884	15.44
315.096	14.7
315.309	14.77
315.521	14.18
315.733	14.2
315.946	15.35
316.158	15.91
316.371	17.55
316.583	18.87
316.795	21
317.008	20.76
317.22	20.84
317.432	20.97
317.644	20.43
317.857	21.69
318.069	22.09
318.281	21.94
318.494	22.11
318.706	21.14
318.918	20.33
319.13	19.78
319.342	19.67
319.555	20.16
319.767	21.21
319.979	20.77
320.191	20.19
320.403	19.67
320.615	18.01
320.827	18.44
321.039	17.93
321.252	19.14
321.464	16.37
321.676	15.61
321.888	14.36
322.1	12.97
322.312	13.92
322.524	16.2
322.736	16.58
322.948	17.18
323.16	15.99
323.372	16.44
323.584	14.78
323.796	18.44
324.007	18.5
324.219	18.63
324.431	18.25
324.643	18.48
324.855	16.24
325.067	16.7
325.279	17.53
325.491	18.06
325.702	18.61
325.914	19.33
326.126	16.03
326.338	16.42
326.55	17.51
326.761	19.63
326.973	20.14
327.185	21.06
327.396	20.88
327.608	21.37
327.82	22.45
328.032	21.09
328.243	21.77
328.455	22.47
328.666	22.87
328.878	21.98
329.09	21.59
329.301	20.35
329.513	21.02
329.725	19.26
329.936	20.47
330.148	19.12
330.359	20.08
330.571	19.68
330.782	20.98
330.994	20.57
331.205	21.1
331.417	21.45
331.628	21.19
331.84	19.05
332.051	20.6
332.262	18.12
332.474	20.05
332.685	20.46
332.897	20.68
333.108	20.14
333.319	21.14
333.531	20.05
333.742	21.13
333.953	22.61
334.165	23.37
334.376	23.48
334.587	24.37
334.799	24.37
335.01	24.88
335.221	25.84
335.432	25.88
335.644	25.4
335.855	25.29
336.066	25.12
336.277	25.09
336.488	25.77
336.7	27.03
336.911	28.03
337.122	27.26
337.333	27.13
337.544	27.1
337.755	27.73
337.966	27.75
338.177	28.57
338.388	27.8
338.599	27.89
338.811	27.85
339.022	26.89
339.233	25.82
339.444	26.77
339.655	25.58
339.866	24.74
340.076	24.76
340.287	25.71
340.498	26.6
340.709	25.92
340.92	25.48
341.131	26.07
341.342	26.87
341.553	27.83
341.764	26.82
341.975	27.23
342.185	28.2
342.396	27.94
342.607	26.89
342.818	25.53
343.029	26.54
343.239	26.76
343.45	26.32
343.661	25.52
343.872	24.25
344.082	24.28
344.293	23.88
344.504	24.24
344.714	23.57
344.925	23.25
345.136	24.15
345.346	24.47
345.557	24.73
345.768	24.75
345.978	24.16
346.189	24.12
346.399	23.75
346.61	24.11
346.821	23.77
347.031	25.02
347.242	24.46
347.452	24.13
347.663	23.71
347.873	24.14
348.084	26.19
348.294	27.36
348.504	28.1
348.715	28.27
348.925	29.22
349.136	28.97
349.346	28
349.557	28.37
349.767	28.19
349.977	28.36
350.188	27.9
350.398	26.21
350.608	26
350.819	25.97
351.029	26.79
351.239	26.71
351.449	27.56
351.66	27.92
351.87	29.21
352.08	29.59
352.29	29.55
352.501	30.06
352.711	30.71
352.921	30.34
353.131	30.23
353.341	29.48
353.552	29.37
353.762	29.44
353.972	29.14
354.182	28.34
354.392	29.22
354.602	29.04
354.812	28.05
355.022	27.69
355.232	27.85
355.442	28.58
355.652	29.64
355.862	29.9
356.072	29.17
356.282	28.96
356.492	30.37
356.702	29.19
356.912	28.85
357.122	29.79
357.332	29.54
357.542	28.98
357.752	28.37
357.962	28.41
358.171	28.87
358.381	29.55
358.591	29.56
358.801	28.68
359.011	29.2
359.221	29.86
359.43	29.19
359.64	30.02
359.85	31.57
360.06	31.85
360.269	31.33
360.479	30.54
360.689	29.54
360.899	30.33
361.108	29.74
361.318	29.41
361.528	28.95
361.737	28.36
361.947	27.78
362.156	26.85
362.366	26.79
362.576	27.01
362.785	27.48
362.995	27.87
363.204	27.56
363.414	27.75
363.623	27.48
363.833	28.12
364.042	28.77
364.252	29.22
364.461	29.54
364.671	29.09
364.88	28.54
365.09	27.67
365.299	27.84
365.509	28.23
365.718	27.82
365.927	28.78
366.137	28.74
366.346	29.45
366.555	28.65
366.765	28.86
366.974	29.56
367.183	29.39
367.393	30.7
367.602	30.97
367.811	31.24
368.021	31.73
368.23	31.31
368.439	31.57
368.648	31.37
368.857	31.59
369.067	31.42
369.276	31.16
369.485	31.34
369.694	29.9
369.903	29.19
370.112	28.82
370.321	28.58
370.531	28.96
370.74	28.91
370.949	28.71
371.158	29.08
371.367	28.62
371.576	28.44
371.785	28.91
371.994	29.7
372.203	30.18
372.412	30.79
372.621	31.4
372.83	31.53
373.039	31.17
373.248	30.52
373.457	30.3
373.666	30.57
373.874	30.41
374.083	30.03
374.292	29.08
374.501	28.36
374.71	27.08
374.919	26.65
375.128	26.28
375.336	25.83
375.545	25.95
375.754	25.18
375.963	25.18
376.171	25.36
376.38	25.39
376.589	25.89
376.798	26.05
377.006	26.27
377.215	26.36
377.424	26.49
377.632	26.34
377.841	26.51
378.05	26.94
378.258	27
378.467	26.99
378.675	26.76
378.884	26.61
379.093	26.33
379.301	26.46
379.51	26.54
379.718	25.95
379.927	26.45
380.135	26.46
380.344	26.36
380.552	26.29
380.761	26.15
380.969	26.69
381.177	27.21
381.386	27.67
381.594	27.34
381.803	27.07
382.011	27.22
382.219	26.82
382.428	26.66
382.636	26.79
382.845	26.81
383.053	27.02
383.261	26.76
383.469	25.99
383.678	25.47
383.886	26
384.094	25.64
384.302	25.66
384.511	25.78
384.719	25.89
384.927	25.64
385.135	25.49
385.343	25.71
385.552	25.83
385.76	26.15
385.968	26.37
386.176	26
386.384	26.36
386.592	26.43
386.8	26.32
387.008	26.28
387.216	26.42
387.424	26.3
387.633	25.78
387.841	25.49
388.049	25.47
388.257	25.41
388.465	25.16
388.672	24.76
388.88	24.91
389.088	24.88
389.296	24.71
389.504	24.26
389.712	24.25
389.92	24.36
390.128	24.13
390.336	23.92
390.544	24.13
390.751	24.14
390.959	24.18
391.167	23.87
391.375	23.84
391.583	24.12
391.79	24.35
391.998	24.46
392.206	24.4
392.414	24.52
392.621	24.58
392.829	24.24
393.037	24.37
393.244	24.61
393.452	24.36
393.66	24.58
393.867	24.49
394.075	24.48
394.283	24.31
394.49	24.47
394.698	24.58
394.905	24.82
395.113	24.77
395.32	25.02
395.528	25.07
395.735	25.51
395.943	25.64
396.15	25.73
396.358	25.92
396.565	26.03
396.773	26.07
396.98	26.27
397.188	25.92
397.395	25.97
397.602	26.26
397.81	26.29
398.017	26.11
398.225	25.89
398.432	25.82
398.639	26.12
398.847	26.38
399.054	26.41
399.261	26.26
399.468	26.74
399.676	27.36
399.883	27.13
400.09	27.12
400.297	27.25
400.505	27.07
400.712	27.16
400.919	26.76
401.126	26.65
401.333	26.68
401.54	26.7
401.748	26.2
401.955	25.8
402.162	25.86
402.369	25.87
402.576	26.07
402.783	26.3
402.99	26.21
403.197	26.48
403.404	26.56
403.611	26.43
403.818	26.16
404.025	26.22
404.232	26.32
404.439	26.29
404.646	26.3
404.853	26.32
405.06	26.48
405.267	26.33
405.474	26.3
405.681	26.23
405.887	26.47
406.094	26.78
406.301	26.95
406.508	27.01
406.715	26.94
406.922	26.89
407.128	26.69
407.335	26.53
407.542	26.55
407.749	26.53
407.955	26.57
408.162	26.48
408.369	26.39
408.575	26.35
408.782	26.37
408.989	26.1
409.195	26.46
409.402	26.54
409.609	26.61
409.815	26.93
410.022	26.75
410.228	26.85
410.435	26.99
410.642	27.11
410.848	26.96
411.055	26.94
411.261	27.1
411.468	26.87
411.674	26.89
411.881	27.05
412.087	26.92
412.294	27.16
412.5	27.15
412.706	26.88
412.913	26.87
413.119	26.88
413.326	26.39
413.532	26.31
413.738	26.5
413.945	26.42
414.151	26.56
414.357	26.6
414.564	26.17
414.77	26.17
414.976	26.06
415.182	25.86
415.389	25.91
415.595	26.28
415.801	26.38
416.007	26.21
416.214	26.34
416.42	25.77
416.626	25.71
416.832	26.2
417.038	26.06
417.244	25.99
417.45	26.13
417.657	26.17
417.863	26
418.069	25.82
418.275	25.83
418.481	25.65
418.687	25.72
418.893	25.73
419.099	25.46
419.305	25.41
419.511	25.44
419.717	25.4
419.923	25.29
420.129	25.36
420.335	25.44
420.541	25.21
420.746	25.16
420.952	25.18
421.158	25.14
421.364	24.98
421.57	24.91
421.776	24.88
421.982	24.67
422.187	24.62
422.393	24.52
422.599	24.45
422.805	24.56
423.01	24.72
423.216	24.72
423.422	24.68
423.628	24.82
423.833	24.78
424.039	24.63
424.245	24.75
424.45	24.64
424.656	24.66
424.862	24.49
425.067	24.38
425.273	24.09
425.478	24.15
425.684	24
425.889	23.89
426.095	23.78
426.301	23.9
426.506	23.84
426.712	24.02
426.917	23.91
427.123	24.05
427.328	24.22
427.533	24.51
427.739	24.11
427.944	24.37
428.15	24.45
428.355	24.6
428.561	24.44
428.766	24.41
428.971	24.43
429.177	24.64
429.382	24.73
429.587	24.82
429.793	24.64
429.998	24.78
430.203	24.43
430.408	24.35
430.614	24.51
430.819	24.75
431.024	24.77
431.229	24.75
431.434	24.58
431.64	24.31
431.845	24.21
432.05	24.24
432.255	24.25
432.46	24.47
432.665	24.5
432.87	24.3
433.076	24.27
433.281	24.33
433.486	24.3
433.691	24.18
433.896	24.39
434.101	24.22
434.306	24.17
434.511	24.21
434.716	24.33
434.921	24.39
435.126	24.54
435.331	24.54
435.535	24.34
435.74	24.44
435.945	24.52
436.15	24.34
436.355	24.25
436.56	24.29
436.765	24.32
436.97	24.22
437.174	24.1
437.379	23.87
437.584	23.95
437.789	24.04
437.993	23.87
438.198	24.03
438.403	24.03
438.608	24.16
438.812	24.22
439.017	24.2
439.222	24.06
439.426	24.16
439.631	24.19
439.836	24.12
440.04	24.2
440.245	24.31
440.45	24.39
440.654	24.45
440.859	24.41
441.063	24.29
441.268	24.31
441.472	24.36
441.677	24.47
441.881	24.56
442.086	24.54
442.29	24.56
442.495	24.48
442.699	24.35
442.904	24.31
443.108	24.5
443.312	24.64
443.517	24.7
443.721	24.76
443.925	24.62
444.13	24.51
444.334	24.39
444.538	24.35
444.743	24.35
444.947	24.25
445.151	24.23
445.356	24.09
445.56	24.12
445.764	23.99
445.968	23.82
446.173	23.77
446.377	23.83
446.581	23.99
446.785	23.92
446.989	23.98
447.193	23.96
447.398	24.07
447.602	24.05
447.806	23.93
448.01	24.08
448.214	24.15
448.418	24.23
448.622	24.26
448.826	24
449.03	23.99
449.234	23.66
449.438	23.64
449.642	23.48
449.846	23.66
450.05	23.72
450.254	23.68
450.458	23.71
450.662	23.69
450.866	23.57
451.069	23.92
451.273	23.98
451.477	24.29
451.681	24.4
451.885	24.28
452.089	24.05
452.292	23.9
452.496	23.68
452.7	23.69
452.904	23.58
453.107	23.61
453.311	23.42
453.515	23.4
453.719	23.29
453.922	23.29
454.126	23.39
454.33	23.55
454.533	23.58
454.737	23.57
454.94	23.43
455.144	23.36
455.348	23.33
455.551	23.38
455.755	23.66
455.958	23.65
456.162	23.62
456.365	23.58
456.569	23.35
456.772	23.46
456.976	23.51
457.179	23.59
457.383	23.59
457.586	23.71
457.79	23.52
457.993	23.09
458.196	23.18
458.4	23.18
458.603	23.21
458.807	23.4
459.01	23.4
459.213	23.3
459.417	23.33
459.62	23.36
459.823	23.42
460.026	23.65
460.23	23.76
460.433	23.77
460.636	23.72
460.839	23.85
461.042	23.7
461.246	23.74
461.449	23.84
461.652	23.93
461.855	23.92
462.058	23.8
462.261	23.71
462.464	23.85
462.668	23.83
462.871	24.09
463.074	24.01
463.277	24.19
463.48	24.28
463.683	24.22
463.886	24.19
464.089	24.27
464.292	24.24
464.495	24.05
464.698	23.9
464.901	23.9
465.104	23.7
465.306	23.7
465.509	23.79
465.712	23.65
465.915	23.69
466.118	23.85
466.321	23.76
466.524	23.96
466.726	24.04
466.929	24.23
467.132	24.32
467.335	24.34
467.538	24.49
467.74	24.4
467.943	24.42
468.146	24.54
468.348	24.4
468.551	24.57
468.754	24.37
468.956	24.22
469.159	24.19
469.362	24.2
469.564	24.38
469.767	24.5
469.969	24.48
470.172	24.59
470.375	24.67
470.577	24.52
470.78	24.56
470.982	24.73
471.185	24.95
471.387	25
471.59	24.95
471.792	25.06
471.995	25.17
472.197	25.19
472.399	25.04
472.602	24.98
472.804	25.18
473.007	25.18
473.209	25.18
473.411	25.35
473.614	25.45
473.816	25.44
474.018	25.41
474.22	25.17
474.423	25.2
474.625	25.22
474.827	25.28
475.03	25.33
475.232	25.26
475.434	25.23
475.636	25.2
475.838	25.16
476.04	25.26
476.243	25.14
476.445	25.1
476.647	25.08
476.849	25.17
477.051	25.03
477.253	25.08
477.455	25.13
477.657	25.12
477.859	25.11
478.061	25.1
478.263	25.06
478.465	25.05
478.667	25.03
478.869	25.1
479.071	25.08
479.273	25.35
479.475	25.26
479.677	25.36
479.879	25.37
480.081	25.21
480.283	25.16
480.485	25.1
480.686	25.11
480.888	25.14
481.09	24.99
481.292	24.93
481.494	24.68
481.695	24.66
481.897	24.5
482.099	24.5
482.301	24.54
482.502	24.48
482.704	24.41
482.906	24.35
483.107	24.32
483.309	24.31
483.511	24.32
483.712	24.38
483.914	24.33
484.115	24.26
484.317	24.11
484.519	24.09
484.72	24.03
484.922	24.11
485.123	24.06
485.325	24.05
485.526	24.07
485.728	24.13
485.929	24.02
486.131	24.05
486.332	24.16
486.534	24.35
486.735	24.29
486.936	24.32
487.138	24.18
487.339	24.21
487.541	24.13
487.742	24.12
487.943	24.06
488.144	24.09
488.346	24.03
488.547	24.03
488.748	24.02
488.95	24.11
489.151	24.16
489.352	24.23
489.553	24.23
489.755	24.29
489.956	24.27
490.157	24.28
490.358	24.24
490.559	24.28
490.76	24.26
490.961	24.23
491.163	24.27
491.364	24.27
491.565	24.27
491.766	24.33
491.967	24.38
492.168	24.44
492.369	24.44
492.57	24.59
492.771	24.62
492.972	24.65
493.173	24.71
493.374	24.72
493.575	24.8
493.776	24.85
493.976	24.97
494.177	24.99
494.378	24.89
494.579	24.95
494.78	24.78
494.981	24.84
495.182	24.82
495.382	24.86
495.583	24.87
495.784	24.74
495.985	24.72
496.185	24.62
496.386	24.72
496.587	24.85
496.788	24.85
496.988	25.02
497.189	25.04
497.39	25.15
497.59	25.05
497.791	25.08
497.992	25.18
498.192	25.23
498.393	25.15
498.593	25.09
498.794	25.2
498.994	25.14
499.195	25.1
499.395	25.2
499.596	25.19
499.796	25.24
499.997	25.33
500.197	25.3
500.398	25.27
500.598	25.38
500.799	25.49
500.999	25.45
501.199	25.58
501.4	25.66
501.6	25.61
501.801	25.45
502.001	25.53
502.201	25.26
502.402	25.25
502.602	25.33
502.802	25.29
503.002	25.24
503.203	25.23
503.403	25.35
503.603	25.4
503.803	25.38
504.003	25.59
504.204	25.71
504.404	25.86
504.604	25.95
504.804	25.96
505.004	26.07
505.204	26.12
505.404	26.14
505.604	26.1
505.804	26.04
506.005	26.08
506.205	25.87
506.405	25.88
506.605	25.94
506.805	25.8
507.005	26.04
507.204	26.06
507.404	26.07
507.604	26.12
507.804	26.15
508.004	26.2
508.204	26.32
508.404	26.53
508.604	26.45
508.804	26.6
509.003	26.82
509.203	26.8
509.403	26.87
509.603	26.87
509.803	26.86
510.002	26.98
510.202	26.99
510.402	26.93
510.602	26.95
510.801	26.91
511.001	26.8
511.201	26.83
511.4	26.77
511.6	26.75
511.8	26.77
511.999	26.95
512.199	26.94
512.398	26.96
512.598	26.97
512.797	27.05
512.997	27.12
513.197	27.2
513.396	27.14
513.596	27.3
513.795	27.35
513.994	27.41
514.194	27.29
514.393	27.19
514.593	27.27
514.792	27.53
514.992	27.59
515.191	27.7
515.39	27.85
515.59	27.96
515.789	27.86
515.988	27.83
516.188	27.83
516.387	27.93
516.586	28.05
516.786	27.99
516.985	27.84
517.184	27.7
517.383	27.75
517.582	27.67
517.782	27.69
517.981	27.64
518.18	27.7
518.379	27.76
518.578	27.74
518.777	27.78
518.976	27.88
519.176	27.95
519.375	28.04
519.574	28.05
519.773	28.12
519.972	28.05
520.171	28.11
520.37	28.23
520.569	28.28
520.768	28.23
520.967	28.26
521.166	28.25
521.365	28.33
521.564	28.38
521.762	28.42
521.961	28.34
522.16	28.39
522.359	28.45
522.558	28.23
522.757	28.06
522.956	28.2
523.154	28.12
523.353	28.16
523.552	28.1
523.751	28.14
523.949	28.19
524.148	28.3
524.347	28.27
524.546	28.22
524.744	28.36
524.943	28.54
525.142	28.5
525.34	28.55
525.539	28.43
525.737	28.46
525.936	28.36
526.135	28.3
526.333	28.17
526.532	28.23
526.73	28.18
526.929	28.13
527.127	28.17
527.326	28.16
527.524	28.03
527.723	28.02
527.921	28.02
528.12	28.04
528.318	28.08
528.516	28.14
528.715	28.19
528.913	28.19
529.112	28.25
529.31	28.22
529.508	28.21
529.707	28.28
529.905	28.39
530.103	28.38
530.301	28.46
530.5	28.49
530.698	28.49
530.896	28.38
531.094	28.48
531.293	28.48
531.491	28.51
531.689	28.56
531.887	28.65
532.085	28.58
532.283	28.63
532.481	28.58
532.68	28.57
532.878	28.67
533.076	28.74
533.274	28.71
533.472	28.77
533.67	28.72
533.868	28.75
534.066	28.68
534.264	28.78
534.462	28.88
534.66	28.89
534.858	28.9
535.056	28.88
535.253	28.95
535.451	28.94
535.649	28.89
535.847	28.97
536.045	28.93
536.243	29
536.441	28.96
536.638	28.8
536.836	28.88
537.034	28.94
537.232	28.82
537.43	28.8
537.627	28.91
537.825	28.91
538.023	28.94
538.22	28.99
538.418	28.97
538.616	29.01
538.813	29.23
539.011	29.25
539.209	29.31
539.406	29.33
539.604	29.33
539.801	29.28
539.999	29.32
540.196	29.29
540.394	29.28
540.591	29.16
540.789	29.06
540.986	28.96
541.184	29
541.381	28.95
541.579	28.96
541.776	28.95
541.974	28.96
542.171	28.91
542.368	28.85
542.566	28.88
542.763	28.98
542.96	28.99
543.158	28.9
543.355	28.86
543.552	28.9
543.75	29.03
543.947	29.1
544.144	29.1
544.341	29.15
544.539	29.18
544.736	29.21
544.933	29.33
545.13	29.44
545.327	29.58
545.524	29.68
545.722	29.7
545.919	29.61
546.116	29.5
546.313	29.64
546.51	29.61
546.707	29.72
546.904	29.73
547.101	29.75
547.298	29.76
547.495	29.76
547.692	29.74
547.889	29.76
548.086	29.79
548.283	29.99
548.48	30.08
548.677	30.23
548.874	30.28
549.07	30.19
549.267	30.18
549.464	30.15
549.661	30.13
549.858	30.09
550.055	30.01
550.251	30.09
550.448	29.91
550.645	29.78
550.842	29.68
551.038	29.81
551.235	30.08
551.432	30.08
551.628	30.26
551.825	30.31
552.022	30.48
552.218	30.66
552.415	30.82
552.612	30.94
552.808	31.06
553.005	31.15
553.201	31.07
553.398	31.07
553.594	31.03
553.791	30.98
553.987	31.04
554.184	30.97
554.38	30.82
554.577	30.68
554.773	30.69
554.97	30.75
555.166	30.67
555.362	30.62
555.559	30.4
555.755	30.41
555.952	30.69
556.148	30.52
556.344	30.4
556.541	30.58
556.737	30.76
556.933	30.72
557.129	30.54
557.326	30.5
557.522	30.54
557.718	30.67
557.914	30.59
558.11	30.13
558.307	30.49
558.503	30.61
558.699	30.38
558.895	30.19
559.091	30.27
559.287	30.23
559.483	30.31
559.679	30.26
559.876	30.34
560.072	30.49
560.268	30.64
560.464	30.38
560.66	30.28
560.856	30.43
561.052	30.5
561.247	30.64
561.443	30.72
561.639	30.91
561.835	31.15
562.031	31.1
562.227	31.09
562.423	31.06
562.619	31.25
562.815	31.18
563.01	31.34
563.206	31.31
563.402	31.14
563.598	30.94
563.793	30.93
563.989	30.69
564.185	30.88
564.381	30.89
564.576	31.11
564.772	30.9
564.968	31.12
565.163	31.02
565.359	31.07
565.555	31.14
565.75	31.39
565.946	31.29
566.141	31.55
566.337	31.6
566.532	31.52
566.728	31.47
566.923	31.63
567.119	31.52
567.314	31.41
567.51	31.37
567.705	31.28
567.901	31.25
568.096	31.07
568.292	30.85
568.487	30.78
568.682	30.8
568.878	30.92
569.073	30.88
569.268	31.12
569.464	31.19
569.659	31.23
569.854	31.28
570.05	31.35
570.245	31.57
570.44	31.6
570.635	31.47
570.831	31.55
571.026	31.53
571.221	31.46
571.416	31.34
571.611	31.34
571.806	31.37
572.002	31.47
572.197	31.42
572.392	31.46
572.587	31.55
572.782	31.55
572.977	31.61
573.172	31.47
573.367	31.62
573.562	31.8
573.757	31.93
573.952	31.89
574.147	31.69
574.342	31.76
574.537	31.84
574.732	31.79
574.927	31.88
575.121	31.82
575.316	32.03
575.511	31.97
575.706	31.74
575.901	31.7
576.096	31.76
576.29	32.06
576.485	32.08
576.68	32.04
576.875	32.28
577.069	32.34
577.264	32.27
577.459	32.29
577.654	32.32
577.848	32.47
578.043	32.62
578.238	32.48
578.432	32.41
578.627	32.39
578.821	32.4
579.016	31.97
579.21	31.88
579.405	31.94
579.6	31.76
579.794	31.85
579.989	32.01
580.183	32.07
580.378	32.3
580.572	32.36
580.766	32.26
580.961	32.07
581.155	32.13
581.35	32.06
581.544	32.09
581.738	32.16
581.933	32.12
582.127	32.03
582.321	31.88
582.516	32.07
582.71	32.33
582.904	32.28
583.099	32.43
583.293	32.71
583.487	33
583.681	33.08
583.875	33.09
584.07	33.14
584.264	33.31
584.458	33.34
584.652	33.18
584.846	32.86
585.04	32.67
585.234	32.87
585.428	32.82
585.623	32.6
585.817	32.58
586.011	32.85
586.205	33.01
586.399	32.9
586.593	32.78
586.787	32.78
586.981	32.75
587.174	32.98
587.368	32.83
587.562	32.88
587.756	33.05
587.95	33.03
588.144	32.93
588.338	32.63
588.532	32.47
588.725	32.46
588.919	32.48
589.113	32.42
589.307	32.69
589.501	32.63
589.694	32.61
589.888	32.53
590.082	32.35
590.275	32.3
590.469	32.27
590.663	32.16
590.856	32.19
591.05	32.15
591.244	32.27
591.437	31.99
591.631	31.95
591.824	31.7
592.018	31.61
592.212	31.76
592.405	31.62
592.599	31.72
592.792	31.83
592.986	31.97
593.179	31.81
593.372	31.73
593.566	31.73
593.759	31.93
593.953	32.27
594.146	32.33
594.339	32.29
594.533	32.28
594.726	32.32
594.92	32.04
595.113	32.06
595.306	32.36
595.499	32.41
595.693	32.6
595.886	32.51
596.079	32.22
596.272	32.21
596.466	32.25
596.659	32.18
596.852	32.23
597.045	32.54
597.238	32.48
597.431	32.22
597.624	32.42
597.818	32.33
598.011	32.34
598.204	32.32
598.397	32.27
598.59	32.53
598.783	32.62
598.976	32.58
599.169	32.47
599.362	32.44
599.555	32.65
599.748	32.53
599.941	32.62
600.134	32.8
600.326	33.02
600.519	33.22
600.712	32.91
600.905	32.9
601.098	32.76
601.291	32.97
601.483	32.99
601.676	32.88
601.869	32.84
602.062	32.72
602.255	32.43
602.447	32.35
602.64	32.02
602.833	32.02
603.025	31.71
603.218	31.84
603.411	31.74
603.603	31.51
603.796	31.66
603.989	31.49
604.181	31.52
604.374	31.6
604.566	31.65
604.759	31.82
604.951	31.8
605.144	32.01
605.336	31.98
605.529	31.91
605.721	31.93
605.914	31.81
606.106	31.91
606.299	31.87
606.491	31.82
606.683	31.86
606.876	31.75
607.068	31.92
607.26	32.02
607.453	32.27
607.645	32.53
607.837	32.84
608.03	33.21
608.222	33.14
608.414	33.07
608.606	33.1
608.799	33.17
608.991	33.14
609.183	32.87
609.375	32.82
609.567	32.59
609.759	32.46
609.952	32.36
610.144	32.17
610.336	32.21
610.528	32.35
610.72	32.56
610.912	32.44
611.104	32.72
611.296	32.87
611.488	33.02
611.68	33.17
611.872	33.27
612.064	33.41
612.256	33.19
612.448	33.32
612.64	33.29
612.832	33.1
613.023	33.19
613.215	33.3
613.407	33.59
613.599	33.4
613.791	33.26
613.983	33.37
614.174	33.29
614.366	33.48
614.558	33.26
614.75	33.35
614.941	32.87
615.133	32.76
615.325	32.6
615.516	32.46
615.708	32.75
615.9	32.8
616.091	32.51
616.283	32.29
616.475	32.29
616.666	32.5
616.858	32.38
617.049	32.76
617.241	32.55
617.432	32.44
617.624	32.38
617.815	32.19
618.007	32.16
618.198	32.45
618.39	32.44
618.581	32.45
618.773	32.37
618.964	32.35
619.155	32.3
619.347	32.42
619.538	32.51
619.729	32.72
619.921	32.6
620.112	32.64
620.303	32.59
620.494	32.78
620.686	32.47
620.877	32.56
621.068	32.56
621.259	32.85
621.451	33.01
621.642	32.96
621.833	32.86
622.024	32.78
622.215	33.15
622.406	32.8
622.597	32.68
622.788	32.89
622.98	32.68
623.171	32.68
623.362	32.69
623.553	32.69
623.744	32.93
623.935	32.96
624.126	33.14
624.317	32.67
624.508	32.97
624.698	32.77
624.889	32.67
625.08	32.99
625.271	32.98
625.462	32.86
625.653	32.86
625.844	32.27
626.034	32.31
626.225	32.25
626.416	32.43
626.607	32.41
626.798	32.68
626.988	32.84
627.179	32.55
627.37	32.69
627.56	32.78
627.751	32.86
627.942	33.31
628.132	33.15
628.323	33.24
628.514	33.32
628.704	33.37
628.895	33.38
629.085	33.38
629.276	33.44
629.466	33.37
629.657	33.46
629.847	33.17
630.038	33.11
630.228	33.26
630.419	33.49
630.609	33.52
630.8	33.29
630.99	33.56
631.181	33.34
631.371	33.65
631.561	33.77
631.752	33.41
631.942	33.26
632.132	33.2
632.323	32.88
632.513	32.76
632.703	32.58
632.893	32.59
633.084	32.56
633.274	32.73
633.464	32.29
633.654	32.33
633.844	32.44
634.034	32.97
634.225	33.32
634.415	33.61
634.605	33.67
634.795	33.52
634.985	33.92
635.175	33.52
635.365	33.61
635.555	33.92
635.745	33.92
635.935	33.43
636.125	32.93
636.315	32.68
636.505	32.27
636.695	32.03
636.885	32.41
637.075	32.26
637.265	32.72
637.455	32.62
637.644	32.58
637.834	32.44
638.024	33.01
638.214	33.35
638.404	33.27
638.593	33.41
638.783	33.62
638.973	33.25
639.163	32.85
639.352	32.35
639.542	32.14
639.732	32.13
639.921	32.4
640.111	32.75
640.301	33.11
640.49	33.02
640.68	33.55
640.87	33.46
641.059	33.74
641.249	34.36
641.438	34.53
641.628	35.06
641.817	35.11
642.007	34.95
642.196	34.47
642.386	34.22
642.575	34.22
642.764	33.71
642.954	33.76
643.143	33.41
643.333	32.74
643.522	32.94
643.711	32.83
643.901	33.16
644.09	32.58
644.279	32.62
644.469	32.66
644.658	32.48
644.847	32.53
645.036	32.3
645.226	32.71
645.415	32.98
645.604	33.03
645.793	32.87
645.982	32.39
646.171	32.91
646.361	33.11
646.55	32.83
646.739	33
646.928	33.18
647.117	32.92
647.306	32.82
647.495	32.81
647.684	32.66
647.873	32.57
648.062	32.59
648.251	32.41
648.44	32.4
648.629	32.81
648.818	33.04
649.007	32.77
649.196	33.33
649.384	32.88
649.573	32.96
649.762	32.8
649.951	33.02
650.14	33.2
650.328	33.63
650.517	33.47
650.706	33.14
650.895	33.06
651.083	33.28
651.272	33.01
651.461	33.49
651.65	33.46
651.838	33.5
652.027	33.11
652.216	33.01
652.404	32.73
652.593	32.97
652.781	32.94
652.97	33.19
653.158	33.07
653.347	33.33
653.535	33.03
653.724	33.36
653.912	33.27
654.101	33.58
654.289	33.78
654.478	33.7
654.666	33.12
654.855	33.36
655.043	32.68
655.231	32.67
655.42	32.52
655.608	32.76
655.796	32.64
655.985	32.94
656.173	33.02
656.361	32.96
656.55	32.96
656.738	33.34
656.926	33.8
657.114	34.22
657.302	34.26
657.491	34.1
657.679	33.89
657.867	33.76
658.055	33.61
658.243	33.58
658.431	33.38
658.619	32.85
658.807	32.94
658.996	32.67
659.184	32.73
659.372	32.9
659.56	33.19
659.748	33.55
659.936	33.38
660.124	33.21
660.311	33.07
660.499	33.23
660.687	33.77
660.875	33.52
661.063	33.36
661.251	33.32
661.439	33.27
661.627	33.04
661.814	32.61
662.002	32.52
662.19	32.65
662.378	33.04
662.565	33.27
662.753	33.34
662.941	33.7
663.129	33.6
663.316	33.76
663.504	33.75
663.692	33.76
663.879	34.12
664.067	34.59
664.254	34.94
664.442	34.63
664.63	34.35
664.817	34.52
665.005	34.45
665.192	34.57
665.38	33.72
665.567	33.8
665.755	33.88
665.942	33.99
666.13	33.97
666.317	33.89
666.504	34.31
666.692	34.86
666.879	34.41
667.067	34.39
667.254	34.36
667.441	34.88
667.629	34.75
667.816	34.84
668.003	34.76
668.19	34.26
668.378	34.19
668.565	34.07
668.752	33.4
668.939	33.68
669.127	33.64
669.314	33.56
669.501	33.92
669.688	33.8
669.875	33.76
670.062	33.9
670.249	34.16
670.436	34.43
670.623	33.95
670.81	33.84
670.997	33.81
671.184	33.81
671.371	34.07
671.558	33.45
671.745	33.71
671.932	33.54
672.119	33.07
672.306	32.99
672.493	32.46
672.68	32.55
672.867	32.94
673.054	32.79
673.24	32.57
673.427	32.35
673.614	32.58
673.801	32.24
673.988	32.58
674.174	33.08
674.361	33.21
674.548	33.87
674.734	34.05
674.921	33.94
675.108	33.63
675.294	34.05
675.481	33.78
675.668	33.76
675.854	33.92
676.041	33.76
676.227	33.05
676.414	32.9
676.601	32.86
676.787	32.65
676.974	32.48
677.16	32.39
677.347	32.52
677.533	32.58
677.719	33.15
677.906	32.8
678.092	32.34
678.279	32.39
678.465	32.69
678.651	32.02
678.838	32.23
679.024	32.23
679.21	32.46
679.397	32.15
679.583	32.15
679.769	31.6
679.955	31.85
680.142	32.31
680.328	32.46
680.514	32.39
680.7	32.69
680.886	32.68
681.073	32.83
681.259	33.16
681.445	33.34
681.631	33.44
681.817	33.67
682.003	33.86
682.189	33.59
682.375	33.77
682.561	33.87
682.747	34.06
682.933	33.88
683.119	33.9
683.305	33.66
683.491	33.62
683.677	33.67
683.863	33.65
684.049	33.63
684.235	33.93
684.42	33.73
684.606	33.5
684.792	33.13
684.978	33.55
685.164	33.47
685.349	33.45
685.535	33.37
685.721	33.33
685.907	33.93
686.092	33.68
686.278	33.11
686.464	33.16
686.649	33.02
686.835	33.15
687.021	32.62
687.206	32.22
687.392	32.2
687.577	32.55
687.763	32.64
687.948	32.36
688.134	32.39
688.319	32.65
688.505	32.55
688.69	32.59
688.876	32.47
689.061	33.32
689.247	33.83
689.432	33.6
689.618	33.44
689.803	33.53
689.988	33.58
690.174	33.14
690.359	33.92
690.544	34.32
690.73	34.31
690.915	34
691.1	33.17
691.285	33.06
691.471	33.27
691.656	32.73
691.841	32.96
692.026	32.68
692.211	33.22
692.396	32.37
692.582	32.06
692.767	31.7
692.952	32.12
693.137	32.06
693.322	32.15
693.507	32.56
693.692	32.43
693.877	32.01
694.062	31.64
694.247	31.71
694.432	32.52
694.617	32.84
694.802	33.18
694.987	33.6
695.172	34.2
695.357	34.36
695.541	34.13
695.726	34.64
695.911	34.6
696.096	34.86
696.281	35.11
696.466	34.37
696.65	34.22
696.835	34.52
697.02	34.25
697.204	33.86
697.389	33.55
697.574	33.68
697.759	33.54
697.943	33.73
698.128	33.84
698.312	33.95
698.497	34.04
698.682	33.75
698.866	33.98
699.051	34.14
699.235	34.12
699.42	34.31
699.604	34.46
699.789	34.71
699.973	34.58
700.158	34.39
700.342	33.94
700.527	34.14
700.711	34.32
700.895	34
701.08	33.73
701.264	33.78
701.448	33.71
701.633	33.45
701.817	33.09
702.001	33.62
702.186	33.33
702.37	33.52
702.554	33.11
702.738	33.25
702.923	32.66
703.107	32.59
703.291	32.82
703.475	33.06
703.659	32.59
703.843	33.26
704.027	33.36
704.212	33.43
704.396	33.49
704.58	33.89
704.764	34.23
704.948	34.59
705.132	34.73
705.316	34.11
705.5	34.22
705.684	34.49
705.868	33.82
706.052	33.1
706.235	33.22
706.419	33.02
706.603	33.05
706.787	32.76
706.971	33.2
707.155	33.19
707.339	33.88
707.522	33.82
707.706	33.67
707.89	33.6
708.074	33.19
708.257	33.75
708.441	34.01
708.625	33.7
708.808	33.4
708.992	32.77
709.176	32.8
709.359	33.01
709.543	33.46
709.727	33.72
709.91	34.82
710.094	35.27
710.277	34.92
710.461	34.17
710.644	34.33
710.828	34.72
711.011	35.55
711.195	35.01
711.378	34.6
711.562	34.62
711.745	34.44
711.928	33.35
712.112	33.72
712.295	34.21
712.478	34.92
712.662	34.86
712.845	35.09
713.028	34.75
713.212	34.73
713.395	34.95
713.578	34.31
713.761	35.03
713.945	35.93
714.128	35.44
714.311	34.75
714.494	34.86
714.677	35.62
714.86	35.62
715.043	36.15
715.227	36.12
715.41	36.21
715.593	35.67
715.776	34.59
715.959	34.14
716.142	34.3
716.325	34.21
716.508	34.03
716.691	32.19
716.874	31.56
717.057	30.85
717.239	31.61
717.422	31.28
717.605	31.98
717.788	32.67
717.971	32.7
718.154	33.06
718.337	33.04
718.519	33.35
718.702	34.34
718.885	34.98
719.068	35.45
719.25	35
719.433	35.06
719.616	35.62
719.798	34.93
719.981	36.01
720.164	35.45
720.346	36.12
720.529	36.34
720.712	35.96
720.894	36.25
721.077	35.27
721.259	35.3
721.442	35.24
721.624	34.16
721.807	35.11
721.989	33.88
722.172	33.36
722.354	33.34
722.537	32.41
722.719	33.18
722.901	32.43
723.084	33.15
723.266	33.15
723.448	32.99
723.631	33.78
723.813	32.78
723.995	32.73
724.178	33.08
724.36	32.09
724.542	31.58
724.724	31.79
724.907	31.1
725.089	30.99
725.271	31.55
725.453	31.24
725.635	30.6
725.817	30.92
725.999	30.04
726.181	29.91
726.364	29.81
726.546	30.47
726.728	30.36
726.91	30.55
727.092	30.08
727.274	29.45
727.456	30.44
727.638	30.89
727.819	31.05
728.001	31.42
728.183	32.07
728.365	32.17
728.547	32.47
728.729	31.79
728.911	32.22
729.093	32.28
729.274	32.45
729.456	31.84
729.638	31.47
729.82	31.88
730.001	32.53
730.183	32.45
730.365	33.33
730.546	32.33
730.728	33.21
730.91	33.45
731.091	33.97
731.273	34.1
731.455	33.88
731.636	34.03
731.818	33.42
731.999	33.15
732.181	33.38
732.362	33.61
732.544	34.36
732.725	33.58
732.907	33.03
733.088	32.75
733.27	32.56
733.451	33.08
733.633	33.59
733.814	34.58
733.995	33.67
734.177	33.81
734.358	33.46
734.539	33.62
734.721	34.11
734.902	35.3
735.083	35.99
735.264	36.2
735.446	36.72
735.627	36.37
735.808	35.57
735.989	36.78
736.17	35.52
736.351	34.89
736.533	35
736.714	34.21
736.895	33.16
737.076	33.09
737.257	33.38
737.438	32.62
737.619	31
737.8	30.63
737.981	31.25
738.162	31.64
738.343	32.54
738.524	32.22
738.705	33.11
738.886	33.47
739.067	33.88
739.247	34.17
739.428	34.3
739.609	34.98
739.79	35.24
739.971	35.15
740.151	35.55
740.332	35.09
740.513	35.5
740.694	35.39
740.874	35.55
741.055	34.47
741.236	33.51
741.417	33.96
741.597	34.34
741.778	34.98
741.958	34.21
742.139	34.9
742.32	34.44
742.5	34.69
742.681	34.29
742.861	34.93
743.042	34.92
743.222	34.38
743.403	33.44
743.583	33.47
743.764	31.52
743.944	32.23
744.124	31.12
744.305	32.7
744.485	32.01
744.666	33.14
744.846	32.15
745.026	31.31
745.207	32.8
745.387	33.24
745.567	32.84
745.747	34.46
745.928	32.75
746.108	32.82
746.288	32.77
746.468	33.07
746.648	32.13
746.829	31.83
747.009	32.31
747.189	32.58
747.369	33.55
747.549	34.84
747.729	35.19
747.909	36.43
748.089	36.43
748.269	35.58
748.449	35.84
748.629	36.12
748.809	35.46
748.989	36.26
749.169	36.02
749.349	35.81
749.529	33.62
749.709	33.87
749.889	33.5
750.068	33.38
750.248	33.12
750.428	32.03
750.608	32.24
750.788	33.13
750.967	31.68
751.147	31.13
751.327	31.28
751.507	33.15
751.686	32.82
751.866	33.49
752.046	33.95
752.225	33.75
752.405	34.51
752.585	34.6
752.764	33.97
752.944	34.54
753.123	34.99
753.303	35.07
753.482	33.6
753.662	32.05
753.841	31.61
754.021	32.08
754.2	34.05
754.38	33.74
754.559	33.95
754.739	34.04
754.918	34.43
755.097	34.94
755.277	34.75
755.456	35.66
755.635	36.32
755.815	35.47
755.994	35.33
756.173	33.93
756.352	33.36
756.532	31.96
756.711	31.68
756.89	31.34
757.069	30.98
757.248	30.17
757.427	31.01
757.607	32.21
757.786	32.78
757.965	33.12
758.144	32.72
758.323	32.62
758.502	34.93
758.681	34.74
758.86	36.1
759.039	36.52
759.218	35.59
759.397	35.18
759.576	35.16
759.755	34.27
759.934	32.13
760.113	31.34
760.291	32.5
760.47	31.76
760.649	33.33
760.828	33.35
761.007	31.83
761.186	32.9
761.364	32.95
761.543	32.86
761.722	33.9
761.901	35.12
762.079	35.07
762.258	34.53
762.437	33.52
762.615	33.93
762.794	32.74
762.972	33.46
763.151	33.58
763.33	33.22
763.508	33.04
763.687	33.43
763.865	33.52
764.044	34.45
764.222	34.62
764.401	34.59
764.579	34.09
764.758	34.52
764.936	34.88
765.114	34.36
765.293	35.27
765.471	35.25
765.65	35.22
765.828	36.12
766.006	36.49
766.184	36.45
766.363	37.73
766.541	37.23
766.719	36.81
766.898	36.41
767.076	37.26
767.254	36.87
767.432	36.82
767.61	36
767.788	35.29
767.967	34.72
768.145	34.99
768.323	33.52
768.501	33.31
768.679	33.77
768.857	33.59
769.035	33.74
769.213	33.32
769.391	33.35
769.569	34.87
769.747	34.72
769.925	35.7
770.103	37.81
770.281	39.69
770.459	41.24
770.636	41.79
770.814	43.02
770.992	40.86
771.17	40.46
771.348	39.68
771.525	38.54
771.703	37.54
771.881	35.62
772.059	33.69
772.236	32.92
772.414	31.91
772.592	30.22
772.769	29.68
772.947	30.55
773.125	29.93
773.302	31.87
773.48	32.07
773.657	34.71
773.835	35.04
774.013	35.25
774.19	36.58
774.368	37.04
774.545	38.66
774.723	39.27
774.9	40.46
775.077	40.48
775.255	40.33
775.432	41.33
775.61	39.88
775.787	39.54
775.964	38.48
776.142	37.06
776.319	37.08
776.496	37.7
776.674	35.82
776.851	35.17
777.028	37.3
777.205	36.92
777.382	37.29
777.56	36.39
777.737	38.42
777.914	39.33
778.091	39.74
778.268	39.26
778.445	39.51
778.622	40.32
778.8	39.46
778.977	38.17
779.154	37.65
779.331	35.72
779.508	35.3
779.685	34.82
779.862	34.48
780.038	34.45
780.215	36.65
780.392	35.39
780.569	35.75
780.746	35.6
780.923	33.54
781.1	37.01
781.277	36.81
781.453	36.85
781.63	37.57
781.807	39.21
781.984	37.65
782.16	35.31
782.337	36.18
782.514	36.12
782.691	39.17
782.867	42.27
783.044	39.46
783.221	40.99
783.397	43.52
783.574	42.46
783.75	41.9
783.927	42.53
784.103	44.31
784.28	41.53
784.456	42.44
784.633	41.74
784.809	41.37
784.986	41.16
785.162	38.96
785.339	38.2
785.515	37.44
785.692	35.91
785.868	35.31
786.044	35.02
786.221	37.22
786.397	34.97
786.573	34.36
786.749	34.91
786.926	35.52
787.102	37.21
787.278	36.48
787.454	38.76
787.631	38.29
787.807	39.14
787.983	38.6
788.159	38.82
788.335	39.65
788.511	38.6
788.687	38.68
788.863	38.05
789.039	39.8
789.216	40.83
789.392	38.22
789.568	38.18
789.744	36.25
789.919	35.12
790.095	35.64
790.271	36.38
790.447	36.33
790.623	35.53
790.799	36.81
790.975	36.33
791.151	34.18
791.327	34.36
791.502	33.99
791.678	33.83
791.854	34.92
792.03	33.89
792.205	31.89
792.381	33.24
792.557	32.47
792.733	32.81
792.908	34.27
793.084	34.4
793.259	36.6
793.435	38.64
793.611	41.39
793.786	42.25
793.962	43.39
794.137	43.44
794.313	42.6
794.488	41.79
794.664	39.96
794.839	38.02
795.015	40.03
795.19	38.59
795.366	35.2
795.541	35.24
795.716	33.99
795.892	32.11
796.067	31.35
796.242	32.13
796.418	34.5
796.593	35.26
796.768	37.34
796.944	36.88
797.119	37.61
797.294	41.61
797.469	41.06
797.644	41.43
797.82	42.3
797.995	43.07
798.17	41.91
798.345	41.78
798.52	41.39
798.695	38.94
798.87	39.01
799.045	39.55
799.22	39.67
799.395	40.08
799.57	41.86
799.745	44.67
799.92	44.83
800.095	44.78
800.27	43.73
800.445	43.47
800.62	42.67
800.795	43.51
800.97	42.23
801.145	38.57
801.319	36.38
801.494	34.26
801.669	29.01
801.844	29.27
802.018	31.04
802.193	32.94
802.368	29.87
802.543	30.5
802.717	28.91
802.892	27.56
803.067	32.7
803.241	34.43
803.416	37.5
803.59	39.24
803.765	38.71
803.94	40.31
804.114	37.75
804.289	41.92
804.463	39.8
804.638	40.99
804.812	41.61
804.986	38.55
805.161	41.28
805.335	39.02
805.51	38.74
805.684	40.42
805.858	34.89
806.033	36.86
806.207	33.4
806.381	37.39
806.556	35.73
806.73	36.09
806.904	35.23
807.078	32.02
807.253	32.72
807.427	32.77
807.601	31.29
807.775	36.6
807.949	37.13
808.123	40.33
808.298	36.11
808.472	38.67
808.646	35.59
808.82	37.01
808.994	40.15
809.168	35.89
809.342	38.15
809.516	37.43
809.69	33.01
809.864	30.78
810.038	29.93
810.212	35.03
810.385	32.12
810.559	36.7
810.733	38.9
810.907	36.54
811.081	39.65
811.255	44.01
811.428	44.45
811.602	43.91
811.776	46.34
811.95	45.78
812.123	42.54
812.297	44.17
812.471	42.39
812.644	40.71
812.818	41.32
812.992	39.03
813.165	34.99
813.339	37.18
813.512	38.33
813.686	37
813.86	39.52
814.033	36.67
814.207	36.01
814.38	34.07
814.554	35.91
814.727	36.73
814.9	38.09
815.074	37.02
815.247	37.61
815.421	39.42
815.594	40.04
815.767	39.5
815.941	41.35
816.114	38.97
816.287	43.22
816.46	42.57
816.634	44.61
816.807	42.25
816.98	41.19
817.153	39.3
817.327	41.89
817.5	41.33
817.673	39.84
817.846	41.27
818.019	44.31
818.192	40.46
818.365	41.71
818.538	37.5
818.711	40.61
818.884	42.11
819.057	41.67
819.23	42.71
819.403	42.31
819.576	43.73
819.749	42.75
819.922	39.41
820.095	42.95
820.268	40.81
820.441	38.24
820.614	34.8
820.786	33.81
820.959	33.06
821.132	31.91
821.305	32.11
821.477	32.21
821.65	32.52
821.823	31.85
821.996	30.64
822.168	31.49
822.341	31.67
822.514	33
822.686	32.97
822.859	32.81
823.031	31.86
823.204	31.51
823.376	31.2
823.549	31.14
823.722	31.5
823.894	32.09
824.067	31.59
824.239	32.72
824.411	32.22
824.584	32.68
824.756	34.11
824.929	34.86
825.101	34.66
825.273	34.33
825.446	33.8
825.618	35.69
825.79	36.01
825.963	35.64
826.135	35.65
826.307	36.25
826.479	35.24
826.652	33.08
826.824	32.04
826.996	32.86
827.168	32.45
827.34	33.3
827.512	31.85
827.684	29.66
827.856	29.68
828.029	29.5
828.201	29.23
828.373	29.84
828.545	30.49
828.717	31.22
828.889	31.98
829.061	32.85
829.232	32.09
829.404	32.3
829.576	34.66
829.748	37.39
829.92	36.5
830.092	34.86
830.264	32.44
830.436	32.43
830.607	34.59
830.779	33.95
830.951	33.69
831.123	34.87
831.294	31.71
831.466	32.29
831.638	27.34
831.809	28.16
831.981	30.68
832.153	32.1
832.324	32.94
832.496	30.58
832.667	29.13
832.839	28.79
833.011	29.47
833.182	33.08
833.354	29.84
833.525	30.1
833.697	31.11
833.868	31.04
834.039	29.34
834.211	31.18
834.382	31.99
834.554	32.32
834.725	31.77
834.896	32.39
835.068	31.91
835.239	33.23
835.41	33.99
835.581	33.91
835.753	34.85
835.924	36.07
836.095	33.93
836.266	33.09
836.438	32.46
836.609	31.93
836.78	32.8
836.951	31.22
837.122	30.49
837.293	30.16
837.464	30.12
837.635	32.55
837.806	35.57
837.977	36.17
838.148	37.85
838.319	42.35
838.49	46.76
838.661	42.96
838.832	42.7
839.003	48.2
839.174	51.55
839.345	48.21
839.516	43.38
839.687	46.29
839.857	46.25
840.028	46.19
840.199	43.65
840.37	40.64
840.54	44.36
840.711	46.27
840.882	43.82
841.053	39.42
841.223	40.78
841.394	41.49
841.564	38.27
841.735	40.49
841.906	41.43
842.076	39.79
842.247	45.74
842.417	44.43
842.588	47.7
842.758	47.51
842.929	52.59
843.099	62.1
843.27	64.74
843.44	63.25
843.611	60.53
843.781	59.27
843.951	58.81
844.122	54.07
844.292	49.92
844.462	48.92
844.633	44.28
844.803	44.04
844.973	28.39
845.144	29.67
845.314	32.96
845.484	34.42
845.654	35.07
845.824	31.5
845.995	30.06
846.165	37.25
846.335	39.58
846.505	56.72
846.675	55.87
846.845	61.31
847.015	52.44
847.185	42.84
847.355	34.71
847.525	34.21
847.695	37.44
847.865	38.68
848.035	51.78
848.205	50.77
848.375	47.21
848.545	43.83
848.715	40.05
848.884	46.37
849.054	63.52
849.224	67.62
849.394	58.04
849.564	67.87
849.733	73.95
849.903	59.85
850.073	61.55
850.243	43.89
850.412	51.9
850.582	61.24
850.752	68.96
850.921	51.66
851.091	49.01
851.26	61.23
851.43	51.71
851.599	46.35
851.769	42.15
851.939	42.92
852.108	46.37
852.278	40.66
852.447	39.7
852.616	46.08
852.786	50.81
852.955	53.71
853.125	51.92
853.294	55.91
853.463	56.09
853.633	58.9
853.802	55.96
853.971	67.56
854.141	76.8
854.31	79.88
854.479	54.37
854.648	48.24
854.818	41.35
854.987	42.17
855.156	41.28
855.325	36.37
855.494	40.28
855.663	46.57
855.832	39.93
856.001	38.54
856.171	42.33
856.34	62.62
856.509	64.1
856.678	69.39
856.847	64.62
857.016	67.82
857.185	71.27
857.353	63.56
857.522	69.57
857.691	68.67
857.86	73.27
858.029	60.01
858.198	53.17
858.367	57.01
858.535	58.76
858.704	72.13
858.873	82.91
859.042	81.11
859.21	90.68
859.379	79.83
859.548	89.63
859.717	81.33
859.885	90.76
860.054	87.35
860.222	85.1
860.391	92.69
860.56	81.38
860.728	78.17
860.897	79.5
861.065	80.45
861.234	78.31
861.402	66.28
861.571	50.64
861.739	60.4
861.908	67.63
862.076	82.81
862.244	74.82
862.413	73.35
862.581	70.72
862.749	72.82
862.918	75.32
863.086	76.77
863.254	80.72
863.423	94.16
863.591	90.35
863.759	84.72
863.927	71.16
864.096	75.77
864.264	77.12
864.432	72.67
864.6	73.43
864.768	70.21
864.936	70.46
865.104	65.47
865.272	67.82
865.44	65.35
865.608	63.83
865.776	64.38
865.944	54.07
866.112	56.37
866.28	61.43
866.448	57.14
866.616	55.91
866.784	54.38
866.952	58.85
867.12	52.11
867.288	44.37
867.455	44.79
867.623	40.87
867.791	52.65
867.959	47.39
868.127	49.17
868.294	50.39
868.462	57.23
868.63	58.45
868.797	54.11
868.965	56.88
869.133	57.07
869.3	53.43
869.468	52.09
869.636	46.42
869.803	50.38
869.971	45.48
870.138	48.54
870.306	43.75
870.473	51.49
870.641	58.01
870.808	62.75
870.975	60.2
871.143	64.53
871.31	73.91
871.478	71.21
871.645	78
871.812	78.45
871.98	74.9
872.147	75.77
872.314	78.65
872.482	70.51
872.649	61.54
872.816	67.36
872.983	67.9
873.15	58.46
873.318	55.21
873.485	52.17
873.652	55.45
873.819	50.02
873.986	54.03
874.153	43.34
874.32	36.49
874.487	35.76
874.654	37.18
874.821	37.85
874.988	44.03
875.155	45.93
875.322	40.58
875.489	43.27
875.656	38.81
875.823	35.66
875.99	30.93
876.157	47.98
876.324	63.32
876.49	59.54
876.657	57.29
876.824	57.49
876.991	61.88
877.157	57.37
877.324	60.65
877.491	73.26
877.658	66.08
877.824	81.46
877.991	67.48
878.157	52.11
878.324	53.1
878.491	52.37
878.657	50.49
878.824	54.4
878.99	56
879.157	53.71
879.323	50.85
879.49	71.3
879.656	70.04
879.823	74.6
879.989	73.08
880.156	78.34
880.322	85.11
880.488	86.99
880.655	80.2
880.821	87.45
880.987	78.98
881.154	71.32
881.32	59.83
881.486	49.58
881.652	45.9
881.819	43.08
881.985	39.17
882.151	34.66
882.317	38.79
882.483	38.2
882.649	39.11
882.816	38.41
882.982	37.22
883.148	36.48
883.314	35.8
883.48	35.63
883.646	37.28
883.812	37.24
883.978	34.91
884.144	31.85
884.31	31.34
884.476	27.04
884.642	26.97
884.807	29.31
884.973	28.13
885.139	27.86
885.305	26.91
885.471	25.18
885.637	22.13
885.802	24.06
885.968	24.31
886.134	26.54
886.3	33.38
886.465	32.93
886.631	31.48
886.797	31.88
886.962	36.11
887.128	37.8
887.293	40.77
887.459	51.3
887.625	59.85
887.79	71.09
887.956	67.36
888.121	65.25
888.287	71.25
888.452	70.96
888.618	80.34
888.783	74.82
