Data from 2938013_Reflection_1.txt Node
Date: Sun Jul 12 15:39:56 EDT 2015
User: robert
Spectrometer: USB4E03001
Autoset integration time: false
Trigger mode: 4
Integration Time (sec): 1.000000E-1
Scans to average: 10
Electric dark correction enabled: true
Nonlinearity correction enabled: false
Boxcar width: 5
Stray light correction enabled: false
XAxis mode: Wavelengths
Stop averaging: false
Number of Pixels in Spectrum: 3648
>>>>>Begin Spectral Data<<<<<
177.566	40.01
177.785	46.31
178.005	76.32
178.225	41.13
178.445	88.75
178.665	42.38
178.885	-40.26
179.105	-16.3
179.324	-41.34
179.544	-11.28
179.764	-4
179.984	59.63
180.204	79.51
180.423	93.84
180.643	148.49
180.863	197.58
181.083	109.01
181.302	84.74
181.522	0.25
181.742	-38.2
181.961	15.37
182.181	11.7
182.401	39.84
182.621	24.68
182.84	7.38
183.06	30.81
183.279	17.08
183.499	1.71
183.719	10.85
183.938	-4.8
184.158	3.32
184.377	-28.15
184.597	6.19
184.816	4.51
185.036	-19.5
185.256	40.31
185.475	38.83
185.695	58.73
185.914	42.21
186.134	38.69
186.353	42.93
186.572	18.91
186.792	-1.17
187.011	-49.94
187.231	-82.29
187.45	-72.39
187.67	-222.9
187.889	-117.78
188.108	-159.63
188.328	-154.16
188.547	-149.65
188.766	-252.27
188.986	-701.12
189.205	-441.82
189.424	-398.81
189.644	-889.54
189.863	-718.94
190.082	-243.12
190.302	-436.05
190.521	16750
190.74	740.31
190.959	433.42
191.178	434.57
191.398	767.49
191.617	-1151.6
191.836	-585.58
192.055	-286.32
192.274	-209.61
192.494	-86.04
192.713	-183.75
192.932	-80.21
193.151	13.82
193.37	13.52
193.589	-153.69
193.808	-47.76
194.027	-54.89
194.246	-436
194.465	284.53
194.685	1024.7
194.904	153.46
195.123	194.96
195.342	727.7
195.561	368.1
195.78	444.97
195.999	-593.26
196.218	-357.73
196.436	-338.5
196.655	-308.06
196.874	-188.5
197.093	-240.57
197.312	-99.66
197.531	-49.23
197.75	-22.16
197.969	0.02
198.188	13.15
198.407	19.95
198.625	35.95
198.844	30.26
199.063	9.43
199.282	8.15
199.501	-20.17
199.719	-13.83
199.938	-127.78
200.157	-337.78
200.376	-157.71
200.594	-275.5
200.813	2157.8
201.032	-336.77
201.251	-289.22
201.469	2845.81
201.688	513.09
201.907	296.27
202.125	247.3
202.344	333.77
202.563	338.7
202.781	174.89
203	149.7
203.218	198.11
203.437	170.66
203.656	144.53
203.874	139.03
204.093	121.51
204.311	121.65
204.53	88.42
204.748	73.76
204.967	31.31
205.185	-79.61
205.404	-18.21
205.622	-353.54
205.841	-200.83
206.059	-75.12
206.278	80.16
206.496	146.12
206.715	-582.16
206.933	-7.59
207.151	-47.42
207.37	-182.14
207.588	-337.16
207.806	-231.29
208.025	-686.18
208.243	-670.33
208.461	-414.41
208.68	-3793.94
208.898	-338.61
209.116	-154.41
209.335	-81.33
209.553	-1097.92
209.771	918.68
209.989	935.02
210.208	347.4
210.426	289.6
210.644	228.45
210.862	497.49
211.081	-2
211.299	-114.95
211.517	711.2
211.735	142.91
211.953	327.17
212.171	-196.63
212.39	-450.86
212.608	-153.45
212.826	-31.4
213.044	-31.44
213.262	-26.03
213.48	-53.72
213.698	-11.26
213.916	-28.09
214.134	4.61
214.352	-10.44
214.57	-13.3
214.788	-13.57
215.006	-51.76
215.224	-85.77
215.442	-98.84
215.66	-94.43
215.878	-97.69
216.096	-103.4
216.314	-52.22
216.532	-101.96
216.75	-58.6
216.968	-79.59
217.185	-35.77
217.403	-56.65
217.621	-66.08
217.839	-22.09
218.057	-18.41
218.275	-15.19
218.492	-54.46
218.71	-65.34
218.928	-0.67
219.146	-53.92
219.363	-16.53
219.581	-174.94
219.799	-98.65
220.017	-15100
220.234	280.37
220.452	260.25
220.67	-2305.83
220.887	-122.07
221.105	70.54
221.323	-54.95
221.54	8.54
221.758	-15.64
221.976	23.3
222.193	29.82
222.411	24.25
222.629	36.21
222.846	43.1
223.064	34.94
223.281	-83.77
223.499	-148.42
223.716	-70.77
223.934	-42.64
224.151	-38.88
224.369	-75.57
224.586	-71.7
224.804	-40.25
225.021	-84.33
225.239	-111.72
225.456	-86.79
225.674	-37.8
225.891	-32.8
226.108	-28.18
226.326	-39.32
226.543	-47.75
226.76	-16.49
226.978	-18.63
227.195	-36.79
227.413	-20.96
227.63	-6.18
227.847	-6.47
228.064	-7.26
228.282	-7.42
228.499	-5.92
228.716	0.89
228.934	3.86
229.151	2.57
229.368	7.72
229.585	5.71
229.802	9.7
230.02	8.11
230.237	11.88
230.454	16.4
230.671	15.96
230.888	11.14
231.105	1.56
231.323	3.93
231.54	1.21
231.757	-0.49
231.974	6.02
232.191	-3.23
232.408	-1.81
232.625	-1.79
232.842	-11.12
233.059	-16.54
233.276	-13.66
233.493	-11.29
233.71	-9.39
233.927	-20
234.144	-33.69
234.361	-26.05
234.578	-14.52
234.795	-6.69
235.012	-6.51
235.229	-9.41
235.446	-5.28
235.663	-1.31
235.879	2.32
236.096	-6.21
236.313	-1.25
236.53	6.08
236.747	5.51
236.964	4.69
237.181	1.88
237.397	-4.52
237.614	-0.13
237.831	-1.22
238.048	0.92
238.264	3.58
238.481	10.21
238.698	12.81
238.915	12.93
239.131	10.77
239.348	11.82
239.565	11.13
239.781	11.16
239.998	12.92
240.215	11.32
240.431	7.76
240.648	5.77
240.865	4.29
241.081	3.64
241.298	3.6
241.514	4.21
241.731	2.5
241.947	5.1
242.164	3.42
242.38	2.42
242.597	6.17
242.814	11.03
243.03	12.41
243.246	14.4
243.463	15.35
243.679	14.25
243.896	15.58
244.112	18.29
244.329	18.95
244.545	19.66
244.762	20.96
244.978	22.89
245.194	19.62
245.411	16.96
245.627	16.34
245.843	16.19
246.06	18.81
246.276	17.86
246.492	15.31
246.709	15.16
246.925	15.82
247.141	15.72
247.357	15.41
247.574	14.91
247.79	15.54
248.006	14.61
248.222	14.59
248.439	12.3
248.655	12.16
248.871	12.96
249.087	13.14
249.303	13.62
249.519	13.69
249.736	14.13
249.952	14
250.168	13.7
250.384	14.52
250.6	14.41
250.816	17.47
251.032	17.64
251.248	17.5
251.464	17.06
251.68	15.42
251.896	12.43
252.112	11.98
252.328	13.7
252.544	12.88
252.76	11.42
252.976	10.71
253.192	11.64
253.408	12.27
253.624	10.9
253.84	10.72
254.056	11.37
254.272	14.71
254.487	13.02
254.703	12.07
254.919	14.32
255.135	17.62
255.351	16.65
255.567	14.71
255.782	14.94
255.998	15.63
256.214	12.03
256.43	12.64
256.646	15.18
256.861	13.84
257.077	13.32
257.293	11.1
257.508	11.41
257.724	12.48
257.94	10.01
258.155	6.29
258.371	8.09
258.587	9.79
258.802	10.64
259.018	10.14
259.234	11.89
259.449	12.75
259.665	13.74
259.88	13.23
260.096	12.96
260.312	12.76
260.527	13.63
260.743	12.82
260.958	13.49
261.174	12.01
261.389	11.36
261.605	8.97
261.82	7.75
262.036	6.11
262.251	6.69
262.466	6.56
262.682	8.72
262.897	7.03
263.113	7.81
263.328	6.8
263.543	9.44
263.759	7.3
263.974	8.1
264.189	8.09
264.405	9.24
264.62	5.71
264.835	2.75
265.051	0.56
265.266	0.68
265.481	2.43
265.696	1.97
265.912	0.79
266.127	-0.08
266.342	1.21
266.557	2.16
266.773	2.2
266.988	3.31
267.203	6.32
267.418	5.56
267.633	6.53
267.848	6.12
268.064	6.18
268.279	7.74
268.494	10.1
268.709	11.63
268.924	10.82
269.139	12.14
269.354	12.13
269.569	12.75
269.784	13.63
269.999	12.91
270.214	11.79
270.429	10.99
270.644	11.9
270.859	11.3
271.074	8.99
271.289	7.53
271.504	7.05
271.719	7.42
271.934	6.32
272.149	7.36
272.363	7.41
272.578	6.68
272.793	7.98
273.008	8.52
273.223	9.7
273.438	10.7
273.653	12.24
273.867	12.5
274.082	12.95
274.297	13.07
274.512	13.13
274.726	12.77
274.941	13.62
275.156	13.17
275.371	9.27
275.585	10.22
275.8	8.91
276.015	11.66
276.229	12.47
276.444	11.84
276.659	11.26
276.873	10.79
277.088	10.59
277.302	9.8
277.517	8.34
277.732	12.48
277.946	10.04
278.161	10.81
278.375	7.52
278.59	6.27
278.804	7.23
279.019	5.57
279.233	5.05
279.448	6.99
279.662	8.04
279.877	11.45
280.091	9.08
280.306	9.13
280.52	9.04
280.735	8.61
280.949	7.89
281.163	9.77
281.378	10.85
281.592	11.33
281.806	11.4
282.021	11.04
282.235	10.46
282.449	10.22
282.664	10.79
282.878	11.58
283.092	12.08
283.307	12.68
283.521	7.89
283.735	7.44
283.949	8.07
284.164	8.11
284.378	9.18
284.592	7.81
284.806	8.63
285.02	7.17
285.234	6.13
285.449	6.32
285.663	4.79
285.877	7.56
286.091	8.07
286.305	8.56
286.519	8.04
286.733	5.98
286.947	7.07
287.161	5.51
287.375	7.71
287.589	8.27
287.803	9.53
288.017	11.61
288.231	9.66
288.445	10.32
288.659	8.45
288.873	9.02
289.087	10.76
289.301	9.29
289.515	10.05
289.729	9.37
289.943	9.08
290.157	7.5
290.371	5.75
290.584	7.7
290.798	8.79
291.012	8.98
291.226	9.46
291.44	8.55
291.654	8.99
291.867	10.11
292.081	9.59
292.295	11.1
292.509	9.83
292.722	11.81
292.936	9.86
293.15	7.59
293.364	7.43
293.577	7.74
293.791	10.04
294.005	8.82
294.218	7.85
294.432	7.93
294.645	8
294.859	9.94
295.073	10.34
295.286	13.03
295.5	12.83
295.713	12.43
295.927	11.03
296.14	9.37
296.354	11.43
296.568	11.93
296.781	12.96
296.994	11.59
297.208	11.48
297.421	11.57
297.635	11.05
297.848	12.18
298.062	13.06
298.275	14.45
298.489	13.93
298.702	13.69
298.915	14.23
299.129	14.05
299.342	13.69
299.555	13.16
299.769	12.21
299.982	11.32
300.195	10.1
300.409	10.47
300.622	8.13
300.835	9.65
301.048	10.79
301.262	9.58
301.475	8.1
301.688	11.16
301.901	10.63
302.115	12.63
302.328	10.86
302.541	12.34
302.754	11.14
302.967	13.91
303.18	16.61
303.393	15.72
303.607	17.05
303.82	18.86
304.033	19.04
304.246	19.86
304.459	16.88
304.672	18.34
304.885	18.73
305.098	19.7
305.311	18.09
305.524	15.62
305.737	14.25
305.95	12.7
306.163	10.96
306.376	10.51
306.589	11.02
306.802	14.09
307.015	15.93
307.228	15.29
307.44	15.96
307.653	14.86
307.866	15.24
308.079	14.26
308.292	14.65
308.505	14.15
308.718	11.65
308.93	12.41
309.143	11.42
309.356	10.62
309.569	10.23
309.781	10.9
309.994	13.22
310.207	13.61
310.42	15.88
310.632	15.58
310.845	15.83
311.058	17.11
311.27	16.91
311.483	15.46
311.696	16.07
311.908	16.01
312.121	13.92
312.333	14.8
312.546	15.98
312.759	14.47
312.971	14.31
313.184	15.09
313.396	14.92
313.609	13.37
313.821	13.92
314.034	12.16
314.246	14.49
314.459	14.16
314.671	10.39
314.884	9.38
315.096	10.82
315.309	12.52
315.521	13.91
315.733	12.94
315.946	15.17
316.158	15.5
316.371	15.37
316.583	12.96
316.795	12.16
317.008	14.21
317.22	13.15
317.432	12.37
317.644	11.04
317.857	9.18
318.069	10.69
318.281	9.69
318.494	9.81
318.706	11.88
318.918	12.8
319.13	14.7
319.342	16.01
319.555	15.06
319.767	14.02
319.979	13.1
320.191	14.33
320.403	14.21
320.615	14.44
320.827	15.08
321.039	13.57
321.252	12.57
321.464	11.34
321.676	9.4
321.888	11.42
322.1	11.42
322.312	11.14
322.524	7.69
322.736	9.1
322.948	8.15
323.16	9.24
323.372	10.06
323.584	8.57
323.796	11.85
324.007	10.02
324.219	7.33
324.431	6.67
324.643	7.96
324.855	10.33
325.067	9.76
325.279	9.66
325.491	7.3
325.702	6.58
325.914	6.61
326.126	4.83
326.338	6.81
326.55	9.68
326.761	11.88
326.973	12.99
327.185	10.99
327.396	11.12
327.608	12.3
327.82	13.17
328.032	11.61
328.243	11.71
328.455	11.54
328.666	11.18
328.878	9.24
329.09	10.28
329.301	10.55
329.513	12.68
329.725	12.58
329.936	11.03
330.148	10.4
330.359	12.33
330.571	13.41
330.782	11.76
330.994	10.72
331.205	12.53
331.417	8.9
331.628	6.85
331.84	6.63
332.051	6.06
332.262	4.81
332.474	6.56
332.685	7.34
332.897	9.24
333.108	9.44
333.319	10.91
333.531	9.7
333.742	12.36
333.953	12.31
334.165	12.72
334.376	12.25
334.587	16.11
334.799	15.23
335.01	15.55
335.221	15.06
335.432	16.89
335.644	16.83
335.855	16.8
336.066	15.14
336.277	16.85
336.488	16.53
336.7	17.44
336.911	15.3
337.122	16.84
337.333	17.4
337.544	15.6
337.755	15.03
337.966	14.62
338.177	15.92
338.388	17
338.599	16.26
338.811	16.65
339.022	17.66
339.233	18.68
339.444	16.36
339.655	14.84
339.866	15.65
340.076	16.12
340.287	15.99
340.498	16.06
340.709	16.09
340.92	16.34
341.131	16.24
341.342	14.46
341.553	14.83
341.764	15.72
341.975	16.48
342.185	17.01
342.396	15.64
342.607	17.08
342.818	16.97
343.029	16.51
343.239	16.26
343.45	15.74
343.661	16.82
343.872	17.49
344.082	19.46
344.293	20.58
344.504	21.11
344.714	21.16
344.925	20.16
345.136	20.49
345.346	21.16
345.557	22.22
345.768	22.34
345.978	21.46
346.189	20.83
346.399	19.77
346.61	18.52
346.821	16.39
347.031	17.23
347.242	16.67
347.452	16.15
347.663	14.5
347.873	14.43
348.084	15.24
348.294	14.37
348.504	15
348.715	12.65
348.925	13.36
349.136	15.91
349.346	16.76
349.557	17.19
349.767	16.94
349.977	18.84
350.188	16.73
350.398	14.33
350.608	16.3
350.819	15.57
351.029	16.32
351.239	15.06
351.449	16.24
351.66	15.53
351.87	15.01
352.08	15.65
352.29	15.88
352.501	16.85
352.711	18.6
352.921	17.24
353.131	16.96
353.341	17.3
353.552	17.83
353.762	16.43
353.972	16.45
354.182	17.46
354.392	16.5
354.602	14.06
354.812	15.43
355.022	15.44
355.232	15.23
355.442	16.08
355.652	16.99
355.862	16.81
356.072	14.85
356.282	13.65
356.492	13.36
356.702	14.15
356.912	16.02
357.122	16.01
357.332	16.57
357.542	16.59
357.752	15.52
357.962	15.77
358.171	16.81
358.381	17.65
358.591	17.86
358.801	17.93
359.011	16.47
359.221	15.57
359.43	14.78
359.64	14.76
359.85	15.29
360.06	15.16
360.269	15.04
360.479	14.62
360.689	15.18
360.899	15.83
361.108	15.61
361.318	16.66
361.528	17.03
361.737	16.93
361.947	16.13
362.156	16.99
362.366	17.61
362.576	17.12
362.785	17.54
362.995	17.35
363.204	17.39
363.414	18.03
363.623	17.92
363.833	18.41
364.042	18.56
364.252	19.82
364.461	19.19
364.671	19.1
364.88	19.75
365.09	19.84
365.299	19.97
365.509	19.91
365.718	19.66
365.927	18.92
366.137	18.37
366.346	18.51
366.555	17.17
366.765	16.8
366.974	16.98
367.183	15.44
367.393	14.54
367.602	13.28
367.811	13.27
368.021	12.46
368.23	13.81
368.439	13.53
368.648	12.25
368.857	12.25
369.067	11.95
369.276	10.81
369.485	11.59
369.694	12.01
369.903	12.22
370.112	11.79
370.321	11.95
370.531	10.72
370.74	9.33
370.949	10.82
371.158	11.55
371.367	11.99
371.576	12.18
371.785	12.41
371.994	12.06
372.203	13.8
372.412	13.72
372.621	13.36
372.83	14.19
373.039	15.07
373.248	13.38
373.457	12.7
373.666	12.13
373.874	11.69
374.083	11.48
374.292	11.68
374.501	10.45
374.71	9.9
374.919	10.55
375.128	9.85
375.336	10.06
375.545	11.41
375.754	11.72
375.963	12.06
376.171	12.44
376.38	13.1
376.589	12.97
376.798	13.3
377.006	14.04
377.215	14.54
377.424	14.61
377.632	14.17
377.841	13.94
378.05	14.13
378.258	14.25
378.467	14.45
378.675	13.88
378.884	13.88
379.093	13.06
379.301	12.99
379.51	12.21
379.718	12.53
379.927	12.62
380.135	12.36
380.344	12.99
380.552	13.11
380.761	13.01
380.969	12.77
381.177	12.41
381.386	13.61
381.594	13.82
381.803	14.07
382.011	13.45
382.219	13.16
382.428	12.77
382.636	11.91
382.845	10.91
383.053	10.52
383.261	10.69
383.469	10.68
383.678	9.96
383.886	9.84
384.094	9.79
384.302	10.31
384.511	11.18
384.719	11.92
384.927	11.7
385.135	11.75
385.343	11.61
385.552	11.08
385.76	10.9
385.968	11.07
386.176	10.37
386.384	9.89
386.592	9.76
386.8	9.37
387.008	9.04
387.216	8.75
387.424	9.13
387.633	9.24
387.841	9.45
388.049	9.64
388.257	9.16
388.465	9.19
388.672	9.32
388.88	9.45
389.088	9.72
389.296	9.43
389.504	10.28
389.712	10.03
389.92	9.35
390.128	8.61
390.336	8.61
390.544	8.43
390.751	8.19
390.959	8.62
391.167	7.96
391.375	7.8
391.583	7.95
391.79	7.59
391.998	7.68
392.206	8.19
392.414	8.76
392.621	8.83
392.829	8.99
393.037	9.5
393.244	9.33
393.452	9.25
393.66	9.17
393.867	8.95
394.075	8.44
394.283	8.18
394.49	8
394.698	7.61
394.905	7.37
395.113	7
395.32	6.5
395.528	5.83
395.735	5.93
395.943	5.64
396.15	5.79
396.358	5.88
396.565	5.92
396.773	6.1
396.98	6.6
397.188	6.1
397.395	6.44
397.602	6.46
397.81	6.87
398.017	6.55
398.225	6.61
398.432	6.86
398.639	6.9
398.847	7.19
399.054	7.02
399.261	7.32
399.468	7.48
399.676	7.46
399.883	7.83
400.09	7.81
400.297	8.39
400.505	8.66
400.712	8.32
400.919	8.05
401.126	7.87
401.333	8.06
401.54	7.78
401.748	7.63
401.955	7.65
402.162	7.44
402.369	7.37
402.576	7.03
402.783	6.86
402.99	7.08
403.197	7.4
403.404	7.58
403.611	7.7
403.818	7.76
404.025	7.95
404.232	8.07
404.439	7.82
404.646	7.63
404.853	7.79
405.06	7.77
405.267	8.03
405.474	7.92
405.681	7.62
405.887	7.23
406.094	6.96
406.301	7.01
406.508	6.77
406.715	7.08
406.922	7
407.128	6.69
407.335	6.45
407.542	5.99
407.749	6.24
407.955	5.98
408.162	6.32
408.369	6.46
408.575	6.84
408.782	6.9
408.989	6.8
409.195	6.89
409.402	7.01
409.609	7.56
409.815	7.48
410.022	7.05
410.228	7.37
410.435	6.95
410.642	7.05
410.848	6.87
411.055	7.02
411.261	7.41
411.468	7.43
411.674	7.45
411.881	6.93
412.087	6.8
412.294	7.27
412.5	7.32
412.706	7.62
412.913	7.48
413.119	7.26
413.326	7.42
413.532	6.89
413.738	7.09
413.945	7.15
414.151	7.27
414.357	7
414.564	6.54
414.77	6.36
414.976	6.4
415.182	6.25
415.389	6.17
415.595	6
415.801	6.01
416.007	5.98
416.214	5.82
416.42	5.8
416.626	5.97
416.832	6.41
417.038	6.34
417.244	6.24
417.45	6.27
417.657	6.52
417.863	6.5
418.069	6.56
418.275	6.38
418.481	6.43
418.687	6.39
418.893	6.66
419.099	6.51
419.305	6.67
419.511	6.79
419.717	6.91
419.923	6.79
420.129	6.73
420.335	6.75
420.541	6.76
420.746	6.71
420.952	6.82
421.158	6.74
421.364	6.66
421.57	6.72
421.776	6.57
421.982	6.5
422.187	6.29
422.393	6.36
422.599	6.46
422.805	6.39
423.01	6.48
423.216	6.48
423.422	6.26
423.628	6.22
423.833	6.1
424.039	6.05
424.245	6.05
424.45	6.13
424.656	5.95
424.862	5.67
425.067	5.83
425.273	5.75
425.478	5.59
425.684	5.47
425.889	5.58
426.095	5.47
426.301	5.25
426.506	5.16
426.712	5.21
426.917	5.52
427.123	5.54
427.328	5.4
427.533	5.31
427.739	5.42
427.944	5.71
428.15	5.6
428.355	5.46
428.561	5.65
428.766	5.61
428.971	6.02
429.177	5.91
429.382	6.01
429.587	6.12
429.793	6.22
429.998	6.34
430.203	6.5
430.408	6.62
430.614	6.8
430.819	7.22
431.024	7.19
431.229	6.67
431.434	6.62
431.64	6.72
431.845	6.68
432.05	6.77
432.255	6.66
432.46	6.31
432.665	6.16
432.87	5.98
433.076	5.78
433.281	5.77
433.486	6.1
433.691	5.96
433.896	5.71
434.101	5.64
434.306	5.63
434.511	5.82
434.716	6.05
434.921	6.1
435.126	6.4
435.331	6.53
435.535	6.73
435.74	6.47
435.945	6.57
436.15	6.65
436.355	6.57
436.56	6.5
436.765	6.29
436.97	6.33
437.174	6.19
437.379	6
437.584	5.67
437.789	5.49
437.993	5.67
438.198	5.89
438.403	5.96
438.608	6.08
438.812	6.13
439.017	6.07
439.222	6.02
439.426	6.24
439.631	6.29
439.836	6.29
440.04	6.07
440.245	6.17
440.45	5.85
440.654	5.94
440.859	5.93
441.063	5.94
441.268	5.99
441.472	5.85
441.677	5.8
441.881	5.8
442.086	6.01
442.29	6.15
442.495	5.94
442.699	6.06
442.904	5.86
443.108	5.88
443.312	5.93
443.517	5.87
443.721	5.98
443.925	5.93
444.13	5.99
444.334	5.96
444.538	6.06
444.743	6.01
444.947	5.96
445.151	6.24
445.356	6.21
445.56	6.03
445.764	5.95
445.968	5.82
446.173	5.77
446.377	5.72
446.581	5.64
446.785	5.63
446.989	5.76
447.193	5.76
447.398	5.7
447.602	5.74
447.806	5.86
448.01	5.83
448.214	5.99
448.418	5.91
448.622	6.05
448.826	5.92
449.03	6
449.234	5.89
449.438	5.97
449.642	5.88
449.846	5.64
450.05	5.56
450.254	5.63
450.458	5.6
450.662	5.77
450.866	5.57
451.069	5.96
451.273	5.87
451.477	5.83
451.681	5.86
451.885	5.85
452.089	6.02
452.292	6.16
452.496	6.34
452.7	6.13
452.904	5.82
453.107	5.81
453.311	5.61
453.515	5.48
453.719	5.6
453.922	5.62
454.126	5.56
454.33	5.65
454.533	5.16
454.737	5.1
454.94	5.18
455.144	5.41
455.348	5.41
455.551	5.31
455.755	5.29
455.958	4.99
456.162	4.87
456.365	4.87
456.569	4.74
456.772	4.99
456.976	4.86
457.179	4.73
457.383	4.75
457.586	4.63
457.79	4.96
457.993	4.96
458.196	5.28
458.4	5.33
458.603	5.59
458.807	5.51
459.01	5.65
459.213	5.64
459.417	5.79
459.62	5.76
459.823	5.79
460.026	5.97
460.23	6
460.433	5.87
460.636	5.86
460.839	5.64
461.042	5.79
461.246	5.71
461.449	5.46
461.652	5.53
461.855	5.53
462.058	5.45
462.261	4.63
462.464	4.8
462.668	4.7
462.871	4.71
463.074	4.83
463.277	4.66
463.48	4.62
463.683	4.78
463.886	4.62
464.089	4.72
464.292	4.67
464.495	4.98
464.698	5.07
464.901	4.89
465.104	4.7
465.306	4.48
465.509	4.68
465.712	4.52
465.915	4.42
466.118	4.71
466.321	4.65
466.524	4.8
466.726	4.9
466.929	4.74
467.132	5.01
467.335	5.22
467.538	5.26
467.74	5.27
467.943	5.3
468.146	5.66
468.348	5.34
468.551	5.15
468.754	5.29
468.956	5.39
469.159	5.24
469.362	5.16
469.564	5.21
469.767	5.18
469.969	5.27
470.172	5.2
470.375	5.39
470.577	5.26
470.78	5.56
470.982	5.47
471.185	5.44
471.387	5.58
471.59	5.73
471.792	5.75
471.995	6.05
472.197	5.89
472.399	6.24
472.602	6.11
472.804	6.17
473.007	6.15
473.209	6.27
473.411	5.96
473.614	5.78
473.816	5.85
474.018	5.95
474.22	5.57
474.423	5.56
474.625	5.42
474.827	5.54
475.03	5.69
475.232	5.5
475.434	5.35
475.636	5.44
475.838	5.55
476.04	5.55
476.243	5.35
476.445	5.58
476.647	5.5
476.849	5.44
477.051	5.02
477.253	5.25
477.455	5.1
477.657	5.13
477.859	5.23
478.061	5.03
478.263	4.82
478.465	4.75
478.667	4.77
478.869	4.64
479.071	4.68
479.273	4.87
479.475	4.71
479.677	4.92
479.879	4.96
480.081	5.08
480.283	5.29
480.485	5.37
480.686	5.39
480.888	5.44
481.09	5.56
481.292	5.43
481.494	5.32
481.695	5.36
481.897	5.47
482.099	5.35
482.301	5.38
482.502	5.45
482.704	5.57
482.906	5.56
483.107	5.63
483.309	5.67
483.511	5.77
483.712	5.84
483.914	5.78
484.115	5.77
484.317	5.86
484.519	5.82
484.72	5.81
484.922	5.76
485.123	5.78
485.325	5.67
485.526	5.66
485.728	5.54
485.929	5.48
486.131	5.47
486.332	5.46
486.534	5.48
486.735	5.5
486.936	5.48
487.138	5.48
487.339	5.54
487.541	5.61
487.742	5.63
487.943	5.75
488.144	5.72
488.346	5.76
488.547	5.7
488.748	5.66
488.95	5.65
489.151	5.67
489.352	5.54
489.553	5.6
489.755	5.54
489.956	5.52
490.157	5.51
490.358	5.63
490.559	5.61
490.76	5.65
490.961	5.7
491.163	5.76
491.364	5.71
491.565	5.77
491.766	5.64
491.967	5.77
492.168	5.69
492.369	5.65
492.57	5.6
492.771	5.64
492.972	5.59
493.173	5.58
493.374	5.46
493.575	5.51
493.776	5.49
493.976	5.46
494.177	5.27
494.378	5.3
494.579	5.26
494.78	5.32
494.981	5.23
495.182	5.44
495.382	5.3
495.583	5.25
495.784	5.06
495.985	5.08
496.185	5.29
496.386	5.29
496.587	5.41
496.788	5.34
496.988	5.25
497.189	5.25
497.39	5.09
497.59	5.15
497.791	5.12
497.992	5.23
498.192	5.37
498.393	5.22
498.593	5.15
498.794	4.92
498.994	5.01
499.195	4.95
499.395	4.99
499.596	5.11
499.796	5.17
499.997	5.23
500.197	5.33
500.398	5.3
500.598	5.31
500.799	5.3
500.999	5.51
501.199	5.35
501.4	5.34
501.6	5.48
501.801	5.4
502.001	5.09
502.201	5.36
502.402	5.28
502.602	5.18
502.802	5.24
503.002	5.26
503.203	5.23
503.403	5.38
503.603	5.73
503.803	5.49
504.003	5.37
504.204	5.59
504.404	5.57
504.604	5.58
504.804	5.99
505.004	5.77
505.204	5.75
505.404	5.73
505.604	5.73
505.804	5.43
506.005	5.74
506.205	5.91
506.405	5.84
506.605	5.92
506.805	5.92
507.005	5.49
507.204	5.72
507.404	5.85
507.604	5.88
507.804	5.92
508.004	6.11
508.204	5.86
508.404	5.98
508.604	6.13
508.804	5.82
509.003	5.69
509.203	5.79
509.403	5.8
509.603	5.8
509.803	5.61
510.002	5.66
510.202	5.57
510.402	5.55
510.602	5.5
510.801	5.49
511.001	5.48
511.201	5.54
511.4	5.7
511.6	5.83
511.8	5.78
511.999	6.03
512.199	6.02
512.398	5.98
512.598	6.13
512.797	5.9
512.997	5.65
513.197	5.81
513.396	5.74
513.596	5.62
513.795	5.4
513.994	5.49
514.194	5.59
514.393	5.42
514.593	5.59
514.792	5.4
514.992	5.57
515.191	5.74
515.39	5.65
515.59	5.77
515.789	5.85
515.988	5.94
516.188	5.73
516.387	5.54
516.586	5.81
516.786	5.7
516.985	5.88
517.184	5.8
517.383	5.82
517.582	5.94
517.782	6.11
517.981	5.95
518.18	5.84
518.379	5.91
518.578	6.03
518.777	5.91
518.976	5.87
519.176	5.9
519.375	5.91
519.574	5.92
519.773	5.77
519.972	5.74
520.171	6.01
520.37	5.98
520.569	6.1
520.768	5.98
520.967	6.07
521.166	6.26
521.365	6.46
521.564	6.35
521.762	6.38
521.961	6.48
522.16	6.3
522.359	6.02
522.558	6.04
522.757	6.16
522.956	6.22
523.154	6.12
523.353	6.15
523.552	5.98
523.751	6.29
523.949	6.28
524.148	6.35
524.347	6.34
524.546	6.59
524.744	6.76
524.943	6.63
525.142	6.63
525.34	6.55
525.539	6.36
525.737	6.27
525.936	6.33
526.135	6.29
526.333	6.34
526.532	6.43
526.73	6.26
526.929	6.23
527.127	6.3
527.326	6.51
527.524	6.66
527.723	6.72
527.921	6.83
528.12	6.83
528.318	6.94
528.516	6.9
528.715	6.94
528.913	7
529.112	7.12
529.31	7.13
529.508	7.09
529.707	7.03
529.905	7.04
530.103	6.94
530.301	6.86
530.5	6.77
530.698	6.8
530.896	6.8
531.094	6.82
531.293	6.68
531.491	6.67
531.689	6.6
531.887	6.67
532.085	6.72
532.283	6.85
532.481	6.86
532.68	6.93
532.878	6.96
533.076	7.08
533.274	7.1
533.472	7.1
533.67	7.02
533.868	6.97
534.066	7.01
534.264	7.04
534.462	7.1
534.66	7.04
534.858	7.06
535.056	7
535.253	6.84
535.451	6.84
535.649	6.77
535.847	6.78
536.045	6.93
536.243	6.86
536.441	6.94
536.638	6.87
536.836	7.02
537.034	6.9
537.232	6.94
537.43	6.93
537.627	7
537.825	7.12
538.023	7.18
538.22	7.25
538.418	7.33
538.616	7.28
538.813	7.34
539.011	7.4
539.209	7.54
539.406	7.49
539.604	7.54
539.801	7.5
539.999	7.58
540.196	7.54
540.394	7.43
540.591	7.5
540.789	7.46
540.986	7.57
541.184	7.66
541.381	7.82
541.579	7.82
541.776	7.82
541.974	7.87
542.171	7.86
542.368	7.93
542.566	7.97
542.763	7.94
542.96	8.06
543.158	8.07
543.355	8.04
543.552	7.94
543.75	8.01
543.947	8.12
544.144	8.09
544.341	8.31
544.539	8.36
544.736	8.4
544.933	8.42
545.13	8.3
545.327	8.23
545.524	8.24
545.722	8.3
545.919	8.36
546.116	8.29
546.313	8.32
546.51	8.07
546.707	8.06
546.904	8.08
547.101	8.15
547.298	8.19
547.495	8.22
547.692	8.35
547.889	8.31
548.086	8.16
548.283	8.18
548.48	8.31
548.677	8.48
548.874	8.62
549.07	8.58
549.267	8.45
549.464	8.61
549.661	8.62
549.858	8.31
550.055	8.39
550.251	8.8
550.448	8.82
550.645	8.69
550.842	8.55
551.038	8.7
551.235	8.73
551.432	8.99
551.628	9.22
551.825	9.34
552.022	9.41
552.218	9.43
552.415	9.16
552.612	9.43
552.808	9.39
553.005	9.46
553.201	9.33
553.398	9.36
553.594	9.57
553.791	9.45
553.987	9.25
554.184	9.47
554.38	9.62
554.577	9.75
554.773	9.7
554.97	9.87
555.166	10.01
555.362	10.3
555.559	10.44
555.755	10.46
555.952	10.49
556.148	10.5
556.344	10.26
556.541	10.39
556.737	10.64
556.933	10.64
557.129	10.72
557.326	10.81
557.522	10.57
557.718	10.76
557.914	10.49
558.11	10.63
558.307	10.86
558.503	10.98
558.699	11.07
558.895	11.09
559.091	11
559.287	11.02
559.483	10.93
559.679	11.19
559.876	11.29
560.072	11.66
560.268	11.79
560.464	11.72
560.66	11.97
560.856	11.76
561.052	11.82
561.247	12.07
561.443	12.04
561.639	12.27
561.835	12.26
562.031	12.13
562.227	12.13
562.423	12.16
562.619	12.26
562.815	12.1
563.01	12.32
563.206	12.33
563.402	12.3
563.598	12.4
563.793	12.38
563.989	12.56
564.185	12.59
564.381	12.37
564.576	12.26
564.772	12.29
564.968	12.46
565.163	12.38
565.359	12.41
565.555	12.44
565.75	12.59
565.946	12.85
566.141	12.75
566.337	12.88
566.532	12.88
566.728	13.03
566.923	13.29
567.119	13.3
567.314	13.4
567.51	13.39
567.705	13.54
567.901	13.69
568.096	13.51
568.292	13.54
568.487	13.5
568.682	13.62
568.878	13.65
569.073	13.48
569.268	13.67
569.464	13.84
569.659	14.03
569.854	14.14
570.05	13.95
570.245	13.99
570.44	14.07
570.635	14.2
570.831	14.32
571.026	14.4
571.221	14.38
571.416	14.56
571.611	14.24
571.806	14.34
572.002	13.95
572.197	14.03
572.392	14
572.587	14.08
572.782	14.04
572.977	13.98
573.172	13.77
573.367	13.86
573.562	13.7
573.757	13.83
573.952	13.65
574.147	14.17
574.342	14.16
574.537	14.14
574.732	14.16
574.927	14.2
575.121	14.53
575.316	14.7
575.511	14.95
575.706	14.96
575.901	15.1
576.096	15.26
576.29	15.27
576.485	15.28
576.68	15.63
576.875	15.71
577.069	15.82
577.264	15.74
577.459	15.72
577.654	15.46
577.848	15.57
578.043	15.89
578.238	15.69
578.432	15.41
578.627	15.37
578.821	15.25
579.016	15.21
579.21	15.17
579.405	15.13
579.6	15.26
579.794	15.57
579.989	15.66
580.183	15.7
580.378	15.82
580.572	16.04
580.766	16.03
580.961	16.08
581.155	16.23
581.35	16.27
581.544	16
581.738	16
581.933	16.06
582.127	15.95
582.321	15.79
582.516	16.14
582.71	15.97
582.904	16.08
583.099	16.02
583.293	15.96
583.487	16.09
583.681	16.48
583.875	16.59
584.07	16.24
584.264	15.89
584.458	15.83
584.652	15.44
584.846	15.83
585.04	15.97
585.234	15.72
585.428	15.56
585.623	15.28
585.817	15.33
586.011	15.36
586.205	15.62
586.399	16.06
586.593	15.91
586.787	16.14
586.981	15.93
587.174	15.96
587.368	16.14
587.562	16.29
587.756	16.59
587.95	16.34
588.144	16.03
588.338	16.23
588.532	16.29
588.725	16.17
588.919	16.09
589.113	16.36
589.307	16.58
589.501	16.95
589.694	16.9
589.888	16.85
590.082	17.02
590.275	17.44
590.469	17.17
590.663	16.9
590.856	17.18
591.05	17.27
591.244	17.08
591.437	16.67
591.631	16.4
591.824	16.45
592.018	16.21
592.212	16.04
592.405	16.05
592.599	15.88
592.792	16.19
592.986	16.17
593.179	16.11
593.372	16.12
593.566	16.45
593.759	16.54
593.953	16.51
594.146	16.82
594.339	16.97
594.533	16.78
594.726	16.97
594.92	16.7
595.113	16.89
595.306	16.75
595.499	16.52
595.693	16.42
595.886	16.53
596.079	16.82
596.272	16.93
596.466	16.82
596.659	17.01
596.852	17.1
597.045	17.11
597.238	17.21
597.431	17.26
597.624	17.37
597.818	17.33
598.011	17.38
598.204	16.99
598.397	16.9
598.59	17.23
598.783	17.04
598.976	17.32
599.169	17.71
599.362	17.37
599.555	17.64
599.748	17.86
599.941	17.99
600.134	17.59
600.326	17.9
600.519	17.72
600.712	17.19
600.905	17.04
601.098	16.71
601.291	16.47
601.483	16.79
601.676	16.47
601.869	16.13
602.062	16.14
602.255	16.42
602.447	16.25
602.64	16.66
602.833	17.11
603.025	17.6
603.218	17.87
603.411	18.16
603.603	18.13
603.796	18.27
603.989	18.55
604.181	18.35
604.374	18.23
604.566	18.35
604.759	18.11
604.951	17.95
605.144	17.65
605.336	17.45
605.529	17.32
605.721	17.11
605.914	17.31
606.106	17.23
606.299	17.34
606.491	17.24
606.683	17.42
606.876	17.47
607.068	17.42
607.26	17.52
607.453	17.33
607.645	17.36
607.837	17.24
608.03	17.08
608.222	17.34
608.414	17.39
608.606	17.63
608.799	17.55
608.991	17.69
609.183	18.08
609.375	18.07
609.567	18.36
609.759	18.19
609.952	18.33
610.144	18.33
610.336	18.2
610.528	18.38
610.72	18.44
610.912	18.37
611.104	18.19
611.296	17.61
611.488	17.52
611.68	17.34
611.872	17.57
612.064	17.8
612.256	17.55
612.448	17.18
612.64	17.05
612.832	16.59
613.023	16.42
613.215	16.22
613.407	16.46
613.599	17
613.791	17.22
613.983	17.06
614.174	16.91
614.366	17.33
614.558	17.77
614.75	17.59
614.941	17.69
615.133	17.87
615.325	17.73
615.516	17.99
615.708	17.16
615.9	16.83
616.091	16.6
616.283	16.51
616.475	16.29
616.666	16.19
616.858	16.32
617.049	16.53
617.241	16.61
617.432	16.65
617.624	16.46
617.815	16.9
618.007	17.02
618.198	17.14
618.39	17.16
618.581	17.15
618.773	17.17
618.964	17.04
619.155	16.72
619.347	16.53
619.538	16.74
619.729	16.63
619.921	16.9
620.112	16.66
620.303	16.31
620.494	16.42
620.686	16.42
620.877	16.54
621.068	16.69
621.259	16.87
621.451	17.17
621.642	17.17
621.833	17.28
622.024	16.71
622.215	16.9
622.406	17.29
622.597	17.47
622.788	17.25
622.98	17.51
623.171	17.75
623.362	17.75
623.553	17.77
623.744	18.07
623.935	17.99
624.126	18.25
624.317	17.83
624.508	17.74
624.698	17.37
624.889	17.6
625.08	17.33
625.271	17.15
625.462	17.4
625.653	17.03
625.844	16.83
626.034	17.09
626.225	16.98
626.416	17.34
626.607	17.39
626.798	17.6
626.988	17.46
627.179	17.57
627.37	17.61
627.56	17.48
627.751	17.56
627.942	17.76
628.132	17.45
628.323	17.42
628.514	17.55
628.704	17.72
628.895	17.6
629.085	17.78
629.276	17.89
629.466	18.02
629.657	18.23
629.847	18.68
630.038	18.72
630.228	18.9
630.419	18.75
630.609	18.64
630.8	18.36
630.99	18.47
631.181	18.58
631.371	18.48
631.561	18.22
631.752	18.34
631.942	18.03
632.132	17.53
632.323	17.22
632.513	17.59
632.703	17.59
632.893	17.38
633.084	17.56
633.274	17.38
633.464	16.75
633.654	16.95
633.844	16.67
634.034	16.61
634.225	16.74
634.415	16.82
634.605	16.75
634.795	17.06
634.985	17.49
635.175	17.39
635.365	17.62
635.555	18.17
635.745	18.15
635.935	17.98
636.125	18.03
636.315	17.75
636.505	17.95
636.695	17.73
636.885	17.3
637.075	17
637.265	16.74
637.455	16.61
637.644	16.15
637.834	15.89
638.024	15.57
638.214	15.48
638.404	15.59
638.593	15.22
638.783	15.32
638.973	15.29
639.163	15.38
639.352	15.35
639.542	15.42
639.732	15.58
639.921	15.66
640.111	15.86
640.301	15.91
640.49	16.48
640.68	16.85
640.87	16.62
641.059	16.61
641.249	16.81
641.438	16.98
641.628	16.71
641.817	16.84
642.007	16.9
642.196	16.95
642.386	17.22
642.575	16.8
642.764	17.04
642.954	17.07
643.143	17.25
643.333	17.01
643.522	16.76
643.711	16.48
643.901	15.84
644.09	15.97
644.279	16.65
644.469	16.57
644.658	17.05
644.847	16.6
645.036	16.6
645.226	16.7
645.415	16.67
645.604	16.44
645.793	16.68
645.982	17.33
646.171	16.86
646.361	16.21
646.55	15.96
646.739	15.22
646.928	15.33
647.117	15.33
647.306	15.32
647.495	15.18
647.684	15.42
647.873	15.39
648.062	15.48
648.251	15.85
648.44	15.99
648.629	16.62
648.818	17.49
649.007	17.93
649.196	18.19
649.384	18.13
649.573	18.46
649.762	18.64
649.951	18.98
650.14	19
650.328	19.06
650.517	19.17
650.706	18.67
650.895	18.36
651.083	17.92
651.272	18.05
651.461	18.3
651.65	18.24
651.838	18.43
652.027	18.18
652.216	18.11
652.404	18.5
652.593	18.62
652.781	18.57
652.97	18.8
653.158	18.69
653.347	18.57
653.535	18.59
653.724	18.39
653.912	18.43
654.101	18.57
654.289	18.29
654.478	17.87
654.666	17.96
654.855	18.28
655.043	17.97
655.231	18.61
655.42	18.97
655.608	18.41
655.796	18.87
655.985	18.16
656.173	18.17
656.361	18.66
656.55	18.55
656.738	17.83
656.926	17.18
657.114	17.2
657.302	16.97
657.491	16.77
657.679	17.23
657.867	17.07
658.055	17.47
658.243	17.42
658.431	17.4
658.619	17.79
658.807	18.53
658.996	18.88
659.184	19.1
659.372	19.01
659.56	18.89
659.748	18.7
659.936	19.13
660.124	19.11
660.311	19.35
660.499	19.01
660.687	19.02
660.875	18.68
661.063	18.81
661.251	18.62
661.439	18.84
661.627	19.37
661.814	19.63
662.002	19.01
662.19	19.25
662.378	18.82
662.565	19.03
662.753	18.1
662.941	18.12
663.129	17.54
663.316	17.3
663.504	17.01
663.692	16.43
663.879	16.36
664.067	16.56
664.254	17.04
664.442	17.8
664.63	17.83
664.817	18.41
665.005	18.73
665.192	19.45
665.38	20.02
665.567	20.09
665.755	19.97
665.942	20.06
666.13	20.04
666.317	19.07
666.504	18.2
666.692	18.01
666.879	18.34
667.067	18.21
667.254	17.84
667.441	17.44
667.629	17.9
667.816	17.76
668.003	18.01
668.19	18.17
668.378	18.57
668.565	19.5
668.752	19.62
668.939	19.25
669.127	19.46
669.314	20.14
669.501	20.77
669.688	19.91
669.875	20.1
670.062	19.76
670.249	19.75
670.436	19.52
670.623	18.92
670.81	18.93
670.997	19.08
671.184	18.63
671.371	17.9
671.558	17.7
671.745	18.21
671.932	17.82
672.119	17.8
672.306	17.2
672.493	17.78
672.68	17.51
672.867	17.87
673.054	17.4
673.24	17.3
673.427	17.23
673.614	17.32
673.801	16.74
673.988	17.27
674.174	17.37
674.361	17.47
674.548	17.2
674.734	17.4
674.921	17.02
675.108	17.29
675.294	17.76
675.481	17.49
675.668	17.3
675.854	17.94
676.041	17.59
676.227	17.29
676.414	18.13
676.601	17.97
676.787	18.05
676.974	18.18
677.16	17.74
677.347	17.97
677.533	18.65
677.719	18.75
677.906	18.69
678.092	19.18
678.279	19.49
678.465	19.36
678.651	19.38
678.838	19.67
679.024	19.52
679.21	20.03
679.397	19.82
679.583	19.97
679.769	19.34
679.955	19.5
680.142	19.12
680.328	18.94
680.514	18.62
680.7	18.81
680.886	18.69
681.073	18.83
681.259	18.9
681.445	18.85
681.631	18.22
681.817	18.69
682.003	19.25
682.189	19.11
682.375	19.29
682.561	19.55
682.747	19.7
682.933	19.55
683.119	19.42
683.305	19.77
683.491	20.02
683.677	19.91
683.863	19.91
684.049	19.34
684.235	19.43
684.42	19.58
684.606	19.55
684.792	18.91
684.978	19.02
685.164	19.54
685.349	19.21
685.535	19.38
685.721	19.4
685.907	19.08
686.092	19.17
686.278	19.36
686.464	19.21
686.649	18.85
686.835	18.78
687.021	18.68
687.206	18.55
687.392	18.23
687.577	17.47
687.763	17.79
687.948	17.86
688.134	17.67
688.319	17.8
688.505	17.52
688.69	18.04
688.876	18.88
689.061	18.5
689.247	18.17
689.432	18.68
689.618	19.14
689.803	19
689.988	18.35
690.174	18.3
690.359	18.12
690.544	18.02
690.73	17.87
690.915	17.79
691.1	18.07
691.285	18.81
691.471	18.95
691.656	18.68
691.841	19.17
692.026	20.42
692.211	19.81
692.396	19.9
692.582	20.71
692.767	20.37
692.952	19.77
693.137	20.76
693.322	19.91
693.507	19.74
693.692	20.25
693.877	20.56
694.062	20.35
694.247	20.89
694.432	20.99
694.617	20.44
694.802	20.83
694.987	21.17
695.172	20.25
695.357	19.96
695.541	20.03
695.726	19.67
695.911	18.65
696.096	18.71
696.281	18.79
696.466	19.19
696.65	19.33
696.835	19.13
697.02	19.05
697.204	19.62
697.389	19.79
697.574	20.18
697.759	19.9
697.943	20.24
698.128	20.27
698.312	20.01
698.497	19.33
698.682	18.94
698.866	19.22
699.051	19.36
699.235	18.83
699.42	19.3
699.604	18.94
699.789	18.9
699.973	19.03
700.158	18.73
700.342	18.95
700.527	19.53
700.711	20.43
700.895	20.34
701.08	20.07
701.264	20.62
701.448	19.83
701.633	19.52
701.817	19.92
702.001	19.66
702.186	19.84
702.37	19.5
702.554	19.09
702.738	18.01
702.923	17.89
703.107	19.11
703.291	19.01
703.475	19.12
703.659	19.08
703.843	19.17
704.027	19.78
704.212	18.89
704.396	20.56
704.58	19.85
704.764	20.15
704.948	19.99
705.132	18.06
705.316	17.74
705.5	18.28
705.684	17.92
705.868	17.23
706.052	16.2
706.235	16.5
706.419	15.48
706.603	16.49
706.787	16.76
706.971	16.53
707.155	17.27
707.339	17.76
707.522	16.9
707.706	17.29
707.89	16.97
708.074	17.13
708.257	17.36
708.441	17.12
708.625	16.62
708.808	15.72
708.992	15.91
709.176	16.17
709.359	15.69
709.543	16.44
709.727	16.61
709.91	17.36
710.094	17.64
710.277	18.27
710.461	17.86
710.644	18.72
710.828	19.6
711.011	19.8
711.195	19.78
711.378	19.02
711.562	19.51
711.745	19.15
711.928	19.93
712.112	19.42
712.295	18.69
712.478	18.91
712.662	18.1
712.845	18.35
713.028	18.26
713.212	17.65
713.395	18.27
713.578	17.03
713.761	16.49
713.945	15.24
714.128	14.69
714.311	14.99
714.494	14.45
714.677	14.68
714.86	14.85
715.043	14.51
715.227	14.87
715.41	14.63
715.593	15.58
715.776	15.97
715.959	16.7
716.142	18.06
716.325	18.89
716.508	18.96
716.691	18.63
716.874	17.84
717.057	18.09
717.239	17.92
717.422	18.42
717.605	18.17
717.788	18.33
717.971	19.21
718.154	19.03
718.337	17.61
718.519	18.54
718.702	19.51
718.885	20.82
719.068	20.43
719.25	20.61
719.433	20.27
719.616	19.99
719.798	19.31
719.981	18.1
720.164	17.92
720.346	18.96
720.529	19.45
720.712	18.04
720.894	17.56
721.077	17.96
721.259	18.08
721.442	20.12
721.624	20.32
721.807	20.35
721.989	18.79
722.172	19.6
722.354	19.23
722.537	18.8
722.719	19.57
722.901	18.56
723.084	19.33
723.266	19.63
723.448	17.95
723.631	18.65
723.813	19.57
723.995	20.37
724.178	20.67
724.36	20.05
724.542	19.47
724.724	20.04
724.907	19.85
725.089	19.6
725.271	19.9
725.453	19.94
725.635	17.91
725.817	18.22
725.999	17.53
726.181	16.25
726.364	17.36
726.546	16.52
726.728	17.1
726.91	18.16
727.092	18.42
727.274	16.96
727.456	16.85
727.638	18.68
727.819	18.29
728.001	19.67
728.183	20
728.365	19.01
728.547	19.74
728.729	18.54
728.911	16.73
729.093	16.01
729.274	18.26
729.456	17.23
729.638	16.83
729.82	17
730.001	16.77
730.183	16.02
730.365	17.51
730.546	18.11
730.728	18.68
730.91	19.79
731.091	20.02
731.273	19.01
731.455	19.78
731.636	19.69
731.818	19.41
731.999	18.87
732.181	20.49
732.362	19.21
732.544	19
732.725	19.6
732.907	19.88
733.088	19.65
733.27	20.42
733.451	20.17
733.633	21.04
733.814	21.53
733.995	22.3
734.177	21.66
734.358	21.85
734.539	21.71
734.721	20.44
734.902	20.44
735.083	20.48
735.264	18.85
735.446	19.03
735.627	17.63
735.808	17.69
735.989	17.19
736.17	17.51
736.351	17.75
736.533	18.9
736.714	19.99
736.895	20.27
737.076	20.37
737.257	19.8
737.438	21.02
737.619	22.38
737.8	22.56
737.981	23.86
738.162	23.77
738.343	23.02
738.524	21.46
738.705	20.87
738.886	20.92
739.067	21.8
739.247	22.33
739.428	20.6
739.609	20.47
739.79	20.74
739.971	20.07
740.151	19.55
740.332	20.3
740.513	21.17
740.694	21.64
740.874	21.28
741.055	20.16
741.236	20.51
741.417	21.03
741.597	19.57
741.778	18.56
741.958	17.24
742.139	17.74
742.32	17.46
742.5	16.8
742.681	15.95
742.861	14.73
743.042	15.23
743.222	14.8
743.403	15.82
743.583	17.8
743.764	16.57
743.944	17.75
744.124	17.06
744.305	16.85
744.485	18.23
744.666	19.03
744.846	19.06
745.026	18.9
745.207	18.31
745.387	19.39
745.567	18.75
745.747	20.27
745.928	20.2
746.108	19.22
746.288	19.86
746.468	19.06
746.648	18.05
746.829	18.78
747.009	18.57
747.189	18.41
747.369	17.71
747.549	14.74
747.729	13.9
747.909	13.04
748.089	14.71
748.269	13.98
748.449	12.33
748.629	12.57
748.809	15.02
748.989	14.51
749.169	15.84
749.349	15.06
749.529	15.59
749.709	16.52
749.889	15.97
750.068	15.72
750.248	14.81
750.428	15.53
750.608	16.17
750.788	13.55
750.967	13.81
751.147	13.95
751.327	14.11
751.507	15.19
751.686	14.53
751.866	15.9
752.046	14.79
752.225	16.47
752.405	17.54
752.585	16.49
752.764	17.42
752.944	16.73
753.123	17.42
753.303	16.8
753.482	17.08
753.662	16.41
753.841	15.58
754.021	15.79
754.2	16.63
754.38	16.16
754.559	17.51
754.739	17.84
754.918	19.36
755.097	18.06
755.277	17.99
755.456	17.07
755.635	19.36
755.815	18.32
755.994	18.23
756.173	16.13
756.352	15.16
756.532	13.57
756.711	10.94
756.89	9.45
757.069	10.75
757.248	10.8
757.427	10.96
757.607	9.32
757.786	10.07
757.965	10.46
758.144	10.59
758.323	8.59
758.502	10.02
758.681	11.15
758.86	13.22
759.039	12.45
759.218	11.49
759.397	11.83
759.576	9.87
759.755	10.4
759.934	12.61
760.113	14.28
760.291	18.28
760.47	17.88
760.649	17.25
760.828	17.2
761.007	17.27
761.186	18.51
761.364	19.07
761.543	21.37
761.722	22.31
761.901	19.47
762.079	19.29
762.258	18.26
762.437	19.45
762.615	21.69
762.794	21.75
762.972	21.7
763.151	21.14
763.33	21.17
763.508	20.15
763.687	20.03
763.865	20.37
764.044	21.23
764.222	21.25
764.401	21.07
764.579	20.25
764.758	19.17
764.936	18.53
765.114	19.37
765.293	18.94
765.471	20.74
765.65	20.02
765.828	19.21
766.006	17.4
766.184	17.45
766.363	15.43
766.541	14.58
766.719	16.66
766.898	18.02
767.076	18.59
767.254	19.02
767.432	17.18
767.61	16.88
767.788	18.44
767.967	16.77
768.145	16.68
768.323	17.42
768.501	15.9
768.679	13.09
768.857	13.05
769.035	11.35
769.213	11.3
769.391	11.98
769.569	12.07
769.747	12
769.925	15.54
770.103	14.44
770.281	13.46
770.459	17.3
770.636	16.87
770.814	16.24
770.992	17.25
771.17	16.02
771.348	16.6
771.525	17.99
771.703	15.29
771.881	13.13
772.059	14.71
772.236	13.2
772.414	11.78
772.592	12.93
772.769	10.47
772.947	9.5
773.125	10.95
773.302	10.92
773.48	10.64
773.657	14.56
773.835	16.67
774.013	16.05
774.19	21.01
774.368	23.39
774.545	21.44
774.723	24.37
774.9	26.31
775.077	26.45
775.255	25.95
775.432	26.1
775.61	25.05
775.787	22.27
775.964	20.92
776.142	18.96
776.319	16.72
776.496	20.7
776.674	17.58
776.851	14.63
777.028	13.69
777.205	10.76
777.382	10.43
777.56	9.07
777.737	8.31
777.914	13.33
778.091	13.33
778.268	10.92
778.445	7.89
778.622	8.31
778.8	8.74
778.977	11.43
779.154	11.3
779.331	13.52
779.508	15.18
779.685	18.09
779.862	16.07
780.038	15.81
780.215	18.63
780.392	21.89
780.569	23.09
780.746	21.68
780.923	17.19
781.1	20.72
781.277	18.48
781.453	18.48
781.63	18.21
781.807	15.19
781.984	12.3
782.16	7.31
782.337	5.51
782.514	5.18
782.691	5.84
782.867	6.63
783.044	7.15
783.221	7.17
783.397	9.17
783.574	8.13
783.75	9.38
783.927	11.2
784.103	14.31
784.28	13.56
784.456	10.1
784.633	8.5
784.809	11.89
784.986	9.82
785.162	10.08
785.339	6.01
785.515	5.24
785.692	5.26
785.868	7.81
786.044	7.59
786.221	7.38
786.397	12.58
786.573	17.21
786.749	15.28
786.926	15.47
787.102	15.78
787.278	14.36
787.454	11.29
787.631	11.09
787.807	11.23
787.983	15.68
788.159	12.75
788.335	10.39
788.511	7.86
788.687	7.19
788.863	7.33
789.039	7.38
789.216	9.06
789.392	13.95
789.568	13.04
789.744	12.74
789.919	9.13
790.095	14.27
790.271	13.62
790.447	15.72
790.623	17.32
790.799	17.26
790.975	16.87
791.151	18.11
791.327	18.89
791.502	19.64
791.678	17.89
791.854	14.71
792.03	11.37
792.205	12.27
792.381	11.73
792.557	11.51
792.733	12.33
792.908	11.59
793.084	13.79
793.259	12.59
793.435	12.15
793.611	12.94
793.786	14.54
793.962	14.53
794.137	13.61
794.313	9.24
794.488	7.25
794.664	10.57
794.839	12.13
795.015	11.74
795.19	13.3
795.366	15.91
795.541	15.97
795.716	18.03
795.892	16.04
796.067	14.77
796.242	17.67
796.418	19.34
796.593	14.67
796.768	14.34
796.944	12
797.119	8.01
797.294	5.29
797.469	5.34
797.644	4.72
797.82	6.1
797.995	8.14
798.17	6.63
798.345	6.81
798.52	7.5
798.695	6.26
798.87	9.76
799.045	12.55
799.22	14.53
799.395	13.29
799.57	12.76
799.745	15.82
799.92	16.1
800.095	16.8
800.27	14.8
800.445	14.8
800.62	16.03
800.795	13.41
800.97	13.36
801.145	12
801.319	12.61
801.494	7.53
801.669	6.21
801.844	6
802.018	7.39
802.193	11.32
802.368	13.83
802.543	13.49
802.717	13.78
802.892	11.13
803.067	11.06
803.241	10.14
803.416	14.39
803.59	15.04
803.765	11.97
803.94	14.88
804.114	12.1
804.289	8.17
804.463	7.38
804.638	10.19
804.812	13.07
804.986	15.27
805.161	17.59
805.335	18.57
805.51	17.72
805.684	19.06
805.858	14.64
806.033	13.78
806.207	17.02
806.381	17.23
806.556	14.7
806.73	13.1
806.904	14.14
807.078	11.83
807.253	9.33
807.427	9.75
807.601	11.87
807.775	14.28
807.949	12.62
808.123	9.86
808.298	8.07
808.472	8.07
808.646	6.49
808.82	4.11
808.994	3.29
809.168	6.63
809.342	5.23
809.516	3.71
809.69	2.06
809.864	5.73
810.038	8.81
810.212	7.99
810.385	10.4
810.559	13.2
810.733	11.16
810.907	11.89
811.081	9.74
811.255	8.52
811.428	10.23
811.602	7.03
811.776	4.41
811.95	-1.53
812.123	0.63
812.297	-6.17
812.471	-6.99
812.644	-8.82
812.818	-5.4
812.992	3.15
813.165	3.2
813.339	4.13
813.512	7.54
813.686	6.31
813.86	11.05
814.033	15.19
814.207	16.75
814.38	16.1
814.554	17.32
814.727	10.25
814.9	4.96
815.074	2.75
815.247	1.42
815.421	-1.92
815.594	6.8
815.767	4.46
815.941	-1.87
816.114	-3.65
816.287	1.01
816.46	0.29
816.634	1.26
816.807	-1.25
816.98	4.95
817.153	2.72
817.327	6.2
817.5	-1.66
817.673	4.65
817.846	5.47
818.019	3.91
818.192	-3.98
818.365	-0.68
818.538	5.64
818.711	13.69
818.884	15.64
819.057	15.73
819.23	18.79
819.403	22.36
819.576	14.96
819.749	18.36
819.922	22.01
820.095	18.03
820.268	21.4
820.441	20.68
820.614	14.72
820.786	11.15
820.959	12.93
821.132	9.87
821.305	9.55
821.477	14.86
821.65	17.14
821.823	19.07
821.996	22.72
822.168	21.95
822.341	22.53
822.514	23.36
822.686	23.34
822.859	22.9
823.031	23.85
823.204	23.09
823.376	22.03
823.549	20.52
823.722	19.43
823.894	19.35
824.067	18.76
824.239	19.48
824.411	19.65
824.584	18.69
824.756	19.86
824.929	19.99
825.101	21.94
825.273	24.16
825.446	24.47
825.618	24.44
825.79	24.43
825.963	25.62
826.135	23.25
826.307	22.63
826.479	25.03
826.652	25.28
826.824	24.37
826.996	23.48
827.168	20.73
827.34	20.07
827.512	19.1
827.684	20.93
827.856	20.35
828.029	22.65
828.201	23.05
828.373	21.91
828.545	20.07
828.717	19.43
828.889	19.87
829.061	22.25
829.232	24.21
829.404	24.92
829.576	21.3
829.748	19.1
829.92	18.71
830.092	19.98
830.264	24.76
830.436	25.48
830.607	26.81
830.779	28.04
830.951	21.8
831.123	24.73
831.294	24.11
831.466	26.96
831.638	25.59
831.809	22.69
831.981	24.85
832.153	17.45
832.324	16.31
832.496	18.05
832.667	16.97
832.839	20.75
833.011	15.95
833.182	18.05
833.354	15.75
833.525	18.72
833.697	16.59
833.868	11.79
834.039	17.96
834.211	18.5
834.382	15.83
834.554	15.59
834.725	14.9
834.896	16.6
835.068	17.57
835.239	16.65
835.41	18.33
835.581	19.5
835.753	22.29
835.924	17.08
836.095	17.36
836.266	17.57
836.438	13.71
836.609	12.23
836.78	10.75
836.951	5.26
837.122	8.85
837.293	8.06
837.464	4.19
837.635	-2.12
837.806	0.66
837.977	1.42
838.148	4.68
838.319	6.61
838.49	7.31
838.661	8.53
838.832	8.72
839.003	-0.32
839.174	-5.79
839.345	-2.01
839.516	-0.95
839.687	-11.25
839.857	-16.41
840.028	-21.07
840.199	-15.6
840.37	-15.01
840.54	-16.96
840.711	-9.36
840.882	-8.08
841.053	-8.36
841.223	-12.34
841.394	-10.67
841.564	2.94
841.735	-0.31
841.906	4.1
842.076	5.45
842.247	7.32
842.417	-0.36
842.588	-0.77
842.758	13.95
842.929	23.2
843.099	19.45
843.27	14.94
843.44	13.69
843.611	24.97
843.781	17.92
843.951	13.35
844.122	12.91
844.292	16.92
844.462	17.51
844.633	2.19
844.803	-8.05
844.973	-0.31
845.144	-0.52
845.314	-12.86
845.484	-44.3
845.654	-33.74
845.824	-24.03
845.995	-9.96
846.165	-18.93
846.335	-31.78
846.505	-0.63
846.675	-6.12
846.845	1.9
847.015	4.88
847.185	17.5
847.355	19.12
847.525	21.63
847.695	27.31
847.865	15.73
848.035	25.85
848.205	24.23
848.375	3.63
848.545	5.87
848.715	-16.1
848.884	-10.25
849.054	-23.08
849.224	-25.37
849.394	-46.83
849.564	-40.22
849.733	-24.54
849.903	-21.97
850.073	-59.68
850.243	-45.13
850.412	-44.11
850.582	-25.4
850.752	-44.35
850.921	-56.78
851.091	-41.24
851.26	-58.61
851.43	-56.05
851.599	-97.54
851.769	-91.54
851.939	-46.93
852.108	-52.02
852.278	-52.63
852.447	-33.05
852.616	-20.94
852.786	-13.88
852.955	-16.5
853.125	-3.93
853.294	-11.4
853.463	-0.6
853.633	-3.63
853.802	4.4
853.971	9.63
854.141	6.49
854.31	-4.96
854.479	-5.58
854.648	-0.7
854.818	-10.8
854.987	-18.11
855.156	-36.52
855.325	-69.1
855.494	-56.06
855.663	-30.15
855.832	-52.45
856.001	-46.39
856.171	-23.37
856.34	-19.82
856.509	-27.22
856.678	-21.79
856.847	-11.59
857.016	-5.39
857.185	4.18
857.353	-1.17
857.522	-8.32
857.691	1.42
857.86	14.18
858.029	3.28
858.198	-3.82
858.367	1.02
858.535	-0.1
858.704	-18.34
858.873	-37.26
859.042	-30.04
859.21	-25.97
859.379	-27.08
859.548	-40.31
859.717	-37.34
859.885	-40.4
860.054	-77.89
860.222	-51.68
860.391	-33.01
860.56	-41.74
860.728	-9.99
860.897	-49.49
861.065	-45.39
861.234	-76.4
861.402	-21.72
861.571	-62.11
861.739	-82.5
861.908	-35.46
862.076	-51.5
862.244	-83.22
862.413	-65.86
862.581	-43.89
862.749	-31.25
862.918	-33.07
863.086	-26.14
863.254	-27.77
863.423	-13.7
863.591	-5.77
863.759	-2.15
863.927	-2.55
864.096	1.01
864.264	6.24
864.432	-9.14
864.6	-0.58
864.768	-27.99
864.936	-24.42
865.104	-79.97
865.272	-68.42
865.44	-56.01
865.608	-82.51
865.776	-50.16
865.944	-61.34
866.112	-66.77
866.28	-47.54
866.448	-54.5
866.616	-26.3
866.784	-30.94
866.952	-10.71
867.12	-3.51
867.288	-6.67
867.455	-11.79
867.623	-14.34
867.791	-6.83
867.959	-10.12
868.127	-15.6
868.294	-5.43
868.462	-7.59
868.63	-9.95
868.797	-3.86
868.965	-21.36
869.133	-1.75
869.3	26.22
869.468	27.42
869.636	33.38
869.803	43.32
869.971	55.39
870.138	53.83
870.306	52.78
870.473	57.04
870.641	53.09
870.808	73.54
870.975	49.69
871.143	27.66
871.31	31.59
871.478	24.81
871.645	14.8
871.812	-4.36
871.98	-54.41
872.147	-27.73
872.314	-22.37
872.482	-22.47
872.649	-34.17
872.816	-33.3
872.983	-7.26
873.15	-1.99
873.318	23.96
873.485	11.26
873.652	24.21
873.819	47.63
873.986	45.74
874.153	32.51
874.32	27.32
874.487	41.67
874.654	33.02
874.821	19.91
874.988	2.76
875.155	-13.06
875.322	5.73
875.489	-9.81
875.656	-19.08
875.823	-23.08
875.99	-3
876.157	-0.31
876.324	-11.48
876.49	-3.78
876.657	-18.29
876.824	-19.63
876.991	-65.98
877.157	-134.71
877.324	-50.51
877.491	-111.08
877.658	-75.81
877.824	-111.39
877.991	-39.15
878.157	-21.65
878.324	-36.45
878.491	-38.39
878.657	-36.38
878.824	7.22
878.99	2.17
879.157	-10.73
879.323	-10.06
879.49	-20.29
879.656	-30.6
879.823	-67.04
879.989	-73.48
880.156	-72.54
880.322	-76.28
880.488	-70.39
880.655	-78.93
880.821	-81.24
880.987	-52.7
881.154	-39.39
881.32	-26.19
881.486	-12.89
881.652	-8.89
881.819	-5.24
881.985	-4.54
882.151	-5.05
882.317	-8.86
882.483	-9.26
882.649	-2.83
882.816	-7.63
882.982	-8.45
883.148	-4.12
883.314	2.01
883.48	2.51
883.646	-0.19
883.812	4.49
883.978	11.54
884.144	14.14
884.31	12.72
884.476	9.12
884.642	13.49
884.807	16.74
884.973	13.38
885.139	11.21
885.305	9.85
885.471	10.95
885.637	13.66
885.802	9.46
885.968	13.18
886.134	15.62
886.3	18.65
886.465	12.43
886.631	7.8
886.797	17.45
886.962	16.88
887.128	19.9
887.293	22.5
887.459	17.11
887.625	23.65
887.79	19.98
887.956	33.97
888.121	36.13
888.287	42.49
888.452	56.53
888.618	52.97
888.783	62.98
