Data from 2938094_Reflection_3.txt Node
Date: Sat Jul 11 19:08:21 EDT 2015
User: robert
Spectrometer: USB4E03001
Autoset integration time: false
Trigger mode: 4
Integration Time (sec): 1.000000E-1
Scans to average: 10
Electric dark correction enabled: true
Nonlinearity correction enabled: false
Boxcar width: 5
Stray light correction enabled: false
XAxis mode: Wavelengths
Stop averaging: false
Number of Pixels in Spectrum: 3648
>>>>>Begin Spectral Data<<<<<
177.566	79.98
177.785	58.56
178.005	67.67
178.225	140.4
178.445	33.17
178.665	110.36
178.885	186.63
179.105	587.69
179.324	-934.47
179.544	89.94
179.764	42.18
179.984	96.02
180.204	52.09
180.423	143.31
180.643	-500.73
180.863	-94.87
181.083	-95.92
181.302	-43.75
181.522	-181.46
181.742	163.98
181.961	196.78
182.181	2620.67
182.401	890.72
182.621	-339.7
182.84	662.84
183.06	850.77
183.279	-206.24
183.499	39.93
183.719	1.02
183.938	3.77
184.158	0.67
184.377	12.37
184.597	20.75
184.816	-0.51
185.036	18.04
185.256	13.64
185.475	15.45
185.695	-0.88
185.914	-4.66
186.134	-16.28
186.353	6.38
186.572	-19.16
186.792	7.3
187.011	30.53
187.231	40.82
187.45	37.4
187.67	55.45
187.889	65.64
188.108	69.86
188.328	69.96
188.547	84.39
188.766	75.39
188.986	78.22
189.205	78.18
189.424	52.63
189.644	60.23
189.863	42.52
190.082	19.58
190.302	-3.27
190.521	-8.24
190.74	-19.6
190.959	-220.18
191.178	-310.06
191.398	-1190.11
191.617	-209.23
191.836	-92.08
192.055	23.71
192.274	148.23
192.494	144.18
192.713	171.17
192.932	224.5
193.151	196.66
193.37	205.03
193.589	201.5
193.808	201.84
194.027	867.48
194.246	1436.54
194.465	-5908.65
194.685	302.48
194.904	345.72
195.123	77.74
195.342	-552.07
195.561	-38
195.78	-277.67
195.999	-192.49
196.218	-117.87
196.436	-92.79
196.655	-42.66
196.874	-24.07
197.093	-15.79
197.312	-4.31
197.531	-4.09
197.75	22.23
197.969	23.54
198.188	21.63
198.407	47.08
198.625	33.34
198.844	40.13
199.063	38.19
199.282	47.77
199.501	38.33
199.719	62.39
199.938	69.47
200.157	50.83
200.376	29.64
200.594	11.26
200.813	-48.44
201.032	-128.17
201.251	-82.1
201.469	-121.5
201.688	-354.93
201.907	-291.42
202.125	-176.54
202.344	-225.25
202.563	-272.84
202.781	-228.32
203	-112.8
203.218	-15.78
203.437	-155.53
203.656	-392.05
203.874	-651.4
204.093	-17.35
204.311	-105.65
204.53	4166.15
204.748	-942.95
204.967	-37.21
205.185	-257.23
205.404	-240.25
205.622	-58.68
205.841	11.66
206.059	23.14
206.278	13.32
206.496	43.21
206.715	57.63
206.933	65.26
207.151	53.98
207.37	11.05
207.588	-88.87
207.806	-77.23
208.025	-67.99
208.243	500.85
208.461	-171.46
208.68	-119.41
208.898	-311.98
209.116	-803.04
209.335	1049.53
209.553	-532.37
209.771	-74.79
209.989	-89.87
210.208	1.87
210.426	-309.95
210.644	292.12
210.862	-370.04
211.081	-181.76
211.299	8789.74
211.517	-407.24
211.735	405.72
211.953	217.76
212.171	129.52
212.39	57.92
212.608	33.96
212.826	42.85
213.044	44.15
213.262	66.54
213.48	48.49
213.698	26.88
213.916	38.23
214.134	56.01
214.352	79.83
214.57	109.77
214.788	127.35
215.006	97.28
215.224	90.24
215.442	49.71
215.66	10.42
215.878	0.21
216.096	35.3
216.314	33.76
216.532	26.79
216.75	20.82
216.968	-3.71
217.185	-18.63
217.403	2.55
217.621	-13.33
217.839	28.6
218.057	43.4
218.275	23.99
218.492	34.86
218.71	43.98
218.928	27.65
219.146	25.58
219.363	49.79
219.581	47.17
219.799	70.38
220.017	91.79
220.234	62.59
220.452	40.7
220.67	56.65
220.887	59.18
221.105	62.06
221.323	81.7
221.54	79.46
221.758	71.47
221.976	77.93
222.193	48.19
222.411	43.96
222.629	50.07
222.846	62.75
223.064	56.48
223.281	50.5
223.499	30.47
223.716	4.18
223.934	6.4
224.151	8.68
224.369	4.11
224.586	19.22
224.804	10.99
225.021	23.25
225.239	-27.48
225.456	7.16
225.674	-7.82
225.891	-3.85
226.108	19.94
226.326	9.87
226.543	2.06
226.76	-1.54
226.978	9.41
227.195	12.31
227.413	3.64
227.63	7.75
227.847	5.56
228.064	5.95
228.282	9.04
228.499	11.53
228.716	11.6
228.934	15.37
229.151	15.15
229.368	11.22
229.585	10.73
229.802	12.74
230.02	14.07
230.237	15.35
230.454	13.22
230.671	13.78
230.888	12.88
231.105	14.39
231.323	10.21
231.54	12.42
231.757	15.86
231.974	18.8
232.191	16.16
232.408	20.45
232.625	16.21
232.842	23.49
233.059	19.37
233.276	10.7
233.493	10.13
233.71	11.72
233.927	10.43
234.144	5.14
234.361	5.17
234.578	4.41
234.795	0.62
235.012	0.54
235.229	5.49
235.446	11.99
235.663	13.25
235.879	12.88
236.096	15.92
236.313	16.93
236.53	17.99
236.747	15.79
236.964	16.64
237.181	15.98
237.397	25.06
237.614	19.14
237.831	11.09
238.048	17.92
238.264	19.62
238.481	21.09
238.698	25.17
238.915	25.39
239.131	30.12
239.348	29.13
239.565	26.6
239.781	20.2
239.998	18.83
240.215	19.24
240.431	16.38
240.648	9.71
240.865	8.04
241.081	5.2
241.298	2.34
241.514	0.32
241.731	1.3
241.947	3.97
242.164	6.25
242.38	7.49
242.597	8.76
242.814	9.16
243.03	9.21
243.246	9.07
243.463	5.93
243.679	7.89
243.896	7.78
244.112	8.77
244.329	7.66
244.545	5.04
244.762	6.43
244.978	1.98
245.194	1.61
245.411	4.42
245.627	3.72
245.843	6.56
246.06	5.62
246.276	6.09
246.492	4.42
246.709	3.58
246.925	3.23
247.141	3.08
247.357	4.43
247.574	4.95
247.79	6.16
248.006	6.3
248.222	5.66
248.439	4.86
248.655	3.62
248.871	3.54
249.087	4.03
249.303	5.19
249.519	5.63
249.736	4.96
249.952	2.34
250.168	-1.59
250.384	-2.7
250.6	0.46
250.816	0.53
251.032	3.49
251.248	4.06
251.464	5.29
251.68	3.56
251.896	1.93
252.112	2.9
252.328	4.62
252.544	5.02
252.76	5.62
252.976	4.48
253.192	6.3
253.408	4.85
253.624	6.93
253.84	4.52
254.056	7.8
254.272	9.81
254.487	8.96
254.703	10.77
254.919	8.33
255.135	6.12
255.351	7.36
255.567	6.46
255.782	5.38
255.998	-0.99
256.214	1.19
256.43	-3.31
256.646	-7.3
256.861	-8.02
257.077	-12.68
257.293	-6.34
257.508	-4.09
257.724	-4.82
257.94	-2.74
258.155	-0.38
258.371	2.73
258.587	3.15
258.802	4.18
259.018	4.61
259.234	5.8
259.449	7.07
259.665	5.67
259.88	5.55
260.096	5.4
260.312	4.55
260.527	4.86
260.743	4.9
260.958	5.39
261.174	5.42
261.389	6.01
261.605	6.11
261.82	6.22
262.036	7.83
262.251	7.42
262.466	7.37
262.682	9.54
262.897	9.31
263.113	8.69
263.328	5.11
263.543	5.75
263.759	6.34
263.974	4.26
264.189	4.08
264.405	2.05
264.62	6.27
264.835	7.54
265.051	5.97
265.266	5.56
265.481	5.35
265.696	8.25
265.912	7.46
266.127	5.12
266.342	7.54
266.557	7.59
266.773	7.87
266.988	4.72
267.203	4.7
267.418	6.08
267.633	6.79
267.848	7.68
268.064	6.32
268.279	6.07
268.494	8.19
268.709	9.06
268.924	8.06
269.139	8.33
269.354	10.5
269.569	9.48
269.784	8.51
269.999	8.75
270.214	9.54
270.429	8.48
270.644	8.19
270.859	6.79
271.074	5.68
271.289	7.01
271.504	6.35
271.719	5.5
271.934	5.25
272.149	4.21
272.363	3.74
272.578	2.53
272.793	3.57
273.008	5.33
273.223	5.17
273.438	4.89
273.653	4.01
273.867	6.04
274.082	6
274.297	7.33
274.512	7.37
274.726	9.53
274.941	10.39
275.156	12.44
275.371	10.46
275.585	11.53
275.8	9.81
276.015	10.57
276.229	8.74
276.444	9.38
276.659	9.08
276.873	12.46
277.088	10.19
277.302	10.64
277.517	9.43
277.732	11.42
277.946	10.58
278.161	11.26
278.375	10.3
278.59	11.26
278.804	11.16
279.019	12.64
279.233	11.92
279.448	12.83
279.662	12.15
279.877	12.79
280.091	10.52
280.306	9.34
280.52	11.51
280.735	13.27
280.949	13.52
281.163	13.45
281.378	12.8
281.592	13.3
281.806	12.28
282.021	11.49
282.235	11.38
282.449	12.75
282.664	13.83
282.878	12.11
283.092	11.5
283.307	10.07
283.521	9.17
283.735	8.92
283.949	6.24
284.164	6.12
284.378	6.88
284.592	6.38
284.806	5.09
285.02	5.65
285.234	6.2
285.449	6.1
285.663	6.22
285.877	6.49
286.091	5.51
286.305	6.19
286.519	5.28
286.733	5.13
286.947	4.66
287.161	4.64
287.375	3.67
287.589	3.4
287.803	1.51
288.017	1.71
288.231	3.63
288.445	3.7
288.659	4.11
288.873	5.44
289.087	4.59
289.301	4.71
289.515	5.32
289.729	6.43
289.943	6.67
290.157	7.98
290.371	7.72
290.584	5.91
290.798	6.64
291.012	6.69
291.226	7.11
291.44	6.38
291.654	8.1
291.867	8.4
292.081	7.38
292.295	8.19
292.509	7.46
292.722	7.3
292.936	7.61
293.15	8.03
293.364	5.97
293.577	5.64
293.791	7
294.005	5.63
294.218	6.82
294.432	7.2
294.645	6.55
294.859	6.73
295.073	7.17
295.286	5.27
295.5	3.63
295.713	6.23
295.927	5.77
296.14	6.05
296.354	6.63
296.568	7.42
296.781	9.12
296.994	9.71
297.208	9.46
297.421	9.64
297.635	10.12
297.848	10.81
298.062	10.11
298.275	11.05
298.489	10.57
298.702	9.55
298.915	8.67
299.129	7.6
299.342	7.39
299.555	7.6
299.769	7.12
299.982	7.36
300.195	8.08
300.409	7.87
300.622	4.8
300.835	6.16
301.048	7.45
301.262	5.85
301.475	6.08
301.688	6.74
301.901	6.51
302.115	7.61
302.328	8.24
302.541	7.54
302.754	7.76
302.967	11.28
303.18	10.07
303.393	10.08
303.607	11.47
303.82	11.65
304.033	11.15
304.246	12.45
304.459	10.7
304.672	10.83
304.885	10.43
305.098	11.05
305.311	10.94
305.524	11.42
305.737	12.17
305.95	12.33
306.163	11.1
306.376	8.85
306.589	7.83
306.802	9.18
307.015	11.23
307.228	12.38
307.44	11.6
307.653	9.37
307.866	9.58
308.079	9.94
308.292	9.17
308.505	8.61
308.718	9.42
308.93	9.64
309.143	8.89
309.356	8.26
309.569	8.96
309.781	9.14
309.994	10.7
310.207	10.65
310.42	10.48
310.632	10.83
310.845	10.78
311.058	12.61
311.27	13.05
311.483	12.68
311.696	11.28
311.908	10.51
312.121	10.07
312.333	10.62
312.546	10.82
312.759	9.94
312.971	9.61
313.184	10.5
313.396	9.57
313.609	8.85
313.821	11.37
314.034	11.71
314.246	12.09
314.459	13.37
314.671	13.09
314.884	12.75
315.096	12.89
315.309	12.11
315.521	11.36
315.733	10.02
315.946	10.71
316.158	8.54
316.371	9.24
316.583	8.34
316.795	8.01
317.008	6.7
317.22	8.31
317.432	9.98
317.644	11.28
317.857	11.99
318.069	12.93
318.281	13.2
318.494	13.13
318.706	11.78
318.918	11.43
319.13	11.3
319.342	10.14
319.555	10.02
319.767	8.08
319.979	7.93
320.191	7.7
320.403	7.23
320.615	7.11
320.827	8.77
321.039	10.14
321.252	11.05
321.464	10.11
321.676	10.99
321.888	10.92
322.1	11.84
322.312	10.74
322.524	11.49
322.736	12.47
322.948	12.55
323.16	12.67
323.372	13.79
323.584	12.44
323.796	14.22
324.007	14.41
324.219	13.77
324.431	15.11
324.643	16.25
324.855	16.31
325.067	15.46
325.279	15.22
325.491	15.15
325.702	13.75
325.914	14.53
326.126	12.84
326.338	11.52
326.55	11.56
326.761	9.67
326.973	11.42
327.185	10.44
327.396	9.63
327.608	8.91
327.82	7.53
328.032	7.6
328.243	7.43
328.455	9.62
328.666	11.98
328.878	12.49
329.09	13.42
329.301	10.99
329.513	10.98
329.725	13.57
329.936	14.31
330.148	15.5
330.359	16.87
330.571	18.32
330.782	17.66
330.994	16.87
331.205	17.56
331.417	16.68
331.628	17.16
331.84	17.92
332.051	17.64
332.262	18.82
332.474	20.35
332.685	20.64
332.897	20.31
333.108	20.93
333.319	21.25
333.531	20.5
333.742	21.29
333.953	21.09
334.165	21.47
334.376	20.86
334.587	20.45
334.799	18.55
335.01	18.4
335.221	16.99
335.432	17.58
335.644	17.35
335.855	17.71
336.066	17.17
336.277	17.37
336.488	17.42
336.7	17.63
336.911	19.21
337.122	18.15
337.333	18.25
337.544	18.18
337.755	16.91
337.966	17.19
338.177	17.24
338.388	16.55
338.599	17.47
338.811	17.15
339.022	16.37
339.233	15.78
339.444	17.5
339.655	17.5
339.866	15.95
340.076	16.9
340.287	17.34
340.498	18.01
340.709	20.35
340.92	20.7
341.131	19.6
341.342	20.77
341.553	19.66
341.764	19.39
341.975	20.42
342.185	22.55
342.396	23.61
342.607	23.77
342.818	23.44
343.029	22.83
343.239	23.31
343.45	25.96
343.661	26.34
343.872	26.83
344.082	28.67
344.293	27.01
344.504	27.3
344.714	26.04
344.925	25.01
345.136	24.64
345.346	24.74
345.557	22.8
345.768	22.09
345.978	21.82
346.189	21.25
346.399	18.78
346.61	19.35
346.821	20.73
347.031	21.42
347.242	22.71
347.452	22.85
347.663	22.93
347.873	24.17
348.084	22.92
348.294	23.26
348.504	23.34
348.715	26.23
348.925	25.32
349.136	24.77
349.346	23.56
349.557	22.59
349.767	23.37
349.977	23
350.188	23.16
350.398	23.57
350.608	23.13
350.819	23.72
351.029	21.39
351.239	22.05
351.449	21.95
351.66	22.78
351.87	24.01
352.08	23.43
352.29	23.7
352.501	23.12
352.711	23.6
352.921	22.94
353.131	22.17
353.341	22.14
353.552	22.1
353.762	21.83
353.972	21.61
354.182	22.33
354.392	22.68
354.602	23.15
354.812	23.58
355.022	23.65
355.232	25.34
355.442	25.99
355.652	26.88
355.862	27.45
356.072	28.49
356.282	28.51
356.492	27.03
356.702	26.34
356.912	25.79
357.122	25.79
357.332	25.42
357.542	24.28
357.752	24.55
357.962	24.56
358.171	24.49
358.381	23.51
358.591	23.33
358.801	23.23
359.011	23.33
359.221	23.16
359.43	23.45
359.64	23.33
359.85	23.62
360.06	23.57
360.269	23.35
360.479	22.82
360.689	22.24
360.899	22.09
361.108	21.61
361.318	22
361.528	23.09
361.737	22.11
361.947	22.58
362.156	22
362.366	22.25
362.576	22.41
362.785	22.42
362.995	23.22
363.204	23.19
363.414	23.67
363.623	22.99
363.833	22.2
364.042	22.92
364.252	22.24
364.461	22.79
364.671	22.22
364.88	21.97
365.09	21.88
365.299	21.44
365.509	20.94
365.718	20.07
365.927	20.21
366.137	20.32
366.346	19.84
366.555	20.36
366.765	20.11
366.974	20.05
367.183	19.75
367.393	20.57
367.602	20.17
367.811	21.27
368.021	21.95
368.23	22.29
368.439	22.78
368.648	23
368.857	23.4
369.067	24.03
369.276	24.04
369.485	24.49
369.694	23.02
369.903	23.75
370.112	22.89
370.321	23.25
370.531	23.22
370.74	22.59
370.949	22.6
371.158	21.54
371.367	20.48
371.576	20.67
371.785	20.72
371.994	20.85
372.203	21.07
372.412	21.93
372.621	21.68
372.83	22.28
373.039	22.27
373.248	22.69
373.457	23
373.666	23.76
373.874	23.55
374.083	23.45
374.292	24.22
374.501	24.16
374.71	23.13
374.919	23.35
375.128	22.75
375.336	22.3
375.545	22.52
375.754	22.63
375.963	22.8
376.171	22.26
376.38	22.28
376.589	22.7
376.798	21.51
377.006	22.18
377.215	21.77
377.424	21.48
377.632	21.79
377.841	21.08
378.05	21.5
378.258	21.19
378.467	21.68
378.675	21.56
378.884	20.85
379.093	20.97
379.301	20.72
379.51	20.73
379.718	20.83
379.927	20.48
380.135	20.38
380.344	19.86
380.552	19.99
380.761	19.24
380.969	19.37
381.177	19.01
381.386	19.98
381.594	20.17
381.803	20.32
382.011	20.1
382.219	20.33
382.428	20.46
382.636	20.04
382.845	19.77
383.053	19.76
383.261	19.22
383.469	19.24
383.678	18.19
383.886	17.91
384.094	17.64
384.302	17.69
384.511	17.56
384.719	17.38
384.927	17.97
385.135	18.6
385.343	19.33
385.552	19.47
385.76	20.02
385.968	19.93
386.176	19.7
386.384	19.45
386.592	19.28
386.8	19.11
387.008	19.85
387.216	19.59
387.424	18.68
387.633	18.13
387.841	17.92
388.049	17.88
388.257	18.42
388.465	18.53
388.672	18.77
388.88	18.85
389.088	19.02
389.296	18.29
389.504	18.22
389.712	18.81
389.92	18.67
390.128	18.82
390.336	18.53
390.544	18.69
390.751	18.82
390.959	19.11
391.167	18.98
391.375	18.95
391.583	18.82
391.79	19.16
391.998	18.89
392.206	18.7
392.414	18.41
392.621	18.16
392.829	17.74
393.037	17.79
393.244	17.85
393.452	18.07
393.66	18.08
393.867	18.34
394.075	18.25
394.283	18.16
394.49	18.53
394.698	18.81
394.905	19.36
395.113	19.57
395.32	19.35
395.528	19.1
395.735	19
395.943	19.02
396.15	18.92
396.358	18.82
396.565	18.73
396.773	19.05
396.98	19.03
397.188	18.97
397.395	19.02
397.602	19.32
397.81	19.31
398.017	19.46
398.225	19.41
398.432	19.63
398.639	19.45
398.847	19.99
399.054	19.76
399.261	19.43
399.468	19.34
399.676	19.33
399.883	18.86
400.09	18.73
400.297	18.65
400.505	18.65
400.712	18.33
400.919	18.56
401.126	18.4
401.333	18.24
401.54	18.48
401.748	18.71
401.955	18.63
402.162	18.89
402.369	18.97
402.576	18.77
402.783	18.75
402.99	18.85
403.197	18.62
403.404	18.31
403.611	18.54
403.818	18.83
404.025	18.65
404.232	18.64
404.439	18.94
404.646	19.08
404.853	19.33
405.06	19.49
405.267	19.41
405.474	19.54
405.681	19.5
405.887	19.46
406.094	19.54
406.301	19.46
406.508	19.6
406.715	19.42
406.922	19.66
407.128	19.68
407.335	19.4
407.542	19.62
407.749	19.77
407.955	20.17
408.162	20.21
408.369	19.81
408.575	19.86
408.782	19.83
408.989	19.58
409.195	19.34
409.402	19.3
409.609	19.88
409.815	19.82
410.022	19.54
410.228	19.51
410.435	19.32
410.642	19.68
410.848	19.57
411.055	19.56
411.261	19.8
411.468	20.15
411.674	20.19
411.881	19.75
412.087	19.58
412.294	19.61
412.5	19.37
412.706	19.67
412.913	19.28
413.119	19.59
413.326	19.49
413.532	19.43
413.738	19.2
413.945	19.32
414.151	19.46
414.357	19.67
414.564	19.5
414.77	19.55
414.976	19.35
415.182	19.23
415.389	19.18
415.595	19.26
415.801	19.22
416.007	19.14
416.214	19.14
416.42	19.13
416.626	18.91
416.832	19.13
417.038	18.97
417.244	18.99
417.45	19.26
417.657	19.14
417.863	19.07
418.069	19.02
418.275	18.9
418.481	18.89
418.687	18.95
418.893	18.91
419.099	18.85
419.305	18.86
419.511	18.75
419.717	18.7
419.923	18.65
420.129	18.62
420.335	18.61
420.541	18.5
420.746	18.32
420.952	18.1
421.158	18.13
421.364	18.02
421.57	17.93
421.776	17.88
421.982	17.81
422.187	17.84
422.393	17.92
422.599	17.83
422.805	17.82
423.01	17.79
423.216	17.82
423.422	17.79
423.628	17.83
423.833	18
424.039	18.04
424.245	17.96
424.45	17.97
424.656	17.75
424.862	17.74
425.067	17.81
425.273	17.9
425.478	17.88
425.684	18.02
425.889	18
426.095	18.07
426.301	18.16
426.506	18.21
426.712	18.19
426.917	18.35
427.123	18.26
427.328	18.28
427.533	18.27
427.739	18.48
427.944	18.32
428.15	18.29
428.355	17.94
428.561	17.67
428.766	17.7
428.971	17.74
429.177	17.79
429.382	17.95
429.587	17.94
429.793	17.63
429.998	17.31
430.203	17.46
430.408	17.37
430.614	17.42
430.819	17.57
431.024	17.72
431.229	17.52
431.434	17.26
431.64	17.22
431.845	17.03
432.05	17.22
432.255	17.33
432.46	17.15
432.665	17.42
432.87	17.53
433.076	17.59
433.281	17.43
433.486	17.35
433.691	17.46
433.896	17.4
434.101	17.53
434.306	17.55
434.511	17.58
434.716	17.55
434.921	17.46
435.126	17.32
435.331	17.11
435.535	17.46
435.74	17.46
435.945	17.56
436.15	17.77
436.355	17.8
436.56	17.55
436.765	17.6
436.97	17.73
437.174	17.78
437.379	17.9
437.584	17.97
437.789	17.64
437.993	17.69
438.198	17.66
438.403	17.69
438.608	17.71
438.812	17.88
439.017	17.75
439.222	17.76
439.426	17.7
439.631	17.73
439.836	17.82
440.04	17.73
440.245	17.75
440.45	17.72
440.654	17.72
440.859	17.82
441.063	17.8
441.268	17.86
441.472	17.92
441.677	17.96
441.881	17.91
442.086	17.79
442.29	17.77
442.495	17.78
442.699	17.8
442.904	17.79
443.108	17.62
443.312	17.62
443.517	17.75
443.721	17.53
443.925	17.58
444.13	17.4
444.334	17.38
444.538	17.51
444.743	17.45
444.947	17.38
445.151	17.41
445.356	17.55
445.56	17.66
445.764	17.46
445.968	17.54
446.173	17.36
446.377	17.5
446.581	17.48
446.785	17.55
446.989	17.37
447.193	17.39
447.398	17.22
447.602	17.12
447.806	17.07
448.01	17.22
448.214	17.11
448.418	17.3
448.622	17.35
448.826	17.4
449.03	17.36
449.234	17.51
449.438	17.5
449.642	17.48
449.846	17.51
450.05	17.46
450.254	17.39
450.458	17.49
450.662	17.33
450.866	17.23
451.069	17.16
451.273	17
451.477	17.16
451.681	17.05
451.885	17.32
452.089	17.21
452.292	17.12
452.496	17.19
452.7	17.22
452.904	17.16
453.107	17.03
453.311	17.23
453.515	17.12
453.719	17.09
453.922	17.24
454.126	16.97
454.33	16.87
454.533	17.07
454.737	16.82
454.94	16.94
455.144	16.88
455.348	17.07
455.551	16.98
455.755	17.16
455.958	17.18
456.162	17.16
456.365	17.27
456.569	17.32
456.772	17.17
456.976	17.24
457.179	17.23
457.383	17.29
457.586	17.2
457.79	17.14
457.993	17.14
458.196	17.15
458.4	17.21
458.603	17.19
458.807	17.21
459.01	17.2
459.213	17.21
459.417	17.07
459.62	17.07
459.823	17.06
460.026	17.09
460.23	17.01
460.433	17.02
460.636	16.91
460.839	16.87
461.042	16.88
461.246	16.93
461.449	16.86
461.652	16.78
461.855	16.87
462.058	16.93
462.261	16.9
462.464	17.06
462.668	17.03
462.871	17.03
463.074	17.06
463.277	17.25
463.48	17.15
463.683	17.12
463.886	17.26
464.089	17.35
464.292	17.35
464.495	17.49
464.698	17.49
464.901	17.6
465.104	17.61
465.306	17.85
465.509	17.78
465.712	17.7
465.915	17.85
466.118	17.88
466.321	17.86
466.524	17.86
466.726	17.9
466.929	17.8
467.132	17.79
467.335	17.83
467.538	17.54
467.74	17.38
467.943	17.65
468.146	17.6
468.348	17.58
468.551	17.52
468.754	17.66
468.956	17.43
469.159	17.62
469.362	17.4
469.564	17.41
469.767	17.29
469.969	17.47
470.172	17.36
470.375	17.38
470.577	17.44
470.78	17.49
470.982	17.26
471.185	17.35
471.387	17.12
471.59	17.34
471.792	17.38
471.995	17.82
472.197	17.76
472.399	17.83
472.602	18.01
472.804	17.85
473.007	17.83
473.209	17.86
473.411	17.85
473.614	17.98
473.816	17.77
474.018	17.66
474.22	17.49
474.423	17.36
474.625	17.22
474.827	17.16
475.03	17.16
475.232	17.16
475.434	17.4
475.636	17.4
475.838	17.46
476.04	17.76
476.243	17.92
476.445	17.82
476.647	17.95
476.849	18.06
477.051	17.93
477.253	18.16
477.455	18.15
477.657	17.94
477.859	17.96
478.061	17.98
478.263	17.83
478.465	17.86
478.667	18.02
478.869	17.99
479.071	17.99
479.273	18.17
479.475	18
479.677	18.01
479.879	18.08
480.081	18.1
480.283	17.95
480.485	17.98
480.686	17.81
480.888	17.64
481.09	17.52
481.292	17.48
481.494	17.27
481.695	17.33
481.897	17.37
482.099	17.31
482.301	17.36
482.502	17.34
482.704	17.4
482.906	17.43
483.107	17.48
483.309	17.53
483.511	17.51
483.712	17.6
483.914	17.59
484.115	17.57
484.317	17.59
484.519	17.6
484.72	17.58
484.922	17.54
485.123	17.56
485.325	17.63
485.526	17.64
485.728	17.7
485.929	17.67
486.131	17.72
486.332	17.73
486.534	17.77
486.735	17.71
486.936	17.8
487.138	17.8
487.339	17.75
487.541	17.67
487.742	17.59
487.943	17.52
488.144	17.47
488.346	17.37
488.547	17.36
488.748	17.36
488.95	17.42
489.151	17.42
489.352	17.46
489.553	17.55
489.755	17.63
489.956	17.66
490.157	17.73
490.358	17.73
490.559	17.77
490.76	17.72
490.961	17.68
491.163	17.63
491.364	17.62
491.565	17.53
491.766	17.4
491.967	17.4
492.168	17.44
492.369	17.5
492.57	17.54
492.771	17.55
492.972	17.6
493.173	17.64
493.374	17.6
493.575	17.57
493.776	17.66
493.976	17.85
494.177	17.84
494.378	17.8
494.579	17.61
494.78	17.49
494.981	17.58
495.182	17.5
495.382	17.46
495.583	17.43
495.784	17.51
495.985	17.42
496.185	17.28
496.386	17.29
496.587	17.26
496.788	17.19
496.988	17.34
497.189	17.23
497.39	17.27
497.59	17.36
497.791	17.5
497.992	17.39
498.192	17.42
498.393	17.5
498.593	17.52
498.794	17.5
498.994	17.72
499.195	17.6
499.395	17.71
499.596	17.82
499.796	17.74
499.997	17.89
500.197	17.99
500.398	17.92
500.598	17.89
500.799	17.96
500.999	18.16
501.199	18.09
501.4	18.31
501.6	18.21
501.801	18.15
502.001	18.11
502.201	17.93
502.402	17.88
502.602	18.04
502.802	18.08
503.002	18
503.203	18.08
503.403	18.1
503.603	18.14
503.803	18.22
504.003	18.3
504.204	18.51
504.404	18.7
504.604	18.71
504.804	18.78
505.004	18.93
505.204	18.85
505.404	18.91
505.604	18.88
505.804	18.69
506.005	18.69
506.205	18.71
506.405	18.49
506.605	18.41
506.805	18.53
507.005	18.5
507.204	18.48
507.404	18.64
507.604	18.51
507.804	18.69
508.004	18.93
508.204	19.01
508.404	19.07
508.604	19.34
508.804	19.36
509.003	19.45
509.203	19.57
509.403	19.52
509.603	19.6
509.803	19.64
510.002	19.65
510.202	19.65
510.402	19.56
510.602	19.55
510.801	19.36
511.001	19.27
511.201	19.22
511.4	19.27
511.6	19.38
511.8	19.37
511.999	19.41
512.199	19.37
512.398	19.44
512.598	19.6
512.797	19.62
512.997	19.78
513.197	19.86
513.396	19.97
513.596	19.84
513.795	20.01
513.994	20
514.194	20.04
514.393	20.06
514.593	20.05
514.792	19.99
514.992	20.06
515.191	20.14
515.39	20.15
515.59	19.99
515.789	20.06
515.988	19.88
516.188	19.88
516.387	19.8
516.586	20
516.786	20.08
516.985	20.15
517.184	20.14
517.383	20.02
517.582	19.99
517.782	20.19
517.981	20.29
518.18	20.3
518.379	20.3
518.578	20.42
518.777	20.3
518.976	20.23
519.176	20.13
519.375	20.16
519.574	20.35
519.773	20.47
519.972	20.52
520.171	20.53
520.37	20.48
520.569	20.45
520.768	20.45
520.967	20.54
521.166	20.7
521.365	20.87
521.564	20.8
521.762	20.68
521.961	20.77
522.16	20.72
522.359	20.63
522.558	20.81
522.757	20.83
522.956	20.84
523.154	20.95
523.353	20.93
523.552	21.09
523.751	21.2
523.949	21.39
524.148	21.35
524.347	21.3
524.546	21.46
524.744	21.45
524.943	21.58
525.142	21.61
525.34	21.56
525.539	21.65
525.737	21.59
525.936	21.59
526.135	21.42
526.333	21.45
526.532	21.49
526.73	21.4
526.929	21.44
527.127	21.43
527.326	21.43
527.524	21.41
527.723	21.32
527.921	21.31
528.12	21.3
528.318	21.42
528.516	21.39
528.715	21.39
528.913	21.39
529.112	21.38
529.31	21.42
529.508	21.47
529.707	21.51
529.905	21.49
530.103	21.47
530.301	21.55
530.5	21.48
530.698	21.51
530.896	21.53
531.094	21.52
531.293	21.56
531.491	21.49
531.689	21.42
531.887	21.45
532.085	21.44
532.283	21.54
532.481	21.46
532.68	21.49
532.878	21.56
533.076	21.62
533.274	21.72
533.472	21.72
533.67	21.79
533.868	21.88
534.066	21.86
534.264	21.95
534.462	21.98
534.66	22.02
534.858	22.09
535.056	22.18
535.253	22.21
535.451	22.21
535.649	22.24
535.847	22.32
536.045	22.29
536.243	22.32
536.441	22.37
536.638	22.41
536.836	22.41
537.034	22.3
537.232	22.23
537.43	22.12
537.627	22.16
537.825	22.08
538.023	22.14
538.22	22.19
538.418	22.28
538.616	22.3
538.813	22.31
539.011	22.45
539.209	22.65
539.406	22.74
539.604	22.8
539.801	22.85
539.999	22.98
540.196	22.81
540.394	22.83
540.591	22.79
540.789	22.82
540.986	22.74
541.184	22.72
541.381	22.73
541.579	22.77
541.776	22.81
541.974	22.84
542.171	22.83
542.368	22.93
542.566	23
542.763	23.1
542.96	23.13
543.158	23.2
543.355	23.19
543.552	23.29
543.75	23.26
543.947	23.32
544.144	23.35
544.341	23.55
544.539	23.55
544.736	23.47
544.933	23.4
545.13	23.47
545.327	23.59
545.524	23.71
545.722	23.54
545.919	23.57
546.116	23.72
546.313	23.69
546.51	23.78
546.707	23.83
546.904	23.95
547.101	23.89
547.298	23.9
547.495	23.86
547.692	23.98
547.889	24.16
548.086	24.26
548.283	24.21
548.48	24.33
548.677	24.2
548.874	24.17
549.07	24.02
549.267	24.18
549.464	24.16
549.661	24.23
549.858	24.15
550.055	24.05
550.251	24.2
550.448	24.18
550.645	24.09
550.842	24.15
551.038	24.36
551.235	24.7
551.432	24.8
551.628	24.89
551.825	24.93
552.022	24.95
552.218	25.14
552.415	25.12
552.612	24.95
552.808	25.14
553.005	25.07
553.201	24.92
553.398	24.89
553.594	24.88
553.791	24.88
553.987	24.99
554.184	24.99
554.38	25.12
554.577	25.04
554.773	25.39
554.97	25.36
555.166	25.48
555.362	25.71
555.559	25.69
555.755	25.76
555.952	25.98
556.148	26.03
556.344	26
556.541	25.86
556.737	25.79
556.933	25.68
557.129	25.79
557.326	25.8
557.522	25.66
557.718	25.79
557.914	25.82
558.11	25.88
558.307	25.82
558.503	26.03
558.699	26.18
558.895	26.37
559.091	26.45
559.287	26.47
559.483	26.62
559.679	26.77
559.876	26.47
560.072	26.44
560.268	26.51
560.464	26.38
560.66	26.46
560.856	26.3
561.052	26.22
561.247	26.21
561.443	26.22
561.639	26.11
561.835	26.1
562.031	26.35
562.227	26.42
562.423	26.25
562.619	26.44
562.815	26.51
563.01	26.59
563.206	26.65
563.402	26.86
563.598	27.03
563.793	27.09
563.989	27.11
564.185	27.33
564.381	27.47
564.576	27.66
564.772	27.69
564.968	27.81
565.163	27.95
565.359	28.12
565.555	28.02
565.75	27.86
565.946	27.93
566.141	28.05
566.337	27.91
566.532	27.89
566.728	27.88
566.923	27.88
567.119	27.69
567.314	27.68
567.51	27.64
567.705	27.79
567.901	27.88
568.096	27.77
568.292	27.68
568.487	27.74
568.682	27.81
568.878	27.99
569.073	28.08
569.268	28.11
569.464	28.19
569.659	28.12
569.854	27.8
570.05	27.89
570.245	27.87
570.44	27.94
570.635	28.13
570.831	28.19
571.026	27.94
571.221	28.05
571.416	28.19
571.611	28.12
571.806	28.34
572.002	28.53
572.197	28.4
572.392	28.57
572.587	28.55
572.782	28.41
572.977	28.53
573.172	28.79
573.367	28.69
573.562	28.68
573.757	28.73
573.952	28.69
574.147	28.85
574.342	28.95
574.537	29.05
574.732	29.18
574.927	29.29
575.121	29.24
575.316	28.99
575.511	28.86
575.706	28.73
575.901	28.67
576.096	28.82
576.29	28.8
576.485	28.73
576.68	28.58
576.875	28.36
577.069	28.46
577.264	28.5
577.459	28.59
577.654	28.77
577.848	28.88
578.043	28.87
578.238	28.63
578.432	28.66
578.627	28.85
578.821	29.09
579.016	29.4
579.21	29.11
579.405	28.95
579.6	29.05
579.794	29.35
579.989	29.43
580.183	29.84
580.378	29.96
580.572	30.03
580.766	30.09
580.961	29.82
581.155	29.78
581.35	30.02
581.544	30.01
581.738	30.1
581.933	29.91
582.127	29.92
582.321	29.73
582.516	29.58
582.71	29.45
582.904	29.5
583.099	29.71
583.293	29.63
583.487	29.56
583.681	29.81
583.875	29.85
584.07	29.94
584.264	30.07
584.458	29.98
584.652	30.1
584.846	30.08
585.04	29.83
585.234	29.96
585.428	30.15
585.623	29.99
585.817	29.92
586.011	29.85
586.205	29.72
586.399	29.55
586.593	29.47
586.787	29.4
586.981	29.46
587.174	29.6
587.368	29.41
587.562	29.45
587.756	29.78
587.95	29.87
588.144	29.84
588.338	30.04
588.532	30.05
588.725	29.97
588.919	30.05
589.113	30.05
589.307	29.82
589.501	29.92
589.694	29.74
589.888	29.44
590.082	29.35
590.275	29.38
590.469	29.28
590.663	29.27
590.856	29.3
591.05	29.28
591.244	29.3
591.437	29.68
591.631	29.86
591.824	30.12
592.018	30.01
592.212	30.14
592.405	29.99
592.599	30.02
592.792	30.19
592.986	30.47
593.179	30.61
593.372	30.55
593.566	30.49
593.759	30.3
593.953	30.26
594.146	30.63
594.339	30.48
594.533	30.55
594.726	30.76
594.92	30.82
595.113	30.81
595.306	30.64
595.499	30.77
595.693	30.81
595.886	30.85
596.079	30.8
596.272	30.7
596.466	30.69
596.659	30.79
596.852	30.49
597.045	30.4
597.238	30.37
597.431	30.32
597.624	30.44
597.818	30.48
598.011	30.37
598.204	30.33
598.397	30.2
598.59	30.09
598.783	29.98
598.976	30.06
599.169	30.24
599.362	30.32
599.555	30.4
599.748	30.07
599.941	30.04
600.134	29.94
600.326	29.79
600.519	29.76
600.712	29.9
600.905	29.95
601.098	29.78
601.291	29.77
601.483	29.42
601.676	29.54
601.869	29.7
602.062	29.67
602.255	29.93
602.447	30.1
602.64	30.5
602.833	30.53
603.025	30.59
603.218	30.88
603.411	30.73
603.603	30.95
603.796	30.75
603.989	30.47
604.181	30.46
604.374	30.45
604.566	30.42
604.759	30.32
604.951	30.18
605.144	30.45
605.336	30.48
605.529	30.49
605.721	30.7
605.914	30.86
606.106	31.16
606.299	31.25
606.491	31.28
606.683	31.22
606.876	31.29
607.068	31.52
607.26	31.32
607.453	31.03
607.645	31.11
607.837	30.87
608.03	30.87
608.222	30.83
608.414	30.77
608.606	30.61
608.799	30.82
608.991	30.91
609.183	31.08
609.375	30.91
609.567	31.2
609.759	31.05
609.952	31.05
610.144	31.13
610.336	31.08
610.528	31.19
610.72	31.64
610.912	31.52
611.104	31.26
611.296	31.36
611.488	31.31
611.68	31.2
611.872	31.45
612.064	31.71
612.256	31.57
612.448	31.6
612.64	31.49
612.832	31.27
613.023	31.46
613.215	31.49
613.407	31.34
613.599	31.13
613.791	31.04
613.983	30.95
614.174	30.59
614.366	30.61
614.558	30.6
614.75	30.37
614.941	30.53
615.133	30.35
615.325	30.62
615.516	30.65
615.708	31.02
615.9	31.24
616.091	31.41
616.283	31.58
616.475	31.81
616.666	32.12
616.858	32.42
617.049	32.25
617.241	32.28
617.432	32.13
617.624	31.74
617.815	31.72
618.007	31.85
618.198	31.66
618.39	31.43
618.581	31.21
618.773	31.26
618.964	31.26
619.155	31.07
619.347	31.15
619.538	31.14
619.729	31.58
619.921	31.74
620.112	31.65
620.303	31.61
620.494	31.62
620.686	32.12
620.877	31.96
621.068	32.14
621.259	32.53
621.451	32.32
621.642	32.48
621.833	32.27
622.024	32.07
622.215	31.81
622.406	32
622.597	32.28
622.788	32.18
622.98	32.2
623.171	32
623.362	31.67
623.553	31.76
623.744	31.6
623.935	31.63
624.126	31.76
624.317	31.73
624.508	31.69
624.698	31.41
624.889	31.31
625.08	31.5
625.271	31.46
625.462	31.7
625.653	31.75
625.844	31.98
626.034	32.01
626.225	31.92
626.416	31.92
626.607	31.96
626.798	32.09
626.988	32.14
627.179	32.04
627.37	31.92
627.56	31.67
627.751	31.47
627.942	31.35
628.132	31.16
628.323	31.28
628.514	31.34
628.704	31.36
628.895	31.52
629.085	31.38
629.276	31.19
629.466	31.39
629.657	31.47
629.847	31.41
630.038	31.56
630.228	31.73
630.419	31.56
630.609	31.69
630.8	31.66
630.99	31.56
631.181	31.49
631.371	31.7
631.561	31.61
631.752	31.67
631.942	32.16
632.132	31.85
632.323	31.82
632.513	31.72
632.703	31.49
632.893	31.38
633.084	30.98
633.274	31.12
633.464	31.03
633.654	31.08
633.844	30.98
634.034	30.6
634.225	30.8
634.415	30.85
634.605	31.01
634.795	31.09
634.985	31.12
635.175	31.52
635.365	31.23
635.555	31.16
635.745	30.88
635.935	30.96
636.125	31.45
636.315	31.45
636.505	31.55
636.695	31.45
636.885	31.65
637.075	31.57
637.265	31.34
637.455	31.75
637.644	32.13
637.834	32.46
638.024	32.57
638.214	32.28
638.404	32.41
638.593	32.17
638.783	32.2
638.973	31.68
639.163	31.81
639.352	31.65
639.542	31.35
639.732	30.88
639.921	30.85
640.111	30.79
640.301	31
640.49	30.64
640.68	30.79
640.87	31.05
641.059	31.64
641.249	31.51
641.438	31.95
641.628	32.2
641.817	32.19
642.007	32.4
642.196	32.26
642.386	31.97
642.575	32.48
642.764	32.34
642.954	32.07
643.143	32.18
643.333	32.41
643.522	32.41
643.711	32.3
643.901	32.26
644.09	32.06
644.279	32.21
644.469	32.27
644.658	31.8
644.847	31.82
645.036	32.11
645.226	31.96
645.415	31.85
645.604	31.91
645.793	31.72
645.982	32.24
646.171	32.05
646.361	31.95
646.55	32.21
646.739	32.32
646.928	31.88
647.117	32.12
647.306	32.15
647.495	32.32
647.684	32.26
647.873	32.71
648.062	32.43
648.251	32.62
648.44	32.38
648.629	32.45
648.818	32.42
649.007	32.88
649.196	32.77
649.384	32.53
649.573	32.04
649.762	31.9
649.951	31.66
650.14	31.77
650.328	31.98
650.517	32.46
650.706	32.33
650.895	32.16
651.083	32.06
651.272	31.95
651.461	31.95
651.65	32.69
651.838	32.47
652.027	32.34
652.216	32.27
652.404	31.55
652.593	31.28
652.781	31.06
652.97	31.74
653.158	31.76
653.347	31.98
653.535	32.05
653.724	31.72
653.912	31.88
654.101	31.78
654.289	31.66
654.478	32.47
654.666	32.34
654.855	32.62
655.043	32.47
655.231	32.73
655.42	32.55
655.608	32.33
655.796	32.61
655.985	32.97
656.173	33
656.361	33.08
656.55	32.99
656.738	33.22
656.926	33.08
657.114	32.61
657.302	32.36
657.491	32.29
657.679	32.47
657.867	32.24
658.055	31.79
658.243	32.01
658.431	31.93
658.619	31.63
658.807	31.69
658.996	31.53
659.184	31.63
659.372	31.73
659.56	31.74
659.748	32.03
659.936	31.95
660.124	32.2
660.311	32.15
660.499	32.17
660.687	32.25
660.875	31.99
661.063	32.36
661.251	32.14
661.439	32.24
661.627	32.5
661.814	32.38
662.002	32.56
662.19	32.31
662.378	32.39
662.565	32.76
662.753	33.35
662.941	33.3
663.129	32.74
663.316	32.99
663.504	32.71
663.692	32.61
663.879	32.52
664.067	32.48
664.254	32.83
664.442	32.99
664.63	32.59
664.817	31.98
665.005	31.68
665.192	32.11
665.38	32.47
665.567	32.37
665.755	31.54
665.942	31.18
666.13	30.72
666.317	30.99
666.504	30.86
666.692	30.66
666.879	30.94
667.067	31.82
667.254	31.69
667.441	31.57
667.629	31.84
667.816	32.13
668.003	32.38
668.19	32.81
668.378	33.05
668.565	33.25
668.752	33.57
668.939	33.49
669.127	33.26
669.314	33.46
669.501	32.98
669.688	32.89
669.875	33.56
670.062	33.89
670.249	33.63
670.436	32.96
670.623	32.31
670.81	32.12
670.997	31.81
671.184	31.88
671.371	31.9
671.558	32.41
671.745	32.58
671.932	32.21
672.119	31.85
672.306	32
672.493	31.8
672.68	32.27
672.867	32.13
673.054	32.34
673.24	32.12
673.427	32.65
673.614	31.98
673.801	31.8
673.988	31.77
674.174	32.24
674.361	32.21
674.548	32.58
674.734	32.34
674.921	32.41
675.108	32.11
675.294	32.22
675.481	31.91
675.668	32.72
675.854	32.82
676.041	32.63
676.227	32.21
676.414	32.36
676.601	32.36
676.787	32.11
676.974	32.37
677.16	32.58
677.347	32.87
677.533	32.46
677.719	32.2
677.906	32.22
678.092	32.44
678.279	32.25
678.465	32.36
678.651	32.29
678.838	32.96
679.024	33.17
679.21	32.89
679.397	32.75
679.583	33.05
679.769	32.9
679.955	32.95
680.142	32.94
680.328	33.22
680.514	32.94
680.7	33.19
680.886	32.85
681.073	32.51
681.259	32.88
681.445	32.93
681.631	32.89
681.817	32.84
682.003	32.36
682.189	32.07
682.375	32.32
682.561	32.28
682.747	31.98
682.933	32.42
683.119	32.35
683.305	32.23
683.491	31.87
683.677	31.75
683.863	31.65
684.049	32.23
684.235	32.42
684.42	31.82
684.606	31.83
684.792	32.11
684.978	31.94
685.164	31.78
685.349	31.85
685.535	32.14
685.721	32.25
685.907	32.82
686.092	32.09
686.278	32
686.464	32.36
686.649	32.58
686.835	32.45
687.021	32.09
687.206	32.44
687.392	32.18
687.577	32.07
687.763	31.84
687.948	31.41
688.134	31.99
688.319	32.35
688.505	32.03
688.69	32
688.876	32.17
689.061	32.43
689.247	32.55
689.432	32.79
689.618	33.26
689.803	33.66
689.988	34.04
690.174	34.04
690.359	33.49
690.544	33.64
690.73	33.88
690.915	33.8
691.1	33.7
691.285	33.54
691.471	33.69
691.656	33
691.841	32.18
692.026	31.99
692.211	32.19
692.396	32.5
692.582	32.68
692.767	32.56
692.952	32.82
693.137	32.81
693.322	32.9
693.507	33.15
693.692	33.26
693.877	33.88
694.062	34.23
694.247	33.69
694.432	33.84
694.617	33.5
694.802	33.74
694.987	33.25
695.172	32.91
695.357	32.45
695.541	32.83
695.726	32.92
695.911	32.2
696.096	32.08
696.281	32.11
696.466	32.42
696.65	32.71
696.835	32.36
697.02	32.67
697.204	32.77
697.389	33.78
697.574	33.07
697.759	33.14
697.943	33.52
698.128	33.61
698.312	33.78
698.497	33.25
698.682	33.04
698.866	33.01
699.051	33.01
699.235	32.67
699.42	32.15
699.604	32.36
699.789	32.22
699.973	32.4
700.158	31.94
700.342	31.83
700.527	32.37
700.711	32.23
700.895	32.6
701.08	32.49
701.264	32.25
701.448	32.16
701.633	31.9
701.817	32.26
702.001	31.92
702.186	32.15
702.37	32.7
702.554	32.26
702.738	32.62
702.923	31.97
703.107	31.59
703.291	32.8
703.475	33.02
703.659	33.39
703.843	33.11
704.027	34.15
704.212	34.13
704.396	33.95
704.58	33.52
704.764	33.27
704.948	33.15
705.132	33.68
705.316	33.92
705.5	33.87
705.684	33.19
705.868	33.85
706.052	33.3
706.235	33.79
706.419	34.25
706.603	34.3
706.787	34.48
706.971	34.92
707.155	34.24
707.339	34.87
707.522	34.35
707.706	35.13
707.89	34.27
708.074	34.42
708.257	33.57
708.441	32.5
708.625	32.41
708.808	31.74
708.992	31.86
709.176	32.23
709.359	31.07
709.543	31.52
709.727	31.07
709.91	31.4
710.094	30.85
710.277	31.56
710.461	32.24
710.644	32.56
710.828	33.41
711.011	33.51
711.195	33.77
711.378	34.43
711.562	34.97
711.745	35.24
711.928	34.88
712.112	34.87
712.295	34.67
712.478	34.27
712.662	34.89
712.845	34.59
713.028	34.24
713.212	33.71
713.395	32.85
713.578	32.6
713.761	32.83
713.945	33.57
714.128	33.9
714.311	33.5
714.494	33.73
714.677	33.09
714.86	33.32
715.043	33.39
715.227	33.59
715.41	33.96
715.593	33.89
715.776	34.02
715.959	33.2
716.142	32.7
716.325	32.8
716.508	32.73
716.691	32.69
716.874	32.61
717.057	32.79
717.239	32.63
717.422	32.1
717.605	32.58
717.788	32.21
717.971	32.65
718.154	32.81
718.337	33.24
718.519	32.78
718.702	33.14
718.885	33.27
719.068	32.11
719.25	31.35
719.433	32.55
719.616	31.65
719.798	30.7
719.981	30.94
720.164	30.89
720.346	31.68
720.529	31.95
720.712	31.38
720.894	30.2
721.077	30.63
721.259	31.95
721.442	30.85
721.624	30.6
721.807	31.6
721.989	31.2
722.172	30.88
722.354	29.66
722.537	30.64
722.719	31.91
722.901	32.54
723.084	32.98
723.266	33.25
723.448	32.76
723.631	32.41
723.813	31.68
723.995	31.51
724.178	31.85
724.36	31.65
724.542	31.16
724.724	31.37
724.907	32.24
725.089	32.71
725.271	32.17
725.453	33.94
725.635	35.37
725.817	35.34
725.999	35.9
726.181	35.23
726.364	34.83
726.546	35.22
726.728	34.72
726.91	34.3
727.092	32.89
727.274	32.61
727.456	32.06
727.638	31.46
727.819	30.93
728.001	31.23
728.183	31.41
728.365	32.11
728.547	32.02
728.729	31.27
728.911	31.19
729.093	32.19
729.274	32.61
729.456	32.63
729.638	31.8
729.82	32.32
730.001	31.64
730.183	31.8
730.365	32.59
730.546	31.95
730.728	32.9
730.91	33.17
731.091	33.21
731.273	32.87
731.455	32.85
731.636	33.43
731.818	33.78
731.999	33.77
732.181	34.1
732.362	32.87
732.544	32.8
732.725	32.18
732.907	31.27
733.088	31.12
733.27	31.25
733.451	30.29
733.633	30.34
733.814	30.46
733.995	30.73
734.177	31.11
734.358	31.57
734.539	31.84
734.721	31.73
734.902	32.09
735.083	32.38
735.264	31.56
735.446	33.31
735.627	33.61
735.808	32.44
735.989	32.25
736.17	32.23
736.351	32.74
736.533	32.59
736.714	33.18
736.895	33.34
737.076	33.67
737.257	34.73
737.438	33.86
737.619	33.92
737.8	35.57
737.981	35.65
738.162	35.52
738.343	35.48
738.524	36.04
738.705	35.32
738.886	35.27
739.067	34.23
739.247	34.42
739.428	34.32
739.609	33.96
739.79	33.59
739.971	34.39
740.151	34.31
740.332	34.5
740.513	33.46
740.694	34.46
740.874	33.69
741.055	34.37
741.236	33.82
741.417	34.71
741.597	34.32
741.778	34.39
741.958	33.36
742.139	33.15
742.32	31.07
742.5	31.38
742.681	30.24
742.861	31.09
743.042	30.57
743.222	30.26
743.403	29.24
743.583	29.59
743.764	28.69
743.944	29.04
744.124	29.37
744.305	30.83
744.485	31.43
744.666	31.53
744.846	31.33
745.026	31.03
745.207	31.13
745.387	32.23
745.567	31.86
745.747	32.09
745.928	32.78
746.108	32.26
746.288	32.78
746.468	31.38
746.648	31.08
746.829	32.55
747.009	33.93
747.189	33.61
747.369	32.88
747.549	33.79
747.729	33.2
747.909	32.66
748.089	33.07
748.269	32.42
748.449	33.3
748.629	33.23
748.809	32.24
748.989	32.22
749.169	32.07
749.349	32.14
749.529	31.48
749.709	33.04
749.889	34.2
750.068	34.14
750.248	33.22
750.428	34.16
750.608	34.82
750.788	36.43
750.967	35.87
751.147	36.41
751.327	35.84
751.507	35.4
751.686	34.04
751.866	32.6
752.046	32.48
752.225	32.92
752.405	32.61
752.585	31.76
752.764	31.11
752.944	31.36
753.123	31.48
753.303	31.23
753.482	32.52
753.662	33.78
753.841	34.89
754.021	35.62
754.2	35.89
754.38	35.42
754.559	36.34
754.739	36.1
754.918	36.91
755.097	36.84
755.277	38.21
755.456	37.32
755.635	35.59
755.815	34.04
755.994	33.4
756.173	33.66
756.352	32.68
756.532	32.19
756.711	31.77
756.89	30.52
757.069	30.58
757.248	30.45
757.427	30
757.607	32.07
757.786	31.1
757.965	32.22
758.144	32.56
758.323	34.05
758.502	33.52
758.681	32.68
758.86	33.32
759.039	32.33
759.218	31.35
759.397	32.09
759.576	31.71
759.755	33.77
759.934	32.33
760.113	31.89
760.291	31.34
760.47	32.38
760.649	32.4
760.828	32.61
761.007	34.25
761.186	34.19
761.364	33.11
761.543	33.15
761.722	34.15
761.901	35.54
762.079	36.61
762.258	36.93
762.437	37.29
762.615	38.1
762.794	38.22
762.972	37.29
763.151	36.85
763.33	37.76
763.508	37.71
763.687	36.1
763.865	34.82
764.044	34.15
764.222	34.51
764.401	33.64
764.579	34.24
764.758	34.11
764.936	34.07
765.114	34.19
765.293	33.52
765.471	33.23
765.65	33.21
765.828	32.99
766.006	32.29
766.184	31.04
766.363	31.44
766.541	29.42
766.719	28.45
766.898	29.11
767.076	29.5
767.254	30.37
767.432	30.92
767.61	31.35
767.788	32.87
767.967	33.49
768.145	32.52
768.323	32.72
768.501	33.38
768.679	33.5
768.857	32.35
769.035	32.83
769.213	32.1
769.391	31.39
769.569	31.79
769.747	31.75
769.925	31.05
770.103	35.07
770.281	34.18
770.459	35.48
770.636	35.37
770.814	35.26
770.992	34.53
771.17	35.49
771.348	35.4
771.525	35.29
771.703	33.84
771.881	34.68
772.059	32.89
772.236	34.16
772.414	32.5
772.592	33
772.769	33.09
772.947	33.05
773.125	30.44
773.302	31.01
773.48	31.32
773.657	31.79
773.835	29.35
774.013	29.78
774.19	28.09
774.368	29.65
774.545	29.42
774.723	30.33
774.9	29.76
775.077	29.12
775.255	27.75
775.432	25.71
775.61	27.18
775.787	28.78
775.964	28.18
776.142	27.05
776.319	25.32
776.496	23.7
776.674	23.45
776.851	24.47
777.028	26.6
777.205	27.41
777.382	30.61
777.56	28.89
777.737	29.5
777.914	31.31
778.091	34.21
778.268	35.1
778.445	36.21
778.622	36.97
778.8	37.37
778.977	37.89
779.154	35.9
779.331	35.12
779.508	34.95
779.685	33.57
779.862	31.74
780.038	29.25
780.215	30.42
780.392	28.44
780.569	28.06
780.746	28.13
780.923	27.16
781.1	30.22
781.277	29.5
781.453	28.56
781.63	31.8
781.807	34.03
781.984	37
782.16	36.1
782.337	39.91
782.514	40.03
782.691	41.53
782.867	43.74
783.044	42.53
783.221	42.31
783.397	44.45
783.574	44.06
783.75	42.37
783.927	37.88
784.103	37.48
784.28	35.49
784.456	36.71
784.633	34.33
784.809	33.37
784.986	33.1
785.162	33.1
785.339	33.44
785.515	34.64
785.692	35.64
785.868	35.79
786.044	35.56
786.221	34.33
786.397	32.67
786.573	32.25
786.749	33.53
786.926	35.19
787.102	32.93
787.278	32.31
787.454	27.03
787.631	25.69
787.807	29.31
787.983	30.53
788.159	31.96
788.335	31.23
788.511	31.77
788.687	28.61
788.863	24.73
789.039	26.39
789.216	27.17
789.392	30.08
789.568	29.57
789.744	30.74
789.919	30.44
790.095	29.26
790.271	29.75
790.447	27.6
790.623	30.53
790.799	33.01
790.975	34.62
791.151	31.94
791.327	30.08
791.502	30.85
791.678	29.27
791.854	26.72
792.03	24.49
792.205	25.06
792.381	27.4
792.557	27.92
792.733	27.25
792.908	26.45
793.084	25.6
793.259	26.28
793.435	26.03
793.611	25.05
793.786	25.48
793.962	30.17
794.137	31.25
794.313	34.11
794.488	34.28
794.664	33.52
794.839	33.78
795.015	37.49
795.19	38.96
795.366	38.29
795.541	38.74
795.716	39.98
795.892	41.75
796.067	39.44
796.242	35.16
796.418	32.9
796.593	35.11
796.768	33.89
796.944	30.23
797.119	29.95
797.294	30.58
797.469	28.63
797.644	29.04
797.82	26.49
797.995	28.87
798.17	31.08
798.345	32.56
798.52	33.47
798.695	35.67
798.87	38.38
799.045	36.46
799.22	35.3
799.395	38.02
799.57	39.4
799.745	37.43
799.92	34.33
800.095	33.17
800.27	32.86
800.445	31.64
800.62	30.34
800.795	30.69
800.97	32.68
801.145	34.62
801.319	31.29
801.494	29.11
801.669	30.25
801.844	36.33
802.018	39.53
802.193	41.7
802.368	38.88
802.543	35.84
802.717	32.39
802.892	32.71
803.067	33.07
803.241	37.17
803.416	34.99
803.59	34.59
803.765	33.23
803.94	29.59
804.114	23.46
804.289	26.47
804.463	28.7
804.638	31.63
804.812	30.69
804.986	29.43
805.161	27.82
805.335	32.36
805.51	30.39
805.684	30.7
805.858	32.34
806.033	32.89
806.207	32.67
806.381	30.94
806.556	31.5
806.73	31.42
806.904	29.83
807.078	29.82
807.253	26.55
807.427	29.94
807.601	24.4
807.775	24.91
807.949	22.11
808.123	25.77
808.298	30.58
808.472	31.27
808.646	29.36
808.82	30.38
808.994	31.62
809.168	31.01
809.342	29.78
809.516	31.17
809.69	31.33
809.864	35.3
810.038	29.99
810.212	30.6
810.385	27.67
810.559	25.81
810.733	23.78
810.907	23.63
811.081	24.78
811.255	29.24
811.428	25.99
811.602	23.74
811.776	27.4
811.95	26.62
812.123	21.2
812.297	25.31
812.471	29.85
812.644	28.96
812.818	33.1
812.992	31.92
813.165	28.69
813.339	31.85
813.512	27.93
813.686	24.77
813.86	26.58
814.033	27.73
814.207	26.27
814.38	24.9
814.554	29.56
814.727	20.22
814.9	20.35
815.074	19.13
815.247	22.96
815.421	28.77
815.594	27.05
815.767	30.09
815.941	33.64
816.114	32.49
816.287	31.38
816.46	28.65
816.634	32.93
816.807	34.68
816.98	35.96
817.153	34.79
817.327	31.54
817.5	32.58
817.673	34.12
817.846	32.57
818.019	32.32
818.192	37.07
818.365	39.28
818.538	38.42
818.711	41.16
818.884	39.41
819.057	36.98
819.23	39.75
819.403	37.14
819.576	35.28
819.749	35.4
819.922	36.44
820.095	30.59
820.268	30.21
820.441	27.21
820.614	25.79
820.786	26.46
820.959	27
821.132	25.86
821.305	28.24
821.477	28.88
821.65	29.46
821.823	28.61
821.996	30.22
822.168	30.99
822.341	32.59
822.514	32.58
822.686	32.59
822.859	32.26
823.031	32.85
823.204	32.68
823.376	32.53
823.549	32.28
823.722	32.74
823.894	32.61
824.067	32.18
824.239	30.52
824.411	31.21
824.584	30.68
824.756	31.32
824.929	31.69
825.101	31.43
825.273	31.65
825.446	32.01
825.618	31.2
825.79	32.43
825.963	31.06
826.135	32.23
826.307	30.92
826.479	32.49
826.652	31.67
826.824	30.05
826.996	29.98
827.168	29.05
827.34	27.75
827.512	27.89
827.684	27.15
827.856	28.85
828.029	29.77
828.201	29.64
828.373	29.95
828.545	31.01
828.717	31.46
828.889	31.18
829.061	32.4
829.232	34.33
829.404	36.7
829.576	35.94
829.748	36.9
829.92	35.84
830.092	35.57
830.264	32.75
830.436	33.55
830.607	32.59
830.779	33.9
830.951	32.74
831.123	29.67
831.294	26.05
831.466	25.55
831.638	22.9
831.809	22.26
831.981	23.76
832.153	26.97
832.324	26.04
832.496	29.34
832.667	29.87
832.839	28.91
833.011	31.23
833.182	30.41
833.354	34.16
833.525	34.02
833.697	35.41
833.868	35.09
834.039	34.76
834.211	32.83
834.382	30.63
834.554	29.97
834.725	31.5
834.896	29.67
835.068	30.94
835.239	28.77
835.41	30.58
835.581	31.67
835.753	32.26
835.924	31.47
836.095	32.32
836.266	30.41
836.438	31.74
836.609	31.69
836.78	34.18
836.951	32.58
837.122	32.25
837.293	28.52
837.464	26.79
837.635	22.56
837.806	21.02
837.977	19.78
838.148	24.79
838.319	23.71
838.49	22.32
838.661	21.04
838.832	20
839.003	24.76
839.174	30.19
839.345	26.1
839.516	28.67
839.687	31.18
839.857	34.97
840.028	35.24
840.199	33.44
840.37	34.63
840.54	33.66
840.711	36.81
840.882	29.46
841.053	25.65
841.223	27.82
841.394	30.28
841.564	29.52
841.735	29.62
841.906	25.66
842.076	21.86
842.247	20.83
842.417	21.58
842.588	20.19
842.758	24.52
842.929	29.07
843.099	27.27
843.27	27.7
843.44	22.77
843.611	13.24
843.781	17.23
843.951	25.81
844.122	21.21
844.292	21.17
844.462	17.92
844.633	11.25
844.803	11.04
844.973	16.91
845.144	21.74
845.314	29.48
845.484	31.24
845.654	39.65
845.824	45.42
845.995	42.44
846.165	44.33
846.335	45.64
846.505	55.53
846.675	52.74
846.845	52.07
847.015	41.81
847.185	39.51
847.355	38.8
847.525	21.32
847.695	17.58
847.865	22.15
848.035	27.71
848.205	28.02
848.375	28.44
848.545	32.16
848.715	36.14
848.884	35.66
849.054	35.58
849.224	46.12
849.394	59.81
849.564	48.4
849.733	48.39
849.903	37.26
850.073	27.65
850.243	23.22
850.412	20.57
850.582	20.85
850.752	20.16
850.921	14.12
851.091	7.84
851.26	17.34
851.43	18.31
851.599	33.12
851.769	34.34
851.939	33.42
852.108	28.94
852.278	27.72
852.447	24.38
852.616	28.4
852.786	33.81
852.955	32.77
853.125	18.29
853.294	36.51
853.463	7.27
853.633	5.27
853.802	16.48
853.971	15.41
854.141	22.46
854.31	1.28
854.479	-8.5
854.648	1.26
854.818	-0.48
854.987	16.63
855.156	0.89
855.325	19.66
855.494	25.21
855.663	25.01
855.832	24.26
856.001	13.8
856.171	28.78
856.34	30.11
856.509	29.44
856.678	31.01
856.847	14.57
857.016	22.99
857.185	23.64
857.353	11.94
857.522	4.85
857.691	8.24
857.86	19.58
858.029	25.67
858.198	33.23
858.367	36.93
858.535	41.34
858.704	50.83
858.873	50.4
859.042	44.66
859.21	54.9
859.379	59.74
859.548	62
859.717	58.59
859.885	48.33
860.054	50.64
860.222	46.2
860.391	48.63
860.56	49.27
860.728	44.36
860.897	59.04
861.065	52.02
861.234	39.61
861.402	40.13
861.571	44.95
861.739	48.31
861.908	50.09
862.076	48.05
862.244	43.96
862.413	35.39
862.581	35.72
862.749	1.91
862.918	-6.04
863.086	-1.76
863.254	0.25
863.423	9.8
863.591	11.82
863.759	13.75
863.927	18.01
864.096	17.92
864.264	30.35
864.432	29.26
864.6	38.38
864.768	35.58
864.936	33.38
865.104	36.73
865.272	33.84
865.44	33.01
865.608	26.21
865.776	23.03
865.944	26.03
866.112	12.95
866.28	12.18
866.448	16.61
866.616	20.97
866.784	30.51
866.952	29.17
867.12	32.1
867.288	40.79
867.455	40.05
867.623	50.14
867.791	59.25
867.959	74.6
868.127	76.53
868.294	68.45
868.462	74.11
868.63	65.87
868.797	65.14
868.965	71.52
869.133	59.54
869.3	61.77
869.468	54.98
869.636	43.83
869.803	38.76
869.971	45.66
870.138	48.2
870.306	48.23
870.473	62.39
870.641	59.74
870.808	45.44
870.975	51.12
871.143	47.75
871.31	43.27
871.478	47.58
871.645	55.87
871.812	61.61
871.98	58.02
872.147	69.19
872.314	59.27
872.482	58.63
872.649	70.94
872.816	54.14
872.983	60.21
873.15	60.29
873.318	67.65
873.485	48.26
873.652	37.74
873.819	36.49
873.986	34.39
874.153	34.21
874.32	33.75
874.487	19.84
874.654	17.11
874.821	21.98
874.988	20.84
875.155	5.06
875.322	2.68
875.489	-0.71
875.656	3.24
875.823	-12.35
875.99	-11.46
876.157	-9.81
876.324	-8.02
876.49	10.4
876.657	13.62
876.824	26.73
876.991	34.84
877.157	37.65
877.324	45.61
877.491	48.06
877.658	51.49
877.824	53.61
877.991	58.62
878.157	68.49
878.324	56.87
878.491	48.08
878.657	38.68
878.824	50.61
878.99	54.25
879.157	40.62
879.323	44.53
879.49	51.61
879.656	47.36
879.823	44.95
879.989	48.52
880.156	65.19
880.322	72.1
880.488	61.12
880.655	46.57
880.821	36.37
880.987	34.55
881.154	32.07
881.32	33.2
881.486	33.01
881.652	29.4
881.819	26.08
881.985	21.12
882.151	21.61
882.317	26.7
882.483	31.89
882.649	34.74
882.816	35.86
882.982	38.09
883.148	38.78
883.314	36.75
883.48	37.76
883.646	39.08
883.812	37.7
883.978	37.09
884.144	34.58
884.31	33.3
884.476	33.12
884.642	32.24
884.807	30.21
884.973	26.78
885.139	27.91
885.305	26.21
885.471	26.06
885.637	27.27
885.802	27.78
885.968	30.89
886.134	28.87
886.3	26.83
886.465	29.06
886.631	25.84
886.797	27.68
886.962	25.2
887.128	28.52
887.293	23.36
887.459	24.54
887.625	23.74
887.79	19.61
887.956	21.39
888.121	20.03
888.287	19.12
888.452	20.91
888.618	18.07
888.783	20.08
