Data from 2938031_Reflection_1.txt Node
Date: Sun Jul 12 15:01:06 EDT 2015
User: robert
Spectrometer: USB4E03001
Autoset integration time: false
Trigger mode: 4
Integration Time (sec): 1.000000E-1
Scans to average: 10
Electric dark correction enabled: true
Nonlinearity correction enabled: false
Boxcar width: 5
Stray light correction enabled: false
XAxis mode: Wavelengths
Stop averaging: false
Number of Pixels in Spectrum: 3648
>>>>>Begin Spectral Data<<<<<
177.566	588.27
177.785	-145.68
178.005	-1957.86
178.225	587.33
178.445	174.13
178.665	266.71
178.885	13.28
179.105	130.04
179.324	173.54
179.544	2217.59
179.764	-374.85
179.984	983.9
180.204	-182.02
180.423	-249.56
180.643	-435.27
180.863	-18774.29
181.083	-443.07
181.302	-299.66
181.522	-200.53
181.742	-260.49
181.961	-3253.37
182.181	-283.75
182.401	-46.45
182.621	-35.29
182.84	-16.12
183.06	-32.82
183.279	-27.86
183.499	-45.1
183.719	-5.36
183.938	7.95
184.158	-0.13
184.377	34.93
184.597	14.01
184.816	-29.18
185.036	-80.13
185.256	-80.03
185.475	-15.94
185.695	-41.12
185.914	-50.22
186.134	-59.35
186.353	-70.97
186.572	-37.71
186.792	-69.07
187.011	-57.23
187.231	-64.05
187.45	-55.57
187.67	-97.52
187.889	-349.19
188.108	-266.25
188.328	-87.36
188.547	-45.39
188.766	-127.73
188.986	-222.7
189.205	-92.2
189.424	-647.87
189.644	-298.36
189.863	-1083.18
190.082	-321.81
190.302	-76.18
190.521	-165.11
190.74	-560.73
190.959	-419.45
191.178	-288.91
191.398	484.06
191.617	-2741.56
191.836	-2516.87
192.055	672.13
192.274	-345.37
192.494	-184.75
192.713	-214.14
192.932	-115.15
193.151	-89.63
193.37	-131.87
193.589	-144.41
193.808	-135.35
194.027	-90.48
194.246	-92.9
194.465	-81.09
194.685	-47.02
194.904	-31.97
195.123	-34.5
195.342	-28.95
195.561	-14.94
195.78	-59.76
195.999	-40.91
196.218	-30.34
196.436	-110.33
196.655	-35.73
196.874	-51.37
197.093	-143.22
197.312	-363.2
197.531	-326.79
197.75	-251.63
197.969	-185.69
198.188	-255.37
198.407	-230.93
198.625	-209.86
198.844	-104.2
199.063	-127.67
199.282	-81.06
199.501	-81.56
199.719	-49.14
199.938	-57.95
200.157	-50.49
200.376	-77.09
200.594	-26.98
200.813	-16.37
201.032	-30.71
201.251	-82.6
201.469	-118.26
201.688	-186.32
201.907	-183.73
202.125	-189.38
202.344	-137.16
202.563	-220.47
202.781	-413.24
203	-367.58
203.218	-402.37
203.437	21841.86
203.656	-298.29
203.874	-256.18
204.093	-230.1
204.311	-189.82
204.53	-227.36
204.748	-268.81
204.967	-160.23
205.185	-163.11
205.404	-160.66
205.622	-150.64
205.841	-45.22
206.059	-144.53
206.278	-73.84
206.496	-44.46
206.715	-16.76
206.933	11.12
207.151	43.69
207.37	10.29
207.588	21.41
207.806	9.11
208.025	-0.3
208.243	16.93
208.461	2.11
208.68	14.84
208.898	10.36
209.116	2.24
209.335	-40.03
209.553	-63.54
209.771	-63.27
209.989	-50.02
210.208	-94.66
210.426	-175.25
210.644	-256.92
210.862	-152.14
211.081	-153.46
211.299	-264.14
211.517	-232.16
211.735	-165.63
211.953	-68.44
212.171	-4.08
212.39	-3.7
212.608	19.94
212.826	4.29
213.044	2.7
213.262	-9.35
213.48	-47.95
213.698	-5.59
213.916	-20.13
214.134	15.88
214.352	-21.39
214.57	-25.57
214.788	-37.36
215.006	-48.02
215.224	-4.16
215.442	13.27
215.66	23.38
215.878	3.81
216.096	-13.41
216.314	8.31
216.532	7.98
216.75	-2.3
216.968	-5.5
217.185	1.91
217.403	10.53
217.621	-11.01
217.839	-24.29
218.057	-25.92
218.275	-1.62
218.492	-8.01
218.71	-21.42
218.928	-23.08
219.146	2.68
219.363	-7.47
219.581	-29.4
219.799	-39.75
220.017	40.02
220.234	43.87
220.452	32.04
220.67	35.73
220.887	39.56
221.105	4.62
221.323	-9.43
221.54	5.17
221.758	11.64
221.976	8.98
222.193	13.91
222.411	-9.14
222.629	1.44
222.846	4.73
223.064	-13.04
223.281	5.83
223.499	9.54
223.716	29.62
223.934	34.47
224.151	23.43
224.369	23.56
224.586	26.06
224.804	16.7
225.021	-6.08
225.239	-17.16
225.456	7.23
225.674	-14.01
225.891	-12.89
226.108	-27.13
226.326	-22.74
226.543	-26.86
226.76	-23.72
226.978	-33.31
227.195	-19.39
227.413	-13.07
227.63	-7.93
227.847	-7.66
228.064	-1.03
228.282	3.35
228.499	5.87
228.716	4.88
228.934	5.5
229.151	4.47
229.368	6.8
229.585	7.3
229.802	9.98
230.02	9.32
230.237	9.12
230.454	11.26
230.671	9.6
230.888	11.06
231.105	11.59
231.323	10.94
231.54	12.28
231.757	12.71
231.974	8.84
232.191	3.62
232.408	6.46
232.625	4.76
232.842	3.41
233.059	4.93
233.276	1.45
233.493	-1.44
233.71	-1.41
233.927	-2.88
234.144	-3.13
234.361	-1.45
234.578	3.59
234.795	-0.04
235.012	-0.18
235.229	-6.3
235.446	-7.66
235.663	-5.49
235.879	-2.12
236.096	-3.38
236.313	-1.23
236.53	3.2
236.747	4.34
236.964	0.25
237.181	4.13
237.397	4.26
237.614	9.72
237.831	14.38
238.048	15.63
238.264	13.86
238.481	16.12
238.698	15.66
238.915	11.7
239.131	10.96
239.348	7.69
239.565	7.14
239.781	7.2
239.998	8.66
240.215	5
240.431	2.47
240.648	1.51
240.865	0.48
241.081	4.18
241.298	6.45
241.514	7.07
241.731	8.6
241.947	8.47
242.164	9.76
242.38	7.82
242.597	8.16
242.814	9.67
243.03	10.58
243.246	10.59
243.463	9.04
243.679	8.62
243.896	8.07
244.112	8.41
244.329	8.42
244.545	7.94
244.762	9.17
244.978	8.74
245.194	5.07
245.411	4.04
245.627	4.44
245.843	6.25
246.06	7.47
246.276	7.79
246.492	6.88
246.709	6.84
246.925	6.66
247.141	8.58
247.357	8.45
247.574	9.29
247.79	9.65
248.006	10.33
248.222	9.94
248.439	8.94
248.655	8.85
248.871	9.29
249.087	8.95
249.303	9.38
249.519	5.89
249.736	6.62
249.952	6.95
250.168	5.04
250.384	3.92
250.6	3.62
250.816	5.09
251.032	5.03
251.248	5.27
251.464	6.12
251.68	3.63
251.896	4.29
252.112	3.07
252.328	1.52
252.544	0.88
252.76	0.57
252.976	-0.31
253.192	-0.82
253.408	-1.12
253.624	-0.77
253.84	-2.26
254.056	-2.47
254.272	-2.29
254.487	-0.49
254.703	0.32
254.919	1.45
255.135	4.23
255.351	6.19
255.567	3.04
255.782	3.03
255.998	2.07
256.214	4.13
256.43	7.06
256.646	7.1
256.861	4.71
257.077	3.77
257.293	4.04
257.508	4.77
257.724	4.69
257.94	5.56
258.155	6.99
258.371	6.49
258.587	6.66
258.802	6.23
259.018	7.66
259.234	6.85
259.449	7.24
259.665	7.52
259.88	6.77
260.096	6.18
260.312	6.98
260.527	7.41
260.743	8.06
260.958	7.6
261.174	7.69
261.389	6.99
261.605	7.8
261.82	7.97
262.036	8.55
262.251	8.81
262.466	10.56
262.682	9.84
262.897	8.07
263.113	6.72
263.328	7.22
263.543	8.58
263.759	8.53
263.974	9.53
264.189	10.31
264.405	10.69
264.62	9.82
264.835	6.96
265.051	5.98
265.266	8.19
265.481	8.65
265.696	8.53
265.912	8.08
266.127	7.16
266.342	5.06
266.557	4.09
266.773	2.23
266.988	3.86
267.203	4.57
267.418	5.98
267.633	4.07
267.848	4.7
268.064	3.93
268.279	2.17
268.494	2.32
268.709	2.94
268.924	4.06
269.139	4.93
269.354	5.3
269.569	5.78
269.784	4.28
269.999	5.21
270.214	5.12
270.429	5.72
270.644	5.89
270.859	6.3
271.074	7.29
271.289	6.4
271.504	7.45
271.719	6.61
271.934	6.7
272.149	6.78
272.363	5.48
272.578	5.07
272.793	6.19
273.008	6.53
273.223	6.81
273.438	6.28
273.653	6.83
273.867	5.39
274.082	5.36
274.297	5.72
274.512	6.99
274.726	8.26
274.941	8.87
275.156	7.68
275.371	7.81
275.585	6.94
275.8	6.7
276.015	5.59
276.229	6.49
276.444	6.27
276.659	5.02
276.873	4.43
277.088	4.86
277.302	3.44
277.517	2.53
277.732	4.26
277.946	5.33
278.161	5.37
278.375	4.81
278.59	3.97
278.804	2.56
279.019	2.78
279.233	1.97
279.448	1.02
279.662	0.86
279.877	1.54
280.091	0.09
280.306	0.11
280.52	0.59
280.735	0.85
280.949	1.91
281.163	3.47
281.378	4.23
281.592	4.89
281.806	5.09
282.021	6.92
282.235	6.43
282.449	6.48
282.664	5
282.878	5.6
283.092	5.59
283.307	6.14
283.521	5.24
283.735	5.34
283.949	5.37
284.164	5.17
284.378	4.32
284.592	6.23
284.806	5.72
285.02	6.83
285.234	6.38
285.449	6.64
285.663	6.7
285.877	6.47
286.091	7.1
286.305	7.15
286.519	7.08
286.733	7.37
286.947	5.62
287.161	5.96
287.375	6.07
287.589	5.37
287.803	5.33
288.017	4.4
288.231	5.13
288.445	4.4
288.659	4.61
288.873	5
289.087	4.15
289.301	5.06
289.515	5.24
289.729	5.89
289.943	7.15
290.157	7.47
290.371	7.79
290.584	7.63
290.798	8.07
291.012	8.09
291.226	7.33
291.44	7.5
291.654	7.38
291.867	6.92
292.081	4.11
292.295	2.86
292.509	2.99
292.722	2.38
292.936	3.32
293.15	3.07
293.364	3.26
293.577	4.75
293.791	4.78
294.005	5.92
294.218	6.88
294.432	8.41
294.645	9.2
294.859	10.01
295.073	10.93
295.286	11.12
295.5	10.5
295.713	10
295.927	9.92
296.14	11.06
296.354	10.28
296.568	8.66
296.781	9.6
296.994	9.37
297.208	7.99
297.421	7.59
297.635	7.46
297.848	7.3
298.062	7.54
298.275	6.92
298.489	6.3
298.702	6.65
298.915	8.36
299.129	6.85
299.342	7.35
299.555	8.32
299.769	8.26
299.982	7.23
300.195	7.12
300.409	7.14
300.622	7.61
300.835	7.36
301.048	7.58
301.262	6.93
301.475	8.38
301.688	8.04
301.901	8.6
302.115	7.92
302.328	8.09
302.541	7.54
302.754	6.81
302.967	7.22
303.18	6.57
303.393	5.43
303.607	3.71
303.82	3.12
304.033	2.65
304.246	1
304.459	2.96
304.672	2.78
304.885	3.96
305.098	4.32
305.311	4.02
305.524	4.57
305.737	5.09
305.95	7.3
306.163	7.11
306.376	7.2
306.589	7.72
306.802	6.71
307.015	5.93
307.228	5.72
307.44	6.04
307.653	5.12
307.866	3.99
308.079	5.13
308.292	4.39
308.505	5.6
308.718	7.05
308.93	7.81
309.143	8.52
309.356	9.71
309.569	9.49
309.781	8.66
309.994	9.32
310.207	10.83
310.42	9.88
310.632	10.13
310.845	10.32
311.058	9.73
311.27	9.43
311.483	8.74
311.696	9.83
311.908	9.49
312.121	9.69
312.333	9.06
312.546	8.17
312.759	8.55
312.971	8.29
313.184	6.93
313.396	6.73
313.609	7.32
313.821	6.27
314.034	4.45
314.246	4.63
314.459	5.8
314.671	6.14
314.884	6.88
315.096	6.88
315.309	8.09
315.521	9.02
315.733	7.8
315.946	7.02
316.158	8.28
316.371	7.99
316.583	8.41
316.795	8.24
317.008	8.36
317.22	8.41
317.432	8.49
317.644	7.13
317.857	6.35
318.069	6.84
318.281	6.2
318.494	6.42
318.706	7.81
318.918	8.83
319.13	7.88
319.342	8.62
319.555	7.77
319.767	7.45
319.979	7
320.191	7.92
320.403	9.48
320.615	9.24
320.827	9.47
321.039	7.03
321.252	6.98
321.464	7.09
321.676	6.92
321.888	7.16
322.1	7.42
322.312	8.57
322.524	8.44
322.736	6.87
322.948	8.37
323.16	8.1
323.372	9.61
323.584	8.45
323.796	9.05
324.007	7.54
324.219	6.54
324.431	6.41
324.643	5.46
324.855	4.79
325.067	6.12
325.279	6.08
325.491	5.86
325.702	5.2
325.914	5.73
326.126	5.41
326.338	6.99
326.55	8.67
326.761	8.81
326.973	9.68
327.185	10.78
327.396	10.69
327.608	10.41
327.82	11.18
328.032	10.93
328.243	10.29
328.455	10.61
328.666	10.81
328.878	11.1
329.09	12.1
329.301	11.68
329.513	10.81
329.725	11.17
329.936	10.26
330.148	10.37
330.359	12.83
330.571	13.41
330.782	12.92
330.994	13.57
331.205	13.11
331.417	12.34
331.628	12.94
331.84	13.81
332.051	13.45
332.262	14.8
332.474	14.82
332.685	13.93
332.897	14.71
333.108	15.73
333.319	15.5
333.531	14.96
333.742	15.09
333.953	14.58
334.165	14.67
334.376	14.22
334.587	13.97
334.799	14.04
335.01	12.98
335.221	13.97
335.432	13.82
335.644	13.53
335.855	13.42
336.066	13.96
336.277	14.07
336.488	14.81
336.7	15.23
336.911	15.87
337.122	15.69
337.333	17.03
337.544	15.61
337.755	15.15
337.966	15.4
338.177	16.92
338.388	17.24
338.599	17.65
338.811	17.58
339.022	17.67
339.233	17.59
339.444	17.45
339.655	16.68
339.866	17.12
340.076	17.66
340.287	19.1
340.498	19.1
340.709	18.74
340.92	18.81
341.131	18.74
341.342	19.26
341.553	18.45
341.764	18.39
341.975	18
342.185	17.71
342.396	17.8
342.607	16.43
342.818	15.46
343.029	15.86
343.239	15.36
343.45	14.42
343.661	13.54
343.872	13.82
344.082	13.96
344.293	15.41
344.504	16.45
344.714	15.86
344.925	15.35
345.136	14.67
345.346	14.3
345.557	14.05
345.768	13.8
345.978	14.21
346.189	14.56
346.399	14.13
346.61	13.73
346.821	12.45
347.031	12.86
347.242	12.27
347.452	13.01
347.663	12.33
347.873	12.99
348.084	13.29
348.294	13.48
348.504	13.25
348.715	13.31
348.925	13.08
349.136	13.85
349.346	12.82
349.557	13.12
349.767	13.45
349.977	13.91
350.188	14.09
350.398	14.36
350.608	13.93
350.819	14.06
351.029	14.62
351.239	14.44
351.449	14.2
351.66	15.59
351.87	16.66
352.08	16.43
352.29	15.69
352.501	15.44
352.711	14.93
352.921	14.87
353.131	14.99
353.341	14.79
353.552	14.95
353.762	14.81
353.972	14.94
354.182	14.84
354.392	15.4
354.602	16.58
354.812	15.85
355.022	16.76
355.232	15.97
355.442	15.86
355.652	15.94
355.862	15.87
356.072	15.78
356.282	15.6
356.492	15.56
356.702	15.66
356.912	15.13
357.122	15.33
357.332	15.85
357.542	16.55
357.752	16.59
357.962	16.13
358.171	16.74
358.381	17.31
358.591	16.79
358.801	16.42
359.011	16.04
359.221	16.13
359.43	16.8
359.64	15.12
359.85	15.48
360.06	15.44
360.269	16.41
360.479	15.82
360.689	15.7
360.899	15.3
361.108	15.08
361.318	14.83
361.528	15.37
361.737	14.82
361.947	15.5
362.156	15.32
362.366	14.97
362.576	14.05
362.785	13.96
362.995	13.94
363.204	14.02
363.414	14.31
363.623	14.35
363.833	13.52
364.042	13.12
364.252	13
364.461	12.08
364.671	12.43
364.88	12.84
365.09	12.65
365.299	12.42
365.509	12.42
365.718	12.02
365.927	12.1
366.137	12.07
366.346	13.35
366.555	13.41
366.765	13.38
366.974	12.13
367.183	11.88
367.393	12.08
367.602	11.56
367.811	11.92
368.021	12.62
368.23	12.45
368.439	12.82
368.648	13.11
368.857	13.64
369.067	13.57
369.276	14.49
369.485	14.43
369.694	14.39
369.903	15.38
370.112	15.29
370.321	14.55
370.531	13.88
370.74	13.5
370.949	12.81
371.158	12.32
371.367	13.16
371.576	13.23
371.785	14
371.994	13.69
372.203	12.94
372.412	13.07
372.621	13.78
372.83	14.15
373.039	14.78
373.248	14.43
373.457	14.54
373.666	14.23
373.874	14.14
374.083	13.11
374.292	13.37
374.501	12.93
374.71	12.93
374.919	12.23
375.128	12.33
375.336	11.66
375.545	11.63
375.754	10.69
375.963	10.75
376.171	10.7
376.38	10.63
376.589	10.77
376.798	11.39
377.006	11.63
377.215	12.06
377.424	12.57
377.632	12.84
377.841	12.79
378.05	13.21
378.258	13.47
378.467	13.77
378.675	14.23
378.884	14.66
379.093	14.67
379.301	13.98
379.51	13.5
379.718	12.62
379.927	12.24
380.135	12.27
380.344	11.75
380.552	11.75
380.761	11.52
380.969	11.65
381.177	10.37
381.386	9.83
381.594	10.27
381.803	10.66
382.011	10.91
382.219	11.13
382.428	10.91
382.636	11.12
382.845	11.05
383.053	10.5
383.261	10.25
383.469	10.84
383.678	11.03
383.886	10.47
384.094	10.17
384.302	10.31
384.511	10.19
384.719	9.98
384.927	10.4
385.135	10.33
385.343	10.47
385.552	10.39
385.76	10.4
385.968	10.47
386.176	10.87
386.384	10.69
386.592	10.37
386.8	10.23
387.008	10.31
387.216	10.19
387.424	9.51
387.633	9.58
387.841	9.63
388.049	9.71
388.257	9.47
388.465	9.24
388.672	9.39
388.88	9.86
389.088	9.62
389.296	10.18
389.504	10.04
389.712	10.3
389.92	10.32
390.128	10.26
390.336	9.78
390.544	9.91
390.751	9.92
390.959	9.83
391.167	9.57
391.375	9.78
391.583	9.61
391.79	9.5
391.998	9.8
392.206	10.01
392.414	10.35
392.621	10.27
392.829	10.28
393.037	10.16
393.244	10.29
393.452	10.72
393.66	10.79
393.867	10.56
394.075	10.8
394.283	10.51
394.49	10.09
394.698	9.76
394.905	9.99
395.113	9.96
395.32	9.94
395.528	9.72
395.735	9.6
395.943	9.8
396.15	9.96
396.358	9.87
396.565	10.01
396.773	10.66
396.98	10.89
397.188	10.95
397.395	10.92
397.602	10.8
397.81	11.05
398.017	10.78
398.225	10.48
398.432	10.43
398.639	10.7
398.847	10.59
399.054	9.95
399.261	10.04
399.468	9.94
399.676	9.89
399.883	10.06
400.09	9.75
400.297	9.75
400.505	9.85
400.712	9.54
400.919	9.17
401.126	9.11
401.333	9.14
401.54	8.62
401.748	8.73
401.955	8.81
402.162	8.86
402.369	9.05
402.576	9.07
402.783	8.9
402.99	8.99
403.197	8.88
403.404	9.03
403.611	8.86
403.818	8.71
404.025	8.72
404.232	8.56
404.439	8.68
404.646	8.68
404.853	8.52
405.06	8.29
405.267	8.33
405.474	8.36
405.681	8.67
405.887	8.75
406.094	8.96
406.301	8.85
406.508	9.01
406.715	8.79
406.922	8.68
407.128	8.41
407.335	8.85
407.542	9
407.749	9.06
407.955	8.54
408.162	8.62
408.369	8.22
408.575	7.98
408.782	7.68
408.989	7.73
409.195	7.58
409.402	7.44
409.609	7.28
409.815	7.1
410.022	7.19
410.228	7.41
410.435	7.37
410.642	7.6
410.848	7.8
411.055	7.97
411.261	8.31
411.468	8.47
411.674	8.78
411.881	8.65
412.087	8.71
412.294	8.7
412.5	8.8
412.706	9.12
412.913	9.31
413.119	9.48
413.326	9.46
413.532	9.09
413.738	9.24
413.945	9.22
414.151	9.47
414.357	9.31
414.564	9.21
414.77	9.07
414.976	9
415.182	9.01
415.389	8.89
415.595	8.58
415.801	8.53
416.007	8.42
416.214	8.36
416.42	8.16
416.626	8.47
416.832	8.4
417.038	8.31
417.244	8.28
417.45	8.4
417.657	8.31
417.863	8.52
418.069	8.69
418.275	8.72
418.481	8.97
418.687	8.92
418.893	8.95
419.099	9.08
419.305	9.26
419.511	9.21
419.717	9.2
419.923	9.33
420.129	9.41
420.335	9.21
420.541	9.16
420.746	9.16
420.952	9.18
421.158	9
421.364	9
421.57	8.8
421.776	8.82
421.982	8.88
422.187	8.76
422.393	8.55
422.599	8.61
422.805	8.68
423.01	8.59
423.216	8.69
423.422	8.64
423.628	8.46
423.833	8.47
424.039	8.35
424.245	8.18
424.45	8.2
424.656	8.28
424.862	8.4
425.067	8.36
425.273	8.36
425.478	8.28
425.684	8.3
425.889	8.31
426.095	8.34
426.301	8.35
426.506	8.28
426.712	8.27
426.917	8.49
427.123	8.35
427.328	8.38
427.533	8.15
427.739	8.12
427.944	8.15
428.15	8.11
428.355	8.06
428.561	8.11
428.766	8.15
428.971	8.28
429.177	8.06
429.382	7.84
429.587	7.94
429.793	7.98
429.998	8
430.203	8.08
430.408	8.17
430.614	8.33
430.819	8.39
431.024	8.22
431.229	7.95
431.434	7.8
431.64	7.88
431.845	7.87
432.05	8.05
432.255	7.83
432.46	7.78
432.665	7.84
432.87	7.71
433.076	7.76
433.281	7.89
433.486	7.98
433.691	8.24
433.896	8.44
434.101	8.3
434.306	8.35
434.511	8.69
434.716	8.72
434.921	8.62
435.126	8.49
435.331	8.43
435.535	8.45
435.74	8.49
435.945	8.59
436.15	8.28
436.355	8.22
436.56	8.21
436.765	8.23
436.97	8.14
437.174	8.36
437.379	8.64
437.584	8.69
437.789	8.6
437.993	8.69
438.198	8.41
438.403	8.69
438.608	8.7
438.812	8.56
439.017	8.27
439.222	8.3
439.426	8.27
439.631	8.09
439.836	8.05
440.04	8.09
440.245	8.18
440.45	8.25
440.654	8.21
440.859	8.23
441.063	8.31
441.268	8.31
441.472	8.24
441.677	8.21
441.881	8.28
442.086	8.23
442.29	8.1
442.495	7.95
442.699	8.03
442.904	7.91
443.108	7.91
443.312	7.81
443.517	7.98
443.721	7.91
443.925	7.83
444.13	7.94
444.334	8.01
444.538	8.2
444.743	8.26
444.947	8.19
445.151	8.31
445.356	8.3
445.56	8.42
445.764	8.48
445.968	8.65
446.173	8.67
446.377	8.59
446.581	8.59
446.785	8.58
446.989	8.52
447.193	8.52
447.398	8.46
447.602	8.5
447.806	8.46
448.01	8.32
448.214	8.2
448.418	8.28
448.622	8.16
448.826	8.06
449.03	8.07
449.234	8.06
449.438	8.19
449.642	8.21
449.846	8.18
450.05	8.07
450.254	8.11
450.458	8.21
450.662	8.13
450.866	8.2
451.069	8.3
451.273	8.24
451.477	8.2
451.681	8.02
451.885	7.99
452.089	7.8
452.292	7.86
452.496	7.89
452.7	7.74
452.904	7.7
453.107	7.67
453.311	7.74
453.515	7.78
453.719	7.84
453.922	7.74
454.126	7.71
454.33	7.9
454.533	7.74
454.737	7.61
454.94	7.78
455.144	8.08
455.348	8.13
455.551	8.12
455.755	8.11
455.958	8.08
456.162	7.99
456.365	7.93
456.569	8.05
456.772	8.41
456.976	8.53
457.179	8.65
457.383	8.31
457.586	8.26
457.79	8.13
457.993	8.24
458.196	8.13
458.4	8.27
458.603	8.39
458.807	8.32
459.01	8.3
459.213	8.37
459.417	8.21
459.62	8.4
459.823	8.5
460.026	8.49
460.23	8.44
460.433	8.47
460.636	8.47
460.839	8.5
461.042	8.41
461.246	8.42
461.449	8.24
461.652	8.32
461.855	8.18
462.058	8.03
462.261	8.19
462.464	8.22
462.668	8.27
462.871	8.3
463.074	8.22
463.277	8.36
463.48	8.22
463.683	8.29
463.886	8.23
464.089	8.13
464.292	8.19
464.495	8.11
464.698	7.94
464.901	7.96
465.104	7.76
465.306	7.72
465.509	7.64
465.712	7.51
465.915	7.56
466.118	7.56
466.321	7.45
466.524	7.47
466.726	7.43
466.929	7.36
467.132	7.34
467.335	7.29
467.538	7.34
467.74	7.39
467.943	7.56
468.146	7.36
468.348	7.31
468.551	7.37
468.754	7.3
468.956	7.31
469.159	7.49
469.362	7.41
469.564	7.7
469.767	7.65
469.969	7.75
470.172	7.68
470.375	7.98
470.577	8.17
470.78	8.26
470.982	8.26
471.185	8.36
471.387	8.37
471.59	8.28
471.792	8.2
471.995	8.13
472.197	7.97
472.399	7.86
472.602	7.85
472.804	7.68
473.007	7.62
473.209	7.53
473.411	7.47
473.614	7.5
473.816	7.61
474.018	7.69
474.22	7.89
474.423	8
474.625	8.23
474.827	8.13
475.03	8.24
475.232	8.14
475.434	8.38
475.636	8.24
475.838	8.18
476.04	8.11
476.243	7.93
476.445	7.89
476.647	7.9
476.849	7.88
477.051	7.83
477.253	7.68
477.455	7.78
477.657	7.91
477.859	8.01
478.061	8.04
478.263	8.25
478.465	8.36
478.667	8.34
478.869	8.27
479.071	8.35
479.273	8.46
479.475	8.47
479.677	8.51
479.879	8.3
480.081	8.44
480.283	8.52
480.485	8.31
480.686	8.32
480.888	8.39
481.09	8.34
481.292	8.3
481.494	8.37
481.695	8.54
481.897	8.55
482.099	8.72
482.301	8.64
482.502	8.64
482.704	8.66
482.906	8.58
483.107	8.55
483.309	8.55
483.511	8.5
483.712	8.45
483.914	8.38
484.115	8.33
484.317	8.27
484.519	8.2
484.72	8.14
484.922	8.16
485.123	8.19
485.325	8.15
485.526	8.1
485.728	8.17
485.929	8.19
486.131	8.18
486.332	8.26
486.534	8.22
486.735	8.28
486.936	8.25
487.138	8.16
487.339	8.12
487.541	8.13
487.742	8.12
487.943	8.02
488.144	8.04
488.346	8.04
488.547	7.99
488.748	7.94
488.95	7.92
489.151	7.96
489.352	8.01
489.553	8.04
489.755	8.07
489.956	8.13
490.157	8.15
490.358	8.09
490.559	8.02
490.76	8.1
490.961	8.24
491.163	8.3
491.364	8.32
491.565	8.32
491.766	8.37
491.967	8.4
492.168	8.37
492.369	8.3
492.57	8.25
492.771	8.34
492.972	8.24
493.173	8.22
493.374	8.09
493.575	8.01
493.776	7.93
493.976	7.77
494.177	7.71
494.378	7.87
494.579	7.97
494.78	8.03
494.981	8.07
495.182	8.17
495.382	8.15
495.583	8.25
495.784	8.31
495.985	8.34
496.185	8.44
496.386	8.49
496.587	8.28
496.788	8.16
496.988	8.24
497.189	8.26
497.39	8.22
497.59	8.18
497.791	8.15
497.992	8
498.192	8.13
498.393	8.09
498.593	7.88
498.794	7.82
498.994	8.02
499.195	7.91
499.395	7.89
499.596	8.03
499.796	8
499.997	7.95
500.197	8.06
500.398	7.98
500.598	7.97
500.799	7.92
500.999	8.07
501.199	8.05
501.4	8.15
501.6	8.13
501.801	7.95
502.001	7.99
502.201	8.03
502.402	8.2
502.602	8.32
502.802	8.31
503.002	8.58
503.203	8.54
503.403	8.5
503.603	8.42
503.803	8.34
504.003	8.38
504.204	8.41
504.404	8.5
504.604	8.31
504.804	8.06
505.004	8.2
505.204	8.27
505.404	8.33
505.604	8.33
505.804	8.47
506.005	8.63
506.205	8.67
506.405	8.66
506.605	8.51
506.805	8.5
507.005	8.69
507.204	8.54
507.404	8.39
507.604	8.49
507.804	8.39
508.004	8.35
508.204	8.35
508.404	8.31
508.604	8.34
508.804	8.44
509.003	8.48
509.203	8.4
509.403	8.5
509.603	8.48
509.803	8.41
510.002	8.44
510.202	8.41
510.402	8.42
510.602	8.47
510.801	8.48
511.001	8.45
511.201	8.49
511.4	8.5
511.6	8.49
511.8	8.59
511.999	8.43
512.199	8.51
512.398	8.5
512.598	8.44
512.797	8.47
512.997	8.45
513.197	8.58
513.396	8.52
513.596	8.57
513.795	8.64
513.994	8.6
514.194	8.72
514.393	8.68
514.593	8.73
514.792	8.74
514.992	8.73
515.191	8.65
515.39	8.67
515.59	8.84
515.789	8.85
515.988	8.81
516.188	8.78
516.387	8.8
516.586	8.93
516.786	9
516.985	8.98
517.184	9.01
517.383	9.01
517.582	9.1
517.782	9.04
517.981	9.04
518.18	9
518.379	9.02
518.578	9.1
518.777	9.03
518.976	8.97
519.176	9.04
519.375	9.07
519.574	9.19
519.773	9.02
519.972	9.1
520.171	9.07
520.37	9.1
520.569	9.1
520.768	9.08
520.967	9.07
521.166	8.98
521.365	8.8
521.564	8.53
521.762	8.43
521.961	8.42
522.16	8.44
522.359	8.45
522.558	8.43
522.757	8.5
522.956	8.46
523.154	8.57
523.353	8.66
523.552	8.7
523.751	8.96
523.949	9.13
524.148	9.21
524.347	9.22
524.546	9.35
524.744	9.38
524.943	9.38
525.142	9.37
525.34	9.37
525.539	9.38
525.737	9.4
525.936	9.4
526.135	9.41
526.333	9.36
526.532	9.35
526.73	9.25
526.929	9.28
527.127	9.29
527.326	9.36
527.524	9.32
527.723	9.35
527.921	9.41
528.12	9.44
528.318	9.37
528.516	9.46
528.715	9.46
528.913	9.5
529.112	9.53
529.31	9.55
529.508	9.59
529.707	9.59
529.905	9.6
530.103	9.57
530.301	9.6
530.5	9.63
530.698	9.55
530.896	9.62
531.094	9.68
531.293	9.68
531.491	9.63
531.689	9.7
531.887	9.69
532.085	9.7
532.283	9.77
532.481	9.78
532.68	9.87
532.878	9.87
533.076	9.91
533.274	9.86
533.472	9.86
533.67	9.97
533.868	9.9
534.066	10
534.264	9.98
534.462	10.03
534.66	9.91
534.858	9.89
535.056	10.05
535.253	10.07
535.451	10.16
535.649	10.13
535.847	10.17
536.045	10.18
536.243	10.2
536.441	10.21
536.638	10.26
536.836	10.39
537.034	10.46
537.232	10.41
537.43	10.25
537.627	10.25
537.825	10.38
538.023	10.34
538.22	10.39
538.418	10.47
538.616	10.6
538.813	10.49
539.011	10.53
539.209	10.4
539.406	10.42
539.604	10.63
539.801	10.57
539.999	10.58
540.196	10.66
540.394	10.64
540.591	10.55
540.789	10.55
540.986	10.65
541.184	10.67
541.381	10.75
541.579	10.74
541.776	10.67
541.974	10.69
542.171	10.7
542.368	10.71
542.566	10.8
542.763	10.83
542.96	10.83
543.158	10.79
543.355	10.87
543.552	10.91
543.75	11
543.947	11.08
544.144	11.18
544.341	11.24
544.539	11.23
544.736	11.16
544.933	11.19
545.13	11.32
545.327	11.43
545.524	11.45
545.722	11.53
545.919	11.65
546.116	11.67
546.313	11.69
546.51	11.69
546.707	11.64
546.904	11.71
547.101	11.77
547.298	11.75
547.495	11.8
547.692	11.73
547.889	11.64
548.086	11.61
548.283	11.61
548.48	11.64
548.677	11.61
548.874	11.82
549.07	11.75
549.267	11.88
549.464	11.9
549.661	11.9
549.858	11.94
550.055	11.99
550.251	11.87
550.448	11.88
550.645	11.81
550.842	11.82
551.038	11.85
551.235	11.85
551.432	11.79
551.628	11.81
551.825	11.9
552.022	12.02
552.218	11.98
552.415	12.03
552.612	12.21
552.808	12.35
553.005	12.61
553.201	12.62
553.398	12.93
553.594	13.03
553.791	13.02
553.987	12.9
554.184	12.81
554.38	12.91
554.577	13.14
554.773	13.09
554.97	13.23
555.166	13.2
555.362	13.13
555.559	12.96
555.755	12.96
555.952	12.9
556.148	12.94
556.344	13.08
556.541	12.98
556.737	12.8
556.933	12.82
557.129	12.71
557.326	12.68
557.522	12.81
557.718	12.91
557.914	12.97
558.11	13.03
558.307	13.24
558.503	13.4
558.699	13.48
558.895	13.78
559.091	13.81
559.287	13.64
559.483	13.74
559.679	13.6
559.876	13.68
560.072	13.61
560.268	13.8
560.464	13.77
560.66	13.53
560.856	13.74
561.052	13.77
561.247	13.77
561.443	13.87
561.639	13.93
561.835	14.09
562.031	13.95
562.227	14
562.423	14.06
562.619	14.03
562.815	14.14
563.01	14.33
563.206	14.15
563.402	14.14
563.598	14.19
563.793	14.1
563.989	13.92
564.185	14.01
564.381	13.99
564.576	13.93
564.772	14.09
564.968	14.23
565.163	14.13
565.359	14.24
565.555	14.36
565.75	14.57
565.946	14.46
566.141	14.63
566.337	14.77
566.532	14.82
566.728	14.92
566.923	15.04
567.119	14.99
567.314	14.99
567.51	15.1
567.705	14.97
567.901	14.74
568.096	14.88
568.292	14.82
568.487	14.76
568.682	14.83
568.878	14.85
569.073	14.58
569.268	14.56
569.464	14.63
569.659	14.52
569.854	14.54
570.05	14.59
570.245	14.92
570.44	15.17
570.635	15
570.831	15.13
571.026	14.93
571.221	15.13
571.416	15.2
571.611	15.14
571.806	15.19
572.002	15.42
572.197	15.62
572.392	15.23
572.587	15.12
572.782	15.15
572.977	15.09
573.172	15.33
573.367	15.23
573.562	15.27
573.757	15.27
573.952	15.19
574.147	15.26
574.342	15.32
574.537	15.57
574.732	15.53
574.927	15.89
575.121	15.81
575.316	15.81
575.511	15.92
575.706	15.95
575.901	16.19
576.096	16.38
576.29	16.32
576.485	16.28
576.68	16.28
576.875	16.44
577.069	16.27
577.264	16.48
577.459	16.49
577.654	16.28
577.848	16.42
578.043	16.11
578.238	15.93
578.432	15.81
578.627	15.8
578.821	15.55
579.016	15.56
579.21	15.52
579.405	15.38
579.6	15.42
579.794	15.63
579.989	15.34
580.183	15.45
580.378	15.47
580.572	15.56
580.766	15.85
580.961	16.2
581.155	16.2
581.35	16.35
581.544	16.27
581.738	16.22
581.933	16.41
582.127	16.46
582.321	16.58
582.516	16.53
582.71	16.49
582.904	15.95
583.099	15.99
583.293	15.89
583.487	15.66
583.681	15.7
583.875	15.62
584.07	15.76
584.264	16.09
584.458	16.06
584.652	16.15
584.846	16.25
585.04	16.61
585.234	16.52
585.428	16.57
585.623	16.59
585.817	16.31
586.011	16.53
586.205	16.21
586.399	15.78
586.593	15.8
586.787	15.73
586.981	15.56
587.174	15.16
587.368	15.01
587.562	15.19
587.756	15.27
587.95	15.51
588.144	15.37
588.338	15.54
588.532	15.96
588.725	15.9
588.919	16.01
589.113	16.24
589.307	16.37
589.501	16.28
589.694	16.21
589.888	16.31
590.082	16.4
590.275	16.51
590.469	16.41
590.663	16.18
590.856	16.11
591.05	16.2
591.244	16.07
591.437	16.15
591.631	16.35
591.824	16.27
592.018	16.33
592.212	16.46
592.405	16.38
592.599	16.22
592.792	16.4
592.986	16.55
593.179	16.41
593.372	16.46
593.566	16.53
593.759	16.41
593.953	16.47
594.146	16.48
594.339	16.21
594.533	15.98
594.726	16.13
594.92	15.99
595.113	16.02
595.306	16.25
595.499	16.4
595.693	16.53
595.886	16.59
596.079	16.59
596.272	16.43
596.466	16.62
596.659	16.77
596.852	16.82
597.045	16.91
597.238	16.93
597.431	16.84
597.624	16.9
597.818	16.84
598.011	16.95
598.204	17.14
598.397	17.25
598.59	17.42
598.783	17.63
598.976	17.65
599.169	17.71
599.362	17.67
599.555	17.72
599.748	17.45
599.941	17.48
600.134	17.53
600.326	17.38
600.519	17.51
600.712	17.3
600.905	17.35
601.098	17.57
601.291	17.36
601.483	17.55
601.676	17.43
601.869	17.84
602.062	17.92
602.255	17.98
602.447	17.9
602.64	18.03
602.833	17.98
603.025	17.9
603.218	17.84
603.411	17.72
603.603	17.5
603.796	17.68
603.989	17.26
604.181	17.2
604.374	17.31
604.566	17.39
604.759	17.23
604.951	17.4
605.144	17.43
605.336	17.42
605.529	17.69
605.721	17.78
605.914	17.61
606.106	18
606.299	18.14
606.491	17.94
606.683	17.9
606.876	18.04
607.068	17.9
607.26	17.87
607.453	17.81
607.645	17.73
607.837	17.82
608.03	18.2
608.222	17.77
608.414	17.56
608.606	17.62
608.799	17.63
608.991	17.5
609.183	17.58
609.375	17.47
609.567	17.3
609.759	17.39
609.952	17.27
610.144	17.11
610.336	17.4
610.528	17.46
610.72	17.31
610.912	17.2
611.104	17.34
611.296	17.21
611.488	17.49
611.68	17.7
611.872	17.83
612.064	18.03
612.256	17.92
612.448	17.82
612.64	17.77
612.832	17.84
613.023	17.83
613.215	17.7
613.407	17.91
613.599	17.52
613.791	17.52
613.983	17.28
614.174	17.31
614.366	17.49
614.558	17.23
614.75	17.28
614.941	17.17
615.133	17.38
615.325	17.43
615.516	17.42
615.708	17.51
615.9	17.4
616.091	17.2
616.283	16.95
616.475	16.74
616.666	16.94
616.858	17.23
617.049	17.56
617.241	17.53
617.432	17.49
617.624	17.43
617.815	17.53
618.007	17.61
618.198	17.76
618.39	17.88
618.581	18.02
618.773	17.94
618.964	17.46
619.155	17.45
619.347	17.24
619.538	17.11
619.729	16.99
619.921	17.34
620.112	17.6
620.303	17.78
620.494	17.97
620.686	17.84
620.877	17.96
621.068	18.11
621.259	18.06
621.451	18.34
621.642	18.45
621.833	18.41
622.024	18.03
622.215	17.8
622.406	17.61
622.597	17.39
622.788	17.5
622.98	17.44
623.171	17.38
623.362	17.19
623.553	17.05
623.744	16.86
623.935	17.19
624.126	17.51
624.317	17.7
624.508	17.87
624.698	17.98
624.889	17.93
625.08	18.01
625.271	18.2
625.462	18.42
625.653	18.77
625.844	19
626.034	18.74
626.225	18.62
626.416	18.72
626.607	18.44
626.798	18.57
626.988	18.55
627.179	18.62
627.37	18.71
627.56	18.3
627.751	18.05
627.942	17.94
628.132	17.94
628.323	17.68
628.514	17.62
628.704	17.74
628.895	17.52
629.085	17.37
629.276	17.18
629.466	17.18
629.657	17.43
629.847	17.32
630.038	17.36
630.228	17.57
630.419	17.55
630.609	17.42
630.8	17.35
630.99	17.49
631.181	17.63
631.371	17.96
631.561	17.79
631.752	17.85
631.942	17.92
632.132	17.78
632.323	17.62
632.513	17.57
632.703	17.45
632.893	17.52
633.084	17.41
633.274	17.68
633.464	17.33
633.654	17.47
633.844	17.36
634.034	17.16
634.225	17.07
634.415	17.7
634.605	17.86
634.795	17.88
634.985	17.81
635.175	17.7
635.365	17.57
635.555	17.88
635.745	17.65
635.935	18.05
636.125	18.58
636.315	19.08
636.505	18.59
636.695	18.47
636.885	18.47
637.075	18.86
637.265	19.04
637.455	18.78
637.644	18.52
637.834	18.84
638.024	18.57
638.214	18.45
638.404	18.15
638.593	18.16
638.783	18.21
638.973	18.4
639.163	18.11
639.352	17.67
639.542	17.8
639.732	17.95
639.921	17.61
640.111	17.89
640.301	17.9
640.49	17.88
640.68	17.61
640.87	17.78
641.059	17.49
641.249	17.75
641.438	17.93
641.628	18.47
641.817	18.29
642.007	18.76
642.196	18.46
642.386	18.28
642.575	18.34
642.764	18.44
642.954	18.42
643.143	18.41
643.333	18.36
643.522	19.01
643.711	18.9
643.901	19.24
644.09	18.69
644.279	18.95
644.469	19.19
644.658	19.42
644.847	19.65
645.036	19.74
645.226	19.6
645.415	19.35
645.604	18.67
645.793	18.4
645.982	17.78
646.171	17.98
646.361	17.67
646.55	17.59
646.739	17.61
646.928	17.25
647.117	16.86
647.306	17.24
647.495	17.58
647.684	17.64
647.873	17.8
648.062	18.09
648.251	17.92
648.44	17.92
648.629	17.77
648.818	17.46
649.007	17.57
649.196	18
649.384	17.78
649.573	17.55
649.762	17.45
649.951	17.14
650.14	17
650.328	17.07
650.517	17.02
650.706	17.02
650.895	16.93
651.083	17.09
651.272	17.11
651.461	17.01
651.65	17.2
651.838	17.5
652.027	17.77
652.216	18.09
652.404	18.33
652.593	18.63
652.781	18.84
652.97	18.87
653.158	18.52
653.347	18.5
653.535	18.27
653.724	17.91
653.912	17.57
654.101	17.12
654.289	17.18
654.478	16.95
654.666	16.83
654.855	16.82
655.043	17.17
655.231	17.48
655.42	17.31
655.608	17.75
655.796	18.15
655.985	18.57
656.173	19.02
656.361	18.8
656.55	19.15
656.738	18.81
656.926	18.68
657.114	18.43
657.302	18.61
657.491	19.06
657.679	19.15
657.867	19.07
658.055	18.92
658.243	18.39
658.431	18.53
658.619	18.52
658.807	18.76
658.996	18.81
659.184	18.79
659.372	18.63
659.56	18.47
659.748	18.25
659.936	18.25
660.124	18.3
660.311	18.62
660.499	18.32
660.687	18.16
660.875	18.04
661.063	17.94
661.251	18.39
661.439	18.48
661.627	18.29
661.814	18.52
662.002	18.88
662.19	18.67
662.378	18.28
662.565	18.72
662.753	18.68
662.941	18.82
663.129	18.75
663.316	18.37
663.504	18.77
663.692	18.48
663.879	18.96
664.067	18.88
664.254	19.14
664.442	19.46
664.63	19.39
664.817	19.62
665.005	19.25
665.192	19.02
665.38	18.74
665.567	18.46
665.755	18.9
665.942	18.32
666.13	17.47
666.317	17.81
666.504	18.09
666.692	17.41
666.879	17.45
667.067	17.56
667.254	17.98
667.441	17.9
667.629	17.99
667.816	18.1
668.003	18.46
668.19	18.96
668.378	18.34
668.565	18.34
668.752	18.75
668.939	18.55
669.127	18.87
669.314	18.67
669.501	18.84
669.688	18.73
669.875	18.53
670.062	18.15
670.249	17.99
670.436	18.27
670.623	18.06
670.81	18.4
670.997	18.45
671.184	18.01
671.371	17.73
671.558	18.37
671.745	18.2
671.932	18.36
672.119	18.27
672.306	18.5
672.493	18.68
672.68	18.32
672.867	18.31
673.054	18.33
673.24	18.93
673.427	19.53
673.614	18.9
673.801	18.71
673.988	18.6
674.174	18.97
674.361	18.83
674.548	18.85
674.734	19.6
674.921	19.75
675.108	19.94
675.294	19.81
675.481	19.88
675.668	20.32
675.854	20.86
676.041	20.66
676.227	20.47
676.414	20.73
676.601	20.33
676.787	20
676.974	20.18
677.16	20.36
677.347	20.19
677.533	19.9
677.719	19.63
677.906	19.03
678.092	19.16
678.279	18.79
678.465	18.57
678.651	18.91
678.838	18.91
679.024	18.76
679.21	18.72
679.397	18.62
679.583	18.67
679.769	18.68
679.955	18.79
680.142	18.81
680.328	18.93
680.514	18.69
680.7	18.83
680.886	18.9
681.073	18.56
681.259	18.32
681.445	18.77
681.631	18.76
681.817	18.71
682.003	19.05
682.189	19.15
682.375	19.39
682.561	19.37
682.747	19.06
682.933	19.28
683.119	19.03
683.305	19.29
683.491	18.77
683.677	18.7
683.863	18.91
684.049	18.62
684.235	18.44
684.42	18.98
684.606	19.18
684.792	19.01
684.978	18.45
685.164	18.99
685.349	18.37
685.535	18.94
685.721	19.04
685.907	19.14
686.092	19.19
686.278	19.19
686.464	18.57
686.649	18.41
686.835	18.28
687.021	18.83
687.206	18.47
687.392	18.82
687.577	18.58
687.763	18.74
687.948	17.9
688.134	17.8
688.319	17.65
688.505	17.6
688.69	18.32
688.876	18.75
689.061	18.21
689.247	18.9
689.432	18.93
689.618	18.93
689.803	18.99
689.988	19.74
690.174	19.7
690.359	20.49
690.544	20.32
690.73	19.8
690.915	19.76
691.1	20.25
691.285	19.76
691.471	19.61
691.656	19.8
691.841	19.26
692.026	18.8
692.211	19.41
692.396	19.04
692.582	19.55
692.767	19.78
692.952	19.87
693.137	20.03
693.322	20.58
693.507	20.41
693.692	19.83
693.877	19.87
694.062	20.02
694.247	19.77
694.432	19.16
694.617	18.59
694.802	18.47
694.987	17.92
695.172	17.65
695.357	17.15
695.541	17.32
695.726	18.29
695.911	18.84
696.096	18.98
696.281	19.09
696.466	19.23
696.65	19.92
696.835	20.13
697.02	20.13
697.204	19.6
697.389	19.95
697.574	20.27
697.759	20.26
697.943	19.61
698.128	19.83
698.312	19.39
698.497	19.25
698.682	19.14
698.866	19.31
699.051	19.67
699.235	20.27
699.42	20.21
699.604	20.2
699.789	19.86
699.973	20.32
700.158	20.24
700.342	20.51
700.527	20.94
700.711	20.74
700.895	20.35
701.08	20.14
701.264	19.75
701.448	19.29
701.633	18.58
701.817	18.38
702.001	17.78
702.186	17.21
702.37	17.29
702.554	17.47
702.738	18.04
702.923	17.77
703.107	18.16
703.291	18.52
703.475	18.82
703.659	19.57
703.843	19.68
704.027	20.35
704.212	20.92
704.396	20.74
704.58	19.85
704.764	19.35
704.948	19.42
705.132	19.2
705.316	18.78
705.5	18.82
705.684	18.2
705.868	18.22
706.052	17.97
706.235	17.26
706.419	17.78
706.603	18.41
706.787	18.15
706.971	18.58
707.155	18.52
707.339	18.6
707.522	18.17
707.706	18.55
707.89	18.43
708.074	18.86
708.257	19.41
708.441	18.55
708.625	18.34
708.808	18.43
708.992	17.75
709.176	17.46
709.359	17.57
709.543	17.56
709.727	17.37
709.91	17.1
710.094	17.25
710.277	16.86
710.461	17.17
710.644	17.31
710.828	17.22
711.011	17.74
711.195	17.65
711.378	18.06
711.562	18.8
711.745	19.27
711.928	19.67
712.112	19.21
712.295	19.46
712.478	19.9
712.662	20.02
712.845	20.36
713.028	20.1
713.212	20.7
713.395	20.08
713.578	19.17
713.761	18.72
713.945	18.97
714.128	19.31
714.311	19.1
714.494	18.59
714.677	18.9
714.86	18.27
715.043	18.66
715.227	18.04
715.41	18.54
715.593	19.39
715.776	19.24
715.959	18.56
716.142	18.67
716.325	19.01
716.508	18.99
716.691	17.59
716.874	17.54
717.057	18.04
717.239	18.31
717.422	17.84
717.605	17.24
717.788	17.16
717.971	16.84
718.154	16.26
718.337	16.59
718.519	15.73
718.702	16.77
718.885	17.45
719.068	16.59
719.25	16.78
719.433	16.51
719.616	16.66
719.798	16.8
719.981	16.46
720.164	16.89
720.346	16.33
720.529	17.07
720.712	17.12
720.894	17.37
721.077	18.24
721.259	18
721.442	17.86
721.624	16.89
721.807	17.36
721.989	17.91
722.172	16.85
722.354	16.22
722.537	16.35
722.719	16.21
722.901	16.53
723.084	16.48
723.266	16.5
723.448	16.35
723.631	17.57
723.813	17.4
723.995	17.81
724.178	18.91
724.36	20.17
724.542	20.09
724.724	20.05
724.907	18.68
725.089	18.17
725.271	18.06
725.453	19.49
725.635	20.09
725.817	20.14
725.999	20.23
726.181	20.18
726.364	19.99
726.546	20.19
726.728	20.89
726.91	21.44
727.092	20.93
727.274	21.03
727.456	19.76
727.638	19.18
727.819	19.01
728.001	19
728.183	19.67
728.365	18.79
728.547	18.73
728.729	18.18
728.911	18.38
729.093	18.61
729.274	18.93
729.456	19.12
729.638	19.13
729.82	18.41
730.001	19.51
730.183	19.22
730.365	20.12
730.546	19.6
730.728	20.97
730.91	20.83
731.091	21.55
731.273	20.85
731.455	21.55
731.636	21.47
731.818	21.63
731.999	21.65
732.181	21.15
732.362	20.43
732.544	21.01
732.725	19.32
732.907	19.79
733.088	19.79
733.27	20.56
733.451	21.23
733.633	21.33
733.814	21.27
733.995	20.3
734.177	20.59
734.358	20.32
734.539	20.72
734.721	20.67
734.902	20.4
735.083	20.08
735.264	19.67
735.446	18.74
735.627	18.68
735.808	18.51
735.989	18.09
736.17	18.07
736.351	19.4
736.533	19.23
736.714	20.55
736.895	21.09
737.076	20.59
737.257	20.15
737.438	21.1
737.619	20.68
737.8	21.41
737.981	21.46
738.162	21.77
738.343	20.85
738.524	19.83
738.705	18.82
738.886	18.59
739.067	17.74
739.247	18.2
739.428	17.3
739.609	17.41
739.79	17.16
739.971	18.84
740.151	16.76
740.332	18.11
740.513	18.94
740.694	19.41
740.874	19.84
741.055	21.22
741.236	21.27
741.417	21.1
741.597	22.06
741.778	22.16
741.958	21.15
742.139	21.3
742.32	19.64
742.5	19.48
742.681	19.48
742.861	19.47
743.042	19.28
743.222	19.5
743.403	19.35
743.583	18.2
743.764	19.24
743.944	18.04
744.124	18.86
744.305	19.21
744.485	19.15
744.666	19.86
744.846	19.83
745.026	19.04
745.207	17.9
745.387	16.85
745.567	17.92
745.747	16.87
745.928	17.57
746.108	16.89
746.288	16.6
746.468	16.64
746.648	16.35
746.829	15.99
747.009	16.8
747.189	18.72
747.369	20.08
747.549	19.23
747.729	20.67
747.909	21.32
748.089	22.8
748.269	23.76
748.449	24.57
748.629	23.78
748.809	23.68
748.989	24.19
749.169	22.45
749.349	22.92
749.529	24.25
749.709	24.21
749.889	23.15
750.068	22.18
750.248	22.28
750.428	21.27
750.608	20.86
750.788	20.21
750.967	20.54
751.147	21.31
751.327	20.6
751.507	19.14
751.686	18.56
751.866	20.39
752.046	21.21
752.225	20.81
752.405	21.1
752.585	23.25
752.764	22.84
752.944	22.01
753.123	21.67
753.303	21.35
753.482	21.63
753.662	20.95
753.841	18.99
754.021	18.83
754.2	20.06
754.38	20.37
754.559	19.93
754.739	19.66
754.918	17.58
755.097	16.81
755.277	15.53
755.456	14.31
755.635	14.12
755.815	14.76
755.994	13.77
756.173	12.57
756.352	12.78
756.532	11.85
756.711	12.95
756.89	14.56
757.069	15.53
757.248	17.47
757.427	18.49
757.607	20.24
757.786	21.25
757.965	21.76
758.144	22.11
758.323	20.89
758.502	20.47
758.681	20.8
758.86	21.23
759.039	20.6
759.218	21.79
759.397	21.66
759.576	20.48
759.755	20.06
759.934	20.19
760.113	19.54
760.291	19.72
760.47	20.22
760.649	20.12
760.828	19.86
761.007	21.24
761.186	19.61
761.364	21.07
761.543	19.43
761.722	19.39
761.901	20.36
762.079	21.25
762.258	21.35
762.437	20.51
762.615	20.56
762.794	20.59
762.972	19.55
763.151	20.13
763.33	20.11
763.508	20.61
763.687	20.36
763.865	19.65
764.044	19.37
764.222	20.75
764.401	20.7
764.579	20.93
764.758	21.25
764.936	22.26
765.114	22.94
765.293	21.61
765.471	22.88
765.65	23.31
765.828	23.9
766.006	23.84
766.184	21.84
766.363	22.06
766.541	20.42
766.719	19.39
766.898	17.29
767.076	14.79
767.254	14.62
767.432	13.58
767.61	12.31
767.788	12.95
767.967	12.5
768.145	12.86
768.323	12.91
768.501	13.81
768.679	13.86
768.857	16.13
769.035	17.07
769.213	19.08
769.391	19.63
769.569	20.82
769.747	18.92
769.925	18.86
770.103	20.35
770.281	21.22
770.459	21.46
770.636	21.65
770.814	21.18
770.992	22.42
771.17	22.13
771.348	21.05
771.525	20.46
771.703	21.99
771.881	22.64
772.059	21.79
772.236	20.79
772.414	21.63
772.592	24.01
772.769	23.68
772.947	22.78
773.125	22.84
773.302	22.64
773.48	22.41
773.657	21.04
773.835	20.58
774.013	18.48
774.19	18.31
774.368	19.19
774.545	18.24
774.723	17.26
774.9	17.54
775.077	16.87
775.255	18.41
775.432	18.03
775.61	17.01
775.787	17.95
775.964	17.66
776.142	16.48
776.319	15
776.496	14.6
776.674	16.12
776.851	15.62
777.028	13.94
777.205	12.76
777.382	14.84
777.56	16.25
777.737	14.17
777.914	15.58
778.091	15.06
778.268	15.81
778.445	13.02
778.622	11.14
778.8	11.89
778.977	12.51
779.154	12.76
779.331	12.42
779.508	14.37
779.685	16
779.862	17.11
780.038	18.92
780.215	17.73
780.392	17.47
780.569	20.43
780.746	17.36
780.923	18.35
781.1	20.08
781.277	20.18
781.453	16.31
781.63	15.49
781.807	15.25
781.984	14.09
782.16	12.5
782.337	17.07
782.514	14.72
782.691	18.13
782.867	18.68
783.044	18.54
783.221	16.62
783.397	18.23
783.574	17.82
783.75	16.76
783.927	19.55
784.103	20.14
784.28	17.59
784.456	16.44
784.633	15.19
784.809	12.24
784.986	11.28
785.162	11.48
785.339	13.89
785.515	12.24
785.692	12.73
785.868	9.58
786.044	11.25
786.221	11.59
786.397	11.79
786.573	10.68
786.749	10.72
786.926	11.72
787.102	11.23
787.278	10.14
787.454	10.38
787.631	11.88
787.807	11.28
787.983	9.8
788.159	10.92
788.335	12.06
788.511	13.32
788.687	16.03
788.863	12.37
789.039	14.19
789.216	14.44
789.392	16.18
789.568	15.48
789.744	17.85
789.919	21.57
790.095	22
790.271	20.39
790.447	22.86
790.623	22.25
790.799	25.6
790.975	23.85
791.151	21.99
791.327	22.81
791.502	21.49
791.678	20.92
791.854	17.95
792.03	18.87
792.205	20.94
792.381	17.78
792.557	15.54
792.733	16.65
792.908	15.63
793.084	17.37
793.259	17.96
793.435	18.5
793.611	20.35
793.786	20.42
793.962	16.11
794.137	14.28
794.313	13.16
794.488	14.66
794.664	12.1
794.839	14.87
795.015	14.41
795.19	10.13
795.366	12.92
795.541	10
795.716	12.29
795.892	14.27
796.067	12.98
796.242	13.01
796.418	11.26
796.593	11.36
796.768	11.55
796.944	9.52
797.119	13.45
797.294	10.38
797.469	12.58
797.644	8.4
797.82	6.79
797.995	8.01
798.17	11.87
798.345	15.06
798.52	13.15
798.695	11.75
798.87	11
799.045	8.58
799.22	10.41
799.395	6.36
799.57	6.47
799.745	7.23
799.92	9.7
800.095	5.43
800.27	3.75
800.445	6.31
800.62	7.45
800.795	10.63
800.97	7.28
801.145	4.37
801.319	9.55
801.494	10.13
801.669	14.82
801.844	12.16
802.018	11.28
802.193	9.34
802.368	7.41
802.543	6.9
802.717	8.14
802.892	10.7
803.067	10.31
803.241	6.74
803.416	7.82
803.59	4.17
803.765	2.91
803.94	4.65
804.114	6.69
804.289	6.81
804.463	1.51
804.638	-0.3
804.812	1.52
804.986	5.53
805.161	8.91
805.335	9.77
805.51	9.7
805.684	11.65
805.858	12.4
806.033	11.89
806.207	14.51
806.381	17.83
806.556	18.29
806.73	19.61
806.904	18.83
807.078	16.72
807.253	20.5
807.427	19.53
807.601	23.08
807.775	22.92
807.949	21.38
808.123	18.44
808.298	19.75
808.472	20.25
808.646	16.97
808.82	13.88
808.994	15.92
809.168	12.71
809.342	14.8
809.516	11.06
809.69	8.48
809.864	14.02
810.038	15.51
810.212	14.38
810.385	15.51
810.559	18.54
810.733	19.56
810.907	17.24
811.081	12.38
811.255	12.55
811.428	15.57
811.602	15.48
811.776	13.3
811.95	10.81
812.123	10.27
812.297	9.62
812.471	8.68
812.644	6.65
812.818	9.11
812.992	8.67
813.165	7.16
813.339	4.48
813.512	3.16
813.686	0.45
813.86	2.54
814.033	1.73
814.207	0.47
814.38	-0.01
814.554	2.27
814.727	0.81
814.9	3.64
815.074	2.51
815.247	3.29
815.421	1.32
815.594	2.24
815.767	6.42
815.941	10.52
816.114	8.58
816.287	10.24
816.46	11.07
816.634	10.79
816.807	12.94
816.98	13.16
817.153	11.54
817.327	15.57
817.5	16.49
817.673	10.63
817.846	8.28
818.019	12.93
818.192	13.91
818.365	12.29
818.538	14.62
818.711	15.66
818.884	15.89
819.057	16.85
819.23	16.32
819.403	16.68
819.576	17.53
819.749	16.28
819.922	9.59
820.095	9.96
820.268	10.61
820.441	12.17
820.614	11.56
820.786	13.85
820.959	14.55
821.132	16.82
821.305	16.53
821.477	17.94
821.65	18.97
821.823	21.2
821.996	21.79
822.168	22.65
822.341	21.7
822.514	21.95
822.686	21.68
822.859	21.79
823.031	21.47
823.204	21.97
823.376	22.31
823.549	23.15
823.722	23.09
823.894	23.21
824.067	22.25
824.239	22.56
824.411	23.31
824.584	22.63
824.756	22.17
824.929	21.98
825.101	22.05
825.273	21.29
825.446	19.84
825.618	19.42
825.79	17.58
825.963	18.72
826.135	18.72
826.307	18.89
826.479	20.77
826.652	21.7
826.824	22.41
826.996	20.62
827.168	21.07
827.34	22.45
827.512	24.08
827.684	24.59
827.856	24.56
828.029	24.3
828.201	23.42
828.373	23.21
828.545	21.86
828.717	21.56
828.889	24.35
829.061	24.16
829.232	23.2
829.404	23.41
829.576	23.79
829.748	23.83
829.92	24.77
830.092	22.52
830.264	22.11
830.436	24.47
830.607	23.28
830.779	23.65
830.951	23.33
831.123	23.19
831.294	20.75
831.466	19.95
831.638	19.54
831.809	19.05
831.981	24.61
832.153	22.52
832.324	17.3
832.496	17.69
832.667	13.02
832.839	13.33
833.011	14.09
833.182	12.02
833.354	13.88
833.525	16.67
833.697	15.26
833.868	11.74
834.039	11.67
834.211	13.75
834.382	13.54
834.554	13.96
834.725	15
834.896	13.3
835.068	14.68
835.239	11.02
835.41	9.15
835.581	12.76
835.753	14.42
835.924	14.5
836.095	14.97
836.266	16.75
836.438	18.47
836.609	19.22
836.78	17.71
836.951	15.61
837.122	21.18
837.293	20.89
837.464	16.57
837.635	14.93
837.806	15.12
837.977	15.56
838.148	11.69
838.319	10.49
838.49	9.29
838.661	12.56
838.832	14.37
839.003	14.69
839.174	14.9
839.345	14.25
839.516	16.97
839.687	15.73
839.857	16.49
840.028	14.25
840.199	14.26
840.37	17.9
840.54	22
840.711	21.2
840.882	19.1
841.053	17.23
841.223	20.3
841.394	16.81
841.564	21.5
841.735	25.85
841.906	34.33
842.076	36.68
842.247	30.16
842.417	22.07
842.588	21.71
842.758	23.95
842.929	30.58
843.099	29.23
843.27	29.16
843.44	27.3
843.611	15.25
843.781	5.94
843.951	4.22
844.122	10.5
844.292	21.97
844.462	19.91
844.633	13.34
844.803	8.69
844.973	9.48
845.144	7.36
845.314	8.42
845.484	5.13
845.654	5.1
845.824	-2.24
845.995	-15.57
846.165	-23.81
846.335	-25.71
846.505	-15.21
846.675	-13.47
846.845	-14.71
847.015	-5.7
847.185	-4.4
847.355	13.45
847.525	5.74
847.695	11.44
847.865	16.42
848.035	23.98
848.205	25.64
848.375	11.01
848.545	-3.87
848.715	-1.34
848.884	-12.8
849.054	-17.68
849.224	-26
849.394	-19.56
849.564	-4.1
849.733	-17.46
849.903	-29.56
850.073	-25.91
850.243	-16.97
850.412	1.88
850.582	-13.07
850.752	1.54
850.921	10.94
851.091	5.61
851.26	5.13
851.43	-6.51
851.599	-11.16
851.769	-37.34
851.939	-27.89
852.108	-26.61
852.278	-48.42
852.447	-37.58
852.616	-39.5
852.786	-52.2
852.955	-58.32
853.125	-48.76
853.294	-28.09
853.463	-27.02
853.633	-20.12
853.802	-28.18
853.971	-15.17
854.141	3.48
854.31	13.16
854.479	18.05
854.648	22.44
854.818	31.78
854.987	36.09
855.156	19.77
855.325	34.25
855.494	46.05
855.663	45.13
855.832	44.43
856.001	21.41
856.171	11.04
856.34	-0.94
856.509	-13.28
856.678	-13.35
856.847	-8.33
857.016	1.65
857.185	1.83
857.353	-6.02
857.522	-4.04
857.691	-4.21
857.86	1.82
858.029	-6.34
858.198	-6.35
858.367	-0.76
858.535	20.3
858.704	20.14
858.873	19.57
859.042	29.31
859.21	28.71
859.379	15.3
859.548	-2.13
859.717	-8.31
859.885	16.42
860.054	25.1
860.222	14.42
860.391	-5.82
860.56	-8.71
860.728	-7.96
860.897	-13.43
861.065	-12.65
861.234	-2.26
861.402	4.88
861.571	14
861.739	6.57
861.908	1.31
862.076	11.18
862.244	21.41
862.413	23.56
862.581	13.37
862.749	3.64
862.918	3.6
863.086	7.68
863.254	6.15
863.423	9.51
863.591	4.1
863.759	6.96
863.927	-0.09
864.096	-11.96
864.264	-26.73
864.432	-21.11
864.6	-14.79
864.768	-18.82
864.936	-25.95
865.104	-16.89
865.272	-22.53
865.44	-14.13
865.608	2.69
865.776	19.3
865.944	34.1
866.112	59.52
866.28	60.62
866.448	48.94
866.616	57.03
866.784	60.18
866.952	64.84
867.12	61.49
867.288	53.49
867.455	23.12
867.623	14.52
867.791	9.26
867.959	-23.95
868.127	-43.33
868.294	-31.07
868.462	-35.57
868.63	-26.89
868.797	-29.28
868.965	-28.76
869.133	-47.28
869.3	-12.51
869.468	-1.51
869.636	-6.57
869.803	-5.88
869.971	7.87
870.138	1.74
870.306	16.05
870.473	10.53
870.641	12.58
870.808	4.06
870.975	23.94
871.143	-1.16
871.31	-11.32
871.478	-2.72
871.645	15.64
871.812	33.09
871.98	26.86
872.147	27.73
872.314	36.49
872.482	33.21
872.649	36.41
872.816	34.8
872.983	40.92
873.15	39.98
873.318	39.6
873.485	48.45
873.652	36.63
873.819	40.41
873.986	34.14
874.153	12.96
874.32	3.24
874.487	-3.58
874.654	14.32
874.821	16.1
874.988	20.48
875.155	20.05
875.322	6.54
875.489	12.05
875.656	20.89
875.823	21.67
875.99	45.13
876.157	53.55
876.324	44.26
876.49	24.97
876.657	19.59
876.824	3.24
876.991	-6.85
877.157	-12.92
877.324	-8.45
877.491	-40.64
877.658	-56.08
877.824	-94.28
877.991	-109.18
878.157	-74.8
878.324	-55.96
878.491	-65.37
878.657	-42.11
878.824	-47.06
878.99	-58.72
879.157	-91.13
879.323	-46.24
879.49	-42.41
879.656	-8.68
879.823	12.45
879.989	7.28
880.156	-2.96
880.322	-2.04
880.488	-17.4
880.655	-4.74
880.821	-1.09
880.987	-0.89
881.154	19.25
881.32	37.36
881.486	29.93
881.652	26.25
881.819	25.42
881.985	27.3
882.151	26.62
882.317	30.22
882.483	30.9
882.649	30.59
882.816	33.73
882.982	29.85
883.148	23.55
883.314	21.75
883.48	19.81
883.646	17.24
883.812	17.69
883.978	16.33
884.144	17.13
884.31	15.08
884.476	14.14
884.642	15.66
884.807	13.91
884.973	13.02
885.139	14.02
885.305	13.5
885.471	15.2
885.637	15.17
885.802	14.89
885.968	11.1
886.134	10.15
886.3	8.19
886.465	6.97
886.631	5.44
886.797	4.15
886.962	4.81
887.128	3.09
887.293	4.75
887.459	-2.68
887.625	0.96
887.79	8.55
887.956	8.85
888.121	12.99
888.287	3.07
888.452	5.18
888.618	11.86
888.783	10.54
