Data from 2938118_Reflection_2.txt Node
Date: Sat Jul 11 18:01:06 EDT 2015
User: robert
Spectrometer: USB4E03001
Autoset integration time: false
Trigger mode: 4
Integration Time (sec): 1.000000E-1
Scans to average: 10
Electric dark correction enabled: true
Nonlinearity correction enabled: false
Boxcar width: 5
Stray light correction enabled: false
XAxis mode: Wavelengths
Stop averaging: false
Number of Pixels in Spectrum: 3648
>>>>>Begin Spectral Data<<<<<
177.566	475.93
177.785	-322.91
178.005	-166.69
178.225	-54.67
178.445	-38.98
178.665	8.8
178.885	168.77
179.105	116.95
179.324	118.8
179.544	113.92
179.764	121.65
179.984	178.44
180.204	260.81
180.423	248.8
180.643	678.75
180.863	-878.72
181.083	282.54
181.302	208.22
181.522	203.69
181.742	232.39
181.961	252.64
182.181	261.04
182.401	337.67
182.621	1491.81
182.84	980.75
183.06	392.7
183.279	246.32
183.499	211.27
183.719	157.09
183.938	154.93
184.158	173.55
184.377	139.68
184.597	135.79
184.816	115.6
185.036	101.76
185.256	116.99
185.475	101.65
185.695	98.21
185.914	124.16
186.134	126.97
186.353	129.35
186.572	106.37
186.792	118.4
187.011	148.04
187.231	173.71
187.45	126.15
187.67	113.95
187.889	137.98
188.108	172.99
188.328	169.35
188.547	185.4
188.766	151.07
188.986	174.87
189.205	191.75
189.424	163.09
189.644	202.06
189.863	288.32
190.082	1225.2
190.302	315.55
190.521	341.27
190.74	324.67
190.959	-1691.86
191.178	-1101.52
191.398	908.06
191.617	330.8
191.836	380.28
192.055	465.38
192.274	391.99
192.494	286.43
192.713	1267.14
192.932	827.48
193.151	-8238.14
193.37	-1663.68
193.589	-458.5
193.808	-2047.3
194.027	-1457.41
194.246	744.98
194.465	13345.76
194.685	1701.16
194.904	-3311.47
195.123	612.52
195.342	-499.13
195.561	433.68
195.78	200.23
195.999	144.94
196.218	345.3
196.436	265.87
196.655	253.55
196.874	162.52
197.093	135.5
197.312	103.49
197.531	126.66
197.75	128.2
197.969	112.65
198.188	118.55
198.407	121.56
198.625	128.01
198.844	130.86
199.063	105.72
199.282	150.14
199.501	145.59
199.719	275.16
199.938	245.11
200.157	542.03
200.376	-5235.29
200.594	539.23
200.813	333.43
201.032	208.95
201.251	186.1
201.469	248.93
201.688	172.89
201.907	211.56
202.125	207.52
202.344	288.97
202.563	275.84
202.781	312.5
203	268.16
203.218	211.6
203.437	251.31
203.656	277.32
203.874	209.79
204.093	175.82
204.311	129.38
204.53	119.49
204.748	101.25
204.967	90.65
205.185	81.05
205.404	79.87
205.622	92.85
205.841	108.3
206.059	144.94
206.278	136.67
206.496	167.04
206.715	239.31
206.933	291.57
207.151	454.37
207.37	642.82
207.588	902.83
207.806	496.98
208.025	829.77
208.243	623.9
208.461	486.62
208.68	-298.22
208.898	570.22
209.116	246.4
209.335	251.75
209.553	442.89
209.771	308.65
209.989	1048.77
210.208	-2304.59
210.426	-1048.82
210.644	-1218.76
210.862	285.28
211.081	283.27
211.299	298.79
211.517	559.5
211.735	607.86
211.953	258.79
212.171	259.79
212.39	220.06
212.608	186.27
212.826	165.78
213.044	169.36
213.262	185.27
213.48	153.16
213.698	156.05
213.916	137.09
214.134	108.31
214.352	110.04
214.57	108.05
214.788	112.11
215.006	116.58
215.224	114.78
215.442	103.03
215.66	129.78
215.878	141.75
216.096	188.13
216.314	175.97
216.532	206.65
216.75	204.49
216.968	233.84
217.185	203.06
217.403	226.98
217.621	305.31
217.839	318.6
218.057	177.02
218.275	181.29
218.492	192.22
218.71	174.29
218.928	167.86
219.146	177.43
219.363	155.74
219.581	258.83
219.799	-194.83
220.017	-3775.26
220.234	-193.14
220.452	-81.18
220.67	-283.06
220.887	487.07
221.105	712.32
221.323	346.15
221.54	203.87
221.758	178.4
221.976	160.66
222.193	132.29
222.411	107.33
222.629	81.56
222.846	94.74
223.064	90.23
223.281	80.27
223.499	76.3
223.716	69.24
223.934	66.67
224.151	63.33
224.369	63.37
224.586	56.61
224.804	54.72
225.021	59.5
225.239	48.51
225.456	48.35
225.674	45.91
225.891	44.23
226.108	40.58
226.326	33.83
226.543	32.6
226.76	32.24
226.978	43.46
227.195	39.61
227.413	38.04
227.63	45.67
227.847	51.81
228.064	51.1
228.282	49.22
228.499	51.86
228.716	51.13
228.934	53.23
229.151	49.21
229.368	44.59
229.585	43.37
229.802	44.7
230.02	42.31
230.237	42.36
230.454	40.21
230.671	40.27
230.888	42.73
231.105	42.95
231.323	43.04
231.54	44.1
231.757	48.54
231.974	51.02
232.191	52.13
232.408	50.7
232.625	47.99
232.842	53.01
233.059	48.71
233.276	36.45
233.493	34.38
233.71	29.15
233.927	25.27
234.144	23.73
234.361	29.53
234.578	26.53
234.795	24.83
235.012	25.83
235.229	15.97
235.446	19.11
235.663	23.3
235.879	25.41
236.096	23.35
236.313	29.84
236.53	35.3
236.747	36.19
236.964	35.48
237.181	34.05
237.397	25.36
237.614	35.51
237.831	31.92
238.048	36.8
238.264	30.44
238.481	35.29
238.698	30.77
238.915	26.67
239.131	24.74
239.348	26.1
239.565	27.83
239.781	34.16
239.998	33.29
240.215	39.24
240.431	39.26
240.648	37.69
240.865	35.28
241.081	35.24
241.298	36.67
241.514	33.1
241.731	32.64
241.947	31.69
242.164	28.64
242.38	27.1
242.597	23.02
242.814	21.9
243.03	23.31
243.246	23.59
243.463	25.2
243.679	25.58
243.896	25.79
244.112	24.19
244.329	24.91
244.545	27.14
244.762	27.24
244.978	28.98
245.194	30.05
245.411	29.65
245.627	27.87
245.843	24.79
246.06	23.15
246.276	21.7
246.492	21.68
246.709	19.48
246.925	18.85
247.141	18.37
247.357	16.9
247.574	16.21
247.79	17.38
248.006	17.95
248.222	18.26
248.439	16.67
248.655	16.98
248.871	16.3
249.087	16.82
249.303	15.49
249.519	15.6
249.736	17.52
249.952	16.78
250.168	14.37
250.384	14.72
250.6	13.45
250.816	14.65
251.032	16.08
251.248	18.49
251.464	21.18
251.68	21.47
251.896	21.64
252.112	21.01
252.328	20.97
252.544	21.26
252.76	21.61
252.976	21.68
253.192	21.75
253.408	20.89
253.624	22.8
253.84	21.71
254.056	22.58
254.272	24.1
254.487	24.17
254.703	24.53
254.919	22.98
255.135	21.25
255.351	22.69
255.567	24.75
255.782	28.41
255.998	27.4
256.214	28.19
256.43	28.61
256.646	27.58
256.861	28.12
257.077	27.46
257.293	29.26
257.508	26.56
257.724	25.78
257.94	23.31
258.155	20.57
258.371	20.8
258.587	17.88
258.802	16.37
259.018	15.36
259.234	15.58
259.449	15.58
259.665	14.34
259.88	14.9
260.096	14.41
260.312	14.32
260.527	14.19
260.743	13.22
260.958	13.54
261.174	13.94
261.389	14.76
261.605	15.09
261.82	15.43
262.036	15.87
262.251	15.1
262.466	15.44
262.682	16.27
262.897	15.51
263.113	15.28
263.328	16.28
263.543	17.47
263.759	16.85
263.974	16.64
264.189	15.9
264.405	16.72
264.62	17.71
264.835	17.35
265.051	18.89
265.266	21.92
265.481	21.81
265.696	22.42
265.912	23.4
266.127	21.24
266.342	20.31
266.557	20.14
266.773	20.07
266.988	19.72
267.203	18.95
267.418	18.47
267.633	17.87
267.848	17.76
268.064	17.16
268.279	16.35
268.494	17.89
268.709	17.15
268.924	16.63
269.139	15.7
269.354	17.94
269.569	18.98
269.784	18.35
269.999	17.63
270.214	16.38
270.429	16.51
270.644	15.96
270.859	16.64
271.074	14.78
271.289	14.78
271.504	15.03
271.719	13.32
271.934	12.58
272.149	11.94
272.363	11.89
272.578	12.44
272.793	11.88
273.008	11.85
273.223	9.96
273.438	11.1
273.653	12.41
273.867	12.4
274.082	13.18
274.297	14.25
274.512	15.77
274.726	15.18
274.941	15.55
275.156	17.16
275.371	16.7
275.585	18.23
275.8	18.82
276.015	18.73
276.229	18.35
276.444	17.32
276.659	17.48
276.873	16.82
277.088	19.06
277.302	20.17
277.517	19.44
277.732	19.99
277.946	20.32
278.161	22.83
278.375	22.37
278.59	25.4
278.804	25.75
279.019	25.93
279.233	26.15
279.448	24.44
279.662	23.57
279.877	22.58
280.091	20.47
280.306	19.7
280.52	17.12
280.735	15.18
280.949	13.29
281.163	12.78
281.378	12.68
281.592	12.34
281.806	13.02
282.021	13.96
282.235	14.93
282.449	14.94
282.664	15.75
282.878	17.13
283.092	19.15
283.307	19.84
283.521	19.93
283.735	19.09
283.949	18.46
284.164	17.61
284.378	16.4
284.592	15.93
284.806	17.28
285.02	15.99
285.234	15.06
285.449	13.04
285.663	12.12
285.877	12.32
286.091	13.16
286.305	13.56
286.519	13.4
286.733	13.9
286.947	13.86
287.161	13.79
287.375	14.06
287.589	13.99
287.803	16.23
288.017	17.32
288.231	17.9
288.445	15.82
288.659	16.3
288.873	17.36
289.087	16.18
289.301	15.43
289.515	16.1
289.729	17.08
289.943	18.47
290.157	18.49
290.371	18.31
290.584	17.62
290.798	18.97
291.012	18.95
291.226	18.02
291.44	18.09
291.654	18.01
291.867	17.23
292.081	16.48
292.295	16.32
292.509	15.74
292.722	14.45
292.936	15.98
293.15	17.41
293.364	17.76
293.577	17.71
293.791	19
294.005	19.56
294.218	19.59
294.432	19.88
294.645	19.54
294.859	19.74
295.073	19.68
295.286	18.79
295.5	17.8
295.713	17.34
295.927	17
296.14	16.07
296.354	17.06
296.568	16.46
296.781	17.7
296.994	16.47
297.208	16.34
297.421	16.56
297.635	16.64
297.848	16.93
298.062	17.53
298.275	17.86
298.489	18.25
298.702	18.02
298.915	18.55
299.129	17.94
299.342	19.14
299.555	19.96
299.769	21.71
299.982	21.94
300.195	22.28
300.409	21.84
300.622	23.11
300.835	22.73
301.048	22.87
301.262	23.91
301.475	23.77
301.688	24.25
301.901	24.07
302.115	24.07
302.328	24.02
302.541	24.77
302.754	24.17
302.967	25.52
303.18	26.04
303.393	25.83
303.607	26.81
303.82	26.09
304.033	25.34
304.246	26.23
304.459	25.72
304.672	24.59
304.885	24.52
305.098	25.43
305.311	22.22
305.524	21.94
305.737	20.93
305.95	20.96
306.163	19.77
306.376	19.66
306.589	16.62
306.802	16.23
307.015	17.63
307.228	16.42
307.44	15.58
307.653	16.5
307.866	18.41
308.079	17.92
308.292	14.99
308.505	15.58
308.718	15.76
308.93	16.64
309.143	16.3
309.356	15.82
309.569	13.77
309.781	14.49
309.994	14.54
310.207	13.76
310.42	14.5
310.632	14.99
310.845	14.42
311.058	13.68
311.27	12.79
311.483	12.34
311.696	11.63
311.908	14.12
312.121	14.28
312.333	14.93
312.546	14.46
312.759	15.14
312.971	15.34
313.184	17.52
313.396	17.97
313.609	18.86
313.821	19.85
314.034	20.98
314.246	20.75
314.459	20.52
314.671	19.93
314.884	20.28
315.096	20.07
315.309	19.58
315.521	18.29
315.733	19
315.946	19.7
316.158	18.42
316.371	17.47
316.583	17.39
316.795	17.25
317.008	17.92
317.22	18.81
317.432	18.85
317.644	21.12
317.857	22.49
318.069	21.97
318.281	21.44
318.494	22.76
318.706	24.44
318.918	24.76
319.13	24.38
319.342	23.68
319.555	22.12
319.767	22.05
319.979	19.77
320.191	18.86
320.403	19.5
320.615	18.42
320.827	18.76
321.039	17.97
321.252	17.38
321.464	17.13
321.676	17.76
321.888	19.09
322.1	19.62
322.312	19.7
322.524	20.43
322.736	19.57
322.948	20.57
323.16	19.69
323.372	20.37
323.584	19.67
323.796	20.98
324.007	19.64
324.219	19.54
324.431	19.54
324.643	20.68
324.855	19.61
325.067	19.68
325.279	20.06
325.491	19.54
325.702	20.15
325.914	20.52
326.126	19.84
326.338	19.98
326.55	19.74
326.761	19.69
326.973	18.89
327.185	18.95
327.396	19.64
327.608	19.29
327.82	21.35
328.032	20.28
328.243	19.76
328.455	20.13
328.666	20.18
328.878	19.21
329.09	17.93
329.301	18.63
329.513	19.71
329.725	19.41
329.936	20.61
330.148	21.4
330.359	20.41
330.571	22.1
330.782	22.28
330.994	23.23
331.205	24.93
331.417	26.9
331.628	26.41
331.84	26.23
332.051	25.69
332.262	26.42
332.474	25.04
332.685	25.7
332.897	25.49
333.108	24.79
333.319	26
333.531	25.15
333.742	24.68
333.953	24.55
334.165	25.18
334.376	25.94
334.587	24.72
334.799	23.8
335.01	23.85
335.221	22.88
335.432	22.18
335.644	20.66
335.855	20.45
336.066	20.49
336.277	20.86
336.488	18.8
336.7	18.93
336.911	20.23
337.122	21.29
337.333	21.85
337.544	23.21
337.755	23.8
337.966	23.95
338.177	23.98
338.388	22.97
338.599	23.87
338.811	24.49
339.022	24.93
339.233	23.97
339.444	24.57
339.655	23.59
339.866	22.42
340.076	23.03
340.287	22.84
340.498	22.69
340.709	23.42
340.92	22.21
341.131	22.19
341.342	22.37
341.553	23.28
341.764	22
341.975	22.83
342.185	23.28
342.396	22.85
342.607	23.47
342.818	23.18
343.029	22.08
343.239	22.62
343.45	22.83
343.661	22.38
343.872	20.81
344.082	22.49
344.293	22.38
344.504	22.45
344.714	22.5
344.925	22.36
345.136	22.07
345.346	23.54
345.557	23.6
345.768	23.84
345.978	23.8
346.189	24.89
346.399	22.97
346.61	23.29
346.821	22.49
347.031	22.39
347.242	23.22
347.452	23.88
347.663	23.36
347.873	23.07
348.084	23.54
348.294	23.47
348.504	22.24
348.715	24.25
348.925	24.79
349.136	25.19
349.346	24.49
349.557	22.35
349.767	23.6
349.977	22.91
350.188	22.1
350.398	21.68
350.608	20.79
350.819	21.63
351.029	19.32
351.239	20.08
351.449	19.97
351.66	20.41
351.87	20.8
352.08	20.43
352.29	20.54
352.501	22.15
352.711	22.97
352.921	22.65
353.131	22.09
353.341	22.47
353.552	21.17
353.762	20.32
353.972	21.88
354.182	21.78
354.392	21.03
354.602	20.49
354.812	19.58
355.022	17.35
355.232	18.16
355.442	18.2
355.652	18.71
355.862	17.77
356.072	17.97
356.282	15.71
356.492	15.45
356.702	15.53
356.912	15.89
357.122	16.24
357.332	17.83
357.542	17.33
357.752	16.86
357.962	16.52
358.171	16.46
358.381	17.74
358.591	18.61
358.801	19.38
359.011	20.09
359.221	20.82
359.43	20.07
359.64	19.51
359.85	18.78
360.06	18.6
360.269	18.33
360.479	18.36
360.689	17.36
360.899	17.52
361.108	17.31
361.318	17.08
361.528	16.75
361.737	16.88
361.947	16.6
362.156	17.47
362.366	17.92
362.576	18.32
362.785	18.4
362.995	18.49
363.204	18.5
363.414	18.78
363.623	18.55
363.833	18.77
364.042	18.73
364.252	19.88
364.461	19.06
364.671	19.32
364.88	19.32
365.09	19.08
365.299	20.63
365.509	20.65
365.718	20.36
365.927	19.84
366.137	19.7
366.346	19.47
366.555	18.19
366.765	18.97
366.974	18.14
367.183	18.27
367.393	18.98
367.602	18.13
367.811	17.64
368.021	18.12
368.23	17.65
368.439	17.33
368.648	18.11
368.857	19.1
369.067	18.55
369.276	18.35
369.485	17.11
369.694	16.66
369.903	15.42
370.112	15.74
370.321	15.54
370.531	16.53
370.74	16.53
370.949	16.32
371.158	15.58
371.367	15.45
371.576	16.15
371.785	16.91
371.994	16.5
372.203	17.09
372.412	16.86
372.621	16.46
372.83	16.38
373.039	16.28
373.248	15.42
373.457	16.13
373.666	16.72
373.874	16.63
374.083	16.28
374.292	16.73
374.501	16.12
374.71	16.49
374.919	16.07
375.128	15.5
375.336	15.47
375.545	16.41
375.754	16.1
375.963	15.58
376.171	15.35
376.38	15.09
376.589	14.92
376.798	15.24
377.006	14.19
377.215	14.88
377.424	14.8
377.632	14.76
377.841	14.15
378.05	13.74
378.258	13.43
378.467	13.3
378.675	13.23
378.884	13.04
379.093	12.83
379.301	13.66
379.51	13.69
379.718	13.63
379.927	13.32
380.135	13.25
380.344	13.01
380.552	12.96
380.761	12.89
380.969	13.07
381.177	13.05
381.386	12.76
381.594	11.6
381.803	11.5
382.011	11.86
382.219	12.19
382.428	13.23
382.636	13.74
382.845	13.9
383.053	13.66
383.261	13.47
383.469	13.33
383.678	13.35
383.886	13.68
384.094	13.49
384.302	13.36
384.511	13.22
384.719	12.28
384.927	11.53
385.135	11.57
385.343	11.32
385.552	11.65
385.76	11.67
385.968	12.26
386.176	12.75
386.384	12.13
386.592	11.97
386.8	12.09
387.008	11.98
387.216	12.22
387.424	11.84
387.633	12.11
387.841	11.99
388.049	11.85
388.257	11.45
388.465	11.14
388.672	11.53
388.88	12.15
389.088	11.51
389.296	11.31
389.504	11.19
389.712	11.31
389.92	11.13
390.128	11.01
390.336	11.3
390.544	11.01
390.751	10.87
390.959	10.43
391.167	9.66
391.375	9.95
391.583	10.33
391.79	10.1
391.998	10.25
392.206	10.46
392.414	10.31
392.621	9.93
392.829	10.09
393.037	10.07
393.244	10.38
393.452	10.12
393.66	10.31
393.867	9.63
394.075	9.59
394.283	9.41
394.49	9.24
394.698	9.3
394.905	9.28
395.113	9.34
395.32	9.61
395.528	9.78
395.735	9.98
395.943	9.86
396.15	10.01
396.358	10.36
396.565	10.35
396.773	10.66
396.98	10.6
397.188	10.55
397.395	10.43
397.602	9.98
397.81	9.52
398.017	9.6
398.225	9.14
398.432	9.64
398.639	9.46
398.847	9.67
399.054	9.05
399.261	9.04
399.468	8.94
399.676	8.97
399.883	8.97
400.09	8.95
400.297	8.97
400.505	9.09
400.712	8.68
400.919	8.63
401.126	8.63
401.333	8.99
401.54	8.99
401.748	9.05
401.955	8.58
402.162	8.69
402.369	8.61
402.576	8.4
402.783	8.2
402.99	8.43
403.197	8.54
403.404	8.15
403.611	7.88
403.818	7.92
404.025	7.98
404.232	8.25
404.439	8.5
404.646	8.7
404.853	8.53
405.06	8.82
405.267	8.5
405.474	8.35
405.681	8.42
405.887	8.6
406.094	8.62
406.301	8.74
406.508	8.58
406.715	8.34
406.922	8.59
407.128	8.87
407.335	8.79
407.542	8.97
407.749	9.07
407.955	9.28
408.162	9.34
408.369	8.98
408.575	8.8
408.782	8.76
408.989	8.58
409.195	8.18
409.402	8.1
409.609	8.08
409.815	7.88
410.022	7.84
410.228	8.06
410.435	7.8
410.642	7.9
410.848	8.29
411.055	8.62
411.261	8.8
411.468	8.76
411.674	8.75
411.881	8.44
412.087	8.45
412.294	8.31
412.5	8.1
412.706	8.36
412.913	8.29
413.119	7.85
413.326	7.64
413.532	7.48
413.738	7.77
413.945	7.81
414.151	8.09
414.357	8.32
414.564	8.42
414.77	8.22
414.976	8.26
415.182	8.29
415.389	8.46
415.595	8.56
415.801	8.69
416.007	8.47
416.214	8.5
416.42	8.33
416.626	8.11
416.832	8.27
417.038	8.32
417.244	8.23
417.45	8.24
417.657	7.96
417.863	7.87
418.069	7.92
418.275	7.85
418.481	7.59
418.687	7.58
418.893	7.48
419.099	7.18
419.305	7.03
419.511	6.9
419.717	6.82
419.923	7.04
420.129	6.96
420.335	6.89
420.541	7.01
420.746	7.17
420.952	7.36
421.158	7.5
421.364	7.56
421.57	7.72
421.776	7.73
421.982	7.84
422.187	7.74
422.393	7.76
422.599	7.7
422.805	7.48
423.01	7.49
423.216	7.32
423.422	7.3
423.628	7.36
423.833	7.25
424.039	7.22
424.245	7.26
424.45	7.36
424.656	7.37
424.862	7.4
425.067	7.48
425.273	7.48
425.478	7.45
425.684	7.5
425.889	7.49
426.095	7.49
426.301	7.58
426.506	7.46
426.712	7.37
426.917	7.51
427.123	7.35
427.328	7.38
427.533	7.39
427.739	7.65
427.944	7.65
428.15	7.89
428.355	7.83
428.561	7.81
428.766	7.84
428.971	7.93
429.177	7.89
429.382	7.71
429.587	7.8
429.793	7.75
429.998	7.74
430.203	7.58
430.408	7.16
430.614	7.47
430.819	7.62
431.024	7.62
431.229	7.4
431.434	7.27
431.64	7.45
431.845	7.34
432.05	7.33
432.255	7.17
432.46	7.29
432.665	7.32
432.87	7.17
433.076	7.05
433.281	7.02
433.486	7.13
433.691	7.22
433.896	7.34
434.101	7.43
434.306	7.41
434.511	7.51
434.716	7.42
434.921	7.56
435.126	7.57
435.331	7.73
435.535	7.7
435.74	7.64
435.945	7.53
436.15	7.63
436.355	7.66
436.56	7.75
436.765	7.67
436.97	7.81
437.174	7.71
437.379	7.82
437.584	7.65
437.789	7.76
437.993	7.93
438.198	8.14
438.403	7.94
438.608	7.83
438.812	7.44
439.017	7.41
439.222	7.18
439.426	7.14
439.631	6.96
439.836	6.75
440.04	6.78
440.245	6.8
440.45	6.5
440.654	6.61
440.859	6.55
441.063	6.7
441.268	6.8
441.472	6.76
441.677	6.93
441.881	6.95
442.086	7.06
442.29	7.01
442.495	6.76
442.699	6.89
442.904	6.85
443.108	6.87
443.312	6.94
443.517	6.84
443.721	7.04
443.925	6.89
444.13	7.03
444.334	6.93
444.538	6.91
444.743	6.98
444.947	6.91
445.151	6.73
445.356	6.66
445.56	6.82
445.764	6.82
445.968	6.86
446.173	6.68
446.377	6.63
446.581	6.73
446.785	6.64
446.989	6.66
447.193	6.72
447.398	6.76
447.602	6.8
447.806	6.57
448.01	6.6
448.214	6.46
448.418	6.62
448.622	6.61
448.826	6.68
449.03	6.78
449.234	6.7
449.438	6.61
449.642	6.8
449.846	6.83
450.05	7.08
450.254	7.05
450.458	7.15
450.662	7.25
450.866	7.21
451.069	7.24
451.273	7.1
451.477	7.03
451.681	6.99
451.885	7.04
452.089	7.05
452.292	6.79
452.496	6.88
452.7	6.81
452.904	6.75
453.107	6.65
453.311	6.54
453.515	6.5
453.719	6.83
453.922	7.16
454.126	7.03
454.33	7.11
454.533	7.28
454.737	7.23
454.94	7.23
455.144	7.28
455.348	7.28
455.551	7.31
455.755	7.49
455.958	7.37
456.162	7.15
456.365	7.05
456.569	6.8
456.772	6.76
456.976	7.08
457.179	7.02
457.383	6.93
457.586	6.86
457.79	7.01
457.993	6.95
458.196	6.9
458.4	6.89
458.603	6.96
458.807	7.04
459.01	7.19
459.213	6.96
459.417	7.09
459.62	7.09
459.823	7.3
460.026	7.17
460.23	7.14
460.433	7.1
460.636	7.15
460.839	7.04
461.042	7.07
461.246	6.89
461.449	6.83
461.652	6.65
461.855	6.64
462.058	6.57
462.261	6.61
462.464	6.63
462.668	6.77
462.871	6.62
463.074	6.94
463.277	6.86
463.48	7.01
463.683	7.19
463.886	7.28
464.089	7.16
464.292	7.01
464.495	6.78
464.698	6.74
464.901	6.76
465.104	6.78
465.306	6.58
465.509	6.65
465.712	6.49
465.915	6.24
466.118	6.26
466.321	6.51
466.524	6.42
466.726	6.63
466.929	6.79
467.132	6.65
467.335	6.72
467.538	6.61
467.74	6.67
467.943	6.82
468.146	6.99
468.348	6.99
468.551	6.87
468.754	6.94
468.956	6.91
469.159	6.77
469.362	6.86
469.564	7.2
469.767	7.38
469.969	7.25
470.172	7.31
470.375	7.25
470.577	7.22
470.78	7.23
470.982	7.16
471.185	7.14
471.387	7.08
471.59	7.08
471.792	6.61
471.995	6.56
472.197	6.51
472.399	6.56
472.602	6.51
472.804	6.62
473.007	6.6
473.209	6.69
473.411	6.74
473.614	6.68
473.816	6.66
474.018	6.85
474.22	6.85
474.423	6.84
474.625	6.69
474.827	6.55
475.03	6.21
475.232	6.2
475.434	6.35
475.636	6.41
475.838	6.43
476.04	6.32
476.243	6.28
476.445	6.38
476.647	6.54
476.849	6.6
477.051	6.78
477.253	6.9
477.455	6.92
477.657	6.71
477.859	6.64
478.061	6.77
478.263	6.76
478.465	6.69
478.667	6.67
478.869	6.61
479.071	6.49
479.273	6.39
479.475	6.33
479.677	6.25
479.879	6.29
480.081	6.37
480.283	6.22
480.485	6.31
480.686	6.4
480.888	6.32
481.09	6.21
481.292	6.22
481.494	6.25
481.695	6.45
481.897	6.51
482.099	6.52
482.301	6.44
482.502	6.39
482.704	6.31
482.906	6.28
483.107	6.29
483.309	6.33
483.511	6.38
483.712	6.35
483.914	6.32
484.115	6.35
484.317	6.34
484.519	6.38
484.72	6.46
484.922	6.48
485.123	6.46
485.325	6.46
485.526	6.5
485.728	6.49
485.929	6.52
486.131	6.46
486.332	6.41
486.534	6.44
486.735	6.38
486.936	6.3
487.138	6.31
487.339	6.38
487.541	6.38
487.742	6.37
487.943	6.33
488.144	6.41
488.346	6.51
488.547	6.56
488.748	6.62
488.95	6.65
489.151	6.74
489.352	6.77
489.553	6.74
489.755	6.73
489.956	6.74
490.157	6.84
490.358	6.71
490.559	6.74
490.76	6.6
490.961	6.51
491.163	6.44
491.364	6.42
491.565	6.43
491.766	6.48
491.967	6.56
492.168	6.58
492.369	6.59
492.57	6.63
492.771	6.49
492.972	6.65
493.173	6.62
493.374	6.71
493.575	6.76
493.776	6.79
493.976	6.77
494.177	6.7
494.378	6.59
494.579	6.53
494.78	6.55
494.981	6.7
495.182	6.61
495.382	6.84
495.583	6.92
495.784	6.7
495.985	6.84
496.185	6.92
496.386	6.99
496.587	7.15
496.788	7.09
496.988	7.15
497.189	6.99
497.39	7
497.59	6.89
497.791	6.91
497.992	7.02
498.192	6.88
498.393	6.82
498.593	6.85
498.794	6.77
498.994	6.87
499.195	6.78
499.395	6.95
499.596	7.05
499.796	7.1
499.997	7.09
500.197	7.07
500.398	7.17
500.598	7.22
500.799	7.3
500.999	7.25
501.199	7.09
501.4	7.26
501.6	7
501.801	7.04
502.001	6.87
502.201	6.86
502.402	6.89
502.602	6.95
502.802	6.82
503.002	6.74
503.203	6.77
503.403	6.83
503.603	6.69
503.803	6.93
504.003	6.97
504.204	7.2
504.404	7.36
504.604	7.48
504.804	7.5
505.004	7.45
505.204	7.44
505.404	7.48
505.604	7.51
505.804	7.53
506.005	7.44
506.205	7.39
506.405	7.25
506.605	7.03
506.805	6.94
507.005	6.85
507.204	6.87
507.404	6.83
507.604	6.79
507.804	6.85
508.004	6.88
508.204	6.82
508.404	6.82
508.604	6.93
508.804	7.04
509.003	7.08
509.203	7.09
509.403	7.05
509.603	7.09
509.803	7.11
510.002	7.3
510.202	7.4
510.402	7.49
510.602	7.4
510.801	7.36
511.001	7.38
511.201	7.43
511.4	7.44
511.6	7.5
511.8	7.57
511.999	7.67
512.199	7.45
512.398	7.36
512.598	7.37
512.797	7.41
512.997	7.49
513.197	7.44
513.396	7.28
513.596	7.31
513.795	7.41
513.994	7.4
514.194	7.24
514.393	7.31
514.593	7.43
514.792	7.49
514.992	7.53
515.191	7.41
515.39	7.49
515.59	7.57
515.789	7.6
515.988	7.65
516.188	7.55
516.387	7.53
516.586	7.61
516.786	7.49
516.985	7.47
517.184	7.45
517.383	7.54
517.582	7.54
517.782	7.61
517.981	7.57
518.18	7.54
518.379	7.62
518.578	7.68
518.777	7.58
518.976	7.66
519.176	7.59
519.375	7.65
519.574	7.59
519.773	7.63
519.972	7.71
520.171	7.66
520.37	7.68
520.569	7.63
520.768	7.75
520.967	7.99
521.166	8.05
521.365	8.29
521.564	8.32
521.762	8.42
521.961	8.4
522.16	8.27
522.359	8.3
522.558	8.14
522.757	8.23
522.956	8.16
523.154	7.98
523.353	7.81
523.552	7.75
523.751	7.67
523.949	7.66
524.148	7.58
524.347	7.66
524.546	7.74
524.744	7.92
524.943	7.96
525.142	7.94
525.34	7.98
525.539	8.14
525.737	8.18
525.936	8.24
526.135	8.17
526.333	8.25
526.532	8.28
526.73	8.21
526.929	8.12
527.127	8.07
527.326	8.19
527.524	8.2
527.723	8.16
527.921	8.13
528.12	8.21
528.318	8.26
528.516	8.31
528.715	8.27
528.913	8.31
529.112	8.33
529.31	8.39
529.508	8.31
529.707	8.32
529.905	8.29
530.103	8.31
530.301	8.28
530.5	8.32
530.698	8.29
530.896	8.46
531.094	8.61
531.293	8.72
531.491	8.77
531.689	8.94
531.887	8.99
532.085	9.15
532.283	9.19
532.481	9.17
532.68	9.22
532.878	9.18
533.076	9.09
533.274	9.02
533.472	9
533.67	9.01
533.868	8.95
534.066	8.92
534.264	8.89
534.462	8.88
534.66	8.92
534.858	8.96
535.056	9
535.253	9.01
535.451	9.07
535.649	9.1
535.847	9.06
536.045	9.14
536.243	9.06
536.441	9.11
536.638	9.2
536.836	9.19
537.034	9.14
537.232	9.22
537.43	9.33
537.627	9.28
537.825	9.22
538.023	9.34
538.22	9.41
538.418	9.59
538.616	9.72
538.813	9.63
539.011	9.69
539.209	9.73
539.406	9.7
539.604	9.69
539.801	9.83
539.999	9.9
540.196	9.82
540.394	9.75
540.591	9.86
540.789	9.84
540.986	9.9
541.184	9.9
541.381	9.93
541.579	10.02
541.776	10.04
541.974	10.01
542.171	10.09
542.368	10.16
542.566	10.25
542.763	10.24
542.96	10.36
543.158	10.28
543.355	10.26
543.552	10.38
543.75	10.42
543.947	10.42
544.144	10.44
544.341	10.49
544.539	10.55
544.736	10.57
544.933	10.57
545.13	10.54
545.327	10.83
545.524	11.09
545.722	11.03
545.919	10.98
546.116	11.17
546.313	11.31
546.51	11.37
546.707	11.5
546.904	11.5
547.101	11.72
547.298	11.63
547.495	11.67
547.692	11.66
547.889	11.83
548.086	11.93
548.283	11.73
548.48	11.79
548.677	11.77
548.874	11.82
549.07	12
549.267	11.86
549.464	12.08
549.661	12.14
549.858	12.23
550.055	12.26
550.251	12.27
550.448	12.51
550.645	12.43
550.842	12.58
551.038	12.32
551.235	12.53
551.432	12.65
551.628	12.62
551.825	12.72
552.022	12.64
552.218	12.55
552.415	12.66
552.612	12.72
552.808	12.91
553.005	12.9
553.201	13.1
553.398	12.98
553.594	12.95
553.791	13.21
553.987	13.22
554.184	13.42
554.38	13.59
554.577	13.56
554.773	13.66
554.97	13.56
555.166	13.56
555.362	13.69
555.559	13.85
555.755	13.93
555.952	13.76
556.148	13.64
556.344	13.65
556.541	13.68
556.737	13.76
556.933	13.81
557.129	13.87
557.326	13.98
557.522	13.9
557.718	13.93
557.914	13.96
558.11	14.06
558.307	14.28
558.503	14.37
558.699	14.44
558.895	14.38
559.091	14.53
559.287	14.8
559.483	14.83
559.679	14.83
559.876	14.84
560.072	14.96
560.268	14.85
560.464	14.83
560.66	14.78
560.856	14.84
561.052	15.15
561.247	15.22
561.443	15.35
561.639	15.3
561.835	15.2
562.031	15.19
562.227	15.15
562.423	15.34
562.619	15.5
562.815	15.61
563.01	15.53
563.206	15.48
563.402	15.5
563.598	15.43
563.793	15.72
563.989	16.13
564.185	16.26
564.381	16.47
564.576	16.51
564.772	16.5
564.968	16.44
565.163	16.51
565.359	16.55
565.555	16.39
565.75	16.45
565.946	16.47
566.141	16.33
566.337	16.32
566.532	16.26
566.728	16.39
566.923	16.56
567.119	16.61
567.314	16.76
567.51	16.88
567.705	16.87
567.901	16.84
568.096	16.76
568.292	16.77
568.487	16.82
568.682	16.88
568.878	16.7
569.073	16.45
569.268	16.75
569.464	16.76
569.659	16.85
569.854	17.11
570.05	17.26
570.245	17.24
570.44	17.35
570.635	17.3
570.831	17.32
571.026	17.51
571.221	17.67
571.416	17.49
571.611	17.5
571.806	17.44
572.002	17.48
572.197	17.28
572.392	17.48
572.587	17.66
572.782	17.87
572.977	18
573.172	17.94
573.367	18.1
573.562	18.45
573.757	18.52
573.952	18.53
574.147	18.42
574.342	18.74
574.537	18.72
574.732	18.66
574.927	18.53
575.121	18.6
575.316	18.66
575.511	18.62
575.706	18.44
575.901	18.45
576.096	18.42
576.29	18.49
576.485	18.35
576.68	18.34
576.875	18.48
577.069	18.49
577.264	18.44
577.459	18.4
577.654	18.35
577.848	18.28
578.043	18.39
578.238	18.35
578.432	18.43
578.627	18.59
578.821	18.8
579.016	18.71
579.21	18.77
579.405	18.75
579.6	18.78
579.794	18.93
579.989	19.03
580.183	18.73
580.378	19.03
580.572	19.06
580.766	19.28
580.961	19.11
581.155	19.38
581.35	19.45
581.544	19.44
581.738	19.54
581.933	19.36
582.127	19.28
582.321	19.26
582.516	19.41
582.71	19.34
582.904	18.99
583.099	18.92
583.293	18.69
583.487	18.9
583.681	19
583.875	19.08
584.07	19.18
584.264	19.33
584.458	19.83
584.652	19.66
584.846	19.73
585.04	19.67
585.234	19.72
585.428	19.71
585.623	19.35
585.817	19.19
586.011	19.22
586.205	19.3
586.399	19.23
586.593	19.12
586.787	19.04
586.981	19.03
587.174	19.32
587.368	19.35
587.562	19.27
587.756	19.29
587.95	19.44
588.144	19.36
588.338	19.43
588.532	19.34
588.725	19.17
588.919	19.33
589.113	19.34
589.307	19.38
589.501	19.34
589.694	19.55
589.888	19.9
590.082	19.75
590.275	19.77
590.469	19.55
590.663	19.66
590.856	19.79
591.05	19.81
591.244	20.01
591.437	20.13
591.631	20.04
591.824	19.97
592.018	20.02
592.212	20.07
592.405	20.05
592.599	20.22
592.792	20.23
592.986	20.23
593.179	20.01
593.372	19.98
593.566	19.85
593.759	20.21
593.953	20.53
594.146	20.29
594.339	20.49
594.533	20.41
594.726	20.34
594.92	20.51
595.113	20.53
595.306	20.58
595.499	20.51
595.693	20.33
595.886	20.27
596.079	20.01
596.272	20.04
596.466	19.95
596.659	20.02
596.852	20.1
597.045	19.96
597.238	19.95
597.431	19.84
597.624	19.73
597.818	19.91
598.011	20
598.204	19.82
598.397	19.84
598.59	19.81
598.783	19.86
598.976	19.73
599.169	19.75
599.362	19.64
599.555	20.02
599.748	20.39
599.941	20.23
600.134	19.9
600.326	20.1
600.519	20.18
600.712	20.05
600.905	20.25
601.098	20.55
601.291	20.7
601.483	20.62
601.676	20.39
601.869	20.16
602.062	19.89
602.255	20.1
602.447	20.26
602.64	20.18
602.833	20.43
603.025	20.31
603.218	20.13
603.411	20.08
603.603	20.4
603.796	20.45
603.989	20.38
604.181	20.53
604.374	20.53
604.566	20.61
604.759	20.73
604.951	20.83
605.144	20.84
605.336	20.86
605.529	20.84
605.721	20.72
605.914	20.87
606.106	21.03
606.299	21.25
606.491	21.25
606.683	20.89
606.876	21.04
607.068	20.97
607.26	21.01
607.453	20.91
607.645	21.07
607.837	20.91
608.03	20.88
608.222	21
608.414	20.98
608.606	21.17
608.799	21.49
608.991	21.24
609.183	21.04
609.375	21.24
609.567	21.17
609.759	21.14
609.952	21.41
610.144	21.25
610.336	21.02
610.528	20.99
610.72	20.76
610.912	20.74
611.104	20.75
611.296	20.66
611.488	20.35
611.68	20.29
611.872	20.11
612.064	19.84
612.256	20.01
612.448	19.91
612.64	19.74
612.832	19.84
613.023	19.67
613.215	19.69
613.407	20.09
613.599	20.03
613.791	20.18
613.983	20.35
614.174	20.66
614.366	20.79
614.558	20.71
614.75	20.92
614.941	20.83
615.133	20.78
615.325	20.88
615.516	20.82
615.708	21.14
615.9	21.18
616.091	20.83
616.283	20.48
616.475	20.37
616.666	20.7
616.858	20.71
617.049	20.69
617.241	20.95
617.432	20.71
617.624	20.79
617.815	20.79
618.007	20.68
618.198	20.99
618.39	21.13
618.581	20.93
618.773	20.85
618.964	20.86
619.155	21.16
619.347	20.86
619.538	20.72
619.729	20.51
619.921	20.44
620.112	20.67
620.303	20.38
620.494	20.12
620.686	20.25
620.877	20.27
621.068	20.39
621.259	20.44
621.451	20.37
621.642	20.56
621.833	20.97
622.024	20.73
622.215	20.77
622.406	21.05
622.597	21.31
622.788	21.48
622.98	21.79
623.171	21.67
623.362	21.75
623.553	21.87
623.744	21.74
623.935	21.59
624.126	21.87
624.317	21.6
624.508	21.64
624.698	21.74
624.889	21.53
625.08	21.07
625.271	21.07
625.462	20.66
625.653	20.65
625.844	20.94
626.034	20.9
626.225	20.71
626.416	20.7
626.607	20.78
626.798	20.67
626.988	20.76
627.179	21.19
627.37	21.37
627.56	21.53
627.751	21.59
627.942	21.5
628.132	21.54
628.323	21.71
628.514	22
628.704	21.85
628.895	21.84
629.085	21.7
629.276	21.5
629.466	21.28
629.657	21.26
629.847	21.7
630.038	21.97
630.228	21.98
630.419	21.9
630.609	21.82
630.8	21.66
630.99	21.6
631.181	21.7
631.371	21.91
631.561	21.83
631.752	21.87
631.942	21.52
632.132	21.27
632.323	21.26
632.513	21.22
632.703	21.2
632.893	21.5
633.084	21.53
633.274	21.26
633.464	21.28
633.654	21.42
633.844	21.37
634.034	21.47
634.225	21.44
634.415	21.25
634.605	21.26
634.795	21.35
634.985	21.18
635.175	21.45
635.365	21.76
635.555	21.57
635.745	21.75
635.935	21.95
636.125	21.96
636.315	21.96
636.505	21.79
636.695	22.1
636.885	22.23
637.075	22.6
637.265	22.76
637.455	23.03
637.644	22.85
637.834	22.85
638.024	22.4
638.214	22.49
638.404	22.59
638.593	22.94
638.783	22.46
638.973	22.56
639.163	22.14
639.352	21.86
639.542	21.81
639.732	22.3
639.921	21.92
640.111	22.26
640.301	21.79
640.49	21.55
640.68	21.91
640.87	22.19
641.059	21.82
641.249	22.31
641.438	22.49
641.628	22.05
641.817	22.23
642.007	22.7
642.196	22.93
642.386	23.33
642.575	23.79
642.764	23.68
642.954	23.44
643.143	23.85
643.333	23.68
643.522	23.72
643.711	24.36
643.901	23.88
644.09	23.84
644.279	24.08
644.469	23.51
644.658	23.67
644.847	23.39
645.036	23.81
645.226	23.36
645.415	23.54
645.604	23.19
645.793	22.37
645.982	22.26
646.171	21.99
646.361	21.65
646.55	22.26
646.739	21.91
646.928	21.8
647.117	21.53
647.306	21.93
647.495	21.45
647.684	21.94
647.873	22.42
648.062	22.38
648.251	22.31
648.44	22.48
648.629	22.41
648.818	22.13
649.007	22.54
649.196	22.7
649.384	22.8
649.573	23.16
649.762	22.93
649.951	22.68
650.14	22.78
650.328	23.12
650.517	22.9
650.706	22.91
650.895	23.59
651.083	23.36
651.272	23.65
651.461	23.33
651.65	23.35
651.838	23.3
652.027	23.67
652.216	23.68
652.404	23.52
652.593	23.89
652.781	23.62
652.97	23.15
653.158	23.07
653.347	22.36
653.535	22.66
653.724	22.13
653.912	22.4
654.101	22.13
654.289	22.31
654.478	22.44
654.666	22.17
654.855	22.84
655.043	23.01
655.231	22.89
655.42	22.85
655.608	22.09
655.796	22.82
655.985	22.76
656.173	22.57
656.361	23.01
656.55	22.62
656.738	22.82
656.926	22.4
657.114	22.63
657.302	22.58
657.491	23.18
657.679	23.67
657.867	23.39
658.055	23.43
658.243	23.89
658.431	23.3
658.619	23.22
658.807	23.1
658.996	22.92
659.184	22.62
659.372	22.68
659.56	22.37
659.748	22.26
659.936	22.25
660.124	21.96
660.311	22.19
660.499	22.25
660.687	22.72
660.875	22.77
661.063	22.81
661.251	22.97
661.439	22.6
661.627	22.93
661.814	23.24
662.002	23.51
662.19	23.9
662.378	23.77
662.565	23.96
662.753	24.01
662.941	23.77
663.129	24.31
663.316	24.5
663.504	25.08
663.692	25.24
663.879	25.14
664.067	24.86
664.254	24.82
664.442	24.73
664.63	25.22
664.817	25.28
665.005	24.96
665.192	25.07
665.38	24.89
665.567	24.61
665.755	24.37
665.942	24.45
666.13	24.59
666.317	24.35
666.504	23.52
666.692	22.92
666.879	22.45
667.067	23.05
667.254	22.92
667.441	22.87
667.629	23.12
667.816	23.14
668.003	23.35
668.19	23.12
668.378	23.2
668.565	23.76
668.752	24.07
668.939	23.81
669.127	24.45
669.314	24.32
669.501	24.24
669.688	24.58
669.875	24.87
670.062	24.81
670.249	25.06
670.436	24.39
670.623	24.04
670.81	23.44
670.997	23.88
671.184	22.99
671.371	23.15
671.558	23.28
671.745	23.22
671.932	22.21
672.119	21.79
672.306	21.89
672.493	22.44
672.68	23.11
672.867	23.58
673.054	24.05
673.24	23.89
673.427	23.74
673.614	23.75
673.801	23.83
673.988	24.56
674.174	24.96
674.361	24.93
674.548	24.63
674.734	23.82
674.921	23.47
675.108	22.87
675.294	23.24
675.481	22.59
675.668	22.76
675.854	22.89
676.041	22.59
676.227	22.54
676.414	22.55
676.601	23.54
676.787	23.94
676.974	24.24
677.16	24.28
677.347	23.89
677.533	24.73
677.719	24.4
677.906	24.08
678.092	24.37
678.279	24.65
678.465	24.55
678.651	24.01
678.838	24.38
679.024	24.26
679.21	24.29
679.397	24.31
679.583	23.83
679.769	23.96
679.955	24.12
680.142	24.24
680.328	24.04
680.514	23.65
680.7	23.55
680.886	23.5
681.073	23.28
681.259	23.59
681.445	23.82
681.631	24.07
681.817	23.63
682.003	23.64
682.189	23.73
682.375	23.37
682.561	23.85
682.747	24.18
682.933	23.79
683.119	23.91
683.305	23.85
683.491	23.9
683.677	23.91
683.863	24.52
684.049	24.21
684.235	23.76
684.42	24.02
684.606	23.71
684.792	23.45
684.978	23.72
685.164	23.98
685.349	23.7
685.535	23.63
685.721	23.04
685.907	22.6
686.092	22.84
686.278	23.23
686.464	23.36
686.649	23.78
686.835	23.86
687.021	23.65
687.206	23.86
687.392	23.99
687.577	24.25
687.763	24.85
687.948	25.54
688.134	25.44
688.319	25.44
688.505	25.35
688.69	25.08
688.876	25.5
689.061	25.86
689.247	26
689.432	25.39
689.618	25.27
689.803	25.17
689.988	25.29
690.174	25.36
690.359	25.3
690.544	25.12
690.73	25.44
690.915	25.09
691.1	24.87
691.285	24.84
691.471	25.54
691.656	25.41
691.841	25.52
692.026	25.04
692.211	25.43
692.396	25.47
692.582	25.34
692.767	24.75
692.952	24.61
693.137	24.73
693.322	24.64
693.507	24.6
693.692	24.39
693.877	24.28
694.062	24.53
694.247	24.25
694.432	24.13
694.617	24.77
694.802	24.59
694.987	24.68
695.172	24.68
695.357	24.14
695.541	24.18
695.726	24.38
695.911	24.09
696.096	23.53
696.281	23.51
696.466	22.95
696.65	23.01
696.835	23.3
697.02	23.42
697.204	24.06
697.389	23.96
697.574	23.97
697.759	24.03
697.943	24.32
698.128	24.51
698.312	24.25
698.497	24.84
698.682	24.83
698.866	25.03
699.051	25
699.235	24.63
699.42	24.76
699.604	24.94
699.789	25.04
699.973	25
700.158	25.13
700.342	25.21
700.527	25.21
700.711	24.61
700.895	24.87
701.08	24.79
701.264	24.52
701.448	24.86
701.633	24.93
701.817	24.89
702.001	25.23
702.186	24.76
702.37	24.56
702.554	24.34
702.738	25.55
702.923	24.67
703.107	24.53
703.291	24.63
703.475	24.35
703.659	23.81
703.843	24.27
704.027	24
704.212	24.75
704.396	25.8
704.58	25.86
704.764	25.35
704.948	26.41
705.132	26.29
705.316	26.39
705.5	26.53
705.684	27
705.868	26.8
706.052	26.68
706.235	27.16
706.419	27.08
706.603	26.97
706.787	26.86
706.971	26.55
707.155	27
707.339	26.82
707.522	26.97
707.706	26.8
707.89	26.41
708.074	27.2
708.257	25.98
708.441	25.49
708.625	24.83
708.808	24.93
708.992	25.19
709.176	24.71
709.359	25.05
709.543	24.91
709.727	24.38
709.91	24.86
710.094	25.4
710.277	25.88
710.461	25.96
710.644	27.07
710.828	27.17
711.011	26.71
711.195	27.51
711.378	27.29
711.562	26.71
711.745	27.59
711.928	26.89
712.112	26.24
712.295	25.96
712.478	25.66
712.662	25.49
712.845	24.65
713.028	24.82
713.212	24.14
713.395	24.49
713.578	25.22
713.761	24.73
713.945	25.23
714.128	24.19
714.311	24.52
714.494	24.99
714.677	25.44
714.86	26.58
715.043	26.74
715.227	27.52
715.41	27
715.593	26.82
715.776	26.94
715.959	27.07
716.142	27.3
716.325	27.55
716.508	27.68
716.691	27.15
716.874	26.88
717.057	27.36
717.239	26.67
717.422	26.74
717.605	27.03
717.788	27.42
717.971	27.69
718.154	27.99
718.337	28.02
718.519	27.6
718.702	27.1
718.885	26.5
719.068	25.87
719.25	26.69
719.433	27.6
719.616	27.74
719.798	27.5
719.981	27.14
720.164	27.39
720.346	27.53
720.529	28.05
720.712	28.67
720.894	28.47
721.077	28.15
721.259	28.3
721.442	26.88
721.624	26.09
721.807	25.82
721.989	26.17
722.172	26.52
722.354	26.76
722.537	26.89
722.719	27.43
722.901	29.14
723.084	30.05
723.266	28.34
723.448	28.65
723.631	29.76
723.813	29.84
723.995	29.09
724.178	28.99
724.36	29.4
724.542	28.76
724.724	28.31
724.907	26.99
725.089	27.85
725.271	28.71
725.453	28.69
725.635	27.4
725.817	27.04
725.999	26.91
726.181	26.06
726.364	25.65
726.546	25.42
726.728	25.14
726.91	25.09
727.092	23.23
727.274	23.6
727.456	23.92
727.638	24.49
727.819	24.21
728.001	24.21
728.183	24.61
728.365	23.92
728.547	24.54
728.729	25.18
728.911	25.71
729.093	25.84
729.274	25.57
729.456	25.36
729.638	25.78
729.82	26.36
730.001	26.67
730.183	27.44
730.365	27.81
730.546	27.42
730.728	26.29
730.91	26.03
731.091	25.57
731.273	24.9
731.455	24.69
731.636	24.61
731.818	25.02
731.999	25.23
732.181	25.06
732.362	25.25
732.544	26.02
732.725	27.25
732.907	28.05
733.088	29.2
733.27	30.17
733.451	31.22
733.633	29.97
733.814	29.82
733.995	28.73
734.177	29.47
734.358	29.37
734.539	28.91
734.721	28.71
734.902	27.48
735.083	28
735.264	27.62
735.446	26.86
735.627	27.84
735.808	28.18
735.989	29.21
736.17	28.16
736.351	29.07
736.533	29.39
736.714	28.94
736.895	29.8
737.076	28.97
737.257	29.39
737.438	28.73
737.619	28.85
737.8	28.35
737.981	28.4
738.162	28.03
738.343	26.78
738.524	26.54
738.705	26.67
738.886	26.77
739.067	26.93
739.247	26.52
739.428	27.52
739.609	27.34
739.79	26.39
739.971	25.55
740.151	25.68
740.332	25.82
740.513	25.46
740.694	24.23
740.874	23.2
741.055	22.9
741.236	23.61
741.417	24.34
741.597	25.49
741.778	27.59
741.958	28.99
742.139	29.45
742.32	27.86
742.5	29
742.681	30.61
742.861	31.61
743.042	31.8
743.222	30.61
743.403	29.95
743.583	29.72
743.764	27.44
743.944	26.28
744.124	26.72
744.305	27.96
744.485	26.09
744.666	25.57
744.846	24.81
745.026	24.73
745.207	24.67
745.387	24.63
745.567	23.97
745.747	24.42
745.928	24.4
746.108	23.6
746.288	23.76
746.468	25.18
746.648	24.57
746.829	25.97
747.009	25.86
747.189	26.02
747.369	25.92
747.549	26.84
747.729	27.47
747.909	28.56
748.089	27.39
748.269	27.37
748.449	26.56
748.629	27.95
748.809	26.44
748.989	25.63
749.169	25.77
749.349	25.95
749.529	25.15
749.709	26.19
749.889	25.14
750.068	25.92
750.248	26.16
750.428	26.91
750.608	25.67
750.788	27.06
750.967	27.81
751.147	27.54
751.327	27.38
751.507	27.14
751.686	27.04
751.866	28.04
752.046	28.06
752.225	28.93
752.405	28.06
752.585	28.82
752.764	28.25
752.944	28.43
753.123	30.14
753.303	31.11
753.482	31.58
753.662	31.26
753.841	31.3
754.021	30.79
754.2	30.39
754.38	31.16
754.559	31.24
754.739	30.75
754.918	29.7
755.097	27.79
755.277	26.38
755.456	26.11
755.635	25.06
755.815	24.88
755.994	25.07
756.173	24.7
756.352	23.79
756.532	23.08
756.711	23.27
756.89	24.66
757.069	24.97
757.248	25.45
757.427	27.08
757.607	28.59
757.786	28.2
757.965	28.1
758.144	28.37
758.323	29.16
758.502	29.63
758.681	30.23
758.86	28.9
759.039	30.13
759.218	29.88
759.397	28.14
759.576	25.78
759.755	25.38
759.934	25.45
760.113	25.1
760.291	24.76
760.47	25.23
760.649	24.37
760.828	26.03
761.007	24.38
761.186	24.88
761.364	24.85
761.543	26.13
761.722	25.97
761.901	26.51
762.079	26.65
762.258	27.22
762.437	26.57
762.615	26.96
762.794	26.47
762.972	27.03
763.151	27.18
763.33	27.89
763.508	27.24
763.687	27.29
763.865	27.81
764.044	27.75
764.222	27.27
764.401	27.31
764.579	27.62
764.758	26.52
764.936	26.72
765.114	26.47
765.293	25.26
765.471	25.67
765.65	25.5
765.828	25.07
766.006	24.23
766.184	24.39
766.363	24.4
766.541	23.69
766.719	24.31
766.898	24.78
767.076	24.45
767.254	26.54
767.432	26.86
767.61	27.54
767.788	28.01
767.967	29.03
768.145	28.67
768.323	28.41
768.501	28.31
768.679	29.44
768.857	29.15
769.035	30.39
769.213	29.77
769.391	30.11
769.569	30.51
769.747	30.27
769.925	29.02
770.103	28.94
770.281	28.55
770.459	28.62
770.636	27.91
770.814	28.83
770.992	28.69
771.17	26.14
771.348	26.17
771.525	23.75
771.703	22.89
771.881	24.74
772.059	26.27
772.236	27.88
772.414	27.51
772.592	28.29
772.769	27.63
772.947	27.7
773.125	28.96
773.302	29.11
773.48	32.3
773.657	32.14
773.835	33.12
774.013	29.69
774.19	31.21
774.368	31.75
774.545	33.3
774.723	33.86
774.9	34.3
775.077	36.34
775.255	35.7
775.432	35
775.61	36.52
775.787	35.25
775.964	38.5
776.142	36.67
776.319	39.47
776.496	38.58
776.674	38.45
776.851	35.51
777.028	36.12
777.205	37.44
777.382	37.77
777.56	37.79
777.737	39.29
777.914	39.44
778.091	39
778.268	37.5
778.445	36.89
778.622	35.26
778.8	35.64
778.977	33.34
779.154	33.22
779.331	32.77
779.508	32.72
779.685	32.94
779.862	34.43
780.038	34.7
780.215	33.96
780.392	32.52
780.569	32.44
780.746	34.62
780.923	32.87
781.1	33
781.277	34.14
781.453	33.79
781.63	32.35
781.807	30.65
781.984	31.48
782.16	29.93
782.337	29.19
782.514	31.56
782.691	30.42
782.867	33.28
783.044	33.03
783.221	33.28
783.397	35.56
783.574	35.85
783.75	35.64
783.927	34.83
784.103	38
784.28	40.01
784.456	38.34
784.633	37.96
784.809	37.65
784.986	37.34
785.162	34.66
785.339	33.17
785.515	32.42
785.692	32.64
785.868	32.1
786.044	32.44
786.221	33.83
786.397	33.96
786.573	35.41
786.749	36.29
786.926	34.58
787.102	36.15
787.278	34.77
787.454	34.29
787.631	33.62
787.807	32.23
787.983	30.46
788.159	31.03
788.335	29.99
788.511	29.99
788.687	28.93
788.863	29.12
789.039	27.07
789.216	26.02
789.392	26.15
789.568	26.9
789.744	29
789.919	29.55
790.095	24.99
790.271	27.32
790.447	27.52
790.623	29.15
790.799	30.42
790.975	32.49
791.151	34.39
791.327	35.44
791.502	34.24
791.678	35.81
791.854	36.18
792.03	38.7
792.205	36.31
792.381	32.66
792.557	32.61
792.733	33.8
792.908	32.43
793.084	32.47
793.259	30.98
793.435	32.57
793.611	29.21
793.786	28.47
793.962	28.25
794.137	26.79
794.313	29.24
794.488	28.69
794.664	26.28
794.839	26.82
795.015	26.67
795.19	27.3
795.366	26.44
795.541	28.16
795.716	26.33
795.892	26.18
796.067	29.36
796.242	29.44
796.418	29.31
796.593	32.44
796.768	33.81
796.944	34.35
797.119	35.84
797.294	37.19
797.469	40.51
797.644	45.44
797.82	46.14
797.995	48.19
798.17	47.8
798.345	47.67
798.52	44.99
798.695	43.36
798.87	43.99
799.045	42.48
799.22	42.19
799.395	39.05
799.57	35.51
799.745	35.92
799.92	34.29
800.095	32.61
800.27	33.98
800.445	35.69
800.62	36.22
800.795	32.02
800.97	33.39
801.145	32.66
801.319	33.02
801.494	36.06
801.669	38.08
801.844	37.94
802.018	38.36
802.193	34.74
802.368	31.44
802.543	30.03
802.717	35.99
802.892	32.1
803.067	34.51
803.241	33.17
803.416	32.3
803.59	31.75
803.765	32.4
803.94	32.61
804.114	34.08
804.289	37.6
804.463	37.16
804.638	34.5
804.812	37.42
804.986	32.91
805.161	34.86
805.335	33.42
805.51	32.71
805.684	28.66
805.858	30.53
806.033	30.34
806.207	28.2
806.381	31.55
806.556	32.93
806.73	30.25
806.904	31.65
807.078	30.36
807.253	31.56
807.427	29.72
807.601	34.83
807.775	34.13
807.949	36.73
808.123	38.82
808.298	37.59
808.472	35.16
808.646	39.63
808.82	39.81
808.994	39.23
809.168	38.94
809.342	36.95
809.516	33.21
809.69	31.9
809.864	31.29
810.038	29.88
810.212	29.11
810.385	30.54
810.559	30.14
810.733	30.92
810.907	31.32
811.081	29.31
811.255	31.76
811.428	36.02
811.602	40.38
811.776	39.05
811.95	39.51
812.123	39.23
812.297	38.73
812.471	37.71
812.644	37.37
812.818	40.26
812.992	40.31
813.165	43.18
813.339	43.31
813.512	37.01
813.686	37.1
813.86	37.91
814.033	38.32
814.207	38.99
814.38	36.19
814.554	39.23
814.727	38.15
814.9	38.71
815.074	37.19
815.247	38
815.421	40.49
815.594	38.97
815.767	38.88
815.941	41.8
816.114	42.97
816.287	46.36
816.46	44.41
816.634	41.27
816.807	41.52
816.98	39.66
817.153	38.37
817.327	36.47
817.5	36.53
817.673	35.73
817.846	32.22
818.019	25.65
818.192	25.32
818.365	21.02
818.538	23.04
818.711	26.29
818.884	27.03
819.057	24.47
819.23	27.3
819.403	30.03
819.576	29.8
819.749	33.45
819.922	35.26
820.095	35.92
820.268	37.92
820.441	38.41
820.614	34.98
820.786	35.97
820.959	35.55
821.132	34.78
821.305	32.38
821.477	31.6
821.65	29.32
821.823	29.04
821.996	28.87
822.168	28.17
822.341	27.98
822.514	27.64
822.686	27.37
822.859	27.4
823.031	27.35
823.204	27.33
823.376	27.2
823.549	26.97
823.722	27.14
823.894	26.17
824.067	26.49
824.239	25.24
824.411	25.88
824.584	25.81
824.756	26.36
824.929	26.16
825.101	26.58
825.273	26.91
825.446	26.65
825.618	27.4
825.79	28.41
825.963	28.9
826.135	30.87
826.307	32.11
826.479	32.02
826.652	29.74
826.824	30.27
826.996	30.85
827.168	30.45
827.34	31.38
827.512	30.5
827.684	31.06
827.856	30.31
828.029	30.43
828.201	29.35
828.373	28.18
828.545	29.4
828.717	30.38
828.889	31.25
829.061	30.83
829.232	31.88
829.404	31.55
829.576	32.33
829.748	31.84
829.92	30.96
830.092	32.74
830.264	35.45
830.436	37.51
830.607	36.15
830.779	36.03
830.951	38.73
831.123	37.03
831.294	39.04
831.466	37.36
831.638	42.53
831.809	43.63
831.981	38.8
832.153	38.01
832.324	36.29
832.496	38.12
832.667	36.26
832.839	37.44
833.011	38.72
833.182	37.07
833.354	33.91
833.525	29.01
833.697	31.32
833.868	33.83
834.039	34.67
834.211	37.66
834.382	34.7
834.554	35.38
834.725	32.78
834.896	32.36
835.068	34.42
835.239	34.71
835.41	35.35
835.581	34.17
835.753	34.24
835.924	35.21
836.095	30.08
836.266	30.2
836.438	30.13
836.609	30.83
836.78	30.63
836.951	29.28
837.122	32.03
837.293	31.85
837.464	32.69
837.635	32.1
837.806	29.12
837.977	34.4
838.148	39.83
838.319	39.74
838.49	45.8
838.661	47.49
838.832	44.85
839.003	44.92
839.174	48.69
839.345	44.53
839.516	44.85
839.687	52.05
839.857	47.77
840.028	43.39
840.199	41.21
840.37	37.67
840.54	37.15
840.711	42.55
840.882	37.75
841.053	38.16
841.223	39.06
841.394	43.44
841.564	41.7
841.735	43.37
841.906	40.63
842.076	39.14
842.247	39.53
842.417	44.24
842.588	42
842.758	45.96
842.929	46.06
843.099	50.43
843.27	46.32
843.44	43.44
843.611	41.36
843.781	40.16
843.951	44.57
844.122	41.61
844.292	34.17
844.462	38.41
844.633	41.6
844.803	36.82
844.973	34.46
845.144	37.87
845.314	38.02
845.484	42.45
845.654	48.9
845.824	66.17
845.995	67.5
846.165	76.13
846.335	80.98
846.505	84.8
846.675	94.5
846.845	97.88
847.015	115.72
847.185	110.84
847.355	103.23
847.525	94.88
847.695	83.88
847.865	81.76
848.035	81.43
848.205	77.2
848.375	82.95
848.545	76.44
848.715	83.88
848.884	72.25
849.054	66.29
849.224	71.3
849.394	87.4
849.564	85.79
849.733	102.87
849.903	83.56
850.073	93.11
850.243	86.38
850.412	90.67
850.582	102.13
850.752	107.23
850.921	123.28
851.091	115.92
851.26	91.87
851.43	92.5
851.599	76.76
851.769	95.78
851.939	87.1
852.108	89.59
852.278	89.06
852.447	60.15
852.616	62.79
852.786	68.15
852.955	64.12
853.125	69.36
853.294	63.1
853.463	73.33
853.633	70.27
853.802	63.77
853.971	68.46
854.141	72.61
854.31	75.64
854.479	84.52
854.648	76.3
854.818	73.8
854.987	74.09
855.156	76.8
855.325	74.8
855.494	68.36
855.663	74.77
855.832	68.36
856.001	75.42
856.171	78.61
856.34	68.91
856.509	79.07
856.678	80.77
856.847	75.92
857.016	67.81
857.185	66.99
857.353	65.78
857.522	64.03
857.691	65.04
857.86	57.59
858.029	59.21
858.198	54.26
858.367	44.85
858.535	30.56
858.704	32.58
858.873	47.65
859.042	50.34
859.21	76.13
859.379	76.6
859.548	92.86
859.717	86.22
859.885	77.56
860.054	74.24
860.222	65.07
860.391	90.75
860.56	101.4
860.728	85.42
860.897	93.58
861.065	72.55
861.234	82.3
861.402	60.13
861.571	58.29
861.739	59.98
861.908	59.21
862.076	69.58
862.244	63.38
862.413	61.4
862.581	75.41
862.749	74.87
862.918	82.69
863.086	81.41
863.254	82.04
863.423	90.53
863.591	86.99
863.759	95.7
863.927	90.02
864.096	92.94
864.264	95.42
864.432	86.73
864.6	79.58
864.768	78.56
864.936	72.22
865.104	86.43
865.272	80.95
865.44	103.42
865.608	108.46
865.776	132.6
865.944	127.95
866.112	113.95
866.28	132.77
866.448	133.33
866.616	150.55
866.784	163.79
866.952	122.32
867.12	127.17
867.288	102.71
867.455	101.27
867.623	91.8
867.791	65.99
867.959	70.91
868.127	46.6
868.294	62.54
868.462	44.77
868.63	51.89
868.797	59.19
868.965	58.22
869.133	56.29
869.3	66.28
869.468	69.08
869.636	91.04
869.803	87.11
869.971	103.63
870.138	115.84
870.306	121.38
870.473	112.41
870.641	102.18
870.808	110.62
870.975	109.54
871.143	101.05
871.31	106.44
871.478	84.35
871.645	113
871.812	113.93
871.98	97.92
872.147	108.27
872.314	105.8
872.482	108.02
872.649	95
872.816	106.42
872.983	106.51
873.15	100.18
873.318	100.1
873.485	95.68
873.652	95.04
873.819	97.72
873.986	88.56
874.153	93.99
874.32	90.66
874.487	96.78
874.654	73.88
874.821	53.83
874.988	55.25
875.155	55.21
875.322	26.44
875.489	37.76
875.656	29.84
875.823	16.8
875.99	10.22
876.157	2.33
876.324	23.33
876.49	20.55
876.657	26.63
876.824	26.43
876.991	30.92
877.157	43.3
877.324	43.22
877.491	68.55
877.658	62.7
877.824	71.72
877.991	73.19
878.157	68.08
878.324	80.81
878.491	87.36
878.657	91.99
878.824	105.92
878.99	94.99
879.157	94.89
879.323	73.12
879.49	85.1
879.656	96.63
879.823	84.38
879.989	86.58
880.156	89.3
880.322	80.19
880.488	80.91
880.655	86.67
880.821	85.57
880.987	80.74
881.154	80.42
881.32	70.88
881.486	62.29
881.652	70.82
881.819	61.44
881.985	55.46
882.151	56.8
882.317	53.18
882.483	50.45
882.649	51.52
882.816	50.2
882.982	45.89
883.148	47.36
883.314	44.37
883.48	40.8
883.646	41.4
883.812	42.7
883.978	41.91
884.144	41.82
884.31	40.12
884.476	39.33
884.642	35.89
884.807	38.75
884.973	35.25
885.139	36.46
885.305	38.13
885.471	36.62
885.637	33.75
885.802	33.78
885.968	31.83
886.134	31.53
886.3	29.94
886.465	33.11
886.631	34.95
886.797	40.3
886.962	44.92
887.128	46.15
887.293	44.96
887.459	48.41
887.625	51.39
887.79	51.38
887.956	50
888.121	54.4
888.287	58.28
888.452	51.05
888.618	47.74
888.783	45.19
