Data from 2938117_Reflection_3.txt Node
Date: Sat Jul 11 18:05:28 EDT 2015
User: robert
Spectrometer: USB4E03001
Autoset integration time: false
Trigger mode: 4
Integration Time (sec): 1.000000E-1
Scans to average: 10
Electric dark correction enabled: true
Nonlinearity correction enabled: false
Boxcar width: 5
Stray light correction enabled: false
XAxis mode: Wavelengths
Stop averaging: false
Number of Pixels in Spectrum: 3648
>>>>>Begin Spectral Data<<<<<
177.566	1414.35
177.785	-98.45
178.005	-34.47
178.225	-0
178.445	15.4
178.665	41.96
178.885	49.82
179.105	90.31
179.324	84.84
179.544	35.35
179.764	113.24
179.984	151.99
180.204	144.93
180.423	115.63
180.643	362.37
180.863	-524.05
181.083	160.91
181.302	140.03
181.522	118.27
181.742	147.3
181.961	172.49
182.181	80.22
182.401	155.98
182.621	446.41
182.84	251.42
183.06	84.04
183.279	18.47
183.499	51.06
183.719	64.35
183.938	48.96
184.158	17.39
184.377	16.75
184.597	60.87
184.816	39.16
185.036	47.73
185.256	50.62
185.475	38.76
185.695	71.76
185.914	53.54
186.134	34.97
186.353	3.47
186.572	25.55
186.792	53.5
187.011	62.24
187.231	83.98
187.45	63.9
187.67	72.76
187.889	91.01
188.108	104.76
188.328	131.28
188.547	139.32
188.766	147.66
188.986	165.24
189.205	175.47
189.424	148.94
189.644	148.43
189.863	191.89
190.082	852.93
190.302	296.89
190.521	174.73
190.74	118.45
190.959	-789.83
191.178	-412.74
191.398	311.56
191.617	86.06
191.836	68.54
192.055	161.09
192.274	93.87
192.494	87.97
192.713	291.7
192.932	289.2
193.151	-1058.76
193.37	-23.91
193.589	8.76
193.808	-453.24
194.027	-284.22
194.246	375.56
194.465	5772.88
194.685	835.87
194.904	-1486.38
195.123	328.25
195.342	-437.12
195.561	292.57
195.78	157.83
195.999	135.05
196.218	308.49
196.436	322.58
196.655	278.33
196.874	135.71
197.093	96.02
197.312	83.32
197.531	73.12
197.75	74.51
197.969	98.22
198.188	92.91
198.407	94.24
198.625	86.35
198.844	89.82
199.063	76.92
199.282	143.14
199.501	176.72
199.719	237.67
199.938	206.71
200.157	294.24
200.376	-1280.88
200.594	239.18
200.813	141.63
201.032	118.15
201.251	94.37
201.469	135.78
201.688	83.37
201.907	66.73
202.125	63.19
202.344	59.9
202.563	74.11
202.781	95.88
203	83.94
203.218	74.44
203.437	46.61
203.656	58.42
203.874	2.04
204.093	16.21
204.311	61.18
204.53	68.59
204.748	56.44
204.967	52.75
205.185	43.9
205.404	31.12
205.622	42.06
205.841	47.47
206.059	52.05
206.278	68.65
206.496	93.61
206.715	77.32
206.933	92.95
207.151	240.23
207.37	305.57
207.588	338.18
207.806	225.93
208.025	259.75
208.243	207.44
208.461	306.98
208.68	-77.91
208.898	57.54
209.116	42.35
209.335	26.42
209.553	-273.33
209.771	-155.31
209.989	-125.2
210.208	524.26
210.426	-19.83
210.644	347.43
210.862	-91.06
211.081	27.94
211.299	43.89
211.517	80.95
211.735	160.21
211.953	48.73
212.171	25.56
212.39	9.02
212.608	27.86
212.826	19.86
213.044	40.45
213.262	36.67
213.48	29.34
213.698	40.86
213.916	37.88
214.134	13.77
214.352	22.38
214.57	42.6
214.788	45.76
215.006	54.44
215.224	42.59
215.442	44.17
215.66	37.49
215.878	26.71
216.096	23.79
216.314	49.21
216.532	42.9
216.75	46.31
216.968	71.92
217.185	83.05
217.403	77.97
217.621	106.43
217.839	123.45
218.057	90.27
218.275	103.6
218.492	69.9
218.71	35.92
218.928	57.4
219.146	28.75
219.363	17.36
219.581	-107.19
219.799	437.07
220.017	2948.45
220.234	319.05
220.452	253.96
220.67	450.88
220.887	-237.72
221.105	-261.99
221.323	-66.34
221.54	37.96
221.758	38.76
221.976	41.07
222.193	37.08
222.411	35.55
222.629	37.8
222.846	57.7
223.064	61.54
223.281	57.27
223.499	63.25
223.716	66.64
223.934	60.74
224.151	47.08
224.369	59.34
224.586	62.14
224.804	61.9
225.021	49.61
225.239	46.43
225.456	29.89
225.674	34.69
225.891	34.73
226.108	29.49
226.326	25.12
226.543	28.88
226.76	17.59
226.978	14.25
227.195	8.71
227.413	17.73
227.63	13.06
227.847	21.6
228.064	16.04
228.282	17.23
228.499	12.27
228.716	12.2
228.934	13.56
229.151	16.24
229.368	15.4
229.585	16.99
229.802	18.23
230.02	18.3
230.237	16.08
230.454	15.82
230.671	12.5
230.888	15.37
231.105	15.69
231.323	16.7
231.54	16.65
231.757	18.98
231.974	21.25
232.191	22.67
232.408	21.49
232.625	23.39
232.842	25.45
233.059	26.48
233.276	20.64
233.493	21.57
233.71	18.35
233.927	15.75
234.144	18.09
234.361	18.49
234.578	17.58
234.795	14.48
235.012	10.67
235.229	6.31
235.446	7.85
235.663	15.48
235.879	19.23
236.096	11.74
236.313	12.71
236.53	5.73
236.747	7.54
236.964	6.86
237.181	11.6
237.397	16
237.614	23.06
237.831	19.02
238.048	19.53
238.264	12.76
238.481	20.67
238.698	23.18
238.915	20.91
239.131	16.36
239.348	12.16
239.565	11.41
239.781	11.42
239.998	10.34
240.215	14.28
240.431	12.1
240.648	10.96
240.865	12.84
241.081	10.69
241.298	13.47
241.514	11.65
241.731	11.15
241.947	9.35
242.164	8.17
242.38	5.06
242.597	4.05
242.814	4.19
243.03	6.32
243.246	4.48
243.463	5.52
243.679	4.87
243.896	6.19
244.112	6.55
244.329	7.56
244.545	7
244.762	9.38
244.978	11.66
245.194	10.86
245.411	11.55
245.627	10.84
245.843	9.5
246.06	9.17
246.276	7.46
246.492	7.93
246.709	6.45
246.925	6.91
247.141	5.77
247.357	4.6
247.574	5.34
247.79	5.98
248.006	6.08
248.222	5.67
248.439	5.64
248.655	6.01
248.871	4.96
249.087	5.97
249.303	5.07
249.519	6.03
249.736	4.35
249.952	2.39
250.168	0.01
250.384	-0.66
250.6	1.05
250.816	-0
251.032	2.5
251.248	4.14
251.464	5.38
251.68	5
251.896	6.95
252.112	8.14
252.328	10.21
252.544	9.68
252.76	11.73
252.976	11.47
253.192	11.86
253.408	11.01
253.624	11.36
253.84	9.87
254.056	13.47
254.272	12.7
254.487	11.92
254.703	10.31
254.919	10.09
255.135	7.73
255.351	8.47
255.567	5.4
255.782	5.71
255.998	6.27
256.214	9.82
256.43	7.49
256.646	4.48
256.861	8.26
257.077	8.11
257.293	7.73
257.508	7
257.724	5.46
257.94	6.78
258.155	4.91
258.371	7.02
258.587	3.19
258.802	3.43
259.018	3.75
259.234	1.53
259.449	1.82
259.665	2.34
259.88	2.77
260.096	2.81
260.312	2.46
260.527	2.98
260.743	1.83
260.958	2.85
261.174	2.85
261.389	2.66
261.605	4.65
261.82	5.35
262.036	5.67
262.251	4.65
262.466	4.28
262.682	5.57
262.897	5.33
263.113	5.62
263.328	4.97
263.543	7.34
263.759	8.69
263.974	7.63
264.189	5.32
264.405	5.01
264.62	5.38
264.835	6.45
265.051	7.62
265.266	8.52
265.481	7.9
265.696	8.74
265.912	6.86
266.127	7.94
266.342	6.08
266.557	5.4
266.773	3.72
266.988	3.18
267.203	3.03
267.418	2.14
267.633	3.44
267.848	3.43
268.064	5.39
268.279	5.75
268.494	5.24
268.709	5.45
268.924	6.24
269.139	7.1
269.354	9.13
269.569	10.6
269.784	10.18
269.999	7.27
270.214	6.65
270.429	6.61
270.644	5.74
270.859	6.62
271.074	6.34
271.289	5.32
271.504	6.06
271.719	5.6
271.934	4.52
272.149	5.05
272.363	6.52
272.578	7.38
272.793	6.19
273.008	6.76
273.223	5.35
273.438	6.22
273.653	8.63
273.867	8.28
274.082	8.29
274.297	8.44
274.512	8.09
274.726	6.35
274.941	5.17
275.156	5.2
275.371	4.13
275.585	5.16
275.8	5.09
276.015	4.23
276.229	3.95
276.444	4.15
276.659	4.54
276.873	4.07
277.088	5.71
277.302	8.08
277.517	7.83
277.732	6.91
277.946	6.24
278.161	5
278.375	4.7
278.59	5.84
278.804	6.14
279.019	5.26
279.233	6.76
279.448	6.35
279.662	6.32
279.877	6.52
280.091	7.35
280.306	8.03
280.52	9.11
280.735	8.44
280.949	7
281.163	5.32
281.378	5.99
281.592	6.26
281.806	5.51
282.021	5.28
282.235	5.25
282.449	5.44
282.664	5.84
282.878	6.17
283.092	6.64
283.307	6.99
283.521	8.07
283.735	7.17
283.949	7.25
284.164	7.19
284.378	6.36
284.592	5.73
284.806	5.56
285.02	4.65
285.234	4.07
285.449	3.24
285.663	3.55
285.877	3.1
286.091	3.79
286.305	1.64
286.519	1.94
286.733	1.51
286.947	2.55
287.161	2.86
287.375	3.68
287.589	4.57
287.803	7.27
288.017	7
288.231	8.06
288.445	8.29
288.659	10.87
288.873	11.94
289.087	12.15
289.301	11.41
289.515	12.48
289.729	12.44
289.943	11.31
290.157	10.66
290.371	12.53
290.584	11.68
290.798	11.25
291.012	11.47
291.226	11.18
291.44	11.7
291.654	11.08
291.867	9.37
292.081	9.91
292.295	9.59
292.509	8.42
292.722	5.84
292.936	6.76
293.15	7.36
293.364	8.86
293.577	8.98
293.791	10.14
294.005	10.64
294.218	10.19
294.432	8.86
294.645	10.55
294.859	11.1
295.073	10.74
295.286	11.62
295.5	11.37
295.713	10.19
295.927	9.15
296.14	8.18
296.354	8.66
296.568	8.49
296.781	9.48
296.994	9.12
297.208	8.86
297.421	9.44
297.635	7.68
297.848	7.55
298.062	6.72
298.275	6.87
298.489	6.6
298.702	6.96
298.915	9.26
299.129	9.3
299.342	10.26
299.555	10.64
299.769	11.88
299.982	13.34
300.195	13.37
300.409	14
300.622	14.1
300.835	15.1
301.048	14.39
301.262	11.85
301.475	9.67
301.688	8.98
301.901	8.97
302.115	7.66
302.328	7.21
302.541	7.01
302.754	7.15
302.967	8.76
303.18	6.66
303.393	6.97
303.607	9.03
303.82	11.69
304.033	10.22
304.246	10.39
304.459	10.63
304.672	11.14
304.885	11.38
305.098	11.34
305.311	8.96
305.524	9.51
305.737	9.37
305.95	10.79
306.163	8.07
306.376	9.25
306.589	7.23
306.802	6.86
307.015	8.06
307.228	7.56
307.44	8.09
307.653	10.69
307.866	12.04
308.079	12.22
308.292	9.04
308.505	10.89
308.718	11.08
308.93	12.16
309.143	13.11
309.356	10.29
309.569	10.05
309.781	9.85
309.994	8.79
310.207	9.51
310.42	8.63
310.632	9.06
310.845	8.33
311.058	7.74
311.27	7.64
311.483	7.21
311.696	9.14
311.908	10.07
312.121	10.55
312.333	10.69
312.546	10.27
312.759	11.12
312.971	10.63
313.184	10.79
313.396	10.19
313.609	10.54
313.821	11.58
314.034	11.64
314.246	12.05
314.459	10.43
314.671	11.16
314.884	9.85
315.096	10.15
315.309	10.21
315.521	10.49
315.733	12.67
315.946	12.05
316.158	10.74
316.371	10.74
316.583	10.98
316.795	11.56
317.008	11.1
317.22	13.08
317.432	13.68
317.644	14.92
317.857	15.94
318.069	15.15
318.281	16.64
318.494	17.29
318.706	16.66
318.918	14.85
319.13	14.64
319.342	16.58
319.555	16.07
319.767	15.27
319.979	15.73
320.191	13.76
320.403	14.52
320.615	13.7
320.827	13.3
321.039	13.17
321.252	13.49
321.464	13.98
321.676	11.54
321.888	11.03
322.1	11.91
322.312	9.96
322.524	11.19
322.736	8.92
322.948	8.37
323.16	8.48
323.372	8.83
323.584	10.5
323.796	9.69
324.007	9.34
324.219	9.42
324.431	8.09
324.643	9.44
324.855	9.81
325.067	10.87
325.279	12.28
325.491	12.5
325.702	12.75
325.914	11.68
326.126	12.66
326.338	12.71
326.55	12.8
326.761	14.02
326.973	13.23
327.185	11.78
327.396	12.28
327.608	10.97
327.82	11.6
328.032	11.09
328.243	10.84
328.455	9.85
328.666	10.13
328.878	8.73
329.09	7.52
329.301	7.17
329.513	8.22
329.725	8.26
329.936	9.49
330.148	10.52
330.359	10.23
330.571	9.43
330.782	8.56
330.994	10.17
331.205	11.7
331.417	12.26
331.628	11.77
331.84	10.54
332.051	10.48
332.262	10.22
332.474	8.94
332.685	9.59
332.897	10.22
333.108	10.71
333.319	10.44
333.531	12.39
333.742	13.1
333.953	14.91
334.165	15.61
334.376	15.61
334.587	14.86
334.799	14.49
335.01	13.66
335.221	13.34
335.432	13.95
335.644	13.11
335.855	11.1
336.066	10.4
336.277	8.68
336.488	7.95
336.7	7.1
336.911	7.01
337.122	7.64
337.333	8.27
337.544	8.71
337.755	9.23
337.966	8.28
338.177	8.4
338.388	7.68
338.599	7.37
338.811	7.31
339.022	7.55
339.233	9.7
339.444	9.23
339.655	8.16
339.866	7.16
340.076	6.91
340.287	7.71
340.498	6.88
340.709	7.54
340.92	8.77
341.131	9.48
341.342	10.44
341.553	9.93
341.764	10.04
341.975	10.43
342.185	11.79
342.396	11.7
342.607	12.19
342.818	12.91
343.029	12.37
343.239	12.26
343.45	11.91
343.661	12.03
343.872	10.97
344.082	10.33
344.293	11.6
344.504	11.53
344.714	10.9
344.925	10.33
345.136	10.44
345.346	11.48
345.557	11.39
345.768	11.84
345.978	12.05
346.189	12.05
346.399	12.05
346.61	11.33
346.821	10.8
347.031	12.07
347.242	13.14
347.452	12.82
347.663	12.46
347.873	12.73
348.084	14.45
348.294	12.07
348.504	12.13
348.715	12.9
348.925	13.6
349.136	14.63
349.346	14.11
349.557	12.08
349.767	12.94
349.977	11.53
350.188	12.19
350.398	11.72
350.608	12.38
350.819	12.31
351.029	12.47
351.239	12.58
351.449	11.87
351.66	11.57
351.87	12.32
352.08	11.34
352.29	12.62
352.501	11.88
352.711	11.5
352.921	11.91
353.131	11.99
353.341	11.8
353.552	11.64
353.762	10.1
353.972	11.22
354.182	10.59
354.392	11.25
354.602	10.43
354.812	10.29
355.022	8.84
355.232	8.87
355.442	9.59
355.652	9.79
355.862	9.56
356.072	10.96
356.282	8.78
356.492	9.98
356.702	9.79
356.912	10.71
357.122	11.36
357.332	13.28
357.542	12.78
357.752	11.87
357.962	11.63
358.171	11.38
358.381	12.07
358.591	13.22
358.801	13.26
359.011	13.78
359.221	13.38
359.43	12.56
359.64	11.25
359.85	10.89
360.06	11.57
360.269	11.7
360.479	12.2
360.689	12.01
360.899	12.13
361.108	11.57
361.318	11.81
361.528	11.88
361.737	12.07
361.947	11.7
362.156	12.71
362.366	12.97
362.576	12.14
362.785	11.9
362.995	11.7
363.204	11.22
363.414	11.41
363.623	10.81
363.833	11.5
364.042	12.4
364.252	13.57
364.461	13.38
364.671	13.22
364.88	14.23
365.09	14.06
365.299	14.69
365.509	15.66
365.718	15.63
365.927	15.75
366.137	15.39
366.346	14.74
366.555	13.96
366.765	14.09
366.974	12.95
367.183	13.09
367.393	13.36
367.602	13.68
367.811	13.07
368.021	13.43
368.23	12.96
368.439	12.75
368.648	13.02
368.857	14.33
369.067	14.46
369.276	14.99
369.485	15.59
369.694	16.1
369.903	15.47
370.112	15.73
370.321	16.42
370.531	16.8
370.74	17.12
370.949	17.28
371.158	16.94
371.367	16.84
371.576	18.19
371.785	17.49
371.994	17.28
372.203	17.35
372.412	17.26
372.621	17.34
372.83	17.51
373.039	17.28
373.248	16.75
373.457	17.26
373.666	17.43
373.874	16.25
374.083	16.2
374.292	16.41
374.501	16.2
374.71	16.31
374.919	15.71
375.128	15.75
375.336	16.32
375.545	17.02
375.754	16.27
375.963	16.28
376.171	16.64
376.38	17.29
376.589	17.15
376.798	17.23
377.006	17.44
377.215	17.4
377.424	17.54
377.632	17.97
377.841	17.75
378.05	17.73
378.258	17.5
378.467	17.1
378.675	16.59
378.884	16.42
379.093	16.61
379.301	16.59
379.51	16.47
379.718	16.33
379.927	15.56
380.135	15.68
380.344	16.01
380.552	17.09
380.761	17.49
380.969	17.61
381.177	18.11
381.386	17.3
381.594	17.08
381.803	17.15
382.011	17.47
382.219	17.86
382.428	17.56
382.636	16.82
382.845	15.97
383.053	16.36
383.261	16.84
383.469	16.7
383.678	17.66
383.886	17.81
384.094	18.43
384.302	18.87
384.511	18.98
384.719	19.26
384.927	19.8
385.135	20.13
385.343	19.93
385.552	20.34
385.76	20.35
385.968	20.13
386.176	20.68
386.384	20.19
386.592	19.27
386.8	19.1
387.008	19.06
387.216	19.23
387.424	18.94
387.633	19.1
387.841	18.77
388.049	18.91
388.257	19.39
388.465	19
388.672	19.45
388.88	20.53
389.088	20.54
389.296	20.57
389.504	20.46
389.712	20.76
389.92	20.68
390.128	20.47
390.336	20.9
390.544	20.47
390.751	20.64
390.959	20.67
391.167	20.35
391.375	20.44
391.583	20.84
391.79	20.83
391.998	21.17
392.206	21.64
392.414	22.06
392.621	22.02
392.829	22.25
393.037	22.7
393.244	23.05
393.452	22.95
393.66	23.44
393.867	22.94
394.075	23.27
394.283	23.26
394.49	23.04
394.698	23.14
394.905	22.87
395.113	23.08
395.32	22.74
395.528	22.92
395.735	23.36
395.943	23.31
396.15	23.79
396.358	23.89
396.565	24.2
396.773	24.72
396.98	24.87
397.188	25.26
397.395	25.43
397.602	25.58
397.81	25.32
398.017	25.39
398.225	25.23
398.432	25.56
398.639	25.74
398.847	25.69
399.054	25.4
399.261	25.23
399.468	25.03
399.676	24.92
399.883	25.08
400.09	25.19
400.297	25.13
400.505	25.26
400.712	25.02
400.919	25.23
401.126	25.39
401.333	25.5
401.54	25.8
401.748	25.9
401.955	26.15
402.162	26.27
402.369	26.29
402.576	26.24
402.783	26.33
402.99	26.74
403.197	26.79
403.404	26.69
403.611	26.9
403.818	27.05
404.025	27.31
404.232	27.45
404.439	27.54
404.646	27.6
404.853	27.91
405.06	28.01
405.267	27.97
405.474	27.9
405.681	28
405.887	27.83
406.094	27.89
406.301	27.98
406.508	27.96
406.715	27.93
406.922	27.85
407.128	27.88
407.335	27.89
407.542	27.98
407.749	28.21
407.955	28.28
408.162	28.22
408.369	27.99
408.575	28.01
408.782	28.12
408.989	28.17
409.195	28.29
409.402	28.27
409.609	28.51
409.815	28.47
410.022	28.49
410.228	28.56
410.435	28.78
410.642	28.71
410.848	28.65
411.055	28.75
411.261	28.84
411.468	29.07
411.674	28.85
411.881	28.41
412.087	28.19
412.294	27.81
412.5	28.02
412.706	28.34
412.913	28.69
413.119	28.65
413.326	28.43
413.532	28.28
413.738	28.07
413.945	28.3
414.151	28.75
414.357	28.9
414.564	29.05
414.77	28.59
414.976	28.69
415.182	28.55
415.389	28.51
415.595	28.43
415.801	28.6
416.007	28.37
416.214	28.11
416.42	27.86
416.626	27.92
416.832	27.96
417.038	27.93
417.244	27.63
417.45	27.59
417.657	27.5
417.863	27.55
418.069	27.65
418.275	27.95
418.481	27.95
418.687	27.85
418.893	27.76
419.099	27.77
419.305	27.67
419.511	27.61
419.717	27.53
419.923	27.66
420.129	27.54
420.335	27.39
420.541	27.29
420.746	27.42
420.952	27.62
421.158	27.59
421.364	27.48
421.57	27.42
421.776	27.4
421.982	27.46
422.187	27.4
422.393	27.49
422.599	27.39
422.805	27.32
423.01	27.34
423.216	27.25
423.422	27.26
423.628	27.3
423.833	27.48
424.039	27.66
424.245	27.68
424.45	27.6
424.656	27.61
424.862	27.65
425.067	27.7
425.273	27.54
425.478	27.55
425.684	27.68
425.889	27.72
426.095	27.62
426.301	27.45
426.506	27.3
426.712	27.38
426.917	27.38
427.123	27.26
427.328	27.37
427.533	27.38
427.739	27.43
427.944	27.3
428.15	27.34
428.355	27.34
428.561	27.33
428.766	27.46
428.971	27.59
429.177	27.57
429.382	27.6
429.587	27.42
429.793	27.51
429.998	27.35
430.203	27.21
430.408	27.05
430.614	27.24
430.819	27.08
431.024	27.11
431.229	27.04
431.434	26.93
431.64	27.09
431.845	27.16
432.05	27.06
432.255	26.86
432.46	26.98
432.665	27
432.87	26.82
433.076	26.92
433.281	26.86
433.486	26.81
433.691	26.95
433.896	26.93
434.101	26.86
434.306	27.01
434.511	27.21
434.716	27.28
434.921	27.32
435.126	27.64
435.331	27.66
435.535	27.42
435.74	27.47
435.945	27.55
436.15	27.51
436.355	27.52
436.56	27.6
436.765	27.57
436.97	27.51
437.174	27.56
437.379	27.47
437.584	27.44
437.789	27.78
437.993	27.71
438.198	27.85
438.403	27.71
438.608	27.7
438.812	27.55
439.017	27.42
439.222	27.13
439.426	27.1
439.631	26.96
439.836	26.94
440.04	26.86
440.245	26.98
440.45	26.7
440.654	26.75
440.859	26.81
441.063	26.72
441.268	26.83
441.472	27.12
441.677	27.14
441.881	27.28
442.086	27.24
442.29	27.2
442.495	27.21
442.699	27.27
442.904	27.41
443.108	27.35
443.312	27.38
443.517	27.44
443.721	27.29
443.925	27.24
444.13	27.17
444.334	27.03
444.538	26.88
444.743	26.86
444.947	26.81
445.151	26.77
445.356	26.83
445.56	26.93
445.764	26.83
445.968	26.89
446.173	26.82
446.377	26.83
446.581	26.91
446.785	27
446.989	26.79
447.193	26.78
447.398	26.69
447.602	26.69
447.806	26.76
448.01	26.81
448.214	26.67
448.418	26.68
448.622	26.6
448.826	26.77
449.03	26.84
449.234	27.03
449.438	26.87
449.642	27
449.846	26.87
450.05	26.63
450.254	26.6
450.458	26.6
450.662	26.68
450.866	26.69
451.069	26.67
451.273	26.52
451.477	26.35
451.681	26.5
451.885	26.46
452.089	26.41
452.292	26.46
452.496	26.51
452.7	26.58
452.904	26.6
453.107	26.5
453.311	26.36
453.515	26.33
453.719	26.42
453.922	26.42
454.126	26.26
454.33	26.39
454.533	26.21
454.737	26.09
454.94	25.96
455.144	25.96
455.348	26
455.551	26.05
455.755	26.38
455.958	26.53
456.162	26.66
456.365	26.74
456.569	26.69
456.772	26.93
456.976	27.08
457.179	27.21
457.383	27.09
457.586	27.02
457.79	26.97
457.993	26.88
458.196	26.79
458.4	26.73
458.603	26.73
458.807	26.54
459.01	26.61
459.213	26.54
459.417	26.74
459.62	26.78
459.823	26.92
460.026	26.91
460.23	26.82
460.433	26.88
460.636	26.9
460.839	26.98
461.042	27.17
461.246	26.98
461.449	26.96
461.652	26.69
461.855	26.57
462.058	26.63
462.261	26.65
462.464	26.74
462.668	26.64
462.871	26.64
463.074	26.67
463.277	26.56
463.48	26.82
463.683	26.96
463.886	27.1
464.089	27.3
464.292	27.12
464.495	27.19
464.698	27.14
464.901	27.14
465.104	27.23
465.306	27.19
465.509	27.33
465.712	27.25
465.915	27.14
466.118	27.16
466.321	27.24
466.524	27.31
466.726	27.3
466.929	27.57
467.132	27.39
467.335	27.33
467.538	27.19
467.74	27.03
467.943	27.04
468.146	27.19
468.348	27.34
468.551	27.25
468.754	27.35
468.956	27.26
469.159	27.07
469.362	27.33
469.564	27.6
469.767	27.78
469.969	28.06
470.172	28.2
470.375	28.27
470.577	28.11
470.78	28.1
470.982	28.14
471.185	28.32
471.387	28.22
471.59	28.31
471.792	28.01
471.995	27.99
472.197	27.78
472.399	27.72
472.602	27.58
472.804	27.77
473.007	27.79
473.209	27.69
473.411	27.69
473.614	27.7
473.816	27.68
474.018	27.93
474.22	27.94
474.423	27.99
474.625	27.99
474.827	27.87
475.03	27.7
475.232	27.65
475.434	27.63
475.636	27.64
475.838	27.65
476.04	27.53
476.243	27.55
476.445	27.81
476.647	27.74
476.849	27.89
477.051	28.07
477.253	27.91
477.455	27.91
477.657	27.77
477.859	27.76
478.061	27.74
478.263	27.84
478.465	27.65
478.667	27.55
478.869	27.69
479.071	27.54
479.273	27.59
479.475	27.82
479.677	27.87
479.879	27.83
480.081	27.81
480.283	27.81
480.485	27.74
480.686	27.84
480.888	27.75
481.09	27.69
481.292	27.66
481.494	27.66
481.695	27.57
481.897	27.69
482.099	27.69
482.301	27.62
482.502	27.51
482.704	27.45
482.906	27.45
483.107	27.47
483.309	27.43
483.511	27.45
483.712	27.41
483.914	27.45
484.115	27.39
484.317	27.43
484.519	27.38
484.72	27.5
484.922	27.44
485.123	27.4
485.325	27.38
485.526	27.44
485.728	27.37
485.929	27.31
486.131	27.22
486.332	27.15
486.534	27.19
486.735	27.31
486.936	27.25
487.138	27.36
487.339	27.43
487.541	27.45
487.742	27.42
487.943	27.46
488.144	27.54
488.346	27.7
488.547	27.8
488.748	27.8
488.95	27.71
489.151	27.73
489.352	27.76
489.553	27.68
489.755	27.68
489.956	27.7
490.157	27.73
490.358	27.73
490.559	27.65
490.76	27.56
490.961	27.53
491.163	27.57
491.364	27.62
491.565	27.54
491.766	27.65
491.967	27.65
492.168	27.62
492.369	27.67
492.57	27.57
492.771	27.49
492.972	27.49
493.173	27.5
493.374	27.58
493.575	27.51
493.776	27.69
493.976	27.67
494.177	27.7
494.378	27.67
494.579	27.75
494.78	27.98
494.981	28
495.182	27.89
495.382	27.87
495.583	27.96
495.784	27.92
495.985	27.95
496.185	27.87
496.386	27.8
496.587	27.93
496.788	27.69
496.988	27.58
497.189	27.63
497.39	27.75
497.59	27.72
497.791	27.73
497.992	27.82
498.192	27.65
498.393	27.65
498.593	27.74
498.794	27.61
498.994	27.69
499.195	27.62
499.395	27.74
499.596	27.7
499.796	27.87
499.997	27.63
500.197	27.51
500.398	27.57
500.598	27.57
500.799	27.62
500.999	27.68
501.199	27.67
501.4	27.87
501.6	27.85
501.801	27.98
502.001	27.73
502.201	27.75
502.402	27.87
502.602	27.91
502.802	27.73
503.002	27.6
503.203	27.51
503.403	27.47
503.603	27.39
503.803	27.34
504.003	27.26
504.204	27.25
504.404	27.31
504.604	27.2
504.804	27.1
505.004	27.18
505.204	27.16
505.404	27.14
505.604	27.15
505.804	27.03
506.005	26.97
506.205	26.98
506.405	27.13
506.605	27.09
506.805	27.32
507.005	27.3
507.204	27.39
507.404	27.48
507.604	27.53
507.804	27.51
508.004	27.63
508.204	27.64
508.404	27.7
508.604	27.67
508.804	27.69
509.003	27.49
509.203	27.53
509.403	27.42
509.603	27.35
509.803	27.4
510.002	27.56
510.202	27.54
510.402	27.52
510.602	27.53
510.801	27.41
511.001	27.38
511.201	27.42
511.4	27.36
511.6	27.32
511.8	27.3
511.999	27.16
512.199	26.96
512.398	26.87
512.598	26.78
512.797	26.78
512.997	26.78
513.197	26.84
513.396	26.79
513.596	26.86
513.795	26.88
513.994	26.87
514.194	26.96
514.393	27.11
514.593	27.04
514.792	27.24
514.992	27.2
515.191	27.2
515.39	27.09
515.59	27.06
515.789	27.14
515.988	27.08
516.188	27.02
516.387	26.88
516.586	26.78
516.786	26.8
516.985	26.56
517.184	26.46
517.383	26.57
517.582	26.68
517.782	26.6
517.981	26.56
518.18	26.62
518.379	26.67
518.578	26.7
518.777	26.7
518.976	26.75
519.176	26.75
519.375	26.85
519.574	26.75
519.773	26.62
519.972	26.76
520.171	26.75
520.37	26.79
520.569	26.74
520.768	26.87
520.967	27.04
521.166	27.15
521.365	27.4
521.564	27.57
521.762	27.71
521.961	27.76
522.16	27.83
522.359	27.77
522.558	27.72
522.757	27.78
522.956	27.82
523.154	27.64
523.353	27.48
523.552	27.34
523.751	27.09
523.949	27.13
524.148	27.12
524.347	27.03
524.546	26.89
524.744	26.83
524.943	26.85
525.142	26.73
525.34	26.77
525.539	26.75
525.737	26.72
525.936	26.68
526.135	26.53
526.333	26.51
526.532	26.49
526.73	26.57
526.929	26.54
527.127	26.46
527.326	26.53
527.524	26.57
527.723	26.55
527.921	26.49
528.12	26.53
528.318	26.53
528.516	26.57
528.715	26.55
528.913	26.48
529.112	26.53
529.31	26.57
529.508	26.48
529.707	26.44
529.905	26.45
530.103	26.49
530.301	26.48
530.5	26.53
530.698	26.49
530.896	26.56
531.094	26.67
531.293	26.66
531.491	26.69
531.689	26.86
531.887	26.79
532.085	26.85
532.283	26.87
532.481	26.77
532.68	26.77
532.878	26.78
533.076	26.72
533.274	26.69
533.472	26.6
533.67	26.65
533.868	26.57
534.066	26.6
534.264	26.6
534.462	26.55
534.66	26.7
534.858	26.73
535.056	26.71
535.253	26.7
535.451	26.64
535.649	26.78
535.847	26.66
536.045	26.64
536.243	26.57
536.441	26.51
536.638	26.61
536.836	26.46
537.034	26.38
537.232	26.38
537.43	26.38
537.627	26.43
537.825	26.33
538.023	26.42
538.22	26.44
538.418	26.54
538.616	26.65
538.813	26.45
539.011	26.64
539.209	26.7
539.406	26.72
539.604	26.78
539.801	26.82
539.999	26.9
540.196	26.9
540.394	26.86
540.591	26.81
540.789	26.87
540.986	27.06
541.184	27
541.381	27.05
541.579	27.16
541.776	27.11
541.974	27.07
542.171	27.16
542.368	27.1
542.566	27.24
542.763	27.28
542.96	27.3
543.158	27.19
543.355	27.07
543.552	27.04
543.75	26.91
543.947	27
544.144	27.12
544.341	27.07
544.539	27.19
544.736	27.13
544.933	27.22
545.13	27.15
545.327	27.24
545.524	27.43
545.722	27.38
545.919	27.36
546.116	27.49
546.313	27.55
546.51	27.58
546.707	27.5
546.904	27.34
547.101	27.37
547.298	27.35
547.495	27.24
547.692	27.21
547.889	27.24
548.086	27.34
548.283	27.18
548.48	27.13
548.677	27.04
548.874	27.16
549.07	27.27
549.267	27.12
549.464	27.08
549.661	27.2
549.858	27.32
550.055	27.28
550.251	27.18
550.448	27.26
550.645	27.01
550.842	27.09
551.038	26.9
551.235	27.04
551.432	26.96
551.628	26.93
551.825	27
552.022	26.89
552.218	26.88
552.415	26.82
552.612	26.72
552.808	26.82
553.005	26.54
553.201	26.51
553.398	26.37
553.594	26.36
553.791	26.61
553.987	26.6
554.184	26.62
554.38	26.68
554.577	26.72
554.773	26.79
554.97	26.65
555.166	26.91
555.362	26.83
555.559	26.78
555.755	26.85
555.952	26.54
556.148	26.32
556.344	26.38
556.541	26.37
556.737	26.29
556.933	26.3
557.129	26.48
557.326	26.35
557.522	26.46
557.718	26.46
557.914	26.47
558.11	26.46
558.307	26.72
558.503	26.7
558.699	26.53
558.895	26.5
559.091	26.4
559.287	26.41
559.483	26.53
559.679	26.33
559.876	26.28
560.072	26.37
560.268	26.37
560.464	26.19
560.66	25.88
560.856	25.88
561.052	25.81
561.247	26
561.443	26.07
561.639	26.05
561.835	26.2
562.031	26.43
562.227	26.45
562.423	26.52
562.619	26.7
562.815	26.92
563.01	27.06
563.206	27.29
563.402	27.13
563.598	27.09
563.793	27
563.989	26.98
564.185	26.91
564.381	26.71
564.576	26.49
564.772	26.36
564.968	26.36
565.163	26.36
565.359	26.35
565.555	26.34
565.75	26.35
565.946	26.42
566.141	26.36
566.337	26.27
566.532	26.44
566.728	26.6
566.923	26.58
567.119	26.55
567.314	26.59
567.51	26.44
567.705	26.4
567.901	26.36
568.096	26.35
568.292	26.53
568.487	26.51
568.682	26.41
568.878	26.35
569.073	26.46
569.268	26.53
569.464	26.41
569.659	26.69
569.854	26.73
570.05	26.69
570.245	26.64
570.44	26.61
570.635	26.58
570.831	26.62
571.026	26.68
571.221	26.56
571.416	26.48
571.611	26.5
571.806	26.38
572.002	26.41
572.197	26.21
572.392	26.51
572.587	26.49
572.782	26.67
572.977	26.54
573.172	26.43
573.367	26.4
573.562	26.65
573.757	26.77
573.952	26.73
574.147	26.61
574.342	26.81
574.537	26.54
574.732	26.67
574.927	26.52
575.121	26.83
575.316	26.83
575.511	26.89
575.706	26.72
575.901	26.75
576.096	26.75
576.29	26.85
576.485	26.82
576.68	26.82
576.875	26.89
577.069	26.94
577.264	26.93
577.459	27
577.654	27.08
577.848	27.26
578.043	27.18
578.238	27.31
578.432	27.3
578.627	27.59
578.821	27.49
579.016	27.36
579.21	27.43
579.405	27.38
579.6	27.56
579.794	27.76
579.989	27.49
580.183	27.24
580.378	27.25
580.572	27.23
580.766	27.16
580.961	27.23
581.155	27.05
581.35	27.19
581.544	27.04
581.738	27.07
581.933	26.59
582.127	26.64
582.321	26.77
582.516	26.72
582.71	26.84
582.904	26.74
583.099	26.66
583.293	26.67
583.487	26.41
583.681	26.77
583.875	26.49
584.07	26.99
584.264	27.16
584.458	27.4
584.652	27.26
584.846	27.26
585.04	27.07
585.234	27.07
585.428	27.12
585.623	27.13
585.817	26.72
586.011	26.9
586.205	26.84
586.399	26.75
586.593	26.64
586.787	26.63
586.981	26.87
587.174	27.26
587.368	27.41
587.562	27.39
587.756	27.37
587.95	27.6
588.144	27.67
588.338	27.61
588.532	27.65
588.725	27.8
588.919	27.77
589.113	27.29
589.307	27.1
589.501	27.06
589.694	27.13
589.888	27.36
590.082	27.08
590.275	26.97
590.469	26.68
590.663	26.79
590.856	26.65
591.05	26.89
591.244	27.17
591.437	27.33
591.631	27.27
591.824	27.13
592.018	27.13
592.212	27.47
592.405	27.4
592.599	27.58
592.792	27.32
592.986	27.44
593.179	27.37
593.372	27.51
593.566	27.47
593.759	27.49
593.953	27.91
594.146	27.63
594.339	27.41
594.533	27.56
594.726	27.44
594.92	27.46
595.113	27.25
595.306	26.97
595.499	26.83
595.693	26.7
595.886	26.83
596.079	26.64
596.272	26.86
596.466	26.98
596.659	26.88
596.852	27.02
597.045	27.07
597.238	27.19
597.431	27.22
597.624	27.18
597.818	27.2
598.011	27.18
598.204	27.07
598.397	26.92
598.59	26.87
598.783	26.93
598.976	26.87
599.169	26.87
599.362	26.91
599.555	27.15
599.748	27.26
599.941	27.23
600.134	26.97
600.326	26.98
600.519	27.24
600.712	26.94
600.905	27.17
601.098	27.29
601.291	27.38
601.483	27.29
601.676	27.3
601.869	27.25
602.062	27.34
602.255	27.55
602.447	27.74
602.64	27.53
602.833	27.78
603.025	27.55
603.218	27.41
603.411	27.22
603.603	27.26
603.796	27.28
603.989	27.17
604.181	26.91
604.374	26.86
604.566	26.92
604.759	27.02
604.951	27.09
605.144	27.02
605.336	27.02
605.529	27.15
605.721	27.26
605.914	27.35
606.106	27.52
606.299	27.91
606.491	27.98
606.683	27.74
606.876	27.78
607.068	27.57
607.26	27.78
607.453	28
607.645	28.04
607.837	27.82
608.03	27.91
608.222	28.02
608.414	27.8
608.606	27.99
608.799	28.21
608.991	28.2
609.183	28.33
609.375	28.32
609.567	28.4
609.759	28.51
609.952	28.77
610.144	28.49
610.336	28.65
610.528	28.92
610.72	28.73
610.912	28.57
611.104	28.7
611.296	28.87
611.488	29.02
611.68	28.93
611.872	28.87
612.064	28.73
612.256	28.82
612.448	28.68
612.64	28.54
612.832	28.76
613.023	28.83
613.215	28.77
613.407	28.71
613.599	28.9
613.791	28.7
613.983	28.52
614.174	28.5
614.366	28.69
614.558	28.18
614.75	28.23
614.941	28.08
615.133	28.04
615.325	28.01
615.516	27.91
615.708	27.56
615.9	27.85
616.091	28.18
616.283	27.91
616.475	27.72
616.666	28.04
616.858	28.26
617.049	28.08
617.241	28.31
617.432	28.23
617.624	28.32
617.815	28.27
618.007	27.83
618.198	27.66
618.39	27.87
618.581	27.73
618.773	27.64
618.964	27.33
619.155	27.61
619.347	27.43
619.538	27.56
619.729	27.47
619.921	27.41
620.112	27.79
620.303	27.64
620.494	27.31
620.686	27.46
620.877	27.56
621.068	27.47
621.259	27.62
621.451	27.37
621.642	27.41
621.833	27.43
622.024	27.36
622.215	27.4
622.406	27.38
622.597	27.59
622.788	27.46
622.98	27.59
623.171	27.76
623.362	27.77
623.553	28.03
623.744	27.77
623.935	27.57
624.126	27.95
624.317	27.6
624.508	27.7
624.698	27.59
624.889	27.86
625.08	27.62
625.271	27.23
625.462	26.99
625.653	26.86
625.844	27.08
626.034	27.24
626.225	27.11
626.416	27.15
626.607	27.11
626.798	27.2
626.988	27.01
627.179	27.37
627.37	27.55
627.56	27.62
627.751	27.8
627.942	27.84
628.132	27.7
628.323	27.68
628.514	27.41
628.704	27.67
628.895	27.67
629.085	27.8
629.276	27.27
629.466	27.67
629.657	27.46
629.847	27.57
630.038	27.42
630.228	27.74
630.419	27.72
630.609	28.14
630.8	27.89
630.99	27.89
631.181	27.9
631.371	28.39
631.561	27.77
631.752	27.93
631.942	27.78
632.132	27.86
632.323	27.72
632.513	27.57
632.703	27.25
632.893	27.21
633.084	27.34
633.274	27.13
633.464	27.05
633.654	27.17
633.844	27.11
634.034	27
634.225	26.96
634.415	26.79
634.605	26.82
634.795	27.17
634.985	27.22
635.175	27.06
635.365	27.3
635.555	27.11
635.745	27.34
635.935	27.54
636.125	27.48
636.315	27.66
636.505	27.32
636.695	27.59
636.885	27.78
637.075	27.75
637.265	28.2
637.455	28.3
637.644	28.14
637.834	28.17
638.024	27.84
638.214	28.56
638.404	28.44
638.593	29
638.783	28.64
638.973	28.53
639.163	28.6
639.352	28.22
639.542	28.09
639.732	28.69
639.921	28.44
640.111	28.57
640.301	27.81
640.49	27.69
640.68	27.77
640.87	28.12
641.059	27.99
641.249	28.06
641.438	28.32
641.628	28.2
641.817	28.13
642.007	28.27
642.196	28.53
642.386	29.05
642.575	29
642.764	28.94
642.954	28.47
643.143	28.64
643.333	28.56
643.522	28.54
643.711	28.53
643.901	28.39
644.09	28.5
644.279	28.53
644.469	27.6
644.658	27.45
644.847	27.42
645.036	27.76
645.226	27.58
645.415	27.67
645.604	27.2
645.793	27.17
645.982	26.84
646.171	26.69
646.361	26.71
646.55	27.05
646.739	27.08
646.928	27.08
647.117	27.04
647.306	27.1
647.495	27.13
647.684	27.52
647.873	27.7
648.062	27.93
648.251	28.06
648.44	27.77
648.629	27.88
648.818	27.87
649.007	27.84
649.196	27.87
649.384	28.09
649.573	28.04
649.762	28.49
649.951	28.32
650.14	28.14
650.328	27.76
650.517	27.58
650.706	27.83
650.895	28
651.083	28.4
651.272	28.22
651.461	28.66
651.65	28.52
651.838	27.89
652.027	28.31
652.216	28.44
652.404	28.35
652.593	28.82
652.781	28.75
652.97	28.13
653.158	27.56
653.347	27.26
653.535	26.79
653.724	26.72
653.912	26.93
654.101	27.02
654.289	26.74
654.478	27.45
654.666	27.35
654.855	27.48
655.043	28.13
655.231	28.27
655.42	28.19
655.608	27.83
655.796	28.38
655.985	28.19
656.173	27.63
656.361	28.26
656.55	27.77
656.738	27.59
656.926	27.24
657.114	27.24
657.302	26.59
657.491	26.99
657.679	27.21
657.867	26.31
658.055	26.51
658.243	26.86
658.431	26.61
658.619	26.65
658.807	26.75
658.996	26.83
659.184	26.73
659.372	27.11
659.56	27.28
659.748	27.19
659.936	27.68
660.124	27.5
660.311	27.5
660.499	27.44
660.687	27.89
660.875	28.04
661.063	28.17
661.251	27.94
661.439	27.75
661.627	27.75
661.814	27.69
662.002	27.81
662.19	28.16
662.378	28.03
662.565	27.81
662.753	27.43
662.941	26.99
663.129	26.95
663.316	27.36
663.504	27.9
663.692	28.01
663.879	27.89
664.067	27.57
664.254	27.06
664.442	26.89
664.63	27.41
664.817	27.58
665.005	27.68
665.192	27.54
665.38	27.71
665.567	27.39
665.755	27.21
665.942	27.53
666.13	27.83
666.317	28.01
666.504	27.84
666.692	27.69
666.879	27.53
667.067	28.08
667.254	28.21
667.441	28.17
667.629	28.46
667.816	28.22
668.003	28.51
668.19	27.84
668.378	27.73
668.565	28.26
668.752	28.28
668.939	27.97
669.127	27.75
669.314	27.62
669.501	27.74
669.688	27.62
669.875	27.95
670.062	27.6
670.249	28
670.436	27.84
670.623	27.56
670.81	27.2
670.997	27.53
671.184	27.1
671.371	27.11
671.558	26.61
671.745	26.71
671.932	26.37
672.119	25.96
672.306	26.49
672.493	26.97
672.68	26.92
672.867	27.34
673.054	27.66
673.24	27.72
673.427	27.96
673.614	28.25
673.801	28.56
673.988	28.6
674.174	28.94
674.361	28.81
674.548	29.15
674.734	29.06
674.921	28.9
675.108	28.56
675.294	28.91
675.481	28.71
675.668	28.59
675.854	28.57
676.041	28.27
676.227	28.56
676.414	28.27
676.601	27.83
676.787	28.42
676.974	28.26
677.16	28.25
677.347	28.16
677.533	28.27
677.719	28.06
677.906	28.07
678.092	28.66
678.279	28.28
678.465	28.56
678.651	28.36
678.838	28.37
679.024	28.21
679.21	28.31
679.397	28.31
679.583	28
679.769	28.02
679.955	27.34
680.142	27.16
680.328	27.37
680.514	27.15
680.7	27.21
680.886	26.96
681.073	27.31
681.259	26.9
681.445	26.64
681.631	26.96
681.817	26.74
682.003	27.2
682.189	27.47
682.375	27.42
682.561	27.63
682.747	27.68
682.933	27.34
683.119	27.32
683.305	27.82
683.491	27.94
683.677	27.46
683.863	27.76
684.049	27.94
684.235	28.17
684.42	28.05
684.606	27.44
684.792	27.49
684.978	27.36
685.164	27.28
685.349	27.14
685.535	27.19
685.721	27.23
685.907	26.93
686.092	26.67
686.278	26.04
686.464	26.34
686.649	27.1
686.835	27.52
687.021	27.92
687.206	27.7
687.392	28.29
687.577	28.24
687.763	28.17
687.948	28.83
688.134	28.73
688.319	28.89
688.505	28.89
688.69	28.68
688.876	28.34
689.061	28
689.247	28.03
689.432	27.24
689.618	27.34
689.803	27.39
689.988	27.44
690.174	27.93
690.359	27.65
690.544	27.55
690.73	27.67
690.915	27.74
691.1	27.25
691.285	27.37
691.471	28.06
691.656	28.57
691.841	29.06
692.026	28.91
692.211	28.29
692.396	28.24
692.582	27.95
692.767	27.72
692.952	27.4
693.137	28.52
693.322	28.83
693.507	28.38
693.692	27.56
693.877	27.09
694.062	27.23
694.247	27.61
694.432	27.77
694.617	27.73
694.802	27.28
694.987	27.61
695.172	27.45
695.357	27.17
695.541	27.15
695.726	27.56
695.911	27.42
696.096	26.61
696.281	26.09
696.466	26.23
696.65	26.48
696.835	26.73
697.02	26.71
697.204	27.25
697.389	27.04
697.574	27.02
697.759	27.13
697.943	27.14
698.128	27.6
698.312	27.61
698.497	27.92
698.682	27.97
698.866	28.1
699.051	27.75
699.235	27.17
699.42	26.95
699.604	27.14
699.789	26.87
699.973	27.23
700.158	27.3
700.342	26.92
700.527	26.94
700.711	26.61
700.895	26.18
701.08	26.97
701.264	26.86
701.448	27.38
701.633	27.27
701.817	27.34
702.001	27.19
702.186	26.93
702.37	28.14
702.554	27.54
702.738	27.88
702.923	27.88
703.107	27.13
703.291	27.22
703.475	26.66
703.659	26.31
703.843	26.38
704.027	26.57
704.212	26.65
704.396	26.11
704.58	26.77
704.764	26.64
704.948	27.07
705.132	27.21
705.316	27.49
705.5	27.96
705.684	28.18
705.868	28.65
706.052	29.18
706.235	29.31
706.419	29.84
706.603	29.57
706.787	29.87
706.971	30
707.155	29.6
707.339	29.09
707.522	29.04
707.706	29.22
707.89	28.57
708.074	28.17
708.257	28.26
708.441	27.89
708.625	27.33
708.808	26.73
708.992	27.15
709.176	27.04
709.359	27.25
709.543	27.53
709.727	26.99
709.91	28.08
710.094	27.98
710.277	28.27
710.461	27.92
710.644	28.38
710.828	28.37
711.011	27.86
711.195	28.61
711.378	28.61
711.562	28.62
711.745	29.3
711.928	28.04
712.112	28.5
712.295	28.38
712.478	28.45
712.662	28.28
712.845	28.03
713.028	28.03
713.212	27.5
713.395	28.62
713.578	28.64
713.761	28.46
713.945	29.32
714.128	28.55
714.311	27.66
714.494	27.89
714.677	28.18
714.86	28.84
715.043	28.85
715.227	29.44
715.41	28.03
715.593	28.25
715.776	28.27
715.959	27.77
716.142	27.79
716.325	28.46
716.508	28.42
716.691	28
716.874	28.37
717.057	28.76
717.239	28.22
717.422	28.21
717.605	28.54
717.788	28
717.971	28.45
718.154	28.44
718.337	28.46
718.519	28.58
718.702	29.61
718.885	29.64
719.068	29.51
719.25	29.97
719.433	30.23
719.616	29.5
719.798	30.11
719.981	29.27
720.164	29.31
720.346	28.45
720.529	28.84
720.712	28.26
720.894	26.93
721.077	26.86
721.259	26.71
721.442	27.15
721.624	26.71
721.807	26.93
721.989	27.29
722.172	26.92
722.354	28.52
722.537	28.77
722.719	28.36
722.901	30.05
723.084	29.93
723.266	29.72
723.448	28.83
723.631	29.36
723.813	28.17
723.995	27.53
724.178	27.98
724.36	27.52
724.542	27.97
724.724	27.96
724.907	26.64
725.089	27.41
725.271	27.7
725.453	27.5
725.635	26.99
725.817	27.44
725.999	28.11
726.181	28.35
726.364	27.09
726.546	25.07
726.728	25.01
726.91	26.01
727.092	25.43
727.274	25.94
727.456	26.76
727.638	27.51
727.819	26.76
728.001	26
728.183	25.85
728.365	26.37
728.547	26.79
728.729	27.18
728.911	26.76
729.093	25.89
729.274	25.18
729.456	24.91
729.638	24.03
729.82	25.18
730.001	26.07
730.183	26
730.365	27
730.546	27.5
730.728	26.93
730.91	26.75
731.091	27.35
731.273	27.63
731.455	27.36
731.636	28.27
731.818	28.67
731.999	28.92
732.181	29.49
732.362	28.84
732.544	28.35
732.725	29.62
732.907	30.06
733.088	30.78
733.27	30.91
733.451	31.59
733.633	30.86
733.814	30.53
733.995	29.77
734.177	30.33
734.358	30.34
734.539	31.16
734.721	31.06
734.902	30.66
735.083	30.45
735.264	30.79
735.446	30.8
735.627	30.99
735.808	30.85
735.989	31.26
736.17	30.67
736.351	31.43
736.533	31.58
736.714	30.77
736.895	30.17
737.076	30.14
737.257	28.99
737.438	29.05
737.619	30.28
737.8	29.84
737.981	30.3
738.162	29.92
738.343	29.17
738.524	29.15
738.705	28.6
738.886	28.91
739.067	28.46
739.247	29.36
739.428	29.14
739.609	27.91
739.79	27.83
739.971	27.32
740.151	26.58
740.332	26.62
740.513	26.67
740.694	25.92
740.874	25.73
741.055	25.36
741.236	26.12
741.417	27.36
741.597	28.08
741.778	28.6
741.958	28.2
742.139	29.26
742.32	28.91
742.5	28.54
742.681	30.65
742.861	31.94
743.042	31.19
743.222	28.64
743.403	27.93
743.583	28.1
743.764	28
743.944	28.44
744.124	28.18
744.305	27.69
744.485	28.28
744.666	27.43
744.846	27.35
745.026	29.17
745.207	31.68
745.387	31.02
745.567	29.86
745.747	30.45
745.928	30.06
746.108	30.73
746.288	31.18
746.468	31.24
746.648	31.23
746.829	32.08
747.009	31.4
747.189	30.43
747.369	31.56
747.549	32.3
747.729	32.6
747.909	31.58
748.089	30.43
748.269	31.14
748.449	30.75
748.629	30.05
748.809	27.53
748.989	27.31
749.169	27.19
749.349	26.98
749.529	27.54
749.709	27.56
749.889	28.27
750.068	28.41
750.248	29.03
750.428	28.19
750.608	28.94
750.788	30.96
750.967	31.34
751.147	31.59
751.327	30.99
751.507	30.3
751.686	28.61
751.866	28.8
752.046	29.62
752.225	28.7
752.405	28.14
752.585	28.15
752.764	26.43
752.944	26.06
753.123	26.97
753.303	27.24
753.482	28.29
753.662	30
753.841	30.2
754.021	30.38
754.2	30.53
754.38	31.01
754.559	31.45
754.739	31.2
754.918	31.17
755.097	29.58
755.277	29.3
755.456	26.87
755.635	26.56
755.815	24.92
755.994	23.15
756.173	22.56
756.352	22.93
756.532	22.2
756.711	22.8
756.89	23.4
757.069	22.97
757.248	22.49
757.427	24.56
757.607	24.48
757.786	26.26
757.965	27.16
758.144	27.29
758.323	28.19
758.502	28.82
758.681	29.25
758.86	28.15
759.039	30.44
759.218	31.27
759.397	30.64
759.576	29.97
759.755	29.45
759.934	29.99
760.113	30.27
760.291	29.22
760.47	28.86
760.649	30.1
760.828	31.4
761.007	29.84
761.186	29.49
761.364	28.77
761.543	28.12
761.722	28.92
761.901	28.1
762.079	28.9
762.258	29.48
762.437	29.44
762.615	29.93
762.794	29.67
762.972	30.63
763.151	30.94
763.33	31.2
763.508	30.83
763.687	30.39
763.865	30.93
764.044	30.86
764.222	30.09
764.401	29.89
764.579	28.1
764.758	27.36
764.936	26.37
765.114	26.47
765.293	26.48
765.471	26.57
765.65	26.44
765.828	25.7
766.006	24.57
766.184	25.23
766.363	24.8
766.541	24.92
766.719	25.25
766.898	26.37
767.076	24.15
767.254	23.11
767.432	24.38
767.61	24.63
767.788	25.39
767.967	26.63
768.145	25.96
768.323	26.03
768.501	26.72
768.679	26.56
768.857	25.98
769.035	28.44
769.213	29.57
769.391	29.35
769.569	29.5
769.747	30.12
769.925	28.24
770.103	28.23
770.281	28.89
770.459	29.72
770.636	30.85
770.814	30.45
770.992	30.01
771.17	30.19
771.348	30.62
771.525	29.29
771.703	28.29
771.881	30.01
772.059	30.11
772.236	29.92
772.414	28.9
772.592	29.4
772.769	28.16
772.947	26.75
773.125	25.41
773.302	25.24
773.48	27.18
773.657	25.71
773.835	26.16
774.013	25.73
774.19	28.3
774.368	28.74
774.545	27.6
774.723	28.87
774.9	33.04
775.077	33.47
775.255	33.5
775.432	33.95
775.61	35.52
775.787	35.14
775.964	35.68
776.142	33.88
776.319	36.1
776.496	35.31
776.674	34.48
776.851	30.81
777.028	31.83
777.205	31.73
777.382	32.35
777.56	31.8
777.737	33.51
777.914	33.2
778.091	32.91
778.268	29.53
778.445	31.21
778.622	30.84
778.8	30.08
778.977	29.33
779.154	27.94
779.331	25.52
779.508	27.01
779.685	24.16
779.862	25.39
780.038	24.85
780.215	26.41
780.392	25.29
780.569	25.09
780.746	26.58
780.923	27.41
781.1	30.42
781.277	31.63
781.453	29.59
781.63	30.41
781.807	29.91
781.984	29.84
782.16	28.06
782.337	29.91
782.514	32.48
782.691	32.6
782.867	33.25
783.044	32.57
783.221	31.93
783.397	34.79
783.574	36.79
783.75	37.62
783.927	36.71
784.103	39.75
784.28	37.31
784.456	35.29
784.633	36.23
784.809	32.12
784.986	33.47
785.162	32.58
785.339	28.53
785.515	26.04
785.692	23.25
785.868	24.81
786.044	20.35
786.221	22.41
786.397	23.67
786.573	22.58
786.749	26.01
786.926	22.12
787.102	23.47
787.278	23.37
787.454	25.24
787.631	25.11
787.807	22.56
787.983	22.25
788.159	23.04
788.335	22.43
788.511	22.26
788.687	22.75
788.863	26.14
789.039	24.93
789.216	27.43
789.392	26.91
789.568	28.39
789.744	30.86
789.919	35.35
790.095	32.76
790.271	32.87
790.447	33.82
790.623	33.5
790.799	32.26
790.975	33.42
791.151	32.72
791.327	32.45
791.502	34.38
791.678	35.34
791.854	31.86
792.03	31.98
792.205	31.9
792.381	30.8
792.557	31.75
792.733	31.78
792.908	33.22
793.084	32.58
793.259	30.23
793.435	29.08
793.611	28.04
793.786	27.57
793.962	28.18
794.137	29.52
794.313	28.69
794.488	27.35
794.664	26.03
794.839	25.07
795.015	27.95
795.19	27.11
795.366	26.28
795.541	25.54
795.716	26.91
795.892	27.74
796.067	27.12
796.242	29.01
796.418	26.74
796.593	29.67
796.768	28.1
796.944	25.52
797.119	28.85
797.294	27.28
797.469	29.79
797.644	31.41
797.82	30.54
797.995	27.79
798.17	28.06
798.345	31.13
798.52	26.89
798.695	27.04
798.87	28.55
799.045	27.35
799.22	29.71
799.395	26.53
799.57	24.42
799.745	23.55
799.92	27.48
800.095	27.33
800.27	27
800.445	28.99
800.62	30.02
800.795	27.59
800.97	25.49
801.145	28.29
801.319	29.99
801.494	33.87
801.669	36.43
801.844	34.27
802.018	31.64
802.193	30.69
802.368	28.89
802.543	28.56
802.717	32.18
802.892	36.27
803.067	33.45
803.241	31.05
803.416	23.86
803.59	23.31
803.765	22.95
803.94	21.3
804.114	22.39
804.289	25.44
804.463	25.9
804.638	24.37
804.812	21.12
804.986	18.44
805.161	19.99
805.335	23.78
805.51	24.66
805.684	25.47
805.858	28.33
806.033	25.92
806.207	25.04
806.381	23.99
806.556	24.38
806.73	24.38
806.904	24.91
807.078	25.56
807.253	27.16
807.427	27.75
807.601	28.2
807.775	27.11
807.949	29.65
808.123	31.14
808.298	32.3
808.472	31.08
808.646	33.11
808.82	34.58
808.994	33.19
809.168	32.06
809.342	31.23
809.516	30.55
809.69	33.31
809.864	37.61
810.038	34.77
810.212	34.64
810.385	32.24
810.559	32.78
810.733	33.16
810.907	32.39
811.081	32.33
811.255	33.13
811.428	32.96
811.602	33.43
811.776	33.23
811.95	34.66
812.123	34.1
812.297	35.26
812.471	35.84
812.644	32.32
812.818	34.78
812.992	34.15
813.165	31.3
813.339	31.72
813.512	24.4
813.686	24.16
813.86	27.47
814.033	26.01
814.207	30.29
814.38	28.81
814.554	32.73
814.727	32.71
814.9	35.24
815.074	40.24
815.247	37.83
815.421	41.28
815.594	37.12
815.767	33.13
815.941	36.13
816.114	36.16
816.287	37.36
816.46	34.59
816.634	34.32
816.807	31.73
816.98	29.71
817.153	31.02
817.327	32.38
817.5	34.62
817.673	34.1
817.846	33.59
818.019	28.21
818.192	29.22
818.365	25.09
818.538	28.01
818.711	30.6
818.884	25.44
819.057	25.93
819.23	26.1
819.403	24.91
819.576	26.46
819.749	26.5
819.922	26
820.095	27.11
820.268	31.92
820.441	28.87
820.614	26.84
820.786	29.47
820.959	27.79
821.132	27.61
821.305	27.32
821.477	27.49
821.65	27.27
821.823	28.02
821.996	27.64
822.168	27.04
822.341	27.91
822.514	27.91
822.686	26.92
822.859	27.15
823.031	27.11
823.204	26.97
823.376	25.7
823.549	25.34
823.722	25.33
823.894	25.4
824.067	25.52
824.239	24.8
824.411	25.67
824.584	26.53
824.756	27.63
824.929	26.6
825.101	27.75
825.273	29.5
825.446	29.28
825.618	29.11
825.79	28.24
825.963	27.53
826.135	27.69
826.307	26.01
826.479	25.18
826.652	22.99
826.824	24.59
826.996	23.57
827.168	22.2
827.34	23.16
827.512	24.5
827.684	25.58
827.856	26.2
828.029	26.28
828.201	27.79
828.373	26.93
828.545	27.6
828.717	27.36
828.889	28.71
829.061	30.13
829.232	29.63
829.404	28.32
829.576	27.96
829.748	28.68
829.92	31.77
830.092	29.46
830.264	31.45
830.436	32.65
830.607	33.72
830.779	31.14
830.951	32.48
831.123	32.71
831.294	31.51
831.466	29.32
831.638	29.23
831.809	25.01
831.981	25.06
832.153	27.18
832.324	26.13
832.496	25.63
832.667	27.51
832.839	25.91
833.011	23.93
833.182	23.08
833.354	22.88
833.525	23.11
833.697	25.91
833.868	25.36
834.039	25.68
834.211	27.88
834.382	28.08
834.554	28.73
834.725	28.16
834.896	28.7
835.068	31.99
835.239	31.25
835.41	31.28
835.581	29.38
835.753	30.09
835.924	28.08
836.095	23.06
836.266	21.32
836.438	21.68
836.609	23.09
836.78	25.95
836.951	26.19
837.122	25.34
837.293	25.93
837.464	23.89
837.635	28.23
837.806	30.36
837.977	35.91
838.148	39.13
838.319	35.62
838.49	35.61
838.661	39.45
838.832	36.94
839.003	39.84
839.174	36.78
839.345	37.18
839.516	33.27
839.687	33.77
839.857	36.12
840.028	32.57
840.199	36.48
840.37	37.64
840.54	28.35
840.711	26.39
840.882	27.95
841.053	28.95
841.223	30.9
841.394	26.29
841.564	27.69
841.735	27.38
841.906	29.46
842.076	25.85
842.247	28.83
842.417	35.25
842.588	41.97
842.758	41.59
842.929	41.13
843.099	44.44
843.27	49.37
843.44	48.49
843.611	44.4
843.781	40.13
843.951	35.75
844.122	32.62
844.292	35.43
844.462	19.89
844.633	19.36
844.803	21.37
844.973	16.52
845.144	22.01
845.314	11.41
845.484	14.49
845.654	18.32
845.824	37.23
845.995	27.17
846.165	18.68
846.335	19.2
846.505	24.05
846.675	26.24
846.845	22.4
847.015	26.82
847.185	35.88
847.355	35.63
847.525	40.45
847.695	29.17
847.865	41.04
848.035	47.1
848.205	54.36
848.375	61.15
848.545	58.78
848.715	63.32
848.884	57.76
849.054	62.18
849.224	58.21
849.394	78.22
849.564	62.53
849.733	61.61
849.903	35.07
850.073	40.56
850.243	25.53
850.412	40.1
850.582	45.68
850.752	29.96
850.921	15.45
851.091	47.95
851.26	25.6
851.43	39.7
851.599	35.83
851.769	53.75
851.939	53.23
852.108	56.59
852.278	48.06
852.447	40.87
852.616	46.42
852.786	61.99
852.955	58.78
853.125	56.53
853.294	56.19
853.463	52.24
853.633	43.44
853.802	38.52
853.971	54.57
854.141	56.85
854.31	56.73
854.479	61.78
854.648	41.57
854.818	39.98
854.987	41.57
855.156	40.94
855.325	46.59
855.494	57.39
855.663	59.89
855.832	44.76
856.001	47.92
856.171	51.26
856.34	44.41
856.509	51.31
856.678	42
856.847	37.34
857.016	38.42
857.185	28.64
857.353	27.33
857.522	20.02
857.691	16.32
857.86	9.2
858.029	-4.67
858.198	1.65
858.367	-2.49
858.535	0.34
858.704	2.21
858.873	18.71
859.042	26.11
859.21	17.21
859.379	37.37
859.548	52.94
859.717	62.07
859.885	64.42
860.054	50.9
860.222	58.38
860.391	57.09
860.56	67.92
860.728	56.75
860.897	70.99
861.065	71.83
861.234	74.25
861.402	56.55
861.571	53.31
861.739	60.6
861.908	64.79
862.076	61.27
862.244	51.81
862.413	47.47
862.581	47.62
862.749	39.26
862.918	41.35
863.086	32.09
863.254	52.58
863.423	54.53
863.591	53.92
863.759	52.1
863.927	56.32
864.096	69.8
864.264	72.1
864.432	77.7
864.6	80.19
864.768	74.25
864.936	78.76
865.104	71.16
865.272	59.27
865.44	73.93
865.608	72.33
865.776	81.2
865.944	72.25
866.112	73.54
866.28	69.26
866.448	67.16
866.616	56.81
866.784	46.54
866.952	51.51
867.12	57.49
867.288	45.6
867.455	39.17
867.623	36.3
867.791	18.25
867.959	7.85
868.127	5.8
868.294	12.59
868.462	20.33
868.63	20.94
868.797	19.19
868.965	21.82
869.133	26.64
869.3	34.31
869.468	38.1
869.636	62.4
869.803	69.71
869.971	75.55
870.138	107.18
870.306	91.09
870.473	71.74
870.641	62.19
870.808	54.67
870.975	47.15
871.143	40.45
871.31	12.25
871.478	-1.58
871.645	6.82
871.812	27.49
871.98	18.11
872.147	14.57
872.314	22.02
872.482	38.88
872.649	38.36
872.816	43.65
872.983	46.93
873.15	54.38
873.318	54.54
873.485	49.18
873.652	34.56
873.819	50.53
873.986	47.39
874.153	52.99
874.32	48.32
874.487	49.27
874.654	28.49
874.821	27.12
874.988	30.29
875.155	24.71
875.322	-0.87
875.489	11.49
875.656	-9.27
875.823	-29.86
875.99	-30.74
876.157	-39.36
876.324	-9.8
876.49	-13.06
876.657	-17.69
876.824	-10.43
876.991	1.16
877.157	24.09
877.324	26.77
877.491	45.6
877.658	48.91
877.824	47.33
877.991	45.44
878.157	34.01
878.324	49.08
878.491	59.26
878.657	42.69
878.824	33.6
878.99	32.48
879.157	27.84
879.323	14.59
879.49	17.26
879.656	45.94
879.823	49.16
879.989	41.53
880.156	39.06
880.322	29.15
880.488	39.08
880.655	43.9
880.821	40.69
880.987	38.85
881.154	39.94
881.32	42.96
881.486	25.8
881.652	24.7
881.819	33.02
881.985	37.16
882.151	38.6
882.317	35.93
882.483	36.89
882.649	36.69
882.816	34.79
882.982	33.34
883.148	30.12
883.314	32.75
883.48	32
883.646	28.94
883.812	26.33
883.978	25.09
884.144	25.95
884.31	25.1
884.476	26.59
884.642	27.61
884.807	30.29
884.973	31.92
885.139	32.63
885.305	31.76
885.471	31.97
885.637	29.14
885.802	31.86
885.968	30.21
886.134	30.63
886.3	28.8
886.465	28.93
886.631	28.24
886.797	29.8
886.962	29.09
887.128	29.09
887.293	30.83
887.459	33.39
887.625	35.24
887.79	35.99
887.956	29.9
888.121	30.29
888.287	30.04
888.452	23.28
888.618	19.01
888.783	16.06
