Data from 2938091_Reflection_2.txt Node
Date: Sat Jul 11 19:16:59 EDT 2015
User: robert
Spectrometer: USB4E03001
Autoset integration time: false
Trigger mode: 4
Integration Time (sec): 1.000000E-1
Scans to average: 10
Electric dark correction enabled: true
Nonlinearity correction enabled: false
Boxcar width: 5
Stray light correction enabled: false
XAxis mode: Wavelengths
Stop averaging: false
Number of Pixels in Spectrum: 3648
>>>>>Begin Spectral Data<<<<<
177.566	52.68
177.785	37.3
178.005	54.33
178.225	68.54
178.445	59.95
178.665	60.26
178.885	47.65
179.105	75.11
179.324	84.44
179.544	57.4
179.764	26.9
179.984	16.26
180.204	7.18
180.423	44.06
180.643	35.48
180.863	27.77
181.083	-20.54
181.302	30.32
181.522	-109.52
181.742	-10.34
181.961	48.39
182.181	-1.95
182.401	77.86
182.621	74.64
182.84	54.13
183.06	76.97
183.279	90.48
183.499	114.69
183.719	94.59
183.938	94.55
184.158	83.48
184.377	92.93
184.597	86.88
184.816	82.75
185.036	87.99
185.256	88.14
185.475	73.48
185.695	78.95
185.914	70.13
186.134	80.05
186.353	77.46
186.572	68.7
186.792	73.26
187.011	106.3
187.231	125.77
187.45	151.23
187.67	150.07
187.889	177.71
188.108	119.66
188.328	101.8
188.547	88.95
188.766	111.39
188.986	365.15
189.205	132.42
189.424	78.6
189.644	84.34
189.863	64.85
190.082	64.18
190.302	72.03
190.521	60.38
190.74	74.55
190.959	43.47
191.178	40.27
191.398	12.12
191.617	22.11
191.836	52.05
192.055	39.62
192.274	41.34
192.494	51.75
192.713	54.43
192.932	55.42
193.151	54.05
193.37	79.97
193.589	60.48
193.808	20.93
194.027	11.52
194.246	-4459.18
194.465	-20.64
194.685	39.99
194.904	5.28
195.123	9.16
195.342	-11.45
195.561	283.74
195.78	213.79
195.999	142.1
196.218	180.98
196.436	218.07
196.655	94.94
196.874	65.58
197.093	19.48
197.312	-8.6
197.531	-37.76
197.75	-15.25
197.969	-73.69
198.188	-98.02
198.407	-438.48
198.625	-244.11
198.844	-17.8
199.063	-18.05
199.282	-9.9
199.501	73.46
199.719	89.44
199.938	64.95
200.157	58.34
200.376	58.92
200.594	39.02
200.813	41.45
201.032	37.53
201.251	35.13
201.469	34.09
201.688	24.68
201.907	47.75
202.125	55.03
202.344	53.95
202.563	42.28
202.781	35.69
203	49.93
203.218	45.88
203.437	31.54
203.656	37.91
203.874	55.11
204.093	49.7
204.311	22.02
204.53	-14.03
204.748	19.94
204.967	69.44
205.185	61.27
205.404	51.3
205.622	60.9
205.841	75.54
206.059	77.34
206.278	71.85
206.496	77.89
206.715	49.01
206.933	58.39
207.151	52.12
207.37	52.73
207.588	64.19
207.806	63.31
208.025	64.46
208.243	64.16
208.461	46.02
208.68	56.25
208.898	60.92
209.116	90.39
209.335	71.12
209.553	63.48
209.771	40.64
209.989	21.18
210.208	-90.14
210.426	-529.18
210.644	-1517.61
210.862	-63.41
211.081	-93.02
211.299	-133.48
211.517	-156.59
211.735	-323.82
211.953	-376.94
212.171	-237.93
212.39	-254.74
212.608	-94.9
212.826	-113.12
213.044	-16.8
213.262	33.75
213.48	72.93
213.698	-691.2
213.916	442.79
214.134	266.6
214.352	133.65
214.57	151.24
214.788	77.18
215.006	79.1
215.224	86.29
215.442	63.47
215.66	77.62
215.878	48
216.096	52.87
216.314	46.78
216.532	37.54
216.75	52.18
216.968	35.85
217.185	56.62
217.403	58.35
217.621	44.86
217.839	51.43
218.057	36.58
218.275	32.9
218.492	11.55
218.71	11.36
218.928	15.03
219.146	30.87
219.363	23.58
219.581	20.64
219.799	5.71
220.017	7.04
220.234	14.31
220.452	61.79
220.67	49.91
220.887	46.21
221.105	9.66
221.323	-20.47
221.54	-98.2
221.758	-56.36
221.976	-132.42
222.193	-511.95
222.411	-59.6
222.629	-148.86
222.846	-96.4
223.064	-47.83
223.281	-29.82
223.499	-3.54
223.716	-0.98
223.934	21.04
224.151	6.26
224.369	19.11
224.586	20.24
224.804	23.85
225.021	30.54
225.239	19.34
225.456	1.11
225.674	13.19
225.891	16.98
226.108	25.35
226.326	32.22
226.543	45.12
226.76	35.24
226.978	30.75
227.195	32.55
227.413	25.17
227.63	23.49
227.847	26.36
228.064	21.31
228.282	20.44
228.499	22.14
228.716	20.93
228.934	20.94
229.151	22.37
229.368	20.44
229.585	13.94
229.802	14.07
230.02	14.61
230.237	15.55
230.454	16.16
230.671	12.24
230.888	10.61
231.105	7.37
231.323	6.29
231.54	1.81
231.757	5.23
231.974	16.17
232.191	16.43
232.408	16.39
232.625	12.3
232.842	12.82
233.059	22.7
233.276	18.06
233.493	22.7
233.71	20.05
233.927	23.62
234.144	19.47
234.361	13.45
234.578	12.54
234.795	16.02
235.012	22.2
235.229	18.04
235.446	18.63
235.663	17.91
235.879	10.28
236.096	13.51
236.313	16.64
236.53	19.4
236.747	24.14
236.964	24.86
237.181	25.89
237.397	24.49
237.614	23.03
237.831	19.58
238.048	21.79
238.264	30.16
238.481	26.36
238.698	26.57
238.915	22.39
239.131	23.66
239.348	23.61
239.565	21.46
239.781	17.88
239.998	17.53
240.215	13.04
240.431	9.92
240.648	6.16
240.865	4.87
241.081	6.52
241.298	9.37
241.514	6.02
241.731	7.01
241.947	4.64
242.164	7.67
242.38	8.2
242.597	11.98
242.814	13.63
243.03	13.62
243.246	15.66
243.463	13.17
243.679	12.75
243.896	14.59
244.112	11.86
244.329	13.19
244.545	11.81
244.762	9.57
244.978	6.51
245.194	5.4
245.411	6.78
245.627	7.5
245.843	6.88
246.06	3.86
246.276	3.9
246.492	4.93
246.709	5.68
246.925	5.88
247.141	7.48
247.357	7.58
247.574	6.87
247.79	6.4
248.006	5.73
248.222	6.83
248.439	8.28
248.655	8.66
248.871	8.5
249.087	8.97
249.303	9.22
249.519	10.21
249.736	8.8
249.952	8.76
250.168	8.68
250.384	9.02
250.6	7.73
250.816	8.82
251.032	6.79
251.248	6.67
251.464	6.66
251.68	5.8
251.896	2.35
252.112	3.23
252.328	4.44
252.544	3.43
252.76	2.53
252.976	4.05
253.192	2.29
253.408	1.74
253.624	1.85
253.84	-0.66
254.056	0.27
254.272	3.31
254.487	6.72
254.703	10
254.919	12.45
255.135	11.69
255.351	13.23
255.567	12.37
255.782	11.7
255.998	12.47
256.214	11.99
256.43	9.48
256.646	2.15
256.861	-3.14
257.077	-7.49
257.293	-7.69
257.508	-5.86
257.724	-8.19
257.94	-7.36
258.155	-3.83
258.371	-2.82
258.587	-1.41
258.802	0.41
259.018	4
259.234	4.94
259.449	4.88
259.665	5.63
259.88	5.59
260.096	5.88
260.312	6.54
260.527	6.49
260.743	7.2
260.958	7.36
261.174	7.84
261.389	7.47
261.605	7.73
261.82	9.17
262.036	9.8
262.251	10.27
262.466	10.37
262.682	10.22
262.897	9.71
263.113	9.13
263.328	9.92
263.543	8.42
263.759	8.19
263.974	7.96
264.189	6.04
264.405	2.71
264.62	3.63
264.835	3.24
265.051	4.69
265.266	3.6
265.481	3.14
265.696	4.19
265.912	7.31
266.127	6.64
266.342	8.27
266.557	10.38
266.773	11.39
266.988	12.14
267.203	12.37
267.418	11.74
267.633	11.56
267.848	13.86
268.064	11
268.279	11.01
268.494	9.28
268.709	7.63
268.924	5.12
269.139	5.86
269.354	5.28
269.569	5.37
269.784	6.18
269.999	8.32
270.214	7.66
270.429	9.53
270.644	8.58
270.859	11.52
271.074	11.96
271.289	12.49
271.504	12.1
271.719	13.55
271.934	13.46
272.149	13.43
272.363	14.03
272.578	12.07
272.793	11.86
273.008	12
273.223	11.92
273.438	11.07
273.653	10.38
273.867	10.17
274.082	6.8
274.297	6.52
274.512	5.86
274.726	3.25
274.941	4.27
275.156	4.03
275.371	3.46
275.585	1.61
275.8	1.3
276.015	2.19
276.229	1.67
276.444	4.66
276.659	3.66
276.873	4.43
277.088	5.03
277.302	4.28
277.517	4.44
277.732	5.88
277.946	7.34
278.161	9.37
278.375	9.01
278.59	11.6
278.804	9.12
279.019	10.76
279.233	11.18
279.448	9.88
279.662	12.09
279.877	11.96
280.091	9.04
280.306	9.34
280.52	8.34
280.735	8.33
280.949	6.93
281.163	7.37
281.378	7.43
281.592	6.88
281.806	7.86
282.021	5.88
282.235	6.42
282.449	7.18
282.664	6.38
282.878	8.24
283.092	8.41
283.307	9.16
283.521	9.88
283.735	9.29
283.949	8.28
284.164	9.8
284.378	10.54
284.592	9.26
284.806	8.79
285.02	9.02
285.234	8.16
285.449	9.05
285.663	8.28
285.877	8.51
286.091	8.57
286.305	8.72
286.519	8.93
286.733	9.6
286.947	10.79
287.161	11.62
287.375	12.47
287.589	11.96
287.803	12
288.017	11.76
288.231	11.77
288.445	13.09
288.659	14.54
288.873	11.21
289.087	9.81
289.301	8.38
289.515	9.08
289.729	9.16
289.943	10.05
290.157	9.27
290.371	9.97
290.584	9.62
290.798	9.08
291.012	7.66
291.226	11.65
291.44	12.37
291.654	13.81
291.867	12.09
292.081	11.08
292.295	9.85
292.509	12
292.722	11.12
292.936	11.8
293.15	9.81
293.364	9.18
293.577	6.57
293.791	7.44
294.005	8.2
294.218	9.31
294.432	9.85
294.645	12.33
294.859	12.2
295.073	12.51
295.286	12.08
295.5	13.74
295.713	12.98
295.927	13.55
296.14	12.14
296.354	11.37
296.568	11.41
296.781	9.47
296.994	7.4
297.208	6.38
297.421	6.37
297.635	6.67
297.848	6.75
298.062	7.73
298.275	6.83
298.489	7.53
298.702	7.26
298.915	7.63
299.129	8.83
299.342	9.72
299.555	9.72
299.769	10.21
299.982	11.04
300.195	9.77
300.409	8.67
300.622	8.83
300.835	8.3
301.048	8.15
301.262	7.53
301.475	8.53
301.688	8.72
301.901	8.3
302.115	7.69
302.328	7.06
302.541	9.8
302.754	12.42
302.967	14.92
303.18	14.85
303.393	15.91
303.607	16.52
303.82	16.45
304.033	17.22
304.246	17.23
304.459	16.16
304.672	15.27
304.885	14.25
305.098	12.69
305.311	10.45
305.524	9.81
305.737	9.18
305.95	8.28
306.163	7.71
306.376	9.15
306.589	9.37
306.802	10.79
307.015	11.96
307.228	12.63
307.44	11.6
307.653	12.92
307.866	13.38
308.079	13.61
308.292	13.24
308.505	13.78
308.718	12.25
308.93	12.2
309.143	11.14
309.356	10.55
309.569	8.52
309.781	10.4
309.994	10.02
310.207	11.03
310.42	10.11
310.632	12.4
310.845	12.22
311.058	11.96
311.27	11.4
311.483	11.67
311.696	10.81
311.908	10.88
312.121	10.3
312.333	9.36
312.546	10.33
312.759	12.01
312.971	10.12
313.184	11.64
313.396	10.89
313.609	11.51
313.821	13.43
314.034	13.88
314.246	14.74
314.459	14.47
314.671	15.71
314.884	12.74
315.096	12.87
315.309	13.06
315.521	9.79
315.733	9.4
315.946	8.75
316.158	7.66
316.371	8.57
316.583	8.89
316.795	9.33
317.008	8.43
317.22	10.55
317.432	9.8
317.644	10.66
317.857	11.01
318.069	12.8
318.281	13.36
318.494	11.06
318.706	10.54
318.918	9.7
319.13	9.42
319.342	9.83
319.555	7.9
319.767	7.93
319.979	7.54
320.191	10.07
320.403	7.58
320.615	6.19
320.827	7.78
321.039	7.55
321.252	8.63
321.464	8.37
321.676	9.95
321.888	10.4
322.1	10.18
322.312	10.68
322.524	6.86
322.736	8.23
322.948	8.15
323.16	8.33
323.372	8.32
323.584	6.92
323.796	6.4
324.007	4.72
324.219	3.7
324.431	0.79
324.643	-0.37
324.855	0.72
325.067	1.16
325.279	3.26
325.491	4.34
325.702	3.86
325.914	5.07
326.126	4.9
326.338	4.96
326.55	5.86
326.761	8.94
326.973	9.21
327.185	10.52
327.396	10.01
327.608	9.03
327.82	8.07
328.032	7.87
328.243	6.8
328.455	7.52
328.666	8.52
328.878	7.58
329.09	5.82
329.301	5.25
329.513	3.96
329.725	3.74
329.936	2.93
330.148	4.18
330.359	4.59
330.571	5.44
330.782	4.22
330.994	2.79
331.205	3.31
331.417	4.44
331.628	5.37
331.84	5.97
332.051	6.48
332.262	6.67
332.474	6.4
332.685	7.63
332.897	8.39
333.108	9.88
333.319	10.28
333.531	11.14
333.742	10.42
333.953	9.6
334.165	10.88
334.376	10.06
334.587	10.97
334.799	10.74
335.01	9.73
335.221	9.14
335.432	8.27
335.644	7.52
335.855	8.09
336.066	8.28
336.277	6.91
336.488	6.31
336.7	7.45
336.911	7.16
337.122	8.17
337.333	9.35
337.544	8.68
337.755	9.64
337.966	9.68
338.177	9.22
338.388	8.39
338.599	10.78
338.811	9.97
339.022	9.14
339.233	8.43
339.444	6.29
339.655	5.35
339.866	6.51
340.076	6.78
340.287	6.96
340.498	5.54
340.709	7.6
340.92	6.77
341.131	7.66
341.342	7.44
341.553	7.31
341.764	8.34
341.975	8.03
342.185	6.94
342.396	5.28
342.607	5.82
342.818	7.65
343.029	7.13
343.239	7.03
343.45	7.04
343.661	8.66
343.872	8.62
344.082	8.16
344.293	8.31
344.504	9.81
344.714	10.42
344.925	10.68
345.136	9.05
345.346	9.41
345.557	9.29
345.768	8.74
345.978	7.26
346.189	7.9
346.399	7.9
346.61	6.71
346.821	6.28
347.031	6.35
347.242	7.55
347.452	8.66
347.663	8.24
347.873	8.12
348.084	9.16
348.294	9.73
348.504	8.32
348.715	8.7
348.925	10
349.136	10
349.346	10.67
349.557	8.35
349.767	7.63
349.977	8.61
350.188	8.19
350.398	8.12
350.608	6.87
350.819	9.04
351.029	9.16
351.239	9.53
351.449	8.91
351.66	9.08
351.87	8.78
352.08	10.76
352.29	8.34
352.501	9.56
352.711	8.47
352.921	9.72
353.131	8.22
353.341	6.04
353.552	5.64
353.762	4.95
353.972	3.5
354.182	4.87
354.392	3.23
354.602	3.67
354.812	3.33
355.022	3.77
355.232	4.04
355.442	5.15
355.652	6.26
355.862	6.31
356.072	7
356.282	8.95
356.492	8.5
356.702	8.97
356.912	10.39
357.122	10.44
357.332	9.91
357.542	8.78
357.752	8.56
357.962	8.32
358.171	7.32
358.381	7.4
358.591	7.06
358.801	7.37
359.011	7.33
359.221	6.61
359.43	6.45
359.64	6.97
359.85	8.91
360.06	8.82
360.269	9.53
360.479	11.19
360.689	10.87
360.899	10.22
361.108	10.04
361.318	9.75
361.528	9.35
361.737	9.06
361.947	9.03
362.156	8.3
362.366	7.93
362.576	7.44
362.785	6.84
362.995	6.8
363.204	5.66
363.414	5.1
363.623	3.75
363.833	3.79
364.042	3.8
364.252	2.81
364.461	1.14
364.671	1.89
364.88	1.8
365.09	1.37
365.299	1.26
365.509	1.83
365.718	2.94
365.927	4.04
366.137	4.16
366.346	4.01
366.555	4.43
366.765	5.66
366.974	4.86
367.183	4.99
367.393	5.22
367.602	5.06
367.811	4.88
368.021	4.05
368.23	4.24
368.439	3.56
368.648	3.65
368.857	3.9
369.067	3.92
369.276	3.53
369.485	3.9
369.694	4.55
369.903	5
370.112	5.23
370.321	4.75
370.531	6.02
370.74	6.84
370.949	6.59
371.158	6.16
371.367	6.04
371.576	7.08
371.785	7.05
371.994	6.16
372.203	5.87
372.412	6.25
372.621	5.8
372.83	4.49
373.039	4.51
373.248	4.88
373.457	4.93
373.666	4.78
373.874	3.99
374.083	4.04
374.292	4.35
374.501	4.58
374.71	3.66
374.919	5.21
375.128	5.14
375.336	4.2
375.545	4.88
375.754	5.08
375.963	5.67
376.171	6.13
376.38	5.31
376.589	5.18
376.798	4.82
377.006	5.29
377.215	4.58
377.424	4.68
377.632	5.28
377.841	4.45
378.05	4.11
378.258	3.83
378.467	3.61
378.675	3.68
378.884	3.65
379.093	3.92
379.301	3.9
379.51	3.96
379.718	3.68
379.927	3.27
380.135	3.82
380.344	3.36
380.552	2.19
380.761	1.83
380.969	1.33
381.177	1.16
381.386	0.51
381.594	1.04
381.803	1.05
382.011	1.07
382.219	1.46
382.428	1.32
382.636	1.86
382.845	2.64
383.053	2.98
383.261	3.01
383.469	2.72
383.678	3.1
383.886	2.91
384.094	3.47
384.302	3.97
384.511	4.04
384.719	3.87
384.927	3.92
385.135	3.86
385.343	3.51
385.552	4.18
385.76	4.41
385.968	4.35
386.176	3.93
386.384	3.69
386.592	3.26
386.8	2.79
387.008	2.36
387.216	2.48
387.424	2.86
387.633	2.95
387.841	2.59
388.049	3.08
388.257	3.47
388.465	3.66
388.672	3.04
388.88	3.17
389.088	3.62
389.296	3.6
389.504	3.6
389.712	3.18
389.92	3.22
390.128	3.52
390.336	3.35
390.544	3.22
390.751	3.05
390.959	3.32
391.167	3.1
391.375	2.66
391.583	3.12
391.79	3.01
391.998	3.37
392.206	3.5
392.414	3.67
392.621	3.56
392.829	3.42
393.037	3.5
393.244	3.58
393.452	3.86
393.66	4.02
393.867	3.84
394.075	3.78
394.283	3.13
394.49	3.24
394.698	3.04
394.905	2.7
395.113	2.51
395.32	2.35
395.528	2.66
395.735	2.69
395.943	2.92
396.15	2.7
396.358	3.06
396.565	3.27
396.773	3.17
396.98	3.26
397.188	3.23
397.395	3.3
397.602	3.81
397.81	3.08
398.017	2.72
398.225	2.26
398.432	1.92
398.639	1.8
398.847	2.23
399.054	1.72
399.261	1.62
399.468	2.04
399.676	2.23
399.883	1.81
400.09	2.27
400.297	2.29
400.505	2.48
400.712	2.66
400.919	2.17
401.126	1.96
401.333	2.2
401.54	2.23
401.748	1.67
401.955	1.75
402.162	1.62
402.369	1.67
402.576	1.99
402.783	2.51
402.99	2.38
403.197	2.33
403.404	2.36
403.611	2.49
403.818	2.39
404.025	2.58
404.232	2.68
404.439	2.94
404.646	2.53
404.853	2.34
405.06	2.21
405.267	2.58
405.474	2.81
405.681	2.67
405.887	2.6
406.094	2.83
406.301	2.93
406.508	2.7
406.715	2.25
406.922	2.32
407.128	2.16
407.335	1.96
407.542	1.85
407.749	1.93
407.955	2
408.162	1.97
408.369	1.35
408.575	1.64
408.782	1.91
408.989	2.22
409.195	2.08
409.402	1.98
409.609	1.9
409.815	1.96
410.022	1.99
410.228	2.08
410.435	2.06
410.642	2.64
410.848	2.12
411.055	1.55
411.261	1.8
411.468	2.13
411.674	2.38
411.881	2.33
412.087	2.14
412.294	1.97
412.5	1.55
412.706	1.58
412.913	1.86
413.119	1.93
413.326	2.36
413.532	2.19
413.738	1.77
413.945	1.87
414.151	2.05
414.357	2.49
414.564	2.62
414.77	2.91
414.976	3.05
415.182	2.18
415.389	2.26
415.595	2.19
415.801	2.06
416.007	2.28
416.214	2.02
416.42	1.71
416.626	1.56
416.832	1.34
417.038	1.41
417.244	1.13
417.45	1.33
417.657	1.43
417.863	1.37
418.069	1.55
418.275	1.66
418.481	1.79
418.687	1.86
418.893	1.65
419.099	1.89
419.305	1.7
419.511	1.79
419.717	1.93
419.923	1.95
420.129	1.83
420.335	1.89
420.541	1.77
420.746	1.72
420.952	1.69
421.158	1.78
421.364	1.63
421.57	1.73
421.776	1.77
421.982	1.76
422.187	1.72
422.393	1.79
422.599	1.53
422.805	1.61
423.01	1.66
423.216	1.68
423.422	1.73
423.628	1.68
423.833	1.76
424.039	1.72
424.245	1.6
424.45	1.54
424.656	1.53
424.862	1.63
425.067	1.68
425.273	1.76
425.478	1.81
425.684	1.65
425.889	1.68
426.095	1.61
426.301	1.77
426.506	1.8
426.712	1.78
426.917	1.64
427.123	1.57
427.328	1.39
427.533	1.24
427.739	1.14
427.944	1.23
428.15	1.35
428.355	1.12
428.561	1.16
428.766	1.02
428.971	1
429.177	1.36
429.382	1.39
429.587	1.23
429.793	1.12
429.998	1.12
430.203	0.96
430.408	0.87
430.614	1.22
430.819	1.07
431.024	1.14
431.229	1.21
431.434	1.21
431.64	0.99
431.845	1.28
432.05	1.29
432.255	1.45
432.46	1.77
432.665	1.65
432.87	1.43
433.076	1.37
433.281	1.4
433.486	1.26
433.691	1.13
433.896	1.4
434.101	1.42
434.306	1.54
434.511	1.34
434.716	1.16
434.921	1.38
435.126	1.49
435.331	1.42
435.535	1.32
435.74	1.52
435.945	1.45
436.15	1.32
436.355	1.28
436.56	1.17
436.765	1.22
436.97	1.32
437.174	1.3
437.379	1.28
437.584	1.31
437.789	1.41
437.993	1.29
438.198	1.39
438.403	1.33
438.608	1.19
438.812	1.23
439.017	1.15
439.222	1.16
439.426	1.01
439.631	1.04
439.836	1.09
440.04	1.13
440.245	1.17
440.45	1.16
440.654	1.27
440.859	1.31
441.063	1.35
441.268	1.47
441.472	1.2
441.677	1.29
441.881	1.32
442.086	1.33
442.29	1.4
442.495	1.48
442.699	1.35
442.904	1.28
443.108	1.35
443.312	1.32
443.517	1.3
443.721	1.59
443.925	1.53
444.13	1.44
444.334	1.6
444.538	1.44
444.743	1.35
444.947	1.49
445.151	1.46
445.356	1.48
445.56	1.52
445.764	1.55
445.968	1.49
446.173	1.54
446.377	1.58
446.581	1.42
446.785	1.36
446.989	1.34
447.193	1.23
447.398	1.49
447.602	1.54
447.806	1.43
448.01	1.51
448.214	1.53
448.418	1.43
448.622	1.28
448.826	1.31
449.03	1.45
449.234	1.55
449.438	1.76
449.642	1.52
449.846	1.5
450.05	1.57
450.254	1.42
450.458	1.41
450.662	1.51
450.866	1.59
451.069	1.35
451.273	1.34
451.477	1.28
451.681	1.27
451.885	1.08
452.089	1.01
452.292	1.29
452.496	1.29
452.7	1.29
452.904	1.25
453.107	1.33
453.311	1.57
453.515	1.36
453.719	1.23
453.922	1.14
454.126	1.3
454.33	1.26
454.533	0.79
454.737	0.64
454.94	0.7
455.144	0.78
455.348	0.73
455.551	0.78
455.755	0.89
455.958	1.02
456.162	1.22
456.365	1.12
456.569	1.1
456.772	1.28
456.976	1.14
457.179	1.14
457.383	1.15
457.586	1.25
457.79	1.16
457.993	1.3
458.196	1.12
458.4	0.97
458.603	1.07
458.807	1.05
459.01	1.18
459.213	1.46
459.417	1.51
459.62	1.35
459.823	1.24
460.026	1.21
460.23	1.17
460.433	1.16
460.636	1.14
460.839	1.23
461.042	1.3
461.246	1.14
461.449	1.1
461.652	0.86
461.855	1.05
462.058	1.22
462.261	1.37
462.464	1.43
462.668	1.62
462.871	1.75
463.074	1.59
463.277	1.48
463.48	1.51
463.683	1.46
463.886	1.82
464.089	1.8
464.292	1.6
464.495	1.38
464.698	1.35
464.901	1.15
465.104	1.11
465.306	1.17
465.509	1.18
465.712	1.34
465.915	1.36
466.118	1.08
466.321	0.96
466.524	1.14
466.726	1.29
466.929	1.2
467.132	1.41
467.335	1.54
467.538	1.41
467.74	1.6
467.943	1.54
468.146	1.54
468.348	1.63
468.551	1.48
468.754	1.22
468.956	1.15
469.159	1.2
469.362	1.06
469.564	0.73
469.767	0.74
469.969	0.81
470.172	0.86
470.375	0.84
470.577	0.77
470.78	1.07
470.982	1.3
471.185	1.33
471.387	1.3
471.59	1.25
471.792	1.49
471.995	1.66
472.197	1.52
472.399	1.37
472.602	1.21
472.804	1.29
473.007	1.02
473.209	0.91
473.411	0.86
473.614	0.92
473.816	1.13
474.018	0.85
474.22	0.78
474.423	0.77
474.625	0.7
474.827	0.77
475.03	0.71
475.232	0.94
475.434	0.91
475.636	1.02
475.838	0.88
476.04	0.8
476.243	1.04
476.445	1.16
476.647	1.04
476.849	1.21
477.051	1.16
477.253	1.36
477.455	1.39
477.657	1.41
477.859	1.35
478.061	1.36
478.263	1.26
478.465	1.24
478.667	1.14
478.869	1.27
479.071	1.15
479.273	1.26
479.475	1.08
479.677	0.94
479.879	1.07
480.081	1.12
480.283	1.17
480.485	1.33
480.686	1.24
480.888	1.18
481.09	1.08
481.292	1.18
481.494	1.25
481.695	1.32
481.897	1.21
482.099	1.18
482.301	1.08
482.502	1.09
482.704	1.04
482.906	1.06
483.107	1.12
483.309	1.12
483.511	1.08
483.712	1.06
483.914	1.03
484.115	1.11
484.317	1.06
484.519	1.07
484.72	1.08
484.922	1.06
485.123	1.04
485.325	0.99
485.526	1.03
485.728	1.05
485.929	1.02
486.131	1.06
486.332	1.12
486.534	1.17
486.735	1.21
486.936	1.18
487.138	1.23
487.339	1.23
487.541	1.24
487.742	1.16
487.943	1.11
488.144	1.17
488.346	1.13
488.547	1.06
488.748	1.1
488.95	1
489.151	1
489.352	0.92
489.553	0.96
489.755	1.03
489.956	1.07
490.157	1.07
490.358	1.07
490.559	1.16
490.76	1.17
490.961	1.15
491.163	1.28
491.364	1.32
491.565	1.36
491.766	1.29
491.967	1.3
492.168	1.37
492.369	1.41
492.57	1.37
492.771	1.35
492.972	1.34
493.173	1.27
493.374	1.32
493.575	1.35
493.776	1.53
493.976	1.62
494.177	1.63
494.378	1.58
494.579	1.64
494.78	1.75
494.981	1.82
495.182	1.76
495.382	1.74
495.583	1.52
495.784	1.48
495.985	1.32
496.185	1.46
496.386	1.36
496.587	1.34
496.788	1.38
496.988	1.4
497.189	1.29
497.39	1.44
497.59	1.58
497.791	1.74
497.992	1.71
498.192	1.79
498.393	1.73
498.593	1.75
498.794	1.74
498.994	1.66
499.195	1.51
499.395	1.57
499.596	1.51
499.796	1.26
499.997	1.26
500.197	1.22
500.398	1.15
500.598	1.02
500.799	0.87
500.999	1.03
501.199	1.14
501.4	1.08
501.6	0.98
501.801	0.93
502.001	1.07
502.201	0.92
502.402	1.13
502.602	1.2
502.802	1.16
503.002	1.29
503.203	1.09
503.403	0.99
503.603	0.94
503.803	0.94
504.003	0.94
504.204	1
504.404	1.15
504.604	0.98
504.804	0.86
505.004	0.97
505.204	1.14
505.404	1.27
505.604	1.25
505.804	1.43
506.005	1.5
506.205	1.49
506.405	1.56
506.605	1.51
506.805	1.52
507.005	1.57
507.204	1.52
507.404	1.26
507.604	1.19
507.804	1.26
508.004	1.27
508.204	1.31
508.404	1.34
508.604	1.37
508.804	1.32
509.003	1.35
509.203	1.34
509.403	1.41
509.603	1.61
509.803	1.62
510.002	1.54
510.202	1.58
510.402	1.61
510.602	1.74
510.801	1.76
511.001	1.85
511.201	1.83
511.4	1.89
511.6	1.94
511.8	1.82
511.999	1.86
512.199	1.85
512.398	1.72
512.598	1.62
512.797	1.69
512.997	1.7
513.197	1.6
513.396	1.51
513.596	1.49
513.795	1.22
513.994	1.33
514.194	1.25
514.393	1.23
514.593	1.32
514.792	1.23
514.992	0.99
515.191	0.86
515.39	0.96
515.59	1.23
515.789	1.24
515.988	1.5
516.188	1.4
516.387	1.46
516.586	1.66
516.786	1.64
516.985	1.7
517.184	1.65
517.383	1.61
517.582	1.56
517.782	1.54
517.981	1.64
518.18	1.58
518.379	1.62
518.578	1.59
518.777	1.55
518.976	1.61
519.176	1.74
519.375	1.88
519.574	1.89
519.773	1.89
519.972	1.8
520.171	1.73
520.37	1.82
520.569	1.83
520.768	1.94
520.967	1.87
521.166	1.84
521.365	1.74
521.564	1.47
521.762	1.54
521.961	1.48
522.16	1.6
522.359	1.67
522.558	1.52
522.757	1.55
522.956	1.56
523.154	1.75
523.353	1.85
523.552	1.75
523.751	1.85
523.949	1.9
524.148	2.07
524.347	1.88
524.546	1.69
524.744	1.78
524.943	1.77
525.142	1.64
525.34	1.49
525.539	1.46
525.737	1.5
525.936	1.62
526.135	1.65
526.333	1.66
526.532	1.77
526.73	1.8
526.929	1.84
527.127	1.9
527.326	1.87
527.524	1.84
527.723	1.88
527.921	1.86
528.12	1.82
528.318	1.71
528.516	1.71
528.715	1.71
528.913	1.76
529.112	1.69
529.31	1.64
529.508	1.66
529.707	1.74
529.905	1.76
530.103	1.77
530.301	1.77
530.5	1.86
530.698	1.83
530.896	1.84
531.094	1.85
531.293	1.96
531.491	1.92
531.689	1.89
531.887	1.89
532.085	1.77
532.283	1.9
532.481	1.97
532.68	1.93
532.878	1.85
533.076	1.92
533.274	1.91
533.472	1.96
533.67	2.04
533.868	2.13
534.066	2.07
534.264	2.11
534.462	2.08
534.66	2.11
534.858	2.17
535.056	2.28
535.253	2.2
535.451	2.21
535.649	2.03
535.847	1.98
536.045	2.02
536.243	2.16
536.441	2.12
536.638	2.17
536.836	2.19
537.034	2.18
537.232	2.14
537.43	2.23
537.627	2.26
537.825	2.41
538.023	2.51
538.22	2.56
538.418	2.51
538.616	2.6
538.813	2.56
539.011	2.54
539.209	2.53
539.406	2.58
539.604	2.6
539.801	2.54
539.999	2.53
540.196	2.51
540.394	2.47
540.591	2.49
540.789	2.5
540.986	2.53
541.184	2.51
541.381	2.54
541.579	2.53
541.776	2.49
541.974	2.55
542.171	2.67
542.368	2.62
542.566	2.6
542.763	2.67
542.96	2.71
543.158	2.73
543.355	2.8
543.552	2.88
543.75	2.93
543.947	2.88
544.144	2.84
544.341	2.77
544.539	2.88
544.736	2.96
544.933	2.88
545.13	2.84
545.327	2.86
545.524	2.85
545.722	2.94
545.919	2.96
546.116	3.13
546.313	3.25
546.51	3.18
546.707	3.25
546.904	3.25
547.101	3.31
547.298	3.31
547.495	3.32
547.692	3.32
547.889	3.16
548.086	3.19
548.283	3.24
548.48	3.38
548.677	3.63
548.874	3.67
549.07	3.87
549.267	3.85
549.464	3.97
549.661	4.01
549.858	4.07
550.055	4.13
550.251	4.22
550.448	4.39
550.645	4.18
550.842	4.06
551.038	3.95
551.235	3.9
551.432	4.04
551.628	4.19
551.825	4.25
552.022	4.19
552.218	4.34
552.415	4.39
552.612	4.3
552.808	4.33
553.005	4.48
553.201	4.71
553.398	4.77
553.594	4.8
553.791	4.84
553.987	4.74
554.184	4.81
554.38	5.03
554.577	4.96
554.773	4.96
554.97	4.87
555.166	4.72
555.362	4.56
555.559	4.32
555.755	4.25
555.952	4.31
556.148	4.57
556.344	4.59
556.541	4.26
556.737	4.43
556.933	4.32
557.129	4.7
557.326	4.88
557.522	5.03
557.718	5.2
557.914	5.27
558.11	5.01
558.307	4.76
558.503	4.84
558.699	5.04
558.895	5.09
559.091	5.26
559.287	5.13
559.483	4.98
559.679	5.07
559.876	5.05
560.072	4.97
560.268	5.22
560.464	5.32
560.66	5.33
560.856	5.33
561.052	5.22
561.247	5.15
561.443	5.06
561.639	5.14
561.835	5.12
562.031	5.44
562.227	5.65
562.423	5.7
562.619	5.72
562.815	5.89
563.01	5.73
563.206	6.01
563.402	6.01
563.598	6.31
563.793	6.47
563.989	6.45
564.185	6.17
564.381	6.01
564.576	5.95
564.772	6.08
564.968	6.03
565.163	6.32
565.359	6.12
565.555	6.4
565.75	6.43
565.946	6.25
566.141	6.29
566.337	6.44
566.532	6.57
566.728	6.61
566.923	6.61
567.119	6.72
567.314	6.62
567.51	6.74
567.705	6.75
567.901	6.65
568.096	6.7
568.292	6.69
568.487	6.67
568.682	6.8
568.878	6.82
569.073	6.99
569.268	6.96
569.464	6.98
569.659	7.12
569.854	7.06
570.05	7.14
570.245	7.29
570.44	7.35
570.635	7.44
570.831	7.26
571.026	7.25
571.221	7.18
571.416	7.23
571.611	7.27
571.806	7.21
572.002	7.13
572.197	7.21
572.392	7.36
572.587	7.44
572.782	7.55
572.977	7.73
573.172	8.02
573.367	8.01
573.562	8.06
573.757	8.21
573.952	8.2
574.147	8.46
574.342	8.41
574.537	8.19
574.732	8.07
574.927	7.95
575.121	8.01
575.316	7.86
575.511	7.75
575.706	7.71
575.901	7.63
576.096	7.75
576.29	7.45
576.485	7.45
576.68	7.53
576.875	7.8
577.069	8
577.264	8.22
577.459	8.11
577.654	8.26
577.848	8.29
578.043	8.28
578.238	8.29
578.432	8.45
578.627	8.41
578.821	8.41
579.016	8.29
579.21	8.14
579.405	7.83
579.6	7.96
579.794	8.09
579.989	8.31
580.183	8.36
580.378	8.51
580.572	8.37
580.766	8.55
580.961	8.74
581.155	8.89
581.35	8.81
581.544	8.81
581.738	8.83
581.933	8.86
582.127	9
582.321	9.01
582.516	8.72
582.71	8.91
582.904	8.81
583.099	8.94
583.293	8.96
583.487	9.3
583.681	9.19
583.875	9.27
584.07	9.26
584.264	9.31
584.458	9.54
584.652	9.76
584.846	9.72
585.04	9.88
585.234	9.78
585.428	9.45
585.623	9.32
585.817	9.35
586.011	9.2
586.205	9.06
586.399	8.66
586.593	8.29
586.787	8.08
586.981	8.37
587.174	8.22
587.368	8.19
587.562	8.22
587.756	8.16
587.95	8.28
588.144	8.44
588.338	8.62
588.532	8.68
588.725	9.03
588.919	9.15
589.113	9.11
589.307	9.09
589.501	9.36
589.694	9.33
589.888	9.31
590.082	9.34
590.275	9.33
590.469	9.01
590.663	8.98
590.856	8.72
591.05	8.75
591.244	8.61
591.437	8.71
591.631	8.45
591.824	8.67
592.018	8.91
592.212	8.94
592.405	8.91
592.599	9.14
592.792	9.04
592.986	9.12
593.179	9.32
593.372	9.32
593.566	9.46
593.759	9.41
593.953	9.27
594.146	9.08
594.339	9.15
594.533	9.2
594.726	9.32
594.92	9.44
595.113	9.38
595.306	9.3
595.499	9.61
595.693	9.47
595.886	9.53
596.079	9.68
596.272	9.61
596.466	9.67
596.659	9.47
596.852	9.58
597.045	9.58
597.238	9.51
597.431	9.55
597.624	9.24
597.818	9.27
598.011	9.25
598.204	8.97
598.397	8.97
598.59	8.83
598.783	9
598.976	8.71
599.169	8.81
599.362	9.12
599.555	9.08
599.748	9.17
599.941	9.04
600.134	9.08
600.326	9.55
600.519	9.62
600.712	9.4
600.905	9.48
601.098	9.59
601.291	9.76
601.483	9.56
601.676	9.59
601.869	9.51
602.062	9.64
602.255	9.62
602.447	9.53
602.64	9.55
602.833	9.68
603.025	9.61
603.218	9.61
603.411	9.26
603.603	9.46
603.796	9.44
603.989	9.28
604.181	9.38
604.374	9.45
604.566	9.55
604.759	9.73
604.951	9.79
605.144	9.68
605.336	9.84
605.529	10.05
605.721	9.93
605.914	9.79
606.106	10.18
606.299	10.08
606.491	9.97
606.683	9.88
606.876	9.87
607.068	9.75
607.26	9.94
607.453	9.74
607.645	9.76
607.837	9.85
608.03	10.06
608.222	9.71
608.414	9.63
608.606	9.35
608.799	9.24
608.991	9.15
609.183	9.32
609.375	9.32
609.567	9.19
609.759	9.05
609.952	8.97
610.144	8.79
610.336	9.21
610.528	9.18
610.72	9.42
610.912	9.44
611.104	9.43
611.296	9.29
611.488	9.21
611.68	9.48
611.872	9.64
612.064	9.68
612.256	9.89
612.448	9.7
612.64	9.99
612.832	10.01
613.023	10.18
613.215	10.12
613.407	10.2
613.599	10.33
613.791	10.1
613.983	10.06
614.174	10.09
614.366	10
614.558	9.83
614.75	9.59
614.941	9.5
615.133	9.47
615.325	9.68
615.516	9.89
615.708	9.76
615.9	9.85
616.091	9.65
616.283	9.72
616.475	9.77
616.666	9.99
616.858	10.25
617.049	10.48
617.241	10.19
617.432	10.05
617.624	10.04
617.815	10.24
618.007	10.5
618.198	10.6
618.39	10.29
618.581	10.27
618.773	10.15
618.964	9.92
619.155	10.05
619.347	10.26
619.538	10.39
619.729	10.25
619.921	9.77
620.112	9.98
620.303	9.85
620.494	10.13
620.686	10.11
620.877	9.97
621.068	9.97
621.259	9.88
621.451	10
621.642	9.83
621.833	9.77
622.024	9.91
622.215	9.75
622.406	10.11
622.597	10.1
622.788	10.54
622.98	10.58
623.171	10.51
623.362	10.47
623.553	10.43
623.744	10.27
623.935	10.43
624.126	10.94
624.317	10.58
624.508	10.44
624.698	10.66
624.889	10.06
625.08	10.27
625.271	10.37
625.462	10.15
625.653	9.89
625.844	10.12
626.034	10.07
626.225	9.77
626.416	10.08
626.607	10.04
626.798	9.83
626.988	9.97
627.179	10.07
627.37	10.08
627.56	10.19
627.751	10.16
627.942	10.23
628.132	10.24
628.323	10.34
628.514	9.89
628.704	9.87
628.895	9.95
629.085	9.84
629.276	9.26
629.466	9.35
629.657	9.35
629.847	9.55
630.038	9.6
630.228	9.26
630.419	9.09
630.609	9.24
630.8	8.94
630.99	8.86
631.181	9.31
631.371	9.99
631.561	10.09
631.752	10.06
631.942	10.18
632.132	9.93
632.323	10.21
632.513	10.24
632.703	10.31
632.893	10.73
633.084	10.83
633.274	10.64
633.464	10.21
633.654	10.28
633.844	10.47
634.034	10.22
634.225	10.39
634.415	10.2
634.605	10.17
634.795	10.22
634.985	10
635.175	9.94
635.365	9.84
635.555	9.84
635.745	9.63
635.935	8.99
636.125	9.01
636.315	8.72
636.505	9.27
636.695	9.44
636.885	9
637.075	9.3
637.265	9.1
637.455	9.23
637.644	9.44
637.834	9.28
638.024	9.52
638.214	9.8
638.404	9.87
638.593	9.61
638.783	9.52
638.973	10
639.163	10.07
639.352	10.09
639.542	10.03
639.732	10.03
639.921	9.95
640.111	10.01
640.301	9.9
640.49	10.27
640.68	10.17
640.87	10.53
641.059	10.58
641.249	10.26
641.438	10.33
641.628	10.38
641.817	10.04
642.007	10.31
642.196	10.47
642.386	10.5
642.575	10.2
642.764	10.11
642.954	10
643.143	9.96
643.333	9.9
643.522	10.21
643.711	9.57
643.901	9.81
644.09	9.78
644.279	9.99
644.469	10.23
644.658	10.24
644.847	10.73
645.036	10.64
645.226	10.95
645.415	10.93
645.604	10.36
645.793	11.03
645.982	11.13
646.171	10.93
646.361	10.7
646.55	10.38
646.739	10.35
646.928	9.96
647.117	9.96
647.306	9.7
647.495	10.01
647.684	10.43
647.873	10.22
648.062	9.88
648.251	9.85
648.44	9.83
648.629	10.31
648.818	10.39
649.007	10.04
649.196	10
649.384	10.03
649.573	10.03
649.762	10.02
649.951	10.38
650.14	10.95
650.328	10.93
650.517	11.03
650.706	10.49
650.895	10.67
651.083	11.25
651.272	11.49
651.461	11.64
651.65	11.45
651.838	11.4
652.027	10.92
652.216	11.17
652.404	11.66
652.593	11.39
652.781	11.68
652.97	11.52
653.158	11.23
653.347	10.83
653.535	11.18
653.724	11.04
653.912	11
654.101	11.37
654.289	11.17
654.478	10.79
654.666	10.82
654.855	10.66
655.043	10.3
655.231	10.31
655.42	10.2
655.608	9.57
655.796	9.9
655.985	9.84
656.173	9.61
656.361	9.34
656.55	9.59
656.738	9.64
656.926	9.49
657.114	9.83
657.302	9.88
657.491	10.09
657.679	10.12
657.867	10.14
658.055	10.33
658.243	10.3
658.431	10.19
658.619	9.99
658.807	10.38
658.996	10.29
659.184	10.16
659.372	10.23
659.56	10.36
659.748	10.32
659.936	10.3
660.124	10.39
660.311	10.3
660.499	10.56
660.687	10.98
660.875	10.76
661.063	11.3
661.251	11.71
661.439	12.01
661.627	11.74
661.814	11.93
662.002	11.76
662.19	11.63
662.378	12.11
662.565	11.67
662.753	11.47
662.941	11.11
663.129	10.8
663.316	10.65
663.504	10.08
663.692	10.31
663.879	10.23
664.067	10.62
664.254	11.06
664.442	10.87
664.63	10.74
664.817	10.32
665.005	10.84
665.192	11.14
665.38	10.9
665.567	11.04
665.755	11.33
665.942	11.48
666.13	11.33
666.317	11.13
666.504	11.14
666.692	11.28
666.879	11.44
667.067	11.65
667.254	11.13
667.441	11.43
667.629	11.22
667.816	10.78
668.003	11.09
668.19	11.04
668.378	11.12
668.565	11.39
668.752	11.96
668.939	12
669.127	12.2
669.314	12.41
669.501	11.96
669.688	12.45
669.875	12.8
670.062	12.31
670.249	12.03
670.436	12.16
670.623	12.17
670.81	11.78
670.997	11.53
671.184	10.89
671.371	10.97
671.558	10.86
671.745	10.59
671.932	10.13
672.119	10.54
672.306	10.89
672.493	10.27
672.68	9.84
672.867	9.86
673.054	10.2
673.24	10.62
673.427	10.1
673.614	10.8
673.801	10.74
673.988	10.96
674.174	10.42
674.361	10.35
674.548	10.45
674.734	10.54
674.921	10.57
675.108	10.33
675.294	9.79
675.481	9.99
675.668	10.4
675.854	10.68
676.041	10.78
676.227	11.12
676.414	10.72
676.601	11.21
676.787	10.91
676.974	11
677.16	10.95
677.347	11.29
677.533	11.74
677.719	10.8
677.906	11.17
678.092	11.2
678.279	11.09
678.465	11.81
678.651	11.33
678.838	11.62
679.024	11.62
679.21	11.85
679.397	11.76
679.583	11.45
679.769	11.56
679.955	11.35
680.142	11.59
680.328	11.35
680.514	11
680.7	11
680.886	11.11
681.073	11.29
681.259	10.84
681.445	10.7
681.631	10.91
681.817	10.97
682.003	10.89
682.189	10.58
682.375	11.04
682.561	10.95
682.747	10.95
682.933	11.09
683.119	11.05
683.305	11.72
683.491	12.1
683.677	12.3
683.863	12.31
684.049	12.41
684.235	12.37
684.42	11.96
684.606	11.67
684.792	11.5
684.978	11.4
685.164	11.16
685.349	10.5
685.535	10.41
685.721	10.28
685.907	10.43
686.092	10.25
686.278	10.41
686.464	10.47
686.649	10.98
686.835	11.08
687.021	11.03
687.206	10.75
687.392	11.3
687.577	10.96
687.763	11.12
687.948	10.81
688.134	11.16
688.319	11.55
688.505	11.47
688.69	11.11
688.876	11.39
689.061	11.76
689.247	11.55
689.432	11.76
689.618	12.23
689.803	11.75
689.988	11.67
690.174	11.4
690.359	10.44
690.544	10.31
690.73	10.82
690.915	10.47
691.1	9.95
691.285	10.22
691.471	9.92
691.656	9.9
691.841	10.34
692.026	11.44
692.211	10.84
692.396	11.58
692.582	11.47
692.767	11.44
692.952	11.92
693.137	12.05
693.322	12.51
693.507	11.83
693.692	11.45
693.877	11.36
694.062	10.93
694.247	11.41
694.432	11.18
694.617	11.4
694.802	10.69
694.987	11.2
695.172	10.71
695.357	10.32
695.541	11.28
695.726	11.33
695.911	10.61
696.096	10.31
696.281	10.3
696.466	10.67
696.65	10.99
696.835	11.46
697.02	11
697.204	10.93
697.389	11.22
697.574	11.19
697.759	11.31
697.943	11.65
698.128	11.6
698.312	11.32
698.497	10.44
698.682	10.38
698.866	10.71
699.051	10.39
699.235	10.77
699.42	10.6
699.604	10.1
699.789	9.95
699.973	10.22
700.158	9.92
700.342	10.31
700.527	10.69
700.711	10.79
700.895	10.74
701.08	10.45
701.264	10.09
701.448	10.33
701.633	10.55
701.817	10.64
702.001	10.79
702.186	11.28
702.37	11.27
702.554	11.97
702.738	11.84
702.923	11.3
703.107	12.2
703.291	12.57
703.475	13.13
703.659	12.95
703.843	12.75
704.027	12.09
704.212	12.58
704.396	12.61
704.58	12.52
704.764	12.41
704.948	12.65
705.132	12.88
705.316	12.79
705.5	12.07
705.684	12.69
705.868	13.38
706.052	13.56
706.235	13.03
706.419	12.57
706.603	12.28
706.787	12.79
706.971	13.2
707.155	12.91
707.339	13.21
707.522	13.48
707.706	12.79
707.89	12.23
708.074	12.69
708.257	12.51
708.441	12.69
708.625	13.05
708.808	13.69
708.992	13.06
709.176	12.53
709.359	12.24
709.543	12.21
709.727	13.12
709.91	13.56
710.094	12.8
710.277	12.5
710.461	12.21
710.644	11.67
710.828	11.04
711.011	11.65
711.195	11.91
711.378	11.62
711.562	12.12
711.745	11.65
711.928	11.09
712.112	11.03
712.295	11.58
712.478	12.13
712.662	12.43
712.845	12.28
713.028	11.74
713.212	12.39
713.395	12.3
713.578	11.83
713.761	11.5
713.945	10.66
714.128	11.18
714.311	10.63
714.494	10.21
714.677	9.85
714.86	10.14
715.043	10.16
715.227	9.51
715.41	9.76
715.593	10.02
715.776	9.74
715.959	10.36
716.142	10.17
716.325	11.01
716.508	10.83
716.691	11.14
716.874	10.54
717.057	9.93
717.239	9.6
717.422	10.18
717.605	9.58
717.788	10.58
717.971	12.15
718.154	11.71
718.337	11.54
718.519	12.38
718.702	12.61
718.885	12.61
719.068	13.35
719.25	14.41
719.433	13.37
719.616	13.18
719.798	12.96
719.981	12.06
720.164	11.55
720.346	11.38
720.529	11.43
720.712	11.37
720.894	11.12
721.077	11.85
721.259	11.86
721.442	11.92
721.624	11.8
721.807	11.65
721.989	11.58
722.172	13.6
722.354	13.4
722.537	12.89
722.719	11.16
722.901	12.16
723.084	10.71
723.266	10.42
723.448	10.79
723.631	10.39
723.813	10.72
723.995	10.49
724.178	8.4
724.36	8.84
724.542	7.74
724.724	8.67
724.907	7.81
725.089	8.55
725.271	9.62
725.453	9.56
725.635	10.7
725.817	10.49
725.999	10.41
726.181	11.84
726.364	12.02
726.546	12.87
726.728	12.67
726.91	13.29
727.092	13.8
727.274	12.47
727.456	12.65
727.638	12.66
727.819	12.39
728.001	12.65
728.183	12.53
728.365	11.91
728.547	11.64
728.729	12.28
728.911	11.99
729.093	10.84
729.274	11.46
729.456	11.09
729.638	12.13
729.82	13.61
730.001	14.36
730.183	13.94
730.365	14.38
730.546	14.19
730.728	14.56
730.91	14.55
731.091	15.22
731.273	13.77
731.455	13.96
731.636	13.83
731.818	12
731.999	11.68
732.181	11.94
732.362	12.15
732.544	13.46
732.725	13.11
732.907	13.32
733.088	13.24
733.27	15.26
733.451	15.04
733.633	14.01
733.814	14.73
733.995	14.4
734.177	14.53
734.358	13.74
734.539	13.4
734.721	13.64
734.902	14.43
735.083	14.92
735.264	13.25
735.446	12.67
735.627	12.61
735.808	12.02
735.989	11.78
736.17	12.36
736.351	12.68
736.533	12.14
736.714	11.09
736.895	10.08
737.076	10.45
737.257	11.57
737.438	12.11
737.619	12.48
737.8	13.04
737.981	13.89
738.162	12.6
738.343	12.16
738.524	12.63
738.705	14.68
738.886	15.51
739.067	13.49
739.247	12.57
739.428	13.29
739.609	12.58
739.79	13.53
739.971	12.39
740.151	13.34
740.332	14.22
740.513	14.29
740.694	12.31
740.874	12.72
741.055	14.9
741.236	16.32
741.417	14.57
741.597	14.1
741.778	12.77
741.958	13.61
742.139	13.25
742.32	12.49
742.5	12.4
742.681	13.09
742.861	10.52
743.042	8.88
743.222	7.11
743.403	8.73
743.583	9.21
743.764	9.92
743.944	10.79
744.124	11.46
744.305	11.23
744.485	10.41
744.666	11.3
744.846	12.49
745.026	12.48
745.207	13.48
745.387	13.29
745.567	13.93
745.747	12.06
745.928	9.91
746.108	8.81
746.288	9.92
746.468	10.37
746.648	8.39
746.829	9.84
747.009	10.86
747.189	10.33
747.369	10.8
747.549	10.59
747.729	11.93
747.909	14.54
748.089	14.46
748.269	13.74
748.449	13.47
748.629	13.92
748.809	12.01
748.989	12.57
749.169	12.87
749.349	13.13
749.529	14.31
749.709	14.07
749.889	11.76
750.068	11.59
750.248	11.89
750.428	11.63
750.608	11.43
750.788	12.38
750.967	11.72
751.147	10.88
751.327	12.13
751.507	11.13
751.686	12.75
751.866	12.81
752.046	13.87
752.225	12.63
752.405	13.51
752.585	13.32
752.764	12.93
752.944	12.99
753.123	15.05
753.303	13.85
753.482	13.36
753.662	12.39
753.841	13.55
754.021	12.94
754.2	14.8
754.38	16.13
754.559	18.07
754.739	18.35
754.918	18.21
755.097	16.9
755.277	16.56
755.456	17.85
755.635	17.13
755.815	15.9
755.994	16.18
756.173	15.28
756.352	14.5
756.532	13.25
756.711	12.96
756.89	13.61
757.069	13.99
757.248	14.77
757.427	13.67
757.607	13.68
757.786	14.27
757.965	13.92
758.144	14.64
758.323	14.17
758.502	14.9
758.681	15.8
758.86	15.25
759.039	14.41
759.218	12.91
759.397	12.09
759.576	12.52
759.755	12.1
759.934	11.58
760.113	11.94
760.291	11.29
760.47	9.79
760.649	9.85
760.828	9.57
761.007	10.54
761.186	11.54
761.364	12.12
761.543	13.03
761.722	13.7
761.901	14.56
762.079	14.44
762.258	14.61
762.437	14.73
762.615	14.74
762.794	14.73
762.972	15.01
763.151	14.68
763.33	14.27
763.508	13.42
763.687	13.14
763.865	13.28
764.044	12.7
764.222	12.93
764.401	13.41
764.579	13.36
764.758	13.48
764.936	12.8
765.114	12.36
765.293	13.21
765.471	13.8
765.65	14.14
765.828	14.57
766.006	15.02
766.184	13.6
766.363	13.64
766.541	12.82
766.719	13.15
766.898	14.56
767.076	14.47
767.254	15.63
767.432	14.87
767.61	15.31
767.788	14.58
767.967	14.71
768.145	15.95
768.323	15.21
768.501	15.32
768.679	15.53
768.857	13.1
769.035	14.47
769.213	14.06
769.391	14.94
769.569	14.83
769.747	15
769.925	14.34
770.103	14.75
770.281	15.96
770.459	16.63
770.636	16.82
770.814	18.36
770.992	19.14
771.17	16.01
771.348	17.25
771.525	17.81
771.703	17.3
771.881	18.73
772.059	19.26
772.236	19.2
772.414	18.66
772.592	18.6
772.769	18.7
772.947	17.72
773.125	19.84
773.302	18.47
773.48	18.3
773.657	18.51
773.835	17.29
774.013	17.01
774.19	17.11
774.368	18.94
774.545	19.09
774.723	19.31
774.9	19.18
775.077	19.13
775.255	19.41
775.432	17.82
775.61	16.51
775.787	14.76
775.964	14.03
776.142	13.33
776.319	11.59
776.496	11.32
776.674	11.03
776.851	12.97
777.028	11.87
777.205	11.16
777.382	10.15
777.56	11.44
777.737	12.5
777.914	13.06
778.091	14.35
778.268	13.97
778.445	12.83
778.622	11.65
778.8	9.28
778.977	10.07
779.154	8.66
779.331	10.81
779.508	11.08
779.685	12.38
779.862	11.38
780.038	12.28
780.215	13.41
780.392	12.38
780.569	11.78
780.746	8.21
780.923	9.95
781.1	11.48
781.277	9.06
781.453	9.3
781.63	8.4
781.807	7.04
781.984	5.7
782.16	4.97
782.337	7.66
782.514	11.65
782.691	18.2
782.867	17.51
783.044	19.28
783.221	24.99
783.397	24.89
783.574	24.22
783.75	23.76
783.927	25.92
784.103	25.43
784.28	23.63
784.456	22.44
784.633	19.08
784.809	21.19
784.986	17.19
785.162	13.17
785.339	10.98
785.515	11.73
785.692	15.46
785.868	15.51
786.044	14.57
786.221	14.82
786.397	14.32
786.573	17.17
786.749	14.14
786.926	14.76
787.102	14.14
787.278	17.06
787.454	18.86
787.631	19.44
787.807	18.25
787.983	21.33
788.159	20.74
788.335	17.82
788.511	15.34
788.687	15.43
788.863	15.75
789.039	17.45
789.216	15.89
789.392	13.25
789.568	13.67
789.744	13.86
789.919	13.17
790.095	15.9
790.271	16.41
790.447	16.47
790.623	17.39
790.799	19.11
790.975	18.71
791.151	19.92
791.327	21.3
791.502	17.97
791.678	17.13
791.854	14.07
792.03	10.23
792.205	11.4
792.381	13.58
792.557	9.73
792.733	9.32
792.908	6.82
793.084	5.98
793.259	8.81
793.435	12.96
793.611	14.65
793.786	15.87
793.962	19.73
794.137	19.54
794.313	17.48
794.488	19.29
794.664	18.46
794.839	14.94
795.015	13.55
795.19	9.38
795.366	7.65
795.541	4.87
795.716	3.87
795.892	0.55
796.067	2.34
796.242	3.72
796.418	4.47
796.593	6.34
796.768	9.33
796.944	11.92
797.119	14.17
797.294	16.02
797.469	14.62
797.644	14.59
797.82	17.66
797.995	19.45
798.17	18.33
798.345	21.01
798.52	19.87
798.695	18.95
798.87	19.67
799.045	20.59
799.22	17.77
799.395	20.36
799.57	22.49
799.745	20.89
799.92	19.23
800.095	19.22
800.27	16.73
800.445	20.42
800.62	23.65
800.795	21.78
800.97	19.7
801.145	20.38
801.319	19.38
801.494	17.65
801.669	16.99
801.844	16.59
802.018	17.38
802.193	17.11
802.368	11
802.543	7.87
802.717	10.57
802.892	12.45
803.067	11.18
803.241	10.81
803.416	14.61
803.59	15.11
803.765	13.73
803.94	17.59
804.114	19.19
804.289	20.79
804.463	23.42
804.638	23.35
804.812	21.51
804.986	20.82
805.161	22.97
805.335	20.42
805.51	21.61
805.684	20.84
805.858	16.57
806.033	12.1
806.207	14.95
806.381	13.82
806.556	14.19
806.73	15.48
806.904	15.58
807.078	16.52
807.253	17.86
807.427	17.77
807.601	20.01
807.775	22.34
807.949	27.87
808.123	24.9
808.298	22.88
808.472	19.72
808.646	18.93
808.82	24.14
808.994	22.37
809.168	21.14
809.342	19.19
809.516	17.05
809.69	16.03
809.864	14.8
810.038	16.88
810.212	21.17
810.385	24.14
810.559	26.47
810.733	23.1
810.907	25.22
811.081	25.61
811.255	27.05
811.428	29.47
811.602	29.96
811.776	28.35
811.95	29.12
812.123	26.8
812.297	26.98
812.471	24.05
812.644	25.95
812.818	25.57
812.992	25.73
813.165	21.91
813.339	23.34
813.512	23.23
813.686	22.91
813.86	21.79
814.033	19.13
814.207	18.86
814.38	21.63
814.554	16.88
814.727	13.12
814.9	15.07
815.074	21.17
815.247	19.32
815.421	19.93
815.594	19.46
815.767	18.08
815.941	20.3
816.114	18.35
816.287	14.91
816.46	16.68
816.634	17.11
816.807	13.44
816.98	13.41
817.153	15.35
817.327	18.22
817.5	19.66
817.673	16.45
817.846	17.24
818.019	18.75
818.192	19.95
818.365	20.17
818.538	15.53
818.711	18.7
818.884	17.95
819.057	13.81
819.23	12.96
819.403	12.56
819.576	16.31
819.749	14.33
819.922	14.16
820.095	14.37
820.268	17.26
820.441	19.18
820.614	16.77
820.786	16.56
820.959	18.6
821.132	19.08
821.305	17.94
821.477	16.96
821.65	17.91
821.823	17.27
821.996	16.76
822.168	14.73
822.341	15.01
822.514	15.38
822.686	14.1
822.859	13.81
823.031	13.22
823.204	13.8
823.376	14.38
823.549	13.49
823.722	13.75
823.894	13.68
824.067	14.3
824.239	13.76
824.411	13.18
824.584	14.49
824.756	15.21
824.929	15.02
825.101	14.56
825.273	14.75
825.446	17.22
825.618	16.12
825.79	17.04
825.963	18.15
826.135	19.24
826.307	18.54
826.479	17.94
826.652	17.2
826.824	16.86
826.996	16.81
827.168	15.18
827.34	13.13
827.512	11.76
827.684	11.47
827.856	10.59
828.029	10.62
828.201	11.73
828.373	13.07
828.545	13.19
828.717	14.73
828.889	14.81
829.061	16.73
829.232	17.3
829.404	19.36
829.576	18.86
829.748	19.58
829.92	19.67
830.092	20.29
830.264	19.63
830.436	20.11
830.607	17.8
830.779	18.32
830.951	18.55
831.123	16.41
831.294	18.5
831.466	20.6
831.638	21.49
831.809	18.67
831.981	20.15
832.153	19.44
832.324	19.2
832.496	21.27
832.667	21.37
832.839	22.5
833.011	26.77
833.182	24.87
833.354	23.98
833.525	23.52
833.697	25.03
833.868	23.11
834.039	22
834.211	20.16
834.382	20.43
834.554	20.53
834.725	20.29
834.896	16.43
835.068	18.76
835.239	19.35
835.41	20.51
835.581	18.43
835.753	19.2
835.924	17.86
836.095	17.42
836.266	16.78
836.438	17.13
836.609	14.4
836.78	15.86
836.951	14.71
837.122	14.35
837.293	10.57
837.464	13.71
837.635	15.23
837.806	18.63
837.977	20.28
838.148	21.02
838.319	16.13
838.49	15.57
838.661	20.25
838.832	20.4
839.003	20.6
839.174	18.7
839.345	20.8
839.516	17.83
839.687	21.22
839.857	21.94
840.028	20.94
840.199	25.03
840.37	28.82
840.54	20.99
840.711	22
840.882	19.01
841.053	19.92
841.223	24.84
841.394	28.53
841.564	30.36
841.735	38.18
841.906	40.19
842.076	40.99
842.247	37.9
842.417	47.03
842.588	44.02
842.758	45.49
842.929	51.95
843.099	44.46
843.27	42.2
843.44	31.68
843.611	27.1
843.781	24.19
843.951	17.61
844.122	20.35
844.292	15.9
844.462	21.1
844.633	34.64
844.803	30.77
844.973	35.11
845.144	35.01
845.314	37.96
845.484	30.84
845.654	28.2
845.824	30.25
845.995	30.17
846.165	35.77
846.335	39.64
846.505	34.06
846.675	43.73
846.845	27.97
847.015	31.16
847.185	31.89
847.355	33.66
847.525	39.1
847.695	31.12
847.865	32.28
848.035	23.77
848.205	21.97
848.375	19.73
848.545	4.17
848.715	16.3
848.884	1.34
849.054	4.65
849.224	19.18
849.394	21.68
849.564	32.48
849.733	34.63
849.903	37.5
850.073	25.99
850.243	17.35
850.412	27.81
850.582	27.87
850.752	40.96
850.921	38.65
851.091	33.9
851.26	24.04
851.43	25.11
851.599	13.34
851.769	9.15
851.939	20.4
852.108	28.81
852.278	17
852.447	17.99
852.616	1.67
852.786	-4.5
852.955	14.07
853.125	24.1
853.294	31.04
853.463	30.64
853.633	40.64
853.802	49.59
853.971	52.06
854.141	50.31
854.31	47.4
854.479	50.46
854.648	47.39
854.818	40.89
854.987	40.57
855.156	32.31
855.325	47.94
855.494	35.82
855.663	8.51
855.832	2.64
856.001	-12.05
856.171	-22.39
856.34	-9.93
856.509	22.77
856.678	-9.83
856.847	-6.48
857.016	28.79
857.185	10.94
857.353	39.81
857.522	57.7
857.691	44.22
857.86	65.83
858.029	57.04
858.198	54.62
858.367	39.37
858.535	48.73
858.704	52.95
858.873	49.83
859.042	53.57
859.21	66.86
859.379	80.55
859.548	91.41
859.717	85.47
859.885	91.13
860.054	90.46
860.222	94.92
860.391	97.54
860.56	96.85
860.728	90.18
860.897	86.75
861.065	69.45
861.234	61.15
861.402	63.05
861.571	63.84
861.739	61.76
861.908	54.84
862.076	35.29
862.244	41.9
862.413	38.74
862.581	39.67
862.749	29.56
862.918	20.75
863.086	25.39
863.254	19.63
863.423	10.69
863.591	15.28
863.759	16.98
863.927	17.91
864.096	17.32
864.264	9.31
864.432	9.7
864.6	19.75
864.768	20.24
864.936	20.44
865.104	25.27
865.272	35.57
865.44	40.41
865.608	41.37
865.776	54.61
865.944	41.3
866.112	41.27
866.28	35.52
866.448	27.9
866.616	32.21
866.784	26.37
866.952	30.19
867.12	24.63
867.288	17.58
867.455	15.51
867.623	15.28
867.791	25.09
867.959	27.56
868.127	25.01
868.294	38.3
868.462	39.06
868.63	37.71
868.797	35.99
868.965	38.53
869.133	42.99
869.3	45.11
869.468	49.07
869.636	45.86
869.803	47.91
869.971	55.47
870.138	41.32
870.306	44.08
870.473	50.68
870.641	57.77
870.808	40.59
870.975	50.05
871.143	45.24
871.31	40.94
871.478	37.59
871.645	23.44
871.812	26.32
871.98	30.06
872.147	27.48
872.314	28.98
872.482	36.66
872.649	48.99
872.816	43.59
872.983	50.12
873.15	51.9
873.318	49.12
873.485	64.09
873.652	58.05
873.819	54.14
873.986	53.53
874.153	56.18
874.32	43.51
874.487	40.48
874.654	40.79
874.821	37.91
874.988	39.11
875.155	45.54
875.322	46.6
875.489	49.08
875.656	45.75
875.823	36.84
875.99	36.25
876.157	45.46
876.324	49.3
876.49	50.04
876.657	41.6
876.824	34.87
876.991	32.44
877.157	28.47
877.324	30.12
877.491	30.3
877.658	37
877.824	28.02
877.991	19.05
878.157	10.84
878.324	12.51
878.491	10.53
878.657	4.1
878.824	1.31
878.99	4.68
879.157	18.61
879.323	20
879.49	35.32
879.656	50.94
879.823	41.41
879.989	40.5
880.156	49.67
880.322	61.83
880.488	58.17
880.655	54.59
880.821	56.78
880.987	46.67
881.154	50.81
881.32	47.37
881.486	40.07
881.652	40.52
881.819	37.12
881.985	29.2
882.151	22.96
882.317	23.88
882.483	26.13
882.649	21.23
882.816	22.59
882.982	21.89
883.148	18.29
883.314	17.01
883.48	17.8
883.646	16.6
883.812	16.87
883.978	20.8
884.144	21.84
884.31	20.65
884.476	22.8
884.642	20.35
884.807	19.42
884.973	20.14
885.139	20.51
885.305	21.92
885.471	23.21
885.637	26.49
885.802	27.44
885.968	24.38
886.134	24.23
886.3	28.41
886.465	29.37
886.631	31.03
886.797	35.25
886.962	39.76
887.128	42.28
887.293	48.58
887.459	48.69
887.625	48.67
887.79	55.97
887.956	54.64
888.121	50.86
888.287	57.54
888.452	58.91
888.618	53.54
888.783	52.41
