Data from 2938047_Reflection_3.txt Node
Date: Sun Jul 12 14:23:45 EDT 2015
User: robert
Spectrometer: USB4E03001
Autoset integration time: false
Trigger mode: 4
Integration Time (sec): 1.000000E-1
Scans to average: 10
Electric dark correction enabled: true
Nonlinearity correction enabled: false
Boxcar width: 5
Stray light correction enabled: false
XAxis mode: Wavelengths
Stop averaging: false
Number of Pixels in Spectrum: 3648
>>>>>Begin Spectral Data<<<<<
177.566	-41.17
177.785	-35.85
178.005	-32.83
178.225	36.24
178.445	89.62
178.665	74.86
178.885	14.23
179.105	-357.33
179.324	212.86
179.544	184.56
179.764	391.67
179.984	333.7
180.204	305.32
180.423	199.6
180.643	174.88
180.863	140.43
181.083	166.73
181.302	124.81
181.522	120.21
181.742	132.61
181.961	126.75
182.181	109.45
182.401	120.91
182.621	119.91
182.84	113.01
183.06	128.25
183.279	121.71
183.499	117.47
183.719	120.01
183.938	136.28
184.158	150.5
184.377	161.75
184.597	214.54
184.816	206.37
185.036	242.29
185.256	265.84
185.475	165.64
185.695	145.59
185.914	188.35
186.134	168.8
186.353	141.45
186.572	123.45
186.792	100.35
187.011	84.84
187.231	87.42
187.45	100.47
187.67	111.78
187.889	114.02
188.108	129.93
188.328	95.75
188.547	104.52
188.766	147.4
188.986	142.88
189.205	173.12
189.424	209.89
189.644	203.49
189.863	236.03
190.082	175.02
190.302	203.35
190.521	201.02
190.74	224.91
190.959	334.56
191.178	191.87
191.398	251.88
191.617	254.29
191.836	344.04
192.055	302.53
192.274	308.35
192.494	1719.1
192.713	411.46
192.932	308.78
193.151	235.43
193.37	173.97
193.589	228.39
193.808	215.36
194.027	253.44
194.246	178.17
194.465	189.53
194.685	161.47
194.904	142.17
195.123	167.54
195.342	200.47
195.561	273.96
195.78	404.14
195.999	257.41
196.218	207.37
196.436	218.73
196.655	351.13
196.874	260.29
197.093	228.04
197.312	209.54
197.531	203.82
197.75	148.07
197.969	155.28
198.188	137.29
198.407	158.85
198.625	164.82
198.844	140.1
199.063	119.56
199.282	111.12
199.501	101.22
199.719	112.89
199.938	133.63
200.157	183.53
200.376	148.36
200.594	121.85
200.813	132.75
201.032	131.38
201.251	146
201.469	145.24
201.688	150.9
201.907	155.21
202.125	141.93
202.344	117.36
202.563	112.87
202.781	134.91
203	146.86
203.218	133.57
203.437	156.51
203.656	146.17
203.874	151.48
204.093	105.35
204.311	104.33
204.53	95.89
204.748	166.53
204.967	128.16
205.185	104.36
205.404	148.94
205.622	108.02
205.841	86.24
206.059	75.04
206.278	86.68
206.496	98.2
206.715	114.76
206.933	113.33
207.151	91.09
207.37	93.22
207.588	98.6
207.806	70.84
208.025	89.29
208.243	96.85
208.461	127.93
208.68	191.65
208.898	193.82
209.116	185.86
209.335	224.21
209.553	177.48
209.771	190.69
209.989	168.28
210.208	217.95
210.426	253.21
210.644	203.94
210.862	180.95
211.081	150.31
211.299	153.31
211.517	137.35
211.735	133.02
211.953	125.48
212.171	118.36
212.39	110.82
212.608	109.34
212.826	91.74
213.044	88.8
213.262	92.76
213.48	85.93
213.698	94.68
213.916	95.66
214.134	99.22
214.352	111.69
214.57	125.01
214.788	137.94
215.006	139.26
215.224	163.49
215.442	202.32
215.66	203.27
215.878	188.72
216.096	170.3
216.314	174.75
216.532	156.19
216.75	148.96
216.968	133.06
217.185	129.54
217.403	122.08
217.621	112.89
217.839	109.55
218.057	95.15
218.275	97.8
218.492	98.75
218.71	93.51
218.928	88.15
219.146	72.67
219.363	81.85
219.581	86.07
219.799	76.87
220.017	79.99
220.234	77.23
220.452	73.78
220.67	61.14
220.887	60.11
221.105	67.35
221.323	83.03
221.54	94.21
221.758	86.99
221.976	78.49
222.193	89.84
222.411	90.8
222.629	89.03
222.846	88.28
223.064	108.04
223.281	111.38
223.499	126.88
223.716	100.89
223.934	78.63
224.151	67.75
224.369	75.88
224.586	77.96
224.804	60.07
225.021	56.75
225.239	71.96
225.456	66.19
225.674	60.18
225.891	58.08
226.108	63.43
226.326	69.03
226.543	73.09
226.76	64.13
226.978	61.38
227.195	60.63
227.413	59.07
227.63	53.24
227.847	50.02
228.064	44.2
228.282	35.56
228.499	30.08
228.716	26.51
228.934	26.15
229.151	25.78
229.368	21.12
229.585	20.51
229.802	20.87
230.02	18.22
230.237	18.77
230.454	18.45
230.671	18.44
230.888	23.01
231.105	22.42
231.323	20.19
231.54	21.72
231.757	27.75
231.974	32.71
232.191	30.13
232.408	31.59
232.625	30.17
232.842	33.22
233.059	38.07
233.276	37.89
233.493	39.75
233.71	39.68
233.927	44.1
234.144	37.72
234.361	29.75
234.578	31.72
234.795	29.16
235.012	26.84
235.229	25.75
235.446	27.87
235.663	22.4
235.879	18.46
236.096	19.69
236.313	14.61
236.53	14.94
236.747	22.7
236.964	20.94
237.181	25.62
237.397	26.19
237.614	28.74
237.831	26.8
238.048	31.56
238.264	37.21
238.481	31.5
238.698	34.01
238.915	34.8
239.131	27.51
239.348	32.21
239.565	31.5
239.781	32.58
239.998	29.46
240.215	32.32
240.431	30.46
240.648	25.95
240.865	28.24
241.081	27.22
241.298	25.16
241.514	23.73
241.731	20.92
241.947	17.07
242.164	16.52
242.38	15.34
242.597	11.85
242.814	11.28
243.03	12.68
243.246	12.14
243.463	11.32
243.679	9.53
243.896	9.62
244.112	9.93
244.329	11.01
244.545	11.58
244.762	14.13
244.978	14.22
245.194	14.83
245.411	13.72
245.627	14.67
245.843	14.4
246.06	15.16
246.276	15.02
246.492	12.42
246.709	12.66
246.925	11.51
247.141	10.31
247.357	9.37
247.574	8.88
247.79	9.23
248.006	8.9
248.222	7.93
248.439	9.03
248.655	9.64
248.871	10.14
249.087	10.52
249.303	11.37
249.519	13.67
249.736	16.41
249.952	17.44
250.168	18.57
250.384	17.98
250.6	19.43
250.816	17.38
251.032	16.42
251.248	17.66
251.464	18.7
251.68	18.66
251.896	15.62
252.112	14.3
252.328	14
252.544	12.01
252.76	11.81
252.976	12.48
253.192	12.13
253.408	13.1
253.624	13.76
253.84	13.23
254.056	15.06
254.272	16.18
254.487	18.87
254.703	17.78
254.919	21.62
255.135	23.05
255.351	23.72
255.567	26.48
255.782	25.48
255.998	24.38
256.214	22.97
256.43	21.9
256.646	22.02
256.861	21.65
257.077	22.86
257.293	21.37
257.508	20.84
257.724	21.35
257.94	18.2
258.155	16.23
258.371	16.65
258.587	16.62
258.802	15.76
259.018	13.62
259.234	12.93
259.449	11.75
259.665	10.84
259.88	10.59
260.096	10.02
260.312	10.05
260.527	9.94
260.743	8.82
260.958	8.47
261.174	7.58
261.389	8.58
261.605	8.48
261.82	8.94
262.036	9.26
262.251	10.26
262.466	9.72
262.682	11.25
262.897	11.2
263.113	12.92
263.328	13.83
263.543	15.46
263.759	13.73
263.974	11.95
264.189	11.64
264.405	12.01
264.62	10.43
264.835	12.66
265.051	10.29
265.266	11.21
265.481	12.9
265.696	12.34
265.912	11.97
266.127	13.96
266.342	13.95
266.557	13.8
266.773	14.47
266.988	12.93
267.203	11.63
267.418	13.66
267.633	12.16
267.848	11.85
268.064	12.25
268.279	12.33
268.494	11.82
268.709	12.97
268.924	14.43
269.139	14.92
269.354	16.64
269.569	15.9
269.784	15.1
269.999	16.11
270.214	14.9
270.429	14.21
270.644	14.5
270.859	15.26
271.074	14.19
271.289	12.73
271.504	12.48
271.719	11.88
271.934	12
272.149	11.64
272.363	12.33
272.578	11.72
272.793	12.87
273.008	12.93
273.223	12.37
273.438	13.15
273.653	11.76
273.867	10.88
274.082	11.76
274.297	12.93
274.512	13.9
274.726	12.93
274.941	14.12
275.156	13.69
275.371	12.68
275.585	13.64
275.8	12.78
276.015	14.88
276.229	13.67
276.444	12.64
276.659	11.15
276.873	10.61
277.088	10.8
277.302	12.85
277.517	12.07
277.732	13.51
277.946	13.03
278.161	14.76
278.375	15.02
278.59	18.12
278.804	18.18
279.019	18.82
279.233	17.51
279.448	17.05
279.662	13.67
279.877	12.53
280.091	11.94
280.306	10.47
280.52	8.43
280.735	8.3
280.949	7.11
281.163	8.6
281.378	6.97
281.592	8.51
281.806	9.07
282.021	9.44
282.235	9.86
282.449	10.16
282.664	10.87
282.878	12.19
283.092	12.26
283.307	11.76
283.521	10.89
283.735	12.75
283.949	12.94
284.164	12.06
284.378	12.25
284.592	11.57
284.806	10.38
285.02	9.3
285.234	7.51
285.449	7.56
285.663	8.06
285.877	7.66
286.091	8.45
286.305	7.7
286.519	8.71
286.733	8.1
286.947	8.47
287.161	10.04
287.375	11.44
287.589	12.53
287.803	12.22
288.017	13.01
288.231	13.86
288.445	12.12
288.659	11.62
288.873	11.01
289.087	11.65
289.301	11.91
289.515	11.24
289.729	9.95
289.943	11.32
290.157	10.59
290.371	10.79
290.584	10.79
290.798	12.22
291.012	12.96
291.226	13.14
291.44	13.02
291.654	13.95
291.867	13.39
292.081	14.17
292.295	13.86
292.509	17.26
292.722	15.79
292.936	17.07
293.15	15.83
293.364	15.88
293.577	16.6
293.791	16.73
294.005	16.94
294.218	16.92
294.432	15.35
294.645	15.22
294.859	13.58
295.073	14.51
295.286	12.39
295.5	12.75
295.713	11.6
295.927	10.99
296.14	10.87
296.354	10.01
296.568	9.27
296.781	10.65
296.994	10.71
297.208	10.34
297.421	9.66
297.635	11
297.848	10.72
298.062	10.66
298.275	10.77
298.489	10.7
298.702	10.63
298.915	11.55
299.129	11.17
299.342	11.12
299.555	12.1
299.769	12.27
299.982	12.54
300.195	13.69
300.409	14.02
300.622	14
300.835	14.44
301.048	14.58
301.262	16.1
301.475	18.54
301.688	19.32
301.901	18.46
302.115	18.31
302.328	17.81
302.541	16.5
302.754	17
302.967	17.7
303.18	17.35
303.393	16.77
303.607	14.5
303.82	13.12
304.033	13.05
304.246	13.26
304.459	14.25
304.672	15.23
304.885	16.43
305.098	18.41
305.311	18.19
305.524	19.04
305.737	21.89
305.95	22.72
306.163	23.31
306.376	22.13
306.589	22.96
306.802	22.68
307.015	21.8
307.228	21.1
307.44	18.22
307.653	17.76
307.866	17.57
308.079	16.69
308.292	17.11
308.505	14.85
308.718	14.49
308.93	14.38
309.143	14.02
309.356	14.4
309.569	15.45
309.781	17.11
309.994	18.65
310.207	18.47
310.42	17.44
310.632	17.48
310.845	17.6
311.058	19.07
311.27	19.65
311.483	18.98
311.696	16.48
311.908	15.86
312.121	14.89
312.333	14
312.546	14.56
312.759	14.27
312.971	14.06
313.184	14.58
313.396	13.72
313.609	12.89
313.821	13.11
314.034	15.21
314.246	14.77
314.459	14.97
314.671	16.29
314.884	15.36
315.096	16.45
315.309	16.82
315.521	16.1
315.733	16.83
315.946	17.04
316.158	18.33
316.371	18.55
316.583	19.6
316.795	20.53
317.008	19.1
317.22	18.5
317.432	17.61
317.644	18.09
317.857	19.09
318.069	18.51
318.281	17.99
318.494	18.71
318.706	19.9
318.918	18.76
319.13	18.77
319.342	19.35
319.555	20.09
319.767	20.31
319.979	19.58
320.191	20.26
320.403	21.76
320.615	22.74
320.827	21.85
321.039	21.49
321.252	22.56
321.464	21.27
321.676	21.85
321.888	22.63
322.1	23.4
322.312	23.61
322.524	23.6
322.736	23.93
322.948	22.56
323.16	21.27
323.372	20.23
323.584	19.42
323.796	20.64
324.007	19.58
324.219	19.3
324.431	17.93
324.643	18.26
324.855	17.55
325.067	16.94
325.279	16.91
325.491	17
325.702	18.33
325.914	19.93
326.126	19.87
326.338	20.46
326.55	20.38
326.761	20.76
326.973	20.44
327.185	20.58
327.396	20.32
327.608	21.48
327.82	23.07
328.032	21.5
328.243	20.18
328.455	19.8
328.666	20.75
328.878	21.56
329.09	22.37
329.301	21.46
329.513	21.8
329.725	20.28
329.936	22.28
330.148	22.33
330.359	22.65
330.571	22.55
330.782	22.2
330.994	21.53
331.205	21.48
331.417	22.02
331.628	22.42
331.84	23.08
332.051	23.81
332.262	21.45
332.474	21.93
332.685	22.76
332.897	23.03
333.108	24.01
333.319	23.92
333.531	22.15
333.742	22.52
333.953	22.93
334.165	22.03
334.376	23.01
334.587	24.24
334.799	24.58
335.01	24.31
335.221	25.36
335.432	25.3
335.644	24.67
335.855	24.59
336.066	24.18
336.277	25.26
336.488	26.03
336.7	27.74
336.911	26.38
337.122	25.8
337.333	27.13
337.544	26.55
337.755	26.32
337.966	27.33
338.177	28.96
338.388	29.93
338.599	29.63
338.811	28.96
339.022	27.32
339.233	28.84
339.444	28.23
339.655	26.72
339.866	27.4
340.076	28.57
340.287	28.44
340.498	28.12
340.709	27.03
340.92	25.53
341.131	26.18
341.342	26.18
341.553	26.27
341.764	26.82
341.975	27.35
342.185	27.43
342.396	26.9
342.607	26.21
342.818	26.08
343.029	26.9
343.239	27.86
343.45	27.85
343.661	27.61
343.872	26.48
344.082	25.22
344.293	24.14
344.504	24.53
344.714	24.07
344.925	24.89
345.136	25.75
345.346	25.28
345.557	24.7
345.768	23.24
345.978	23.24
346.189	23.6
346.399	23.73
346.61	25.24
346.821	24.58
347.031	24.59
347.242	23.52
347.452	23.07
347.663	23.29
347.873	24.42
348.084	26.75
348.294	27.45
348.504	27.29
348.715	28.15
348.925	27.64
349.136	28.05
349.346	27.71
349.557	28.42
349.767	27.85
349.977	28.04
350.188	26.58
350.398	26.94
350.608	26.48
350.819	27.56
351.029	27.35
351.239	27.95
351.449	28.21
351.66	28.87
351.87	29.1
352.08	29.14
352.29	29.17
352.501	30.59
352.711	30.69
352.921	30.76
353.131	29.47
353.341	28.73
353.552	28.32
353.762	29.01
353.972	28.99
354.182	29.61
354.392	30.63
354.602	30.63
354.812	29.87
355.022	29.31
355.232	28.57
355.442	28.46
355.652	29.46
355.862	29.36
356.072	27.48
356.282	28.41
356.492	28.9
356.702	28.43
356.912	27.94
357.122	28.12
357.332	27.56
357.542	28
357.752	28.61
357.962	28.81
358.171	28.62
358.381	29.41
358.591	28.4
358.801	27.15
359.011	26.48
359.221	26.54
359.43	26.31
359.64	27.22
359.85	28.22
360.06	28.03
360.269	27.67
360.479	27.87
360.689	28.14
360.899	27.62
361.108	27.25
361.318	28.02
361.528	28.39
361.737	28.94
361.947	28.39
362.156	27.73
362.366	27.92
362.576	27.98
362.785	28.02
362.995	27.82
363.204	28.62
363.414	28.76
363.623	28.34
363.833	27.98
364.042	28.17
364.252	28.55
364.461	28.3
364.671	28.04
364.88	27.62
365.09	26.76
365.299	26.7
365.509	26.32
365.718	26.8
365.927	27.56
366.137	27.94
366.346	27.39
366.555	26.96
366.765	27.73
366.974	27.9
367.183	28.49
367.393	29.59
367.602	29.81
367.811	30.27
368.021	30.03
368.23	30.02
368.439	29.59
368.648	29.96
368.857	29.36
369.067	28.88
369.276	28.71
369.485	28.19
369.694	27.38
369.903	26.96
370.112	26.17
370.321	26.35
370.531	25.72
370.74	25.96
370.949	25.72
371.158	26.04
371.367	25.68
371.576	25.7
371.785	25.92
371.994	26.92
372.203	27.33
372.412	28.04
372.621	28.32
372.83	28.62
373.039	28.74
373.248	28.66
373.457	28.74
373.666	28.82
373.874	28.29
374.083	28.26
374.292	27.58
374.501	27.12
374.71	26.55
374.919	25.79
375.128	25.45
375.336	25.33
375.545	25.09
375.754	24.92
375.963	24.71
376.171	25.19
376.38	24.9
376.589	25.09
376.798	25.35
377.006	25.35
377.215	25.83
377.424	26.34
377.632	26.55
377.841	26.61
378.05	26.54
378.258	26.71
378.467	26.89
378.675	26.51
378.884	26.55
379.093	26.45
379.301	27.39
379.51	27.3
379.718	26.32
379.927	25.79
380.135	26.28
380.344	26.76
380.552	26.68
380.761	26.37
380.969	27.05
381.177	26.59
381.386	26.3
381.594	25.17
381.803	24.78
382.011	24.75
382.219	24.85
382.428	24.43
382.636	24.37
382.845	24.56
383.053	24.69
383.261	24.47
383.469	24.61
383.678	24.32
383.886	24.39
384.094	24.48
384.302	24.96
384.511	25.18
384.719	25.17
384.927	24.67
385.135	24.41
385.343	24.56
385.552	24.47
385.76	24.34
385.968	24.56
386.176	24.37
386.384	24.39
386.592	24.12
386.8	23.51
387.008	23.17
387.216	23.29
387.424	22.98
387.633	22.55
387.841	22.5
388.049	22.77
388.257	22.56
388.465	22.73
388.672	22.93
388.88	23.23
389.088	23.26
389.296	23.47
389.504	23.51
389.712	24.16
389.92	24.2
390.128	24.14
390.336	23.4
390.544	23.53
390.751	23.7
390.959	23.2
391.167	22.6
391.375	22.78
391.583	22.66
391.79	22.4
391.998	22.22
392.206	22
392.414	22.04
392.621	22.36
392.829	22.23
393.037	21.94
393.244	22.1
393.452	22.3
393.66	21.91
393.867	21.68
394.075	21.82
394.283	21.54
394.49	21.87
394.698	22.1
394.905	22.25
395.113	22.56
395.32	22.69
395.528	22.6
395.735	22.95
395.943	23.52
396.15	24.1
396.358	24.13
396.565	24.37
396.773	24.25
396.98	24.05
397.188	24.06
397.395	23.85
397.602	24.14
397.81	24.43
398.017	24.3
398.225	24.18
398.432	24.14
398.639	24.28
398.847	24.27
399.054	24.1
399.261	24.32
399.468	24.47
399.676	24.57
399.883	24.61
400.09	24.79
400.297	24.55
400.505	24.55
400.712	24.37
400.919	24.41
401.126	24.4
401.333	24.58
401.54	24.36
401.748	23.92
401.955	23.97
402.162	23.94
402.369	23.88
402.576	23.9
402.783	23.99
402.99	23.92
403.197	23.63
403.404	23.61
403.611	23.53
403.818	23.86
404.025	24.14
404.232	24.2
404.439	24.05
404.646	23.68
404.853	24.02
405.06	24.07
405.267	23.95
405.474	24.12
405.681	24.11
405.887	24.35
406.094	24.11
406.301	23.86
406.508	23.75
406.715	23.83
406.922	24.19
407.128	24.06
407.335	23.96
407.542	24.16
407.749	24.28
407.955	24.16
408.162	23.89
408.369	23.7
408.575	23.98
408.782	23.88
408.989	23.83
409.195	23.66
409.402	23.22
409.609	23.13
409.815	22.98
410.022	22.92
410.228	23.12
410.435	23.51
410.642	23.7
410.848	23.6
411.055	23.98
411.261	24.08
411.468	24.19
411.674	24.41
411.881	24.84
412.087	25.09
412.294	25.3
412.5	25.21
412.706	24.89
412.913	24.95
413.119	24.91
413.326	24.31
413.532	24.12
413.738	23.84
413.945	23.97
414.151	23.96
414.357	23.92
414.564	23.46
414.77	23.34
414.976	23.23
415.182	23.13
415.389	23.04
415.595	23.34
415.801	23.43
416.007	23.66
416.214	23.6
416.42	23.29
416.626	23.25
416.832	23.58
417.038	23.59
417.244	23.53
417.45	23.49
417.657	23.58
417.863	23.55
418.069	23.27
418.275	23.24
418.481	22.99
418.687	22.89
418.893	22.75
419.099	22.57
419.305	22.56
419.511	22.53
419.717	22.53
419.923	22.36
420.129	22.14
420.335	22.15
420.541	22.11
420.746	22.11
420.952	22.18
421.158	22.09
421.364	22.05
421.57	22.18
421.776	22.2
421.982	22.1
422.187	22.1
422.393	22.12
422.599	22.17
422.805	22
423.01	22.16
423.216	22.07
423.422	22.17
423.628	22.13
423.833	21.93
424.039	21.89
424.245	22.05
424.45	21.96
424.656	22.01
424.862	21.91
425.067	22.04
425.273	21.78
425.478	21.72
425.684	21.57
425.889	21.54
426.095	21.36
426.301	21.37
426.506	21.08
426.712	21.11
426.917	21.15
427.123	21.36
427.328	21.2
427.533	21.44
427.739	21.25
427.944	21.38
428.15	21.41
428.355	21.57
428.561	21.54
428.766	21.61
428.971	21.77
429.177	21.71
429.382	21.65
429.587	21.91
429.793	21.86
429.998	22.11
430.203	21.94
430.408	21.82
430.614	21.85
430.819	21.92
431.024	22.05
431.229	22.03
431.434	21.85
431.64	21.63
431.845	21.43
432.05	21.57
432.255	21.51
432.46	21.56
432.665	21.75
432.87	21.62
433.076	21.53
433.281	21.39
433.486	21.33
433.691	21.35
433.896	21.46
434.101	21.57
434.306	21.53
434.511	21.39
434.716	21.53
434.921	21.42
435.126	21.63
435.331	21.63
435.535	21.73
435.74	21.9
435.945	21.85
436.15	21.74
436.355	21.37
436.56	21.33
436.765	21.53
436.97	21.36
437.174	21.47
437.379	21.14
437.584	21.15
437.789	21.21
437.993	20.9
438.198	20.99
438.403	20.87
438.608	21.02
438.812	20.92
439.017	20.88
439.222	20.9
439.426	20.87
439.631	21
439.836	21.1
440.04	20.93
440.245	21.06
440.45	21.2
440.654	21.15
440.859	21.18
441.063	21.19
441.268	21.14
441.472	21.22
441.677	21.28
441.881	21.28
442.086	21.29
442.29	21.33
442.495	21.33
442.699	21.27
442.904	21.43
443.108	21.5
443.312	21.52
443.517	21.46
443.721	21.44
443.925	21.29
444.13	21.27
444.334	21.1
444.538	21.17
444.743	21.06
444.947	20.99
445.151	21.02
445.356	20.94
445.56	20.92
445.764	20.99
445.968	20.79
446.173	20.75
446.377	20.79
446.581	20.73
446.785	20.6
446.989	20.75
447.193	20.69
447.398	20.7
447.602	20.67
447.806	20.67
448.01	20.69
448.214	20.84
448.418	20.83
448.622	20.94
448.826	20.91
449.03	21.02
449.234	20.81
449.438	20.76
449.642	20.78
449.846	20.86
450.05	20.81
450.254	20.92
450.458	20.96
450.662	21.09
450.866	20.9
451.069	21.09
451.273	21.02
451.477	21.1
451.681	21.18
451.885	21.09
452.089	20.92
452.292	20.89
452.496	20.63
452.7	20.6
452.904	20.55
453.107	20.56
453.311	20.57
453.515	20.58
453.719	20.58
453.922	20.45
454.126	20.55
454.33	20.61
454.533	20.78
454.737	20.85
454.94	20.73
455.144	20.7
455.348	20.7
455.551	20.65
455.755	20.91
455.958	20.89
456.162	21
456.365	20.78
456.569	20.84
456.772	20.7
456.976	20.78
457.179	20.79
457.383	20.69
457.586	20.63
457.79	20.51
457.993	20.22
458.196	20.33
458.4	20.29
458.603	20.31
458.807	20.19
459.01	20.18
459.213	20.01
459.417	20.13
459.62	20.14
459.823	20.24
460.026	20.38
460.23	20.46
460.433	20.41
460.636	20.5
460.839	20.6
461.042	20.7
461.246	20.79
461.449	20.96
461.652	20.89
461.855	20.95
462.058	20.87
462.261	20.76
462.464	20.86
462.668	20.78
462.871	20.89
463.074	20.95
463.277	21.05
463.48	21.05
463.683	20.96
463.886	21.2
464.089	21.25
464.292	21.41
464.495	21.44
464.698	21.41
464.901	21.56
465.104	21.32
465.306	21.32
465.509	21.31
465.712	21.22
465.915	21.33
466.118	21.29
466.321	21.19
466.524	21.26
466.726	21.54
466.929	21.56
467.132	21.76
467.335	21.94
467.538	21.83
467.74	21.78
467.943	22.03
468.146	22.08
468.348	22.08
468.551	22.26
468.754	22.07
468.956	21.68
469.159	21.6
469.362	21.47
469.564	21.47
469.767	21.75
469.969	21.7
470.172	21.55
470.375	21.54
470.577	21.47
470.78	21.55
470.982	21.68
471.185	21.82
471.387	21.9
471.59	21.98
471.792	22.1
471.995	22.08
472.197	22.16
472.399	22.19
472.602	22.11
472.804	22.05
473.007	22.15
473.209	22.07
473.411	22.38
473.614	22.34
473.816	22.15
474.018	22
474.22	21.87
474.423	21.95
474.625	21.88
474.827	22.03
475.03	22.09
475.232	21.86
475.434	21.8
475.636	21.59
475.838	21.71
476.04	21.69
476.243	21.71
476.445	21.69
476.647	21.48
476.849	21.57
477.051	21.43
477.253	21.43
477.455	21.45
477.657	21.57
477.859	21.57
478.061	21.64
478.263	21.69
478.465	21.82
478.667	21.77
478.869	21.94
479.071	21.8
479.273	21.97
479.475	21.99
479.677	21.97
479.879	22.01
480.081	21.97
480.283	21.85
480.485	22
480.686	21.95
480.888	21.99
481.09	21.99
481.292	22.05
481.494	21.88
481.695	21.81
481.897	21.8
482.099	21.67
482.301	21.62
482.502	21.48
482.704	21.29
482.906	21.21
483.107	21.15
483.309	21.1
483.511	21.09
483.712	21.09
483.914	21.05
484.115	21.03
484.317	20.97
484.519	20.96
484.72	20.96
484.922	21.02
485.123	20.97
485.325	20.88
485.526	20.89
485.728	20.88
485.929	20.91
486.131	20.94
486.332	20.97
486.534	21.01
486.735	20.94
486.936	20.95
487.138	21
487.339	21.08
487.541	21.17
487.742	21.23
487.943	21.17
488.144	21.13
488.346	21.12
488.547	21.19
488.748	21.25
488.95	21.38
489.151	21.46
489.352	21.42
489.553	21.39
489.755	21.32
489.956	21.24
490.157	21.34
490.358	21.38
490.559	21.42
490.76	21.31
490.961	21.28
491.163	21.18
491.364	21.1
491.565	21.08
491.766	21.16
491.967	21.27
492.168	21.28
492.369	21.3
492.57	21.33
492.771	21.35
492.972	21.38
493.173	21.42
493.374	21.5
493.575	21.6
493.776	21.72
493.976	21.74
494.177	21.82
494.378	21.73
494.579	21.79
494.78	21.89
494.981	21.92
495.182	21.83
495.382	21.72
495.583	21.67
495.784	21.71
495.985	21.65
496.185	21.44
496.386	21.46
496.587	21.58
496.788	21.6
496.988	21.55
497.189	21.5
497.39	21.63
497.59	21.75
497.791	21.84
497.992	21.91
498.192	21.8
498.393	21.92
498.593	21.88
498.794	21.93
498.994	21.74
499.195	21.68
499.395	21.83
499.596	21.86
499.796	21.89
499.997	22.01
500.197	21.96
500.398	22
500.598	22.12
500.799	22.18
500.999	22.18
501.199	22.38
501.4	22.58
501.6	22.59
501.801	22.57
502.001	22.69
502.201	22.7
502.402	22.69
502.602	22.79
502.802	22.79
503.002	22.91
503.203	22.99
503.403	23.07
503.603	23.11
503.803	23.03
504.003	23.08
504.204	23.01
504.404	23.03
504.604	23.22
504.804	23.37
505.004	23.42
505.204	23.34
505.404	23.37
505.604	23.29
505.804	23.19
506.005	23.28
506.205	23.42
506.405	23.54
506.605	23.52
506.805	23.48
507.005	23.55
507.204	23.46
507.404	23.51
507.604	23.47
507.804	23.53
508.004	23.69
508.204	23.73
508.404	23.53
508.604	23.44
508.804	23.37
509.003	23.41
509.203	23.36
509.403	23.55
509.603	23.62
509.803	23.72
510.002	23.8
510.202	23.7
510.402	23.61
510.602	23.67
510.801	23.78
511.001	23.84
511.201	23.79
511.4	23.79
511.6	23.58
511.8	23.5
511.999	23.59
512.199	23.64
512.398	23.74
512.598	23.93
512.797	24.09
512.997	24.14
513.197	24.18
513.396	24.18
513.596	24.3
513.795	24.58
513.994	24.77
514.194	24.8
514.393	24.82
514.593	24.78
514.792	24.77
514.992	24.81
515.191	24.84
515.39	24.96
515.59	25.17
515.789	25.16
515.988	24.98
516.188	24.88
516.387	24.87
516.586	24.85
516.786	24.79
516.985	24.83
517.184	24.76
517.383	24.74
517.582	24.69
517.782	24.66
517.981	24.63
518.18	24.68
518.379	24.76
518.578	24.75
518.777	24.75
518.976	24.85
519.176	24.9
519.375	24.93
519.574	25.07
519.773	25.18
519.972	25.13
520.171	25.17
520.37	25.32
520.569	25.31
520.768	25.32
520.967	25.4
521.166	25.48
521.365	25.47
521.564	25.46
521.762	25.35
521.961	25.26
522.16	25.31
522.359	25.29
522.558	25.22
522.757	25.22
522.956	25.32
523.154	25.28
523.353	25.33
523.552	25.33
523.751	25.48
523.949	25.65
524.148	25.74
524.347	25.69
524.546	25.76
524.744	25.85
524.943	25.83
525.142	25.87
525.34	25.96
525.539	25.9
525.737	25.88
525.936	25.87
526.135	25.74
526.333	25.74
526.532	25.85
526.73	25.72
526.929	25.63
527.127	25.7
527.326	25.66
527.524	25.57
527.723	25.57
527.921	25.61
528.12	25.55
528.318	25.57
528.516	25.51
528.715	25.51
528.913	25.59
529.112	25.63
529.31	25.62
529.508	25.67
529.707	25.75
529.905	25.79
530.103	25.81
530.301	25.89
530.5	25.95
530.698	25.98
530.896	25.95
531.094	25.96
531.293	25.96
531.491	26.03
531.689	26.07
531.887	26.07
532.085	25.99
532.283	25.99
532.481	25.98
532.68	25.93
532.878	25.91
533.076	26.02
533.274	26.07
533.472	26.16
533.67	26.22
533.868	26.18
534.066	26.16
534.264	26.25
534.462	26.28
534.66	26.31
534.858	26.4
535.056	26.51
535.253	26.51
535.451	26.55
535.649	26.55
535.847	26.58
536.045	26.58
536.243	26.55
536.441	26.59
536.638	26.66
536.836	26.74
537.034	26.75
537.232	26.79
537.43	26.79
537.627	26.8
537.825	26.81
538.023	26.72
538.22	26.87
538.418	27.07
538.616	27.15
538.813	27.22
539.011	27.23
539.209	27.22
539.406	27.21
539.604	27.15
539.801	27.26
539.999	27.16
540.196	27.18
540.394	27.1
540.591	26.98
540.789	26.87
540.986	26.74
541.184	26.74
541.381	26.84
541.579	26.91
541.776	26.94
541.974	26.89
542.171	26.97
542.368	26.99
542.566	26.98
542.763	27.04
542.96	27.15
543.158	27.2
543.355	27.24
543.552	27.26
543.75	27.27
543.947	27.39
544.144	27.42
544.341	27.5
544.539	27.57
544.736	27.59
544.933	27.67
545.13	27.69
545.327	27.81
545.524	27.95
545.722	27.97
545.919	27.99
546.116	27.98
546.313	28.07
546.51	28.12
546.707	28.13
546.904	28.27
547.101	28.36
547.298	28.44
547.495	28.66
547.692	28.5
547.889	28.48
548.086	28.39
548.283	28.61
548.48	28.58
548.677	28.58
548.874	28.61
549.07	28.59
549.267	28.58
549.464	28.57
549.661	28.26
549.858	28.37
550.055	28.41
550.251	28.74
550.448	28.51
550.645	28.62
550.842	28.51
551.038	28.69
551.235	28.73
551.432	28.76
551.628	28.7
551.825	28.74
552.022	28.95
552.218	29.18
552.415	29.25
552.612	29.5
552.808	29.75
553.005	30.05
553.201	29.85
553.398	29.95
553.594	30.01
553.791	30.14
553.987	30.28
554.184	30.2
554.38	30.06
554.577	30.12
554.773	30
554.97	29.84
555.166	29.72
555.362	29.9
555.559	29.86
555.755	29.82
555.952	29.98
556.148	30.07
556.344	30.11
556.541	30.26
556.737	30.22
556.933	30.26
557.129	30.35
557.326	30.42
557.522	30.49
557.718	30.55
557.914	30.58
558.11	30.55
558.307	30.5
558.503	30.59
558.699	30.55
558.895	30.42
559.091	30.33
559.287	30.05
559.483	30.14
559.679	30
559.876	30.08
560.072	30.04
560.268	29.97
560.464	29.84
560.66	29.63
560.856	29.63
561.052	29.79
561.247	30.01
561.443	30.47
561.639	30.34
561.835	30.63
562.031	30.6
562.227	30.65
562.423	30.74
562.619	30.98
562.815	31.08
563.01	31.15
563.206	31.2
563.402	31.1
563.598	30.93
563.793	30.93
563.989	30.77
564.185	30.77
564.381	30.81
564.576	30.85
564.772	30.68
564.968	30.9
565.163	30.74
565.359	30.79
565.555	30.87
565.75	30.93
565.946	30.9
566.141	31.02
566.337	31.11
566.532	31.13
566.728	31.15
566.923	31.29
567.119	31.08
567.314	31.24
567.51	31.3
567.705	31.39
567.901	31.35
568.096	31.47
568.292	31.58
568.487	31.73
568.682	31.67
568.878	31.74
569.073	31.83
569.268	32.12
569.464	32.11
569.659	32.06
569.854	31.94
570.05	32.09
570.245	32.05
570.44	31.92
570.635	31.65
570.831	31.85
571.026	31.9
571.221	31.88
571.416	31.75
571.611	31.86
571.806	31.91
572.002	32.07
572.197	31.76
572.392	31.84
572.587	31.8
572.782	31.93
572.977	31.89
573.172	31.87
573.367	31.88
573.562	32.01
573.757	32.03
573.952	32.12
574.147	32.16
574.342	32.53
574.537	32.6
574.732	32.71
574.927	32.75
575.121	32.77
575.316	32.86
575.511	32.85
575.706	32.88
575.901	32.9
576.096	32.95
576.29	32.81
576.485	32.9
576.68	33.07
576.875	33.26
577.069	33.41
577.264	33.18
577.459	33.15
577.654	33.21
577.848	33.1
578.043	33.27
578.238	33.06
578.432	33.1
578.627	32.78
578.821	32.64
579.016	32.4
579.21	32.32
579.405	32.58
579.6	32.61
579.794	32.75
579.989	33.16
580.183	32.96
580.378	33.13
580.572	33.46
580.766	33.6
580.961	33.34
581.155	33.62
581.35	33.62
581.544	33.61
581.738	33.78
581.933	33.77
582.127	33.64
582.321	33.7
582.516	33.87
582.71	33.88
582.904	33.97
583.099	34.3
583.293	34.04
583.487	34.19
583.681	34.34
583.875	34.28
584.07	34.2
584.264	34.13
584.458	34.32
584.652	34.05
584.846	34.17
585.04	34.03
585.234	34.05
585.428	34.08
585.623	34.03
585.817	34.34
586.011	34.4
586.205	34.59
586.399	34.66
586.593	34.23
586.787	34.45
586.981	34.2
587.174	34.25
587.368	34.16
587.562	34.2
587.756	33.99
587.95	33.81
588.144	33.74
588.338	33.62
588.532	33.45
588.725	33.77
588.919	33.62
589.113	33.59
589.307	33.8
589.501	33.71
589.694	33.83
589.888	33.92
590.082	33.82
590.275	33.95
590.469	33.86
590.663	34.08
590.856	33.92
591.05	33.7
591.244	33.93
591.437	33.72
591.631	33.96
591.824	33.64
592.018	33.55
592.212	33.75
592.405	33.6
592.599	33.85
592.792	33.76
592.986	33.83
593.179	34.22
593.372	33.98
593.566	34.1
593.759	33.96
593.953	34.25
594.146	34.57
594.339	34.16
594.533	34.18
594.726	33.99
594.92	33.95
595.113	33.83
595.306	33.91
595.499	33.89
595.693	33.73
595.886	33.75
596.079	33.63
596.272	33.54
596.466	33.68
596.659	33.65
596.852	33.85
597.045	33.71
597.238	33.88
597.431	33.83
597.624	33.86
597.818	34.02
598.011	34.11
598.204	34.1
598.397	34.02
598.59	34.29
598.783	34.38
598.976	34.2
599.169	34.28
599.362	34.26
599.555	34.05
599.748	34.16
599.941	34.12
600.134	34.13
600.326	34.3
600.519	34.53
600.712	34.32
600.905	33.98
601.098	33.98
601.291	34.35
601.483	34.51
601.676	34.65
601.869	34.59
602.062	34.58
602.255	34.41
602.447	34.14
602.64	34.09
602.833	33.98
603.025	34.05
603.218	33.88
603.411	33.57
603.603	33.42
603.796	33.4
603.989	33.15
604.181	33.12
604.374	33.2
604.566	33.56
604.759	33.54
604.951	33.58
605.144	33.66
605.336	33.88
605.529	34.08
605.721	34.05
605.914	33.96
606.106	34.07
606.299	34.07
606.491	34.2
606.683	34.05
606.876	33.89
607.068	33.84
607.26	33.94
607.453	33.67
607.645	33.6
607.837	33.53
608.03	33.97
608.222	34.09
608.414	34.04
608.606	34.16
608.799	34.27
608.991	34.21
609.183	34.33
609.375	34.18
609.567	34.35
609.759	34.31
609.952	34.24
610.144	33.79
610.336	33.76
610.528	33.81
610.72	33.91
610.912	33.73
611.104	33.87
611.296	33.88
611.488	34.05
611.68	34.33
611.872	34.46
612.064	34.77
612.256	35.18
612.448	35.35
612.64	35.43
612.832	35.04
613.023	35.24
613.215	35.49
613.407	35.73
613.599	35.47
613.791	35.02
613.983	34.77
614.174	34.66
614.366	34.66
614.558	34.48
614.75	34.73
614.941	34.75
615.133	34.63
615.325	34.71
615.516	34.35
615.708	34.74
615.9	35.01
616.091	34.96
616.283	34.9
616.475	34.68
616.666	34.9
616.858	34.83
617.049	34.71
617.241	34.49
617.432	34.17
617.624	34.31
617.815	34.28
618.007	34.11
618.198	34.59
618.39	34.58
618.581	34.84
618.773	34.65
618.964	34.62
619.155	34.82
619.347	34.9
619.538	34.8
619.729	34.9
619.921	34.62
620.112	34.73
620.303	34.25
620.494	34.59
620.686	34.3
620.877	34.38
621.068	34.49
621.259	34.78
621.451	35.07
621.642	35.33
621.833	35.28
622.024	35.53
622.215	35.64
622.406	35.63
622.597	35.25
622.788	35.31
622.98	35.31
623.171	35.01
623.362	34.7
623.553	34.42
623.744	34.43
623.935	34.24
624.126	34.38
624.317	34.39
624.508	34.52
624.698	34.51
624.889	34.52
625.08	34.74
625.271	34.55
625.462	34.45
625.653	34.58
625.844	34.44
626.034	34.54
626.225	34.57
626.416	34.7
626.607	34.53
626.798	34.76
626.988	34.83
627.179	34.8
627.37	35.01
627.56	35.26
627.751	35.18
627.942	35.54
628.132	35.73
628.323	35.68
628.514	35.57
628.704	35.78
628.895	35.62
629.085	35.66
629.276	35.29
629.466	35.37
629.657	35.03
629.847	35.26
630.038	35.09
630.228	34.67
630.419	34.86
630.609	34.99
630.8	35.13
630.99	35.48
631.181	35.54
631.371	36.05
631.561	36.05
631.752	36.32
631.942	36.01
632.132	35.77
632.323	36.09
632.513	35.83
632.703	35.61
632.893	35.38
633.084	35.37
633.274	35.62
633.464	35.44
633.654	35.7
633.844	35.54
634.034	35.91
634.225	35.94
634.415	35.95
634.605	36.12
634.795	36.14
634.985	36.13
635.175	36.03
635.365	35.84
635.555	35.71
635.745	35.54
635.935	35.8
636.125	35.52
636.315	35.75
636.505	35.9
636.695	35.69
636.885	35.63
637.075	35.98
637.265	35.99
637.455	35.37
637.644	35.5
637.834	35.74
638.024	35.46
638.214	35.41
638.404	35.5
638.593	35.26
638.783	35.44
638.973	35.15
639.163	35.04
639.352	34.87
639.542	35.19
639.732	35.3
639.921	34.83
640.111	34.78
640.301	35.2
640.49	34.35
640.68	34.32
640.87	34.19
641.059	34.86
641.249	34.99
641.438	34.94
641.628	35.33
641.817	35.35
642.007	35.69
642.196	35.68
642.386	35.75
642.575	36.06
642.764	35.95
642.954	36.13
643.143	35.84
643.333	35.26
643.522	35.4
643.711	35.52
643.901	35.49
644.09	34.67
644.279	34.94
644.469	34.6
644.658	34.96
644.847	35.37
645.036	35.12
645.226	35.08
645.415	35.3
645.604	35.12
645.793	34.83
645.982	34.52
646.171	35.1
646.361	35.15
646.55	35.05
646.739	34.99
646.928	34.79
647.117	34.89
647.306	34.98
647.495	34.72
647.684	34.92
647.873	35.04
648.062	35.4
648.251	35.31
648.44	35.51
648.629	35.92
648.818	36.18
649.007	35.99
649.196	35.77
649.384	35.61
649.573	36.24
649.762	36.36
649.951	36.22
650.14	36.16
650.328	36.55
650.517	36.58
650.706	36.49
650.895	36.25
651.083	36.65
651.272	36.65
651.461	37.13
651.65	36.65
651.838	36.8
652.027	36.62
652.216	36.37
652.404	36.17
652.593	36.09
652.781	36.02
652.97	36.11
653.158	35.74
653.347	36.19
653.535	35.55
653.724	36.12
653.912	36.02
654.101	36.14
654.289	36.5
654.478	36.4
654.666	35.88
654.855	35.99
655.043	35.68
655.231	35.83
655.42	35.7
655.608	36.08
655.796	35.66
655.985	35.79
656.173	35.9
656.361	35.58
656.55	35.68
656.738	35.87
656.926	35.61
657.114	35.95
657.302	36.11
657.491	35.82
657.679	35.77
657.867	36.01
658.055	35.52
658.243	35.52
658.431	35.6
658.619	35.31
658.807	35.55
658.996	35.47
659.184	35.62
659.372	35.45
659.56	35.78
659.748	35.78
659.936	35.36
660.124	35.51
660.311	35.37
660.499	35.33
660.687	35.5
660.875	35.29
661.063	35.43
661.251	35.16
661.439	35.02
661.627	34.75
661.814	34.36
662.002	34.64
662.19	34.56
662.378	34.74
662.565	34.7
662.753	34.82
662.941	34.97
663.129	35.16
663.316	35.48
663.504	35.72
663.692	35.69
663.879	35.69
664.067	35.72
664.254	35.8
664.442	35.56
664.63	35.89
664.817	35.93
665.005	35.89
665.192	35.9
665.38	35.51
665.567	35.4
665.755	35.43
665.942	35.86
666.13	36.24
666.317	36.24
666.504	36.83
666.692	37.4
666.879	37.36
667.067	37.2
667.254	36.8
667.441	36.89
667.629	36.79
667.816	36.65
668.003	36.82
668.19	36.63
668.378	36.67
668.565	36.4
668.752	35.73
668.939	35.81
669.127	35.8
669.314	36.22
669.501	36.48
669.688	36.84
669.875	37.15
670.062	37.31
670.249	37.03
670.436	37.49
670.623	37.47
670.81	37.41
670.997	37.36
671.184	37.29
671.371	37.07
671.558	36.83
671.745	36.84
671.932	36.29
672.119	35.77
672.306	36.14
672.493	35.79
672.68	35.95
672.867	36.03
673.054	35.72
673.24	35.84
673.427	35.97
673.614	36.12
673.801	35.79
673.988	36.41
674.174	36.82
674.361	36.5
674.548	36.81
674.734	36.7
674.921	36.41
675.108	36.32
675.294	36.44
675.481	35.84
675.668	35.44
675.854	35.93
676.041	35.85
676.227	35.4
676.414	35.56
676.601	35.61
676.787	35.8
676.974	36.42
677.16	36.71
677.347	36.59
677.533	37.13
677.719	37.3
677.906	37.1
678.092	37.12
678.279	37.19
678.465	37.06
678.651	36.45
678.838	36.02
679.024	35.42
679.21	35.13
679.397	35.37
679.583	35.22
679.769	35.05
679.955	34.81
680.142	34.89
680.328	34.81
680.514	34.86
680.7	34.95
680.886	35.41
681.073	35.72
681.259	36.05
681.445	35.77
681.631	35.94
681.817	36.38
682.003	36.27
682.189	35.78
682.375	35.72
682.561	35.66
682.747	36
682.933	35.73
683.119	35.55
683.305	36.18
683.491	36.44
683.677	36.31
683.863	36.05
684.049	36.46
684.235	36.99
684.42	37.27
684.606	37.31
684.792	36.79
684.978	36.9
685.164	37.36
685.349	36.41
685.535	35.95
685.721	35.88
685.907	36.16
686.092	35.69
686.278	35.37
686.464	35.56
686.649	35.39
686.835	35.15
687.021	34.86
687.206	34.39
687.392	34.6
687.577	34.87
687.763	35.27
687.948	35.05
688.134	35.21
688.319	35.23
688.505	34.5
688.69	34.32
688.876	35
689.061	34.92
689.247	35.03
689.432	35.18
689.618	35.59
689.803	35.15
689.988	35.23
690.174	35.22
690.359	35.2
690.544	36.11
690.73	36.52
690.915	36.42
691.1	36.76
691.285	36.95
691.471	36.41
691.656	35.94
691.841	36.32
692.026	36.05
692.211	35.91
692.396	36.12
692.582	36.34
692.767	35.93
692.952	36.02
693.137	35.66
693.322	35.15
693.507	36
693.692	36.11
693.877	35.93
694.062	35.68
694.247	35.75
694.432	35.73
694.617	35.47
694.802	36.03
694.987	35.82
695.172	36.47
695.357	36.79
695.541	36.41
695.726	36.86
695.911	36.87
696.096	37.27
696.281	37.48
696.466	37.29
696.65	36.86
696.835	37.05
697.02	37.04
697.204	36.54
697.389	36.64
697.574	36.46
697.759	36.03
697.943	36.13
698.128	36.06
698.312	35.95
698.497	36.36
698.682	36.48
698.866	36.16
699.051	36.24
699.235	36.06
699.42	35.86
699.604	36.41
699.789	36.53
699.973	36.34
700.158	36.58
700.342	36.43
700.527	36.16
700.711	36.12
700.895	36.25
701.08	36.41
701.264	36.14
701.448	36.16
701.633	35.77
701.817	35.74
702.001	35.67
702.186	34.95
702.37	35.58
702.554	35.62
702.738	35.71
702.923	35.77
703.107	35.96
703.291	36.6
703.475	37.11
703.659	36.99
703.843	37.44
704.027	37.93
704.212	38.43
704.396	38.79
704.58	38.6
704.764	38.55
704.948	37.8
705.132	37.82
705.316	37.81
705.5	37.74
705.684	38.27
705.868	37.84
706.052	37.78
706.235	38.12
706.419	37.79
706.603	37.49
706.787	37.77
706.971	38.88
707.155	38.27
707.339	38
707.522	37.94
707.706	37.47
707.89	37.63
708.074	36.73
708.257	36.41
708.441	36.27
708.625	37.12
708.808	36.78
708.992	36.21
709.176	36.19
709.359	36.94
709.543	36.95
709.727	37.6
709.91	38.38
710.094	39.93
710.277	40.32
710.461	40.08
710.644	39.51
710.828	39.27
711.011	39.21
711.195	39.15
711.378	39.1
711.562	38.7
711.745	37.77
711.928	37.36
712.112	37.52
712.295	37.03
712.478	37.45
712.662	37.42
712.845	38.39
713.028	38.82
713.212	38.55
713.395	38.12
713.578	38.54
713.761	38.76
713.945	38.58
714.128	37.63
714.311	38.14
714.494	37.57
714.677	38.34
714.86	38.03
715.043	38.48
715.227	38.77
715.41	39.49
715.593	39.38
715.776	39.05
715.959	38.98
716.142	38.85
716.325	37.89
716.508	38.67
716.691	37.42
716.874	37.3
717.057	36.88
717.239	37.52
717.422	36.58
717.605	36.7
717.788	37
717.971	36.85
718.154	37.12
718.337	37.39
718.519	36.94
718.702	37.3
718.885	37.2
719.068	36.62
719.25	36.65
719.433	37.81
719.616	38.6
719.798	38.72
719.981	39.32
720.164	39.08
720.346	39.36
720.529	39.74
720.712	39.84
720.894	39.64
721.077	39.39
721.259	38.49
721.442	37.39
721.624	36.05
721.807	36
721.989	35.42
722.172	34.84
722.354	35.81
722.537	35.89
722.719	36.01
722.901	35.29
723.084	36.24
723.266	36.97
723.448	37
723.631	37.59
723.813	37.1
723.995	37.14
724.178	38.06
724.36	36.92
724.542	36.62
724.724	37.05
724.907	37.07
725.089	37.16
725.271	36.33
725.453	36.31
725.635	36.12
725.817	36.11
725.999	36.55
726.181	37.44
726.364	36.91
726.546	35.99
726.728	36.79
726.91	37.55
727.092	37.16
727.274	38.03
727.456	38.1
727.638	38.42
727.819	38.83
728.001	38.4
728.183	37.58
728.365	37.97
728.547	38.19
728.729	37.78
728.911	37.67
729.093	37.42
729.274	37.1
729.456	37.34
729.638	36.96
729.82	36.98
730.001	36.02
730.183	36.39
730.365	37.19
730.546	37.23
730.728	36.81
730.91	37.27
731.091	36.68
731.273	36.02
731.455	35.13
731.636	35.72
731.818	35.75
731.999	36.66
732.181	36.47
732.362	36.45
732.544	36.07
732.725	35.75
732.907	35.17
733.088	36.7
733.27	37.29
733.451	38.66
733.633	38.27
733.814	38.91
733.995	38.26
734.177	37.68
734.358	37.67
734.539	38.21
734.721	38.31
734.902	39.46
735.083	39.22
735.264	38.73
735.446	39.26
735.627	39.42
735.808	38.78
735.989	39.29
736.17	39.07
736.351	38.68
736.533	38.71
736.714	39.2
736.895	38.76
737.076	38.62
737.257	38.47
737.438	37.13
737.619	36.17
737.8	36.31
737.981	37.08
738.162	37.97
738.343	38.94
738.524	38.92
738.705	38.98
738.886	39.43
739.067	39.55
739.247	41.51
739.428	41.79
739.609	41.81
739.79	42.26
739.971	41.91
740.151	41.77
740.332	40.94
740.513	41.46
740.694	42.04
740.874	41.62
741.055	41
741.236	40.44
741.417	41.03
741.597	40.43
741.778	39.53
741.958	40.1
742.139	40.08
742.32	39.8
742.5	38.88
742.681	37.69
742.861	38.36
743.042	37.67
743.222	36.58
743.403	36.1
743.583	38.44
743.764	37.09
743.944	36.33
744.124	36.35
744.305	36.97
744.485	38.29
744.666	39.14
744.846	37.68
745.026	38.29
745.207	38.55
745.387	39.05
745.567	37.26
745.747	39.42
745.928	39.46
746.108	38.86
746.288	39.17
746.468	37.95
746.648	37.35
746.829	36.63
747.009	36.19
747.189	36.71
747.369	36.55
747.549	38.75
747.729	39.85
747.909	40.3
748.089	41.65
748.269	40.43
748.449	41.96
748.629	43.14
748.809	42.98
748.989	43.63
749.169	43.87
749.349	44.29
749.529	43.54
749.709	42.89
749.889	41.91
750.068	41.02
750.248	41.99
750.428	40.36
750.608	38.7
750.788	39.68
750.967	39.16
751.147	38.6
751.327	38.74
751.507	38.69
751.686	38.17
751.866	40.01
752.046	41.09
752.225	39.97
752.405	40.99
752.585	42.55
752.764	42.03
752.944	42.01
753.123	42.07
753.303	42.81
753.482	41.11
753.662	40.47
753.841	39.68
754.021	39.13
754.2	41.02
754.38	40.78
754.559	38.77
754.739	38.81
754.918	38.59
755.097	39.52
755.277	38.97
755.456	40.04
755.635	40.65
755.815	38.96
755.994	39.28
756.173	39.17
756.352	38.68
756.532	39.15
756.711	39.96
756.89	41.07
757.069	40.55
757.248	39.76
757.427	40.2
757.607	40.12
757.786	41.95
757.965	40.7
758.144	40.13
758.323	39.58
758.502	41.35
758.681	41.13
758.86	40.98
759.039	40.69
759.218	39.95
759.397	40.16
759.576	40.27
759.755	38.25
759.934	39.6
760.113	39.75
760.291	41.67
760.47	40.7
760.649	40.29
760.828	41.87
761.007	42.27
761.186	43.14
761.364	42.73
761.543	42.69
761.722	42.8
761.901	41.55
762.079	41.32
762.258	40.52
762.437	40.32
762.615	41.56
762.794	40.25
762.972	39.57
763.151	39.36
763.33	39.14
763.508	39.05
763.687	39.65
763.865	39.78
764.044	39.44
764.222	39.38
764.401	39.24
764.579	38.31
764.758	38.5
764.936	38.4
765.114	37.49
765.293	37.31
765.471	36.5
765.65	37.17
765.828	37.97
766.006	38.54
766.184	37.14
766.363	38.14
766.541	37.61
766.719	36.57
766.898	36.13
767.076	37.54
767.254	37.76
767.432	38.4
767.61	37.33
767.788	36.3
767.967	36.1
768.145	36.32
768.323	36.06
768.501	36.28
768.679	37.36
768.857	37.48
769.035	37.43
769.213	38.98
769.391	39.92
769.569	42.29
769.747	43.38
769.925	43.42
770.103	45.36
770.281	44.05
770.459	45.79
770.636	46.39
770.814	49.39
770.992	46.53
771.17	46.83
771.348	46
771.525	44.99
771.703	44.68
771.881	44.64
772.059	45.12
772.236	46.01
772.414	47.45
772.592	46.54
772.769	44.28
772.947	46.23
773.125	44.82
773.302	46.41
773.48	45.98
773.657	46.01
773.835	46.4
774.013	45.87
774.19	47.51
774.368	44.99
774.545	44.04
774.723	44.23
774.9	44.75
775.077	44.32
775.255	40.95
775.432	42.85
775.61	42.51
775.787	42.11
775.964	43.87
776.142	41.76
776.319	41.89
776.496	43.09
776.674	44.27
776.851	45.81
777.028	47.21
777.205	50.06
777.382	51.04
777.56	49.38
777.737	49.25
777.914	47.55
778.091	47.92
778.268	48.25
778.445	47.95
778.622	47.37
778.8	45.12
778.977	43.97
779.154	42.67
779.331	38.72
779.508	37.66
779.685	37.32
779.862	35.18
780.038	34.81
780.215	34.22
780.392	34.02
780.569	36.41
780.746	36.95
780.923	36.1
781.1	37.99
781.277	38.4
781.453	39.69
781.63	39.98
781.807	41.64
781.984	40.78
782.16	40.15
782.337	40.84
782.514	39.43
782.691	40.25
782.867	41.48
783.044	40.87
783.221	41.47
783.397	43.36
783.574	42.6
783.75	43.96
783.927	45.04
784.103	46.64
784.28	45.07
784.456	43.39
784.633	44.78
784.809	44.82
784.986	45.48
785.162	44.26
785.339	41.8
785.515	39.78
785.692	39.88
785.868	40.23
786.044	41.17
786.221	44.3
786.397	40.85
786.573	40.49
786.749	39.53
786.926	38.75
787.102	39.56
787.278	40.71
787.454	44.01
787.631	42.02
787.807	40.9
787.983	41.37
788.159	38.22
788.335	41.79
788.511	40.45
788.687	39.78
788.863	39.41
789.039	42.4
789.216	41.74
789.392	40.29
789.568	40.37
789.744	40.18
789.919	39.4
790.095	41.02
790.271	41.13
790.447	39.71
790.623	41.84
790.799	42.06
790.975	39.72
791.151	40.61
791.327	40.98
791.502	41.32
791.678	41.77
791.854	41.4
792.03	40.77
792.205	41.85
792.381	43.06
792.557	41.91
792.733	41.54
792.908	41.89
793.084	41.09
793.259	42.24
793.435	43.2
793.611	46.49
793.786	47.52
793.962	48.34
794.137	43.67
794.313	44.04
794.488	42.54
794.664	43.29
794.839	44.03
795.015	45.03
795.19	43.19
795.366	41.88
795.541	39.55
795.716	39.3
795.892	40.17
796.067	41.2
796.242	39.34
796.418	39.84
796.593	39.37
796.768	40.91
796.944	39.71
797.119	42.21
797.294	46.02
797.469	45.11
797.644	43.08
797.82	42.5
797.995	43.76
798.17	44.37
798.345	46.94
798.52	47.34
798.695	45.04
798.87	47.79
799.045	47.46
799.22	44.35
799.395	47.16
799.57	47.6
799.745	48.23
799.92	47.56
800.095	47.03
800.27	45.75
800.445	43.58
800.62	43.65
800.795	46.48
800.97	43.89
801.145	41.7
801.319	39.29
801.494	39.26
801.669	34.81
801.844	35.13
802.018	38.66
802.193	39.08
802.368	40.28
802.543	37.1
802.717	34.71
802.892	36.13
803.067	41.44
803.241	42.11
803.416	44.07
803.59	48.51
803.765	49.21
803.94	47.7
804.114	48.17
804.289	47.48
804.463	49.32
804.638	48.29
804.812	48.11
804.986	43.6
805.161	46.89
805.335	45.57
805.51	44.98
805.684	44.19
805.858	43.58
806.033	41.01
806.207	42.69
806.381	43.2
806.556	43.58
806.73	45.54
806.904	46.02
807.078	41
807.253	40.81
807.427	38.41
807.601	38.2
807.775	40.22
807.949	40.73
808.123	40.42
808.298	41.22
808.472	39.25
808.646	35.41
808.82	34.4
808.994	35.6
809.168	35.22
809.342	39.59
809.516	40.48
809.69	39.9
809.864	42.93
810.038	42.97
810.212	40.51
810.385	40.99
810.559	43.37
810.733	49.47
810.907	48.35
811.081	48.37
811.255	50.24
811.428	53.7
811.602	54.06
811.776	52.71
811.95	53.9
812.123	57.33
812.297	57.91
812.471	58.29
812.644	54.37
812.818	56.82
812.992	54.43
813.165	46.55
813.339	45.37
813.512	44.3
813.686	47.61
813.86	43.58
814.033	42.15
814.207	42.35
814.38	43.67
814.554	45.32
814.727	45.87
814.9	48.06
815.074	52.15
815.247	50.85
815.421	52.82
815.594	50.23
815.767	53.49
815.941	53.81
816.114	51.65
816.287	48.86
816.46	46.84
816.634	43.95
816.807	45.41
816.98	44.47
817.153	46.44
817.327	42.38
817.5	40.05
817.673	40.33
817.846	40.6
818.019	41.44
818.192	43.88
818.365	46.31
818.538	48.02
818.711	46.51
818.884	46.82
819.057	43.89
819.23	45.58
819.403	44.37
819.576	43.78
819.749	43.77
819.922	43.44
820.095	41.64
820.268	41.74
820.441	38.9
820.614	36.86
820.786	37.93
820.959	38.29
821.132	38.64
821.305	39.64
821.477	41.18
821.65	40.64
821.823	39.64
821.996	38.39
822.168	38.51
822.341	38.66
822.514	39.36
822.686	38.26
822.859	38.16
823.031	37.52
823.204	36.35
823.376	35.38
823.549	35.25
823.722	35.49
823.894	35.77
824.067	34.91
824.239	34.51
824.411	34.02
824.584	33.91
824.756	34.01
824.929	34.69
825.101	35.49
825.273	34.44
825.446	34.22
825.618	33.81
825.79	34.77
825.963	34.64
826.135	36.46
826.307	37.17
826.479	37.24
826.652	36.7
826.824	36.57
826.996	36.39
827.168	36.25
827.34	36.26
827.512	37.35
827.684	36.17
827.856	36.39
828.029	36.23
828.201	36.58
828.373	36.66
828.545	37.6
828.717	37
828.889	37.85
829.061	40.24
829.232	40.1
829.404	40.38
829.576	40.44
829.748	40.01
829.92	38.43
830.092	36.27
830.264	37.22
830.436	36.24
830.607	35.21
830.779	35.66
830.951	34.3
831.123	35.49
831.294	31.79
831.466	33
831.638	32.96
831.809	32.35
831.981	32.03
832.153	29.76
832.324	29.26
832.496	32.04
832.667	31.8
832.839	32.73
833.011	31.19
833.182	33.6
833.354	30.92
833.525	32.44
833.697	33.36
833.868	37.13
834.039	37.55
834.211	39.17
834.382	38.2
834.554	39.64
834.725	38.13
834.896	39.59
835.068	40.23
835.239	42.15
835.41	42.46
835.581	43.97
835.753	42.8
835.924	42.6
836.095	40.72
836.266	41.36
836.438	39.68
836.609	42.15
836.78	43.25
836.951	42.66
837.122	42.61
837.293	42.71
837.464	42.41
837.635	45.96
837.806	46.32
837.977	47.2
838.148	47.92
838.319	47.83
838.49	45.79
838.661	44.3
838.832	49.19
839.003	54.83
839.174	53.02
839.345	46.79
839.516	44.22
839.687	48.92
839.857	49.8
840.028	49.86
840.199	47.89
840.37	50.55
840.54	50.66
840.711	46.61
840.882	44.49
841.053	46.07
841.223	51.36
841.394	52.52
841.564	53.55
841.735	52.03
841.906	52.21
842.076	58.6
842.247	57.4
842.417	55.02
842.588	54.33
842.758	54.14
842.929	60.56
843.099	61.91
843.27	62.02
843.44	58.35
843.611	63.07
843.781	65.45
843.951	60.13
844.122	62.49
844.292	66.33
844.462	67.12
844.633	65.78
844.803	60.01
844.973	58.29
845.144	59.64
845.314	61.24
845.484	63.08
845.654	57.58
845.824	65.87
845.995	68.92
846.165	60.03
846.335	67.35
846.505	68.02
846.675	65.07
846.845	71.77
847.015	65.25
847.185	72.59
847.355	70.8
847.525	89.42
847.695	81.24
847.865	74.53
848.035	93.41
848.205	89.2
848.375	103.48
848.545	97.92
848.715	98.1
848.884	98.3
849.054	103.99
849.224	103.6
849.394	105.73
849.564	105.15
849.733	104.42
849.903	95.35
850.073	95.38
850.243	87.19
850.412	95.33
850.582	94.54
850.752	102.05
850.921	83.16
851.091	81.94
851.26	77.99
851.43	81.51
851.599	75
851.769	76.53
851.939	80.64
852.108	70.87
852.278	72.06
852.447	77.75
852.616	77.68
852.786	85.91
852.955	85.2
853.125	75.81
853.294	75.49
853.463	79.67
853.633	78.47
853.802	80.96
853.971	91.23
854.141	97.91
854.31	82.28
854.479	72.41
854.648	61.13
854.818	53.92
854.987	66.05
855.156	67.21
855.325	63.58
855.494	61.57
855.663	64.75
855.832	72.76
856.001	71.55
856.171	90.95
856.34	98.18
856.509	105.82
856.678	112.97
856.847	109.69
857.016	117.66
857.185	113.42
857.353	105.3
857.522	99.71
857.691	85.74
857.86	87.51
858.029	68.82
858.198	58.61
858.367	46.4
858.535	41.7
858.704	33.05
858.873	36.04
859.042	47.22
859.21	69.39
859.379	71.62
859.548	76.78
859.717	76.74
859.885	86.38
860.054	87.48
860.222	91.53
860.391	92.06
860.56	96.51
860.728	95.9
860.897	92.89
861.065	78.89
861.234	65.14
861.402	59.49
861.571	48.46
861.739	49.28
861.908	61.41
862.076	79.55
862.244	103.55
862.413	89.27
862.581	82.52
862.749	85.72
862.918	95.21
863.086	99.26
863.254	99.64
863.423	111.28
863.591	114.95
863.759	108.07
863.927	93.44
864.096	89.34
864.264	92.61
864.432	94.79
864.6	95.77
864.768	81.27
864.936	86.28
865.104	87.53
865.272	86.43
865.44	82.6
865.608	80.67
865.776	87.96
865.944	80.27
866.112	81.38
866.28	85.74
866.448	72.06
866.616	77.49
866.784	77.17
866.952	82.37
867.12	74.58
867.288	80.86
867.455	79.6
867.623	74.59
867.791	68.81
867.959	63.31
868.127	64.71
868.294	77.93
868.462	81.03
868.63	81.38
868.797	81.23
868.965	85.97
869.133	70.43
869.3	67.56
869.468	63.45
869.636	69.75
869.803	77.34
869.971	71.12
870.138	70.13
870.306	70.77
870.473	72.59
870.641	73.6
870.808	83.6
870.975	92.65
871.143	95.51
871.31	102.44
871.478	103.16
871.645	103.73
871.812	112.79
871.98	105.85
872.147	105.34
872.314	95.71
872.482	88.11
872.649	72.26
872.816	66.51
872.983	66.74
873.15	59.54
873.318	49.12
873.485	53.91
873.652	57.79
873.819	58.11
873.986	61.06
874.153	67.66
874.32	56.07
874.487	67.74
874.654	80.91
874.821	92.45
874.988	95.95
875.155	99.29
875.322	90.43
875.489	88.27
875.656	91.96
875.823	89.49
875.99	82.84
876.157	104.12
876.324	103.05
876.49	88.59
876.657	78.46
876.824	84.69
876.991	74.28
877.157	79.86
877.324	77.85
877.491	78.06
877.658	81.73
877.824	77.82
877.991	77.16
878.157	76.84
878.324	75.56
878.491	65.44
878.657	61.35
878.824	65.54
878.99	56.07
879.157	46.13
879.323	49.27
879.49	57.72
879.656	63.04
879.823	61.77
879.989	55.81
880.156	56.05
880.322	75.65
880.488	73.34
880.655	68.48
880.821	68.79
880.987	66.06
881.154	62.1
881.32	60.2
881.486	59.26
881.652	50.08
881.819	44.1
881.985	44.97
882.151	40.44
882.317	40.11
882.483	42.56
882.649	43.87
882.816	44.71
882.982	39.79
883.148	38.69
883.314	37.81
883.48	36.99
883.646	35.89
883.812	33.85
883.978	32.88
884.144	33.25
884.31	31.8
884.476	30.61
884.642	30.85
884.807	33.71
884.973	32.11
885.139	30.11
885.305	33.72
885.471	35.26
885.637	37.03
885.802	38.14
885.968	34.72
886.134	35.38
886.3	37.72
886.465	37.13
886.631	34.93
886.797	34.02
886.962	43.37
887.128	40.64
887.293	48.59
887.459	52.07
887.625	50.75
887.79	62.5
887.956	61.81
888.121	64.02
888.287	66.78
888.452	73.83
888.618	88.44
888.783	66.49
