Data from 2938091_Reflection_3.txt Node
Date: Sat Jul 11 19:17:08 EDT 2015
User: robert
Spectrometer: USB4E03001
Autoset integration time: false
Trigger mode: 4
Integration Time (sec): 1.000000E-1
Scans to average: 10
Electric dark correction enabled: true
Nonlinearity correction enabled: false
Boxcar width: 5
Stray light correction enabled: false
XAxis mode: Wavelengths
Stop averaging: false
Number of Pixels in Spectrum: 3648
>>>>>Begin Spectral Data<<<<<
177.566	13.48
177.785	-11.17
178.005	-18.56
178.225	-27.02
178.445	-62.44
178.665	28.43
178.885	-27.97
179.105	6.3
179.324	-0.29
179.544	-26.14
179.764	-45.67
179.984	-54.82
180.204	-83.93
180.423	-58.91
180.643	-73.6
180.863	-102.21
181.083	-83.4
181.302	-91.77
181.522	-509.79
181.742	-151.82
181.961	-99.32
182.181	-123.16
182.401	23.79
182.621	23.59
182.84	-16.56
183.06	-46.95
183.279	-57.62
183.499	-67.32
183.719	-60.76
183.938	-11.44
184.158	-13.09
184.377	-4.3
184.597	-23.85
184.816	-31.46
185.036	-27.87
185.256	-5.91
185.475	25.21
185.695	40.02
185.914	42.95
186.134	47.5
186.353	51.51
186.572	35.01
186.792	31.86
187.011	53.83
187.231	52.09
187.45	12.03
187.67	24.02
187.889	-46.39
188.108	-18.22
188.328	-27.04
188.547	-43.25
188.766	-100.14
188.986	-113.99
189.205	-25.11
189.424	-44.86
189.644	-47.17
189.863	-1.05
190.082	-0.97
190.302	32.41
190.521	8.73
190.74	41.04
190.959	44.67
191.178	21.01
191.398	9.6
191.617	5.99
191.836	30.15
192.055	29.84
192.274	40.35
192.494	33.46
192.713	58
192.932	47.85
193.151	19.55
193.37	44.38
193.589	50.69
193.808	20.88
194.027	16.58
194.246	-8153.06
194.465	350
194.685	182.57
194.904	502.79
195.123	752.69
195.342	320.34
195.561	-261.3
195.78	-143.3
195.999	-176.26
196.218	-102.53
196.436	-85.46
196.655	12.23
196.874	6.78
197.093	12.62
197.312	-6.51
197.531	-4.64
197.75	9.91
197.969	-35.27
198.188	-58.69
198.407	-380.31
198.625	-127.84
198.844	-44.71
199.063	-34.25
199.282	10.43
199.501	49.02
199.719	59.64
199.938	42.96
200.157	43.33
200.376	42.11
200.594	26.43
200.813	14.66
201.032	10.49
201.251	10.11
201.469	8.45
201.688	-10.06
201.907	-1.16
202.125	5.52
202.344	8.38
202.563	-12.69
202.781	2.67
203	7.05
203.218	18.37
203.437	31.11
203.656	43.39
203.874	47.15
204.093	44.4
204.311	24.26
204.53	-20.99
204.748	-16.99
204.967	16.13
205.185	-12.43
205.404	4.68
205.622	6.14
205.841	24.76
206.059	15.06
206.278	-5.45
206.496	-9.85
206.715	1.37
206.933	21.36
207.151	7.77
207.37	15.97
207.588	22.76
207.806	19.89
208.025	24.84
208.243	21.81
208.461	3.67
208.68	15.33
208.898	43.15
209.116	52.57
209.335	46.68
209.553	97.54
209.771	84.84
209.989	65.59
210.208	111.4
210.426	222.87
210.644	138.51
210.862	39.59
211.081	21.92
211.299	-63.74
211.517	-79.46
211.735	-174.67
211.953	-263.43
212.171	-224.18
212.39	-296.68
212.608	-146.97
212.826	-129.91
213.044	-217.61
213.262	-151.3
213.48	-215.14
213.698	2638
213.916	-493.39
214.134	-149.83
214.352	-151.28
214.57	-111.66
214.788	-22.25
215.006	-85.04
215.224	-101.47
215.442	-65.35
215.66	-57.26
215.878	-59.55
216.096	-17.23
216.314	-21.79
216.532	-40.6
216.75	-52.89
216.968	-48.99
217.185	-28.85
217.403	1.03
217.621	5.63
217.839	17.94
218.057	13.57
218.275	13.64
218.492	6.05
218.71	10.16
218.928	28.95
219.146	39.65
219.363	29.68
219.581	36.51
219.799	20.38
220.017	25.05
220.234	-10.54
220.452	25
220.67	23.71
220.887	18.05
221.105	3.94
221.323	18.65
221.54	-17.14
221.758	4.87
221.976	-116.16
222.193	-967.14
222.411	-110.22
222.629	-143.65
222.846	-65.68
223.064	-65.71
223.281	-40.99
223.499	-27.67
223.716	-46.6
223.934	-12.46
224.151	-3.9
224.369	19.09
224.586	30.73
224.804	37.29
225.021	44.92
225.239	31.41
225.456	30.83
225.674	37.94
225.891	44.56
226.108	52.25
226.326	50.92
226.543	54.17
226.76	35.62
226.978	19.15
227.195	12.4
227.413	16.95
227.63	16.39
227.847	5.99
228.064	8.28
228.282	8.01
228.499	9.95
228.716	5.31
228.934	5.78
229.151	8.57
229.368	10.08
229.585	7.5
229.802	4.18
230.02	2.86
230.237	8.16
230.454	7.67
230.671	8.43
230.888	4.47
231.105	2.69
231.323	-1.19
231.54	-6.15
231.757	-6.68
231.974	-0.94
232.191	5.6
232.408	3.68
232.625	-4.85
232.842	-11.11
233.059	-12.74
233.276	-12.27
233.493	-7.57
233.71	-6.42
233.927	-9.05
234.144	-6.22
234.361	-13.43
234.578	-26.34
234.795	-22.18
235.012	-14.19
235.229	-9.45
235.446	-6.76
235.663	-6.9
235.879	-4.92
236.096	-2.16
236.313	1.94
236.53	-1.62
236.747	4.02
236.964	4.21
237.181	6.16
237.397	6.19
237.614	4.05
237.831	1.1
238.048	-0.43
238.264	-0.43
238.481	-5.18
238.698	-3.48
238.915	-3.34
239.131	-1.92
239.348	-1.59
239.565	2.61
239.781	1.5
239.998	2.99
240.215	2.92
240.431	1.66
240.648	0.4
240.865	1.06
241.081	0.67
241.298	3.36
241.514	-0.2
241.731	4.32
241.947	2
242.164	2.79
242.38	1.87
242.597	2.97
242.814	5.26
243.03	5.68
243.246	7.11
243.463	6.01
243.679	5.88
243.896	7.33
244.112	4.46
244.329	4.05
244.545	3.31
244.762	2.71
244.978	1.38
245.194	-0.38
245.411	0.11
245.627	0.47
245.843	1.92
246.06	0.61
246.276	1.45
246.492	2.31
246.709	3.81
246.925	5.14
247.141	5.97
247.357	7.03
247.574	7.38
247.79	7.37
248.006	7.02
248.222	8.1
248.439	9.2
248.655	8.73
248.871	9.15
249.087	9.25
249.303	8.88
249.519	9.15
249.736	6.24
249.952	4.88
250.168	4.15
250.384	5.5
250.6	3.62
250.816	3.88
251.032	5.93
251.248	3.87
251.464	4.39
251.68	4.54
251.896	3.84
252.112	5.95
252.328	7.84
252.544	7.18
252.76	5.64
252.976	7.5
253.192	6.84
253.408	4.67
253.624	4.98
253.84	2.81
254.056	1.96
254.272	3.48
254.487	5.75
254.703	6.96
254.919	9.56
255.135	7.66
255.351	5.1
255.567	1.47
255.782	0.34
255.998	-1.67
256.214	-1.86
256.43	-2.03
256.646	-5.05
256.861	-8.19
257.077	-13.92
257.293	-12.59
257.508	-10.66
257.724	-8.39
257.94	-5.72
258.155	-3.95
258.371	-0.69
258.587	-0.04
258.802	0.83
259.018	2.07
259.234	3.02
259.449	4.55
259.665	4.79
259.88	5.09
260.096	4.63
260.312	5.68
260.527	6.85
260.743	7.19
260.958	7.61
261.174	8.06
261.389	8.25
261.605	7.66
261.82	8.01
262.036	7.64
262.251	8.55
262.466	8.05
262.682	6.82
262.897	5.72
263.113	5.13
263.328	6.39
263.543	5.53
263.759	4.14
263.974	4.07
264.189	1.33
264.405	2.23
264.62	3.61
264.835	3.06
265.051	3.84
265.266	2.87
265.481	3.47
265.696	2.47
265.912	3.26
266.127	4.66
266.342	6.51
266.557	9.36
266.773	8.67
266.988	7.93
267.203	8.62
267.418	7.72
267.633	8.84
267.848	9.4
268.064	7.72
268.279	7.45
268.494	6.87
268.709	6.04
268.924	4.28
269.139	4.77
269.354	4.88
269.569	6.19
269.784	7.58
269.999	7.42
270.214	8.86
270.429	10.41
270.644	11.24
270.859	11.49
271.074	10.31
271.289	10.24
271.504	10.81
271.719	10.34
271.934	11.33
272.149	11.06
272.363	11.59
272.578	9.55
272.793	9.22
273.008	8.53
273.223	8.71
273.438	8.76
273.653	8.17
273.867	7.52
274.082	5.72
274.297	3.09
274.512	1.7
274.726	0.63
274.941	1.24
275.156	0.67
275.371	1.27
275.585	0.42
275.8	-0.81
276.015	0.67
276.229	-0.29
276.444	3.63
276.659	4.06
276.873	5.45
277.088	4.33
277.302	3.91
277.517	4.59
277.732	5.22
277.946	5.44
278.161	8.35
278.375	8.2
278.59	10.32
278.804	8.12
279.019	7.38
279.233	8.14
279.448	7.03
279.662	7.7
279.877	7.27
280.091	4.98
280.306	5.7
280.52	4.85
280.735	4.36
280.949	3.13
281.163	2.88
281.378	4
281.592	2.56
281.806	4.92
282.021	4.03
282.235	4
282.449	3.09
282.664	1.93
282.878	1.93
283.092	2.63
283.307	2.99
283.521	3.7
283.735	4
283.949	4.05
284.164	3.56
284.378	3.35
284.592	3.51
284.806	3.4
285.02	3.76
285.234	4.75
285.449	4.64
285.663	3.51
285.877	4.41
286.091	3.38
286.305	2.95
286.519	4.52
286.733	5.2
286.947	4.72
287.161	6.74
287.375	8.27
287.589	8.07
287.803	8.46
288.017	10.4
288.231	9.19
288.445	10.88
288.659	12.77
288.873	10.56
289.087	10.73
289.301	12.1
289.515	11.75
289.729	10.68
289.943	10.68
290.157	11.56
290.371	10.07
290.584	10.23
290.798	9.56
291.012	8.02
291.226	8.48
291.44	8.52
291.654	8.1
291.867	6.74
292.081	6.51
292.295	5.39
292.509	4.79
292.722	6.68
292.936	8.01
293.15	7.17
293.364	7.18
293.577	6.66
293.791	5.67
294.005	5.47
294.218	6.18
294.432	6.48
294.645	8.16
294.859	8.54
295.073	9
295.286	7.71
295.5	9.6
295.713	10.34
295.927	11.61
296.14	12.19
296.354	13.6
296.568	14.32
296.781	13.5
296.994	12.83
297.208	12.64
297.421	12.35
297.635	12.55
297.848	12.17
298.062	11.85
298.275	11.81
298.489	12.41
298.702	11.5
298.915	11.16
299.129	12.48
299.342	13
299.555	11.77
299.769	11.71
299.982	13.2
300.195	13.38
300.409	12.46
300.622	11.65
300.835	11.91
301.048	11.68
301.262	11.98
301.475	12.49
301.688	12.97
301.901	13.86
302.115	12.47
302.328	10.69
302.541	11.5
302.754	14.06
302.967	15.2
303.18	14.27
303.393	15.55
303.607	16.62
303.82	15.92
304.033	15.97
304.246	15.25
304.459	16.6
304.672	17.16
304.885	16.65
305.098	16.65
305.311	15.39
305.524	16.07
305.737	15.28
305.95	13.05
306.163	12.94
306.376	13.11
306.589	13.86
306.802	13.01
307.015	13.49
307.228	13.52
307.44	13.61
307.653	15.26
307.866	14.49
308.079	13.68
308.292	14.71
308.505	13.83
308.718	14.32
308.93	16.33
309.143	15.74
309.356	15.55
309.569	15.37
309.781	14.65
309.994	14.79
310.207	15.62
310.42	16.53
310.632	17.92
310.845	18.7
311.058	18.12
311.27	16.01
311.483	15.86
311.696	15.48
311.908	15.17
312.121	15.45
312.333	14.83
312.546	15.13
312.759	15.92
312.971	14.54
313.184	14.22
313.396	13.8
313.609	15.88
313.821	17.06
314.034	18.09
314.246	18.81
314.459	19.2
314.671	17.77
314.884	15.69
315.096	16.58
315.309	16.63
315.521	15.49
315.733	15.82
315.946	14.99
316.158	14.29
316.371	13.32
316.583	11.56
316.795	11.99
317.008	12.66
317.22	14.59
317.432	13.3
317.644	15.1
317.857	14.49
318.069	15.03
318.281	14.71
318.494	14.54
318.706	15.69
318.918	17.39
319.13	16.75
319.342	16.46
319.555	15.93
319.767	15.51
319.979	13.54
320.191	15.35
320.403	14.51
320.615	13.15
320.827	13.49
321.039	12.21
321.252	13.3
321.464	13.61
321.676	15.62
321.888	15.08
322.1	15.24
322.312	15.28
322.524	15.61
322.736	15.17
322.948	15.14
323.16	16.67
323.372	17.05
323.584	14.54
323.796	13.01
324.007	12.13
324.219	11.67
324.431	11.02
324.643	14.33
324.855	14.53
325.067	15.78
325.279	17.72
325.491	15.89
325.702	16.24
325.914	17.28
326.126	19.02
326.338	19.94
326.55	21.32
326.761	23.08
326.973	21.1
327.185	20.55
327.396	20.27
327.608	20.66
327.82	21.87
328.032	21.66
328.243	21.72
328.455	20.3
328.666	20.45
328.878	19.95
329.09	18.57
329.301	18.31
329.513	19.55
329.725	19.26
329.936	17.6
330.148	17.49
330.359	18.02
330.571	20.42
330.782	21.52
330.994	21.22
331.205	21.79
331.417	23.2
331.628	24.88
331.84	25.31
332.051	26.75
332.262	27.03
332.474	28.4
332.685	29.7
332.897	29.7
333.108	32.73
333.319	33.73
333.531	34.78
333.742	34.68
333.953	34.14
334.165	35.19
334.376	35.05
334.587	35.72
334.799	34.26
335.01	33.36
335.221	31.68
335.432	29.31
335.644	28.14
335.855	26.73
336.066	26.81
336.277	26.85
336.488	26.84
336.7	27.75
336.911	28.1
337.122	30.58
337.333	31.77
337.544	32.79
337.755	33.49
337.966	34.49
338.177	35.9
338.388	35.95
338.599	36.32
338.811	35.27
339.022	35.54
339.233	35.81
339.444	33.9
339.655	33.69
339.866	34.36
340.076	35.8
340.287	35.13
340.498	33.99
340.709	33.94
340.92	34.99
341.131	35.3
341.342	33.83
341.553	34.03
341.764	35.32
341.975	35.84
342.185	34.82
342.396	33.69
342.607	33.68
342.818	35.97
343.029	36.99
343.239	36.32
343.45	37.75
343.661	38.91
343.872	37.93
344.082	38.17
344.293	38.06
344.504	39.25
344.714	39.8
344.925	41.02
345.136	39.35
345.346	38.21
345.557	37.38
345.768	36.21
345.978	36.1
346.189	36.91
346.399	35.73
346.61	35.78
346.821	35.38
347.031	34.91
347.242	34.55
347.452	35.44
347.663	35.53
347.873	35.36
348.084	36.23
348.294	35.91
348.504	35.41
348.715	36.88
348.925	36.97
349.136	36.91
349.346	37.93
349.557	37.22
349.767	36.81
349.977	36.73
350.188	37.85
350.398	38.57
350.608	37.81
350.819	37.56
351.029	36.64
351.239	37.58
351.449	37.52
351.66	36.61
351.87	35.9
352.08	35.94
352.29	37.01
352.501	38.1
352.711	37.74
352.921	38.26
353.131	38.89
353.341	38.6
353.552	37.76
353.762	37.56
353.972	37.75
354.182	38.97
354.392	39.2
354.602	38.64
354.812	37.46
355.022	37
355.232	38.05
355.442	37.93
355.652	38.61
355.862	38.56
356.072	39.47
356.282	39.29
356.492	39.86
356.702	40.3
356.912	39.83
357.122	40
357.332	39.49
357.542	39.42
357.752	40.14
357.962	39.47
358.171	39.23
358.381	37.99
358.591	38.09
358.801	38.59
359.011	38.24
359.221	38.71
359.43	38.38
359.64	39.19
359.85	38.67
360.06	38.14
360.269	38.11
360.479	38.61
360.689	39.07
360.899	38.33
361.108	36.98
361.318	36.96
361.528	36.42
361.737	36.35
361.947	35.87
362.156	35.45
362.366	36.08
362.576	36.36
362.785	35.46
362.995	35.06
363.204	35.49
363.414	35.49
363.623	35.06
363.833	35.33
364.042	34.61
364.252	34.69
364.461	34.39
364.671	33.95
364.88	34.15
365.09	34.38
365.299	34.42
365.509	34.09
365.718	34.76
365.927	34.25
366.137	34.42
366.346	35.35
366.555	34.67
366.765	35.67
366.974	35.04
367.183	34.4
367.393	34.08
367.602	33.61
367.811	32.95
368.021	32.39
368.23	32.72
368.439	32.37
368.648	31.89
368.857	32.66
369.067	32.43
369.276	32.34
369.485	32.43
369.694	32.51
369.903	33.3
370.112	33.41
370.321	33.39
370.531	33.81
370.74	33.37
370.949	33.08
371.158	32.83
371.367	32.57
371.576	32.67
371.785	32.29
371.994	31.72
372.203	31.31
372.412	32.19
372.621	31.71
372.83	30.67
373.039	30.71
373.248	31.35
373.457	31.1
373.666	30.49
373.874	30.02
374.083	30.08
374.292	30.5
374.501	30.54
374.71	29.32
374.919	30.7
375.128	31.16
375.336	30.42
375.545	30.31
375.754	30.67
375.963	30.7
376.171	30.36
376.38	29.77
376.589	29.45
376.798	29.1
377.006	29.32
377.215	28.39
377.424	27.91
377.632	28.86
377.841	27.98
378.05	27.34
378.258	27.48
378.467	27.17
378.675	27.83
378.884	27.98
379.093	27.77
379.301	27.41
379.51	27.23
379.718	27.15
379.927	26.36
380.135	26
380.344	25.5
380.552	24.25
380.761	23.99
380.969	23.27
381.177	22.37
381.386	22.13
381.594	22.7
381.803	22.26
382.011	21.88
382.219	21.61
382.428	22.35
382.636	22.34
382.845	22.69
383.053	22.85
383.261	22.53
383.469	22.16
383.678	21.96
383.886	21.69
384.094	22.02
384.302	22.3
384.511	22.23
384.719	21.37
384.927	20.8
385.135	20.59
385.343	20.42
385.552	20.61
385.76	21.4
385.968	21.33
386.176	20.62
386.384	19.98
386.592	20.07
386.8	20.02
387.008	20.28
387.216	20.62
387.424	20.43
387.633	20.53
387.841	20.31
388.049	19.78
388.257	19.86
388.465	19.75
388.672	19.53
388.88	19.09
389.088	19.31
389.296	18.78
389.504	18.78
389.712	19.23
389.92	19.28
390.128	19.35
390.336	19.72
390.544	20.02
390.751	19.77
390.959	19.67
391.167	19.44
391.375	18.78
391.583	19.09
391.79	19.07
391.998	18.74
392.206	18.7
392.414	18.71
392.621	18.11
392.829	17.23
393.037	17.41
393.244	17.26
393.452	17.48
393.66	17.41
393.867	17.26
394.075	16.97
394.283	16.7
394.49	16.18
394.698	15.96
394.905	15.8
395.113	15.94
395.32	15.64
395.528	15.97
395.735	15.76
395.943	16.12
396.15	15.88
396.358	15.83
396.565	15.82
396.773	15.92
396.98	15.7
397.188	15.67
397.395	15.82
397.602	16.05
397.81	15.56
398.017	15.35
398.225	14.63
398.432	14.34
398.639	14.12
398.847	14.06
399.054	13.83
399.261	13.65
399.468	13.65
399.676	13.52
399.883	13.56
400.09	13.56
400.297	13.19
400.505	13.31
400.712	13.37
400.919	13.36
401.126	13.34
401.333	13.2
401.54	13.01
401.748	13.03
401.955	12.77
402.162	12.22
402.369	12.28
402.576	12.95
402.783	13.12
402.99	12.98
403.197	12.6
403.404	12.44
403.611	12.61
403.818	12.85
404.025	12.66
404.232	12.9
404.439	13.28
404.646	13.48
404.853	13.04
405.06	13.11
405.267	13.23
405.474	13.47
405.681	13.5
405.887	13.46
406.094	13.51
406.301	13.69
406.508	13.7
406.715	13.37
406.922	13.01
407.128	12.94
407.335	12.79
407.542	12.96
407.749	12.94
407.955	12.89
408.162	12.81
408.369	12.49
408.575	12.58
408.782	12.22
408.989	12.28
409.195	12.31
409.402	12.36
409.609	12.36
409.815	12.24
410.022	12.18
410.228	12.47
410.435	12.42
410.642	12.62
410.848	12.32
411.055	12.35
411.261	12.63
411.468	12.65
411.674	12.77
411.881	12.6
412.087	12.38
412.294	12.64
412.5	12.23
412.706	12.32
412.913	12.49
413.119	12.12
413.326	12.18
413.532	11.81
413.738	11.38
413.945	11.14
414.151	11.36
414.357	11.63
414.564	11.46
414.77	11.49
414.976	11.5
415.182	11.13
415.389	11.39
415.595	11.53
415.801	11.57
416.007	11.81
416.214	11.85
416.42	11.74
416.626	11.59
416.832	11.63
417.038	11.44
417.244	11.34
417.45	11.49
417.657	11.67
417.863	11.31
418.069	11.55
418.275	11.7
418.481	11.85
418.687	11.75
418.893	11.56
419.099	11.65
419.305	11.61
419.511	11.5
419.717	11.48
419.923	11.32
420.129	11.4
420.335	11.3
420.541	11.16
420.746	10.94
420.952	10.85
421.158	10.87
421.364	10.79
421.57	10.95
421.776	10.98
421.982	10.96
422.187	10.98
422.393	10.97
422.599	10.74
422.805	10.64
423.01	10.62
423.216	10.7
423.422	10.82
423.628	10.66
423.833	10.71
424.039	10.57
424.245	10.43
424.45	10.39
424.656	10.36
424.862	10.35
425.067	10.48
425.273	10.52
425.478	10.5
425.684	10.28
425.889	10.22
426.095	10.03
426.301	10.22
426.506	10.19
426.712	10.04
426.917	9.94
427.123	10
427.328	9.81
427.533	9.83
427.739	9.69
427.944	9.92
428.15	9.97
428.355	9.8
428.561	9.86
428.766	9.86
428.971	9.97
429.177	10.18
429.382	10.23
429.587	10.36
429.793	10.21
429.998	10.39
430.203	10.15
430.408	10.23
430.614	10.22
430.819	10.08
431.024	9.89
431.229	10.03
431.434	9.89
431.64	9.7
431.845	9.55
432.05	9.69
432.255	9.53
432.46	9.65
432.665	9.49
432.87	9.64
433.076	9.67
433.281	9.83
433.486	9.69
433.691	9.71
433.896	9.89
434.101	9.91
434.306	9.78
434.511	9.75
434.716	9.64
434.921	9.72
435.126	9.63
435.331	9.45
435.535	9.24
435.74	9.32
435.945	9.13
436.15	9.01
436.355	9.29
436.56	9.38
436.765	9.34
436.97	9.4
437.174	9.49
437.379	9.57
437.584	9.71
437.789	9.88
437.993	9.76
438.198	9.92
438.403	9.85
438.608	9.61
438.812	9.63
439.017	9.48
439.222	9.6
439.426	9.45
439.631	9.49
439.836	9.55
440.04	9.64
440.245	9.62
440.45	9.73
440.654	9.79
440.859	9.84
441.063	9.87
441.268	10.06
441.472	9.85
441.677	9.97
441.881	10.05
442.086	9.88
442.29	9.82
442.495	9.93
442.699	9.7
442.904	9.6
443.108	9.59
443.312	9.38
443.517	9.47
443.721	9.63
443.925	9.54
444.13	9.42
444.334	9.47
444.538	9.39
444.743	9.36
444.947	9.38
445.151	9.46
445.356	9.47
445.56	9.53
445.764	9.46
445.968	9.42
446.173	9.49
446.377	9.34
446.581	9.28
446.785	9.26
446.989	9.3
447.193	9.25
447.398	9.32
447.602	9.25
447.806	9.17
448.01	9.23
448.214	9.21
448.418	9.02
448.622	9.14
448.826	9.3
449.03	9.4
449.234	9.22
449.438	9.16
449.642	8.87
449.846	9.06
450.05	9.15
450.254	8.93
450.458	8.84
450.662	8.9
450.866	8.7
451.069	8.39
451.273	8.3
451.477	8.31
451.681	8.52
451.885	8.52
452.089	8.16
452.292	8.3
452.496	8.2
452.7	8.37
452.904	8.3
453.107	8.51
453.311	8.7
453.515	8.52
453.719	8.45
453.922	8.31
454.126	8.49
454.33	8.46
454.533	8.14
454.737	8.18
454.94	8.08
455.144	8.1
455.348	7.97
455.551	7.88
455.755	7.97
455.958	8.08
456.162	8.41
456.365	8.41
456.569	8.66
456.772	8.72
456.976	8.65
457.179	8.6
457.383	8.7
457.586	8.89
457.79	8.83
457.993	9.06
458.196	8.96
458.4	8.8
458.603	8.62
458.807	8.63
459.01	8.69
459.213	8.8
459.417	8.86
459.62	8.71
459.823	8.52
460.026	8.6
460.23	8.56
460.433	8.63
460.636	8.64
460.839	8.66
461.042	8.59
461.246	8.56
461.449	8.53
461.652	8.44
461.855	8.61
462.058	8.81
462.261	8.78
462.464	8.76
462.668	8.77
462.871	8.66
463.074	8.85
463.277	8.83
463.48	8.85
463.683	8.87
463.886	8.95
464.089	9.18
464.292	8.99
464.495	8.86
464.698	8.77
464.901	8.69
465.104	8.83
465.306	8.86
465.509	8.87
465.712	8.99
465.915	9.07
466.118	9.13
466.321	9.01
466.524	9.16
466.726	9.25
466.929	9.36
467.132	9.41
467.335	9.38
467.538	9.18
467.74	9.24
467.943	9.17
468.146	9.2
468.348	9.06
468.551	8.93
468.754	8.64
468.956	8.65
469.159	8.83
469.362	8.93
469.564	8.8
469.767	9.05
469.969	9.15
470.172	9.23
470.375	9.22
470.577	9.29
470.78	9.48
470.982	9.92
471.185	9.91
471.387	9.53
471.59	9.37
471.792	9.53
471.995	9.48
472.197	9.47
472.399	9.34
472.602	9.29
472.804	9.43
473.007	9.23
473.209	8.9
473.411	8.74
473.614	9.06
473.816	9.14
474.018	9.01
474.22	9.05
474.423	9.12
474.625	9.17
474.827	9.17
475.03	9.21
475.232	9.19
475.434	9.26
475.636	9.61
475.838	9.42
476.04	9.42
476.243	9.48
476.445	9.5
476.647	9.35
476.849	9.64
477.051	9.59
477.253	9.5
477.455	9.57
477.657	9.7
477.859	9.55
478.061	9.59
478.263	9.57
478.465	9.7
478.667	9.58
478.869	9.68
479.071	9.37
479.273	9.4
479.475	9.39
479.677	9.32
479.879	9.23
480.081	9.33
480.283	9.3
480.485	9.35
480.686	9.11
480.888	9.18
481.09	9.06
481.292	8.99
481.494	9.17
481.695	9.26
481.897	9.26
482.099	9.28
482.301	9.22
482.502	9.17
482.704	9.19
482.906	9.25
483.107	9.21
483.309	9.21
483.511	9.21
483.712	9.15
483.914	9.05
484.115	9.04
484.317	9.02
484.519	8.96
484.72	8.96
484.922	8.93
485.123	8.89
485.325	8.9
485.526	8.92
485.728	8.98
485.929	8.93
486.131	9.06
486.332	9.11
486.534	9.04
486.735	9.13
486.936	9.16
487.138	9.12
487.339	9.1
487.541	9.08
487.742	9.01
487.943	9.01
488.144	8.99
488.346	8.86
488.547	8.79
488.748	8.9
488.95	8.82
489.151	8.76
489.352	8.77
489.553	8.81
489.755	8.88
489.956	8.89
490.157	8.84
490.358	8.91
490.559	9.01
490.76	9.03
490.961	9.03
491.163	9.12
491.364	9.22
491.565	9.22
491.766	9.16
491.967	9.17
492.168	9.25
492.369	9.28
492.57	9.29
492.771	9.27
492.972	9.35
493.173	9.24
493.374	9.2
493.575	9.17
493.776	9.29
493.976	9.36
494.177	9.35
494.378	9.28
494.579	9.18
494.78	9.25
494.981	9.37
495.182	9.41
495.382	9.54
495.583	9.63
495.784	9.62
495.985	9.6
496.185	9.81
496.386	9.75
496.587	9.73
496.788	9.93
496.988	9.85
497.189	9.79
497.39	9.89
497.59	9.95
497.791	10.02
497.992	10.05
498.192	10.06
498.393	10.07
498.593	10.23
498.794	10.37
498.994	10.31
499.195	10.41
499.395	10.49
499.596	10.43
499.796	10.46
499.997	10.41
500.197	10.6
500.398	10.81
500.598	10.83
500.799	10.82
500.999	10.96
501.199	11.2
501.4	11.26
501.6	11.31
501.801	11.26
502.001	11.38
502.201	11.41
502.402	11.53
502.602	11.63
502.802	11.62
503.002	11.66
503.203	11.47
503.403	11.42
503.603	11.51
503.803	11.6
504.003	11.78
504.204	11.83
504.404	11.89
504.604	11.63
504.804	11.4
505.004	11.52
505.204	11.62
505.404	11.78
505.604	11.83
505.804	11.96
506.005	12.08
506.205	12.11
506.405	12.2
506.605	12.29
506.805	12.56
507.005	12.57
507.204	12.63
507.404	12.56
507.604	12.59
507.804	12.71
508.004	12.77
508.204	12.79
508.404	12.88
508.604	12.94
508.804	13.05
509.003	13.15
509.203	13.47
509.403	13.58
509.603	13.81
509.803	14.01
510.002	13.99
510.202	14.16
510.402	14.36
510.602	14.48
510.801	14.56
511.001	14.66
511.201	14.79
511.4	14.77
511.6	14.92
511.8	14.8
511.999	14.92
512.199	15.11
512.398	14.99
512.598	14.98
512.797	15.13
512.997	15.35
513.197	15.37
513.396	15.41
513.596	15.39
513.795	15.28
513.994	15.48
514.194	15.38
514.393	15.36
514.593	15.56
514.792	15.62
514.992	15.47
515.191	15.43
515.39	15.62
515.59	15.72
515.789	15.83
515.988	15.99
516.188	16.03
516.387	16.14
516.586	16.24
516.786	16.45
516.985	16.53
517.184	16.58
517.383	16.65
517.582	16.59
517.782	16.73
517.981	16.82
518.18	16.84
518.379	16.89
518.578	16.94
518.777	17.1
518.976	17.03
519.176	17.04
519.375	17.23
519.574	17.24
519.773	17.4
519.972	17.33
520.171	17.48
520.37	17.59
520.569	17.59
520.768	17.82
520.967	17.76
521.166	17.75
521.365	17.96
521.564	17.76
521.762	17.86
521.961	17.84
522.16	17.88
522.359	17.9
522.558	17.9
522.757	18.18
522.956	18.09
523.154	18.3
523.353	18.52
523.552	18.43
523.751	18.63
523.949	18.66
524.148	18.84
524.347	19.02
524.546	19.02
524.744	19.14
524.943	19.1
525.142	19.13
525.34	19.12
525.539	19.13
525.737	19.22
525.936	19.35
526.135	19.51
526.333	19.47
526.532	19.47
526.73	19.53
526.929	19.59
527.127	19.69
527.326	19.67
527.524	19.71
527.723	19.81
527.921	19.81
528.12	19.78
528.318	19.73
528.516	19.83
528.715	19.82
528.913	19.84
529.112	19.8
529.31	19.83
529.508	19.92
529.707	20
529.905	20.01
530.103	20.07
530.301	20.06
530.5	20.11
530.698	20.1
530.896	20.21
531.094	20.22
531.293	20.32
531.491	20.33
531.689	20.33
531.887	20.25
532.085	20.13
532.283	20.19
532.481	20.28
532.68	20.3
532.878	20.38
533.076	20.47
533.274	20.51
533.472	20.6
533.67	20.67
533.868	20.7
534.066	20.66
534.264	20.77
534.462	20.78
534.66	20.93
534.858	21.02
535.056	20.99
535.253	20.96
535.451	21.03
535.649	20.93
535.847	20.89
536.045	21.02
536.243	21.12
536.441	21.12
536.638	21.2
536.836	21.15
537.034	21.15
537.232	21.29
537.43	21.37
537.627	21.47
537.825	21.6
538.023	21.67
538.22	21.63
538.418	21.65
538.616	21.71
538.813	21.57
539.011	21.5
539.209	21.48
539.406	21.43
539.604	21.34
539.801	21.33
539.999	21.41
540.196	21.47
540.394	21.58
540.591	21.63
540.789	21.78
540.986	21.92
541.184	21.92
541.381	21.97
541.579	22.05
541.776	22.1
541.974	22.06
542.171	22.07
542.368	22.07
542.566	22.13
542.763	22.24
542.96	22.24
543.158	22.32
543.355	22.52
543.552	22.6
543.75	22.53
543.947	22.54
544.144	22.69
544.341	22.76
544.539	22.83
544.736	22.71
544.933	22.71
545.13	22.65
545.327	22.61
545.524	22.59
545.722	22.73
545.919	22.87
546.116	23
546.313	23.07
546.51	23.04
546.707	23.11
546.904	23.22
547.101	23.33
547.298	23.33
547.495	23.31
547.692	23.31
547.889	23.32
548.086	23.4
548.283	23.37
548.48	23.33
548.677	23.51
548.874	23.48
549.07	23.62
549.267	23.6
549.464	23.77
549.661	23.94
549.858	24.04
550.055	23.95
550.251	23.89
550.448	23.97
550.645	23.96
550.842	23.8
551.038	23.8
551.235	23.92
551.432	24.03
551.628	24.17
551.825	24.19
552.022	24.09
552.218	24.01
552.415	23.96
552.612	24.1
552.808	24.28
553.005	24.4
553.201	24.51
553.398	24.48
553.594	24.55
553.791	24.58
553.987	24.48
554.184	24.47
554.38	24.69
554.577	24.76
554.773	24.71
554.97	24.49
555.166	24.39
555.362	24.26
555.559	24.05
555.755	24.16
555.952	23.9
556.148	24
556.344	24.23
556.541	24.1
556.737	24.26
556.933	24.16
557.129	24.28
557.326	24.43
557.522	24.86
557.718	24.92
557.914	24.8
558.11	24.86
558.307	24.86
558.503	24.9
558.699	25.15
558.895	25.35
559.091	25.63
559.287	25.79
559.483	25.81
559.679	25.7
559.876	25.74
560.072	25.66
560.268	25.96
560.464	26.05
560.66	25.98
560.856	25.86
561.052	25.68
561.247	25.59
561.443	25.44
561.639	25.46
561.835	25.3
562.031	25.59
562.227	25.62
562.423	25.71
562.619	25.81
562.815	25.96
563.01	26.04
563.206	26.04
563.402	26.02
563.598	26.41
563.793	26.37
563.989	26.51
564.185	26.32
564.381	26.38
564.576	26.23
564.772	26.33
564.968	26.33
565.163	26.39
565.359	26.49
565.555	26.63
565.75	26.53
565.946	26.59
566.141	26.69
566.337	26.88
566.532	27.07
566.728	27.14
566.923	27.13
567.119	27.21
567.314	27.2
567.51	27.21
567.705	27.23
567.901	27.3
568.096	27.2
568.292	27.27
568.487	27.15
568.682	27.11
568.878	27.06
569.073	27.21
569.268	27.24
569.464	27.24
569.659	27.28
569.854	27.33
570.05	27.36
570.245	27.51
570.44	27.47
570.635	27.62
570.831	27.7
571.026	27.65
571.221	27.63
571.416	27.74
571.611	27.76
571.806	27.68
572.002	27.57
572.197	27.71
572.392	27.85
572.587	27.9
572.782	27.96
572.977	27.83
573.172	27.96
573.367	27.88
573.562	27.76
573.757	27.77
573.952	27.86
574.147	27.96
574.342	27.81
574.537	27.74
574.732	27.74
574.927	27.7
575.121	27.85
575.316	28.03
575.511	28.11
575.706	28.2
575.901	28.32
576.096	28.38
576.29	28.38
576.485	28.3
576.68	28.26
576.875	28.25
577.069	28.32
577.264	28.31
577.459	28.14
577.654	28.18
577.848	28.12
578.043	28.22
578.238	28.41
578.432	28.52
578.627	28.57
578.821	28.37
579.016	28.5
579.21	28.49
579.405	28.49
579.6	28.44
579.794	28.38
579.989	28.47
580.183	28.56
580.378	28.41
580.572	28.47
580.766	28.43
580.961	28.77
581.155	28.86
581.35	28.8
581.544	28.71
581.738	29.01
581.933	29.04
582.127	29.18
582.321	28.83
582.516	28.89
582.71	28.67
582.904	28.97
583.099	29.11
583.293	29.19
583.487	29.2
583.681	29.39
583.875	29.16
584.07	29.09
584.264	29.02
584.458	29.21
584.652	29.06
584.846	29.22
585.04	29.21
585.234	29.29
585.428	28.85
585.623	28.87
585.817	28.82
586.011	28.97
586.205	28.98
586.399	28.76
586.593	28.69
586.787	28.72
586.981	28.81
587.174	28.84
587.368	28.62
587.562	28.81
587.756	29.01
587.95	28.95
588.144	29.41
588.338	29.46
588.532	29.61
588.725	29.8
588.919	29.99
589.113	29.59
589.307	29.26
589.501	29.61
589.694	29.6
589.888	29.47
590.082	29.54
590.275	29.3
590.469	29.23
590.663	29.26
590.856	29.14
591.05	28.96
591.244	29.33
591.437	29.67
591.631	29.45
591.824	29.45
592.018	29.61
592.212	29.53
592.405	29.22
592.599	29.31
592.792	29.45
592.986	29.28
593.179	29.25
593.372	29.27
593.566	29.58
593.759	29.49
593.953	29.58
594.146	29.39
594.339	29.48
594.533	29.61
594.726	29.7
594.92	29.58
595.113	29.91
595.306	29.98
595.499	30.2
595.693	30.06
595.886	30.42
596.079	30.53
596.272	30.6
596.466	30.71
596.659	30.72
596.852	30.82
597.045	30.89
597.238	30.81
597.431	31
597.624	30.86
597.818	30.73
598.011	30.61
598.204	30.54
598.397	30.49
598.59	30.4
598.783	30.42
598.976	30.39
599.169	30.37
599.362	30.5
599.555	30.15
599.748	30.05
599.941	30.02
600.134	30.11
600.326	30.08
600.519	30.23
600.712	30.23
600.905	30.3
601.098	30.35
601.291	30.4
601.483	30.55
601.676	31.03
601.869	31.02
602.062	31.05
602.255	30.99
602.447	31.35
602.64	31.23
602.833	31.08
603.025	30.83
603.218	30.97
603.411	31.14
603.603	30.89
603.796	30.65
603.989	30.67
604.181	30.94
604.374	30.92
604.566	30.81
604.759	30.86
604.951	30.86
605.144	31.05
605.336	31.01
605.529	30.92
605.721	30.96
605.914	31
606.106	31.15
606.299	30.84
606.491	30.95
606.683	30.87
606.876	30.77
607.068	30.93
607.26	30.69
607.453	30.7
607.645	30.59
607.837	30.81
608.03	30.82
608.222	30.57
608.414	30.65
608.606	30.44
608.799	30.34
608.991	30.61
609.183	30.73
609.375	30.99
609.567	30.9
609.759	31.12
609.952	31.13
610.144	31.18
610.336	31.54
610.528	31.6
610.72	31.71
610.912	31.79
611.104	31.81
611.296	31.76
611.488	31.81
611.68	31.93
611.872	31.9
612.064	31.77
612.256	31.85
612.448	31.94
612.64	32.07
612.832	32.23
613.023	32.07
613.215	31.99
613.407	31.89
613.599	31.63
613.791	31.4
613.983	31.29
614.174	31.1
614.366	30.98
614.558	30.49
614.75	30.13
614.941	30.08
615.133	30.51
615.325	30.33
615.516	30.63
615.708	30.59
615.9	30.7
616.091	30.53
616.283	30.83
616.475	30.71
616.666	31.27
616.858	31.53
617.049	31.49
617.241	31.25
617.432	31.35
617.624	31.43
617.815	31.7
618.007	31.61
618.198	31.86
618.39	31.55
618.581	32.02
618.773	31.85
618.964	31.55
619.155	31.61
619.347	31.65
619.538	31.75
619.729	31.36
619.921	31.07
620.112	31.17
620.303	30.96
620.494	31.09
620.686	30.93
620.877	30.49
621.068	30.59
621.259	30.51
621.451	30.77
621.642	30.46
621.833	30.56
622.024	30.75
622.215	30.76
622.406	30.9
622.597	30.86
622.788	31.08
622.98	31.27
623.171	31.63
623.362	31.71
623.553	31.71
623.744	31.59
623.935	31.64
624.126	31.99
624.317	31.87
624.508	31.69
624.698	31.93
624.889	31.62
625.08	31.94
625.271	31.69
625.462	31.46
625.653	31.39
625.844	31.85
626.034	31.95
626.225	31.57
626.416	31.64
626.607	31.74
626.798	31.78
626.988	31.83
627.179	31.71
627.37	31.6
627.56	31.5
627.751	31.11
627.942	31.25
628.132	31.23
628.323	31.19
628.514	31.13
628.704	31.08
628.895	30.77
629.085	30.9
629.276	30.7
629.466	30.95
629.657	31.18
629.847	31.63
630.038	31.65
630.228	31.55
630.419	31.75
630.609	31.74
630.8	31.6
630.99	31.76
631.181	31.5
631.371	31.85
631.561	31.76
631.752	31.64
631.942	31.53
632.132	31.02
632.323	31.06
632.513	30.88
632.703	30.98
632.893	31.16
633.084	31.14
633.274	31.33
633.464	30.83
633.654	30.78
633.844	30.98
634.034	30.57
634.225	30.77
634.415	30.55
634.605	30.6
634.795	30.44
634.985	30.52
635.175	30.57
635.365	30.69
635.555	30.77
635.745	30.44
635.935	30.34
636.125	30.33
636.315	29.98
636.505	30.4
636.695	30.19
636.885	30.01
637.075	30.02
637.265	29.98
637.455	29.61
637.644	29.68
637.834	30.23
638.024	30
638.214	30.34
638.404	30.77
638.593	30.45
638.783	30.65
638.973	30.81
639.163	30.93
639.352	31.22
639.542	31.12
639.732	31.53
639.921	31.18
640.111	31.54
640.301	31.69
640.49	31.98
640.68	32.24
640.87	32.71
641.059	33.02
641.249	32.93
641.438	32.4
641.628	32.55
641.817	32.03
642.007	32.01
642.196	31.89
642.386	31.64
642.575	30.99
642.764	30.84
642.954	30.48
643.143	29.98
643.333	29.67
643.522	29.88
643.711	29.82
643.901	30.24
644.09	30.48
644.279	30.37
644.469	30.41
644.658	30.88
644.847	31.09
645.036	30.88
645.226	31.51
645.415	31.57
645.604	31.71
645.793	31.62
645.982	31.77
646.171	31.59
646.361	31.71
646.55	31.79
646.739	31.57
646.928	31.28
647.117	31.54
647.306	31.38
647.495	31.75
647.684	31.71
647.873	31.79
648.062	31.27
648.251	31.54
648.44	31.41
648.629	31.74
648.818	31.7
649.007	31.21
649.196	31.17
649.384	30.94
649.573	30.89
649.762	30.78
649.951	31.04
650.14	31.4
650.328	31.04
650.517	30.9
650.706	30.63
650.895	30.94
651.083	31.62
651.272	31.93
651.461	32.29
651.65	32
651.838	31.97
652.027	31.97
652.216	32.09
652.404	32.73
652.593	32.95
652.781	32.94
652.97	32.5
653.158	32.53
653.347	32.37
653.535	32.63
653.724	32.95
653.912	33.07
654.101	33.2
654.289	33.23
654.478	32.62
654.666	32.55
654.855	32.22
655.043	32.26
655.231	32.04
655.42	31.93
655.608	31.79
655.796	31.77
655.985	31.66
656.173	31.6
656.361	31.24
656.55	31.59
656.738	31.51
656.926	31.96
657.114	32.21
657.302	32.25
657.491	32.29
657.679	31.91
657.867	32
658.055	31.98
658.243	31.69
658.431	31.71
658.619	31.39
658.807	31.63
658.996	31.56
659.184	31.65
659.372	31.64
659.56	31.64
659.748	31.74
659.936	31.72
660.124	32.16
660.311	32.3
660.499	32.81
660.687	33.1
660.875	32.98
661.063	33.32
661.251	32.99
661.439	33.45
661.627	33.45
661.814	33.39
662.002	33.37
662.19	32.88
662.378	32.75
662.565	32.21
662.753	32.05
662.941	31.86
663.129	31.45
663.316	31.44
663.504	30.95
663.692	30.98
663.879	30.77
664.067	31.13
664.254	31.32
664.442	31.64
664.63	31.47
664.817	31.59
665.005	31.75
665.192	31.85
665.38	32.28
665.567	32.13
665.755	32.35
665.942	32.51
666.13	31.92
666.317	32.07
666.504	31.86
666.692	31.76
666.879	31.4
667.067	31.73
667.254	31.55
667.441	31.16
667.629	31.06
667.816	30.89
668.003	30.86
668.19	30.73
668.378	30.71
668.565	30.49
668.752	31.37
668.939	31.87
669.127	32.09
669.314	32.17
669.501	32.11
669.688	33.04
669.875	33.18
670.062	33.03
670.249	33.49
670.436	33.18
670.623	33.75
670.81	33.29
670.997	33.04
671.184	32.41
671.371	32.62
671.558	32.94
671.745	32.35
671.932	31.97
672.119	32.22
672.306	31.9
672.493	31.85
672.68	31.79
672.867	31.86
673.054	31.96
673.24	32.28
673.427	31.82
673.614	32.09
673.801	32.39
673.988	32.49
674.174	32.56
674.361	32.48
674.548	32.88
674.734	32.74
674.921	32.83
675.108	32.62
675.294	32.06
675.481	32.49
675.668	32.53
675.854	32.24
676.041	32.17
676.227	32.13
676.414	32.29
676.601	32.38
676.787	32.16
676.974	32.14
677.16	32.29
677.347	32.89
677.533	32.8
677.719	32.52
677.906	32.84
678.092	32.82
678.279	32.83
678.465	32.88
678.651	32.42
678.838	32.81
679.024	32.58
679.21	32.5
679.397	32.46
679.583	32.1
679.769	31.92
679.955	31.57
680.142	31.95
680.328	31.99
680.514	31.81
680.7	32.02
680.886	31.83
681.073	31.66
681.259	31.48
681.445	31.44
681.631	31.59
681.817	31.9
682.003	31.81
682.189	31.57
682.375	31.52
682.561	31.6
682.747	31.71
682.933	31.63
683.119	31.76
683.305	32.1
683.491	32.18
683.677	32.11
683.863	31.8
684.049	32.07
684.235	31.92
684.42	32
684.606	32.15
684.792	31.6
684.978	31.59
685.164	31.56
685.349	31.39
685.535	31.59
685.721	32.34
685.907	32.19
686.092	31.86
686.278	32.12
686.464	31.51
686.649	31.4
686.835	31.85
687.021	31.86
687.206	31.79
687.392	32.04
687.577	31.26
687.763	30.8
687.948	31.34
688.134	31.72
688.319	31.69
688.505	32.31
688.69	32.1
688.876	32.1
689.061	32.21
689.247	31.94
689.432	31.66
689.618	32.12
689.803	32.23
689.988	31.93
690.174	31.76
690.359	31.64
690.544	31.57
690.73	32.39
690.915	32.42
691.1	32.31
691.285	32.71
691.471	32.5
691.656	32.13
691.841	32.19
692.026	32.17
692.211	31.56
692.396	31.94
692.582	31.94
692.767	31.26
692.952	31.62
693.137	31.43
693.322	31.62
693.507	31.91
693.692	32.43
693.877	32.26
694.062	33.01
694.247	33.71
694.432	33.59
694.617	33.24
694.802	32.84
694.987	32.64
695.172	32.4
695.357	32.12
695.541	32.5
695.726	32.58
695.911	32.8
696.096	32.1
696.281	32.05
696.466	31.92
696.65	32.59
696.835	33.03
697.02	33.02
697.204	33.29
697.389	33.43
697.574	33.14
697.759	32.78
697.943	32.68
698.128	32.53
698.312	32.42
698.497	32.11
698.682	32.11
698.866	32.33
699.051	32.06
699.235	32.12
699.42	32.11
699.604	31.98
699.789	32.29
699.973	32.17
700.158	32.31
700.342	32.48
700.527	32.4
700.711	32.09
700.895	32.08
701.08	32.02
701.264	31.81
701.448	31.55
701.633	31.55
701.817	31.07
702.001	31.52
702.186	31.32
702.37	31.02
702.554	31.73
702.738	31.89
702.923	30.99
703.107	31.61
703.291	31.32
703.475	31.59
703.659	32.02
703.843	32.39
704.027	31.76
704.212	31.99
704.396	31.98
704.58	31.71
704.764	32.03
704.948	32.85
705.132	32.87
705.316	33.6
705.5	33.4
705.684	33.37
705.868	33.46
706.052	33
706.235	32.7
706.419	32.66
706.603	32.39
706.787	32.32
706.971	32.25
707.155	31
707.339	30.58
707.522	30.8
707.706	30
707.89	29.21
708.074	29.92
708.257	30.23
708.441	30.57
708.625	31.16
708.808	30.84
708.992	31.01
709.176	31.75
709.359	31.71
709.543	31.61
709.727	32.21
709.91	32.36
710.094	31.92
710.277	31.59
710.461	31.76
710.644	31
710.828	30.88
711.011	30.88
711.195	30.32
711.378	30.78
711.562	30.96
711.745	30.78
711.928	31.27
712.112	31.61
712.295	31.9
712.478	31.61
712.662	32.3
712.845	31.82
713.028	31.67
713.212	32.88
713.395	32.65
713.578	32.59
713.761	32.87
713.945	32.98
714.128	33.45
714.311	33.13
714.494	32.8
714.677	32.65
714.86	33.44
715.043	33.38
715.227	31.96
715.41	32.26
715.593	32.54
715.776	32.02
715.959	31.38
716.142	30.53
716.325	30.94
716.508	30.92
716.691	30.94
716.874	30
717.057	29.73
717.239	30.3
717.422	29.65
717.605	29.26
717.788	29.81
717.971	30.25
718.154	30.47
718.337	29.88
718.519	29.66
718.702	30.02
718.885	30.79
719.068	30.98
719.25	31.69
719.433	32.25
719.616	32.19
719.798	32.41
719.981	32.07
720.164	31.8
720.346	31.53
720.529	32.43
720.712	32.38
720.894	32.52
721.077	32.6
721.259	32.16
721.442	31.5
721.624	31.59
721.807	30.89
721.989	31.26
722.172	31.94
722.354	33.33
722.537	33.06
722.719	31.87
722.901	31.59
723.084	31.09
723.266	30.64
723.448	30.86
723.631	31.11
723.813	31.55
723.995	31.16
724.178	29.96
724.36	29.32
724.542	28.46
724.724	28.46
724.907	28.4
725.089	28.35
725.271	28.56
725.453	29.53
725.635	29.12
725.817	28.9
725.999	28.99
726.181	30.17
726.364	30.13
726.546	31.14
726.728	31.69
726.91	31.85
727.092	32.41
727.274	32.09
727.456	32.15
727.638	31.9
727.819	32.07
728.001	31.99
728.183	31.59
728.365	31.52
728.547	30.89
728.729	31.12
728.911	31.02
729.093	31.12
729.274	31.55
729.456	30.2
729.638	30.73
729.82	31.9
730.001	32.67
730.183	32.11
730.365	32.59
730.546	32.93
730.728	33.03
730.91	32.8
731.091	31.92
731.273	31.08
731.455	31.77
731.636	32.14
731.818	30.43
731.999	30.31
732.181	31.35
732.362	31.27
732.544	31.31
732.725	31.34
732.907	32.31
733.088	33.24
733.27	34.49
733.451	34.02
733.633	33.44
733.814	33.95
733.995	33.34
734.177	32.55
734.358	32.2
734.539	32.65
734.721	32.26
734.902	30.9
735.083	30.16
735.264	30.25
735.446	31.07
735.627	30.57
735.808	30.85
735.989	30.46
736.17	30.98
736.351	31.07
736.533	30.68
736.714	29.88
736.895	30.34
737.076	31.25
737.257	31.66
737.438	31.14
737.619	31.81
737.8	30.82
737.981	31.48
738.162	31.55
738.343	31.02
738.524	31.04
738.705	32.46
738.886	32.75
739.067	32.14
739.247	31.63
739.428	31.68
739.609	31.21
739.79	31.44
739.971	31.47
740.151	30.64
740.332	31.39
740.513	31.48
740.694	30.09
740.874	30.05
741.055	29.59
741.236	29.66
741.417	28.73
741.597	28
741.778	28.51
741.958	28.67
742.139	29.97
742.32	28.78
742.5	29
742.681	29.51
742.861	28.62
743.042	27.84
743.222	27.11
743.403	27.89
743.583	28.18
743.764	27.56
743.944	27.48
744.124	27.13
744.305	28.86
744.485	27.75
744.666	27.68
744.846	28.67
745.026	30.09
745.207	30.41
745.387	30.82
745.567	31.27
745.747	30.72
745.928	29.94
746.108	29.9
746.288	28.39
746.468	29.37
746.648	29.05
746.829	28.58
747.009	27.78
747.189	27.37
747.369	26.81
747.549	27.14
747.729	27.96
747.909	29.34
748.089	28.82
748.269	29.9
748.449	29.42
748.629	28.99
748.809	28.14
748.989	29.71
749.169	28.4
749.349	28.79
749.529	29.09
749.709	28.48
749.889	27.62
750.068	28.41
750.248	27.87
750.428	27.23
750.608	27.84
750.788	29.69
750.967	28.81
751.147	29.54
751.327	30.5
751.507	29.92
751.686	31.35
751.866	30.85
752.046	31.36
752.225	31.98
752.405	33.56
752.585	34.45
752.764	33.31
752.944	33.47
753.123	35.13
753.303	33.68
753.482	33.35
753.662	33.08
753.841	33.98
754.021	33.16
754.2	33.43
754.38	33.21
754.559	33.53
754.739	33.64
754.918	33.27
755.097	31.57
755.277	31.32
755.456	31.67
755.635	31.66
755.815	30.69
755.994	30.28
756.173	30.06
756.352	28.04
756.532	27.31
756.711	26.67
756.89	27.31
757.069	28.29
757.248	29.17
757.427	28.42
757.607	28.3
757.786	29.33
757.965	29.04
758.144	28.64
758.323	30.09
758.502	28.9
758.681	31.37
758.86	31.77
759.039	31.84
759.218	31.38
759.397	32.64
759.576	31.53
759.755	30.84
759.934	30.51
760.113	29.56
760.291	30.21
760.47	32.02
760.649	30.06
760.828	29.42
761.007	28.37
761.186	29.25
761.364	28.51
761.543	29.46
761.722	29.67
761.901	30.65
762.079	31.49
762.258	31.17
762.437	30.28
762.615	30.78
762.794	30.15
762.972	30.47
763.151	30.86
763.33	30.52
763.508	30.83
763.687	30.99
763.865	31.17
764.044	31.21
764.222	31.38
764.401	31.46
764.579	31.15
764.758	31.5
764.936	31.93
765.114	31.37
765.293	31.76
765.471	31.42
765.65	31.45
765.828	31.42
766.006	31.38
766.184	30.61
766.363	30.22
766.541	29.85
766.719	29.67
766.898	28.92
767.076	28.49
767.254	28.8
767.432	29.99
767.61	29.92
767.788	28.85
767.967	28.03
768.145	29.36
768.323	29.76
768.501	30.38
768.679	31.53
768.857	32.18
769.035	31.69
769.213	32.66
769.391	32.04
769.569	31.43
769.747	31.52
769.925	31.79
770.103	30.88
770.281	31.49
770.459	31.49
770.636	30.65
770.814	30.2
770.992	30.73
771.17	27.89
771.348	26.39
771.525	26.39
771.703	26.11
771.881	26.77
772.059	27.89
772.236	26.74
772.414	27.12
772.592	26.8
772.769	27.88
772.947	28.31
773.125	31.69
773.302	31.96
773.48	33.21
773.657	33.99
773.835	33.18
774.013	31.47
774.19	33.64
774.368	34.49
774.545	36.88
774.723	36.3
774.9	38.68
775.077	38.12
775.255	37.82
775.432	38.75
775.61	37.79
775.787	37.58
775.964	37.49
776.142	34.3
776.319	33.3
776.496	31.96
776.674	32.77
776.851	30.4
777.028	28.58
777.205	28.04
777.382	26.75
777.56	26.74
777.737	28.19
777.914	27.35
778.091	28.29
778.268	28.21
778.445	25.74
778.622	25.11
778.8	24.03
778.977	24.04
779.154	23.74
779.331	24.12
779.508	25.11
779.685	24.67
779.862	27.03
780.038	27.53
780.215	26.63
780.392	27.76
780.569	27.31
780.746	25.43
780.923	27.6
781.1	27.79
781.277	27.03
781.453	27.21
781.63	25.67
781.807	22.84
781.984	22.27
782.16	21.11
782.337	21.49
782.514	23.33
782.691	27.57
782.867	27.95
783.044	30.98
783.221	35.04
783.397	34.16
783.574	35.41
783.75	33.48
783.927	34.07
784.103	35.84
784.28	34.82
784.456	34.06
784.633	31.98
784.809	30.8
784.986	28.15
785.162	24.44
785.339	23.44
785.515	22.54
785.692	29.24
785.868	29.88
786.044	30.24
786.221	30.18
786.397	31.34
786.573	31.63
786.749	30.36
786.926	29.92
787.102	27.76
787.278	28.77
787.454	27.91
787.631	24.37
787.807	26.25
787.983	27.76
788.159	26.65
788.335	20.54
788.511	20.77
788.687	21.75
788.863	21.91
789.039	23.01
789.216	21.41
789.392	22.07
789.568	21.49
789.744	18.19
789.919	16.23
790.095	18.57
790.271	22.6
790.447	22.23
790.623	21.51
790.799	21.97
790.975	24.96
791.151	26.08
791.327	26.09
791.502	25.56
791.678	27.9
791.854	27.86
792.03	26.84
792.205	26.28
792.381	26.81
792.557	22.76
792.733	22.95
792.908	19.84
793.084	21.63
793.259	23.4
793.435	27.18
793.611	24.91
793.786	23.54
793.962	24.6
794.137	22.8
794.313	23.65
794.488	25.54
794.664	27.83
794.839	23.9
795.015	22.98
795.19	20.35
795.366	20.24
795.541	18.75
795.716	21.02
795.892	19.02
796.067	21.79
796.242	21.49
796.418	21.93
796.593	18.72
796.768	22.81
796.944	22.34
797.119	23.43
797.294	23.16
797.469	21.21
797.644	18.45
797.82	18.53
797.995	19.56
798.17	18.17
798.345	22.18
798.52	21.24
798.695	19.55
798.87	19.74
799.045	18.97
799.22	16.92
799.395	22.18
799.57	26
799.745	27.67
799.92	26.49
800.095	25.89
800.27	24.18
800.445	27.8
800.62	30.52
800.795	32.11
800.97	31.42
801.145	32.94
801.319	32.39
801.494	27.44
801.669	23.89
801.844	23.22
802.018	24.24
802.193	24.03
802.368	19.21
802.543	16.71
802.717	15.81
802.892	20.1
803.067	17.11
803.241	14.62
803.416	19.15
803.59	24.87
803.765	24.5
803.94	25.1
804.114	23.59
804.289	26.4
804.463	27.79
804.638	25.24
804.812	24.12
804.986	23.26
805.161	25.07
805.335	24.31
805.51	21.7
805.684	20.72
805.858	19.14
806.033	17.86
806.207	17.05
806.381	13.88
806.556	17.86
806.73	17.4
806.904	17.73
807.078	20.19
807.253	21.63
807.427	22.18
807.601	29.05
807.775	31.05
807.949	30.78
808.123	29.07
808.298	28.12
808.472	27.77
808.646	29.55
808.82	34.21
808.994	30.58
809.168	29.4
809.342	31.03
809.516	24.82
809.69	24.86
809.864	25.49
810.038	24.88
810.212	26.54
810.385	25.89
810.559	24.44
810.733	22.48
810.907	23.29
811.081	21.45
811.255	18.99
811.428	21.12
811.602	20.47
811.776	23.43
811.95	26.44
812.123	27.22
812.297	30.93
812.471	31.55
812.644	34.76
812.818	33.42
812.992	34.61
813.165	31.99
813.339	33.21
813.512	33.8
813.686	29.21
813.86	31.83
814.033	31.26
814.207	32.62
814.38	31.93
814.554	30.73
814.727	33.61
814.9	31.77
815.074	38.03
815.247	36.12
815.421	35.83
815.594	37.87
815.767	36.91
815.941	38.09
816.114	35.04
816.287	35.18
816.46	31.93
816.634	28.33
816.807	26.45
816.98	25.64
817.153	30.31
817.327	28.76
817.5	28.23
817.673	28.82
817.846	29.29
818.019	26.02
818.192	29.44
818.365	30.96
818.538	31.55
818.711	36.93
818.884	34.9
819.057	28.03
819.23	28.67
819.403	30.27
819.576	30.41
819.749	30.65
819.922	32.8
820.095	29.18
820.268	29.2
820.441	27.62
820.614	25.18
820.786	26.05
820.959	27.97
821.132	29.17
821.305	29.37
821.477	30.41
821.65	31.12
821.823	29.41
821.996	29.71
822.168	29.47
822.341	30.83
822.514	31.5
822.686	30.97
822.859	30.52
823.031	30.54
823.204	30.78
823.376	30.45
823.549	29.72
823.722	30.18
823.894	30.23
824.067	30.09
824.239	29.39
824.411	28.9
824.584	29.88
824.756	30.38
824.929	30.48
825.101	29.72
825.273	29.9
825.446	30.55
825.618	30.28
825.79	29.52
825.963	30.3
826.135	31.37
826.307	31.67
826.479	30.92
826.652	31.55
826.824	30.33
826.996	29.81
827.168	28.27
827.34	27.47
827.512	26.02
827.684	27.3
827.856	26.52
828.029	25.9
828.201	26.9
828.373	26.47
828.545	25.79
828.717	26.49
828.889	26.42
829.061	27.36
829.232	27.27
829.404	30.2
829.576	29.18
829.748	31.43
829.92	32
830.092	30.57
830.264	28.8
830.436	29.4
830.607	29.47
830.779	30.13
830.951	27.19
831.123	24.54
831.294	24.67
831.466	24.94
831.638	21.84
831.809	13.56
831.981	11.56
832.153	14.31
832.324	10.31
832.496	15.26
832.667	17.59
832.839	21.86
833.011	27.9
833.182	24.95
833.354	27.31
833.525	26.64
833.697	30.33
833.868	31.25
834.039	32.41
834.211	33.1
834.382	28.75
834.554	27.92
834.725	28.48
834.896	25.84
835.068	27.59
835.239	24.93
835.41	26.89
835.581	25.5
835.753	25.64
835.924	25.78
836.095	24.7
836.266	25.95
836.438	25.5
836.609	23.46
836.78	25.13
836.951	25.85
837.122	25.93
837.293	24.02
837.464	24.33
837.635	27.96
837.806	28.58
837.977	31.05
838.148	31.23
838.319	32.96
838.49	36.46
838.661	36.4
838.832	35.06
839.003	39.66
839.174	38.96
839.345	45.12
839.516	38.9
839.687	38.96
839.857	38.69
840.028	38.18
840.199	34.93
840.37	33.04
840.54	27.83
840.711	33.44
840.882	27.5
841.053	25.98
841.223	21.84
841.394	27.64
841.564	24.55
841.735	26.84
841.906	27.86
842.076	27.44
842.247	28.39
842.417	32.08
842.588	24.86
842.758	29.73
842.929	28.32
843.099	32.81
843.27	22.12
843.44	17.39
843.611	13.42
843.781	11.68
843.951	13.9
844.122	5.54
844.292	9.63
844.462	10.9
844.633	19.47
844.803	24.3
844.973	31.33
845.144	27.91
845.314	30.66
845.484	28.12
845.654	24.24
845.824	26.65
845.995	26.01
846.165	26.01
846.335	29.4
846.505	19.08
846.675	23.78
846.845	5.51
847.015	2.3
847.185	6.51
847.355	9.2
847.525	15.97
847.695	19.34
847.865	29.85
848.035	25.75
848.205	19.14
848.375	19.64
848.545	-0.27
848.715	6.94
848.884	7.8
849.054	0.49
849.224	13.49
849.394	15.25
849.564	7.1
849.733	7.26
849.903	16.47
850.073	6.69
850.243	-0.67
850.412	14.99
850.582	22.4
850.752	25.66
850.921	36.11
851.091	27.64
851.26	24.86
851.43	22.75
851.599	19.15
851.769	14.35
851.939	18.17
852.108	30.25
852.278	34.54
852.447	33.7
852.616	57.67
852.786	43.7
852.955	42.31
853.125	35.03
853.294	53.36
853.463	45.11
853.633	42.18
853.802	47.03
853.971	49.16
854.141	44.36
854.31	38.22
854.479	30.72
854.648	34.85
854.818	41.46
854.987	36.56
855.156	36.48
855.325	38.56
855.494	32.92
855.663	27.31
855.832	27.72
856.001	21.68
856.171	18.11
856.34	17.89
856.509	12.47
856.678	-14.36
856.847	-20.18
857.016	-39.38
857.185	-76.31
857.353	-37.53
857.522	-47.03
857.691	-34.78
857.86	-16.05
858.029	-23.92
858.198	-26.95
858.367	-22.2
858.535	-6.52
858.704	1.66
858.873	-0.8
859.042	19.5
859.21	20.55
859.379	17.52
859.548	13.36
859.717	2.52
859.885	9.75
860.054	14.96
860.222	6.6
860.391	-5.3
860.56	-3.39
860.728	-1.53
860.897	-7.81
861.065	-6.37
861.234	-0.8
861.402	1.8
861.571	8.9
861.739	8.09
861.908	0.39
862.076	-5.53
862.244	10.17
862.413	9.61
862.581	20.42
862.749	12.71
862.918	3.34
863.086	-4.51
863.254	-6.8
863.423	-6.85
863.591	-0.15
863.759	-1.23
863.927	0.25
864.096	-7.49
864.264	-14.71
864.432	-34.19
864.6	-24.58
864.768	-33.51
864.936	-21.54
865.104	-11.53
865.272	-2.68
865.44	-13.59
865.608	-14.96
865.776	-1.95
865.944	-8.75
866.112	10.69
866.28	8.37
866.448	10.75
866.616	23.7
866.784	26.56
866.952	21.38
867.12	24.47
867.288	32.54
867.455	37.66
867.623	38.78
867.791	36.82
867.959	41.86
868.127	43.85
868.294	41.05
868.462	45.77
868.63	46.97
868.797	53.06
868.965	47.6
869.133	51.81
869.3	52.38
869.468	60.61
869.636	60.4
869.803	52.76
869.971	73.6
870.138	88.5
870.306	95.34
870.473	98.36
870.641	90.17
870.808	74.05
870.975	68.9
871.143	53.9
871.31	27.98
871.478	45.87
871.645	45.58
871.812	38.91
871.98	45.32
872.147	39.66
872.314	31.38
872.482	33.23
872.649	44.62
872.816	44.97
872.983	46.91
873.15	51.32
873.318	38.24
873.485	34.72
873.652	31.44
873.819	2.16
873.986	14.84
874.153	15.02
874.32	3.94
874.487	-2.7
874.654	-3.35
874.821	-6.05
874.988	2.72
875.155	10.22
875.322	13.31
875.489	18.51
875.656	27.68
875.823	20.26
875.99	22.08
876.157	21.71
876.324	34.4
876.49	26.69
876.657	28.25
876.824	23.87
876.991	18.99
877.157	21.61
877.324	18.82
877.491	16.82
877.658	29.39
877.824	34.98
877.991	40.32
878.157	21.08
878.324	29.44
878.491	35.13
878.657	30.47
878.824	31.65
878.99	19.92
879.157	30.25
879.323	21.28
879.49	22.16
879.656	23.38
879.823	22.93
879.989	44.39
880.156	38.16
880.322	33.98
880.488	38.86
880.655	42.1
880.821	50.39
880.987	34.27
881.154	36.12
881.32	36.07
881.486	30.23
881.652	30.86
881.819	22.29
881.985	25.48
882.151	23.13
882.317	23.58
882.483	25.55
882.649	23.01
882.816	26.37
882.982	27.64
883.148	22.73
883.314	23.49
883.48	26.68
883.646	26.5
883.812	24.6
883.978	25.92
884.144	25.24
884.31	23.61
884.476	23.57
884.642	22.87
884.807	21.68
884.973	24.19
885.139	22.39
885.305	19.86
885.471	20.34
885.637	21.27
885.802	23.2
885.968	21.54
886.134	24.48
886.3	30.19
886.465	25.53
886.631	31.33
886.797	30.25
886.962	37.8
887.128	40.34
887.293	33.91
887.459	37.29
887.625	35.29
887.79	43.3
887.956	41.17
888.121	35.6
888.287	45.53
888.452	37.49
888.618	41.18
888.783	24.1
