Data from 2938090_Reflection_3.txt Node
Date: Sat Jul 11 19:20:09 EDT 2015
User: robert
Spectrometer: USB4E03001
Autoset integration time: false
Trigger mode: 4
Integration Time (sec): 1.000000E-1
Scans to average: 10
Electric dark correction enabled: true
Nonlinearity correction enabled: false
Boxcar width: 5
Stray light correction enabled: false
XAxis mode: Wavelengths
Stop averaging: false
Number of Pixels in Spectrum: 3648
>>>>>Begin Spectral Data<<<<<
177.566	32.84
177.785	34.42
178.005	64.74
178.225	107.95
178.445	76.28
178.665	135.35
178.885	-77.9
179.105	2.36
179.324	25.71
179.544	25.38
179.764	38.45
179.984	57.48
180.204	91.41
180.423	131.43
180.643	142.1
180.863	120.95
181.083	180.66
181.302	220.69
181.522	669.52
181.742	248.6
181.961	170.13
182.181	260.75
182.401	156.08
182.621	132.69
182.84	117.9
183.06	181.02
183.279	177.04
183.499	189.49
183.719	199.55
183.938	156.62
184.158	137.3
184.377	172.88
184.597	146.38
184.816	160.09
185.036	151.34
185.256	131.33
185.475	112.46
185.695	121.26
185.914	99.77
186.134	97.11
186.353	88.05
186.572	76.74
186.792	69.94
187.011	94.07
187.231	96.35
187.45	107.12
187.67	137.36
187.889	126.77
188.108	86.2
188.328	69.2
188.547	42.71
188.766	32.31
188.986	165.15
189.205	63.98
189.424	32.49
189.644	33.6
189.863	55.42
190.082	49.27
190.302	73.54
190.521	83.05
190.74	138.82
190.959	108.7
191.178	138.03
191.398	105.98
191.617	111.27
191.836	117.3
192.055	102.1
192.274	83.84
192.494	81.04
192.713	86.82
192.932	104.96
193.151	118.73
193.37	202.11
193.589	114.56
193.808	95.46
194.027	136.12
194.246	4918.37
194.465	-394.13
194.685	-132.67
194.904	-399.3
195.123	-377.29
195.342	-29.28
195.561	231.6
195.78	138.82
195.999	293.43
196.218	230.56
196.436	226.48
196.655	119.12
196.874	103.45
197.093	48.13
197.312	63.63
197.531	46.96
197.75	61.57
197.969	38.04
198.188	17.57
198.407	-251.99
198.625	-8.97
198.844	44.02
199.063	89.12
199.282	81.77
199.501	281.52
199.719	135.78
199.938	110.62
200.157	120.77
200.376	110.52
200.594	101.72
200.813	75.51
201.032	68.51
201.251	63.31
201.469	55.13
201.688	59.74
201.907	52.1
202.125	65.55
202.344	54.96
202.563	52.56
202.781	51.28
203	48.37
203.218	60.56
203.437	49.9
203.656	91.16
203.874	112.26
204.093	96.28
204.311	94.86
204.53	68.63
204.748	115.69
204.967	168.74
205.185	148.6
205.404	166.55
205.622	139.42
205.841	136.75
206.059	104.67
206.278	82.06
206.496	103.31
206.715	85.33
206.933	89.68
207.151	80.64
207.37	83.89
207.588	94.56
207.806	74.87
208.025	90.72
208.243	98.32
208.461	107.37
208.68	116.76
208.898	107.54
209.116	135.27
209.335	122.11
209.553	138.55
209.771	108.29
209.989	102.74
210.208	153.69
210.426	332.97
210.644	-64.48
210.862	45.83
211.081	15.83
211.299	15.67
211.517	-38.47
211.735	-91.3
211.953	-68.87
212.171	-4.99
212.39	2.24
212.608	122.22
212.826	123.46
213.044	171.67
213.262	162.86
213.48	280.81
213.698	-2440.8
213.916	883.84
214.134	434.32
214.352	255.24
214.57	226.2
214.788	172.9
215.006	158.82
215.224	167.97
215.442	174.46
215.66	180.71
215.878	159.42
216.096	119.77
216.314	103.09
216.532	81.47
216.75	77.71
216.968	63.93
217.185	63.78
217.403	75.21
217.621	55.61
217.839	52.08
218.057	44.14
218.275	34
218.492	33.94
218.71	41.32
218.928	33.09
219.146	36.29
219.363	48.66
219.581	33.99
219.799	2.02
220.017	24.16
220.234	16.54
220.452	54.59
220.67	45.21
220.887	56.14
221.105	33.6
221.323	19.81
221.54	0.44
221.758	13.71
221.976	-27.89
222.193	-435.5
222.411	-90.91
222.629	-167.7
222.846	-98.72
223.064	-48.29
223.281	-36.1
223.499	-15.19
223.716	21.33
223.934	45.95
224.151	31.36
224.369	38.97
224.586	48.96
224.804	63.73
225.021	70.53
225.239	64.77
225.456	56.2
225.674	60.17
225.891	76.6
226.108	67.88
226.326	57.92
226.543	67.12
226.76	58.77
226.978	48.12
227.195	36.04
227.413	22.01
227.63	18.75
227.847	12.22
228.064	10.23
228.282	11.14
228.499	15.45
228.716	16.48
228.934	19.41
229.151	21.95
229.368	23.39
229.585	20.4
229.802	20.54
230.02	22.69
230.237	27.4
230.454	27.63
230.671	29.11
230.888	26.66
231.105	27.61
231.323	24.65
231.54	20.42
231.757	17.57
231.974	23.97
232.191	27.01
232.408	24.91
232.625	17.37
232.842	13.83
233.059	7.48
233.276	7.42
233.493	6.96
233.71	1.91
233.927	4.36
234.144	9.12
234.361	3.09
234.578	-3.6
234.795	-2.89
235.012	-1.29
235.229	1.01
235.446	4.77
235.663	-2.07
235.879	-4.78
236.096	5.03
236.313	11.3
236.53	13.71
236.747	17.75
236.964	18.16
237.181	24.03
237.397	29.84
237.614	31.23
237.831	30.51
238.048	38.39
238.264	45.25
238.481	36.35
238.698	37.94
238.915	30.9
239.131	32.87
239.348	33.67
239.565	29.48
239.781	20.63
239.998	17.52
240.215	15.27
240.431	10.02
240.648	4.99
240.865	4.46
241.081	2.66
241.298	5.05
241.514	3.26
241.731	1.64
241.947	1.61
242.164	4.78
242.38	5.1
242.597	6.75
242.814	9.12
243.03	9.79
243.246	13.56
243.463	11.31
243.679	12.04
243.896	12.18
244.112	10.57
244.329	11.19
244.545	12.61
244.762	10.51
244.978	9.39
245.194	8.9
245.411	8.23
245.627	7.22
245.843	6.74
246.06	4.33
246.276	4.01
246.492	5.28
246.709	4.79
246.925	4.03
247.141	5.35
247.357	5.88
247.574	5.57
247.79	6.02
248.006	6
248.222	7.58
248.439	8.46
248.655	8.95
248.871	9.99
249.087	11.64
249.303	12.22
249.519	13.3
249.736	11.48
249.952	12.13
250.168	11.15
250.384	11.51
250.6	10.12
250.816	11
251.032	12.45
251.248	11.31
251.464	10.59
251.68	9.29
251.896	9.02
252.112	9.89
252.328	9.97
252.544	9.46
252.76	9.42
252.976	11.27
253.192	12.46
253.408	10.67
253.624	10.47
253.84	8.96
254.056	11.96
254.272	11.64
254.487	14.19
254.703	14.58
254.919	18.76
255.135	14.48
255.351	16.05
255.567	10.96
255.782	10.4
255.998	11.97
256.214	10.59
256.43	6
256.646	0.4
256.861	-1.75
257.077	-3.2
257.293	-4.5
257.508	-3.24
257.724	-6.82
257.94	-5
258.155	-3.2
258.371	-1.4
258.587	-0.79
258.802	0.52
259.018	2.62
259.234	2.82
259.449	3.13
259.665	3.82
259.88	4.91
260.096	4.4
260.312	5.38
260.527	5.27
260.743	5.62
260.958	6.45
261.174	6.86
261.389	8.09
261.605	9.13
261.82	9.46
262.036	9.71
262.251	10.12
262.466	11.5
262.682	10.25
262.897	9.83
263.113	8.38
263.328	9.14
263.543	8.27
263.759	7.66
263.974	8.4
264.189	8.17
264.405	6.48
264.62	7.31
264.835	5.55
265.051	6.12
265.266	8.75
265.481	10.53
265.696	10.31
265.912	12.7
266.127	11.36
266.342	10.09
266.557	11.77
266.773	11.38
266.988	10.71
267.203	10.61
267.418	12.54
267.633	12.22
267.848	12.46
268.064	10.16
268.279	9.89
268.494	8.31
268.709	7.36
268.924	4.48
269.139	6.02
269.354	6.66
269.569	9
269.784	7.77
269.999	9.55
270.214	8.61
270.429	8.43
270.644	6.71
270.859	9.67
271.074	11.07
271.289	11.83
271.504	10.46
271.719	10.59
271.934	11.27
272.149	11.08
272.363	9.79
272.578	8.92
272.793	10.25
273.008	10.88
273.223	10.22
273.438	9.72
273.653	10.37
273.867	11.38
274.082	8.88
274.297	6.72
274.512	5.83
274.726	5.14
274.941	5.79
275.156	4.63
275.371	4.66
275.585	3.72
275.8	2.89
276.015	2.09
276.229	0.26
276.444	2.69
276.659	3.68
276.873	4.32
277.088	5.36
277.302	5.35
277.517	6.71
277.732	8.04
277.946	7.35
278.161	9.64
278.375	11.44
278.59	13.05
278.804	12.2
279.019	10.54
279.233	11.82
279.448	9.42
279.662	11.36
279.877	11
280.091	8.46
280.306	9.97
280.52	9.96
280.735	7.36
280.949	7.5
281.163	7.38
281.378	8.52
281.592	5.97
281.806	7.7
282.021	6.01
282.235	5.11
282.449	6.52
282.664	5.45
282.878	3.9
283.092	5.02
283.307	3.67
283.521	4.75
283.735	5.09
283.949	5.76
284.164	5.95
284.378	5.95
284.592	7.64
284.806	5.88
285.02	7.1
285.234	7.43
285.449	8.53
285.663	9.18
285.877	8.56
286.091	8.29
286.305	8.13
286.519	8.95
286.733	10.25
286.947	9.14
287.161	10.18
287.375	10.66
287.589	10.34
287.803	10.52
288.017	10.59
288.231	10.81
288.445	11.23
288.659	11.71
288.873	8.59
289.087	6.81
289.301	6.04
289.515	6.87
289.729	6.96
289.943	7.37
290.157	6.4
290.371	6.51
290.584	7.21
290.798	6.25
291.012	5.22
291.226	6.73
291.44	7.27
291.654	7.76
291.867	7.09
292.081	5.92
292.295	4.86
292.509	4.46
292.722	4.65
292.936	4.71
293.15	4.42
293.364	4.37
293.577	5.56
293.791	5.38
294.005	6.33
294.218	6.35
294.432	6.45
294.645	9.32
294.859	10.66
295.073	10.76
295.286	9.89
295.5	9.82
295.713	10.5
295.927	11.34
296.14	10.78
296.354	11
296.568	11.8
296.781	10.75
296.994	8.88
297.208	8.47
297.421	8.51
297.635	9.54
297.848	10.13
298.062	9.89
298.275	7.99
298.489	9.22
298.702	8.61
298.915	8.57
299.129	9.84
299.342	10.15
299.555	9.53
299.769	8.64
299.982	8.74
300.195	8.58
300.409	8.72
300.622	9.69
300.835	9.54
301.048	9.32
301.262	9.52
301.475	10.45
301.688	10.9
301.901	10.1
302.115	10.86
302.328	10.1
302.541	11.97
302.754	14.27
302.967	14.55
303.18	13.84
303.393	14.58
303.607	13.99
303.82	13.08
304.033	14.09
304.246	15.54
304.459	14.41
304.672	14.93
304.885	14.4
305.098	13.39
305.311	13.07
305.524	13.16
305.737	14.14
305.95	12.66
306.163	13.33
306.376	13.83
306.589	13.35
306.802	14.69
307.015	14.7
307.228	14.03
307.44	12.67
307.653	13.42
307.866	14.36
308.079	12.3
308.292	14.25
308.505	14.15
308.718	13.21
308.93	13.76
309.143	13.41
309.356	13.36
309.569	12.08
309.781	13.35
309.994	13.2
310.207	12.88
310.42	13.33
310.632	13.7
310.845	14.23
311.058	15.15
311.27	14.69
311.483	15.13
311.696	13.67
311.908	14.27
312.121	15.01
312.333	14.52
312.546	14.55
312.759	16.19
312.971	16.14
313.184	16.75
313.396	15.18
313.609	15.79
313.821	16.83
314.034	17.41
314.246	19.08
314.459	18.25
314.671	17.8
314.884	15.88
315.096	15.36
315.309	14.65
315.521	12.15
315.733	12.57
315.946	13.54
316.158	12.86
316.371	12.76
316.583	10.94
316.795	10.67
317.008	12.43
317.22	15.95
317.432	15.22
317.644	15.83
317.857	16.06
318.069	15.87
318.281	14.91
318.494	12.65
318.706	12.73
318.918	14.36
319.13	14.22
319.342	12.81
319.555	10.31
319.767	10.51
319.979	11.31
320.191	13.61
320.403	13.4
320.615	11.71
320.827	13.03
321.039	12.98
321.252	12.95
321.464	13.23
321.676	15.16
321.888	15.41
322.1	15.32
322.312	13.33
322.524	11.13
322.736	12.41
322.948	12.93
323.16	13.93
323.372	14.64
323.584	13.47
323.796	14.12
324.007	13.22
324.219	13.59
324.431	13.68
324.643	15.04
324.855	15.54
325.067	15.81
325.279	18.41
325.491	18.64
325.702	20.48
325.914	21.1
326.126	20.98
326.338	21.02
326.55	21.28
326.761	21.21
326.973	21.07
327.185	21.75
327.396	22.33
327.608	21.13
327.82	21.3
328.032	20.09
328.243	20.12
328.455	19.66
328.666	20.68
328.878	20.15
329.09	18.97
329.301	17.92
329.513	18.13
329.725	18.54
329.936	18.21
330.148	17.41
330.359	18.64
330.571	19.87
330.782	19.9
330.994	19.66
331.205	19.96
331.417	22.08
331.628	22.79
331.84	22.47
332.051	21.23
332.262	21.94
332.474	22.88
332.685	21.65
332.897	21.27
333.108	23.94
333.319	24.23
333.531	26.06
333.742	27.06
333.953	27.25
334.165	28.68
334.376	29.67
334.587	27.65
334.799	28.53
335.01	29.79
335.221	29.66
335.432	28.01
335.644	27.85
335.855	26.87
336.066	25.8
336.277	25.89
336.488	25.15
336.7	26.01
336.911	28.18
337.122	29
337.333	29.08
337.544	29.33
337.755	30.48
337.966	30.25
338.177	30.85
338.388	30.7
338.599	31.2
338.811	30.68
339.022	30.03
339.233	28.67
339.444	26.98
339.655	27.09
339.866	27.95
340.076	28.32
340.287	28.7
340.498	28.01
340.709	29.14
340.92	29.93
341.131	31.14
341.342	30.47
341.553	31.23
341.764	32.58
341.975	31.82
342.185	30.77
342.396	30.27
342.607	30.34
342.818	30.93
343.029	31.04
343.239	30.76
343.45	30.31
343.661	31.54
343.872	31.5
344.082	30.96
344.293	32.15
344.504	32.73
344.714	32.54
344.925	32.84
345.136	32.87
345.346	32.44
345.557	31.93
345.768	31.78
345.978	31.33
346.189	31.66
346.399	31.78
346.61	31.1
346.821	31.36
347.031	31.17
347.242	31.62
347.452	32.58
347.663	32.22
347.873	32.22
348.084	32.63
348.294	31.64
348.504	31.62
348.715	31.89
348.925	32.37
349.136	32.32
349.346	32.43
349.557	32.35
349.767	31.42
349.977	32.2
350.188	31.94
350.398	32.71
350.608	33.18
350.819	32.98
351.029	33.05
351.239	33.28
351.449	32.07
351.66	32.23
351.87	32.34
352.08	33.44
352.29	33.76
352.501	33.38
352.711	32.35
352.921	32.93
353.131	33.07
353.341	32.47
353.552	32.56
353.762	32.02
353.972	32.1
354.182	30.32
354.392	29.46
354.602	28.94
354.812	30.02
355.022	29.82
355.232	31.28
355.442	31.07
355.652	30.2
355.862	30.42
356.072	31.15
356.282	30.57
356.492	31.87
356.702	31.51
356.912	31.92
357.122	31.98
357.332	31.84
357.542	30.15
357.752	30.54
357.962	31.58
358.171	30.92
358.381	31.18
358.591	32.22
358.801	32.32
359.011	32.29
359.221	31.52
359.43	31.4
359.64	32.5
359.85	33.12
360.06	32.39
360.269	32.49
360.479	32.1
360.689	32.19
360.899	31.77
361.108	31.87
361.318	32.37
361.528	32.54
361.737	32.66
361.947	32.52
362.156	32.2
362.366	32.92
362.576	32.67
362.785	32.33
362.995	31.87
363.204	31.21
363.414	29.81
363.623	28.56
363.833	28.68
364.042	28.14
364.252	27.2
364.461	27
364.671	26.67
364.88	26.05
365.09	26.3
365.299	27.07
365.509	27.88
365.718	29.39
365.927	30.5
366.137	30.4
366.346	30.6
366.555	30.3
366.765	31
366.974	30.49
367.183	30.76
367.393	30.65
367.602	29.93
367.811	29.56
368.021	29.2
368.23	28.94
368.439	28.59
368.648	28.4
368.857	29.18
369.067	28.51
369.276	28.73
369.485	28.92
369.694	29.53
369.903	29.46
370.112	29.55
370.321	29.31
370.531	28.71
370.74	28.46
370.949	28.36
371.158	28.28
371.367	28.14
371.576	28.48
371.785	28.06
371.994	27.23
372.203	27.3
372.412	27.29
372.621	27.03
372.83	27.13
373.039	28.15
373.248	29.11
373.457	28.89
373.666	28.74
373.874	28.2
374.083	28.49
374.292	29.15
374.501	29.4
374.71	28.71
374.919	28.74
375.128	28.57
375.336	28.06
375.545	27.3
375.754	26.91
375.963	27.13
376.171	27.16
376.38	26.85
376.589	26.24
376.798	25.94
377.006	25.86
377.215	26.25
377.424	25.73
377.632	25.8
377.841	25.53
378.05	26.11
378.258	25.7
378.467	25.57
378.675	25.75
378.884	25.45
379.093	25.48
379.301	25.49
379.51	24.81
379.718	24.58
379.927	23.7
380.135	23.58
380.344	22.58
380.552	21.62
380.761	21.36
380.969	21.14
381.177	21.46
381.386	20.8
381.594	21.05
381.803	21.11
382.011	21.72
382.219	21.91
382.428	22.12
382.636	22.94
382.845	23.53
383.053	23.79
383.261	23.18
383.469	23.08
383.678	23.31
383.886	23.12
384.094	23.36
384.302	23.38
384.511	23.36
384.719	23.13
384.927	22.35
385.135	22.46
385.343	21.83
385.552	22.19
385.76	21.96
385.968	22.02
386.176	21.74
386.384	21.5
386.592	21.31
386.8	20.72
387.008	20.75
387.216	20.9
387.424	20.82
387.633	21.13
387.841	20.93
388.049	21.28
388.257	21.13
388.465	20.93
388.672	20.58
388.88	20.4
389.088	21.16
389.296	20.63
389.504	20.51
389.712	20.36
389.92	20.51
390.128	20.76
390.336	20.52
390.544	20.77
390.751	20.75
390.959	20.58
391.167	20.25
391.375	19.61
391.583	19.8
391.79	20.14
391.998	20.18
392.206	19.84
392.414	19.81
392.621	19.79
392.829	19.56
393.037	19.75
393.244	19.76
393.452	20.12
393.66	20.56
393.867	20.59
394.075	20.35
394.283	20.02
394.49	20.44
394.698	20.26
394.905	20.04
395.113	20.01
395.32	19.46
395.528	19.8
395.735	20.07
395.943	19.8
396.15	19.56
396.358	19.54
396.565	19.63
396.773	19.33
396.98	19.65
397.188	19.61
397.395	19.69
397.602	20.47
397.81	20.25
398.017	19.69
398.225	19.59
398.432	19.5
398.639	19.56
398.847	19.73
399.054	19.49
399.261	19.35
399.468	19.37
399.676	18.96
399.883	18.59
400.09	18.52
400.297	18.49
400.505	18.74
400.712	19.11
400.919	18.95
401.126	19.13
401.333	18.91
401.54	18.75
401.748	18.78
401.955	19.09
402.162	18.89
402.369	19.19
402.576	19.43
402.783	19.59
402.99	19.18
403.197	19.3
403.404	19.06
403.611	19.42
403.818	19.47
404.025	19.58
404.232	19.66
404.439	19.81
404.646	19.99
404.853	19.88
405.06	19.8
405.267	20.05
405.474	19.74
405.681	19.64
405.887	19.73
406.094	19.62
406.301	19.49
406.508	19.41
406.715	19.38
406.922	18.7
407.128	18.69
407.335	18.57
407.542	18.78
407.749	18.95
407.955	19.01
408.162	18.76
408.369	18.35
408.575	18.58
408.782	18.55
408.989	18.35
409.195	18.44
409.402	18.4
409.609	18.2
409.815	17.95
410.022	17.85
410.228	17.89
410.435	18
410.642	18.61
410.848	18.51
411.055	18.56
411.261	18.92
411.468	18.97
411.674	19.34
411.881	19.09
412.087	19.01
412.294	18.91
412.5	18.64
412.706	18.61
412.913	18.71
413.119	18.38
413.326	18.3
413.532	18.32
413.738	18.25
413.945	17.67
414.151	18.06
414.357	18.39
414.564	18.64
414.77	18.9
414.976	19.02
415.182	18.49
415.389	18.63
415.595	18.5
415.801	18.11
416.007	18.16
416.214	18.39
416.42	18.11
416.626	17.81
416.832	17.65
417.038	17.59
417.244	17.32
417.45	17.45
417.657	17.49
417.863	17.5
418.069	17.67
418.275	17.61
418.481	17.82
418.687	17.93
418.893	17.83
419.099	17.9
419.305	17.86
419.511	17.94
419.717	18.03
419.923	18.02
420.129	17.91
420.335	17.89
420.541	17.86
420.746	17.62
420.952	17.55
421.158	17.46
421.364	17.36
421.57	17.39
421.776	17.3
421.982	17.16
422.187	17.1
422.393	17.12
422.599	16.96
422.805	16.98
423.01	17.01
423.216	16.89
423.422	17.01
423.628	16.99
423.833	17.01
424.039	17.04
424.245	17.07
424.45	16.99
424.656	16.93
424.862	16.98
425.067	17
425.273	16.94
425.478	17.14
425.684	17.07
425.889	17.03
426.095	16.93
426.301	17.09
426.506	17.02
426.712	17.09
426.917	17.22
427.123	17.16
427.328	16.92
427.533	16.93
427.739	16.79
427.944	16.96
428.15	17.27
428.355	17.13
428.561	16.92
428.766	16.95
428.971	16.74
429.177	16.79
429.382	16.86
429.587	16.8
429.793	16.82
429.998	16.8
430.203	16.65
430.408	16.39
430.614	16.57
430.819	16.54
431.024	16.24
431.229	16.43
431.434	16.54
431.64	16.27
431.845	16.48
432.05	16.48
432.255	16.45
432.46	16.56
432.665	16.68
432.87	16.53
433.076	16.65
433.281	17.01
433.486	17.12
433.691	16.95
433.896	17.18
434.101	17.26
434.306	17.25
434.511	17.31
434.716	17.1
434.921	17.03
435.126	17.17
435.331	16.97
435.535	16.56
435.74	16.53
435.945	16.37
436.15	16.3
436.355	16.38
436.56	16.33
436.765	16.25
436.97	16.66
437.174	16.51
437.379	16.32
437.584	16.53
437.789	16.67
437.993	16.45
438.198	16.56
438.403	16.63
438.608	16.5
438.812	16.51
439.017	16.34
439.222	16.18
439.426	16.13
439.631	16.31
439.836	16.38
440.04	16.45
440.245	16.61
440.45	16.59
440.654	16.63
440.859	16.66
441.063	16.62
441.268	16.78
441.472	16.55
441.677	16.62
441.881	16.56
442.086	16.2
442.29	16.26
442.495	16.16
442.699	16.18
442.904	16.15
443.108	16.13
443.312	16
443.517	16.02
443.721	16.19
443.925	16.3
444.13	16.38
444.334	16.72
444.538	16.51
444.743	16.46
444.947	16.5
445.151	16.41
445.356	16.3
445.56	16.46
445.764	16.45
445.968	16.39
446.173	16.37
446.377	16.23
446.581	16.02
446.785	16.04
446.989	16.07
447.193	15.99
447.398	16.07
447.602	16.04
447.806	15.9
448.01	15.85
448.214	15.91
448.418	15.82
448.622	15.75
448.826	15.69
449.03	15.7
449.234	15.54
449.438	15.55
449.642	15.44
449.846	15.64
450.05	15.68
450.254	15.59
450.458	15.45
450.662	15.51
450.866	15.61
451.069	15.55
451.273	15.54
451.477	15.73
451.681	15.77
451.885	15.73
452.089	15.55
452.292	15.69
452.496	15.59
452.7	15.63
452.904	15.64
453.107	15.66
453.311	15.71
453.515	15.73
453.719	15.59
453.922	15.51
454.126	15.54
454.33	15.53
454.533	15.39
454.737	15.54
454.94	15.64
455.144	15.53
455.348	15.54
455.551	15.79
455.755	15.74
455.958	15.84
456.162	16
456.365	15.91
456.569	16.06
456.772	16.1
456.976	15.89
457.179	15.92
457.383	16.02
457.586	16.12
457.79	16
457.993	16.07
458.196	15.97
458.4	15.76
458.603	15.77
458.807	15.71
459.01	15.68
459.213	15.88
459.417	15.9
459.62	15.74
459.823	15.63
460.026	15.58
460.23	15.53
460.433	15.55
460.636	15.58
460.839	15.65
461.042	15.61
461.246	15.68
461.449	15.59
461.652	15.54
461.855	15.68
462.058	15.76
462.261	15.9
462.464	16.08
462.668	16.01
462.871	16.15
463.074	16.2
463.277	16.2
463.48	16.09
463.683	16.17
463.886	16.13
464.089	16.12
464.292	16.02
464.495	16.01
464.698	15.91
464.901	15.89
465.104	15.88
465.306	15.91
465.509	15.89
465.712	16.08
465.915	16.08
466.118	16.02
466.321	16.01
466.524	15.92
466.726	16.06
466.929	15.94
467.132	16.1
467.335	16.11
467.538	16.02
467.74	16.13
467.943	16.16
468.146	16.16
468.348	16.27
468.551	16.23
468.754	16.34
468.956	16.09
469.159	16.31
469.362	16.49
469.564	16.33
469.767	16.32
469.969	16.36
470.172	16.25
470.375	16.2
470.577	16.09
470.78	16.33
470.982	16.52
471.185	16.72
471.387	16.57
471.59	16.25
471.792	16.4
471.995	16.28
472.197	16.24
472.399	16.14
472.602	16.31
472.804	16.4
473.007	16.22
473.209	16.05
473.411	15.94
473.614	16.13
473.816	16.25
474.018	16.21
474.22	16.48
474.423	16.52
474.625	16.64
474.827	16.54
475.03	16.62
475.232	16.64
475.434	16.61
475.636	16.77
475.838	16.68
476.04	16.77
476.243	16.89
476.445	16.8
476.647	16.72
476.849	16.77
477.051	16.78
477.253	16.75
477.455	16.89
477.657	16.97
477.859	16.76
478.061	16.77
478.263	16.69
478.465	16.52
478.667	16.51
478.869	16.69
479.071	16.6
479.273	16.51
479.475	16.36
479.677	16.35
479.879	16.44
480.081	16.68
480.283	16.62
480.485	16.65
480.686	16.57
480.888	16.55
481.09	16.39
481.292	16.46
481.494	16.54
481.695	16.63
481.897	16.44
482.099	16.36
482.301	16.24
482.502	16.29
482.704	16.29
482.906	16.39
483.107	16.41
483.309	16.37
483.511	16.37
483.712	16.33
483.914	16.29
484.115	16.33
484.317	16.32
484.519	16.24
484.72	16.23
484.922	16.2
485.123	16.17
485.325	16.12
485.526	16.15
485.728	16.14
485.929	16.17
486.131	16.2
486.332	16.24
486.534	16.29
486.735	16.43
486.936	16.46
487.138	16.51
487.339	16.56
487.541	16.6
487.742	16.57
487.943	16.49
488.144	16.46
488.346	16.5
488.547	16.48
488.748	16.51
488.95	16.49
489.151	16.39
489.352	16.33
489.553	16.33
489.755	16.35
489.956	16.34
490.157	16.41
490.358	16.53
490.559	16.47
490.76	16.5
490.961	16.44
491.163	16.46
491.364	16.55
491.565	16.59
491.766	16.48
491.967	16.5
492.168	16.57
492.369	16.58
492.57	16.52
492.771	16.59
492.972	16.57
493.173	16.51
493.374	16.46
493.575	16.47
493.776	16.49
493.976	16.61
494.177	16.54
494.378	16.56
494.579	16.61
494.78	16.81
494.981	16.81
495.182	16.82
495.382	16.93
495.583	16.94
495.784	17.04
495.985	17.16
496.185	17.19
496.386	17.2
496.587	17.25
496.788	17.19
496.988	17.21
497.189	17.21
497.39	17.27
497.59	17.27
497.791	17.46
497.992	17.32
498.192	17.37
498.393	17.45
498.593	17.45
498.794	17.45
498.994	17.59
499.195	17.35
499.395	17.31
499.596	17.42
499.796	17.35
499.997	17.35
500.197	17.64
500.398	17.67
500.598	17.56
500.799	17.64
500.999	17.73
501.199	17.75
501.4	17.87
501.6	17.93
501.801	17.86
502.001	18.16
502.201	18.13
502.402	18.15
502.602	18.27
502.802	18.36
503.002	18.44
503.203	18.37
503.403	18.4
503.603	18.46
503.803	18.65
504.003	18.84
504.204	18.98
504.404	19.22
504.604	19.02
504.804	18.95
505.004	19.08
505.204	19.15
505.404	19.26
505.604	19.17
505.804	19.32
506.005	19.33
506.205	19.26
506.405	19.19
506.605	19.06
506.805	19.26
507.005	19.32
507.204	19.38
507.404	19.49
507.604	19.52
507.804	19.78
508.004	19.85
508.204	20
508.404	20.03
508.604	20.22
508.804	20.18
509.003	20.23
509.203	20.11
509.403	20.24
509.603	20.29
509.803	20.37
510.002	20.41
510.202	20.5
510.402	20.5
510.602	20.71
510.801	20.75
511.001	20.98
511.201	21.15
511.4	21.39
511.6	21.35
511.8	21.3
511.999	21.35
512.199	21.36
512.398	21.39
512.598	21.44
512.797	21.42
512.997	21.48
513.197	21.55
513.396	21.48
513.596	21.53
513.795	21.5
513.994	21.45
514.194	21.48
514.393	21.44
514.593	21.53
514.792	21.66
514.992	21.68
515.191	21.73
515.39	21.64
515.59	21.87
515.789	22.09
515.988	22.28
516.188	22.56
516.387	22.69
516.586	22.74
516.786	22.9
516.985	22.93
517.184	22.96
517.383	23.05
517.582	23.2
517.782	23.26
517.981	23.29
518.18	23.34
518.379	23.39
518.578	23.42
518.777	23.6
518.976	23.58
519.176	23.61
519.375	23.74
519.574	23.79
519.773	23.75
519.972	23.73
520.171	23.73
520.37	23.8
520.569	23.83
520.768	23.97
520.967	23.93
521.166	23.96
521.365	24.03
521.564	23.85
521.762	23.98
521.961	24.01
522.16	24.07
522.359	24.05
522.558	24.01
522.757	24.1
522.956	24.09
523.154	24.31
523.353	24.43
523.552	24.37
523.751	24.61
523.949	24.48
524.148	24.62
524.347	24.56
524.546	24.69
524.744	24.81
524.943	24.9
525.142	24.97
525.34	25.01
525.539	25.08
525.737	25.19
525.936	25.27
526.135	25.36
526.333	25.44
526.532	25.56
526.73	25.48
526.929	25.57
527.127	25.61
527.326	25.51
527.524	25.41
527.723	25.46
527.921	25.48
528.12	25.39
528.318	25.42
528.516	25.35
528.715	25.34
528.913	25.39
529.112	25.33
529.31	25.32
529.508	25.42
529.707	25.5
529.905	25.47
530.103	25.48
530.301	25.55
530.5	25.55
530.698	25.68
530.896	25.68
531.094	25.77
531.293	25.9
531.491	25.94
531.689	25.92
531.887	25.97
532.085	25.93
532.283	26.02
532.481	26.08
532.68	26.05
532.878	26.06
533.076	26.12
533.274	26.01
533.472	26.02
533.67	26.11
533.868	26.12
534.066	26.09
534.264	26.17
534.462	26.13
534.66	26.19
534.858	26.25
535.056	26.23
535.253	26.28
535.451	26.43
535.649	26.55
535.847	26.44
536.045	26.57
536.243	26.58
536.441	26.55
536.638	26.67
536.836	26.78
537.034	26.88
537.232	26.88
537.43	27.05
537.627	27.11
537.825	26.95
538.023	27.1
538.22	27.1
538.418	27.25
538.616	27.3
538.813	27.12
539.011	27.1
539.209	27.05
539.406	27.06
539.604	26.96
539.801	26.92
539.999	27.03
540.196	26.99
540.394	26.93
540.591	27.03
540.789	27.11
540.986	27.2
541.184	27.17
541.381	27.26
541.579	27.4
541.776	27.46
541.974	27.55
542.171	27.62
542.368	27.67
542.566	27.79
542.763	27.83
542.96	27.9
543.158	28.05
543.355	28.15
543.552	28.29
543.75	28.32
543.947	28.41
544.144	28.48
544.341	28.55
544.539	28.7
544.736	28.79
544.933	28.85
545.13	28.86
545.327	28.84
545.524	28.85
545.722	28.83
545.919	28.87
546.116	28.8
546.313	28.73
546.51	28.73
546.707	28.73
546.904	28.57
547.101	28.52
547.298	28.58
547.495	28.48
547.692	28.58
547.889	28.5
548.086	28.5
548.283	28.65
548.48	28.75
548.677	28.7
548.874	28.69
549.07	28.81
549.267	28.7
549.464	28.62
549.661	28.78
549.858	28.51
550.055	28.45
550.251	28.41
550.448	28.27
550.645	28.27
550.842	28.25
551.038	28.08
551.235	28.42
551.432	28.66
551.628	28.81
551.825	28.78
552.022	28.88
552.218	28.84
552.415	28.89
552.612	29.03
552.808	28.99
553.005	29.2
553.201	29.55
553.398	29.28
553.594	29.33
553.791	29.31
553.987	29.32
554.184	29.31
554.38	29.62
554.577	29.54
554.773	29.44
554.97	29.42
555.166	29.29
555.362	28.92
555.559	28.84
555.755	28.69
555.952	28.52
556.148	28.6
556.344	28.73
556.541	28.48
556.737	28.44
556.933	28.41
557.129	28.68
557.326	28.75
557.522	28.82
557.718	28.94
557.914	28.91
558.11	29.12
558.307	28.95
558.503	29.06
558.699	29.07
558.895	29.2
559.091	29.33
559.287	29.2
559.483	29.28
559.679	29.45
559.876	29.31
560.072	29.32
560.268	29.23
560.464	29.33
560.66	29.14
560.856	29.29
561.052	29.33
561.247	29.23
561.443	29.2
561.639	29.05
561.835	29.03
562.031	29.31
562.227	29.43
562.423	29.35
562.619	29.39
562.815	29.56
563.01	29.41
563.206	29.46
563.402	29.39
563.598	29.5
563.793	29.6
563.989	29.6
564.185	29.46
564.381	29.22
564.576	29.13
564.772	29.24
564.968	29.31
565.163	29.49
565.359	29.47
565.555	29.55
565.75	29.52
565.946	29.66
566.141	29.75
566.337	29.8
566.532	30.07
566.728	30.17
566.923	30.19
567.119	30.08
567.314	30.06
567.51	29.96
567.705	30.07
567.901	29.94
568.096	29.84
568.292	29.77
568.487	29.62
568.682	29.69
568.878	29.78
569.073	29.76
569.268	30.02
569.464	30
569.659	30.12
569.854	30.02
570.05	30.13
570.245	30.12
570.44	30.04
570.635	30.26
570.831	30.13
571.026	30.12
571.221	30.14
571.416	30.15
571.611	30.07
571.806	30.06
572.002	30.21
572.197	30.44
572.392	30.56
572.587	30.6
572.782	30.66
572.977	30.77
573.172	30.85
573.367	30.84
573.562	30.71
573.757	30.89
573.952	30.89
574.147	30.75
574.342	30.58
574.537	30.49
574.732	30.59
574.927	30.7
575.121	30.66
575.316	30.78
575.511	30.6
575.706	30.57
575.901	30.49
576.096	30.78
576.29	30.85
576.485	30.75
576.68	30.83
576.875	30.86
577.069	30.84
577.264	30.95
577.459	30.83
577.654	31.07
577.848	31.16
578.043	31.41
578.238	31.35
578.432	31.56
578.627	31.64
578.821	31.47
579.016	31.4
579.21	31.32
579.405	31.12
579.6	31.27
579.794	31.3
579.989	31.5
580.183	31.31
580.378	30.99
580.572	30.93
580.766	30.74
580.961	30.91
581.155	30.89
581.35	30.78
581.544	30.95
581.738	30.9
581.933	30.94
582.127	31.01
582.321	30.99
582.516	31.27
582.71	31.23
582.904	31.48
583.099	31.77
583.293	32.06
583.487	32.09
583.681	31.98
583.875	31.8
584.07	31.87
584.264	31.67
584.458	31.89
584.652	31.74
584.846	31.94
585.04	32.13
585.234	32.09
585.428	31.9
585.623	31.75
585.817	31.79
586.011	32.06
586.205	31.97
586.399	32.05
586.593	31.9
586.787	31.87
586.981	31.62
587.174	31.58
587.368	31.36
587.562	31.67
587.756	31.84
587.95	32.16
588.144	32.14
588.338	32.2
588.532	32.02
588.725	32.18
588.919	32.19
589.113	32.2
589.307	32.2
589.501	32.43
589.694	32.21
589.888	32.31
590.082	32.29
590.275	32.2
590.469	32.1
590.663	32.07
590.856	31.95
591.05	32.13
591.244	32.21
591.437	32.63
591.631	32.67
591.824	32.77
592.018	32.89
592.212	32.73
592.405	32.77
592.599	32.62
592.792	32.76
592.986	32.84
593.179	32.72
593.372	32.94
593.566	32.72
593.759	32.44
593.953	32.47
594.146	32.48
594.339	32.76
594.533	32.8
594.726	33.18
594.92	32.94
595.113	32.67
595.306	32.59
595.499	32.59
595.693	32.58
595.886	32.69
596.079	32.76
596.272	32.68
596.466	32.71
596.659	32.72
596.852	32.58
597.045	32.91
597.238	33.27
597.431	33.55
597.624	33.42
597.818	33.3
598.011	33.27
598.204	33.15
598.397	33.32
598.59	33.13
598.783	33.18
598.976	33.24
599.169	33.13
599.362	33.15
599.555	32.98
599.748	33.12
599.941	33.2
600.134	33.46
600.326	33.51
600.519	33.27
600.712	33.25
600.905	33.26
601.098	33.4
601.291	33.5
601.483	33.41
601.676	33.45
601.869	33.28
602.062	33.43
602.255	33.28
602.447	33.31
602.64	33.32
602.833	33.39
603.025	33.25
603.218	33.31
603.411	33.38
603.603	33.31
603.796	33.27
603.989	33.3
604.181	33.25
604.374	33.23
604.566	33.29
604.759	33.34
604.951	33.25
605.144	33.29
605.336	33.47
605.529	33.4
605.721	33.37
605.914	33.36
606.106	33.48
606.299	33.58
606.491	33.71
606.683	33.7
606.876	33.8
607.068	33.94
607.26	34.03
607.453	33.75
607.645	33.68
607.837	34.1
608.03	34.23
608.222	34.1
608.414	33.96
608.606	33.85
608.799	33.97
608.991	34.19
609.183	34.53
609.375	34.74
609.567	34.93
609.759	35.26
609.952	35.16
610.144	35.41
610.336	36.02
610.528	36.3
610.72	36.58
610.912	36.81
611.104	36.76
611.296	36.53
611.488	36.57
611.68	36.66
611.872	36.7
612.064	36.73
612.256	36.72
612.448	36.38
612.64	36.45
612.832	36.49
613.023	36.38
613.215	36.23
613.407	36.51
613.599	36.36
613.791	36.1
613.983	36.24
614.174	35.86
614.366	35.55
614.558	35.28
614.75	35.22
614.941	35.15
615.133	35.12
615.325	35.16
615.516	35.13
615.708	35.26
615.9	35.33
616.091	34.84
616.283	35.34
616.475	35.47
616.666	35.63
616.858	35.56
617.049	35.3
617.241	34.75
617.432	35.28
617.624	34.91
617.815	34.78
618.007	34.75
618.198	34.78
618.39	34.4
618.581	34.18
618.773	33.96
618.964	33.45
619.155	33.79
619.347	33.94
619.538	33.39
619.729	33.46
619.921	33.4
620.112	33.22
620.303	33.2
620.494	33.21
620.686	33.24
620.877	33.41
621.068	33.58
621.259	33.15
621.451	33.24
621.642	33.27
621.833	33.25
622.024	33.16
622.215	33.23
622.406	33.4
622.597	33.59
622.788	33.94
622.98	33.89
623.171	34.1
623.362	34.36
623.553	34.25
623.744	34.06
623.935	33.94
624.126	34.18
624.317	34.17
624.508	34.09
624.698	33.86
624.889	33.91
625.08	34.05
625.271	33.7
625.462	33.52
625.653	33.72
625.844	34
626.034	34.13
626.225	34.06
626.416	34.23
626.607	34.06
626.798	33.99
626.988	33.82
627.179	33.74
627.37	33.84
627.56	34.03
627.751	33.73
627.942	33.98
628.132	34.07
628.323	34.16
628.514	34
628.704	34.14
628.895	34.37
629.085	34.53
629.276	34.56
629.466	35.04
629.657	34.95
629.847	35.32
630.038	35.12
630.228	35.04
630.419	35
630.609	35.15
630.8	34.96
630.99	35
631.181	34.87
631.371	34.83
631.561	34.44
631.752	34.48
631.942	34.7
632.132	34.32
632.323	34.49
632.513	34.14
632.703	34.02
632.893	33.98
633.084	33.96
633.274	33.9
633.464	33.72
633.654	33.57
633.844	33.57
634.034	33.1
634.225	33.29
634.415	33.08
634.605	33.17
634.795	33.27
634.985	33.43
635.175	33.54
635.365	33.65
635.555	33.52
635.745	33.61
635.935	33.44
636.125	33.45
636.315	33.31
636.505	33.42
636.695	33.53
636.885	33.01
637.075	33.19
637.265	33.15
637.455	33.07
637.644	33.09
637.834	33.17
638.024	33.43
638.214	33.57
638.404	33.66
638.593	33.53
638.783	33.59
638.973	33.88
639.163	33.89
639.352	33.91
639.542	33.96
639.732	34.21
639.921	34.05
640.111	33.96
640.301	34.04
640.49	34.29
640.68	34.26
640.87	34.18
641.059	34.4
641.249	34.06
641.438	33.96
641.628	34.21
641.817	34.14
642.007	34.39
642.196	34.14
642.386	34.29
642.575	33.84
642.764	34.09
642.954	33.97
643.143	33.65
643.333	33.78
643.522	33.69
643.711	33.26
643.901	33.54
644.09	33.81
644.279	34
644.469	34.01
644.658	34.32
644.847	34.12
645.036	33.96
645.226	34.66
645.415	34.72
645.604	34.17
645.793	34.33
645.982	34.54
646.171	34.26
646.361	33.98
646.55	33.48
646.739	33.53
646.928	33.57
647.117	33.87
647.306	33.82
647.495	34.15
647.684	34.86
647.873	35.14
648.062	34.68
648.251	34.82
648.44	34.88
648.629	35.54
648.818	35.51
649.007	35.46
649.196	35.6
649.384	35.06
649.573	35.02
649.762	35.06
649.951	34.85
650.14	34.86
650.328	34.58
650.517	34.41
650.706	34.18
650.895	34.12
651.083	34.28
651.272	34.49
651.461	34.84
651.65	34.79
651.838	34.99
652.027	34.78
652.216	35.05
652.404	35.45
652.593	35.67
652.781	35.88
652.97	35.81
653.158	36.14
653.347	35.62
653.535	35.98
653.724	35.89
653.912	35.5
654.101	35.81
654.289	35.85
654.478	35.25
654.666	35.55
654.855	35.19
655.043	35.21
655.231	34.51
655.42	34.65
655.608	33.79
655.796	34.11
655.985	34.26
656.173	33.62
656.361	33.5
656.55	33.81
656.738	33.85
656.926	34.14
657.114	34.14
657.302	34.35
657.491	34.41
657.679	34.37
657.867	33.85
658.055	33.72
658.243	33.81
658.431	33.75
658.619	33.65
658.807	33.7
658.996	33.28
659.184	33.5
659.372	33.75
659.56	33.9
659.748	34.28
659.936	34.56
660.124	34.53
660.311	34.57
660.499	34.72
660.687	35.1
660.875	34.76
661.063	35.05
661.251	34.98
661.439	35.18
661.627	35.19
661.814	34.95
662.002	34.45
662.19	34.26
662.378	34.25
662.565	33.83
662.753	33.43
662.941	33.5
663.129	33.39
663.316	33.03
663.504	32.47
663.692	32.35
663.879	32.33
664.067	32.8
664.254	33.23
664.442	33.53
664.63	33.6
664.817	33.48
665.005	33.79
665.192	34.03
665.38	34.58
665.567	34.43
665.755	34.48
665.942	34.84
666.13	34.95
666.317	35.03
666.504	34.94
666.692	35.09
666.879	35.41
667.067	35.53
667.254	35.04
667.441	34.73
667.629	34.97
667.816	34.97
668.003	35.08
668.19	35.09
668.378	35.16
668.565	35.35
668.752	35.79
668.939	35.91
669.127	35.74
669.314	36.32
669.501	36.53
669.688	36.64
669.875	36.74
670.062	36.22
670.249	36.14
670.436	35.62
670.623	35.6
670.81	35.58
670.997	35.19
671.184	35.54
671.371	35.09
671.558	34.55
671.745	34.61
671.932	34.51
672.119	34.87
672.306	34.97
672.493	35.2
672.68	35.14
672.867	34.52
673.054	34.31
673.24	33.96
673.427	33.85
673.614	34.1
673.801	33.96
673.988	34.13
674.174	33.91
674.361	33.74
674.548	34.09
674.734	34.27
674.921	34.35
675.108	34.37
675.294	34.04
675.481	34.05
675.668	34.24
675.854	34.07
676.041	33.47
676.227	33.68
676.414	33.66
676.601	33.63
676.787	33.28
676.974	33.31
677.16	33.93
677.347	34.31
677.533	34.73
677.719	34.63
677.906	35.14
678.092	35.52
678.279	35.39
678.465	35.39
678.651	34.79
678.838	35.2
679.024	35.24
679.21	35.19
679.397	35
679.583	34.79
679.769	34.76
679.955	34.62
680.142	34.92
680.328	35.2
680.514	35.13
680.7	35.38
680.886	35.43
681.073	35.47
681.259	35.3
681.445	35.5
681.631	35.71
681.817	36.21
682.003	36
682.189	35.59
682.375	35.61
682.561	35.59
682.747	35.65
682.933	35.5
683.119	35.54
683.305	35.61
683.491	35.4
683.677	35.06
683.863	34.33
684.049	34.7
684.235	34.54
684.42	33.78
684.606	33.78
684.792	33.83
684.978	33.34
685.164	33.18
685.349	32.61
685.535	32.93
685.721	33.53
685.907	33.67
686.092	33.68
686.278	34.13
686.464	34.24
686.649	34.07
686.835	33.94
687.021	34.04
687.206	33.69
687.392	34.19
687.577	33.79
687.763	33.41
687.948	33.45
688.134	32.85
688.319	32.81
688.505	33.5
688.69	33.63
688.876	33.85
689.061	34.12
689.247	34.52
689.432	34.2
689.618	34.43
689.803	34.64
689.988	34.57
690.174	34.98
690.359	34.66
690.544	34.13
690.73	34.36
690.915	34.31
691.1	34.37
691.285	34.32
691.471	34.37
691.656	34.47
691.841	34.4
692.026	34.31
692.211	33.66
692.396	33.96
692.582	34.44
692.767	34.37
692.952	34.3
693.137	34.39
693.322	34.58
693.507	34.31
693.692	34.21
693.877	33.95
694.062	34.57
694.247	34.77
694.432	34.68
694.617	33.97
694.802	34.52
694.987	34.95
695.172	34.83
695.357	34.67
695.541	35.49
695.726	35.22
695.911	36.23
696.096	35.87
696.281	36
696.466	35.81
696.65	36.22
696.835	35.4
697.02	34.84
697.204	34.81
697.389	35.04
697.574	35.23
697.759	35.5
697.943	35.01
698.128	35.42
698.312	35.63
698.497	35.27
698.682	35.23
698.866	35.85
699.051	35.94
699.235	35.69
699.42	35.89
699.604	35.39
699.789	35.35
699.973	35.2
700.158	34.81
700.342	34.92
700.527	35.47
700.711	35.57
700.895	35.25
701.08	34.62
701.264	35.1
701.448	34.87
701.633	34.67
701.817	34.29
702.001	34.16
702.186	34.29
702.37	34.12
702.554	33.81
702.738	34.06
702.923	33.37
703.107	34.23
703.291	33.64
703.475	34.21
703.659	34.3
703.843	34.55
704.027	34.36
704.212	34.29
704.396	34.08
704.58	33.88
704.764	33.51
704.948	33.14
705.132	33.39
705.316	33.87
705.5	33.05
705.684	33.52
705.868	33.45
706.052	33.57
706.235	33.67
706.419	34.1
706.603	34.32
706.787	34.11
706.971	35.55
707.155	35.69
707.339	35.53
707.522	35.53
707.706	35.39
707.89	35.47
708.074	36
708.257	35.82
708.441	35.59
708.625	35.42
708.808	35.91
708.992	35.3
709.176	35.01
709.359	35.72
709.543	36.25
709.727	36.65
709.91	36.87
710.094	36.8
710.277	36.64
710.461	36.65
710.644	37.32
710.828	36.61
711.011	36.92
711.195	37.09
711.378	36.48
711.562	36.36
711.745	36.16
711.928	35.69
712.112	35.63
712.295	36.09
712.478	35.79
712.662	35.59
712.845	35.77
713.028	35.02
713.212	35.18
713.395	35.19
713.578	34.72
713.761	34.77
713.945	35.45
714.128	35.16
714.311	34.66
714.494	35.11
714.677	34.71
714.86	34.75
715.043	35.39
715.227	34.64
715.41	34.81
715.593	35.38
715.776	35.02
715.959	34.73
716.142	35.17
716.325	35.06
716.508	34.38
716.691	34.6
716.874	34.34
717.057	33.45
717.239	33.08
717.422	33.29
717.605	32.99
717.788	33.68
717.971	33.64
718.154	32.81
718.337	32.55
718.519	32.44
718.702	32.38
718.885	32.37
719.068	32.6
719.25	33.57
719.433	32.61
719.616	31.84
719.798	32.13
719.981	32.87
720.164	33.08
720.346	33.31
720.529	34.2
720.712	35.14
720.894	34.97
721.077	35.87
721.259	36.13
721.442	35.37
721.624	35.86
721.807	34.96
721.989	33.76
722.172	34.96
722.354	35.39
722.537	34.67
722.719	33.37
722.901	35.22
723.084	35.65
723.266	35.69
723.448	36.41
723.631	36.63
723.813	36.6
723.995	36.75
724.178	35.22
724.36	34.92
724.542	34.98
724.724	35.44
724.907	34.95
725.089	34.6
725.271	34.47
725.453	34.31
725.635	34.05
725.817	34.19
725.999	34.98
726.181	35.73
726.364	36.68
726.546	37.42
726.728	36.86
726.91	36.89
727.092	36.7
727.274	36.11
727.456	36.23
727.638	37.01
727.819	36.79
728.001	35.54
728.183	35.59
728.365	35.03
728.547	34.48
728.729	34.76
728.911	34.52
729.093	34.98
729.274	35.55
729.456	35.73
729.638	35.36
729.82	36.93
730.001	37.7
730.183	38.15
730.365	38.36
730.546	38.8
730.728	39.05
730.91	38.58
731.091	37.68
731.273	36.63
731.455	37.03
731.636	36.73
731.818	35.84
731.999	35.68
732.181	34.91
732.362	34.89
732.544	34.34
732.725	34.4
732.907	35.26
733.088	35.21
733.27	37.03
733.451	36.56
733.633	36.64
733.814	36.19
733.995	35.86
734.177	36.78
734.358	36.08
734.539	36.53
734.721	36.76
734.902	36.11
735.083	36.11
735.264	35.81
735.446	35.82
735.627	35.66
735.808	35.32
735.989	35.32
736.17	34.2
736.351	36.09
736.533	35.76
736.714	35.36
736.895	35.4
737.076	35.51
737.257	34.67
737.438	33.93
737.619	34.6
737.8	34.22
737.981	36.23
738.162	36.4
738.343	34.25
738.524	34.12
738.705	34.2
738.886	34.1
739.067	34.15
739.247	34.55
739.428	35.97
739.609	34.58
739.79	34.99
739.971	33.42
740.151	32.28
740.332	33.15
740.513	33.86
740.694	33.03
740.874	32.72
741.055	32.65
741.236	31.93
741.417	31.24
741.597	31.25
741.778	30.07
741.958	29.71
742.139	32.1
742.32	31.69
742.5	31.45
742.681	31.57
742.861	32.15
743.042	31.59
743.222	30.44
743.403	30.8
743.583	31.28
743.764	32.22
743.944	32.25
744.124	31.62
744.305	32.7
744.485	32.28
744.666	32.9
744.846	32.37
745.026	32.25
745.207	32.82
745.387	33.3
745.567	33.59
745.747	33.4
745.928	33.52
746.108	32.24
746.288	31.68
746.468	31.23
746.648	31.58
746.829	31.98
747.009	32.66
747.189	33.12
747.369	32.8
747.549	33.2
747.729	33.63
747.909	35.25
748.089	36.68
748.269	35.68
748.449	35.16
748.629	34.91
748.809	33.53
748.989	33.22
749.169	32.29
749.349	31.87
749.529	31.93
749.709	31.59
749.889	30.81
750.068	30.41
750.248	29.64
750.428	30.15
750.608	29.33
750.788	30.22
750.967	30.31
751.147	31.28
751.327	31.75
751.507	31.19
751.686	32.6
751.866	31.08
752.046	30.93
752.225	32.18
752.405	33.45
752.585	32.82
752.764	33.43
752.944	32.41
753.123	33.74
753.303	34.17
753.482	34
753.662	32.99
753.841	33.45
754.021	32.87
754.2	34.55
754.38	35.41
754.559	37.82
754.739	38.04
754.918	39.68
755.097	39.03
755.277	38.95
755.456	40.04
755.635	41.18
755.815	41.78
755.994	42.45
756.173	40.96
756.352	38.98
756.532	37.71
756.711	36.52
756.89	36.52
757.069	35.8
757.248	35.76
757.427	34.96
757.607	33.96
757.786	33.76
757.965	32.47
758.144	33.36
758.323	34.49
758.502	34.81
758.681	35.23
758.86	35.22
759.039	35.41
759.218	34.94
759.397	33.64
759.576	33.66
759.755	34.08
759.934	35.34
760.113	33.87
760.291	34.94
760.47	35.33
760.649	34.66
760.828	33.35
761.007	33.41
761.186	33.95
761.364	35.16
761.543	34.36
761.722	34.14
761.901	34.12
762.079	33.87
762.258	32.25
762.437	32.28
762.615	33.57
762.794	34.1
762.972	33.88
763.151	33.8
763.33	33.24
763.508	34.19
763.687	34.82
763.865	33.62
764.044	34.8
764.222	35.23
764.401	34.92
764.579	35.02
764.758	35.52
764.936	36.66
765.114	36.07
765.293	36.73
765.471	35.76
765.65	35.09
765.828	36.13
766.006	35.74
766.184	35.78
766.363	35.38
766.541	34.13
766.719	34.32
766.898	33.69
767.076	34.21
767.254	34.8
767.432	35.75
767.61	35.92
767.788	37.01
767.967	37.08
768.145	37.8
768.323	37.8
768.501	38.71
768.679	38
768.857	37.46
769.035	37.39
769.213	36.66
769.391	36.62
769.569	35.78
769.747	35.64
769.925	36.19
770.103	35.55
770.281	34.59
770.459	34.15
770.636	34.74
770.814	34.17
770.992	34.68
771.17	34.72
771.348	34.46
771.525	33.78
771.703	32.24
771.881	32.28
772.059	33.06
772.236	36
772.414	38.27
772.592	38.87
772.769	39.89
772.947	40.46
773.125	40.75
773.302	40.88
773.48	44.29
773.657	45.44
773.835	44.2
774.013	41.44
774.19	42.11
774.368	39.86
774.545	39.52
774.723	40.22
774.9	40.69
775.077	40.59
775.255	40.64
775.432	38.96
775.61	38.2
775.787	37.89
775.964	38.57
776.142	35.62
776.319	34.94
776.496	34.08
776.674	33.75
776.851	32.63
777.028	33.44
777.205	33.45
777.382	34.92
777.56	35.22
777.737	36.3
777.914	37.21
778.091	37.51
778.268	38.35
778.445	39.05
778.622	38.43
778.8	36.56
778.977	34.21
779.154	35.54
779.331	31.87
779.508	32.62
779.685	32
779.862	31.95
780.038	32.91
780.215	32.94
780.392	31.02
780.569	29.08
780.746	28.3
780.923	30.69
781.1	29.33
781.277	28.98
781.453	28.6
781.63	26.51
781.807	25.25
781.984	24.25
782.16	24.7
782.337	26.55
782.514	28.13
782.691	30.39
782.867	29.05
783.044	30.97
783.221	35.18
783.397	35.66
783.574	38.91
783.75	37.44
783.927	38.81
784.103	40.12
784.28	39.69
784.456	41.86
784.633	42.88
784.809	45.05
784.986	42.91
785.162	40.41
785.339	40.47
785.515	40.45
785.692	45.54
785.868	46.7
786.044	44.11
786.221	43.62
786.397	45.29
786.573	46.85
786.749	44.37
786.926	43.35
787.102	43.87
787.278	40.47
787.454	40.07
787.631	38.16
787.807	36.17
787.983	39.08
788.159	40.23
788.335	36.66
788.511	35.53
788.687	34.83
788.863	34.12
789.039	34.93
789.216	37.32
789.392	35.77
789.568	33.58
789.744	35.33
789.919	32.91
790.095	30.58
790.271	31.78
790.447	29.36
790.623	31.41
790.799	31.82
790.975	30.52
791.151	31.65
791.327	31.26
791.502	31.26
791.678	29.25
791.854	27.91
792.03	28.59
792.205	28.61
792.381	31.1
792.557	27.32
792.733	29.37
792.908	29.37
793.084	28.17
793.259	30.06
793.435	30.57
793.611	32.02
793.786	32.44
793.962	33.29
794.137	31.33
794.313	29.07
794.488	31.14
794.664	32.31
794.839	30.16
795.015	29.5
795.19	27.05
795.366	30.68
795.541	29.16
795.716	30.17
795.892	30.1
796.067	31.23
796.242	33.09
796.418	33.05
796.593	32.06
796.768	35.49
796.944	34.69
797.119	35.89
797.294	35.47
797.469	36.27
797.644	35.77
797.82	37.57
797.995	38.83
798.17	36.42
798.345	37.99
798.52	35
798.695	33.6
798.87	36.1
799.045	35.39
799.22	35.44
799.395	34.5
799.57	36.06
799.745	32.06
799.92	30.66
800.095	30.74
800.27	30.85
800.445	34.25
800.62	37.68
800.795	37.58
800.97	38.03
801.145	37.98
801.319	37.21
801.494	35.9
801.669	36.8
801.844	35.83
802.018	38.2
802.193	34.23
802.368	28.82
802.543	21.71
802.717	18.53
802.892	18.14
803.067	17.87
803.241	17.78
803.416	21.13
803.59	24.17
803.765	25.36
803.94	26.11
804.114	30.03
804.289	34.41
804.463	37.27
804.638	41.5
804.812	43.47
804.986	41.53
805.161	45.74
805.335	42.48
805.51	41.35
805.684	40.46
805.858	39.74
806.033	36.42
806.207	35.41
806.381	37.84
806.556	35.23
806.73	37.41
806.904	36.74
807.078	37.25
807.253	40.31
807.427	39.42
807.601	41.72
807.775	41.9
807.949	43.94
808.123	45.83
808.298	42.51
808.472	46.24
808.646	43.3
808.82	45.53
808.994	42.9
809.168	39
809.342	38.45
809.516	34.66
809.69	37.2
809.864	38.35
810.038	37.55
810.212	39.48
810.385	33.85
810.559	35.73
810.733	33.5
810.907	30.41
811.081	30.96
811.255	36.15
811.428	40.4
811.602	38.48
811.776	39.91
811.95	44.16
812.123	45.62
812.297	50.14
812.471	48.32
812.644	48.27
812.818	51.76
812.992	51.26
813.165	46.14
813.339	46.35
813.512	46.6
813.686	44.94
813.86	42.04
814.033	39.97
814.207	41.62
814.38	42.39
814.554	42.81
814.727	44.03
814.9	47.37
815.074	49.27
815.247	46.28
815.421	49.83
815.594	50.49
815.767	50.88
815.941	49.03
816.114	43.62
816.287	42.67
816.46	45.07
816.634	39.13
816.807	36.71
816.98	40.84
817.153	43.33
817.327	37.61
817.5	35.12
817.673	31.63
817.846	28.57
818.019	29.73
818.192	30.44
818.365	29.27
818.538	33.74
818.711	33.47
818.884	29.39
819.057	25.73
819.23	25.62
819.403	24.95
819.576	30.24
819.749	31.28
819.922	32.1
820.095	28.15
820.268	30.07
820.441	27.91
820.614	28.13
820.786	28.66
820.959	30.55
821.132	30.53
821.305	31.08
821.477	29.92
821.65	32.03
821.823	31.94
821.996	33.22
822.168	31.97
822.341	32.5
822.514	33.15
822.686	32.51
822.859	32.05
823.031	32.73
823.204	32.97
823.376	32.96
823.549	32.62
823.722	32.69
823.894	31.93
824.067	32.08
824.239	31.7
824.411	30.22
824.584	30.55
824.756	30.88
824.929	29.83
825.101	29.23
825.273	28.52
825.446	29.16
825.618	28.86
825.79	29.05
825.963	29.61
826.135	31.3
826.307	33
826.479	32.76
826.652	33.04
826.824	33.13
826.996	32.47
827.168	32.51
827.34	31.12
827.512	29.93
827.684	31.04
827.856	30.51
828.029	29.11
828.201	29
828.373	28.98
828.545	29.23
828.717	30.94
828.889	31.95
829.061	32.96
829.232	33.62
829.404	35.52
829.576	34.7
829.748	38.09
829.92	37.62
830.092	36.08
830.264	35.88
830.436	34.7
830.607	33.05
830.779	33.82
830.951	31.59
831.123	32.73
831.294	30.31
831.466	31.42
831.638	24.12
831.809	20.76
831.981	23.24
832.153	24.35
832.324	23.04
832.496	23.94
832.667	24.07
832.839	27.86
833.011	28.54
833.182	31.45
833.354	31.78
833.525	34.57
833.697	36.79
833.868	36.19
834.039	35.66
834.211	36.54
834.382	36.84
834.554	36.05
834.725	36.63
834.896	33.33
835.068	34.58
835.239	35
835.41	34.73
835.581	34.68
835.753	35.7
835.924	36.63
836.095	37.45
836.266	34.51
836.438	34.96
836.609	33.34
836.78	36.23
836.951	34.49
837.122	34.49
837.293	32.25
837.464	34.02
837.635	32.73
837.806	34.06
837.977	31.75
838.148	32.47
838.319	34.58
838.49	34.85
838.661	32.42
838.832	29.01
839.003	29.73
839.174	35.45
839.345	34.34
839.516	30.2
839.687	29.33
839.857	28.23
840.028	32.98
840.199	31.73
840.37	31.01
840.54	29.66
840.711	32.96
840.882	30.44
841.053	23.97
841.223	22.88
841.394	31.12
841.564	32.38
841.735	37.68
841.906	36.27
842.076	39.8
842.247	40.72
842.417	46.84
842.588	49
842.758	49.51
842.929	53.81
843.099	56.88
843.27	57.41
843.44	53.04
843.611	50.7
843.781	41.99
843.951	36.01
844.122	39.26
844.292	33.34
844.462	32.36
844.633	40.94
844.803	41.61
844.973	41.63
845.144	34.76
845.314	36.66
845.484	36.42
845.654	41.85
845.824	41.81
845.995	35.83
846.165	40.12
846.335	40.48
846.505	29.65
846.675	32.44
846.845	16.04
847.015	11.14
847.185	8.34
847.355	14.36
847.525	20.9
847.695	21.81
847.865	21.37
848.035	21.44
848.205	14.69
848.375	26.37
848.545	20.36
848.715	28.73
848.884	27.82
849.054	35.1
849.224	39.93
849.394	33.55
849.564	28.6
849.733	31.79
849.903	38.99
850.073	48.76
850.243	38.57
850.412	40.47
850.582	51.85
850.752	50.18
850.921	40.84
851.091	40.85
851.26	41.8
851.43	46.62
851.599	47.68
851.769	45.47
851.939	48.45
852.108	51.51
852.278	70.42
852.447	61.33
852.616	73.94
852.786	90.17
852.955	84
853.125	75.12
853.294	84.27
853.463	69.52
853.633	71.33
853.802	65.26
853.971	67.88
854.141	59.7
854.31	60.35
854.479	59.55
854.648	60.79
854.818	52.07
854.987	41.52
855.156	39.21
855.325	46.37
855.494	36.77
855.663	34.72
855.832	47.3
856.001	40.75
856.171	15.14
856.34	19.45
856.509	22.47
856.678	15.65
856.847	44.37
857.016	43.67
857.185	74.66
857.353	90.31
857.522	58
857.691	23.36
857.86	31.06
858.029	43.24
858.198	44.28
858.367	33.35
858.535	39.97
858.704	46.51
858.873	48.76
859.042	41.83
859.21	22.81
859.379	38.61
859.548	54.25
859.717	53.78
859.885	50.35
860.054	50.52
860.222	48.56
860.391	27.25
860.56	23.36
860.728	24.94
860.897	33.35
861.065	42.52
861.234	45.61
861.402	39.38
861.571	33.96
861.739	37.76
861.908	34.19
862.076	29.65
862.244	53.7
862.413	62.75
862.581	52.36
862.749	41.52
862.918	44.83
863.086	44.95
863.254	42.45
863.423	37.53
863.591	45.56
863.759	36.35
863.927	37.6
864.096	27.57
864.264	25.09
864.432	28.7
864.6	32.45
864.768	19.37
864.936	18.46
865.104	12.29
865.272	24.14
865.44	13.23
865.608	32.99
865.776	37.02
865.944	41.75
866.112	39.71
866.28	21.95
866.448	19.79
866.616	22.74
866.784	10.34
866.952	14.85
867.12	12.17
867.288	17.22
867.455	13.65
867.623	24.08
867.791	22.95
867.959	25.7
868.127	31.04
868.294	41.03
868.462	48.36
868.63	56.22
868.797	57.56
868.965	56.11
869.133	53.91
869.3	54.3
869.468	50.55
869.636	57.76
869.803	50.68
869.971	42.44
870.138	42.36
870.306	43.4
870.473	64.98
870.641	73.12
870.808	62.18
870.975	68.57
871.143	82.48
871.31	78.16
871.478	70.34
871.645	60.54
871.812	65.54
871.98	59.6
872.147	56.81
872.314	51.73
872.482	50.57
872.649	64.47
872.816	54.73
872.983	48.94
873.15	51.05
873.318	51.35
873.485	56.96
873.652	51.85
873.819	56.76
873.986	57.36
874.153	51.85
874.32	56.99
874.487	54.5
874.654	59.18
874.821	53.98
874.988	52.29
875.155	53.86
875.322	53.91
875.489	57.15
875.656	60.21
875.823	58.87
875.99	62.66
876.157	57.17
876.324	66.64
876.49	78.19
876.657	81.06
876.824	74.62
876.991	78.77
877.157	78.07
877.324	81.05
877.491	68.09
877.658	58.14
877.824	55.76
877.991	49.86
878.157	32.8
878.324	29.96
878.491	22.56
878.657	23.42
878.824	11.22
878.99	3.62
879.157	18.72
879.323	22.25
879.49	24.78
879.656	32.47
879.823	49.91
879.989	55.41
880.156	48.73
880.322	52.66
880.488	40.71
880.655	41.29
880.821	31.33
880.987	26.27
881.154	33.07
881.32	47.71
881.486	43.08
881.652	28.23
881.819	16.33
881.985	24.54
882.151	29.21
882.317	34.76
882.483	35.53
882.649	32.39
882.816	30.13
882.982	31.58
883.148	27.21
883.314	26.46
883.48	33.58
883.646	36.25
883.812	34.02
883.978	36.57
884.144	35.75
884.31	35.35
884.476	40.07
884.642	40.86
884.807	37.89
884.973	37.82
885.139	36.65
885.305	34.59
885.471	32.8
885.637	34.87
885.802	33.05
885.968	34.11
886.134	36.25
886.3	39.81
886.465	39.23
886.631	43.29
886.797	43.81
886.962	49.25
887.128	45.62
887.293	42.8
887.459	43.93
887.625	44.66
887.79	42.17
887.956	34.73
888.121	28.4
888.287	29.79
888.452	25.12
888.618	25.72
888.783	6.45
