Data from 2938037_Reflection_2.txt Node
Date: Sun Jul 12 14:46:13 EDT 2015
User: robert
Spectrometer: USB4E03001
Autoset integration time: false
Trigger mode: 4
Integration Time (sec): 1.000000E-1
Scans to average: 10
Electric dark correction enabled: true
Nonlinearity correction enabled: false
Boxcar width: 5
Stray light correction enabled: false
XAxis mode: Wavelengths
Stop averaging: false
Number of Pixels in Spectrum: 3648
>>>>>Begin Spectral Data<<<<<
177.566	-38.86
177.785	70.17
178.005	271.29
178.225	49.53
178.445	99.15
178.665	153.42
178.885	221.97
179.105	95.69
179.324	132.43
179.544	73.37
179.764	29.06
179.984	-6.77
180.204	3.07
180.423	-63.56
180.643	5.5
180.863	-5.85
181.083	7.16
181.302	-30.44
181.522	-54.57
181.742	-74.76
181.961	-79.64
182.181	-135.64
182.401	-203.79
182.621	-194.27
182.84	-125.24
183.06	-120.51
183.279	-125.18
183.499	-150.52
183.719	-162.25
183.938	-279.36
184.158	-219.36
184.377	-3882.95
184.597	819.5
184.816	-677.77
185.036	-1616.49
185.256	663.4
185.475	550.66
185.695	913.24
185.914	319.61
186.134	-629.96
186.353	-159.27
186.572	271.25
186.792	318.75
187.011	-15.06
187.231	73.45
187.45	70.94
187.67	37.9
187.889	251.9
188.108	-7.01
188.328	-102.31
188.547	-311.63
188.766	-74.42
188.986	-52.3
189.205	-48.3
189.424	-26.56
189.644	-86.88
189.863	-70.96
190.082	-120.97
190.302	-687.76
190.521	-811.04
190.74	-690.23
190.959	-275.42
191.178	169.1
191.398	284.26
191.617	656.81
191.836	321.16
192.055	1248.82
192.274	268.96
192.494	230.82
192.713	312.16
192.932	292.79
193.151	214.11
193.37	166.18
193.589	194.28
193.808	176.39
194.027	129.48
194.246	152.83
194.465	197.74
194.685	265.48
194.904	277.81
195.123	615.49
195.342	-494.43
195.561	-602.4
195.78	-268.22
195.999	-132.94
196.218	-357.28
196.436	-511.48
196.655	-125.24
196.874	-70.47
197.093	-115.72
197.312	-54.59
197.531	-481.78
197.75	409.7
197.969	-611.3
198.188	208.07
198.407	-1390.24
198.625	1642.04
198.844	1427.48
199.063	-1258.72
199.282	1186.64
199.501	452.52
199.719	1233.45
199.938	-1129.67
200.157	-432.28
200.376	-549.93
200.594	-223.66
200.813	1340.43
201.032	-799.57
201.251	-484.35
201.469	-2988.08
201.688	-276.46
201.907	-90.06
202.125	-94.25
202.344	-51.16
202.563	-687.07
202.781	201.43
203	269.8
203.218	187.84
203.437	320.94
203.656	217.9
203.874	192.68
204.093	119.69
204.311	157.73
204.53	154.61
204.748	116.21
204.967	126.4
205.185	117.51
205.404	195.7
205.622	133.73
205.841	157.56
206.059	237.97
206.278	199.32
206.496	278.34
206.715	268.51
206.933	1214.37
207.151	457.19
207.37	-549.95
207.588	-111.92
207.806	-79.03
208.025	-9.28
208.243	-18.97
208.461	5.26
208.68	-4.4
208.898	-21.48
209.116	30.32
209.335	233.21
209.553	-430.66
209.771	92.28
209.989	236.13
210.208	155.79
210.426	232.34
210.644	144.92
210.862	112.89
211.081	132.87
211.299	123.09
211.517	241.73
211.735	275.45
211.953	258.74
212.171	826.68
212.39	658.84
212.608	1063.6
212.826	-1715.19
213.044	1035.95
213.262	598.46
213.48	447.55
213.698	908.99
213.916	363.01
214.134	-458.22
214.352	-817.4
214.57	-139.4
214.788	-318.01
215.006	1336
215.224	871.35
215.442	-129.47
215.66	-45.37
215.878	60.57
216.096	-31.84
216.314	63.1
216.532	122.7
216.75	43.46
216.968	-4.46
217.185	-102.5
217.403	6.93
217.621	-51.05
217.839	-18.18
218.057	-30.86
218.275	-755.14
218.492	1053.64
218.71	-5325.53
218.928	-420.39
219.146	613.01
219.363	366.71
219.581	598.24
219.799	1109.09
220.017	332.79
220.234	245.86
220.452	237.25
220.67	-2313.8
220.887	-1793.23
221.105	337.59
221.323	247.44
221.54	420.88
221.758	-300.07
221.976	-375.34
222.193	296.54
222.411	-554.37
222.629	-146.29
222.846	-199.87
223.064	27.72
223.281	-62.65
223.499	71.21
223.716	55.85
223.934	875.61
224.151	22.75
224.369	40.36
224.586	74.39
224.804	61.59
225.021	82.97
225.239	110.79
225.456	119.36
225.674	117.21
225.891	100.82
226.108	77.78
226.326	63.14
226.543	73.73
226.76	63.74
226.978	46.63
227.195	44.73
227.413	34.34
227.63	24.34
227.847	18.89
228.064	12.96
228.282	14.42
228.499	12.18
228.716	11.88
228.934	13.39
229.151	12.31
229.368	11.6
229.585	10.72
229.802	13.61
230.02	12.91
230.237	13.65
230.454	13.72
230.671	13.32
230.888	15.55
231.105	17.67
231.323	17.73
231.54	19.95
231.757	22
231.974	26.5
232.191	34.18
232.408	37.25
232.625	42.76
232.842	44.56
233.059	44.42
233.276	45.86
233.493	48.15
233.71	46.86
233.927	46.19
234.144	44.98
234.361	39.24
234.578	34.6
234.795	36.38
235.012	31.78
235.229	30.16
235.446	29.99
235.663	32.91
235.879	26.29
236.096	25.35
236.313	24.22
236.53	22.34
236.747	18.66
236.964	13.81
237.181	14.32
237.397	21.55
237.614	22
237.831	18.44
238.048	9.08
238.264	16.45
238.481	20.03
238.698	20.22
238.915	20.69
239.131	22.88
239.348	24.64
239.565	24.3
239.781	22.2
239.998	22.43
240.215	27.53
240.431	25.47
240.648	28.74
240.865	22.57
241.081	22.02
241.298	22.25
241.514	23.62
241.731	24.6
241.947	23.24
242.164	23.32
242.38	21.39
242.597	18.28
242.814	19.74
243.03	17.38
243.246	20.66
243.463	21
243.679	20.58
243.896	19.58
244.112	17.65
244.329	18.55
244.545	18.03
244.762	18.83
244.978	22.28
245.194	19.34
245.411	18.27
245.627	13.08
245.843	12.63
246.06	13.45
246.276	14.32
246.492	14.63
246.709	14.96
246.925	12.56
247.141	12.58
247.357	10.92
247.574	11.58
247.79	11.82
248.006	12.51
248.222	12.26
248.439	11.48
248.655	10.91
248.871	10.44
249.087	8.72
249.303	10.21
249.519	11.94
249.736	13.19
249.952	13.52
250.168	16.18
250.384	17.16
250.6	17.7
250.816	18.73
251.032	16.34
251.248	17.11
251.464	17.62
251.68	16.82
251.896	14.47
252.112	14.42
252.328	14.34
252.544	11.98
252.76	11.07
252.976	10.28
253.192	11.15
253.408	13.9
253.624	12.88
253.84	12.92
254.056	14.4
254.272	13.42
254.487	13.12
254.703	13.59
254.919	11.15
255.135	12.82
255.351	15.4
255.567	12.92
255.782	10.35
255.998	14.42
256.214	14.35
256.43	12.21
256.646	14.01
256.861	12.09
257.077	12.77
257.293	14.67
257.508	15.49
257.724	13.95
257.94	13.71
258.155	13.13
258.371	10.98
258.587	9.69
258.802	10.74
259.018	10.28
259.234	11.42
259.449	10.57
259.665	9.94
259.88	8.48
260.096	8.64
260.312	8.95
260.527	9.23
260.743	8.81
260.958	9.22
261.174	8.38
261.389	9.66
261.605	10.27
261.82	11.02
262.036	11.54
262.251	12.93
262.466	14.36
262.682	13.24
262.897	12.86
263.113	15.43
263.328	17.23
263.543	17.95
263.759	14.42
263.974	14.37
264.189	12.65
264.405	12.17
264.62	14.08
264.835	11.7
265.051	13.65
265.266	16.83
265.481	13.31
265.696	10.47
265.912	8.85
266.127	11.29
266.342	10.29
266.557	9.83
266.773	11.02
266.988	8.3
267.203	7.29
267.418	7.73
267.633	5.44
267.848	6.15
268.064	6.81
268.279	8.62
268.494	7.47
268.709	6.2
268.924	6.95
269.139	6.94
269.354	7.39
269.569	7.81
269.784	6.94
269.999	6.46
270.214	6.95
270.429	8.26
270.644	6.66
270.859	9.06
271.074	10.16
271.289	10.18
271.504	9.85
271.719	10.23
271.934	10.45
272.149	10.03
272.363	10.92
272.578	10.6
272.793	10.27
273.008	12.44
273.223	9.88
273.438	8.56
273.653	10.01
273.867	10.48
274.082	11.7
274.297	11.58
274.512	12.92
274.726	11.45
274.941	11.4
275.156	10.64
275.371	9.57
275.585	12.12
275.8	12.76
276.015	10.6
276.229	9.9
276.444	7.61
276.659	7.19
276.873	8.07
277.088	10.23
277.302	11.56
277.517	12.33
277.732	12.48
277.946	10.46
278.161	10.75
278.375	11.89
278.59	12.5
278.804	14.01
279.019	14.68
279.233	12.09
279.448	11.96
279.662	10.46
279.877	8.31
280.091	7.37
280.306	10.18
280.52	11.25
280.735	10.26
280.949	9.12
281.163	8.67
281.378	9.07
281.592	9.61
281.806	9.06
282.021	10.32
282.235	10.84
282.449	11.6
282.664	9.47
282.878	8
283.092	7.62
283.307	9.32
283.521	9.71
283.735	11.33
283.949	13.21
284.164	13.07
284.378	12.73
284.592	14.79
284.806	13.89
285.02	15.09
285.234	15.15
285.449	14.54
285.663	14.26
285.877	14.09
286.091	13.08
286.305	12.71
286.519	11.73
286.733	11.67
286.947	10.93
287.161	11.58
287.375	10.98
287.589	11.59
287.803	12.07
288.017	11.01
288.231	9.27
288.445	8.46
288.659	6.41
288.873	8.02
289.087	9.1
289.301	7.75
289.515	7.36
289.729	7.49
289.943	7.26
290.157	7.94
290.371	8.23
290.584	8.82
290.798	10.06
291.012	10.85
291.226	11.27
291.44	11.74
291.654	12.56
291.867	13.25
292.081	14.31
292.295	14.24
292.509	13.95
292.722	16.42
292.936	16.17
293.15	14.45
293.364	16.03
293.577	15.27
293.791	12.71
294.005	12.39
294.218	10.26
294.432	9.44
294.645	9.51
294.859	9.37
295.073	6.76
295.286	7.1
295.5	7.63
295.713	5.82
295.927	6.12
296.14	7.29
296.354	7.43
296.568	8.91
296.781	9.03
296.994	8.82
297.208	7.96
297.421	7.32
297.635	7.48
297.848	6.72
298.062	7
298.275	6.85
298.489	6.34
298.702	6.32
298.915	6.57
299.129	5.99
299.342	5.91
299.555	6.99
299.769	6.6
299.982	6.93
300.195	8.25
300.409	9.32
300.622	9.09
300.835	9.67
301.048	11.18
301.262	10.7
301.475	10.95
301.688	11.02
301.901	12.33
302.115	13.45
302.328	13.49
302.541	13.62
302.754	13.91
302.967	14.49
303.18	14.54
303.393	13.2
303.607	14.27
303.82	15.44
304.033	16.07
304.246	15.78
304.459	16.01
304.672	15.97
304.885	16.47
305.098	16.47
305.311	16.18
305.524	15.44
305.737	15.58
305.95	14.41
306.163	12.99
306.376	13.42
306.589	11.38
306.802	11.09
307.015	12.28
307.228	10.08
307.44	8.1
307.653	8.96
307.866	8.78
308.079	9.17
308.292	9.57
308.505	10.46
308.718	8.76
308.93	9.98
309.143	10.48
309.356	10.42
309.569	11.51
309.781	10.66
309.994	9.57
310.207	9.89
310.42	9.99
310.632	8.83
310.845	8.49
311.058	8.82
311.27	8.58
311.483	7.36
311.696	7.4
311.908	7.55
312.121	8.81
312.333	10.16
312.546	9.68
312.759	8.73
312.971	9.73
313.184	8.95
313.396	9.92
313.609	10.59
313.821	12.4
314.034	11.82
314.246	12.05
314.459	12.32
314.671	13.5
314.884	12.93
315.096	14.04
315.309	15.02
315.521	16.89
315.733	16.92
315.946	16.07
316.158	15.02
316.371	14.81
316.583	12.74
316.795	12.97
317.008	12.39
317.22	12.98
317.432	12.63
317.644	11.79
317.857	10.63
318.069	9.47
318.281	10.41
318.494	12.04
318.706	12.66
318.918	14.69
319.13	15.05
319.342	13.72
319.555	13.97
319.767	14.57
319.979	14.8
320.191	15.79
320.403	17.57
320.615	17.24
320.827	15.16
321.039	15.35
321.252	16.22
321.464	16.41
321.676	17.02
321.888	17.27
322.1	17.28
322.312	17.28
322.524	17.34
322.736	17.53
322.948	17.03
323.16	17.15
323.372	16.43
323.584	15.43
323.796	15.12
324.007	15.09
324.219	14.72
324.431	14.55
324.643	15.43
324.855	13.54
325.067	13.71
325.279	14.88
325.491	15.97
325.702	15.59
325.914	15.34
326.126	15.33
326.338	14.39
326.55	14.34
326.761	14.17
326.973	12.42
327.185	12.64
327.396	11.32
327.608	10.88
327.82	10.25
328.032	11.53
328.243	11.62
328.455	11.3
328.666	12.68
328.878	13.22
329.09	13.29
329.301	13.91
329.513	15.57
329.725	15.9
329.936	15.27
330.148	14.4
330.359	13.32
330.571	13.23
330.782	12.89
330.994	12.21
331.205	13.96
331.417	14.35
331.628	13.87
331.84	12.6
332.051	12.69
332.262	12.73
332.474	13.82
332.685	13.77
332.897	14.62
333.108	14.76
333.319	14.2
333.531	13
333.742	12.05
333.953	12.93
334.165	14.08
334.376	14.87
334.587	15.04
334.799	14.21
335.01	15.12
335.221	14.28
335.432	13.71
335.644	14.05
335.855	14.86
336.066	16.04
336.277	15.12
336.488	14.91
336.7	13.81
336.911	13.56
337.122	14.42
337.333	13.69
337.544	14.87
337.755	14.52
337.966	14.69
338.177	13.28
338.388	12.71
338.599	12.03
338.811	10.87
339.022	11.5
339.233	12.95
339.444	12.68
339.655	13.11
339.866	11.93
340.076	12.97
340.287	13.65
340.498	13.37
340.709	13.1
340.92	13.78
341.131	14.18
341.342	14.21
341.553	13.73
341.764	13.1
341.975	12.93
342.185	12.94
342.396	12.41
342.607	11.88
342.818	12.62
343.029	13.4
343.239	14.17
343.45	13.58
343.661	13.33
343.872	12.52
344.082	12.55
344.293	12.36
344.504	11.93
344.714	10.2
344.925	10.4
345.136	10.36
345.346	9.72
345.557	8.63
345.768	9.01
345.978	8.66
346.189	8.19
346.399	8.43
346.61	9.13
346.821	10.18
347.031	11.95
347.242	10.49
347.452	10.56
347.663	10.19
347.873	10.66
348.084	10.05
348.294	9.73
348.504	10.43
348.715	11.31
348.925	9.03
349.136	8.09
349.346	8.36
349.557	9
349.767	8.61
349.977	8.66
350.188	9.41
350.398	10.13
350.608	12.05
350.819	12.78
351.029	12.05
351.239	14.24
351.449	14.33
351.66	13.8
351.87	14.51
352.08	14.45
352.29	13.88
352.501	14
352.711	14.75
352.921	12.81
353.131	12.19
353.341	13.03
353.552	12.47
353.762	12.24
353.972	12.28
354.182	12.1
354.392	12.34
354.602	12.35
354.812	11.06
355.022	10.92
355.232	11.81
355.442	12.71
355.652	12.07
355.862	10.72
356.072	10.99
356.282	10.7
356.492	10.48
356.702	11.07
356.912	10.62
357.122	11.68
357.332	11.23
357.542	10.17
357.752	8.96
357.962	7.9
358.171	9.44
358.381	10.4
358.591	10.3
358.801	9.95
359.011	9.42
359.221	9.7
359.43	8.13
359.64	8.7
359.85	9.55
360.06	9.75
360.269	10.44
360.479	9.67
360.689	8.82
360.899	8.95
361.108	9.18
361.318	9.71
361.528	9.85
361.737	11.15
361.947	10.71
362.156	10.36
362.366	10.1
362.576	10.14
362.785	10.11
362.995	10.67
363.204	10.61
363.414	10.29
363.623	9.83
363.833	10.29
364.042	9.4
364.252	9.35
364.461	9.84
364.671	9.91
364.88	9.44
365.09	9.78
365.299	8.98
365.509	8.37
365.718	8.75
365.927	8.18
366.137	7.48
366.346	8.39
366.555	8.06
366.765	7.46
366.974	7.67
367.183	8.65
367.393	9.04
367.602	8.85
367.811	9.17
368.021	9.08
368.23	10.04
368.439	10.52
368.648	10.24
368.857	10.23
369.067	10.58
369.276	9.94
369.485	8.77
369.694	8.25
369.903	8.22
370.112	9.04
370.321	9.16
370.531	8.79
370.74	8.31
370.949	8.17
371.158	8.83
371.367	8.34
371.576	9.03
371.785	9.45
371.994	8.99
372.203	8.88
372.412	9.07
372.621	8.92
372.83	9.26
373.039	9.09
373.248	8.7
373.457	8.55
373.666	9.14
373.874	8.52
374.083	8.68
374.292	8.73
374.501	8.62
374.71	8.58
374.919	8.65
375.128	8.49
375.336	8.79
375.545	8.54
375.754	8.53
375.963	8.13
376.171	8.34
376.38	8.34
376.589	8.46
376.798	8.55
377.006	8.01
377.215	8.31
377.424	7.3
377.632	7.34
377.841	7.99
378.05	7.77
378.258	7.88
378.467	8.27
378.675	8.63
378.884	8.4
379.093	8.77
379.301	9.32
379.51	8.73
379.718	9.01
379.927	8.77
380.135	8.28
380.344	8.09
380.552	7.96
380.761	7.55
380.969	7.29
381.177	7.28
381.386	6.16
381.594	5.51
381.803	5.91
382.011	6.26
382.219	6.52
382.428	6.35
382.636	6.43
382.845	6.04
383.053	6.3
383.261	5.63
383.469	5.39
383.678	5.94
383.886	5.97
384.094	5.8
384.302	5.37
384.511	5.28
384.719	5.35
384.927	5.73
385.135	5.96
385.343	5.67
385.552	5.93
385.76	6.02
385.968	6.37
386.176	6.57
386.384	6.53
386.592	6.67
386.8	6.54
387.008	7.01
387.216	6.83
387.424	6.89
387.633	7.06
387.841	7.13
388.049	7.18
388.257	6.86
388.465	6.4
388.672	6.53
388.88	6.59
389.088	6.75
389.296	6.28
389.504	5.98
389.712	6.27
389.92	6.18
390.128	6.18
390.336	6.23
390.544	6.19
390.751	6.37
390.959	6.44
391.167	6.72
391.375	6.83
391.583	6.8
391.79	6.52
391.998	6.15
392.206	5.92
392.414	5.65
392.621	5.94
392.829	6.11
393.037	6.31
393.244	5.98
393.452	5.72
393.66	5.52
393.867	5.85
394.075	6
394.283	5.83
394.49	5.85
394.698	6.18
394.905	5.83
395.113	5.6
395.32	5.29
395.528	5.28
395.735	5.27
395.943	5.27
396.15	4.81
396.358	4.73
396.565	4.7
396.773	4.67
396.98	4.57
397.188	4.54
397.395	4.85
397.602	4.78
397.81	4.67
398.017	4.75
398.225	4.9
398.432	5.4
398.639	5.56
398.847	5.47
399.054	5.53
399.261	5.47
399.468	5.53
399.676	5.18
399.883	5.47
400.09	5.55
400.297	5.53
400.505	5.31
400.712	5.11
400.919	5.13
401.126	4.89
401.333	4.56
401.54	4.51
401.748	4.18
401.955	4.29
402.162	4.35
402.369	4.25
402.576	4.38
402.783	4.53
402.99	4.3
403.197	4.29
403.404	4.72
403.611	4.73
403.818	4.75
404.025	5.04
404.232	4.88
404.439	4.78
404.646	4.71
404.853	4.54
405.06	4.61
405.267	4.55
405.474	4.37
405.681	4.2
405.887	4.49
406.094	4.26
406.301	4.12
406.508	3.96
406.715	4.2
406.922	3.95
407.128	3.85
407.335	3.61
407.542	3.97
407.749	4.02
407.955	4.25
408.162	3.96
408.369	4.14
408.575	4.07
408.782	4.44
408.989	3.99
409.195	4.24
409.402	4.37
409.609	4.27
409.815	4.03
410.022	4.02
410.228	3.7
410.435	3.68
410.642	3.67
410.848	4.16
411.055	3.98
411.261	4
411.468	4.25
411.674	4.16
411.881	4.06
412.087	4.13
412.294	4.14
412.5	4.33
412.706	4.5
412.913	4.41
413.119	3.84
413.326	4.03
413.532	4.07
413.738	3.97
413.945	4.06
414.151	4.1
414.357	4.14
414.564	4.21
414.77	4.09
414.976	4.01
415.182	3.85
415.389	4.06
415.595	4.03
415.801	3.95
416.007	3.99
416.214	4.1
416.42	4.08
416.626	3.54
416.832	3.47
417.038	3.49
417.244	3.63
417.45	3.9
417.657	3.82
417.863	3.72
418.069	3.61
418.275	3.57
418.481	3.54
418.687	3.67
418.893	3.86
419.099	3.85
419.305	3.78
419.511	3.65
419.717	3.4
419.923	3.48
420.129	3.48
420.335	3.6
420.541	3.47
420.746	3.44
420.952	3.36
421.158	3.37
421.364	3.39
421.57	3.35
421.776	3.39
421.982	3.64
422.187	3.56
422.393	3.43
422.599	3.51
422.805	3.63
423.01	3.43
423.216	3.55
423.422	3.5
423.628	3.49
423.833	3.56
424.039	3.5
424.245	3.38
424.45	3.31
424.656	3.47
424.862	3.39
425.067	3.39
425.273	3.47
425.478	3.38
425.684	3.43
425.889	3.48
426.095	3.44
426.301	3.62
426.506	3.72
426.712	3.67
426.917	3.61
427.123	3.76
427.328	3.67
427.533	3.83
427.739	3.58
427.944	3.65
428.15	3.74
428.355	3.71
428.561	3.36
428.766	3.26
428.971	3.73
429.177	3.98
429.382	3.83
429.587	3.88
429.793	3.75
429.998	4.13
430.203	4.27
430.408	4.1
430.614	4.1
430.819	4.31
431.024	4.33
431.229	4.15
431.434	3.87
431.64	3.75
431.845	3.75
432.05	3.76
432.255	3.53
432.46	3.52
432.665	3.44
432.87	3.6
433.076	3.58
433.281	3.54
433.486	3.48
433.691	3.57
433.896	3.54
434.101	3.54
434.306	3.51
434.511	3.6
434.716	3.57
434.921	3.59
435.126	3.57
435.331	3.55
435.535	3.48
435.74	3.65
435.945	3.69
436.15	4.07
436.355	4.08
436.56	4.1
436.765	4.11
436.97	4.02
437.174	4.27
437.379	4.25
437.584	4.33
437.789	4.46
437.993	4.24
438.198	4.06
438.403	3.75
438.608	3.63
438.812	3.61
439.017	3.56
439.222	3.7
439.426	3.47
439.631	3.49
439.836	3.35
440.04	3.46
440.245	3.43
440.45	3.38
440.654	3.4
440.859	3.55
441.063	3.41
441.268	3.36
441.472	3.31
441.677	3.42
441.881	3.41
442.086	3.41
442.29	3.26
442.495	3.5
442.699	3.68
442.904	3.66
443.108	3.69
443.312	3.75
443.517	3.88
443.721	3.79
443.925	3.86
444.13	4.01
444.334	4.12
444.538	3.87
444.743	3.75
444.947	3.73
445.151	3.77
445.356	3.65
445.56	3.73
445.764	3.7
445.968	3.55
446.173	3.46
446.377	3.34
446.581	3.33
446.785	3.64
446.989	3.31
447.193	3.31
447.398	3.41
447.602	3.46
447.806	3.65
448.01	3.63
448.214	3.69
448.418	3.62
448.622	3.68
448.826	3.63
449.03	3.55
449.234	3.86
449.438	3.85
449.642	3.8
449.846	3.75
450.05	3.46
450.254	3.45
450.458	3.66
450.662	3.76
450.866	3.6
451.069	3.76
451.273	3.61
451.477	3.7
451.681	3.66
451.885	3.58
452.089	3.58
452.292	3.73
452.496	3.56
452.7	3.46
452.904	3.45
453.107	3.64
453.311	3.4
453.515	3.58
453.719	3.67
453.922	3.72
454.126	3.53
454.33	3.62
454.533	3.61
454.737	4
454.94	3.93
455.144	3.75
455.348	3.43
455.551	3.45
455.755	3.33
455.958	3.32
456.162	3.26
456.365	3.49
456.569	3.31
456.772	3.5
456.976	3.31
457.179	3.49
457.383	3.79
457.586	3.93
457.79	3.91
457.993	3.81
458.196	3.75
458.4	3.71
458.603	3.67
458.807	3.49
459.01	3.4
459.213	3.43
459.417	3.34
459.62	3.21
459.823	3.23
460.026	3.28
460.23	3.36
460.433	3.22
460.636	3.21
460.839	3.08
461.042	3.27
461.246	3.15
461.449	3.22
461.652	3.23
461.855	3.32
462.058	3.36
462.261	3.51
462.464	3.42
462.668	3.5
462.871	3.6
463.074	3.67
463.277	3.81
463.48	3.67
463.683	3.67
463.886	3.79
464.089	3.84
464.292	3.76
464.495	3.54
464.698	3.71
464.901	3.46
465.104	3.4
465.306	3.51
465.509	3.27
465.712	3.55
465.915	3.44
466.118	3.1
466.321	2.96
466.524	3.08
466.726	3.2
466.929	3.15
467.132	3.54
467.335	3.52
467.538	3.49
467.74	3.68
467.943	3.45
468.146	3.5
468.348	3.59
468.551	3.64
468.754	3.5
468.956	3.54
469.159	3.54
469.362	3.29
469.564	3.12
469.767	3.09
469.969	2.97
470.172	3.13
470.375	3.15
470.577	3.54
470.78	3.52
470.982	3.7
471.185	3.64
471.387	3.47
471.59	3.4
471.792	3.62
471.995	3.62
472.197	3.7
472.399	3.52
472.602	3.23
472.804	2.84
473.007	2.7
473.209	2.74
473.411	2.63
473.614	2.81
473.816	2.95
474.018	2.98
474.22	2.95
474.423	2.8
474.625	3.03
474.827	3.1
475.03	3.33
475.232	3.59
475.434	3.48
475.636	3.48
475.838	3.47
476.04	3.57
476.243	3.46
476.445	3.64
476.647	3.77
476.849	3.68
477.051	3.85
477.253	3.85
477.455	3.74
477.657	3.72
477.859	3.91
478.061	3.88
478.263	3.89
478.465	4.02
478.667	4
478.869	3.85
479.071	3.87
479.273	3.85
479.475	3.82
479.677	3.7
479.879	3.64
480.081	3.43
480.283	3.26
480.485	3.25
480.686	3.07
480.888	2.99
481.09	3.13
481.292	2.96
481.494	2.87
481.695	2.83
481.897	2.77
482.099	2.77
482.301	2.79
482.502	2.92
482.704	2.92
482.906	2.89
483.107	2.87
483.309	2.85
483.511	2.93
483.712	3.02
483.914	3
484.115	3.04
484.317	3.02
484.519	3.05
484.72	3.01
484.922	2.96
485.123	3.04
485.325	3.09
485.526	3.09
485.728	3.13
485.929	3.04
486.131	2.99
486.332	2.93
486.534	2.97
486.735	2.88
486.936	2.87
487.138	2.91
487.339	2.87
487.541	2.74
487.742	2.76
487.943	2.69
488.144	2.79
488.346	2.79
488.547	2.88
488.748	2.85
488.95	2.87
489.151	2.87
489.352	2.89
489.553	2.93
489.755	3.05
489.956	3.03
490.157	3.08
490.358	2.95
490.559	3.03
490.76	3.09
490.961	3.05
491.163	3.14
491.364	3.24
491.565	3.17
491.766	3.19
491.967	3.21
492.168	3.21
492.369	3.21
492.57	3.21
492.771	3.15
492.972	3.07
493.173	3.14
493.374	3.05
493.575	3.13
493.776	3.15
493.976	3.05
494.177	2.94
494.378	2.85
494.579	2.92
494.78	2.93
494.981	2.88
495.182	2.88
495.382	2.92
495.583	3.05
495.784	2.92
495.985	2.91
496.185	3.01
496.386	3.28
496.587	3.5
496.788	3.42
496.988	3.58
497.189	3.72
497.39	3.74
497.59	3.81
497.791	3.69
497.992	3.59
498.192	3.61
498.393	3.7
498.593	3.5
498.794	3.46
498.994	3.52
499.195	3.49
499.395	3.55
499.596	3.62
499.796	3.67
499.997	3.81
500.197	3.99
500.398	4.19
500.598	4.11
500.799	4.31
500.999	4.12
501.199	4.23
501.4	4.14
501.6	4.27
501.801	4.08
502.001	3.94
502.201	3.84
502.402	3.72
502.602	3.64
502.802	3.59
503.002	3.61
503.203	3.79
503.403	3.64
503.603	3.66
503.803	3.43
504.003	3.78
504.204	3.79
504.404	3.82
504.604	3.9
504.804	3.77
505.004	3.7
505.204	3.51
505.404	3.48
505.604	3.63
505.804	3.65
506.005	3.59
506.205	3.52
506.405	3.5
506.605	3.64
506.805	3.78
507.005	3.77
507.204	3.93
507.404	4.07
507.604	4.13
507.804	4.04
508.004	3.99
508.204	4.14
508.404	4.17
508.604	4.16
508.804	4.08
509.003	3.87
509.203	3.98
509.403	4
509.603	4.01
509.803	4.02
510.002	4.01
510.202	3.98
510.402	3.92
510.602	3.77
510.801	3.8
511.001	3.76
511.201	3.8
511.4	3.67
511.6	3.57
511.8	3.38
511.999	3.3
512.199	3.23
512.398	3.31
512.598	3.39
512.797	3.47
512.997	3.41
513.197	3.4
513.396	3.5
513.596	3.52
513.795	3.59
513.994	3.7
514.194	3.65
514.393	3.83
514.593	3.74
514.792	3.76
514.992	3.71
515.191	4
515.39	4.12
515.59	4.14
515.789	4.15
515.988	4.22
516.188	4.25
516.387	4.25
516.586	4.07
516.786	4.32
516.985	4.16
517.184	4.12
517.383	3.9
517.582	3.74
517.782	3.66
517.981	3.63
518.18	3.67
518.379	3.58
518.578	3.51
518.777	3.55
518.976	3.46
519.176	3.52
519.375	3.62
519.574	3.66
519.773	3.77
519.972	3.85
520.171	3.88
520.37	3.87
520.569	3.97
520.768	4.24
520.967	4.26
521.166	4.29
521.365	4.3
521.564	4.25
521.762	4.22
521.961	4.11
522.16	4.07
522.359	4.08
522.558	4.01
522.757	4.14
522.956	4.07
523.154	4.04
523.353	4.11
523.552	4.25
523.751	4.32
523.949	4.37
524.148	4.49
524.347	4.37
524.546	4.41
524.744	4.4
524.943	4.19
525.142	4.02
525.34	3.95
525.539	3.9
525.737	3.73
525.936	3.76
526.135	3.75
526.333	3.69
526.532	3.71
526.73	3.74
526.929	3.79
527.127	3.85
527.326	3.88
527.524	3.9
527.723	3.88
527.921	3.94
528.12	3.86
528.318	3.89
528.516	3.94
528.715	3.96
528.913	3.92
529.112	3.91
529.31	3.89
529.508	4.01
529.707	4.03
529.905	4.04
530.103	4.06
530.301	4.09
530.5	4.1
530.698	4.11
530.896	4.12
531.094	4.17
531.293	4.17
531.491	4.14
531.689	4
531.887	4.05
532.085	3.97
532.283	3.93
532.481	4.04
532.68	4.14
532.878	4.12
533.076	4.11
533.274	4.1
533.472	4.2
533.67	4.29
533.868	4.31
534.066	4.36
534.264	4.45
534.462	4.42
534.66	4.44
534.858	4.37
535.056	4.38
535.253	4.45
535.451	4.57
535.649	4.55
535.847	4.57
536.045	4.61
536.243	4.65
536.441	4.6
536.638	4.73
536.836	4.68
537.034	4.72
537.232	4.84
537.43	4.9
537.627	4.81
537.825	4.83
538.023	4.8
538.22	4.95
538.418	4.98
538.616	5.13
538.813	5.24
539.011	5.3
539.209	5.26
539.406	5.19
539.604	5.16
539.801	5.26
539.999	5.24
540.196	5.23
540.394	5.15
540.591	5.12
540.789	5.12
540.986	5.04
541.184	4.95
541.381	4.91
541.579	4.86
541.776	4.95
541.974	4.96
542.171	4.97
542.368	5.09
542.566	5.17
542.763	5.22
542.96	5.22
543.158	5.28
543.355	5.47
543.552	5.61
543.75	5.87
543.947	5.76
544.144	5.86
544.341	5.85
544.539	5.83
544.736	5.82
544.933	5.87
545.13	5.93
545.327	6.06
545.524	6.11
545.722	6.22
545.919	6.06
546.116	6.21
546.313	6.17
546.51	6.15
546.707	6.16
546.904	6.19
547.101	6.12
547.298	6.19
547.495	6.05
547.692	6.03
547.889	6.08
548.086	6.15
548.283	6.28
548.48	6.37
548.677	6.64
548.874	6.68
549.07	6.86
549.267	6.86
549.464	6.86
549.661	7.03
549.858	6.92
550.055	6.99
550.251	7.1
550.448	7.1
550.645	7.27
550.842	7.13
551.038	7.27
551.235	7.3
551.432	7.54
551.628	7.69
551.825	7.66
552.022	7.81
552.218	7.84
552.415	7.81
552.612	8.08
552.808	8.11
553.005	8.37
553.201	8.53
553.398	8.56
553.594	8.51
553.791	8.59
553.987	8.7
554.184	8.66
554.38	8.66
554.577	8.77
554.773	8.51
554.97	8.41
555.166	8.46
555.362	8.47
555.559	8.59
555.755	8.79
555.952	8.77
556.148	8.94
556.344	9.06
556.541	9.02
556.737	8.93
556.933	9.21
557.129	9.15
557.326	9.21
557.522	8.98
557.718	8.74
557.914	8.54
558.11	8.41
558.307	8.63
558.503	8.71
558.699	9
558.895	9.45
559.091	9.25
559.287	9.44
559.483	9.3
559.679	9.44
559.876	9.64
560.072	10.05
560.268	10.26
560.464	10.21
560.66	10.39
560.856	10.38
561.052	10.14
561.247	10.26
561.443	10.44
561.639	10.7
561.835	10.98
562.031	11.1
562.227	10.87
562.423	11.04
562.619	11.12
562.815	11.07
563.01	11.2
563.206	11.35
563.402	11.3
563.598	11.41
563.793	11.4
563.989	11.42
564.185	11.4
564.381	11.53
564.576	11.61
564.772	11.68
564.968	11.83
565.163	11.64
565.359	11.72
565.555	11.77
565.75	11.67
565.946	11.65
566.141	11.67
566.337	11.82
566.532	11.99
566.728	12.11
566.923	12.09
567.119	12.02
567.314	12.29
567.51	12.26
567.705	12.48
567.901	12.55
568.096	12.71
568.292	12.8
568.487	12.88
568.682	12.98
568.878	13.07
569.073	13.16
569.268	13.37
569.464	13.3
569.659	13.48
569.854	13.51
570.05	13.76
570.245	13.71
570.44	13.64
570.635	13.69
570.831	13.74
571.026	13.74
571.221	13.69
571.416	13.65
571.611	13.77
571.806	13.67
572.002	13.76
572.197	13.72
572.392	13.88
572.587	14.02
572.782	14.04
572.977	14.05
573.172	13.96
573.367	14.06
573.562	14.17
573.757	14.12
573.952	14.2
574.147	14.34
574.342	14.36
574.537	14.29
574.732	14.36
574.927	14.38
575.121	14.47
575.316	14.53
575.511	14.63
575.706	14.81
575.901	15.11
576.096	15.29
576.29	15.21
576.485	15.27
576.68	15.55
576.875	15.44
577.069	15.62
577.264	15.56
577.459	15.49
577.654	15.45
577.848	15.39
578.043	15.25
578.238	15.2
578.432	15.17
578.627	15.33
578.821	15.15
579.016	15.33
579.21	15.32
579.405	15.46
579.6	15.63
579.794	15.92
579.989	16.16
580.183	16.1
580.378	15.98
580.572	16.12
580.766	16.14
580.961	16.41
581.155	16.57
581.35	16.53
581.544	16.62
581.738	16.69
581.933	16.57
582.127	15.98
582.321	16.13
582.516	16.63
582.71	16.47
582.904	16.26
583.099	16.36
583.293	16.38
583.487	16.72
583.681	16.83
583.875	16.99
584.07	16.93
584.264	17.41
584.458	17.45
584.652	17.06
584.846	17.38
585.04	17.54
585.234	17.3
585.428	17.38
585.623	17.18
585.817	17.18
586.011	16.97
586.205	17.13
586.399	17.14
586.593	17.22
586.787	17.69
586.981	17.43
587.174	17.33
587.368	17.42
587.562	17.41
587.756	18.02
587.95	17.98
588.144	18.31
588.338	18.43
588.532	18.58
588.725	18.6
588.919	18.53
589.113	19
589.307	19.34
589.501	19.34
589.694	19.2
589.888	18.65
590.082	18.65
590.275	18.57
590.469	18.32
590.663	18.35
590.856	18.22
591.05	18.18
591.244	17.99
591.437	17.99
591.631	17.99
591.824	18.01
592.018	18.15
592.212	18.12
592.405	17.98
592.599	17.97
592.792	17.94
592.986	18.09
593.179	17.69
593.372	17.74
593.566	17.55
593.759	17.41
593.953	17.47
594.146	17.42
594.339	17.56
594.533	17.46
594.726	17.74
594.92	17.69
595.113	17.78
595.306	17.99
595.499	18.01
595.693	18.12
595.886	18.29
596.079	18.39
596.272	18.53
596.466	18.41
596.659	18.63
596.852	18.59
597.045	18.71
597.238	18.65
597.431	18.81
597.624	18.62
597.818	18.77
598.011	18.74
598.204	18.71
598.397	18.65
598.59	18.81
598.783	18.95
598.976	19.01
599.169	18.76
599.362	18.8
599.555	18.68
599.748	19.06
599.941	19.01
600.134	19.28
600.326	19.41
600.519	19.44
600.712	19.72
600.905	19.69
601.098	19.73
601.291	19.87
601.483	19.88
601.676	20.12
601.869	19.9
602.062	19.6
602.255	19.6
602.447	19.61
602.64	19.38
602.833	19.07
603.025	19.28
603.218	19.17
603.411	19.21
603.603	19.31
603.796	19.28
603.989	19.37
604.181	19.46
604.374	19.48
604.566	19.47
604.759	19.58
604.951	19.69
605.144	19.55
605.336	19.75
605.529	19.81
605.721	20.01
605.914	20.03
606.106	20.14
606.299	20.23
606.491	20.2
606.683	20.37
606.876	20.43
607.068	20.71
607.26	20.71
607.453	20.59
607.645	20.6
607.837	20.28
608.03	20.44
608.222	20.3
608.414	20.43
608.606	20.14
608.799	19.97
608.991	19.94
609.183	19.57
609.375	19.6
609.567	19.83
609.759	19.78
609.952	19.65
610.144	19.53
610.336	19.62
610.528	19.49
610.72	19.85
610.912	20.03
611.104	20.17
611.296	20.4
611.488	20.49
611.68	20.55
611.872	20.72
612.064	21.05
612.256	21.21
612.448	20.97
612.64	20.92
612.832	20.79
613.023	20.71
613.215	20.58
613.407	20.51
613.599	20.36
613.791	20.15
613.983	19.84
614.174	19.72
614.366	19.61
614.558	19.95
614.75	20.24
614.941	20.27
615.133	20.06
615.325	20.4
615.516	20.48
615.708	20.57
615.9	20.29
616.091	20.31
616.283	20.33
616.475	20.52
616.666	20.59
616.858	20.62
617.049	20.63
617.241	20.73
617.432	20.7
617.624	20.65
617.815	20.48
618.007	20.48
618.198	20.47
618.39	20.78
618.581	20.59
618.773	20.32
618.964	20.28
619.155	20.22
619.347	20.38
619.538	20.6
619.729	20.58
619.921	20.6
620.112	20.88
620.303	21.28
620.494	20.86
620.686	21.02
620.877	21.24
621.068	21.14
621.259	21.18
621.451	21.14
621.642	20.84
621.833	20.99
622.024	21.11
622.215	20.92
622.406	20.43
622.597	20.64
622.788	20.84
622.98	21.16
623.171	21.23
623.362	21.22
623.553	21.17
623.744	21.31
623.935	21.27
624.126	21.42
624.317	21.73
624.508	21.9
624.698	22.22
624.889	21.85
625.08	21.51
625.271	21.14
625.462	21.12
625.653	21.18
625.844	21.19
626.034	21.1
626.225	20.94
626.416	20.98
626.607	21.09
626.798	21.14
626.988	21.22
627.179	21.02
627.37	21.28
627.56	21.65
627.751	21.84
627.942	21.78
628.132	21.8
628.323	22.07
628.514	22.2
628.704	22.19
628.895	21.79
629.085	21.81
629.276	22.1
629.466	22.32
629.657	22.13
629.847	21.93
630.038	21.95
630.228	21.93
630.419	21.87
630.609	21.74
630.8	21.71
630.99	21.78
631.181	21.8
631.371	21.81
631.561	21.57
631.752	21.36
631.942	21.2
632.132	21.44
632.323	21.6
632.513	21.38
632.703	21.25
632.893	21.62
633.084	21.91
633.274	21.96
633.464	22.04
633.654	21.93
633.844	22.34
634.034	22.5
634.225	22.26
634.415	22.56
634.605	22.59
634.795	22.56
634.985	22.59
635.175	22.53
635.365	22.7
635.555	22.59
635.745	22.51
635.935	22.31
636.125	22.35
636.315	22.43
636.505	22.09
636.695	22.27
636.885	22.08
637.075	21.91
637.265	21.79
637.455	21.66
637.644	21.61
637.834	22.18
638.024	21.96
638.214	21.92
638.404	21.86
638.593	21.59
638.783	21.59
638.973	21.63
639.163	21.93
639.352	21.68
639.542	21.92
639.732	22.02
639.921	21.75
640.111	22.1
640.301	22.03
640.49	22.12
640.68	22.44
640.87	22.41
641.059	22.65
641.249	22.58
641.438	22.81
641.628	22.57
641.817	22.63
642.007	22.94
642.196	22.8
642.386	23.13
642.575	23.05
642.764	23.08
642.954	23.04
643.143	23
643.333	22.64
643.522	22.89
643.711	23.12
643.901	23.43
644.09	23.07
644.279	22.88
644.469	22.41
644.658	22.4
644.847	22.05
645.036	22.26
645.226	22.06
645.415	22.41
645.604	22.12
645.793	21.75
645.982	21.58
646.171	21.71
646.361	21.74
646.55	22.03
646.739	22.31
646.928	22.62
647.117	22.67
647.306	23.08
647.495	22.76
647.684	22.85
647.873	23.14
648.062	23.2
648.251	23.15
648.44	23.33
648.629	23.12
648.818	22.84
649.007	22.72
649.196	22.64
649.384	22.92
649.573	22.74
649.762	23.16
649.951	22.98
650.14	22.69
650.328	23
650.517	22.87
650.706	23.19
650.895	23.11
651.083	23.31
651.272	23.6
651.461	23.55
651.65	23.96
651.838	23.65
652.027	23.95
652.216	24.57
652.404	24.27
652.593	24.49
652.781	24.16
652.97	24.62
653.158	24.27
653.347	23.97
653.535	23.98
653.724	23.9
653.912	23.77
654.101	23.87
654.289	23.46
654.478	23.55
654.666	23.7
654.855	23.6
655.043	23.35
655.231	23.93
655.42	24.14
655.608	23.44
655.796	23.68
655.985	23.76
656.173	23.63
656.361	24.06
656.55	24.1
656.738	23.68
656.926	23.96
657.114	24.03
657.302	23.89
657.491	23.7
657.679	24.17
657.867	23.9
658.055	23.75
658.243	23.31
658.431	23.23
658.619	23.01
658.807	23.45
658.996	23.25
659.184	22.93
659.372	23.08
659.56	23.14
659.748	23.22
659.936	23.23
660.124	23.44
660.311	23.56
660.499	23.35
660.687	23.69
660.875	23.45
661.063	23.72
661.251	23.92
661.439	23.44
661.627	23.68
661.814	23.19
662.002	23.33
662.19	23.13
662.378	23.28
662.565	23.31
662.753	22.97
662.941	23.38
663.129	23.39
663.316	23.86
663.504	24.38
663.692	24.24
663.879	24.53
664.067	24.96
664.254	24.94
664.442	24.82
664.63	24.64
664.817	25.24
665.005	24.61
665.192	24.93
665.38	25.04
665.567	24.48
665.755	24.29
665.942	24.77
666.13	24.07
666.317	24.15
666.504	24.52
666.692	24.25
666.879	23.91
667.067	23.88
667.254	23.48
667.441	22.81
667.629	22.89
667.816	23.41
668.003	22.58
668.19	23.11
668.378	23.63
668.565	23.29
668.752	23.72
668.939	23.9
669.127	24.27
669.314	24.41
669.501	24.96
669.688	25.51
669.875	25.05
670.062	25.63
670.249	25.66
670.436	25.06
670.623	25.28
670.81	25.19
670.997	25.21
671.184	25.04
671.371	24.9
671.558	24.74
671.745	24.5
671.932	24.51
672.119	24.62
672.306	24.64
672.493	25.09
672.68	25.01
672.867	25.11
673.054	24.52
673.24	24.67
673.427	25.24
673.614	25.14
673.801	25.36
673.988	24.98
674.174	24.47
674.361	23.86
674.548	23.56
674.734	23.46
674.921	23.56
675.108	24.55
675.294	24.63
675.481	24.33
675.668	24.1
675.854	24.03
676.041	24.5
676.227	24.84
676.414	25.05
676.601	25.06
676.787	25.07
676.974	24.73
677.16	24.24
677.347	24.38
677.533	24.31
677.719	24.86
677.906	24.47
678.092	24.7
678.279	24.58
678.465	24.35
678.651	24.57
678.838	24.58
679.024	25.01
679.21	25.43
679.397	25.4
679.583	25.55
679.769	25.08
679.955	25.17
680.142	24.88
680.328	24.64
680.514	24.83
680.7	24.96
680.886	25.17
681.073	24.88
681.259	24.59
681.445	24.11
681.631	24.14
681.817	24.26
682.003	24.34
682.189	24.6
682.375	24.78
682.561	25.3
682.747	25.19
682.933	25.06
683.119	25.17
683.305	24.97
683.491	25.15
683.677	24.66
683.863	24.85
684.049	24.39
684.235	24.16
684.42	24.01
684.606	23.44
684.792	23.7
684.978	23.72
685.164	24.05
685.349	24.46
685.535	24.89
685.721	24.71
685.907	24.1
686.092	24.59
686.278	24.51
686.464	25.17
686.649	25.22
686.835	24.63
687.021	24.2
687.206	23.76
687.392	23.38
687.577	23.13
687.763	23.4
687.948	24.16
688.134	24.4
688.319	24.39
688.505	23.98
688.69	23.98
688.876	24.29
689.061	24.79
689.247	24.51
689.432	24.86
689.618	24.83
689.803	25.5
689.988	24.93
690.174	24.88
690.359	25.26
690.544	25.56
690.73	25.53
690.915	25.66
691.1	25.69
691.285	25.65
691.471	25.34
691.656	25.43
691.841	25.12
692.026	25.53
692.211	25.49
692.396	25.11
692.582	24.93
692.767	24.71
692.952	24.22
693.137	24.3
693.322	25.21
693.507	25.1
693.692	24.79
693.877	24.25
694.062	24.16
694.247	24.07
694.432	24.64
694.617	24.68
694.802	25.76
694.987	25.81
695.172	26.35
695.357	26.1
695.541	26.97
695.726	26.68
695.911	27.07
696.096	27.12
696.281	26.67
696.466	26.35
696.65	26.41
696.835	25.61
697.02	25.68
697.204	25.33
697.389	25.42
697.574	25.23
697.759	25.44
697.943	26.12
698.128	25.34
698.312	25.88
698.497	25.86
698.682	25.55
698.866	25.41
699.051	25.68
699.235	25.66
699.42	25.68
699.604	25.31
699.789	25.53
699.973	24.92
700.158	25.63
700.342	25.39
700.527	25.36
700.711	25.48
700.895	25.3
701.08	25.76
701.264	25.05
701.448	24.92
701.633	25.2
701.817	24.77
702.001	25.3
702.186	25.71
702.37	25.67
702.554	25.59
702.738	25.77
702.923	26.9
703.107	26.18
703.291	26.45
703.475	26.28
703.659	26.88
703.843	27.37
704.027	27.02
704.212	27.16
704.396	27.41
704.58	27.79
704.764	28.09
704.948	27.18
705.132	27.13
705.316	28.22
705.5	28.63
705.684	27.83
705.868	27.39
706.052	27.84
706.235	26.39
706.419	26.21
706.603	25.58
706.787	25.68
706.971	25.63
707.155	25.79
707.339	25.38
707.522	25.05
707.706	24.77
707.89	25.52
708.074	24.89
708.257	25.48
708.441	24.99
708.625	25.1
708.808	24.83
708.992	24.37
709.176	24.15
709.359	23.79
709.543	24.42
709.727	24.94
709.91	24.58
710.094	24.06
710.277	24.76
710.461	25.55
710.644	26.05
710.828	25.98
711.011	26.91
711.195	26.79
711.378	27.19
711.562	26.77
711.745	26.74
711.928	26.55
712.112	27.42
712.295	27.04
712.478	27.13
712.662	26.83
712.845	27.26
713.028	27.45
713.212	27.49
713.395	27.45
713.578	27.49
713.761	27.21
713.945	27.37
714.128	27.77
714.311	27.73
714.494	27.59
714.677	27.24
714.86	26.68
715.043	26.42
715.227	26.68
715.41	26.33
715.593	25.78
715.776	25.71
715.959	25.48
716.142	24.7
716.325	24.23
716.508	23.75
716.691	24.5
716.874	24.47
717.057	24.34
717.239	24.89
717.422	24.55
717.605	24.38
717.788	24.62
717.971	25.44
718.154	25.09
718.337	25.9
718.519	25.94
718.702	25.84
718.885	26.56
719.068	26.62
719.25	26.29
719.433	27.03
719.616	28.03
719.798	28.25
719.981	27.34
720.164	27.91
720.346	27.68
720.529	28.22
720.712	27.91
720.894	28.09
721.077	28.97
721.259	29.08
721.442	29.5
721.624	29.56
721.807	29.57
721.989	29.4
722.172	29.78
722.354	29.39
722.537	29.63
722.719	29.77
722.901	29.07
723.084	27.87
723.266	27.99
723.448	26.78
723.631	26.93
723.813	27.41
723.995	27.8
724.178	28.36
724.36	28.86
724.542	28.14
724.724	28.19
724.907	28.08
725.089	29.28
725.271	29.32
725.453	29.77
725.635	28.66
725.817	27.9
725.999	28.15
726.181	26.27
726.364	25.56
726.546	26.41
726.728	25.76
726.91	26.52
727.092	26.13
727.274	25.46
727.456	26.55
727.638	27.26
727.819	27.89
728.001	28.2
728.183	29.69
728.365	29.7
728.547	28.54
728.729	29.27
728.911	28.27
729.093	27.72
729.274	27.54
729.456	26.46
729.638	25.83
729.82	25.04
730.001	24.82
730.183	24.52
730.365	25.64
730.546	26.1
730.728	25.07
730.91	25.45
731.091	25.74
731.273	25.65
731.455	26.22
731.636	26.58
731.818	26.34
731.999	26.11
732.181	26
732.362	25.02
732.544	24.71
732.725	25.67
732.907	25.77
733.088	26.1
733.27	27.13
733.451	27.35
733.633	28.03
733.814	29.27
733.995	29.89
734.177	29.48
734.358	29.69
734.539	30.06
734.721	30.2
734.902	30.78
735.083	30.69
735.264	29.29
735.446	28.41
735.627	26.99
735.808	26.81
735.989	26.85
736.17	26.91
736.351	27.14
736.533	27.93
736.714	29.4
736.895	29.03
737.076	29.9
737.257	30.56
737.438	29.39
737.619	30.39
737.8	30.33
737.981	30.59
738.162	29.96
738.343	30.56
738.524	30.03
738.705	27.59
738.886	27.53
739.067	25.94
739.247	25.88
739.428	27.66
739.609	27.41
739.79	27.06
739.971	26.15
740.151	28.41
740.332	28.01
740.513	28.1
740.694	28.29
740.874	27.77
741.055	27.93
741.236	28
741.417	27.88
741.597	27.83
741.778	26.69
741.958	26.52
742.139	25.13
742.32	25.92
742.5	25.91
742.681	25.98
742.861	27.28
743.042	27.64
743.222	28.19
743.403	27.86
743.583	28.22
743.764	29.76
743.944	28.96
744.124	29.3
744.305	27.67
744.485	27.45
744.666	28.16
744.846	26.95
745.026	27.02
745.207	26.81
745.387	27.6
745.567	27.83
745.747	26.74
745.928	29.32
746.108	29.31
746.288	29.79
746.468	30.55
746.648	29.57
746.829	30.2
747.009	31.33
747.189	31.68
747.369	31.71
747.549	31.65
747.729	33
747.909	32.78
748.089	32.09
748.269	32.59
748.449	32.48
748.629	34.44
748.809	33.95
748.989	33.12
749.169	33.92
749.349	32.66
749.529	32.31
749.709	32.83
749.889	32.12
750.068	33.15
750.248	33.06
750.428	32.28
750.608	29.76
750.788	30.34
750.967	29.68
751.147	28.66
751.327	29.47
751.507	31
751.686	30.14
751.866	29.9
752.046	29.33
752.225	28.6
752.405	29.3
752.585	30.73
752.764	30.13
752.944	29.74
753.123	29.65
753.303	29.54
753.482	26.38
753.662	26.14
753.841	25.76
754.021	25.72
754.2	26.24
754.38	25.59
754.559	25.38
754.739	25.47
754.918	26.45
755.097	26.17
755.277	26.43
755.456	26.98
755.635	27.26
755.815	28.59
755.994	29.79
756.173	31.39
756.352	31.9
756.532	31.61
756.711	32.17
756.89	32.28
757.069	32.49
757.248	33.42
757.427	35.33
757.607	35.46
757.786	34.53
757.965	33.5
758.144	31.53
758.323	32.03
758.502	33.02
758.681	32.49
758.86	32.17
759.039	31.71
759.218	29.33
759.397	28.17
759.576	26.34
759.755	26.1
759.934	25.48
760.113	25.89
760.291	25.22
760.47	24.01
760.649	25.08
760.828	25.72
761.007	26.07
761.186	27.19
761.364	26.74
761.543	27.94
761.722	28.3
761.901	29.26
762.079	28.82
762.258	28.21
762.437	28.35
762.615	27.02
762.794	26.55
762.972	26.44
763.151	25.54
763.33	25.88
763.508	26.13
763.687	26.13
763.865	26.79
764.044	27.18
764.222	28.1
764.401	28.67
764.579	28.7
764.758	27.01
764.936	27.77
765.114	28.86
765.293	29.43
765.471	28.85
765.65	28.43
765.828	27.3
766.006	28.46
766.184	27.92
766.363	27.77
766.541	29.36
766.719	30.32
766.898	29.9
767.076	29.64
767.254	28.97
767.432	29.72
767.61	30.03
767.788	29.89
767.967	26.81
768.145	27.05
768.323	26.32
768.501	24.7
768.679	26.72
768.857	26.46
769.035	25.94
769.213	27.82
769.391	28.66
769.569	29.47
769.747	29.81
769.925	32.05
770.103	30.94
770.281	32.09
770.459	31.54
770.636	32.35
770.814	33.23
770.992	34.12
771.17	32.01
771.348	32.04
771.525	32.6
771.703	32.28
771.881	32.41
772.059	34.47
772.236	34.9
772.414	37.79
772.592	38.67
772.769	38.38
772.947	39.34
773.125	39.82
773.302	40.26
773.48	39.99
773.657	39.88
773.835	41.15
774.013	41.18
774.19	39.09
774.368	36.86
774.545	35.27
774.723	34.24
774.9	34.65
775.077	35.53
775.255	33.77
775.432	32.75
775.61	33.42
775.787	32.6
775.964	32.36
776.142	32.42
776.319	33.19
776.496	30.62
776.674	32.71
776.851	34.67
777.028	34.75
777.205	37.96
777.382	37.31
777.56	37.89
777.737	37.12
777.914	36.33
778.091	38.71
778.268	39.93
778.445	41.27
778.622	40.92
778.8	39.44
778.977	38.37
779.154	36.59
779.331	36.69
779.508	36.9
779.685	36.99
779.862	38.52
780.038	36.28
780.215	33.35
780.392	32.69
780.569	31.94
780.746	33.43
780.923	35.1
781.1	36.01
781.277	35.65
781.453	34.17
781.63	32.53
781.807	29.87
781.984	28.93
782.16	32.16
782.337	35.07
782.514	37.03
782.691	35.52
782.867	37.13
783.044	36.8
783.221	40.75
783.397	40.24
783.574	42.81
783.75	47.74
783.927	50.28
784.103	49.37
784.28	49.25
784.456	47.63
784.633	44.89
784.809	41.31
784.986	40.68
785.162	39.89
785.339	38.63
785.515	38.68
785.692	30.77
785.868	29.92
786.044	29.96
786.221	30.07
786.397	28.71
786.573	30.9
786.749	34.74
786.926	33.33
787.102	33.68
787.278	33.49
787.454	33.14
787.631	36.88
787.807	37.96
787.983	36.11
788.159	36.31
788.335	36.44
788.511	34.79
788.687	33.82
788.863	35.62
789.039	34.18
789.216	36.14
789.392	36.41
789.568	36.56
789.744	37.08
789.919	38.53
790.095	38.22
790.271	34.63
790.447	35.51
790.623	34.53
790.799	34.33
790.975	35.56
791.151	33.49
791.327	34.16
791.502	34.44
791.678	33.69
791.854	33.87
792.03	36.85
792.205	41.4
792.381	42.26
792.557	42.75
792.733	42.15
792.908	41.59
793.084	44.52
793.259	45.02
793.435	44.91
793.611	47.61
793.786	47.06
793.962	43.27
794.137	42.19
794.313	41.14
794.488	40.9
794.664	40.81
794.839	41.21
795.015	42.3
795.19	41.21
795.366	41.33
795.541	37.64
795.716	38.25
795.892	37.76
796.067	38.56
796.242	41.37
796.418	39.73
796.593	40.26
796.768	35.83
796.944	34.61
797.119	33.69
797.294	35.34
797.469	34.38
797.644	32.71
797.82	33.25
797.995	34.08
798.17	31.08
798.345	32.49
798.52	33.57
798.695	40.21
798.87	40.08
799.045	40.11
799.22	41.54
799.395	42.9
799.57	41.88
799.745	42.77
799.92	40.84
800.095	43.55
800.27	47.35
800.445	48.47
800.62	43.17
800.795	43.53
800.97	45.24
801.145	43.3
801.319	44.58
801.494	44.28
801.669	45.03
801.844	46.84
802.018	47.05
802.193	44.49
802.368	43.56
802.543	45.78
802.717	45.4
802.892	42.88
803.067	41.43
803.241	40.1
803.416	42.94
803.59	41.71
803.765	42.47
803.94	40.87
804.114	38.88
804.289	34.92
804.463	37.51
804.638	38.86
804.812	42.36
804.986	43.51
805.161	45.61
805.335	45.11
805.51	46.68
805.684	46.19
805.858	46.14
806.033	45.95
806.207	47.55
806.381	46.8
806.556	46.18
806.73	45.07
806.904	46.86
807.078	46.52
807.253	47.09
807.427	45.87
807.601	44.16
807.775	44.59
807.949	43.22
808.123	46.99
808.298	43.64
808.472	44.12
808.646	44.79
808.82	44.05
808.994	41.98
809.168	40.83
809.342	37.36
809.516	38.76
809.69	38.41
809.864	35.79
810.038	33.62
810.212	36.63
810.385	33.57
810.559	29.59
810.733	28.26
810.907	29.03
811.081	28.02
811.255	32.78
811.428	29.46
811.602	30.57
811.776	37.79
811.95	38.05
812.123	39.23
812.297	39.98
812.471	44.95
812.644	44.4
812.818	42.41
812.992	43.44
813.165	45.05
813.339	45.47
813.512	42.25
813.686	40.63
813.86	43.28
814.033	42.35
814.207	45.55
814.38	42.64
814.554	42.32
814.727	43.85
814.9	43.85
815.074	38.32
815.247	39.93
815.421	40.33
815.594	39.1
815.767	34.49
815.941	33.56
816.114	30.69
816.287	28.68
816.46	30.82
816.634	35.16
816.807	33.81
816.98	32.96
817.153	28.97
817.327	27.97
817.5	31.94
817.673	30.86
817.846	29.69
818.019	33.62
818.192	33.77
818.365	32.65
818.538	30.75
818.711	30.1
818.884	34.26
819.057	39.85
819.23	42.41
819.403	40.69
819.576	43.46
819.749	38.45
819.922	34.33
820.095	37.39
820.268	36.74
820.441	36.19
820.614	38.64
820.786	36.2
820.959	34.04
821.132	31.52
821.305	31.52
821.477	29.27
821.65	31.07
821.823	29.7
821.996	29.28
822.168	28.94
822.341	28.34
822.514	27.68
822.686	28.19
822.859	28.42
823.031	29.04
823.204	28.86
823.376	28.68
823.549	28.91
823.722	29.28
823.894	28.66
824.067	28.77
824.239	28.05
824.411	27.8
824.584	27.34
824.756	27.73
824.929	27.45
825.101	27.36
825.273	27.56
825.446	27.05
825.618	29.07
825.79	28.51
825.963	29.66
826.135	32.43
826.307	33.52
826.479	33.4
826.652	34
826.824	34.37
826.996	34.31
827.168	34.56
827.34	34.43
827.512	33.32
827.684	34.09
827.856	32.85
828.029	30.87
828.201	29.29
828.373	29.28
828.545	28
828.717	28.53
828.889	27.98
829.061	27.32
829.232	27.18
829.404	25.91
829.576	24.42
829.748	23.9
829.92	25.22
830.092	26.84
830.264	27.74
830.436	26.48
830.607	26.22
830.779	25.66
830.951	28.3
831.123	28.82
831.294	32.05
831.466	34.67
831.638	40.78
831.809	41.41
831.981	39.73
832.153	40.73
832.324	41.66
832.496	39.25
832.667	43.15
832.839	40.97
833.011	38.82
833.182	34.84
833.354	35.43
833.525	29.25
833.697	29.42
833.868	29.77
834.039	29.98
834.211	30.57
834.382	31.93
834.554	29.59
834.725	29.05
834.896	28.88
835.068	30.41
835.239	29.79
835.41	30.3
835.581	28.7
835.753	27.75
835.924	26.62
836.095	24.55
836.266	24.36
836.438	24.42
836.609	22.2
836.78	24.61
836.951	23.98
837.122	24.23
837.293	25.65
837.464	28.21
837.635	32.68
837.806	33.54
837.977	41.09
838.148	41.66
838.319	44.55
838.49	53.91
838.661	49.74
838.832	50.82
839.003	55.2
839.174	53.57
839.345	45.86
839.516	41.96
839.687	40.96
839.857	43.43
840.028	45.98
840.199	46.7
840.37	40.95
840.54	44.42
840.711	45.37
840.882	43.04
841.053	42.6
841.223	43.23
841.394	48.68
841.564	53.54
841.735	47.73
841.906	47.57
842.076	46.55
842.247	50.64
842.417	52.95
842.588	56.33
842.758	62.94
842.929	66.02
843.099	75.63
843.27	71.83
843.44	76.68
843.611	72.81
843.781	70.83
843.951	68.63
844.122	70.91
844.292	83.98
844.462	84.16
844.633	80.97
844.803	86.18
844.973	90.05
845.144	84.49
845.314	84.01
845.484	83.25
845.654	87.6
845.824	97.08
845.995	99.37
846.165	74.49
846.335	72.83
846.505	72.9
846.675	77.23
846.845	70.51
847.015	80.4
847.185	73.14
847.355	102.56
847.525	93.56
847.695	81.7
847.865	73.27
848.035	101.15
848.205	97.21
848.375	92.82
848.545	79.19
848.715	85.84
848.884	79.08
849.054	88.72
849.224	71.1
849.394	71.24
849.564	73.14
849.733	91.36
849.903	77.99
850.073	106.06
850.243	112.42
850.412	114.31
850.582	104.68
850.752	120.64
850.921	127.4
851.091	106.77
851.26	103.07
851.43	83.16
851.599	71.36
851.769	68.31
851.939	62
852.108	51.86
852.278	47.08
852.447	61.56
852.616	50.29
852.786	48.94
852.955	62.82
853.125	70.18
853.294	86.86
853.463	93.41
853.633	71.89
853.802	66.27
853.971	52.19
854.141	49.46
854.31	54.45
854.479	49.33
854.648	51.92
854.818	33.73
854.987	42.56
855.156	41.88
855.325	-10.93
855.494	36.32
855.663	11
855.832	50.84
856.001	66.25
856.171	44.8
856.34	59.58
856.509	67.12
856.678	90.86
856.847	83.73
857.016	80.21
857.185	92.88
857.353	88.9
857.522	89.35
857.691	100.2
857.86	93.89
858.029	80.97
858.198	78.68
858.367	82.98
858.535	89.71
858.704	82.22
858.873	74
859.042	62.41
859.21	52.62
859.379	64.76
859.548	64.49
859.717	68.15
859.885	77.44
860.054	78.55
860.222	77.19
860.391	58.08
860.56	61.36
860.728	58.56
860.897	82.61
861.065	85.37
861.234	66.51
861.402	80.92
861.571	85.84
861.739	82.21
861.908	89.95
862.076	85.26
862.244	82.29
862.413	87.88
862.581	85.39
862.749	70
862.918	65.63
863.086	65.43
863.254	50.12
863.423	38.23
863.591	34.51
863.759	32.09
863.927	21.55
864.096	34.78
864.264	35.55
864.432	21.33
864.6	27.02
864.768	37.29
864.936	27.65
865.104	39.19
865.272	49.05
865.44	78.02
865.608	62.98
865.776	61.93
865.944	52.93
866.112	62.97
866.28	80.76
866.448	108.49
866.616	101.82
866.784	140.64
866.952	124
867.12	132.95
867.288	118.51
867.455	125.34
867.623	133.62
867.791	134.29
867.959	127.13
868.127	94.47
868.294	82.36
868.462	91.79
868.63	96.44
868.797	103.27
868.965	96.16
869.133	85.42
869.3	79.96
869.468	77.27
869.636	51.88
869.803	44.99
869.971	52.35
870.138	57.01
870.306	57.53
870.473	52.04
870.641	47.93
870.808	48.77
870.975	66.05
871.143	63.72
871.31	62.6
871.478	82.24
871.645	106.75
871.812	102.22
871.98	121.54
872.147	124.73
872.314	131.75
872.482	175.29
872.649	260.83
872.816	398.13
872.983	393.65
873.15	690.92
873.318	473.53
873.485	298.1
873.652	349.75
873.819	392.86
873.986	252.25
874.153	169.99
874.32	67.97
874.487	59.9
874.654	35.91
874.821	28.21
874.988	31.86
875.155	42.45
875.322	36.38
875.489	36.66
875.656	36.42
875.823	34.42
875.99	23.78
876.157	46.22
876.324	34.05
876.49	59.13
876.657	83.83
876.824	75.97
876.991	73.16
877.157	105.78
877.324	118.2
877.491	125.75
877.658	95.5
877.824	105.88
877.991	89.49
878.157	112.46
878.324	93.46
878.491	108.48
878.657	126.37
878.824	114.15
878.99	126.94
879.157	118.32
879.323	103.76
879.49	119.1
879.656	158.77
879.823	166.68
879.989	108.88
880.156	88.56
880.322	35.21
880.488	32.56
880.655	20.51
880.821	20.89
880.987	38.25
881.154	46.72
881.32	57.32
881.486	44.93
881.652	48.82
881.819	46.06
881.985	44.2
882.151	45.62
882.317	43.37
882.483	40.06
882.649	40.27
882.816	36.79
882.982	34.64
883.148	34.3
883.314	34.81
883.48	34.82
883.646	35.88
883.812	31.92
883.978	31.73
884.144	32.37
884.31	33.91
884.476	33.08
884.642	32.89
884.807	35.76
884.973	31.97
885.139	35.6
885.305	36.14
885.471	35.07
885.637	38.14
885.802	38.91
885.968	37.04
886.134	36.84
886.3	36.64
886.465	32.27
886.631	24.4
886.797	30.84
886.962	22.45
887.128	20.7
887.293	13.27
887.459	22.04
887.625	13.32
887.79	23.77
887.956	21.71
888.121	25.87
888.287	40.88
888.452	50.3
888.618	27.1
888.783	35.82
