Data from 2938112_Reflection_3.txt Node
Date: Sat Jul 11 18:22:56 EDT 2015
User: robert
Spectrometer: USB4E03001
Autoset integration time: false
Trigger mode: 4
Integration Time (sec): 1.000000E-1
Scans to average: 10
Electric dark correction enabled: true
Nonlinearity correction enabled: false
Boxcar width: 5
Stray light correction enabled: false
XAxis mode: Wavelengths
Stop averaging: false
Number of Pixels in Spectrum: 3648
>>>>>Begin Spectral Data<<<<<
177.566	13.03
177.785	77.35
178.005	-170.49
178.225	-115.98
178.445	-108.04
178.665	-2712.9
178.885	-290.22
179.105	140.6
179.324	56.66
179.544	21.49
179.764	148.8
179.984	-597.93
180.204	-53.28
180.423	-4.76
180.643	-2.04
180.863	-27.24
181.083	-16.95
181.302	10.41
181.522	-20.15
181.742	7.35
181.961	-620.41
182.181	264.28
182.401	217.88
182.621	78.14
182.84	113.62
183.06	122.07
183.279	3.63
183.499	-9.19
183.719	14.55
183.938	47.01
184.158	39.46
184.377	-90.73
184.597	-142.86
184.816	-101.87
185.036	-3.65
185.256	-89.94
185.475	46.9
185.695	94.63
185.914	71.12
186.134	171.99
186.353	197.17
186.572	371.68
186.792	-212.64
187.011	-125.84
187.231	-97.65
187.45	-62.21
187.67	-40.8
187.889	-8.37
188.108	-62.81
188.328	-77.54
188.547	-52.27
188.766	-64.72
188.986	1001.7
189.205	471.74
189.424	291.05
189.644	190.51
189.863	233.3
190.082	385.97
190.302	340.28
190.521	316.38
190.74	228.46
190.959	860
191.178	17190.48
191.398	1843.23
191.617	-77.38
191.836	-95.69
192.055	-53.15
192.274	-23.06
192.494	42.34
192.713	29.75
192.932	173.63
193.151	1789.36
193.37	-41000
193.589	60.45
193.808	-106.71
194.027	-26.18
194.246	-43.91
194.465	-24.25
194.685	18.65
194.904	63.03
195.123	55.85
195.342	20.26
195.561	27.1
195.78	41.4
195.999	61.67
196.218	57.98
196.436	33.36
196.655	13.35
196.874	32.2
197.093	28.51
197.312	23.68
197.531	25.31
197.75	-7.86
197.969	-56.69
198.188	-155.99
198.407	-48.78
198.625	-24.19
198.844	-42.24
199.063	36.53
199.282	1697.25
199.501	-230.32
199.719	-4332.88
199.938	401.9
200.157	-13.6
200.376	72.87
200.594	80
200.813	526.14
201.032	140.89
201.251	155.14
201.469	102.55
201.688	103.66
201.907	105.75
202.125	101.34
202.344	104.28
202.563	95.7
202.781	146.16
203	160.81
203.218	138.58
203.437	98.83
203.656	116.28
203.874	125.96
204.093	127.92
204.311	154.73
204.53	127.46
204.748	176.74
204.967	152.57
205.185	126.89
205.404	109.29
205.622	136.19
205.841	309.19
206.059	172.48
206.278	169.86
206.496	197.69
206.715	193.59
206.933	293.56
207.151	-243.9
207.37	-408.87
207.588	-96.66
207.806	23.6
208.025	75.88
208.243	-72.41
208.461	-166.99
208.68	-399.81
208.898	1160.14
209.116	688.87
209.335	167.41
209.553	-114.19
209.771	-353.8
209.989	-47.39
210.208	-120.79
210.426	340
210.644	54.66
210.862	-16.78
211.081	11.4
211.299	-31.9
211.517	5.2
211.735	60.86
211.953	150.8
212.171	88.55
212.39	97.84
212.608	104.13
212.826	138.65
213.044	117.04
213.262	127.48
213.48	56.01
213.698	88.2
213.916	86.33
214.134	39.8
214.352	-5.89
214.57	-46.98
214.788	-198.55
215.006	-1594.5
215.224	-13772.22
215.442	-521.07
215.66	-1797.54
215.878	42.02
216.096	54.02
216.314	1044.74
216.532	1319.64
216.75	-4.37
216.968	340.74
217.185	122.76
217.403	132.58
217.621	63.74
217.839	45.59
218.057	77.21
218.275	-310
218.492	-59.01
218.71	-52.72
218.928	-12
219.146	1.46
219.363	20.41
219.581	-7.36
219.799	-47.58
220.017	-35.61
220.234	-14.97
220.452	-9.41
220.67	3.69
220.887	12.95
221.105	25.08
221.323	26.18
221.54	39.88
221.758	41.24
221.976	36.83
222.193	59.7
222.411	44.32
222.629	23.31
222.846	9.49
223.064	10.95
223.281	16.5
223.499	22.13
223.716	24.85
223.934	12.41
224.151	16.5
224.369	19.21
224.586	9.81
224.804	5.71
225.021	-0.93
225.239	16.22
225.456	11.65
225.674	-2
225.891	-30.94
226.108	-8.43
226.326	-13.25
226.543	-14.93
226.76	-16.17
226.978	-15.71
227.195	4.54
227.413	14.89
227.63	9.35
227.847	3.39
228.064	2.71
228.282	-0.05
228.499	-4.08
228.716	-0.83
228.934	1.75
229.151	4.35
229.368	10.89
229.585	7.26
229.802	9.21
230.02	13.03
230.237	16.22
230.454	18.42
230.671	21.57
230.888	23.16
231.105	25
231.323	22.3
231.54	20.05
231.757	14.93
231.974	19.23
232.191	18.78
232.408	10.11
232.625	10.85
232.842	11.36
233.059	15.29
233.276	17.72
233.493	18.62
233.71	19.36
233.927	22.25
234.144	17.16
234.361	15.9
234.578	12.26
234.795	16.41
235.012	15.87
235.229	12.59
235.446	6.09
235.663	2
235.879	7.77
236.096	8.85
236.313	8.2
236.53	10.92
236.747	11.55
236.964	16.63
237.181	13.41
237.397	12.96
237.614	7.14
237.831	13.56
238.048	11.95
238.264	0.54
238.481	3.42
238.698	3.4
238.915	3.12
239.131	3.88
239.348	0.08
239.565	2.06
239.781	0.15
239.998	2.92
240.215	5.7
240.431	10.23
240.648	9.42
240.865	9.68
241.081	11.86
241.298	10.3
241.514	12.12
241.731	10.27
241.947	10.76
242.164	10.61
242.38	11.47
242.597	6.57
242.814	3.92
243.03	5.04
243.246	2.68
243.463	1.82
243.679	2.44
243.896	-1.41
244.112	0.79
244.329	-2.9
244.545	-1.77
244.762	-1.63
244.978	3.19
245.194	5
245.411	7.5
245.627	8.2
245.843	7.61
246.06	6.67
246.276	7.57
246.492	7.76
246.709	8.66
246.925	8.29
247.141	8.52
247.357	8.27
247.574	7.24
247.79	6.04
248.006	5.14
248.222	6.02
248.439	5.95
248.655	5.39
248.871	4.77
249.087	5.01
249.303	4.48
249.519	2.8
249.736	1.17
249.952	2.19
250.168	-0.21
250.384	3.65
250.6	1.45
250.816	2.33
251.032	2.95
251.248	-0.47
251.464	-0.56
251.68	-1.07
251.896	-0.25
252.112	0.01
252.328	1.87
252.544	2.66
252.76	1.35
252.976	2.01
253.192	2.54
253.408	3.43
253.624	7.19
253.84	6.74
254.056	7.97
254.272	13.21
254.487	17.7
254.703	18.19
254.919	24.03
255.135	22.3
255.351	23.4
255.567	27.44
255.782	25.45
255.998	22.21
256.214	20.85
256.43	21.76
256.646	17.47
256.861	12.01
257.077	10.97
257.293	6.91
257.508	6.4
257.724	1.38
257.94	-2.69
258.155	-2.35
258.371	-1.41
258.587	-0.37
258.802	-2.3
259.018	-1.03
259.234	1.21
259.449	1.84
259.665	1.79
259.88	2.13
260.096	3.61
260.312	4.03
260.527	4.5
260.743	5.09
260.958	5.05
261.174	5.69
261.389	5.3
261.605	4.41
261.82	3.42
262.036	3.53
262.251	3.3
262.466	2.85
262.682	3.44
262.897	4.21
263.113	3.46
263.328	3.81
263.543	6.13
263.759	7.11
263.974	8.67
264.189	9.56
264.405	8.36
264.62	10.27
264.835	9.62
265.051	10.79
265.266	9.5
265.481	8.25
265.696	7.23
265.912	3.11
266.127	1.86
266.342	0.15
266.557	0.25
266.773	1.33
266.988	-0.12
267.203	0.03
267.418	-1.73
267.633	-1.45
267.848	-1.79
268.064	-1.53
268.279	0.19
268.494	1.27
268.709	0.75
268.924	0.21
269.139	2.26
269.354	3.52
269.569	1.95
269.784	3.64
269.999	3.81
270.214	4.55
270.429	4.18
270.644	4.08
270.859	3.55
271.074	3.85
271.289	3.86
271.504	3.06
271.719	2.83
271.934	4.28
272.149	2.69
272.363	3.43
272.578	4.8
272.793	6.36
273.008	6.09
273.223	6.65
273.438	7.62
273.653	7.76
273.867	7.4
274.082	8.28
274.297	8.87
274.512	10.36
274.726	8.62
274.941	7.43
275.156	5.85
275.371	6.77
275.585	3.73
275.8	2.47
276.015	3.65
276.229	2.22
276.444	2.04
276.659	0.85
276.873	-0.63
277.088	1.71
277.302	3.44
277.517	4.75
277.732	4.8
277.946	7.57
278.161	10.72
278.375	8.25
278.59	12.27
278.804	10.84
279.019	9.47
279.233	9.92
279.448	7.83
279.662	7.55
279.877	7.67
280.091	7.53
280.306	7.05
280.52	5.8
280.735	6.48
280.949	5.95
281.163	5.78
281.378	7.54
281.592	6.9
281.806	7.55
282.021	5.98
282.235	5.9
282.449	6.91
282.664	7.59
282.878	7.25
283.092	9.56
283.307	9
283.521	11.29
283.735	10.58
283.949	10.25
284.164	10.98
284.378	10.57
284.592	10.08
284.806	8.4
285.02	8.26
285.234	8
285.449	5.86
285.663	4.64
285.877	3.58
286.091	5.53
286.305	5.76
286.519	7.04
286.733	7.18
286.947	6.63
287.161	8.75
287.375	8.44
287.589	6.5
287.803	7.55
288.017	8.19
288.231	8.01
288.445	4.99
288.659	5.19
288.873	4.15
289.087	4.49
289.301	5.07
289.515	1.82
289.729	2.63
289.943	3.62
290.157	3.63
290.371	3.22
290.584	4.07
290.798	5.3
291.012	5.16
291.226	4.37
291.44	3.81
291.654	4.22
291.867	5.75
292.081	4.5
292.295	4.09
292.509	3.76
292.722	3.24
292.936	2.17
293.15	1.38
293.364	2.87
293.577	2.93
293.791	4.7
294.005	5.14
294.218	5.03
294.432	5.92
294.645	7.38
294.859	7.15
295.073	8.22
295.286	7.35
295.5	7.13
295.713	5.07
295.927	6.61
296.14	6.14
296.354	6.09
296.568	6.18
296.781	5.5
296.994	5.92
297.208	4.83
297.421	3.85
297.635	3.39
297.848	4.18
298.062	5.55
298.275	5.05
298.489	4.76
298.702	4.17
298.915	4.22
299.129	3.98
299.342	3.13
299.555	3.89
299.769	5.17
299.982	7.4
300.195	6.63
300.409	8.07
300.622	6.94
300.835	6.54
301.048	7.29
301.262	6.36
301.475	6.49
301.688	7.26
301.901	8.72
302.115	7.65
302.328	7.03
302.541	8.05
302.754	5.48
302.967	6.86
303.18	8.28
303.393	7.65
303.607	9.96
303.82	12.6
304.033	13.41
304.246	12.55
304.459	14.45
304.672	12.81
304.885	10.83
305.098	11.74
305.311	11.24
305.524	10.46
305.737	10.99
305.95	8.32
306.163	6.17
306.376	7.35
306.589	7.9
306.802	7.28
307.015	9.08
307.228	12.62
307.44	12.32
307.653	13.94
307.866	14.23
308.079	13.49
308.292	15.24
308.505	15.26
308.718	11.75
308.93	11.08
309.143	8.85
309.356	9.54
309.569	6.93
309.781	7.72
309.994	5.24
310.207	5.16
310.42	6.74
310.632	7.42
310.845	7.85
311.058	9.11
311.27	9
311.483	10.76
311.696	10.88
311.908	12.03
312.121	11.61
312.333	13.86
312.546	14.09
312.759	13.52
312.971	11.64
313.184	10.96
313.396	11.6
313.609	10.53
313.821	9.74
314.034	10.74
314.246	8.78
314.459	8.44
314.671	7.6
314.884	7.98
315.096	9.06
315.309	8.47
315.521	9.92
315.733	9.98
315.946	13.16
316.158	15.05
316.371	13.31
316.583	14.07
316.795	14.48
317.008	12.71
317.22	12.06
317.432	10.29
317.644	12
317.857	10.17
318.069	9.87
318.281	10.72
318.494	7.78
318.706	6.52
318.918	6.22
319.13	7.5
319.342	8.13
319.555	7.73
319.767	7.57
319.979	7.88
320.191	9.02
320.403	7.75
320.615	5.77
320.827	8.37
321.039	8.24
321.252	10.55
321.464	8.61
321.676	7.63
321.888	7.73
322.1	8.04
322.312	7.29
322.524	6.97
322.736	7.58
322.948	7.67
323.16	7.28
323.372	8.81
323.584	9.5
323.796	12.55
324.007	12.88
324.219	15.03
324.431	14.44
324.643	14.09
324.855	13.93
325.067	14.37
325.279	13.42
325.491	14.34
325.702	14.73
325.914	14.05
326.126	12.83
326.338	11.45
326.55	8.07
326.761	9.02
326.973	9.45
327.185	9.93
327.396	8.49
327.608	9.93
327.82	10.92
328.032	11.3
328.243	10.04
328.455	9.74
328.666	11.75
328.878	14.34
329.09	14.07
329.301	15.18
329.513	16.58
329.725	19.97
329.936	20.03
330.148	17.5
330.359	17.33
330.571	19.89
330.782	20.43
330.994	18.1
331.205	18.91
331.417	20.19
331.628	19.6
331.84	18.13
332.051	16.38
332.262	17.37
332.474	19.98
332.685	19.98
332.897	18.74
333.108	18.13
333.319	21.87
333.531	21.18
333.742	19.8
333.953	22.26
334.165	23.34
334.376	23.67
334.587	23.53
334.799	22.58
335.01	22.45
335.221	23.98
335.432	24.13
335.644	21.89
335.855	20.55
336.066	20.53
336.277	20.05
336.488	19.14
336.7	18.53
336.911	16.98
337.122	15.83
337.333	16.52
337.544	14.61
337.755	13.55
337.966	14.64
338.177	17.25
338.388	18.16
338.599	16.5
338.811	16.03
339.022	16.22
339.233	16.43
339.444	17.1
339.655	15.85
339.866	16.3
340.076	17.6
340.287	17.51
340.498	16.89
340.709	17.28
340.92	18.71
341.131	20
341.342	19.65
341.553	20.19
341.764	20.01
341.975	20.11
342.185	20.93
342.396	21.45
342.607	21.21
342.818	20.63
343.029	20.26
343.239	19.29
343.45	18.73
343.661	19.44
343.872	20.5
344.082	20.81
344.293	21.81
344.504	22.49
344.714	22.18
344.925	22.59
345.136	23.62
345.346	21.47
345.557	22.46
345.768	23.28
345.978	23.41
346.189	23.19
346.399	24.24
346.61	24.18
346.821	24.79
347.031	25.2
347.242	24.85
347.452	24
347.663	25.9
347.873	26.37
348.084	26.65
348.294	26.85
348.504	28.09
348.715	26.89
348.925	27.02
349.136	24.97
349.346	23.89
349.557	24.15
349.767	24.77
349.977	26.42
350.188	23.77
350.398	23.77
350.608	23.28
350.819	21.36
351.029	21.16
351.239	20.84
351.449	22.4
351.66	22.03
351.87	22.01
352.08	22.12
352.29	21.06
352.501	21.94
352.711	21.58
352.921	21.94
353.131	22
353.341	22.6
353.552	23.53
353.762	21.23
353.972	21.81
354.182	22.9
354.392	21.78
354.602	21.87
354.812	23.13
355.022	22.98
355.232	24.44
355.442	24.41
355.652	24.22
355.862	22.08
356.072	23.73
356.282	23.59
356.492	23.17
356.702	23.51
356.912	24.13
357.122	23.37
357.332	25.09
357.542	23.23
357.752	23.55
357.962	23.22
358.171	25.39
358.381	24.61
358.591	25.57
358.801	25.2
359.011	26.12
359.221	25.69
359.43	26.31
359.64	24.68
359.85	24.93
360.06	25.91
360.269	26.63
360.479	26.31
360.689	27.32
360.899	26.07
361.108	26.13
361.318	25.45
361.528	24.81
361.737	25.03
361.947	24.38
362.156	24.16
362.366	24.1
362.576	24.41
362.785	24.52
362.995	24.35
363.204	25.06
363.414	25.63
363.623	25.24
363.833	25.84
364.042	25.19
364.252	26.14
364.461	27.59
364.671	26.49
364.88	25.68
365.09	25.7
365.299	25.7
365.509	26.14
365.718	25.71
365.927	26.83
366.137	27.82
366.346	28.7
366.555	29.14
366.765	28.66
366.974	29.15
367.183	29.29
367.393	28.38
367.602	27.02
367.811	27.17
368.021	26.15
368.23	26.16
368.439	26.12
368.648	24.93
368.857	24.99
369.067	24.71
369.276	24.77
369.485	24.63
369.694	24.68
369.903	26.81
370.112	26.31
370.321	27.74
370.531	26.79
370.74	26.85
370.949	26.7
371.158	25.02
371.367	25.19
371.576	24.7
371.785	24.88
371.994	25.31
372.203	24.45
372.412	24.39
372.621	24.33
372.83	24.81
373.039	23.65
373.248	23.86
373.457	24.6
373.666	24.52
373.874	24.87
374.083	24.73
374.292	24.45
374.501	24.04
374.71	22.63
374.919	21.99
375.128	21.49
375.336	22.27
375.545	22.44
375.754	22.9
375.963	22.79
376.171	22.15
376.38	21.47
376.589	22.44
376.798	23
377.006	23.82
377.215	24.37
377.424	24.47
377.632	24.5
377.841	24.42
378.05	24.53
378.258	25.44
378.467	26.74
378.675	27.78
378.884	27.28
379.093	26.98
379.301	26.97
379.51	26.67
379.718	27.2
379.927	26.93
380.135	26.78
380.344	26
380.552	24.71
380.761	23.93
380.969	24.34
381.177	24.63
381.386	23.77
381.594	23.9
381.803	23.74
382.011	23.8
382.219	23.29
382.428	24.03
382.636	24.4
382.845	24.24
383.053	24.59
383.261	23.29
383.469	22.71
383.678	22.97
383.886	22.79
384.094	23.19
384.302	23.06
384.511	23.19
384.719	22.07
384.927	21.82
385.135	22.02
385.343	21.29
385.552	21.94
385.76	22.01
385.968	21.96
386.176	22.51
386.384	22.06
386.592	21.82
386.8	22.38
387.008	23.07
387.216	23.21
387.424	23.11
387.633	23.4
387.841	23.32
388.049	23.77
388.257	24.38
388.465	23.72
388.672	23.6
388.88	23.43
389.088	22.86
389.296	22.46
389.504	22.16
389.712	22.56
389.92	22.42
390.128	22.09
390.336	21.5
390.544	21.07
390.751	21.34
390.959	21.42
391.167	21.91
391.375	21.97
391.583	22.13
391.79	22.5
391.998	22.27
392.206	22.61
392.414	22.67
392.621	22.79
392.829	23.08
393.037	22.94
393.244	23.04
393.452	22.85
393.66	23.01
393.867	23.22
394.075	22.91
394.283	23.21
394.49	23.17
394.698	23.54
394.905	23.28
395.113	22.93
395.32	22.82
395.528	22.76
395.735	22.7
395.943	22.87
396.15	22.97
396.358	23.3
396.565	23.13
396.773	23.26
396.98	22.86
397.188	23.31
397.395	23.45
397.602	23.63
397.81	23.83
398.017	24.06
398.225	23.9
398.432	23.61
398.639	23.88
398.847	24.06
399.054	23.68
399.261	23.82
399.468	23.7
399.676	24.1
399.883	24.46
400.09	24.57
400.297	24.37
400.505	24.41
400.712	24.69
400.919	24.73
401.126	24.86
401.333	25.2
401.54	25.44
401.748	25.67
401.955	25.49
402.162	25.49
402.369	25.57
402.576	25.58
402.783	25.56
402.99	25.73
403.197	25.62
403.404	25.57
403.611	25.47
403.818	25.29
404.025	25.35
404.232	25.51
404.439	25.46
404.646	25.58
404.853	25.89
405.06	25.96
405.267	25.72
405.474	25.8
405.681	25.75
405.887	25.94
406.094	26.2
406.301	26.19
406.508	26.24
406.715	26.2
406.922	26.23
407.128	25.86
407.335	25.72
407.542	25.78
407.749	25.58
407.955	25.49
408.162	25.44
408.369	25.31
408.575	25.3
408.782	25.11
408.989	25.29
409.195	25.26
409.402	25.56
409.609	25.75
409.815	25.81
410.022	25.91
410.228	26.05
410.435	25.84
410.642	25.9
410.848	25.86
411.055	25.96
411.261	25.93
411.468	25.86
411.674	25.7
411.881	25.71
412.087	25.62
412.294	25.62
412.5	25.44
412.706	25.6
412.913	25.75
413.119	25.77
413.326	25.42
413.532	25.38
413.738	25.46
413.945	25.26
414.151	25.2
414.357	25.22
414.564	25.06
414.77	25.16
414.976	25.2
415.182	24.98
415.389	24.51
415.595	24.49
415.801	24.35
416.007	24.26
416.214	24.57
416.42	24.57
416.626	24.55
416.832	24.72
417.038	24.69
417.244	24.65
417.45	24.53
417.657	24.82
417.863	25
418.069	24.99
418.275	24.88
418.481	24.65
418.687	24.52
418.893	24.5
419.099	24.59
419.305	24.53
419.511	24.45
419.717	24.44
419.923	24.36
420.129	24.21
420.335	24.26
420.541	24.35
420.746	24.46
420.952	24.48
421.158	24.58
421.364	24.44
421.57	24.43
421.776	24.41
421.982	24.47
422.187	24.6
422.393	24.63
422.599	24.64
422.805	24.49
423.01	24.41
423.216	24.32
423.422	24.11
423.628	24.04
423.833	24.03
424.039	24.21
424.245	24.12
424.45	24
424.656	24.02
424.862	23.95
425.067	23.92
425.273	23.95
425.478	24.1
425.684	24.17
425.889	24.22
426.095	24.18
426.301	24.02
426.506	24.15
426.712	24.14
426.917	24.12
427.123	24
427.328	24.05
427.533	23.98
427.739	23.81
427.944	24.1
428.15	23.94
428.355	24.03
428.561	24.15
428.766	24.03
428.971	24.18
429.177	24.18
429.382	24.17
429.587	24.25
429.793	24.19
429.998	24.33
430.203	23.84
430.408	23.94
430.614	23.94
430.819	23.99
431.024	23.97
431.229	23.95
431.434	23.84
431.64	23.9
431.845	23.65
432.05	23.58
432.255	23.54
432.46	23.66
432.665	23.64
432.87	23.4
433.076	23.16
433.281	23.13
433.486	22.96
433.691	23.16
433.896	23.12
434.101	23.31
434.306	23.4
434.511	23.3
434.716	23.33
434.921	23.38
435.126	23.63
435.331	23.86
435.535	23.73
435.74	23.8
435.945	23.46
436.15	23.64
436.355	23.57
436.56	23.6
436.765	23.77
436.97	23.83
437.174	23.78
437.379	23.67
437.584	23.51
437.789	23.54
437.993	23.62
438.198	23.9
438.403	23.79
438.608	23.82
438.812	23.76
439.017	23.59
439.222	23.37
439.426	23.52
439.631	23.44
439.836	23.24
440.04	23.34
440.245	23.2
440.45	23.19
440.654	23.25
440.859	23.13
441.063	23.19
441.268	23.08
441.472	23.19
441.677	23.16
441.881	23.19
442.086	23.38
442.29	23.26
442.495	23.3
442.699	23.24
442.904	23.04
443.108	23.02
443.312	23.05
443.517	23.06
443.721	23.16
443.925	23.01
444.13	23.06
444.334	22.89
444.538	23.03
444.743	23.09
444.947	22.94
445.151	23.03
445.356	23.16
445.56	23.15
445.764	23.32
445.968	23.26
446.173	23.46
446.377	23.47
446.581	23.51
446.785	23.4
446.989	23.34
447.193	23.5
447.398	23.55
447.602	23.55
447.806	23.46
448.01	23.38
448.214	23.46
448.418	23.28
448.622	23.35
448.826	23.44
449.03	23.56
449.234	23.64
449.438	23.65
449.642	23.49
449.846	23.58
450.05	23.64
450.254	23.75
450.458	23.64
450.662	23.55
450.866	23.15
451.069	22.9
451.273	23.09
451.477	23.06
451.681	23.04
451.885	23.04
452.089	22.91
452.292	22.9
452.496	22.74
452.7	22.61
452.904	22.5
453.107	22.6
453.311	22.88
453.515	22.74
453.719	22.68
453.922	22.54
454.126	22.5
454.33	22.46
454.533	22.39
454.737	22.39
454.94	22.6
455.144	22.75
455.348	22.96
455.551	22.79
455.755	22.63
455.958	22.75
456.162	22.69
456.365	22.9
456.569	22.89
456.772	22.95
456.976	22.94
457.179	22.69
457.383	22.81
457.586	22.7
457.79	22.8
457.993	22.81
458.196	22.82
458.4	23.09
458.603	23.04
458.807	23.1
459.01	23.08
459.213	23.12
459.417	23.16
459.62	23.03
459.823	22.98
460.026	22.89
460.23	22.95
460.433	22.86
460.636	22.78
460.839	22.96
461.042	22.75
461.246	22.74
461.449	22.76
461.652	22.71
461.855	22.83
462.058	22.73
462.261	22.91
462.464	23.03
462.668	23.06
462.871	22.91
463.074	22.8
463.277	23.05
463.48	23.09
463.683	23
463.886	23.16
464.089	23.02
464.292	23.28
464.495	23.18
464.698	23.14
464.901	23.31
465.104	23.39
465.306	23.25
465.509	23.18
465.712	23.26
465.915	23.21
466.118	23.16
466.321	23.38
466.524	23.42
466.726	23.43
466.929	23.41
467.132	23.19
467.335	23.21
467.538	23.25
467.74	23.31
467.943	23.34
468.146	23.5
468.348	23.4
468.551	23.33
468.754	23.27
468.956	23.29
469.159	23.17
469.362	23.31
469.564	23.37
469.767	23.46
469.969	23.42
470.172	23.48
470.375	23.46
470.577	23.37
470.78	23.38
470.982	23.45
471.185	23.37
471.387	23.68
471.59	23.63
471.792	23.71
471.995	23.72
472.197	23.82
472.399	23.63
472.602	23.63
472.804	23.83
473.007	23.71
473.209	23.63
473.411	23.78
473.614	23.56
473.816	23.6
474.018	23.6
474.22	23.55
474.423	23.35
474.625	23.51
474.827	23.48
475.03	23.48
475.232	23.56
475.434	23.64
475.636	23.52
475.838	23.49
476.04	23.49
476.243	23.23
476.445	23.42
476.647	23.67
476.849	23.61
477.051	23.62
477.253	23.69
477.455	23.65
477.657	23.68
477.859	23.71
478.061	23.7
478.263	23.69
478.465	23.98
478.667	23.61
478.869	23.59
479.071	23.51
479.273	23.59
479.475	23.52
479.677	23.64
479.879	23.49
480.081	23.5
480.283	23.56
480.485	23.61
480.686	23.43
480.888	23.64
481.09	23.55
481.292	23.59
481.494	23.46
481.695	23.52
481.897	23.47
482.099	23.64
482.301	23.68
482.502	23.56
482.704	23.58
482.906	23.6
483.107	23.6
483.309	23.66
483.511	23.71
483.712	23.74
483.914	23.76
484.115	23.72
484.317	23.74
484.519	23.75
484.72	23.81
484.922	23.75
485.123	23.72
485.325	23.73
485.526	23.74
485.728	23.72
485.929	23.77
486.131	23.72
486.332	23.83
486.534	23.7
486.735	23.58
486.936	23.51
487.138	23.56
487.339	23.52
487.541	23.53
487.742	23.43
487.943	23.26
488.144	23.17
488.346	23.15
488.547	23.09
488.748	23.22
488.95	23.24
489.151	23.35
489.352	23.38
489.553	23.5
489.755	23.59
489.956	23.64
490.157	23.83
490.358	23.95
490.559	23.98
490.76	23.92
490.961	23.79
491.163	23.74
491.364	23.7
491.565	23.66
491.766	23.56
491.967	23.43
492.168	23.39
492.369	23.33
492.57	23.25
492.771	23.19
492.972	23.22
493.173	23.09
493.374	23.14
493.575	23.09
493.776	23.07
493.976	23.08
494.177	23.16
494.378	23.09
494.579	23.19
494.78	23.11
494.981	23.16
495.182	23.22
495.382	23.48
495.583	23.5
495.784	23.49
495.985	23.35
496.185	23.47
496.386	23.39
496.587	23.53
496.788	23.48
496.988	23.57
497.189	23.57
497.39	23.46
497.59	23.34
497.791	23.4
497.992	23.5
498.192	23.64
498.393	23.57
498.593	23.54
498.794	23.51
498.994	23.52
499.195	23.59
499.395	23.78
499.596	23.85
499.796	23.97
499.997	23.94
500.197	23.75
500.398	23.8
500.598	23.73
500.799	23.78
500.999	23.81
501.199	24.03
501.4	24.03
501.6	23.98
501.801	23.95
502.001	23.86
502.201	23.81
502.402	23.91
502.602	23.92
502.802	24.12
503.002	24.16
503.203	24.13
503.403	24.01
503.603	23.84
503.803	23.79
504.003	23.74
504.204	23.77
504.404	23.99
504.604	24.02
504.804	24.09
505.004	24.04
505.204	23.98
505.404	24
505.604	24.03
505.804	24.11
506.005	24.1
506.205	24.19
506.405	24.31
506.605	24.07
506.805	24.22
507.005	24.26
507.204	24.18
507.404	24.26
507.604	24.4
507.804	24.38
508.004	24.41
508.204	24.44
508.404	24.52
508.604	24.41
508.804	24.51
509.003	24.44
509.203	24.29
509.403	24.37
509.603	24.46
509.803	24.52
510.002	24.46
510.202	24.59
510.402	24.78
510.602	24.79
510.801	24.82
511.001	24.88
511.201	24.84
511.4	25.03
511.6	25.11
511.8	24.96
511.999	24.96
512.199	25.06
512.398	24.87
512.598	24.73
512.797	24.59
512.997	24.63
513.197	24.7
513.396	24.76
513.596	24.68
513.795	24.67
513.994	24.76
514.194	24.66
514.393	24.46
514.593	24.63
514.792	24.6
514.992	24.83
515.191	24.98
515.39	24.97
515.59	25.1
515.789	25.12
515.988	25.12
516.188	25.18
516.387	25.16
516.586	25.24
516.786	25.15
516.985	25.31
517.184	25.18
517.383	25.03
517.582	25.06
517.782	24.99
517.981	25.05
518.18	24.99
518.379	25.1
518.578	25.12
518.777	25.3
518.976	25.42
519.176	25.32
519.375	25.33
519.574	25.55
519.773	25.5
519.972	25.53
520.171	25.58
520.37	25.74
520.569	25.59
520.768	25.58
520.967	25.5
521.166	25.44
521.365	25.49
521.564	25.63
521.762	25.55
521.961	25.63
522.16	25.72
522.359	25.73
522.558	25.86
522.757	25.92
522.956	25.94
523.154	25.96
523.353	25.99
523.552	26.08
523.751	26.02
523.949	25.93
524.148	25.86
524.347	25.71
524.546	25.64
524.744	25.47
524.943	25.59
525.142	25.69
525.34	25.73
525.539	25.77
525.737	25.78
525.936	25.78
526.135	25.82
526.333	25.88
526.532	25.98
526.73	25.99
526.929	26.04
527.127	25.92
527.326	25.97
527.524	25.97
527.723	25.99
527.921	26.02
528.12	26.05
528.318	26.04
528.516	26.03
528.715	26.06
528.913	26.05
529.112	26.09
529.31	26.15
529.508	26.06
529.707	26.16
529.905	26.12
530.103	26.06
530.301	26.08
530.5	26.14
530.698	26.1
530.896	26.06
531.094	26.08
531.293	26.11
531.491	26.13
531.689	26.19
531.887	26.13
532.085	26.17
532.283	26.19
532.481	26.33
532.68	26.37
532.878	26.41
533.076	26.42
533.274	26.47
533.472	26.36
533.67	26.36
533.868	26.43
534.066	26.47
534.264	26.5
534.462	26.59
534.66	26.47
534.858	26.37
535.056	26.48
535.253	26.58
535.451	26.54
535.649	26.6
535.847	26.68
536.045	26.78
536.243	26.78
536.441	26.85
536.638	26.81
536.836	26.81
537.034	26.77
537.232	26.73
537.43	26.72
537.627	26.8
537.825	26.86
538.023	26.8
538.22	26.82
538.418	26.84
538.616	26.84
538.813	26.83
539.011	26.89
539.209	27.12
539.406	27.14
539.604	27.11
539.801	27.09
539.999	27.05
540.196	27.07
540.394	27.08
540.591	27.08
540.789	27.06
540.986	27.17
541.184	27.16
541.381	27.17
541.579	27.08
541.776	27.09
541.974	27.12
542.171	27.17
542.368	27.16
542.566	27.12
542.763	27.1
542.96	27.06
543.158	27.04
543.355	27.06
543.552	27.07
543.75	27.14
543.947	27.17
544.144	27.05
544.341	27.04
544.539	27.08
544.736	27.07
544.933	27.08
545.13	27.17
545.327	27.05
545.524	26.98
545.722	26.94
545.919	26.94
546.116	26.94
546.313	27.11
546.51	27.05
546.707	27.01
546.904	27.13
547.101	27.22
547.298	27.18
547.495	27.32
547.692	27.46
547.889	27.49
548.086	27.64
548.283	27.67
548.48	27.71
548.677	27.77
548.874	27.74
549.07	27.53
549.267	27.5
549.464	27.6
549.661	27.38
549.858	27.26
550.055	27.23
550.251	27.15
550.448	27.27
550.645	27.18
550.842	27.37
551.038	27.68
551.235	27.72
551.432	27.71
551.628	27.54
551.825	27.84
552.022	27.92
552.218	28
552.415	28.09
552.612	28.02
552.808	28.18
553.005	28.14
553.201	27.93
553.398	27.97
553.594	27.98
553.791	27.88
553.987	27.73
554.184	27.76
554.38	27.76
554.577	27.47
554.773	27.57
554.97	27.43
555.166	27.52
555.362	27.58
555.559	27.65
555.755	27.63
555.952	27.95
556.148	27.92
556.344	27.9
556.541	27.98
556.737	28.28
556.933	28.3
557.129	28.38
557.326	28.37
557.522	28.57
557.718	28.57
557.914	28.67
558.11	28.54
558.307	28.63
558.503	28.62
558.699	28.52
558.895	28.38
559.091	28.29
559.287	28.25
559.483	28.2
559.679	27.86
559.876	28.06
560.072	27.96
560.268	28.14
560.464	28.24
560.66	28.42
560.856	28.36
561.052	28.51
561.247	28.55
561.443	28.68
561.639	28.67
561.835	28.91
562.031	28.74
562.227	28.77
562.423	28.76
562.619	28.75
562.815	28.73
563.01	28.6
563.206	28.56
563.402	28.47
563.598	28.45
563.793	28.42
563.989	28.44
564.185	28.59
564.381	28.68
564.576	28.66
564.772	28.63
564.968	28.61
565.163	28.78
565.359	28.91
565.555	28.95
565.75	28.85
565.946	29.03
566.141	29.13
566.337	28.98
566.532	29.11
566.728	29.27
566.923	29.36
567.119	29.43
567.314	29.64
567.51	29.57
567.705	29.51
567.901	29.59
568.096	29.28
568.292	29.08
568.487	29.04
568.682	28.77
568.878	28.54
569.073	28.48
569.268	28.39
569.464	28.34
569.659	28.44
569.854	28.36
570.05	28.38
570.245	28.49
570.44	28.73
570.635	28.8
570.831	28.83
571.026	28.88
571.221	28.69
571.416	28.74
571.611	28.61
571.806	28.39
572.002	28.59
572.197	28.62
572.392	28.73
572.587	28.73
572.782	28.78
572.977	28.82
573.172	28.92
573.367	29.27
573.562	29.39
573.757	29.42
573.952	29.65
574.147	29.71
574.342	29.77
574.537	29.91
574.732	29.86
574.927	29.51
575.121	29.77
575.316	29.58
575.511	29.35
575.706	29.22
575.901	29.24
576.096	29.2
576.29	29.26
576.485	29.2
576.68	29.11
576.875	28.98
577.069	29.4
577.264	29.18
577.459	29.27
577.654	29.43
577.848	29.43
578.043	29.48
578.238	29.64
578.432	29.51
578.627	29.54
578.821	29.38
579.016	29.44
579.21	29.18
579.405	29.26
579.6	29.13
579.794	29.14
579.989	29.08
580.183	28.76
580.378	28.47
580.572	28.41
580.766	28.45
580.961	28.73
581.155	28.68
581.35	28.92
581.544	28.67
581.738	28.71
581.933	28.55
582.127	28.59
582.321	29.03
582.516	29.2
582.71	29.43
582.904	29.33
583.099	28.89
583.293	29.18
583.487	28.98
583.681	29.3
583.875	29.43
584.07	29.57
584.264	29.64
584.458	29.42
584.652	29.37
584.846	29.22
585.04	29.15
585.234	29.29
585.428	29.17
585.623	29.33
585.817	29.15
586.011	29.22
586.205	28.97
586.399	28.88
586.593	28.97
586.787	29.1
586.981	29.03
587.174	29.08
587.368	29.18
587.562	29.28
587.756	29.31
587.95	29.33
588.144	29.38
588.338	29.7
588.532	29.92
588.725	29.89
588.919	29.56
589.113	29.53
589.307	29.72
589.501	29.6
589.694	29.42
589.888	29.5
590.082	29.83
590.275	29.55
590.469	29.62
590.663	29.26
590.856	29.24
591.05	29.37
591.244	29.33
591.437	29.03
591.631	29.26
591.824	29.4
592.018	29.34
592.212	29.11
592.405	29.46
592.599	29.27
592.792	29.63
592.986	29.69
593.179	29.93
593.372	29.97
593.566	30.01
593.759	30.08
593.953	30.09
594.146	30.07
594.339	30.21
594.533	29.89
594.726	29.63
594.92	29.57
595.113	29.64
595.306	29.38
595.499	29.5
595.693	29.55
595.886	29.43
596.079	29.53
596.272	29.7
596.466	29.63
596.659	29.99
596.852	30.24
597.045	30.19
597.238	30.4
597.431	30.36
597.624	30.36
597.818	30.5
598.011	30.42
598.204	30.29
598.397	30.17
598.59	30.15
598.783	29.95
598.976	29.92
599.169	29.83
599.362	29.67
599.555	29.71
599.748	29.61
599.941	29.7
600.134	29.75
600.326	29.62
600.519	29.77
600.712	29.55
600.905	29.71
601.098	29.78
601.291	29.68
601.483	29.63
601.676	29.7
601.869	29.61
602.062	29.62
602.255	29.79
602.447	29.78
602.64	29.49
602.833	29.48
603.025	29.66
603.218	29.78
603.411	29.97
603.603	29.82
603.796	29.93
603.989	30.09
604.181	29.78
604.374	29.65
604.566	29.8
604.759	29.95
604.951	29.95
605.144	29.69
605.336	29.57
605.529	29.56
605.721	29.62
605.914	29.65
606.106	29.63
606.299	29.96
606.491	30.04
606.683	30.06
606.876	29.95
607.068	29.86
607.26	29.83
607.453	29.71
607.645	29.7
607.837	29.61
608.03	29.48
608.222	29.48
608.414	29.29
608.606	29.28
608.799	29.19
608.991	29.27
609.183	29.63
609.375	29.51
609.567	29.58
609.759	29.42
609.952	29.5
610.144	29.47
610.336	29.22
610.528	29.14
610.72	29.07
610.912	29.1
611.104	29.04
611.296	28.79
611.488	28.87
611.68	28.8
611.872	28.82
612.064	28.77
612.256	28.79
612.448	29.02
612.64	29.05
612.832	29.12
613.023	29.06
613.215	29.39
613.407	29.56
613.599	29.69
613.791	30
613.983	30.1
614.174	30.15
614.366	30.1
614.558	30.33
614.75	30.41
614.941	30.26
615.133	30.38
615.325	30.14
615.516	29.78
615.708	29.8
615.9	29.56
616.091	29.57
616.283	29.27
616.475	29.39
616.666	29.15
616.858	29.1
617.049	29.42
617.241	29.5
617.432	29.12
617.624	29.49
617.815	29.47
618.007	29.35
618.198	29.2
618.39	29.55
618.581	29.26
618.773	29.24
618.964	29.12
619.155	28.95
619.347	28.9
619.538	29.52
619.729	29.48
619.921	29.56
620.112	29.72
620.303	29.74
620.494	29.96
620.686	30.18
620.877	30.35
621.068	30.78
621.259	30.79
621.451	30.59
621.642	30.18
621.833	29.93
622.024	29.85
622.215	29.81
622.406	29.86
622.597	29.67
622.788	29.69
622.98	29.4
623.171	29.15
623.362	29.17
623.553	29.2
623.744	29.56
623.935	29.86
624.126	29.8
624.317	29.83
624.508	30.18
624.698	30.09
624.889	30.36
625.08	30.65
625.271	30.65
625.462	30.79
625.653	30.78
625.844	30.6
626.034	30.41
626.225	30.57
626.416	30.25
626.607	29.99
626.798	30.08
626.988	29.73
627.179	29.53
627.37	29.74
627.56	29.57
627.751	29.82
627.942	29.89
628.132	30.21
628.323	29.95
628.514	30.12
628.704	30.12
628.895	30.35
629.085	30.35
629.276	30.29
629.466	30.09
629.657	30.12
629.847	29.91
630.038	29.92
630.228	29.8
630.419	30.01
630.609	29.9
630.8	29.91
630.99	29.51
631.181	29.59
631.371	29.91
631.561	30.14
631.752	30.2
631.942	30.07
632.132	29.85
632.323	29.44
632.513	29.29
632.703	29.68
632.893	29.93
633.084	30.17
633.274	30.43
633.464	30.33
633.654	29.96
633.844	29.84
634.034	30
634.225	29.76
634.415	30.29
634.605	30.53
634.795	30.57
634.985	30.47
635.175	30.06
635.365	29.76
635.555	29.7
635.745	29.74
635.935	29.9
636.125	29.78
636.315	30.29
636.505	30.16
636.695	29.97
636.885	29.73
637.075	29.69
637.265	30.15
637.455	30.29
637.644	30.6
637.834	30.86
638.024	31.08
638.214	31.06
638.404	31.1
638.593	31.57
638.783	31.57
638.973	31.32
639.163	31.19
639.352	31.16
639.542	31.03
639.732	30.97
639.921	30.85
640.111	30.52
640.301	30.48
640.49	30.4
640.68	29.56
640.87	29.56
641.059	29.89
641.249	29.56
641.438	29.37
641.628	29.65
641.817	28.91
642.007	28.93
642.196	28.88
642.386	29.02
642.575	28.8
642.764	28.86
642.954	29.17
643.143	28.96
643.333	29.48
643.522	29.36
643.711	29.58
643.901	30.33
644.09	30.4
644.279	30.42
644.469	30.51
644.658	30.48
644.847	30.45
645.036	30.2
645.226	30.33
645.415	30.1
645.604	30.42
645.793	30.14
645.982	30.31
646.171	30.5
646.361	30.65
646.55	30.66
646.739	30.93
646.928	31.07
647.117	31.39
647.306	31.57
647.495	31.8
647.684	31.86
647.873	32.03
648.062	31.97
648.251	31.86
648.44	31.51
648.629	31.8
648.818	31.32
649.007	31.57
649.196	31.62
649.384	31.56
649.573	31.58
649.762	31.78
649.951	31.64
650.14	31.66
650.328	31.62
650.517	31.85
650.706	31.25
650.895	31.66
651.083	31.61
651.272	31.02
651.461	30.73
651.65	30.61
651.838	30.17
652.027	29.97
652.216	29.5
652.404	29.39
652.593	29.53
652.781	29.82
652.97	29.76
653.158	29.72
653.347	30.06
653.535	30.01
653.724	30.09
653.912	30.29
654.101	30.45
654.289	30.17
654.478	29.89
654.666	29.81
654.855	29.51
655.043	29.33
655.231	29.18
655.42	29.1
655.608	29.58
655.796	29.37
655.985	29.59
656.173	29.63
656.361	29.98
656.55	30.04
656.738	29.86
656.926	30.41
657.114	30.46
657.302	29.99
657.491	29.94
657.679	29.92
657.867	29.97
658.055	29.56
658.243	29.31
658.431	29.49
658.619	29.24
658.807	29.29
658.996	28.81
659.184	28.63
659.372	29.1
659.56	29.1
659.748	28.79
659.936	29.2
660.124	29.11
660.311	29.14
660.499	28.92
660.687	29.4
660.875	29.53
661.063	29.56
661.251	29.92
661.439	30.05
661.627	30.06
661.814	30.34
662.002	29.9
662.19	30.47
662.378	30.87
662.565	30.98
662.753	30.53
662.941	30.53
663.129	30.87
663.316	30.66
663.504	30.52
663.692	30.49
663.879	30.47
664.067	30.61
664.254	30.68
664.442	30.68
664.63	30.88
664.817	31.56
665.005	31.46
665.192	31.28
665.38	31.35
665.567	31.43
665.755	31.56
665.942	31.44
666.13	31.16
666.317	30.59
666.504	30.08
666.692	29.69
666.879	29.5
667.067	29.51
667.254	29.62
667.441	29.73
667.629	29.32
667.816	29.46
668.003	29.52
668.19	29.86
668.378	29.99
668.565	29.87
668.752	30.29
668.939	30.09
669.127	29.92
669.314	29.78
669.501	29.56
669.688	29.64
669.875	29.33
670.062	29.05
670.249	28.45
670.436	28.33
670.623	28.72
670.81	28.89
670.997	29.03
671.184	29.18
671.371	29.64
671.558	29.52
671.745	29.42
671.932	29.07
672.119	29.33
672.306	29.65
672.493	29.41
672.68	29.53
672.867	29.46
673.054	28.93
673.24	29
673.427	28.79
673.614	29.25
673.801	29.48
673.988	30.02
674.174	29.9
674.361	29.82
674.548	30.1
674.734	30.05
674.921	29.27
675.108	29.79
675.294	29.85
675.481	29.19
675.668	29.15
675.854	29.31
676.041	29.38
676.227	29.82
676.414	30.47
676.601	30.62
676.787	30.36
676.974	30.66
677.16	30.55
677.347	30.41
677.533	30.71
677.719	30.4
677.906	30.77
678.092	30.65
678.279	30.33
678.465	30.17
678.651	29.98
678.838	30.25
679.024	30.41
679.21	30.59
679.397	30.62
679.583	31.26
679.769	31.55
679.955	31.17
680.142	31.19
680.328	31
680.514	30.85
680.7	31.18
680.886	31.02
681.073	30.97
681.259	30.91
681.445	30.83
681.631	30.27
681.817	30.35
682.003	30.34
682.189	30.4
682.375	30.74
682.561	30.79
682.747	30.34
682.933	30.07
683.119	30.1
683.305	29.86
683.491	30.03
683.677	30.2
683.863	30.22
684.049	30.06
684.235	29.96
684.42	30.15
684.606	30.15
684.792	30.19
684.978	30.6
685.164	30.73
685.349	31.06
685.535	30.69
685.721	30.5
685.907	30.27
686.092	30.36
686.278	30.43
686.464	29.84
686.649	29.51
686.835	29.96
687.021	30.11
687.206	29.38
687.392	29.16
687.577	29.33
687.763	29.39
687.948	29.4
688.134	29.03
688.319	28.98
688.505	29.33
688.69	29.21
688.876	29.07
689.061	28.59
689.247	29.11
689.432	29.01
689.618	29.3
689.803	29.16
689.988	29.12
690.174	29.15
690.359	28.91
690.544	28.71
690.73	29.15
690.915	28.5
691.1	28.66
691.285	28.82
691.471	28.94
691.656	28.47
691.841	28.81
692.026	28.6
692.211	28.9
692.396	28.71
692.582	29.2
692.767	28.9
692.952	29.36
693.137	29.28
693.322	29.68
693.507	29.82
693.692	30.32
693.877	30.09
694.062	29.87
694.247	30.1
694.432	30.58
694.617	30.14
694.802	30.82
694.987	31.25
695.172	31.64
695.357	30.78
695.541	30.6
695.726	30.51
695.911	30.9
696.096	31.23
696.281	31.14
696.466	31.44
696.65	31.87
696.835	31.24
697.02	31.18
697.204	31.22
697.389	31.61
697.574	31.67
697.759	31.91
697.943	32.02
698.128	31.76
698.312	31.72
698.497	31.27
698.682	31.12
698.866	31.42
699.051	31.25
699.235	31.15
699.42	31.35
699.604	31.53
699.789	31.26
699.973	30.9
700.158	31.1
700.342	31.16
700.527	30.93
700.711	30.76
700.895	30.42
701.08	30.36
701.264	30.63
701.448	30.44
701.633	30.08
701.817	30.2
702.001	30.39
702.186	30.37
702.37	30.41
702.554	31.02
702.738	31.31
702.923	31.82
703.107	31.74
703.291	31.34
703.475	31.35
703.659	31.78
703.843	31.4
704.027	30.99
704.212	31.66
704.396	31.46
704.58	31.78
704.764	31.04
704.948	30.49
705.132	30.77
705.316	31.2
705.5	30.36
705.684	29.71
705.868	30.02
706.052	30.62
706.235	30.46
706.419	30.21
706.603	30.21
706.787	30.23
706.971	30.92
707.155	31.16
707.339	30.98
707.522	31.48
707.706	31.01
707.89	30.95
708.074	30.32
708.257	29.62
708.441	29.81
708.625	28.89
708.808	29.25
708.992	29.15
709.176	29.26
709.359	29.16
709.543	29.35
709.727	30.41
709.91	29.89
710.094	29.72
710.277	30.58
710.461	30.76
710.644	30.53
710.828	30.18
711.011	29.65
711.195	29.28
711.378	29.45
711.562	29.43
711.745	29.41
711.928	29.76
712.112	30.35
712.295	29.83
712.478	29.57
712.662	30.93
712.845	31.11
713.028	31.43
713.212	31.68
713.395	31.83
713.578	31.46
713.761	31.03
713.945	31.37
714.128	31.63
714.311	31.56
714.494	31.58
714.677	30.68
714.86	30.8
715.043	31.19
715.227	30.75
715.41	30.36
715.593	30.6
715.776	30.58
715.959	30.28
716.142	30.1
716.325	30.62
716.508	30.32
716.691	30.95
716.874	31.05
717.057	30.11
717.239	30.45
717.422	30.08
717.605	30.44
717.788	30.61
717.971	30.82
718.154	30.69
718.337	30.35
718.519	30.31
718.702	31.06
718.885	31.73
719.068	32.61
719.25	32.29
719.433	31.87
719.616	30.67
719.798	30.74
719.981	30.39
720.164	30.98
720.346	30.51
720.529	30.97
720.712	29.23
720.894	29.05
721.077	28.49
721.259	28.22
721.442	28.72
721.624	29.32
721.807	29.44
721.989	29.69
722.172	29
722.354	28.95
722.537	28.49
722.719	28.44
722.901	28.15
723.084	29.17
723.266	29.38
723.448	28.93
723.631	29.1
723.813	28.86
723.995	29.29
724.178	29.79
724.36	30.28
724.542	31.77
724.724	31.96
724.907	31.97
725.089	30.55
725.271	29.95
725.453	30.17
725.635	30.68
725.817	29.94
725.999	28.74
726.181	28.03
726.364	27.78
726.546	27.12
726.728	27.76
726.91	27.82
727.092	28.22
727.274	28.92
727.456	29.14
727.638	28.83
727.819	28.94
728.001	30.1
728.183	29.76
728.365	30.13
728.547	29.39
728.729	28.84
728.911	27.76
729.093	27.15
729.274	26.8
729.456	27.3
729.638	26.62
729.82	27.23
730.001	26.5
730.183	27.12
730.365	26.75
730.546	26.8
730.728	27.68
730.91	28.68
731.091	29.83
731.273	29.84
731.455	30.73
731.636	30.91
731.818	31.27
731.999	31.43
732.181	31.37
732.362	32.74
732.544	33.34
732.725	33.24
732.907	33.07
733.088	33.09
733.27	32.9
733.451	32.03
733.633	32.89
733.814	32.38
733.995	32.05
734.177	32.44
734.358	31.19
734.539	31.44
734.721	31.31
734.902	31.43
735.083	30.9
735.264	32.04
735.446	31.34
735.627	30.66
735.808	30.78
735.989	31.44
736.17	30.45
736.351	30.27
736.533	30.42
736.714	30.69
736.895	29.88
737.076	29.55
737.257	28.82
737.438	30.13
737.619	31.3
737.8	31.28
737.981	30.42
738.162	30.6
738.343	31.01
738.524	30.97
738.705	30.91
738.886	30.78
739.067	30.78
739.247	30.42
739.428	29.22
739.609	28.37
739.79	28.39
739.971	28.49
740.151	27.96
740.332	26.62
740.513	25.79
740.694	25.63
740.874	25.61
741.055	25.87
741.236	26.16
741.417	26.26
741.597	25.23
741.778	25.83
741.958	27.15
742.139	27.19
742.32	28.53
742.5	28.1
742.681	27.62
742.861	27.67
743.042	27
743.222	28.01
743.403	28.09
743.583	28.1
743.764	27.16
743.944	25.9
744.124	26.33
744.305	25.63
744.485	26.23
744.666	25.05
744.846	25.77
745.026	27.18
745.207	26.67
745.387	27.31
745.567	28.97
745.747	27.82
745.928	28.21
746.108	27.74
746.288	28.57
746.468	28.47
746.648	29.28
746.829	29.82
747.009	29.13
747.189	28.49
747.369	29.22
747.549	28.76
747.729	31.16
747.909	31.1
748.089	31.47
748.269	31.08
748.449	30.59
748.629	31.37
748.809	31.35
748.989	31.12
749.169	30.17
749.349	29.24
749.529	28.94
749.709	27.77
749.889	28.04
750.068	28.71
750.248	28.06
750.428	29.03
750.608	27.79
750.788	27.18
750.967	27.81
751.147	27.61
751.327	29.6
751.507	29.79
751.686	29.82
751.866	29.73
752.046	30.33
752.225	31.4
752.405	31.41
752.585	31.89
752.764	31.34
752.944	31.03
753.123	33.01
753.303	30.62
753.482	29.51
753.662	30.77
753.841	30.42
754.021	29.28
754.2	28.53
754.38	28.12
754.559	29.05
754.739	31.1
754.918	30.89
755.097	30.47
755.277	32.16
755.456	32.38
755.635	31.99
755.815	32.1
755.994	33.21
756.173	33.42
756.352	33.38
756.532	32.88
756.711	31.91
756.89	32.81
757.069	32.56
757.248	30.6
757.427	31.02
757.607	31.09
757.786	29.97
757.965	29.32
758.144	28.32
758.323	28.07
758.502	27.77
758.681	27.27
758.86	26.36
759.039	26.72
759.218	27.27
759.397	27.41
759.576	25.57
759.755	27.04
759.934	27.55
760.113	28.46
760.291	28.08
760.47	29.47
760.649	28.88
760.828	29.07
761.007	28.5
761.186	28.03
761.364	28.32
761.543	29.78
761.722	29.94
761.901	28.75
762.079	28.68
762.258	29.75
762.437	29.47
762.615	30.32
762.794	29.79
762.972	30.66
763.151	30.67
763.33	30.16
763.508	30.27
763.687	30.25
763.865	31.28
764.044	31.65
764.222	31.41
764.401	30.29
764.579	29.49
764.758	29.81
764.936	29.99
765.114	30.44
765.293	31.28
765.471	30.68
765.65	30.81
765.828	30.46
766.006	30.51
766.184	31.11
766.363	32.03
766.541	32.76
766.719	32.62
766.898	31.12
767.076	31.55
767.254	32.22
767.432	32.93
767.61	32.61
767.788	33.22
767.967	33.27
768.145	32.87
768.323	33.33
768.501	32.84
768.679	34.02
768.857	34.71
769.035	34.59
769.213	33.29
769.391	33.89
769.569	32.56
769.747	31.29
769.925	31.18
770.103	30.01
770.281	30.58
770.459	29.84
770.636	29.34
770.814	29.6
770.992	29.16
771.17	28.63
771.348	27.26
771.525	28.02
771.703	28.3
771.881	28.39
772.059	28.5
772.236	27.17
772.414	28.56
772.592	29.42
772.769	29.72
772.947	30.8
773.125	31.88
773.302	32.9
773.48	33.4
773.657	35.02
773.835	34.51
774.013	35.31
774.19	37.59
774.368	37.89
774.545	35.29
774.723	33.55
774.9	31.47
775.077	32.08
775.255	31.53
775.432	32.14
775.61	30.19
775.787	30.64
775.964	31.56
776.142	29.61
776.319	30.61
776.496	33.24
776.674	34.54
776.851	34.93
777.028	34.83
777.205	35.09
777.382	34.56
777.56	35.55
777.737	37.54
777.914	34.47
778.091	34.23
778.268	32.99
778.445	32.02
778.622	32.01
778.8	32.05
778.977	30.84
779.154	30.33
779.331	29.94
779.508	30.49
779.685	27.63
779.862	30.82
780.038	28.79
780.215	28.66
780.392	29.85
780.569	29.07
780.746	29.77
780.923	30.34
781.1	30.61
781.277	32.2
781.453	31.84
781.63	32.68
781.807	32.23
781.984	34.96
782.16	34.88
782.337	34.35
782.514	35.54
782.691	35.63
782.867	36.07
783.044	36.86
783.221	35.58
783.397	34.89
783.574	35.14
783.75	35.04
783.927	33.54
784.103	32.9
784.28	30.86
784.456	31.26
784.633	30.71
784.809	29.95
784.986	28.02
785.162	26.07
785.339	24.93
785.515	23.08
785.692	24.72
785.868	24.34
786.044	26.35
786.221	27.21
786.397	25.85
786.573	24.64
786.749	25.89
786.926	28.18
787.102	29.66
787.278	29.87
787.454	31.93
787.631	30.06
787.807	31.73
787.983	30.87
788.159	32.21
788.335	31.59
788.511	34.47
788.687	34.9
788.863	34.29
789.039	36.07
789.216	36.81
789.392	34.36
789.568	35.26
789.744	37.09
789.919	38.26
790.095	36.88
790.271	37.26
790.447	38.08
790.623	35.1
790.799	34.89
790.975	36.12
791.151	35.72
791.327	35.97
791.502	32
791.678	30.11
791.854	29.37
792.03	31.8
792.205	34.27
792.381	32.67
792.557	34.54
792.733	34.48
792.908	30.75
793.084	30.34
793.259	31.23
793.435	35.15
793.611	34.2
793.786	33.73
793.962	32
794.137	26.81
794.313	25.35
794.488	23.73
794.664	25.97
794.839	27.11
795.015	28.64
795.19	28.03
795.366	26.98
795.541	27.82
795.716	28.35
795.892	28.16
796.067	30.49
796.242	29.42
796.418	30.46
796.593	28.98
796.768	30.47
796.944	32.87
797.119	34.72
797.294	35.43
797.469	33.32
797.644	31.87
797.82	30.08
797.995	32.51
798.17	33.87
798.345	33.62
798.52	32.26
798.695	29.5
798.87	25.84
799.045	24.94
799.22	25.67
799.395	27.67
799.57	28.56
799.745	31.89
799.92	31.81
800.095	34.5
800.27	36.27
800.445	37.3
800.62	38.94
800.795	42.07
800.97	43.49
801.145	45.51
801.319	45.89
801.494	44.5
801.669	43.95
801.844	43.36
802.018	39.57
802.193	35.41
802.368	35.15
802.543	34.57
802.717	33.23
802.892	30.56
803.067	28.69
803.241	28.49
803.416	27.19
803.59	26.44
803.765	25.44
803.94	30.72
804.114	34.07
804.289	33.64
804.463	34.03
804.638	32.98
804.812	34.84
804.986	35.03
805.161	34.17
805.335	39.54
805.51	41.28
805.684	39.92
805.858	37.44
806.033	38.3
806.207	39.48
806.381	40.6
806.556	39.14
806.73	37.83
806.904	36.6
807.078	38.69
807.253	35.94
807.427	31.97
807.601	33.96
807.775	34.7
807.949	32.97
808.123	30.58
808.298	30.12
808.472	27.43
808.646	29.08
808.82	30.9
808.994	29.7
809.168	28.82
809.342	32.31
809.516	30.84
809.69	31.91
809.864	32.8
810.038	32.7
810.212	26.72
810.385	30.52
810.559	30.8
810.733	30.83
810.907	33.07
811.081	29.77
811.255	24.64
811.428	29.89
811.602	26.85
811.776	28.71
811.95	30.22
812.123	34.47
812.297	34.24
812.471	32.97
812.644	32.37
812.818	25.98
812.992	30.32
813.165	32.37
813.339	25.09
813.512	24.47
813.686	17.47
813.86	19.51
814.033	17.16
814.207	11.79
814.38	14.81
814.554	12.96
814.727	18.99
814.9	18.86
815.074	21.39
815.247	22.9
815.421	24.45
815.594	26.99
815.767	25.85
815.941	29.55
816.114	33.03
816.287	31.83
816.46	35.41
816.634	32.08
816.807	29.86
816.98	29.76
817.153	31.4
817.327	30.56
817.5	29.49
817.673	26.54
817.846	27.07
818.019	26.64
818.192	26.9
818.365	22.06
818.538	26.25
818.711	27.66
818.884	24.29
819.057	23.23
819.23	23.14
819.403	23.54
819.576	27.79
819.749	24.47
819.922	25.21
820.095	25.19
820.268	25.11
820.441	23.55
820.614	23.83
820.786	22.09
820.959	23.21
821.132	24.22
821.305	25.37
821.477	25.02
821.65	25.91
821.823	25.42
821.996	26.2
822.168	26.4
822.341	26.25
822.514	26.38
822.686	28.01
822.859	28.06
823.031	28.69
823.204	28.86
823.376	28.69
823.549	29.46
823.722	30.06
823.894	29.64
824.067	29.72
824.239	30.39
824.411	30.4
824.584	29.95
824.756	29.91
824.929	29.54
825.101	30.27
825.273	29.45
825.446	29.67
825.618	29.47
825.79	30.21
825.963	30.95
826.135	30
826.307	30.73
826.479	30.98
826.652	30.41
826.824	29.76
826.996	28.63
827.168	29.44
827.34	28.75
827.512	28.23
827.684	27.18
827.856	27.37
828.029	27.87
828.201	27.5
828.373	27.14
828.545	27.94
828.717	28.13
828.889	28.5
829.061	29.5
829.232	28.1
829.404	29.67
829.576	29.89
829.748	29.79
829.92	31.73
830.092	29.86
830.264	30.95
830.436	30.96
830.607	32.2
830.779	30.42
830.951	29.55
831.123	29.74
831.294	28.43
831.466	28.48
831.638	26.1
831.809	21.08
831.981	24.8
832.153	22.97
832.324	21.56
832.496	17.33
832.667	17.95
832.839	19.36
833.011	18.49
833.182	21.7
833.354	21.85
833.525	23.57
833.697	25.31
833.868	24.3
834.039	26.1
834.211	25.63
834.382	29.48
834.554	32.08
834.725	30.18
834.896	31.15
835.068	29.79
835.239	29.38
835.41	29.35
835.581	28.3
835.753	28.53
835.924	26.08
836.095	25.47
836.266	23.97
836.438	19.67
836.609	20.65
836.78	20.56
836.951	19.05
837.122	17.56
837.293	19.8
837.464	21.93
837.635	21.47
837.806	24.65
837.977	27.02
838.148	26.67
838.319	26.8
838.49	27.53
838.661	25.81
838.832	25.4
839.003	30.5
839.174	25
839.345	22.56
839.516	26.35
839.687	27.24
839.857	28.83
840.028	32.44
840.199	33.91
840.37	34.96
840.54	38.87
840.711	40.36
840.882	36.31
841.053	36.63
841.223	32.88
841.394	32.43
841.564	31.12
841.735	24.11
841.906	19.13
842.076	23.49
842.247	23.05
842.417	19.44
842.588	19.52
842.758	27
842.929	29.37
843.099	36.23
843.27	35.18
843.44	30.5
843.611	35.09
843.781	43.89
843.951	44.19
844.122	41.59
844.292	44.93
844.462	47.53
844.633	37.12
844.803	33.24
844.973	34.51
845.144	30.46
845.314	38.61
845.484	46.13
845.654	43.57
845.824	45.01
845.995	44.38
846.165	35.24
846.335	34.63
846.505	41.1
846.675	37.47
846.845	25.54
847.015	25.23
847.185	27.93
847.355	16.17
847.525	1.89
847.695	-26.68
847.865	-23.24
848.035	-7.76
848.205	10.38
848.375	14.89
848.545	12.56
848.715	18.37
848.884	26.58
849.054	16.83
849.224	29.42
849.394	25.7
849.564	29.49
849.733	32.01
849.903	38.74
850.073	31.73
850.243	30.88
850.412	38.45
850.582	45.1
850.752	35.43
850.921	38.63
851.091	36.8
851.26	40.81
851.43	46.74
851.599	46.3
851.769	37.63
851.939	21.73
852.108	11.37
852.278	17.98
852.447	5.45
852.616	23.6
852.786	31.74
852.955	32.19
853.125	38.27
853.294	26.07
853.463	30.63
853.633	27.19
853.802	37.34
853.971	46.2
854.141	42.98
854.31	49.1
854.479	42.18
854.648	41.32
854.818	44.77
854.987	43.59
855.156	52.78
855.325	55.54
855.494	53.15
855.663	53.72
855.832	50.69
856.001	55.49
856.171	56.28
856.34	68.43
856.509	64.89
856.678	56.81
856.847	60.99
857.016	49.67
857.185	39.01
857.353	51.22
857.522	48.69
857.691	46.04
857.86	36.28
858.029	34.76
858.198	38.78
858.367	33.08
858.535	55.11
858.704	45.89
858.873	62.83
859.042	64.58
859.21	63.57
859.379	59.97
859.548	50.04
859.717	57.23
859.885	44.11
860.054	36.25
860.222	33.06
860.391	35.37
860.56	34.17
860.728	18.27
860.897	31.85
861.065	28.39
861.234	32.95
861.402	34.57
861.571	29.1
861.739	40.45
861.908	43.63
862.076	51.06
862.244	20.23
862.413	18.39
862.581	45.01
862.749	41.62
862.918	51.9
863.086	59.68
863.254	64.38
863.423	61.43
863.591	45.95
863.759	39.69
863.927	41.45
864.096	40.14
864.264	48.06
864.432	30.14
864.6	16.57
864.768	14.41
864.936	-6.69
865.104	-2.9
865.272	-7.72
865.44	-12.75
865.608	-17.81
865.776	-9.68
865.944	-11.08
866.112	-14.68
866.28	-12.55
866.448	3.69
866.616	7.56
866.784	14.51
866.952	9.15
867.12	9.71
867.288	25.08
867.455	27.19
867.623	31.29
867.791	35.34
867.959	37.12
868.127	29.73
868.294	10.91
868.462	1.8
868.63	2.93
868.797	6.56
868.965	7.04
869.133	6.76
869.3	9.64
869.468	10.53
869.636	9.67
869.803	10.28
869.971	16.08
870.138	31.96
870.306	37.76
870.473	44.53
870.641	40.97
870.808	40.73
870.975	36.4
871.143	24.16
871.31	24.28
871.478	26.94
871.645	27.87
871.812	25.85
871.98	4.48
872.147	21.31
872.314	16.04
872.482	-8.25
872.649	-21.65
872.816	-33.09
872.983	9.47
873.15	41.31
873.318	26.13
873.485	12.28
873.652	18.36
873.819	15.09
873.986	13.8
874.153	10.1
874.32	31.21
874.487	20.1
874.654	12.75
874.821	2.47
874.988	-45.61
875.155	-68.36
875.322	-60.38
875.489	-59.41
875.656	-100.19
875.823	-65.55
875.99	-43.07
876.157	-37.19
876.324	-3.79
876.49	38.32
876.657	35.34
876.824	50.05
876.991	65.87
877.157	57.5
877.324	49.42
877.491	59.4
877.658	55.69
877.824	27.19
877.991	30.48
878.157	39.6
878.324	21.68
878.491	39.4
878.657	39.19
878.824	8.51
878.99	-6.22
879.157	36.7
879.323	59.46
879.49	53.1
879.656	75.82
879.823	45.91
879.989	39.37
880.156	39.85
880.322	17.51
880.488	11.54
880.655	29.98
880.821	30.89
880.987	27.32
881.154	19.96
881.32	37.46
881.486	34.48
881.652	41.73
881.819	39.33
881.985	36.29
882.151	41.58
882.317	41.91
882.483	36.43
882.649	36.78
882.816	33.52
882.982	35.46
883.148	30.68
883.314	32.29
883.48	30.62
883.646	29.69
883.812	28.61
883.978	26.65
884.144	26.19
884.31	27.74
884.476	25.51
884.642	23.03
884.807	19.43
884.973	19.32
885.139	20.91
885.305	22.05
885.471	24
885.637	22.99
885.802	22.05
885.968	22.54
886.134	22.48
886.3	24.38
886.465	28.52
886.631	29.01
886.797	27.37
886.962	25.29
887.128	24.89
887.293	16.07
887.459	24.89
887.625	32.33
887.79	32.71
887.956	34.44
888.121	38.05
888.287	38.22
888.452	41.72
888.618	45.9
888.783	47.45
