Data from 2938057_Reflection_1.txt Node
Date: Sun Jul 12 13:58:37 EDT 2015
User: robert
Spectrometer: USB4E03001
Autoset integration time: false
Trigger mode: 4
Integration Time (sec): 1.000000E-1
Scans to average: 10
Electric dark correction enabled: true
Nonlinearity correction enabled: false
Boxcar width: 5
Stray light correction enabled: false
XAxis mode: Wavelengths
Stop averaging: false
Number of Pixels in Spectrum: 3648
>>>>>Begin Spectral Data<<<<<
177.566	-112.33
177.785	-751.37
178.005	91300
178.225	292.29
178.445	386.03
178.665	133.62
178.885	17.72
179.105	-70.58
179.324	-36.06
179.544	0.48
179.764	9.12
179.984	30.74
180.204	38.14
180.423	79.16
180.643	89.99
180.863	75.97
181.083	88.91
181.302	84.22
181.522	84.77
181.742	89.69
181.961	76.96
182.181	64.31
182.401	51.86
182.621	57.28
182.84	43.33
183.06	39.39
183.279	51.38
183.499	33.5
183.719	-5.66
183.938	-16.64
184.158	-5.02
184.377	-10.96
184.597	-19.21
184.816	-22.35
185.036	-56.96
185.256	-17.89
185.475	-0.84
185.695	2.51
185.914	-7.55
186.134	25.24
186.353	27.46
186.572	21.36
186.792	24.27
187.011	62.81
187.231	64.62
187.45	60.1
187.67	56.48
187.889	72.39
188.108	100.21
188.328	87.98
188.547	100.74
188.766	157.2
188.986	140.2
189.205	195.93
189.424	88.7
189.644	97.8
189.863	124.65
190.082	159.69
190.302	145.59
190.521	122.67
190.74	144.72
190.959	137.33
191.178	141.93
191.398	152.94
191.617	141.58
191.836	206.7
192.055	281.24
192.274	203.21
192.494	235.46
192.713	176.04
192.932	188.18
193.151	372.48
193.37	212.35
193.589	217.18
193.808	209.72
194.027	14.42
194.246	10.1
194.465	-17.17
194.685	-366.28
194.904	-74.45
195.123	-101.84
195.342	-216.12
195.561	-35.41
195.78	-9.05
195.999	167.87
196.218	79.8
196.436	6.7
196.655	24.14
196.874	-1.79
197.093	-1.37
197.312	44.8
197.531	19.46
197.75	-11.09
197.969	23.15
198.188	28.42
198.407	51.61
198.625	55.83
198.844	57.08
199.063	58.45
199.282	65.66
199.501	72.31
199.719	53.7
199.938	67.28
200.157	77.05
200.376	39.33
200.594	52.11
200.813	21.14
201.032	-23.46
201.251	0.6
201.469	-84.61
201.688	-15.61
201.907	-70.26
202.125	-22.71
202.344	-19.49
202.563	-19.28
202.781	-9.44
203	-9.35
203.218	16.75
203.437	14.1
203.656	-3.73
203.874	31.22
204.093	21.73
204.311	-23.21
204.53	-1035.45
204.748	387.81
204.967	296.91
205.185	5843.4
205.404	2529.86
205.622	-659.87
205.841	-360.43
206.059	5.31
206.278	-29.42
206.496	-1.05
206.715	37.15
206.933	6.81
207.151	28.35
207.37	27.22
207.588	12.23
207.806	4.55
208.025	24.91
208.243	12.74
208.461	-68.08
208.68	-8.79
208.898	18.76
209.116	12.27
209.335	76.34
209.553	170.67
209.771	91.23
209.989	111.19
210.208	96.26
210.426	113.5
210.644	112.52
210.862	123.86
211.081	134.2
211.299	84.2
211.517	77.56
211.735	71.62
211.953	58.31
212.171	86.44
212.39	126.7
212.608	134.75
212.826	-2.11
213.044	34.72
213.262	7.11
213.48	-10.42
213.698	29.29
213.916	40.84
214.134	-1.78
214.352	-22.46
214.57	-49.72
214.788	-41.92
215.006	-48.7
215.224	-26.82
215.442	-23.27
215.66	-26.21
215.878	-26.43
216.096	-58.58
216.314	-80.45
216.532	-159.98
216.75	-54.68
216.968	-40.65
217.185	-86.38
217.403	-25.11
217.621	-31.31
217.839	-12.6
218.057	13
218.275	-1.23
218.492	-3.72
218.71	23.45
218.928	9.52
219.146	-12.66
219.363	-0.71
219.581	10.16
219.799	6.52
220.017	31.87
220.234	26.63
220.452	22.64
220.67	29.18
220.887	32.48
221.105	1.09
221.323	34.44
221.54	39.75
221.758	11.87
221.976	27.63
222.193	32.05
222.411	20.86
222.629	15.1
222.846	2.98
223.064	12.74
223.281	13.6
223.499	21.62
223.716	15.38
223.934	12.58
224.151	14.01
224.369	-1.07
224.586	1.78
224.804	11.93
225.021	4.67
225.239	9.3
225.456	10.21
225.674	11.99
225.891	12.43
226.108	20.44
226.326	28.14
226.543	34.66
226.76	37.3
226.978	32.71
227.195	24.37
227.413	30.15
227.63	27.32
227.847	30.02
228.064	28.75
228.282	29.87
228.499	28.32
228.716	26.35
228.934	23.23
229.151	24.2
229.368	21.45
229.585	21.56
229.802	20.35
230.02	18.68
230.237	16.32
230.454	16.89
230.671	15.37
230.888	12.76
231.105	10.78
231.323	12.87
231.54	11.03
231.757	13.23
231.974	9.88
232.191	10.53
232.408	14.88
232.625	11.69
232.842	11.32
233.059	16.45
233.276	20.06
233.493	20.78
233.71	24.5
233.927	18.14
234.144	19.19
234.361	18.27
234.578	16.72
234.795	14.66
235.012	18.1
235.229	18.56
235.446	11.37
235.663	13.28
235.879	15.19
236.096	13.56
236.313	24.83
236.53	24.4
236.747	27.35
236.964	26.19
237.181	26.87
237.397	20.54
237.614	14.78
237.831	14.14
238.048	13.31
238.264	11.39
238.481	9.68
238.698	7.2
238.915	9.58
239.131	7.88
239.348	11.57
239.565	14.54
239.781	20.01
239.998	23.51
240.215	23.73
240.431	19.75
240.648	22.81
240.865	20.05
241.081	17.66
241.298	15.78
241.514	18.41
241.731	18.38
241.947	16.45
242.164	13.11
242.38	11.12
242.597	11.55
242.814	12.09
243.03	11.1
243.246	11.2
243.463	10.02
243.679	10.02
243.896	9.9
244.112	9.86
244.329	10.84
244.545	14.05
244.762	15.48
244.978	16.45
245.194	17.53
245.411	15.63
245.627	16.88
245.843	16.97
246.06	15.4
246.276	15.74
246.492	14.77
246.709	13.65
246.925	12.95
247.141	14.27
247.357	15
247.574	14.14
247.79	15.06
248.006	14.34
248.222	14.41
248.439	15.2
248.655	15.23
248.871	15.03
249.087	16.05
249.303	15.95
249.519	15.45
249.736	14.4
249.952	14.07
250.168	13.25
250.384	15.2
250.6	14.87
250.816	15.4
251.032	13.22
251.248	11.92
251.464	9.16
251.68	10.57
251.896	9.15
252.112	8.21
252.328	7.28
252.544	7.69
252.76	8.71
252.976	9.8
253.192	7.94
253.408	9.66
253.624	12.6
253.84	14.33
254.056	13.16
254.272	12.79
254.487	12.87
254.703	16.22
254.919	14.7
255.135	12.64
255.351	12.77
255.567	15.32
255.782	12.96
255.998	10.13
256.214	8.03
256.43	7.43
256.646	8.05
256.861	8.68
257.077	9.06
257.293	9.55
257.508	8.43
257.724	7.81
257.94	6.6
258.155	6.43
258.371	8.03
258.587	9.31
258.802	10.34
259.018	10.6
259.234	9.9
259.449	10.54
259.665	11.07
259.88	10.92
260.096	10.36
260.312	11.29
260.527	12.4
260.743	12.84
260.958	13.12
261.174	12.84
261.389	13.03
261.605	13.98
261.82	12.7
262.036	13.32
262.251	13.14
262.466	14.83
262.682	14.1
262.897	14.09
263.113	12.62
263.328	12.78
263.543	13.03
263.759	12.95
263.974	11.75
264.189	10.51
264.405	8.31
264.62	7.88
264.835	7.97
265.051	6.39
265.266	5.14
265.481	6.12
265.696	7.26
265.912	7.88
266.127	8.07
266.342	8.38
266.557	11.38
266.773	13.63
266.988	12.99
267.203	11.62
267.418	12.31
267.633	12.62
267.848	12.98
268.064	11.19
268.279	10.35
268.494	11.27
268.709	12
268.924	10.77
269.139	9.94
269.354	11.4
269.569	10.37
269.784	10.21
269.999	9
270.214	5.85
270.429	4.39
270.644	5.24
270.859	4.31
271.074	3.66
271.289	2.52
271.504	1.95
271.719	3.38
271.934	3.29
272.149	2.87
272.363	4.16
272.578	7.52
272.793	9.74
273.008	9.82
273.223	10.82
273.438	10.78
273.653	12.16
273.867	13.25
274.082	14.15
274.297	14.85
274.512	14.67
274.726	13.08
274.941	11.3
275.156	10.15
275.371	9.47
275.585	8.02
275.8	8.15
276.015	6.63
276.229	5.86
276.444	3.75
276.659	4.94
276.873	6.07
277.088	7.05
277.302	5.39
277.517	7.15
277.732	7.72
277.946	7.21
278.161	7.4
278.375	7.11
278.59	7.38
278.804	6.33
279.019	5.48
279.233	5.93
279.448	4.49
279.662	6.27
279.877	4.95
280.091	5.18
280.306	5.68
280.52	5.46
280.735	6.16
280.949	6.51
281.163	8.62
281.378	9.34
281.592	9.18
281.806	10.39
282.021	10.58
282.235	11.74
282.449	12.14
282.664	12.08
282.878	14.64
283.092	15.3
283.307	14.47
283.521	13.54
283.735	14.18
283.949	14.32
284.164	14.98
284.378	14.06
284.592	13.23
284.806	12.63
285.02	12.29
285.234	9.95
285.449	9.86
285.663	11.27
285.877	10.8
286.091	11.19
286.305	11.67
286.519	10.83
286.733	11.89
286.947	11.54
287.161	12.74
287.375	12.68
287.589	13.06
287.803	13.35
288.017	11.45
288.231	11.37
288.445	10.82
288.659	8.85
288.873	8.29
289.087	8.54
289.301	8.99
289.515	8.83
289.729	9.2
289.943	10.76
290.157	11.16
290.371	11.42
290.584	13.39
290.798	12.26
291.012	13.51
291.226	13.32
291.44	12.68
291.654	12.82
291.867	11.59
292.081	12.02
292.295	10.69
292.509	11.25
292.722	12.46
292.936	11.09
293.15	10.04
293.364	10.67
293.577	10.14
293.791	11.03
294.005	11.52
294.218	12.3
294.432	14.14
294.645	13.36
294.859	13.25
295.073	13.13
295.286	13.87
295.5	15.45
295.713	15.19
295.927	15.56
296.14	15.2
296.354	14.25
296.568	13.39
296.781	11.74
296.994	11.15
297.208	10.92
297.421	9.56
297.635	10.26
297.848	9.57
298.062	9.96
298.275	10.59
298.489	10.33
298.702	11.19
298.915	11.16
299.129	10.43
299.342	11.47
299.555	11.04
299.769	11.1
299.982	10.31
300.195	10.92
300.409	10.45
300.622	9.42
300.835	10.17
301.048	9.87
301.262	11.4
301.475	12.93
301.688	12.49
301.901	12.65
302.115	13.99
302.328	12.27
302.541	11.91
302.754	11.72
302.967	13.18
303.18	11.64
303.393	12.13
303.607	11.91
303.82	10.77
304.033	10.91
304.246	10.57
304.459	8.52
304.672	9.99
304.885	10.43
305.098	9.74
305.311	8.83
305.524	9.45
305.737	7.77
305.95	9.06
306.163	9.92
306.376	11.44
306.589	10.1
306.802	10.79
307.015	9.4
307.228	9.41
307.44	10.17
307.653	10.52
307.866	10.32
308.079	10.01
308.292	10.16
308.505	10.19
308.718	8.9
308.93	11.24
309.143	12.73
309.356	14.61
309.569	13.9
309.781	14.41
309.994	14.69
310.207	14.64
310.42	15.73
310.632	14.32
310.845	14.62
311.058	15.76
311.27	15.36
311.483	14.76
311.696	13.12
311.908	13.82
312.121	13.35
312.333	13.08
312.546	13.8
312.759	13.13
312.971	12.47
313.184	11.68
313.396	10.58
313.609	10.73
313.821	11.26
314.034	12.87
314.246	13.35
314.459	13.6
314.671	14.82
314.884	12.76
315.096	14.3
315.309	15.89
315.521	16.91
315.733	14.84
315.946	13.94
316.158	13.65
316.371	12.04
316.583	13.11
316.795	11.89
317.008	11.03
317.22	12.98
317.432	11.88
317.644	10.44
317.857	9.92
318.069	10.66
318.281	10.57
318.494	12.94
318.706	14.74
318.918	13.44
319.13	15.68
319.342	15.46
319.555	15.32
319.767	15.84
319.979	15.13
320.191	14.75
320.403	15.79
320.615	15.6
320.827	13.1
321.039	13.17
321.252	13.89
321.464	12.49
321.676	12.9
321.888	12.39
322.1	12.43
322.312	12.5
322.524	13.39
322.736	13.48
322.948	15.01
323.16	15.13
323.372	13.58
323.584	12.08
323.796	10.17
324.007	9.82
324.219	9.19
324.431	8.75
324.643	9.13
324.855	10.01
325.067	9.8
325.279	9.71
325.491	9.68
325.702	9.75
325.914	9.07
326.126	10.45
326.338	10.72
326.55	11.75
326.761	11.89
326.973	11.91
327.185	10.12
327.396	10.23
327.608	8.36
327.82	8.83
328.032	9.61
328.243	11.02
328.455	11.79
328.666	10.68
328.878	8.48
329.09	8.58
329.301	10.04
329.513	10.74
329.725	9.59
329.936	11.67
330.148	11.82
330.359	12.63
330.571	12.43
330.782	10.24
330.994	10.41
331.205	13.09
331.417	12.85
331.628	11.12
331.84	11.12
332.051	11.18
332.262	9.79
332.474	9.88
332.685	8.75
332.897	9.61
333.108	12.39
333.319	12.56
333.531	12.83
333.742	12.09
333.953	12.66
334.165	12.89
334.376	13.89
334.587	14.78
334.799	14.09
335.01	12.21
335.221	11.85
335.432	10.48
335.644	11.7
335.855	11.12
336.066	12.59
336.277	11.77
336.488	11.92
336.7	12.02
336.911	12.22
337.122	11.58
337.333	13.32
337.544	12.91
337.755	12.22
337.966	11.77
338.177	11.73
338.388	10.1
338.599	10.98
338.811	10.3
339.022	9.46
339.233	8.27
339.444	8.93
339.655	8.26
339.866	8.38
340.076	9.72
340.287	8.59
340.498	8.91
340.709	9.41
340.92	9.17
341.131	8.8
341.342	10.35
341.553	10.74
341.764	10.65
341.975	11.1
342.185	10.89
342.396	10.91
342.607	11.51
342.818	9.76
343.029	9.39
343.239	9.24
343.45	9.97
343.661	9.03
343.872	9.37
344.082	8.95
344.293	9.02
344.504	8.08
344.714	7.39
344.925	7.36
345.136	8.14
345.346	8.85
345.557	9.06
345.768	8.19
345.978	8.92
346.189	9.17
346.399	9.12
346.61	9.31
346.821	10.35
347.031	11.14
347.242	11.07
347.452	11.43
347.663	9.92
347.873	9.77
348.084	10.31
348.294	9.19
348.504	8.54
348.715	8.37
348.925	8.27
349.136	7.17
349.346	7.98
349.557	7.37
349.767	6.4
349.977	7.57
350.188	7.39
350.398	7.78
350.608	9.33
350.819	10.13
351.029	9.75
351.239	8.63
351.449	9.2
351.66	7.66
351.87	9.13
352.08	9.07
352.29	9.49
352.501	9.03
352.711	9.59
352.921	7.86
353.131	7.28
353.341	8.17
353.552	9.76
353.762	10.13
353.972	11.37
354.182	11
354.392	11.7
354.602	11.67
354.812	12.85
355.022	11.7
355.232	13.53
355.442	13.78
355.652	13.01
355.862	12.35
356.072	12.14
356.282	12.15
356.492	11.83
356.702	12.06
356.912	12.34
357.122	11.93
357.332	11.54
357.542	10.37
357.752	9.81
357.962	10.03
358.171	10.45
358.381	11.14
358.591	10.19
358.801	10.21
359.011	9.99
359.221	10.14
359.43	9.82
359.64	10.48
359.85	10.81
360.06	10.95
360.269	11.45
360.479	11.51
360.689	11.19
360.899	11.45
361.108	11.39
361.318	11.76
361.528	11.48
361.737	11.86
361.947	11.99
362.156	11.73
362.366	11.94
362.576	12.5
362.785	12.32
362.995	12.46
363.204	11.9
363.414	12.52
363.623	12.08
363.833	11.8
364.042	10.32
364.252	10.06
364.461	11.13
364.671	11.12
364.88	10.06
365.09	9.51
365.299	9.39
365.509	9.35
365.718	8.69
365.927	8.56
366.137	8.76
366.346	9.7
366.555	9.81
366.765	9.12
366.974	8.36
367.183	8.77
367.393	9.29
367.602	8.86
367.811	9.09
368.021	9.2
368.23	8.86
368.439	8.93
368.648	8.66
368.857	9.03
369.067	8.64
369.276	8.98
369.485	9.04
369.694	9.46
369.903	9.63
370.112	9.81
370.321	9.22
370.531	9.9
370.74	9.51
370.949	9.63
371.158	9.3
371.367	8.58
371.576	8.3
371.785	7.9
371.994	7.8
372.203	7.53
372.412	7.38
372.621	7.52
372.83	7.18
373.039	7.15
373.248	6.87
373.457	6.59
373.666	7.03
373.874	7.12
374.083	7.32
374.292	6.29
374.501	6.4
374.71	5.82
374.919	5.56
375.128	5.59
375.336	5.51
375.545	6.17
375.754	6.48
375.963	5.79
376.171	5.61
376.38	5.07
376.589	5.41
376.798	4.94
377.006	5.45
377.215	6.06
377.424	6.04
377.632	6.24
377.841	5.78
378.05	5.28
378.258	5.69
378.467	6.25
378.675	7.38
378.884	7.63
379.093	8.39
379.301	8.64
379.51	8.04
379.718	7.19
379.927	7.04
380.135	7.04
380.344	7.31
380.552	7.73
380.761	7.2
380.969	6
381.177	6.11
381.386	5.46
381.594	5.08
381.803	5.21
382.011	5.83
382.219	6.18
382.428	6.45
382.636	6.3
382.845	5.93
383.053	5.92
383.261	6.29
383.469	5.83
383.678	5.67
383.886	5.28
384.094	5.32
384.302	5.67
384.511	4.64
384.719	4.79
384.927	4.3
385.135	4.39
385.343	4.9
385.552	4.74
385.76	4.72
385.968	4.7
386.176	5.23
386.384	5.18
386.592	4.82
386.8	5.29
387.008	4.72
387.216	5.13
387.424	5.28
387.633	5.06
387.841	4.9
388.049	4.38
388.257	4.93
388.465	4.63
388.672	4.69
388.88	4.76
389.088	4.95
389.296	4.89
389.504	4.84
389.712	4.6
389.92	4.59
390.128	4.6
390.336	4.87
390.544	4.45
390.751	4.42
390.959	4.61
391.167	4.74
391.375	5.3
391.583	5.26
391.79	5.14
391.998	5.24
392.206	4.91
392.414	4.85
392.621	5.23
392.829	5.45
393.037	5.73
393.244	5.69
393.452	5.42
393.66	4.77
393.867	4.61
394.075	4.74
394.283	4.65
394.49	4.85
394.698	4.83
394.905	4.66
395.113	4.51
395.32	4.28
395.528	4.11
395.735	4.21
395.943	4.07
396.15	4.47
396.358	4.58
396.565	4.71
396.773	4.54
396.98	4.98
397.188	4.95
397.395	5.04
397.602	4.94
397.81	4.87
398.017	4.59
398.225	4.52
398.432	4.48
398.639	4.27
398.847	4.09
399.054	3.97
399.261	3.37
399.468	3.52
399.676	3.47
399.883	3.32
400.09	3.77
400.297	3.77
400.505	4.06
400.712	3.89
400.919	3.91
401.126	4.13
401.333	3.84
401.54	3.97
401.748	3.39
401.955	3.53
402.162	3.62
402.369	3.55
402.576	3.83
402.783	3.62
402.99	4.07
403.197	4.2
403.404	4.09
403.611	4.53
403.818	4.66
404.025	5.1
404.232	5.19
404.439	5.13
404.646	4.73
404.853	4.74
405.06	4.89
405.267	5.02
405.474	4.91
405.681	4.72
405.887	4.53
406.094	4.37
406.301	4.45
406.508	4.31
406.715	4.69
406.922	4.56
407.128	4.42
407.335	4.24
407.542	3.91
407.749	4.07
407.955	3.96
408.162	4.23
408.369	4.46
408.575	4.41
408.782	3.87
408.989	3.35
409.195	3.61
409.402	3.42
409.609	3.4
409.815	3.5
410.022	3.08
410.228	3.08
410.435	2.88
410.642	3.01
410.848	2.76
411.055	2.99
411.261	3.44
411.468	3.38
411.674	3.47
411.881	3.69
412.087	3.5
412.294	3.97
412.5	3.92
412.706	4.06
412.913	4.06
413.119	4.04
413.326	4.25
413.532	3.78
413.738	3.9
413.945	4.28
414.151	4.22
414.357	3.99
414.564	3.63
414.77	4.14
414.976	3.87
415.182	3.62
415.389	3.45
415.595	3.15
415.801	3.57
416.007	3.49
416.214	3.22
416.42	3.16
416.626	3.34
416.832	3.25
417.038	3.05
417.244	3.29
417.45	3.51
417.657	3.7
417.863	3.9
418.069	3.85
418.275	3.97
418.481	4.05
418.687	4.11
418.893	3.89
419.099	4.06
419.305	4.01
419.511	3.9
419.717	3.84
419.923	3.79
420.129	3.82
420.335	3.54
420.541	3.42
420.746	3.46
420.952	3.42
421.158	3.65
421.364	3.67
421.57	3.76
421.776	3.73
421.982	3.72
422.187	3.58
422.393	3.61
422.599	3.74
422.805	3.68
423.01	3.57
423.216	3.49
423.422	3.28
423.628	3.17
423.833	3.21
424.039	3.29
424.245	3.24
424.45	3.35
424.656	3.27
424.862	3.27
425.067	3.28
425.273	3.34
425.478	3.31
425.684	3.37
425.889	3.51
426.095	3.38
426.301	3.21
426.506	3.27
426.712	3.36
426.917	3.16
427.123	3.14
427.328	3.33
427.533	3.48
427.739	3.45
427.944	3.34
428.15	3.17
428.355	3.14
428.561	3.32
428.766	3.2
428.971	3.29
429.177	3.19
429.382	3.22
429.587	3.24
429.793	2.9
429.998	2.98
430.203	3.31
430.408	3.31
430.614	3.44
430.819	3.41
431.024	3.59
431.229	3.51
431.434	3.73
431.64	3.94
431.845	3.76
432.05	3.77
432.255	3.97
432.46	3.94
432.665	3.98
432.87	3.79
433.076	3.84
433.281	3.6
433.486	3.52
433.691	3.6
433.896	3.48
434.101	3.46
434.306	3.44
434.511	3.47
434.716	3.23
434.921	3.13
435.126	3.26
435.331	3.15
435.535	3.17
435.74	3.23
435.945	3.04
436.15	2.97
436.355	2.98
436.56	3.03
436.765	2.79
436.97	2.95
437.174	3.09
437.379	3.12
437.584	3.34
437.789	3.44
437.993	3.19
438.198	3.2
438.403	3.11
438.608	3.29
438.812	3.25
439.017	3.38
439.222	3.35
439.426	3.36
439.631	3.24
439.836	3.04
440.04	2.97
440.245	3.02
440.45	2.94
440.654	3.07
440.859	3.05
441.063	3.1
441.268	2.93
441.472	2.91
441.677	2.74
441.881	2.79
442.086	2.85
442.29	2.75
442.495	2.91
442.699	3.05
442.904	2.98
443.108	2.82
443.312	2.84
443.517	2.95
443.721	3.15
443.925	3.28
444.13	3.29
444.334	3.39
444.538	3.41
444.743	3.32
444.947	3.28
445.151	3.26
445.356	3.23
445.56	3.17
445.764	3.25
445.968	3.1
446.173	3.09
446.377	3.09
446.581	3.05
446.785	3.18
446.989	3.3
447.193	3.34
447.398	3.51
447.602	3.58
447.806	3.69
448.01	3.68
448.214	3.64
448.418	3.69
448.622	3.72
448.826	3.48
449.03	3.37
449.234	3.2
449.438	3.2
449.642	3.07
449.846	3
450.05	2.81
450.254	2.7
450.458	2.63
450.662	2.54
450.866	2.33
451.069	2.63
451.273	2.5
451.477	2.62
451.681	2.74
451.885	2.64
452.089	2.82
452.292	2.84
452.496	2.76
452.7	2.79
452.904	2.78
453.107	3.06
453.311	3.01
453.515	3.15
453.719	3.06
453.922	3.03
454.126	3.01
454.33	2.83
454.533	2.69
454.737	2.86
454.94	2.92
455.144	3.03
455.348	2.74
455.551	2.74
455.755	2.78
455.958	2.73
456.162	2.59
456.365	2.47
456.569	2.36
456.772	2.48
456.976	2.35
457.179	2.6
457.383	2.56
457.586	2.7
457.79	2.64
457.993	2.6
458.196	2.71
458.4	2.82
458.603	2.9
458.807	3.11
459.01	3.18
459.213	3.26
459.417	3.14
459.62	3.09
459.823	3.2
460.026	3.26
460.23	3.25
460.433	3.13
460.636	3.12
460.839	3.06
461.042	3.01
461.246	3.01
461.449	2.87
461.652	2.79
461.855	2.67
462.058	2.54
462.261	2.34
462.464	2.35
462.668	2.44
462.871	2.41
463.074	2.55
463.277	2.28
463.48	2.26
463.683	2.54
463.886	2.61
464.089	2.69
464.292	2.48
464.495	2.86
464.698	3.07
464.901	3.06
465.104	2.99
465.306	2.96
465.509	3.13
465.712	3.14
465.915	2.87
466.118	2.85
466.321	3.14
466.524	3.28
466.726	2.95
466.929	2.58
467.132	2.4
467.335	2.39
467.538	2.31
467.74	2.45
467.943	2.32
468.146	2.57
468.348	2.67
468.551	2.45
468.754	2.52
468.956	2.62
469.159	2.69
469.362	3.02
469.564	3.1
469.767	3.04
469.969	2.74
470.172	2.77
470.375	2.46
470.577	2.5
470.78	2.54
470.982	2.62
471.185	2.74
471.387	2.87
471.59	2.64
471.792	2.71
471.995	2.8
472.197	2.84
472.399	2.96
472.602	3.32
472.804	3.26
473.007	3.18
473.209	3.07
473.411	2.97
473.614	2.93
473.816	3.01
474.018	2.99
474.22	2.96
474.423	3.08
474.625	2.84
474.827	2.62
475.03	2.56
475.232	2.63
475.434	2.4
475.636	2.3
475.838	2.5
476.04	2.58
476.243	2.51
476.445	2.43
476.647	2.42
476.849	2.54
477.051	2.52
477.253	2.35
477.455	2.34
477.657	2.5
477.859	2.74
478.061	2.38
478.263	2.33
478.465	2.41
478.667	2.41
478.869	2.38
479.071	2.42
479.273	2.5
479.475	2.69
479.677	2.7
479.879	2.5
480.081	2.3
480.283	2.47
480.485	2.64
480.686	2.62
480.888	2.84
481.09	2.8
481.292	2.85
481.494	2.91
481.695	2.84
481.897	2.84
482.099	2.88
482.301	2.89
482.502	2.94
482.704	2.91
482.906	2.84
483.107	2.78
483.309	2.83
483.511	2.76
483.712	2.68
483.914	2.67
484.115	2.65
484.317	2.72
484.519	2.76
484.72	2.77
484.922	2.69
485.123	2.69
485.325	2.68
485.526	2.72
485.728	2.8
485.929	2.89
486.131	2.88
486.332	2.89
486.534	2.89
486.735	2.83
486.936	2.8
487.138	2.84
487.339	2.9
487.541	2.92
487.742	2.78
487.943	2.74
488.144	2.69
488.346	2.76
488.547	2.73
488.748	2.68
488.95	2.68
489.151	2.65
489.352	2.71
489.553	2.7
489.755	2.74
489.956	2.83
490.157	2.83
490.358	2.75
490.559	2.65
490.76	2.7
490.961	2.78
491.163	2.84
491.364	2.83
491.565	2.74
491.766	2.69
491.967	2.66
492.168	2.6
492.369	2.7
492.57	2.79
492.771	2.91
492.972	2.91
493.173	2.81
493.374	2.78
493.575	2.85
493.776	2.93
493.976	2.89
494.177	3.03
494.378	3.07
494.579	2.9
494.78	2.81
494.981	2.78
495.182	2.75
495.382	2.75
495.583	2.75
495.784	2.64
495.985	2.53
496.185	2.8
496.386	2.53
496.587	2.63
496.788	2.68
496.988	2.69
497.189	2.76
497.39	2.88
497.59	2.92
497.791	2.81
497.992	2.84
498.192	2.9
498.393	2.93
498.593	3.02
498.794	3
498.994	3.02
499.195	3.05
499.395	2.85
499.596	2.75
499.796	2.78
499.997	2.82
500.197	2.76
500.398	2.91
500.598	2.93
500.799	2.92
500.999	2.94
501.199	2.81
501.4	2.96
501.6	3.14
501.801	3.09
502.001	2.89
502.201	3.08
502.402	3.1
502.602	2.95
502.802	2.85
503.002	2.9
503.203	2.96
503.403	3.12
503.603	3.11
503.803	3.13
504.003	3.31
504.204	3.47
504.404	3.48
504.604	3.53
504.804	3.55
505.004	3.28
505.204	3.2
505.404	3.1
505.604	3.03
505.804	2.97
506.005	2.78
506.205	2.79
506.405	2.85
506.605	2.65
506.805	2.63
507.005	2.58
507.204	2.85
507.404	2.95
507.604	3.05
507.804	3.16
508.004	3.19
508.204	3.25
508.404	3.17
508.604	3
508.804	3.19
509.003	3.19
509.203	3.11
509.403	3.02
509.603	2.88
509.803	2.76
510.002	2.81
510.202	2.91
510.402	2.82
510.602	2.88
510.801	3.09
511.001	3.09
511.201	3.29
511.4	3.39
511.6	3.44
511.8	3.6
511.999	3.77
512.199	3.77
512.398	3.71
512.598	3.86
512.797	3.85
512.997	3.81
513.197	3.8
513.396	3.72
513.596	3.66
513.795	3.8
513.994	3.8
514.194	3.69
514.393	3.5
514.593	3.4
514.792	3.29
514.992	3.17
515.191	3.22
515.39	3.16
515.59	3.3
515.789	3.36
515.988	3.26
516.188	3.2
516.387	3.3
516.586	3.54
516.786	3.47
516.985	3.59
517.184	3.75
517.383	3.67
517.582	3.6
517.782	3.46
517.981	3.43
518.18	3.44
518.379	3.64
518.578	3.49
518.777	3.28
518.976	3.42
519.176	3.37
519.375	3.4
519.574	3.47
519.773	3.56
519.972	3.55
520.171	3.7
520.37	3.73
520.569	3.37
520.768	3.53
520.967	3.69
521.166	3.59
521.365	3.61
521.564	3.49
521.762	3.57
521.961	3.57
522.16	3.64
522.359	3.54
522.558	3.35
522.757	3.59
522.956	3.64
523.154	3.74
523.353	3.83
523.552	3.77
523.751	3.68
523.949	3.64
524.148	3.68
524.347	3.69
524.546	3.81
524.744	4.09
524.943	4.15
525.142	4.11
525.34	4.04
525.539	4.03
525.737	4.16
525.936	4.22
526.135	4.13
526.333	4.04
526.532	4.08
526.73	4.01
526.929	3.94
527.127	3.85
527.326	3.84
527.524	3.79
527.723	3.84
527.921	3.78
528.12	3.81
528.318	3.83
528.516	3.88
528.715	3.86
528.913	3.9
529.112	3.86
529.31	3.89
529.508	3.89
529.707	3.94
529.905	3.94
530.103	3.95
530.301	3.96
530.5	3.99
530.698	4.05
530.896	4.04
531.094	3.99
531.293	4.14
531.491	4.22
531.689	4.26
531.887	4.29
532.085	4.3
532.283	4.29
532.481	4.44
532.68	4.4
532.878	4.36
533.076	4.4
533.274	4.43
533.472	4.34
533.67	4.24
533.868	4.24
534.066	4.18
534.264	4.19
534.462	4.2
534.66	4.07
534.858	4.08
535.056	4.15
535.253	4.12
535.451	4.02
535.649	4.06
535.847	4.07
536.045	4.05
536.243	4.08
536.441	4.08
536.638	4.21
536.836	4.26
537.034	4.28
537.232	4.27
537.43	4.39
537.627	4.51
537.825	4.54
538.023	4.67
538.22	4.81
538.418	4.94
538.616	4.93
538.813	4.9
539.011	4.91
539.209	4.91
539.406	5.03
539.604	5.01
539.801	5.11
539.999	5.21
540.196	5.23
540.394	5.22
540.591	5.24
540.789	5.28
540.986	5.26
541.184	5.34
541.381	5.43
541.579	5.37
541.776	5.33
541.974	5.33
542.171	5.24
542.368	5.23
542.566	5.27
542.763	5.23
542.96	5.28
543.158	5.29
543.355	5.25
543.552	5.3
543.75	5.34
543.947	5.43
544.144	5.46
544.341	5.47
544.539	5.5
544.736	5.55
544.933	5.71
545.13	5.7
545.327	5.88
545.524	5.81
545.722	5.79
545.919	5.88
546.116	5.76
546.313	5.61
546.51	5.77
546.707	5.8
546.904	5.93
547.101	6
547.298	5.92
547.495	5.91
547.692	5.96
547.889	6.04
548.086	6.03
548.283	6.18
548.48	6.39
548.677	6.33
548.874	6.41
549.07	6.26
549.267	6.07
549.464	6.24
549.661	6.26
549.858	6.23
550.055	6.32
550.251	6.33
550.448	6.47
550.645	6.66
550.842	6.53
551.038	6.59
551.235	6.85
551.432	6.98
551.628	7.1
551.825	7.02
552.022	7.3
552.218	7.17
552.415	7.06
552.612	7
552.808	6.95
553.005	7.25
553.201	7.14
553.398	7.09
553.594	7.13
553.791	7.02
553.987	7.13
554.184	6.91
554.38	7.07
554.577	7.43
554.773	7.41
554.97	7.65
555.166	7.69
555.362	7.84
555.559	7.37
555.755	7.29
555.952	7.55
556.148	7.58
556.344	7.86
556.541	7.84
556.737	7.61
556.933	7.73
557.129	7.52
557.326	7.56
557.522	7.82
557.718	8.27
557.914	8.5
558.11	8.43
558.307	8.46
558.503	8.44
558.699	8.54
558.895	8.82
559.091	9.06
559.287	8.97
559.483	8.92
559.679	8.93
559.876	9.11
560.072	8.94
560.268	9.07
560.464	9.29
560.66	9.35
560.856	9.33
561.052	9.31
561.247	9.05
561.443	9.23
561.639	9.24
561.835	9.26
562.031	9.23
562.227	9.72
562.423	9.95
562.619	9.8
562.815	9.8
563.01	9.95
563.206	9.91
563.402	10.29
563.598	10.39
563.793	10.69
563.989	10.56
564.185	10.54
564.381	10.4
564.576	10.28
564.772	10.34
564.968	10.3
565.163	10.11
565.359	10.23
565.555	10.29
565.75	10.25
565.946	10.13
566.141	10.26
566.337	10.3
566.532	10.29
566.728	10.4
566.923	10.39
567.119	10.71
567.314	10.9
567.51	10.78
567.705	10.67
567.901	10.61
568.096	10.79
568.292	10.88
568.487	11.11
568.682	11.14
568.878	11.03
569.073	11.23
569.268	11.24
569.464	11.31
569.659	11.47
569.854	11.38
570.05	11.63
570.245	11.65
570.44	11.79
570.635	11.68
570.831	11.85
571.026	11.79
571.221	11.78
571.416	11.56
571.611	11.71
571.806	11.71
572.002	11.97
572.197	11.84
572.392	11.73
572.587	11.53
572.782	11.55
572.977	11.46
573.172	11.76
573.367	11.74
573.562	11.97
573.757	12.08
573.952	12.32
574.147	12.25
574.342	12.37
574.537	12.28
574.732	12.43
574.927	12.45
575.121	12.55
575.316	12.42
575.511	12.52
575.706	12.33
575.901	12.31
576.096	12.01
576.29	11.97
576.485	12.07
576.68	12.53
576.875	12.62
577.069	12.58
577.264	12.57
577.459	12.64
577.654	12.56
577.848	12.74
578.043	12.14
578.238	12.28
578.432	12.42
578.627	12.44
578.821	12.17
579.016	12.06
579.21	12.36
579.405	12.27
579.6	12.42
579.794	12.46
579.989	12.4
580.183	13.12
580.378	13.1
580.572	12.97
580.766	13.15
580.961	13.24
581.155	13.23
581.35	13.05
581.544	13.27
581.738	13.38
581.933	13.61
582.127	13.69
582.321	13.64
582.516	13.71
582.71	14.04
582.904	14.04
583.099	13.89
583.293	14.08
583.487	14.16
583.681	14
583.875	13.7
584.07	13.42
584.264	13.68
584.458	13.61
584.652	13.66
584.846	13.35
585.04	13.43
585.234	13.8
585.428	13.69
585.623	13.64
585.817	13.81
586.011	13.98
586.205	14.36
586.399	14.55
586.593	14.62
586.787	14.67
586.981	14.74
587.174	14.6
587.368	14.19
587.562	14.35
587.756	14.43
587.95	14.29
588.144	14.24
588.338	14.24
588.532	14.05
588.725	13.83
588.919	13.76
589.113	14.05
589.307	14.03
589.501	14.36
589.694	14.23
589.888	14.16
590.082	14.33
590.275	14.56
590.469	14.34
590.663	14.16
590.856	14.34
591.05	14.58
591.244	14.47
591.437	14.52
591.631	14.33
591.824	14.42
592.018	14.64
592.212	14.41
592.405	14.26
592.599	14.65
592.792	14.56
592.986	14.62
593.179	14.73
593.372	14.72
593.566	14.7
593.759	14.96
593.953	15.19
594.146	15.23
594.339	15.53
594.533	15.45
594.726	15.08
594.92	15.37
595.113	15.32
595.306	15.33
595.499	15.25
595.693	15.51
595.886	15.31
596.079	15.28
596.272	15.18
596.466	15.1
596.659	15.09
596.852	15.29
597.045	15.24
597.238	15.36
597.431	15.11
597.624	15.38
597.818	15.11
598.011	15.2
598.204	15.12
598.397	14.98
598.59	14.93
598.783	14.93
598.976	14.93
599.169	14.96
599.362	14.95
599.555	15.21
599.748	15
599.941	14.94
600.134	14.82
600.326	14.97
600.519	15.11
600.712	15.23
600.905	15.31
601.098	15
601.291	14.93
601.483	14.75
601.676	14.64
601.869	14.69
602.062	14.96
602.255	15.1
602.447	14.84
602.64	14.88
602.833	14.9
603.025	14.86
603.218	15.14
603.411	15.38
603.603	15.31
603.796	15.4
603.989	15.38
604.181	15.44
604.374	15.5
604.566	15.76
604.759	15.72
604.951	15.67
605.144	15.82
605.336	15.71
605.529	15.66
605.721	15.89
605.914	15.93
606.106	15.86
606.299	15.61
606.491	15.41
606.683	15.3
606.876	15.44
607.068	15.34
607.26	15.27
607.453	15.24
607.645	14.96
607.837	15.06
608.03	15.03
608.222	15.06
608.414	15.29
608.606	15.47
608.799	15.3
608.991	15.36
609.183	15.25
609.375	15.52
609.567	15.7
609.759	15.89
609.952	15.9
610.144	15.98
610.336	16.23
610.528	16.24
610.72	16.15
610.912	16.49
611.104	16.56
611.296	16.75
611.488	16.34
611.68	16.38
611.872	16.4
612.064	16.16
612.256	15.99
612.448	15.91
612.64	15.87
612.832	15.84
613.023	15.55
613.215	15.35
613.407	15.52
613.599	15.55
613.791	15.39
613.983	15.45
614.174	15.85
614.366	15.73
614.558	15.86
614.75	15.64
614.941	15.47
615.133	15.45
615.325	15.25
615.516	15.11
615.708	15.27
615.9	15.26
616.091	15.49
616.283	15.18
616.475	15.46
616.666	15.1
616.858	15.44
617.049	15.67
617.241	15.8
617.432	15.98
617.624	16.25
617.815	16.52
618.007	16.5
618.198	16.36
618.39	16.5
618.581	16.52
618.773	16.48
618.964	16.54
619.155	16.48
619.347	16.13
619.538	16.32
619.729	16.03
619.921	15.73
620.112	15.88
620.303	15.67
620.494	15.51
620.686	15.46
620.877	15.56
621.068	15.34
621.259	15.26
621.451	15.49
621.642	15.16
621.833	15.03
622.024	15.15
622.215	15.03
622.406	14.96
622.597	15.35
622.788	15.1
622.98	15.25
623.171	15.11
623.362	15.42
623.553	15.5
623.744	15.84
623.935	15.95
624.126	15.8
624.317	15.72
624.508	15.81
624.698	15.53
624.889	15.79
625.08	15.86
625.271	15.98
625.462	15.64
625.653	15.8
625.844	15.75
626.034	15.98
626.225	16.2
626.416	16.4
626.607	16.44
626.798	16.31
626.988	16.42
627.179	16.23
627.37	16.41
627.56	16.66
627.751	16.56
627.942	16.54
628.132	16.48
628.323	16.72
628.514	16.87
628.704	16.95
628.895	17.42
629.085	17.32
629.276	17.42
629.466	17.25
629.657	17.45
629.847	17.61
630.038	17.61
630.228	17.44
630.419	16.97
630.609	16.78
630.8	16.87
630.99	16.56
631.181	16.87
631.371	16.8
631.561	16.9
631.752	16.83
631.942	16.81
632.132	16.8
632.323	17.35
632.513	17.49
632.703	17.56
632.893	17.22
633.084	17.29
633.274	16.89
633.464	17.22
633.654	17.25
633.844	17.08
634.034	17.2
634.225	17.81
634.415	17.47
634.605	17.35
634.795	17.2
634.985	17.38
635.175	17.44
635.365	17.47
635.555	17.17
635.745	17.08
635.935	17.19
636.125	16.87
636.315	16.11
636.505	16.26
636.695	16.42
636.885	16.42
637.075	16.73
637.265	16.58
637.455	16.26
637.644	16.47
637.834	16.47
638.024	16.54
638.214	16.8
638.404	17.17
638.593	17.19
638.783	17.07
638.973	16.98
639.163	16.7
639.352	16.81
639.542	16.93
639.732	16.8
639.921	16.97
640.111	17.01
640.301	16.37
640.49	16.22
640.68	15.94
640.87	16.11
641.059	16.28
641.249	16.15
641.438	16.15
641.628	16.44
641.817	16.74
642.007	16.52
642.196	16.28
642.386	16.83
642.575	16.63
642.764	16.71
642.954	16.2
643.143	16.07
643.333	16.2
643.522	15.84
643.711	15.86
643.901	15.22
644.09	15.15
644.279	15.67
644.469	15.39
644.658	15.55
644.847	15.74
645.036	16.64
645.226	16.63
645.415	16.88
645.604	16.9
645.793	16.99
645.982	17.17
646.171	17.61
646.361	17.38
646.55	17.51
646.739	17.6
646.928	17.55
647.117	17.31
647.306	17.25
647.495	16.91
647.684	17.17
647.873	17.1
648.062	17.23
648.251	17.21
648.44	16.62
648.629	16.56
648.818	16.95
649.007	16.76
649.196	16.44
649.384	16.88
649.573	16.91
649.762	17.16
649.951	17.39
650.14	17.94
650.328	17.96
650.517	18.34
650.706	18.39
650.895	18.32
651.083	18.49
651.272	18.56
651.461	18.3
651.65	18.8
651.838	18.3
652.027	18.23
652.216	17.88
652.404	18.05
652.593	18.33
652.781	18.23
652.97	18.13
653.158	18.4
653.347	18.66
653.535	18.8
653.724	18.5
653.912	18.98
654.101	19.05
654.289	18.85
654.478	18.71
654.666	18.64
654.855	18.95
655.043	18.79
655.231	18.5
655.42	18.82
655.608	18.86
655.796	18.81
655.985	18.57
656.173	18.49
656.361	18.83
656.55	19.03
656.738	18.94
656.926	18.54
657.114	18.55
657.302	18.91
657.491	18.64
657.679	18.52
657.867	18.76
658.055	18.46
658.243	18.26
658.431	18.09
658.619	17.96
658.807	18.23
658.996	18.5
659.184	18.73
659.372	18.16
659.56	17.89
659.748	17.8
659.936	17.45
660.124	17.49
660.311	17.59
660.499	17.62
660.687	17.65
660.875	17.6
661.063	17.71
661.251	17.75
661.439	18.07
661.627	18.03
661.814	18.18
662.002	18.42
662.19	18.8
662.378	18.91
662.565	18.52
662.753	17.95
662.941	17.97
663.129	17.74
663.316	17.46
663.504	17.46
663.692	17.55
663.879	17.77
664.067	17.17
664.254	17.34
664.442	16.89
664.63	17.12
664.817	17.5
665.005	17
665.192	16.86
665.38	16.3
665.567	16.11
665.755	16.62
665.942	16.48
666.13	17.1
666.317	16.47
666.504	16.56
666.692	16.54
666.879	16.33
667.067	16.64
667.254	16.91
667.441	17.26
667.629	17.63
667.816	17.06
668.003	17.25
668.19	16.75
668.378	17.28
668.565	18.01
668.752	17.88
668.939	17.91
669.127	18.07
669.314	17.71
669.501	17.93
669.688	17.42
669.875	17.61
670.062	17.53
670.249	17.82
670.436	17.65
670.623	17.51
670.81	17.73
670.997	18.1
671.184	17.47
671.371	18.1
671.558	18.32
671.745	18.61
671.932	18.51
672.119	18.09
672.306	18.02
672.493	17.37
672.68	16.93
672.867	16.91
673.054	16.84
673.24	17.43
673.427	16.98
673.614	16.34
673.801	16.49
673.988	16.84
674.174	17.38
674.361	17.25
674.548	17.89
674.734	18.09
674.921	18.33
675.108	17.87
675.294	17.81
675.481	18.3
675.668	18.64
675.854	18.34
676.041	18.26
676.227	18.19
676.414	18.68
676.601	19.14
676.787	18.84
676.974	18.2
677.16	18.23
677.347	18.06
677.533	17.52
677.719	17.85
677.906	18.05
678.092	18.26
678.279	17.84
678.465	17.94
678.651	17.85
678.838	18.31
679.024	18.46
679.21	18.8
679.397	19.06
679.583	18.87
679.769	18.9
679.955	19.17
680.142	19
680.328	19.14
680.514	19.08
680.7	18.84
680.886	18.81
681.073	19.25
681.259	18.59
681.445	18.5
681.631	19.1
681.817	18.88
682.003	18.79
682.189	18.46
682.375	18.53
682.561	18.27
682.747	18.01
682.933	17.69
683.119	17.57
683.305	18.2
683.491	17.84
683.677	17.47
683.863	17.33
684.049	16.74
684.235	17.18
684.42	17.43
684.606	16.9
684.792	17.14
684.978	17.01
685.164	17.11
685.349	17.08
685.535	17.41
685.721	18.07
685.907	17.74
686.092	17.99
686.278	18
686.464	17.57
686.649	18.76
686.835	18.86
687.021	19.18
687.206	19.01
687.392	19.11
687.577	19.33
687.763	18.69
687.948	19.25
688.134	19.06
688.319	19.26
688.505	19.45
688.69	19.6
688.876	19.75
689.061	19.23
689.247	19.14
689.432	18.93
689.618	19.07
689.803	19.31
689.988	18.87
690.174	19.29
690.359	18.68
690.544	18.43
690.73	17.62
690.915	17.54
691.1	17.86
691.285	18.19
691.471	18.67
691.656	18.61
691.841	18.33
692.026	18.81
692.211	18.45
692.396	18.85
692.582	18.77
692.767	19.25
692.952	19.08
693.137	18.95
693.322	18.83
693.507	18.86
693.692	19.01
693.877	18.47
694.062	18.85
694.247	19.47
694.432	19.91
694.617	20.41
694.802	19.94
694.987	20.66
695.172	21.03
695.357	21.18
695.541	21.17
695.726	20.76
695.911	21.55
696.096	20.9
696.281	20.67
696.466	20.35
696.65	20.98
696.835	20.78
697.02	20.33
697.204	20.3
697.389	20.39
697.574	19.76
697.759	20.12
697.943	20.01
698.128	20.13
698.312	20.05
698.497	20.66
698.682	20.03
698.866	20.34
699.051	19.89
699.235	19.8
699.42	19.47
699.604	19.61
699.789	19.3
699.973	19.37
700.158	19.67
700.342	19.59
700.527	18.83
700.711	18.98
700.895	19.22
701.08	19.62
701.264	19.92
701.448	20.11
701.633	20.46
701.817	20.14
702.001	19.79
702.186	19.08
702.37	19.43
702.554	19.55
702.738	20.43
702.923	19.77
703.107	20.08
703.291	19.89
703.475	19.73
703.659	19.74
703.843	19.9
704.027	19.96
704.212	20.14
704.396	19.54
704.58	19.26
704.764	18.07
704.948	18.82
705.132	18.69
705.316	19.26
705.5	19.41
705.684	18.95
705.868	18.84
706.052	19.72
706.235	19.81
706.419	19.67
706.603	20.04
706.787	20.03
706.971	19.21
707.155	18.93
707.339	18.78
707.522	18.55
707.706	18.76
707.89	18.48
708.074	18.51
708.257	18.91
708.441	20.07
708.625	20.01
708.808	20.07
708.992	20.33
709.176	20.36
709.359	20.03
709.543	20.73
709.727	21.92
709.91	22.14
710.094	21.12
710.277	20.87
710.461	20.01
710.644	20.48
710.828	20.98
711.011	20.88
711.195	21.76
711.378	21.35
711.562	20.83
711.745	19.37
711.928	19.6
712.112	20.45
712.295	20.3
712.478	20.84
712.662	20.56
712.845	21.05
713.028	21.61
713.212	20.87
713.395	20.61
713.578	21.08
713.761	22.14
713.945	22.8
714.128	22.12
714.311	22.35
714.494	22.38
714.677	21.84
714.86	21.35
715.043	21.24
715.227	21.39
715.41	21.93
715.593	22.1
715.776	22.16
715.959	21.39
716.142	21.8
716.325	22.12
716.508	22.18
716.691	22.13
716.874	22.13
717.057	20.96
717.239	21.4
717.422	21.18
717.605	20.38
717.788	20.09
717.971	20.57
718.154	21.36
718.337	20.91
718.519	20.94
718.702	20.46
718.885	19.58
719.068	20.91
719.25	20.61
719.433	20.91
719.616	21.11
719.798	20.38
719.981	20.7
720.164	20.36
720.346	20.37
720.529	19.79
720.712	19.87
720.894	21.43
721.077	21.32
721.259	20.4
721.442	20.4
721.624	20.25
721.807	20.73
721.989	19.6
722.172	19.32
722.354	19.17
722.537	18.54
722.719	19.56
722.901	17.61
723.084	18.98
723.266	19.8
723.448	18.95
723.631	19
723.813	16.85
723.995	17.14
724.178	16.47
724.36	17.22
724.542	17.73
724.724	17.59
724.907	18.12
725.089	17.09
725.271	17.47
725.453	18.13
725.635	18.29
725.817	21.2
725.999	21.41
726.181	20.76
726.364	20.71
726.546	21.66
726.728	21.26
726.91	21.7
727.092	21.21
727.274	20.6
727.456	20.04
727.638	20.44
727.819	20.1
728.001	20.62
728.183	21.48
728.365	20.63
728.547	19.86
728.729	19.87
728.911	20.65
729.093	20.41
729.274	20.47
729.456	21.19
729.638	20.68
729.82	20.35
730.001	19.48
730.183	18.81
730.365	19.44
730.546	19.23
730.728	19.28
730.91	18.53
731.091	19.11
731.273	19.06
731.455	18.61
731.636	19.2
731.818	18.39
731.999	18.6
732.181	19.36
732.362	19.02
732.544	20.05
732.725	19.62
732.907	19.45
733.088	19.04
733.27	19.36
733.451	20.26
733.633	19.82
733.814	21.36
733.995	21.41
734.177	21.65
734.358	21.31
734.539	21.2
734.721	22.09
734.902	22.06
735.083	21.48
735.264	20.85
735.446	20.25
735.627	20.21
735.808	19.78
735.989	19.97
736.17	19.83
736.351	20.57
736.533	20.31
736.714	19.13
736.895	18.85
737.076	20.61
737.257	20.45
737.438	21.38
737.619	22.44
737.8	21.34
737.981	21.6
738.162	21.75
738.343	20.83
738.524	20.54
738.705	21.73
738.886	23.62
739.067	23.57
739.247	24.36
739.428	23.56
739.609	22.6
739.79	22.84
739.971	23.28
740.151	22.91
740.332	24.1
740.513	24.3
740.694	24.14
740.874	23.04
741.055	21.98
741.236	20.78
741.417	20.59
741.597	20.59
741.778	22.64
741.958	21.59
742.139	21.92
742.32	20.26
742.5	19.45
742.681	19.85
742.861	18.36
743.042	18.91
743.222	19.74
743.403	21.19
743.583	20.28
743.764	17.95
743.944	19.13
744.124	17.63
744.305	20.33
744.485	21.19
744.666	21.75
744.846	21.65
745.026	20.62
745.207	20.67
745.387	19.07
745.567	20.35
745.747	19.54
745.928	19.66
746.108	20.84
746.288	18.33
746.468	16.95
746.648	14.95
746.829	16.66
747.009	17.45
747.189	17.7
747.369	18.01
747.549	17.55
747.729	18.52
747.909	17.99
748.089	17.53
748.269	18.34
748.449	19.4
748.629	20.52
748.809	20.19
748.989	19.77
749.169	19.7
749.349	18.92
749.529	19.22
749.709	18.96
749.889	18.54
750.068	18.9
750.248	19.29
750.428	19.81
750.608	19.41
750.788	19.96
750.967	19.42
751.147	18.58
751.327	19.91
751.507	18.76
751.686	20.16
751.866	21.08
752.046	21.19
752.225	22.68
752.405	21.92
752.585	21.25
752.764	22.24
752.944	24.17
753.123	25.2
753.303	24.9
753.482	25.37
753.662	24.24
753.841	23.49
754.021	23.53
754.2	21.66
754.38	21.53
754.559	22.61
754.739	20.88
754.918	20.82
755.097	20.14
755.277	20.17
755.456	20.31
755.635	20.89
755.815	20.53
755.994	21.06
756.173	21.65
756.352	22.77
756.532	23.14
756.711	23.5
756.89	23.13
757.069	24.5
757.248	23.73
757.427	24.16
757.607	24.75
757.786	25.15
757.965	25.41
758.144	25.8
758.323	24.72
758.502	23.69
758.681	23.09
758.86	21.53
759.039	21.13
759.218	22.48
759.397	22.34
759.576	21.12
759.755	20.71
759.934	20.77
760.113	19.75
760.291	19.85
760.47	20.78
760.649	22.07
760.828	22.88
761.007	21.99
761.186	21.92
761.364	21.05
761.543	21.43
761.722	22.39
761.901	22.09
762.079	23.31
762.258	23.09
762.437	24.06
762.615	22.89
762.794	23.5
762.972	23.44
763.151	23.11
763.33	23.51
763.508	23.07
763.687	23.38
763.865	23.26
764.044	22.99
764.222	23.74
764.401	22.49
764.579	23.99
764.758	22.54
764.936	23.15
765.114	23.57
765.293	23.76
765.471	23.31
765.65	22.4
765.828	22.98
766.006	23.04
766.184	22.96
766.363	22.93
766.541	21.22
766.719	22.37
766.898	21.98
767.076	21.07
767.254	22.05
767.432	23.48
767.61	23.38
767.788	22.01
767.967	21.36
768.145	21.17
768.323	21.04
768.501	21.86
768.679	22.8
768.857	23.09
769.035	23.63
769.213	24.29
769.391	25.07
769.569	25.84
769.747	26.75
769.925	24.98
770.103	24.14
770.281	26.56
770.459	26.67
770.636	27.28
770.814	26.48
770.992	26.98
771.17	25.93
771.348	24.62
771.525	24.97
771.703	23.42
771.881	27.41
772.059	29.57
772.236	27.41
772.414	28.03
772.592	25.07
772.769	27.02
772.947	26.62
773.125	25.46
773.302	26.58
773.48	26.14
773.657	26.84
773.835	26.52
774.013	25.27
774.19	25.99
774.368	24.73
774.545	25.67
774.723	22.01
774.9	22.33
775.077	23.59
775.255	24.83
775.432	27.28
775.61	26.9
775.787	26.91
775.964	25.99
776.142	25.9
776.319	26.27
776.496	29.82
776.674	32.42
776.851	32.37
777.028	30.43
777.205	28.26
777.382	26.71
777.56	27.68
777.737	27.23
777.914	28.93
778.091	29.34
778.268	29.28
778.445	26.85
778.622	27.5
778.8	27.66
778.977	28.99
779.154	28.58
779.331	27.36
779.508	25.97
779.685	24.88
779.862	22.59
780.038	21.29
780.215	21.02
780.392	18.85
780.569	20
780.746	20.09
780.923	22.02
781.1	20.54
781.277	20.17
781.453	18.1
781.63	19.16
781.807	21.23
781.984	20.08
782.16	19.22
782.337	20.82
782.514	18.12
782.691	16.88
782.867	13.09
783.044	17.53
783.221	19.3
783.397	20.3
783.574	19.73
783.75	17.34
783.927	20.51
784.103	19.54
784.28	18.83
784.456	18.58
784.633	19.55
784.809	20.13
784.986	18.37
785.162	17.51
785.339	18.5
785.515	19.76
785.692	20.67
785.868	18.14
786.044	19
786.221	20.11
786.397	21.67
786.573	21.12
786.749	23.22
786.926	22.29
787.102	23.01
787.278	25.65
787.454	24.31
787.631	27.91
787.807	28.93
787.983	28.79
788.159	27.23
788.335	23.47
788.511	23.57
788.687	22.69
788.863	22.63
789.039	20.81
789.216	19.69
789.392	21.63
789.568	20.23
789.744	19.62
789.919	20.17
790.095	22.28
790.271	25.66
790.447	25.47
790.623	25.34
790.799	26.26
790.975	26.67
791.151	27.62
791.327	25.68
791.502	21.74
791.678	23.06
791.854	22.04
792.03	20.13
792.205	19.8
792.381	22.32
792.557	24.54
792.733	22.71
792.908	23.44
793.084	22.54
793.259	25.37
793.435	23.7
793.611	25.05
793.786	25.42
793.962	26.46
794.137	24.4
794.313	19.52
794.488	18.08
794.664	21.14
794.839	18.09
795.015	18.74
795.19	18.22
795.366	23.25
795.541	21.75
795.716	20.26
795.892	19.28
796.067	21.51
796.242	24.68
796.418	25.03
796.593	24.8
796.768	26.16
796.944	22.85
797.119	19.87
797.294	17.33
797.469	16.6
797.644	19.57
797.82	22.42
797.995	20.97
798.17	19.67
798.345	17.26
798.52	15.42
798.695	15.96
798.87	18.82
799.045	20.41
799.22	22.11
799.395	24.38
799.57	22.32
799.745	21.08
799.92	23.53
800.095	22.29
800.27	22.23
800.445	20.56
800.62	18.57
800.795	20.92
800.97	16.56
801.145	15.37
801.319	11.51
801.494	14.19
801.669	11.56
801.844	7.52
802.018	10.49
802.193	10.76
802.368	12.12
802.543	13.09
802.717	14.24
802.892	15.08
803.067	18.06
803.241	19.56
803.416	21.41
803.59	23.38
803.765	22.57
803.94	23.42
804.114	23.37
804.289	26.49
804.463	23.81
804.638	18.39
804.812	20.2
804.986	17.58
805.161	16.48
805.335	10.58
805.51	13.61
805.684	16.33
805.858	16.69
806.033	19.25
806.207	17.94
806.381	21.27
806.556	22.1
806.73	24.52
806.904	25.83
807.078	27.2
807.253	30.21
807.427	27.97
807.601	29
807.775	27
807.949	27.19
808.123	26.97
808.298	30.64
808.472	29.04
808.646	26.58
808.82	23.52
808.994	21.78
809.168	17.76
809.342	16.35
809.516	16.17
809.69	14.77
809.864	13.42
810.038	18.23
810.212	13.01
810.385	16.32
810.559	18.72
810.733	20.48
810.907	20.9
811.081	25.66
811.255	28.01
811.428	30.26
811.602	31.8
811.776	29.28
811.95	22.63
812.123	26.35
812.297	25.33
812.471	24.32
812.644	28.61
812.818	25.66
812.992	25.89
813.165	29.9
813.339	27.1
813.512	30.1
813.686	35.58
813.86	39.22
814.033	39.8
814.207	43.96
814.38	40.33
814.554	37.24
814.727	40.68
814.9	37.68
815.074	38.5
815.247	39.36
815.421	36.04
815.594	35.59
815.767	34.34
815.941	33.92
816.114	29.13
816.287	30.67
816.46	30.12
816.634	27.41
816.807	30.26
816.98	27.51
817.153	26.17
817.327	25.8
817.5	21.63
817.673	22.86
817.846	24.54
818.019	22.14
818.192	18.84
818.365	18.42
818.538	21.92
818.711	20.51
818.884	19.43
819.057	22.15
819.23	24.85
819.403	26.93
819.576	24.71
819.749	20.69
819.922	25.56
820.095	28.21
820.268	27.98
820.441	26.15
820.614	26.29
820.786	26.56
820.959	22.91
821.132	24.4
821.305	24.53
821.477	26.15
821.65	26.71
821.823	28.02
821.996	28.65
822.168	28.67
822.341	28.84
822.514	27.6
822.686	27.99
822.859	28.52
823.031	27.78
823.204	27.69
823.376	27.38
823.549	27.3
823.722	26.58
823.894	25.84
824.067	25.68
824.239	24.84
824.411	25.56
824.584	25.99
824.756	26.51
824.929	27.34
825.101	26.51
825.273	26.17
825.446	25.34
825.618	25.97
825.79	26.21
825.963	26.88
826.135	27.93
826.307	27.35
826.479	25.92
826.652	25.27
826.824	23.69
826.996	25.59
827.168	27.24
827.34	29.7
827.512	29.01
827.684	29.5
827.856	29.97
828.029	30.13
828.201	31.57
828.373	31.62
828.545	31.4
828.717	33.51
828.889	33.71
829.061	33.87
829.232	32.68
829.404	33.1
829.576	32.27
829.748	31.03
829.92	31.31
830.092	29.94
830.264	31.72
830.436	32.96
830.607	29.65
830.779	26.61
830.951	24.68
831.123	23.61
831.294	25.46
831.466	25.54
831.638	29.6
831.809	29.91
831.981	31.29
832.153	31.37
832.324	33.92
832.496	35.78
832.667	39.64
832.839	38.32
833.011	37.76
833.182	34.84
833.354	34.05
833.525	29.65
833.697	30.29
833.868	31.98
834.039	29.22
834.211	27.47
834.382	26.02
834.554	24.46
834.725	23
834.896	21.71
835.068	23.12
835.239	24.15
835.41	24.87
835.581	23.6
835.753	19.74
835.924	21.3
836.095	19.38
836.266	22.02
836.438	22.17
836.609	23.39
836.78	24.16
836.951	20.58
837.122	23.6
837.293	21.12
837.464	21.26
837.635	24.3
837.806	21.99
837.977	26.23
838.148	20.06
838.319	20.21
838.49	19.42
838.661	27.49
838.832	30.08
839.003	24.02
839.174	28.37
839.345	29.24
839.516	26.4
839.687	30.99
839.857	28.83
840.028	30.39
840.199	31.11
840.37	31.67
840.54	23.86
840.711	25.89
840.882	29.82
841.053	29.87
841.223	32.22
841.394	33.94
841.564	31.78
841.735	25.39
841.906	27.35
842.076	28.48
842.247	36.52
842.417	38.6
842.588	35.27
842.758	39.03
842.929	35.66
843.099	32.86
843.27	32.55
843.44	33.31
843.611	42.58
843.781	48.03
843.951	45.48
844.122	36.09
844.292	35.89
844.462	39.39
844.633	30.6
844.803	28.92
844.973	33.21
845.144	34.71
845.314	33.4
845.484	25.98
845.654	24.77
845.824	27.01
845.995	29.45
846.165	26.8
846.335	18.13
846.505	26.7
846.675	27.87
846.845	30.78
847.015	38.88
847.185	33.61
847.355	45.47
847.525	35.35
847.695	35.41
847.865	37.76
848.035	47.52
848.205	47.94
848.375	32.11
848.545	38.56
848.715	31.71
848.884	19.91
849.054	23.22
849.224	17.28
849.394	23.96
849.564	26.13
849.733	26.4
849.903	22.1
850.073	29.06
850.243	40.44
850.412	35.09
850.582	34.37
850.752	35.64
850.921	28.25
851.091	29.09
851.26	29.42
851.43	23.05
851.599	13.55
851.769	10.91
851.939	5.09
852.108	-2.96
852.278	-2.36
852.447	-8.2
852.616	-7.43
852.786	4.85
852.955	9.01
853.125	3.67
853.294	10.97
853.463	11.11
853.633	10.01
853.802	13.59
853.971	20.03
854.141	21.55
854.31	39.07
854.479	51.1
854.648	46.47
854.818	40.68
854.987	45.18
855.156	45.08
855.325	54.08
855.494	58.77
855.663	56.17
855.832	46.42
856.001	44.75
856.171	33.07
856.34	30.65
856.509	25.34
856.678	25.74
856.847	17.91
857.016	23.57
857.185	6.9
857.353	13.76
857.522	8.77
857.691	3.57
857.86	20.16
858.029	28.84
858.198	21.08
858.367	21.28
858.535	23.22
858.704	25
858.873	12.2
859.042	9.65
859.21	18.74
859.379	23.29
859.548	29.64
859.717	22.01
859.885	15.77
860.054	17.13
860.222	28.6
860.391	33.96
860.56	31.85
860.728	38.58
860.897	43.58
861.065	40.37
861.234	46.72
861.402	44.31
861.571	41.45
861.739	41.24
861.908	28.81
862.076	31.35
862.244	27.1
862.413	20.64
862.581	8.21
862.749	13.38
862.918	-9.82
863.086	-17.99
863.254	-22.95
863.423	-4.17
863.591	2.27
863.759	17.29
863.927	9.9
864.096	4.02
864.264	13.08
864.432	22.58
864.6	24.8
864.768	39.63
864.936	45.17
865.104	50.17
865.272	42.2
865.44	39.03
865.608	36
865.776	40.52
865.944	47.91
866.112	56.53
866.28	58.06
866.448	56.22
866.616	58.44
866.784	41.44
866.952	35
867.12	44.04
867.288	44.9
867.455	42.53
867.623	38.79
867.791	36.03
867.959	36.24
868.127	45.33
868.294	36.48
868.462	18.75
868.63	32.7
868.797	34.55
868.965	19.15
869.133	18.36
869.3	34.35
869.468	38.17
869.636	29.9
869.803	18.44
869.971	12.59
870.138	24.88
870.306	36.68
870.473	31.52
870.641	23.96
870.808	19.01
870.975	24.78
871.143	26.46
871.31	25.02
871.478	34.71
871.645	50.2
871.812	44.28
871.98	37.39
872.147	36.79
872.314	38.68
872.482	45.29
872.649	51.56
872.816	42.86
872.983	43.72
873.15	43.79
873.318	38.78
873.485	29.96
873.652	39.49
873.819	32.88
873.986	41.31
874.153	43.78
874.32	52.8
874.487	58.02
874.654	68.02
874.821	54.58
874.988	58.86
875.155	59.39
875.322	66.88
875.489	63.87
875.656	73.86
875.823	79.12
875.99	79.9
876.157	56.82
876.324	51.59
876.49	48.71
876.657	53.65
876.824	41.05
876.991	39.88
877.157	32.26
877.324	39.33
877.491	33.92
877.658	16.22
877.824	15.97
877.991	37.52
878.157	38.93
878.324	37.93
878.491	34.47
878.657	16.06
878.824	33.32
878.99	36.26
879.157	27.35
879.323	28.2
879.49	42.33
879.656	49.52
879.823	45.14
879.989	46.68
880.156	56.35
880.322	62.04
880.488	64.3
880.655	48.93
880.821	48.67
880.987	56.4
881.154	59.27
881.32	46.76
881.486	42.43
881.652	43.41
881.819	37.94
881.985	40.16
882.151	37.9
882.317	39.61
882.483	41.13
882.649	39.63
882.816	37.5
882.982	34.77
883.148	33.31
883.314	31.74
883.48	31.74
883.646	31.59
883.812	29.43
883.978	29.18
884.144	29.69
884.31	29.46
884.476	30
884.642	28.83
884.807	28.9
884.973	30.37
885.139	30.71
885.305	29.91
885.471	33.03
885.637	35.05
885.802	34.94
885.968	36.16
886.134	37.23
886.3	36.37
886.465	30.04
886.631	35.31
886.797	32.64
886.962	39.4
887.128	37.12
887.293	34.36
887.459	28.21
887.625	25.38
887.79	20.58
887.956	16.11
888.121	16.05
888.287	26.93
888.452	18.25
888.618	26.41
888.783	10.64
