Data from 2938068_Reflection_3.txt Node
Date: Sat Jul 11 20:44:52 EDT 2015
User: robert
Spectrometer: USB4E03001
Autoset integration time: false
Trigger mode: 4
Integration Time (sec): 1.000000E-1
Scans to average: 10
Electric dark correction enabled: true
Nonlinearity correction enabled: false
Boxcar width: 5
Stray light correction enabled: false
XAxis mode: Wavelengths
Stop averaging: false
Number of Pixels in Spectrum: 3648
>>>>>Begin Spectral Data<<<<<
177.566	451.81
177.785	636.71
178.005	-68.98
178.225	62.43
178.445	122.71
178.665	164.65
178.885	806.31
179.105	116.44
179.324	124.42
179.544	165.72
179.764	93.07
179.984	53.86
180.204	71.16
180.423	4287.32
180.643	2095.68
180.863	-165.83
181.083	45.4
181.302	78.23
181.522	95.91
181.742	123.13
181.961	528.3
182.181	562.18
182.401	732.21
182.621	283.81
182.84	392.47
183.06	549.88
183.279	729.86
183.499	239.81
183.719	106.81
183.938	115.23
184.158	120.08
184.377	62.21
184.597	113.41
184.816	52.86
185.036	77.75
185.256	62.48
185.475	77.96
185.695	87.52
185.914	80.11
186.134	89.3
186.353	79.56
186.572	86.11
186.792	74.88
187.011	62.94
187.231	79.21
187.45	77.58
187.67	106.17
187.889	78.25
188.108	81.78
188.328	73.33
188.547	48.01
188.766	30.15
188.986	-7.02
189.205	-35.81
189.424	2.8
189.644	27.87
189.863	12.38
190.082	-6.38
190.302	-18.52
190.521	-9.04
190.74	22.11
190.959	16.76
191.178	39.98
191.398	49.45
191.617	38.93
191.836	57.65
192.055	27.58
192.274	1.65
192.494	-8.42
192.713	32.55
192.932	52.04
193.151	33.86
193.37	41.48
193.589	18.44
193.808	0.14
194.027	5.46
194.246	18.49
194.465	10.12
194.685	27.21
194.904	59.47
195.123	31.77
195.342	2.89
195.561	11.7
195.78	-734.99
195.999	-779.82
196.218	-102.93
196.436	166.37
196.655	144.79
196.874	862.66
197.093	121.85
197.312	386.78
197.531	-501.11
197.75	176.06
197.969	2314.71
198.188	13.46
198.407	24.59
198.625	54.21
198.844	158.7
199.063	128.41
199.282	207.77
199.501	140.88
199.719	131.66
199.938	159.83
200.157	109.1
200.376	106.2
200.594	90.34
200.813	103.61
201.032	91.67
201.251	59.78
201.469	38.12
201.688	-49.59
201.907	3.83
202.125	57.47
202.344	40.07
202.563	87.96
202.781	77.5
203	99.42
203.218	128.27
203.437	68.25
203.656	58.86
203.874	54.51
204.093	42.39
204.311	40.5
204.53	40.01
204.748	18.6
204.967	-67.23
205.185	-175.6
205.404	-127.78
205.622	-142.49
205.841	-663.79
206.059	617.24
206.278	425.45
206.496	6977.24
206.715	-645.92
206.933	697
207.151	609.57
207.37	466.67
207.588	258.52
207.806	167.65
208.025	257.61
208.243	296.06
208.461	138.17
208.68	298.47
208.898	187.57
209.116	616.49
209.335	-1.76
209.553	34.53
209.771	55.53
209.989	43.67
210.208	45.94
210.426	49.75
210.644	64.75
210.862	66.39
211.081	84.2
211.299	99.26
211.517	109.15
211.735	113.88
211.953	137.52
212.171	122.58
212.39	171.38
212.608	352.89
212.826	352.29
213.044	289.21
213.262	190.99
213.48	127.78
213.698	112.81
213.916	113.36
214.134	154.34
214.352	123.13
214.57	94.59
214.788	86.87
215.006	82.61
215.224	73.39
215.442	56.6
215.66	55.92
215.878	39.05
216.096	17.46
216.314	5.69
216.532	32.95
216.75	37.9
216.968	70.83
217.185	66.8
217.403	65.25
217.621	72.86
217.839	72.79
218.057	70.78
218.275	81.78
218.492	79.96
218.71	87.28
218.928	72.4
219.146	62.08
219.363	51.54
219.581	47.32
219.799	35.33
220.017	24.88
220.234	28.61
220.452	29.1
220.67	-4.04
220.887	-11.82
221.105	-229
221.323	331.25
221.54	-43.69
221.758	9.16
221.976	-29.62
222.193	151.66
222.411	-40.72
222.629	6.25
222.846	-2.04
223.064	-7.4
223.281	-879.15
223.499	-125.85
223.716	11.65
223.934	15.77
224.151	-2.5
224.369	4.03
224.586	25.4
224.804	24.43
225.021	57.71
225.239	33.48
225.456	31.18
225.674	35.36
225.891	14.7
226.108	8.47
226.326	0.35
226.543	5.35
226.76	14.62
226.978	7.07
227.195	1.47
227.413	-7.43
227.63	-8.89
227.847	-13.36
228.064	-13.05
228.282	-5.7
228.499	-2.71
228.716	-5.31
228.934	-4.04
229.151	-5.87
229.368	-2.26
229.585	-2.48
229.802	-4.17
230.02	-0.92
230.237	0.64
230.454	1.29
230.671	-5.79
230.888	-8.11
231.105	-7.39
231.323	-10.42
231.54	-16.27
231.757	-17.58
231.974	-18.75
232.191	-12.34
232.408	-19.89
232.625	-19.37
232.842	-18.7
233.059	-8.38
233.276	-0.55
233.493	-2.21
233.71	0.88
233.927	3.26
234.144	-7.48
234.361	-11.18
234.578	-15.4
234.795	-15.26
235.012	-16.98
235.229	-17.08
235.446	-15.24
235.663	-14.68
235.879	-9.48
236.096	-15.69
236.313	-11.38
236.53	-0.44
236.747	8.28
236.964	7.5
237.181	6.2
237.397	7.34
237.614	5.69
237.831	3.39
238.048	-8.29
238.264	-10.99
238.481	-8.9
238.698	-9.49
238.915	-20.29
239.131	-30.78
239.348	-26.76
239.565	-24.84
239.781	-29.9
239.998	-21.45
240.215	-18.56
240.431	-9.32
240.648	-10.73
240.865	-4.49
241.081	-3.91
241.298	-1.14
241.514	-0.93
241.731	1.27
241.947	2.78
242.164	4.09
242.38	1.84
242.597	0.5
242.814	0.56
243.03	3.11
243.246	1.77
243.463	1
243.679	-2.12
243.896	-1.18
244.112	-2.18
244.329	-2.11
244.545	-1.46
244.762	1
244.978	3.65
245.194	2.73
245.411	1.82
245.627	3.35
245.843	2.84
246.06	4
246.276	4.2
246.492	3.02
246.709	3.28
246.925	3.49
247.141	2.56
247.357	2.09
247.574	1.79
247.79	1.57
248.006	1.5
248.222	1.04
248.439	2.05
248.655	1.49
248.871	1.41
249.087	0.53
249.303	0.21
249.519	0.29
249.736	-1.32
249.952	-0.58
250.168	-0.54
250.384	-2.83
250.6	-2.82
250.816	-3.66
251.032	-2.72
251.248	-4.7
251.464	-4.15
251.68	-4.55
251.896	-3.38
252.112	-1.16
252.328	-2.15
252.544	-1.99
252.76	-1.35
252.976	0.31
253.192	-0.21
253.408	-1.01
253.624	1.16
253.84	0.18
254.056	1.01
254.272	-0.12
254.487	0.17
254.703	-1.63
254.919	-4.95
255.135	-6.28
255.351	-7.48
255.567	-4.63
255.782	-3.19
255.998	-5.19
256.214	-3.64
256.43	-3
256.646	-3.61
256.861	-6.66
257.077	-5.54
257.293	-3.32
257.508	-1.23
257.724	-2.45
257.94	-3.39
258.155	-3
258.371	-0.21
258.587	-0.07
258.802	-0.75
259.018	0.37
259.234	0.43
259.449	1.26
259.665	1.55
259.88	1.59
260.096	2.14
260.312	2.34
260.527	2.09
260.743	2.32
260.958	2.07
261.174	1.79
261.389	2.05
261.605	3.03
261.82	2.09
262.036	3.17
262.251	1.83
262.466	0.61
262.682	-1.12
262.897	-2.4
263.113	-5
263.328	-6.2
263.543	-4.66
263.759	-7.99
263.974	-9.86
264.189	-8.27
264.405	-12.29
264.62	-10.02
264.835	-7.25
265.051	-5.92
265.266	-5.37
265.481	-7.02
265.696	-4.11
265.912	-7.98
266.127	-5.26
266.342	-2.47
266.557	-1.45
266.773	-2.11
266.988	-0.34
267.203	-0.84
267.418	-0.65
267.633	-0.1
267.848	1.05
268.064	0.07
268.279	2.56
268.494	0.83
268.709	-2.04
268.924	-3.22
269.139	-2.75
269.354	-4.08
269.569	-3.17
269.784	-3.63
269.999	-4.78
270.214	-3.51
270.429	-3.98
270.644	-5.48
270.859	-2.53
271.074	-1.63
271.289	-0.01
271.504	1.08
271.719	1.06
271.934	0.27
272.149	0.01
272.363	0.52
272.578	0.55
272.793	1.73
273.008	3.19
273.223	1.62
273.438	1.46
273.653	-1.01
273.867	-1.07
274.082	-1.5
274.297	-1.44
274.512	-0.93
274.726	-0.14
274.941	0.08
275.156	-0.15
275.371	-0.98
275.585	-0.63
275.8	0.67
276.015	2.75
276.229	0.08
276.444	0.44
276.659	-0.79
276.873	-0.22
277.088	-0.89
277.302	-2.34
277.517	-3.88
277.732	-4.27
277.946	-4.51
278.161	-5.21
278.375	-5.27
278.59	-3.22
278.804	-3.83
279.019	-2.44
279.233	-4.45
279.448	-5.05
279.662	-4.16
279.877	-4.46
280.091	-3.18
280.306	-2.32
280.52	-3.57
280.735	-3.51
280.949	-2.88
281.163	-2.28
281.378	-1.31
281.592	-1.86
281.806	-0.12
282.021	-0.85
282.235	0.33
282.449	-0.03
282.664	1.37
282.878	2.37
283.092	2.61
283.307	2.55
283.521	2.13
283.735	0.53
283.949	1.93
284.164	1.1
284.378	1.97
284.592	2.11
284.806	1.18
285.02	-0.97
285.234	-0.41
285.449	-1.47
285.663	-1.36
285.877	-2.47
286.091	-0.79
286.305	0.14
286.519	0.38
286.733	-0.82
286.947	-1.76
287.161	-1.3
287.375	-0.69
287.589	0.04
287.803	0.05
288.017	-0.23
288.231	1.23
288.445	0.82
288.659	0.55
288.873	-0.24
289.087	1.53
289.301	1.93
289.515	1.66
289.729	2.73
289.943	0.62
290.157	1.2
290.371	1.09
290.584	1.45
290.798	1.38
291.012	1.16
291.226	0.69
291.44	0.14
291.654	0.46
291.867	1.33
292.081	0.19
292.295	1.43
292.509	1.58
292.722	1.72
292.936	1.49
293.15	1.8
293.364	2.33
293.577	2.98
293.791	3.33
294.005	3.45
294.218	2.91
294.432	2.44
294.645	2.08
294.859	2.26
295.073	3.16
295.286	3.45
295.5	3.41
295.713	2.21
295.927	3.18
296.14	2.96
296.354	3.49
296.568	3.66
296.781	3.75
296.994	4.69
297.208	4.37
297.421	5.04
297.635	5.1
297.848	4.82
298.062	5.06
298.275	4.84
298.489	4.89
298.702	4.98
298.915	5.83
299.129	5.59
299.342	4.6
299.555	4.17
299.769	2.98
299.982	2.96
300.195	1.16
300.409	1.65
300.622	1.28
300.835	1.77
301.048	1.72
301.262	0.95
301.475	1.95
301.688	2.59
301.901	3.76
302.115	3.88
302.328	4.19
302.541	5.84
302.754	6.04
302.967	5.82
303.18	6.27
303.393	5.97
303.607	6.29
303.82	6.44
304.033	5.52
304.246	5.57
304.459	5.47
304.672	5.61
304.885	5.33
305.098	4.73
305.311	5.37
305.524	4.69
305.737	4.28
305.95	3.17
306.163	4.33
306.376	5.34
306.589	4.84
306.802	4.47
307.015	4.45
307.228	5.05
307.44	6.11
307.653	5.01
307.866	4.72
308.079	5.28
308.292	7.06
308.505	6.1
308.718	7.01
308.93	8.65
309.143	9.19
309.356	8.93
309.569	9.47
309.781	9.65
309.994	10.94
310.207	10.75
310.42	9.69
310.632	9.91
310.845	10
311.058	8.94
311.27	8.4
311.483	9.12
311.696	9.23
311.908	9.01
312.121	8.9
312.333	9.46
312.546	9.87
312.759	10.88
312.971	10.16
313.184	10.39
313.396	10.24
313.609	10.24
313.821	10.46
314.034	9.72
314.246	9.11
314.459	9.31
314.671	7.75
314.884	8.18
315.096	8.87
315.309	8.62
315.521	9.47
315.733	9.59
315.946	9.59
316.158	8.86
316.371	9.79
316.583	8.93
316.795	9.03
317.008	11.13
317.22	10.45
317.432	9.55
317.644	10.36
317.857	9.42
318.069	9.64
318.281	7.72
318.494	7.31
318.706	7.34
318.918	9.27
319.13	7.33
319.342	6.47
319.555	7.45
319.767	7.41
319.979	7.05
320.191	7.94
320.403	8.72
320.615	10.31
320.827	10.96
321.039	11.22
321.252	10.97
321.464	13.06
321.676	12.1
321.888	12.45
322.1	13.62
322.312	12.93
322.524	11.88
322.736	11.05
322.948	11.31
323.16	11.64
323.372	11.02
323.584	11.42
323.796	11.03
324.007	12.1
324.219	11.71
324.431	10.62
324.643	11.3
324.855	12.13
325.067	14.37
325.279	14.02
325.491	13.65
325.702	13.84
325.914	14.54
326.126	13.77
326.338	14.72
326.55	15.98
326.761	17.18
326.973	17.44
327.185	17.16
327.396	15.62
327.608	16.32
327.82	16.79
328.032	16.82
328.243	16.84
328.455	17.57
328.666	15.79
328.878	15.03
329.09	14.59
329.301	14.37
329.513	15.28
329.725	16
329.936	16.63
330.148	16.06
330.359	17.64
330.571	17.43
330.782	17.87
330.994	17.95
331.205	17.87
331.417	19.15
331.628	18.79
331.84	18.73
332.051	18.41
332.262	17.76
332.474	19.36
332.685	18.97
332.897	19.11
333.108	19.52
333.319	20.83
333.531	20.56
333.742	20.92
333.953	23.38
334.165	24.11
334.376	25.15
334.587	26.2
334.799	26.75
335.01	26.75
335.221	27.42
335.432	29.26
335.644	29.19
335.855	29.25
336.066	29.2
336.277	28.8
336.488	29.82
336.7	30
336.911	30.28
337.122	29.68
337.333	29.78
337.544	29.83
337.755	29.18
337.966	30.79
338.177	32.72
338.388	32.25
338.599	32.33
338.811	30.54
339.022	31.01
339.233	31.3
339.444	31.31
339.655	31.62
339.866	30.99
340.076	30.74
340.287	29.94
340.498	28.68
340.709	29.27
340.92	29.6
341.131	30.24
341.342	30.63
341.553	30.66
341.764	32
341.975	31.91
342.185	32.59
342.396	32.64
342.607	32.56
342.818	33.43
343.029	33.29
343.239	32.89
343.45	32.64
343.661	32.31
343.872	31.83
344.082	30.96
344.293	30.77
344.504	31.1
344.714	30.68
344.925	29.69
345.136	29.09
345.346	29.49
345.557	29
345.768	29.48
345.978	29.45
346.189	30.02
346.399	29.59
346.61	30.03
346.821	30.42
347.031	30.73
347.242	31.17
347.452	31.68
347.663	32.1
347.873	32.96
348.084	32.64
348.294	31.71
348.504	31.25
348.715	30.96
348.925	31.43
349.136	31.24
349.346	31.75
349.557	32.48
349.767	32
349.977	32.13
350.188	32.36
350.398	32.97
350.608	33.82
350.819	32.81
351.029	33.55
351.239	33.75
351.449	33.02
351.66	33.58
351.87	32.42
352.08	33.02
352.29	32.87
352.501	32.5
352.711	31.99
352.921	31.6
353.131	31.72
353.341	31.35
353.552	28.82
353.762	29.15
353.972	27.78
354.182	29.79
354.392	29.34
354.602	29.41
354.812	30.24
355.022	30.05
355.232	30.62
355.442	31.1
355.652	31.03
355.862	33.08
356.072	33.06
356.282	32.73
356.492	31.79
356.702	31.92
356.912	32.1
357.122	32.27
357.332	32.48
357.542	31.98
357.752	32.36
357.962	33.05
358.171	31.48
358.381	31.59
358.591	32.56
358.801	32.09
359.011	31.86
359.221	31.21
359.43	30.85
359.64	30.55
359.85	30.93
360.06	30.39
360.269	29.99
360.479	31.16
360.689	30.54
360.899	30.22
361.108	30.87
361.318	30.66
361.528	31.25
361.737	31.48
361.947	31.76
362.156	31.53
362.366	32.36
362.576	32.64
362.785	32.89
362.995	33.64
363.204	33.99
363.414	33.54
363.623	33.78
363.833	32.98
364.042	32
364.252	32.54
364.461	32.67
364.671	31.77
364.88	31.07
365.09	30.65
365.299	30
365.509	29.38
365.718	29.78
365.927	29.15
366.137	29.81
366.346	30.9
366.555	30.64
366.765	30.45
366.974	30.5
367.183	30.64
367.393	30.52
367.602	31.45
367.811	31.95
368.021	31.8
368.23	32.27
368.439	31.97
368.648	31.44
368.857	31.22
369.067	31.56
369.276	31.41
369.485	30.91
369.694	30.17
369.903	28.9
370.112	28.63
370.321	28.97
370.531	28.62
370.74	28.14
370.949	27.58
371.158	27.54
371.367	26.75
371.576	26.7
371.785	27.65
371.994	28.43
372.203	28.63
372.412	28.37
372.621	27.86
372.83	28.34
373.039	28.17
373.248	27.95
373.457	28.21
373.666	29.34
373.874	29.5
374.083	28.94
374.292	28.66
374.501	29.26
374.71	28.7
374.919	28.53
375.128	28.62
375.336	28.34
375.545	28.91
375.754	28.2
375.963	27.11
376.171	26.8
376.38	26.75
376.589	27.06
376.798	26.61
377.006	27.16
377.215	27.46
377.424	27.05
377.632	27.18
377.841	26.54
378.05	26.67
378.258	27.04
378.467	27.32
378.675	27.31
378.884	26.5
379.093	26.54
379.301	26.78
379.51	26.29
379.718	26.3
379.927	26.6
380.135	27.21
380.344	26.58
380.552	26.03
380.761	26.41
380.969	26.51
381.177	27.15
381.386	27.02
381.594	26.61
381.803	26.83
382.011	26.61
382.219	26.46
382.428	26.08
382.636	26.6
382.845	26.76
383.053	26.29
383.261	26.12
383.469	25.7
383.678	25.39
383.886	25.16
384.094	24.96
384.302	25.11
384.511	25.23
384.719	25.17
384.927	25.06
385.135	24.95
385.343	25
385.552	24.84
385.76	24.72
385.968	24.73
386.176	25.13
386.384	24.97
386.592	24.83
386.8	24.59
387.008	24.71
387.216	24.33
387.424	24.68
387.633	24.4
387.841	24.28
388.049	24.31
388.257	24.38
388.465	24.38
388.672	24.57
388.88	24.8
389.088	24.77
389.296	24.51
389.504	25.1
389.712	24.83
389.92	25.26
390.128	25.36
390.336	25.51
390.544	25.7
390.751	25.13
390.959	24.96
391.167	25.03
391.375	25.25
391.583	25.41
391.79	25.27
391.998	25.65
392.206	25.43
392.414	25.44
392.621	25.33
392.829	25.31
393.037	25.24
393.244	25.45
393.452	24.89
393.66	24.96
393.867	24.9
394.075	24.96
394.283	24.74
394.49	24.91
394.698	24.9
394.905	25.22
395.113	25.23
395.32	25.63
395.528	25.65
395.735	25.89
395.943	25.88
396.15	26.24
396.358	26.03
396.565	26.1
396.773	25.91
396.98	26.06
397.188	25.94
397.395	25.73
397.602	25.33
397.81	25.26
398.017	25.74
398.225	25.65
398.432	25.47
398.639	25.62
398.847	25.48
399.054	25.23
399.261	25.13
399.468	25.08
399.676	25.27
399.883	25.83
400.09	25.81
400.297	25.4
400.505	25.5
400.712	25.28
400.919	25.56
401.126	25.68
401.333	26.14
401.54	26.17
401.748	25.97
401.955	25.76
402.162	25.81
402.369	25.88
402.576	26.07
402.783	26.28
402.99	26.64
403.197	26.26
403.404	26.05
403.611	25.98
403.818	26.21
404.025	26.37
404.232	26.67
404.439	26.46
404.646	26.72
404.853	26.63
405.06	26.39
405.267	26.25
405.474	26.16
405.681	26.6
405.887	26.55
406.094	26.46
406.301	26.38
406.508	26.06
406.715	26.09
406.922	25.93
407.128	25.96
407.335	25.89
407.542	25.75
407.749	26.02
407.955	25.46
408.162	25.65
408.369	25.76
408.575	26.04
408.782	25.98
408.989	26.03
409.195	25.89
409.402	25.81
409.609	25.81
409.815	25.56
410.022	25.51
410.228	25.86
410.435	25.52
410.642	25.21
410.848	24.93
411.055	25.16
411.261	25.03
411.468	24.84
411.674	24.95
411.881	24.85
412.087	25.06
412.294	24.85
412.5	24.74
412.706	25
412.913	25.1
413.119	25.31
413.326	25.37
413.532	25.14
413.738	25.4
413.945	25.16
414.151	25.28
414.357	25.67
414.564	25.82
414.77	25.75
414.976	25.73
415.182	25.39
415.389	25.3
415.595	25.14
415.801	25.38
416.007	25.07
416.214	25
416.42	24.84
416.626	24.44
416.832	24.44
417.038	24.42
417.244	24.36
417.45	24.47
417.657	24.59
417.863	24.58
418.069	24.45
418.275	24.69
418.481	24.74
418.687	24.72
418.893	24.97
419.099	24.93
419.305	24.86
419.511	24.82
419.717	24.69
419.923	24.67
420.129	24.63
420.335	24.68
420.541	24.56
420.746	24.56
420.952	24.54
421.158	24.38
421.364	24.42
421.57	24.44
421.776	24.48
421.982	24.63
422.187	24.57
422.393	24.6
422.599	24.75
422.805	24.79
423.01	24.87
423.216	24.9
423.422	24.75
423.628	24.58
423.833	24.57
424.039	24.57
424.245	24.66
424.45	24.6
424.656	24.59
424.862	24.44
425.067	24.35
425.273	24.25
425.478	24.19
425.684	24.24
425.889	24.49
426.095	24.46
426.301	24.23
426.506	24.09
426.712	24.33
426.917	24.17
427.123	24.19
427.328	24.21
427.533	24.12
427.739	24.33
427.944	24.49
428.15	24.28
428.355	24.26
428.561	24.42
428.766	24.22
428.971	23.94
429.177	24.21
429.382	24.16
429.587	24.28
429.793	24.39
429.998	24.38
430.203	24.4
430.408	24.39
430.614	24.52
430.819	24.54
431.024	24.64
431.229	24.67
431.434	24.48
431.64	24.57
431.845	24.64
432.05	24.69
432.255	24.5
432.46	24.34
432.665	24.33
432.87	24.33
433.076	24.37
433.281	24.39
433.486	24.2
433.691	24.26
433.896	24.17
434.101	24.2
434.306	24.14
434.511	24.18
434.716	24.35
434.921	24.52
435.126	24.5
435.331	24.36
435.535	24.56
435.74	24.63
435.945	24.65
436.15	24.68
436.355	24.52
436.56	24.55
436.765	24.41
436.97	24.13
437.174	23.83
437.379	23.73
437.584	23.86
437.789	23.78
437.993	23.92
438.198	23.88
438.403	23.75
438.608	23.77
438.812	23.73
439.017	23.74
439.222	23.85
439.426	24.08
439.631	24.21
439.836	24.33
440.04	24.25
440.245	24.12
440.45	24.24
440.654	24.36
440.859	24.31
441.063	24.37
441.268	24.33
441.472	24.4
441.677	24.34
441.881	24.24
442.086	24.06
442.29	24.25
442.495	24.32
442.699	24.2
442.904	24.19
443.108	24.38
443.312	24.25
443.517	24.5
443.721	24.56
443.925	24.55
444.13	24.62
444.334	24.56
444.538	24.41
444.743	24.41
444.947	24.29
445.151	24.34
445.356	24.29
445.56	24.32
445.764	24.2
445.968	24.13
446.173	24.08
446.377	24.02
446.581	24.04
446.785	23.92
446.989	23.88
447.193	23.93
447.398	23.65
447.602	23.35
447.806	23.42
448.01	23.33
448.214	23.37
448.418	23.37
448.622	23.22
448.826	23.13
449.03	23.23
449.234	23.37
449.438	23.32
449.642	23.61
449.846	23.97
450.05	23.68
450.254	23.82
450.458	23.65
450.662	23.54
450.866	23.72
451.069	23.68
451.273	23.59
451.477	23.46
451.681	23.39
451.885	23.25
452.089	23.13
452.292	23.36
452.496	23.2
452.7	23.15
452.904	23.1
453.107	23.02
453.311	22.99
453.515	22.82
453.719	22.89
453.922	23.01
454.126	23.01
454.33	23.07
454.533	22.75
454.737	22.77
454.94	22.58
455.144	22.68
455.348	22.76
455.551	22.84
455.755	22.94
455.958	22.71
456.162	22.58
456.365	22.56
456.569	22.37
456.772	22.75
456.976	22.6
457.179	22.94
457.383	22.95
457.586	22.91
457.79	22.85
457.993	22.85
458.196	23.08
458.4	23.19
458.603	23.14
458.807	23.3
459.01	23.12
459.213	23.31
459.417	23.23
459.62	23.32
459.823	23.45
460.026	23.62
460.23	23.7
460.433	23.48
460.636	23.31
460.839	23.38
461.042	23.38
461.246	23.51
461.449	23.43
461.652	23.49
461.855	23.38
462.058	23.2
462.261	23.07
462.464	22.92
462.668	23.04
462.871	23.21
463.074	23.19
463.277	23.04
463.48	23
463.683	22.95
463.886	22.85
464.089	22.9
464.292	22.89
464.495	22.9
464.698	22.95
464.901	23.04
465.104	22.92
465.306	23.17
465.509	23.14
465.712	23.17
465.915	23.38
466.118	23.34
466.321	23.15
466.524	23.08
466.726	23.07
466.929	23.14
467.132	23.16
467.335	23.41
467.538	23.18
467.74	23.28
467.943	23.15
468.146	23.31
468.348	23.52
468.551	23.82
468.754	24.19
468.956	24.31
469.159	24.36
469.362	24.44
469.564	24.27
469.767	24.31
469.969	24.26
470.172	24.51
470.375	24.36
470.577	24.3
470.78	24.06
470.982	23.75
471.185	23.74
471.387	23.75
471.59	23.74
471.792	23.82
471.995	23.89
472.197	24.04
472.399	23.74
472.602	23.77
472.804	23.77
473.007	23.92
473.209	23.96
473.411	23.91
473.614	23.98
473.816	24.01
474.018	24.05
474.22	24.11
474.423	24.08
474.625	24.24
474.827	24
475.03	23.97
475.232	23.83
475.434	23.79
475.636	23.76
475.838	23.74
476.04	23.65
476.243	23.57
476.445	23.48
476.647	23.39
476.849	23.46
477.051	23.68
477.253	23.64
477.455	23.67
477.657	23.85
477.859	23.98
478.061	23.99
478.263	23.93
478.465	23.99
478.667	24.02
478.869	24.01
479.071	24.11
479.273	24.07
479.475	24.15
479.677	24.16
479.879	24
480.081	23.91
480.283	23.96
480.485	24.05
480.686	23.93
480.888	23.85
481.09	23.96
481.292	23.86
481.494	23.9
481.695	24
481.897	24.16
482.099	24.26
482.301	24.24
482.502	24.14
482.704	24.12
482.906	24.13
483.107	24.18
483.309	24.18
483.511	24.13
483.712	24.05
483.914	24.02
484.115	23.93
484.317	23.92
484.519	23.95
484.72	23.94
484.922	23.94
485.123	23.97
485.325	23.91
485.526	23.87
485.728	23.86
485.929	23.89
486.131	23.85
486.332	23.91
486.534	23.86
486.735	23.84
486.936	23.86
487.138	23.86
487.339	23.84
487.541	23.87
487.742	23.9
487.943	23.9
488.144	23.91
488.346	23.92
488.547	23.91
488.748	23.94
488.95	23.91
489.151	23.95
489.352	23.94
489.553	23.87
489.755	23.93
489.956	24
490.157	24.08
490.358	24.08
490.559	23.99
490.76	23.99
490.961	23.96
491.163	23.95
491.364	23.99
491.565	23.95
491.766	24.04
491.967	23.97
492.168	23.87
492.369	23.82
492.57	23.92
492.771	24.03
492.972	24.05
493.173	24.07
493.374	24.12
493.575	23.97
493.776	24.04
493.976	23.99
494.177	24.05
494.378	24.08
494.579	24.14
494.78	23.98
494.981	23.9
495.182	23.94
495.382	23.87
495.583	23.82
495.784	24.07
495.985	24.14
496.185	24.46
496.386	24.58
496.587	24.73
496.788	24.79
496.988	25.02
497.189	24.89
497.39	24.84
497.59	24.8
497.791	24.85
497.992	24.62
498.192	24.53
498.393	24.28
498.593	24.19
498.794	24.03
498.994	24.03
499.195	23.7
499.395	23.87
499.596	23.9
499.796	24.24
499.997	24.2
500.197	24.46
500.398	24.52
500.598	24.5
500.799	24.46
500.999	24.48
501.199	24.46
501.4	24.82
501.6	24.75
501.801	24.76
502.001	24.6
502.201	24.64
502.402	24.82
502.602	24.67
502.802	24.68
503.002	24.72
503.203	24.77
503.403	24.7
503.603	24.54
503.803	24.57
504.003	24.54
504.204	24.55
504.404	24.66
504.604	24.3
504.804	24.46
505.004	24.64
505.204	24.48
505.404	24.55
505.604	24.63
505.804	24.74
506.005	24.7
506.205	24.79
506.405	24.83
506.605	24.8
506.805	24.91
507.005	25.01
507.204	25.03
507.404	25.23
507.604	25.41
507.804	25.62
508.004	25.59
508.204	25.71
508.404	25.67
508.604	25.66
508.804	25.76
509.003	25.8
509.203	25.83
509.403	25.79
509.603	25.94
509.803	25.76
510.002	25.7
510.202	25.7
510.402	25.63
510.602	25.72
510.801	25.89
511.001	25.81
511.201	25.98
511.4	25.81
511.6	25.81
511.8	25.68
511.999	25.89
512.199	25.85
512.398	26.06
512.598	26.23
512.797	26.24
512.997	26.22
513.197	26.41
513.396	26.42
513.596	26.53
513.795	26.54
513.994	26.71
514.194	26.73
514.393	26.82
514.593	26.74
514.792	26.84
514.992	26.89
515.191	26.94
515.39	26.93
515.59	26.99
515.789	27.12
515.988	27.3
516.188	27.42
516.387	27.42
516.586	27.46
516.786	27.58
516.985	27.7
517.184	27.84
517.383	27.93
517.582	27.99
517.782	28.14
517.981	28.23
518.18	28.25
518.379	28.27
518.578	28.24
518.777	28.25
518.976	28.34
519.176	28.28
519.375	28.35
519.574	28.27
519.773	28.32
519.972	28.25
520.171	28.4
520.37	28.66
520.569	28.65
520.768	28.88
520.967	29.01
521.166	28.92
521.365	28.97
521.564	28.92
521.762	29.02
521.961	28.98
522.16	29.07
522.359	29.12
522.558	28.83
522.757	28.92
522.956	28.93
523.154	28.89
523.353	28.95
523.552	29.22
523.751	29.37
523.949	29.58
524.148	29.81
524.347	29.88
524.546	29.87
524.744	29.93
524.943	29.88
525.142	29.85
525.34	30.02
525.539	30.14
525.737	30.11
525.936	30.04
526.135	29.94
526.333	29.9
526.532	29.91
526.73	29.87
526.929	30.04
527.127	30.16
527.326	30.25
527.524	30.31
527.723	30.3
527.921	30.41
528.12	30.53
528.318	30.64
528.516	30.65
528.715	30.72
528.913	30.82
529.112	30.85
529.31	30.93
529.508	30.95
529.707	30.98
529.905	31.08
530.103	31
530.301	31.03
530.5	31.05
530.698	31.11
530.896	31.16
531.094	31.17
531.293	31.12
531.491	31.08
531.689	31.13
531.887	31.16
532.085	31.1
532.283	31.19
532.481	31.19
532.68	31.25
532.878	31.33
533.076	31.44
533.274	31.54
533.472	31.59
533.67	31.65
533.868	31.72
534.066	31.68
534.264	31.77
534.462	31.81
534.66	31.84
534.858	31.87
535.056	31.92
535.253	31.89
535.451	31.8
535.649	31.9
535.847	31.82
536.045	31.83
536.243	31.93
536.441	32.02
536.638	32.14
536.836	32.16
537.034	32.25
537.232	32.28
537.43	32.35
537.627	32.56
537.825	32.66
538.023	32.82
538.22	32.85
538.418	32.89
538.616	32.9
538.813	32.8
539.011	33.04
539.209	32.9
539.406	33.01
539.604	32.96
539.801	32.87
539.999	33.04
540.196	33.07
540.394	33.19
540.591	33.4
540.789	33.38
540.986	33.6
541.184	33.59
541.381	33.78
541.579	33.83
541.776	33.93
541.974	34.08
542.171	34.21
542.368	34.42
542.566	34.52
542.763	34.54
542.96	34.68
543.158	34.74
543.355	34.99
543.552	35.11
543.75	35.28
543.947	35.43
544.144	35.53
544.341	35.57
544.539	35.59
544.736	35.74
544.933	35.93
545.13	36.13
545.327	36.18
545.524	36.18
545.722	36.18
545.919	36.25
546.116	36.15
546.313	36.03
546.51	35.92
546.707	35.83
546.904	35.6
547.101	35.33
547.298	35.22
547.495	35.01
547.692	34.73
547.889	34.72
548.086	34.61
548.283	34.54
548.48	34.57
548.677	34.47
548.874	34.44
549.07	34.59
549.267	34.61
549.464	34.77
549.661	34.98
549.858	35.18
550.055	35.12
550.251	34.99
550.448	35.11
550.645	35.06
550.842	35.23
551.038	35.17
551.235	35.3
551.432	35.38
551.628	35.25
551.825	35.11
552.022	34.97
552.218	34.79
552.415	34.76
552.612	34.54
552.808	34.58
553.005	34.53
553.201	34.58
553.398	34.26
553.594	34.27
553.791	34.2
553.987	34.32
554.184	34.35
554.38	34.44
554.577	34.42
554.773	34.44
554.97	34.14
555.166	34.17
555.362	34.33
555.559	34.23
555.755	34.22
555.952	34.24
556.148	34.29
556.344	34.29
556.541	34.41
556.737	34.45
556.933	34.56
557.129	34.91
557.326	34.65
557.522	34.35
557.718	34.64
557.914	34.47
558.11	34.53
558.307	34.18
558.503	34.03
558.699	33.79
558.895	33.86
559.091	33.85
559.287	33.78
559.483	33.95
559.679	34.01
559.876	33.86
560.072	33.83
560.268	33.72
560.464	33.98
560.66	34.13
560.856	34.15
561.052	34.02
561.247	33.93
561.443	33.94
561.639	33.9
561.835	33.65
562.031	33.9
562.227	34.11
562.423	34.22
562.619	33.98
562.815	34.15
563.01	34.2
563.206	34.41
563.402	34.4
563.598	34.46
563.793	34.63
563.989	34.87
564.185	34.83
564.381	34.71
564.576	34.71
564.772	35.13
564.968	34.91
565.163	35.03
565.359	34.92
565.555	34.97
565.75	35.11
565.946	35.05
566.141	34.98
566.337	34.97
566.532	35.16
566.728	35.13
566.923	35.02
567.119	35.04
567.314	35.15
567.51	35.09
567.705	35.23
567.901	35.07
568.096	35.12
568.292	35.5
568.487	35.45
568.682	35.49
568.878	35.6
569.073	35.66
569.268	35.51
569.464	35.33
569.659	35.35
569.854	35.24
570.05	35.29
570.245	35.43
570.44	35.24
570.635	35.13
570.831	35.06
571.026	34.93
571.221	34.83
571.416	34.99
571.611	35.12
571.806	35.17
572.002	35.14
572.197	35.24
572.392	35.01
572.587	34.98
572.782	35.12
572.977	35.25
573.172	35.25
573.367	35.4
573.562	35.26
573.757	34.99
573.952	35.09
574.147	35.19
574.342	34.85
574.537	34.89
574.732	35.09
574.927	35.23
575.121	35.12
575.316	35.24
575.511	35.06
575.706	35.42
575.901	35.69
576.096	35.63
576.29	35.66
576.485	35.96
576.68	35.93
576.875	35.96
577.069	35.97
577.264	36.02
577.459	36.09
577.654	36.28
577.848	36.19
578.043	36.35
578.238	36.54
578.432	36.57
578.627	36.69
578.821	37.03
579.016	37.08
579.21	37
579.405	36.96
579.6	36.81
579.794	36.96
579.989	37.1
580.183	36.95
580.378	36.86
580.572	36.88
580.766	36.65
580.961	36.41
581.155	36.46
581.35	36.36
581.544	36.27
581.738	36.11
581.933	36.11
582.127	36
582.321	36.1
582.516	36.1
582.71	36.09
582.904	36.52
583.099	36.63
583.293	36.32
583.487	36.57
583.681	36.76
583.875	37.16
584.07	37.07
584.264	37.03
584.458	36.85
584.652	36.84
584.846	37.02
585.04	36.81
585.234	37.08
585.428	36.96
585.623	36.94
585.817	36.99
586.011	37.17
586.205	37.16
586.399	37.19
586.593	37.35
586.787	37.63
586.981	37.79
587.174	37.94
587.368	37.82
587.562	38.15
587.756	38.32
587.95	38.24
588.144	38.04
588.338	37.91
588.532	37.84
588.725	37.94
588.919	37.71
589.113	37.72
589.307	37.69
589.501	37.65
589.694	37.43
589.888	37.3
590.082	37.41
590.275	37.55
590.469	37.63
590.663	37.68
590.856	37.81
591.05	37.87
591.244	37.71
591.437	37.8
591.631	37.76
591.824	37.95
592.018	37.86
592.212	37.86
592.405	37.6
592.599	37.62
592.792	37.75
592.986	37.61
593.179	37.42
593.372	37.35
593.566	37.01
593.759	37.05
593.953	37.06
594.146	37.15
594.339	37.03
594.533	36.99
594.726	37
594.92	36.94
595.113	36.72
595.306	36.89
595.499	36.55
595.693	36.88
595.886	37
596.079	36.96
596.272	36.84
596.466	36.97
596.659	36.97
596.852	36.89
597.045	37.01
597.238	37.21
597.431	37.22
597.624	37.52
597.818	37.39
598.011	37.3
598.204	37.12
598.397	37.05
598.59	36.85
598.783	36.83
598.976	36.95
599.169	37.02
599.362	37.06
599.555	37.21
599.748	37.13
599.941	37.04
600.134	36.91
600.326	37.65
600.519	37.72
600.712	37.8
600.905	38.03
601.098	37.85
601.291	37.76
601.483	37.49
601.676	37.37
601.869	37.42
602.062	37.56
602.255	37.43
602.447	36.92
602.64	37
602.833	36.91
603.025	36.91
603.218	37.01
603.411	36.87
603.603	37.09
603.796	37.24
603.989	37.15
604.181	37.06
604.374	37.18
604.566	37.24
604.759	37.25
604.951	37.32
605.144	37.29
605.336	37.31
605.529	37.47
605.721	37.42
605.914	37.21
606.106	37.31
606.299	37.39
606.491	37.55
606.683	37.41
606.876	37.43
607.068	37.63
607.26	37.57
607.453	37.62
607.645	37.4
607.837	37.65
608.03	37.68
608.222	37.95
608.414	37.86
608.606	37.92
608.799	38.32
608.991	38.64
609.183	39.02
609.375	39.54
609.567	40.05
609.759	40.88
609.952	41.26
610.144	41.88
610.336	42.63
610.528	43.39
610.72	44.11
610.912	44.67
611.104	45.13
611.296	45.44
611.488	45.64
611.68	45.85
611.872	45.9
612.064	46.02
612.256	45.86
612.448	45.41
612.64	45.24
612.832	44.65
613.023	44.27
613.215	43.7
613.407	43.62
613.599	43.29
613.791	43.02
613.983	42.83
614.174	42.34
614.366	42.36
614.558	42
614.75	41.32
614.941	41.27
615.133	41.1
615.325	41.22
615.516	40.48
615.708	40.25
615.9	40.05
616.091	39.55
616.283	39.2
616.475	38.9
616.666	39.14
616.858	39.38
617.049	39.02
617.241	38.92
617.432	38.56
617.624	38.64
617.815	38.66
618.007	38.44
618.198	38.12
618.39	38.14
618.581	38.17
618.773	37.98
618.964	37.88
619.155	38.11
619.347	38.15
619.538	38.26
619.729	38.42
619.921	38.37
620.112	38.29
620.303	38.71
620.494	38.93
620.686	38.78
620.877	38.83
621.068	38.59
621.259	38.53
621.451	38.73
621.642	38.56
621.833	38.25
622.024	38.42
622.215	38.43
622.406	38.28
622.597	38.25
622.788	38.21
622.98	38.01
623.171	38.15
623.362	38.22
623.553	37.91
623.744	38.01
623.935	38.3
624.126	38.33
624.317	38.5
624.508	38.74
624.698	38.67
624.889	38.73
625.08	38.67
625.271	38.85
625.462	38.73
625.653	38.8
625.844	38.76
626.034	38.84
626.225	38.48
626.416	38.31
626.607	38.19
626.798	37.99
626.988	38.02
627.179	37.95
627.37	37.79
627.56	37.7
627.751	37.4
627.942	37.76
628.132	37.4
628.323	37.52
628.514	37.83
628.704	37.63
628.895	37.88
629.085	37.96
629.276	38.26
629.466	38.32
629.657	38.63
629.847	38.75
630.038	38.41
630.228	38.73
630.419	38.84
630.609	38.95
630.8	39.17
630.99	39.17
631.181	39.14
631.371	38.77
631.561	38.8
631.752	38.47
631.942	38.53
632.132	38.67
632.323	38.55
632.513	38.65
632.703	38.06
632.893	38.05
633.084	37.96
633.274	37.8
633.464	37.81
633.654	37.56
633.844	37.61
634.034	37.77
634.225	37.45
634.415	37.54
634.605	37.43
634.795	37.66
634.985	37.51
635.175	37.39
635.365	37.41
635.555	37.28
635.745	37.44
635.935	37.33
636.125	37.12
636.315	37.34
636.505	37.01
636.695	36.8
636.885	36.62
637.075	36.36
637.265	36.67
637.455	36.87
637.644	36.98
637.834	37.15
638.024	37.42
638.214	37.79
638.404	37.52
638.593	37.33
638.783	37.51
638.973	37.69
639.163	37.89
639.352	37.41
639.542	36.97
639.732	36.99
639.921	36.97
640.111	37.31
640.301	37.13
640.49	37.22
640.68	37.54
640.87	37.93
641.059	37.89
641.249	37.76
641.438	38.2
641.628	38.11
641.817	37.98
642.007	37.89
642.196	37.23
642.386	37.49
642.575	37.68
642.764	37.83
642.954	37.69
643.143	37.8
643.333	37.94
643.522	37.53
643.711	38.08
643.901	38.03
644.09	38.03
644.279	38.53
644.469	38.03
644.658	38.09
644.847	38
645.036	37.77
645.226	37.64
645.415	37.88
645.604	37.58
645.793	37.38
645.982	37.46
646.171	37.37
646.361	36.65
646.55	36.8
646.739	36.72
646.928	36.7
647.117	36.83
647.306	36.42
647.495	36.11
647.684	36.69
647.873	36.78
648.062	37.27
648.251	37.39
648.44	37.81
648.629	37.6
648.818	37.52
649.007	37.61
649.196	37.71
649.384	37.91
649.573	37.83
649.762	37.68
649.951	37.78
650.14	37.74
650.328	38.05
650.517	38.15
650.706	38.22
650.895	38.32
651.083	38.15
651.272	37.55
651.461	37.63
651.65	37.84
651.838	37.87
652.027	37.48
652.216	37.18
652.404	37.25
652.593	36.94
652.781	37.55
652.97	37.75
653.158	38.26
653.347	38.76
653.535	38.91
653.724	38.66
653.912	38.61
654.101	38.65
654.289	38.44
654.478	37.56
654.666	37.5
654.855	36.56
655.043	36.34
655.231	36.25
655.42	35.97
655.608	35.96
655.796	36.18
655.985	36.2
656.173	36.44
656.361	36.76
656.55	36.99
656.738	37.19
656.926	37.61
657.114	37.31
657.302	36.92
657.491	37.12
657.679	36.76
657.867	37.01
658.055	37.15
658.243	36.95
658.431	36.92
658.619	36.99
658.807	36.9
658.996	36.87
659.184	36.55
659.372	36.57
659.56	36.61
659.748	37.1
659.936	36.85
660.124	37.19
660.311	37.23
660.499	37.5
660.687	37.81
660.875	38.21
661.063	38.15
661.251	39.18
661.439	39.5
661.627	39.59
661.814	39.25
662.002	39.51
662.19	39.06
662.378	39.63
662.565	39.13
662.753	38.67
662.941	38.53
663.129	38.36
663.316	37.85
663.504	37.55
663.692	37.17
663.879	37.05
664.067	36.55
664.254	36.69
664.442	35.99
664.63	36.07
664.817	36.15
665.005	36.01
665.192	35.96
665.38	36.28
665.567	36.76
665.755	37.1
665.942	37.31
666.13	37.96
666.317	37.93
666.504	37.89
666.692	37.98
666.879	37.85
667.067	37.89
667.254	38.24
667.441	37.97
667.629	37.98
667.816	37.27
668.003	37.38
668.19	37.28
668.378	36.9
668.565	37.45
668.752	37.22
668.939	36.86
669.127	36.88
669.314	36.97
669.501	37.24
669.688	36.49
669.875	36.91
670.062	36.62
670.249	36.43
670.436	36.82
670.623	36.34
670.81	36.64
670.997	37.17
671.184	37
671.371	36.82
671.558	36.49
671.745	36.78
671.932	37.44
672.119	37.99
672.306	37.79
672.493	36.97
672.68	37.38
672.867	37.47
673.054	37.22
673.24	36.99
673.427	37.14
673.614	37.09
673.801	36.99
673.988	36.07
674.174	35.89
674.361	36.49
674.548	37.26
674.734	37.4
674.921	37.09
675.108	37.34
675.294	37.78
675.481	38.14
675.668	38.54
675.854	38.93
676.041	39.02
676.227	39.2
676.414	38.87
676.601	38.8
676.787	37.9
676.974	38.06
677.16	38.03
677.347	37.81
677.533	37.73
677.719	37.96
677.906	37.61
678.092	38.21
678.279	38.07
678.465	38
678.651	38.03
678.838	38.35
679.024	38.61
679.21	38.99
679.397	38.69
679.583	38.33
679.769	37.92
679.955	38.19
680.142	37.73
680.328	37.33
680.514	37.08
680.7	36.9
680.886	37.02
681.073	36.67
681.259	36.02
681.445	36.26
681.631	36.16
681.817	35.9
682.003	35.5
682.189	35.72
682.375	35.93
682.561	36.24
682.747	36.42
682.933	36.49
683.119	36.79
683.305	37.35
683.491	37.26
683.677	37.18
683.863	37.38
684.049	37.43
684.235	37.38
684.42	37.55
684.606	37.43
684.792	37.36
684.978	37.23
685.164	36.54
685.349	35.74
685.535	36.03
685.721	36.5
685.907	36.39
686.092	36.11
686.278	36.06
686.464	36.18
686.649	36.07
686.835	35.48
687.021	35.63
687.206	36.12
687.392	36.62
687.577	36.35
687.763	35.55
687.948	36.05
688.134	36.38
688.319	36.48
688.505	36.52
688.69	36.52
688.876	37.23
689.061	36.46
689.247	36.6
689.432	36.41
689.618	36.77
689.803	37.75
689.988	37.37
690.174	37.4
690.359	36.82
690.544	36.66
690.73	36.96
690.915	37.15
691.1	38.09
691.285	37.32
691.471	37.97
691.656	37.72
691.841	37.36
692.026	37.22
692.211	37.7
692.396	38.13
692.582	38.36
692.767	38.07
692.952	37.35
693.137	37.12
693.322	37.73
693.507	37.55
693.692	37.76
693.877	38.25
694.062	38.14
694.247	37.82
694.432	37.9
694.617	37.32
694.802	37.17
694.987	36.92
695.172	36.58
695.357	36.83
695.541	36.75
695.726	36.54
695.911	35.78
696.096	35.65
696.281	35.99
696.466	35.58
696.65	35.9
696.835	36.21
697.02	36.92
697.204	37.3
697.389	37.48
697.574	37.3
697.759	37.53
697.943	37.52
698.128	37.6
698.312	37.19
698.497	37.41
698.682	37.3
698.866	37.3
699.051	37.4
699.235	37.22
699.42	36.8
699.604	36.7
699.789	36.44
699.973	36.34
700.158	36.34
700.342	36.54
700.527	36.29
700.711	36.48
700.895	36.41
701.08	36.17
701.264	35.72
701.448	35.43
701.633	35.75
701.817	35.64
702.001	35.96
702.186	35.79
702.37	35.88
702.554	36
702.738	35.9
702.923	35.94
703.107	35.9
703.291	37.28
703.475	38.32
703.659	38.14
703.843	38.05
704.027	38.15
704.212	38.25
704.396	37.65
704.58	38.12
704.764	37.83
704.948	37.77
705.132	37.31
705.316	37.11
705.5	36.86
705.684	36.89
705.868	36.66
706.052	36.4
706.235	37.04
706.419	37.51
706.603	37.56
706.787	37.86
706.971	37.79
707.155	39.02
707.339	38.81
707.522	38.09
707.706	38.5
707.89	39.22
708.074	39.46
708.257	39.45
708.441	38.29
708.625	37.79
708.808	37.19
708.992	37.14
709.176	36.11
709.359	35.78
709.543	36.54
709.727	35.45
709.91	35.5
710.094	36.02
710.277	35.79
710.461	36.53
710.644	36.33
710.828	36.72
711.011	36.87
711.195	37.54
711.378	37.44
711.562	37.28
711.745	38.6
711.928	38.8
712.112	38.28
712.295	38.22
712.478	38.41
712.662	38.44
712.845	38.67
713.028	38.36
713.212	38.27
713.395	37.88
713.578	37.88
713.761	37.19
713.945	36.95
714.128	37.02
714.311	36.93
714.494	37.21
714.677	37.92
714.86	37.78
715.043	38.03
715.227	37.52
715.41	37.59
715.593	37.52
715.776	37.45
715.959	37.95
716.142	38.01
716.325	37.6
716.508	37.38
716.691	37.06
716.874	37.12
717.057	37.46
717.239	37.08
717.422	37.24
717.605	36.33
717.788	36.35
717.971	36.01
718.154	36.29
718.337	36.92
718.519	37.04
718.702	37.65
718.885	37.93
719.068	37.63
719.25	38.41
719.433	38.52
719.616	38.45
719.798	38.29
719.981	38.21
720.164	37.59
720.346	37.26
720.529	37.37
720.712	35.98
720.894	36.25
721.077	35.35
721.259	34.85
721.442	35.09
721.624	36
721.807	35.55
721.989	35.68
722.172	36.12
722.354	35.67
722.537	35.42
722.719	35.44
722.901	34.58
723.084	34.94
723.266	35.08
723.448	34.16
723.631	34.7
723.813	34.77
723.995	34.02
724.178	34.3
724.36	34.24
724.542	34.07
724.724	35.23
724.907	35.26
725.089	35.24
725.271	35.11
725.453	36.06
725.635	34.93
725.817	34.85
725.999	35.51
726.181	34.26
726.364	35
726.546	34.99
726.728	33.99
726.91	34.2
727.092	35.58
727.274	36.05
727.456	35.39
727.638	35.67
727.819	36.03
728.001	35.35
728.183	35.59
728.365	35.28
728.547	35.26
728.729	35.76
728.911	35.81
729.093	35.5
729.274	35.12
729.456	34.53
729.638	35.71
729.82	36.19
730.001	35.85
730.183	35.61
730.365	36.09
730.546	35.87
730.728	36
730.91	35.68
731.091	35.56
731.273	35.75
731.455	36.69
731.636	36
731.818	35.79
731.999	36.96
732.181	38.29
732.362	37.36
732.544	38.56
732.725	38.47
732.907	38.53
733.088	38.13
733.27	38.24
733.451	38.69
733.633	39.48
733.814	39.55
733.995	38.76
734.177	38.15
734.358	38.59
734.539	37.47
734.721	36.98
734.902	36.88
735.083	37.69
735.264	37.44
735.446	36.86
735.627	35.93
735.808	35.81
735.989	35.25
736.17	33.94
736.351	34.79
736.533	34.65
736.714	35.42
736.895	35.31
737.076	34.75
737.257	34.32
737.438	35.07
737.619	35.73
737.8	35.63
737.981	36.26
738.162	37.52
738.343	37.07
738.524	36.92
738.705	36.71
738.886	37.01
739.067	37.6
739.247	38.58
739.428	37.85
739.609	37.52
739.79	37.7
739.971	37.43
740.151	37.73
740.332	37.51
740.513	38.22
740.694	38.78
740.874	39.11
741.055	38.21
741.236	37.46
741.417	38.1
741.597	37.56
741.778	37.26
741.958	37.86
742.139	37.47
742.32	38.55
742.5	38.23
742.681	37.31
742.861	36.87
743.042	36.73
743.222	37.01
743.403	36.62
743.583	36.95
743.764	37.25
743.944	36.69
744.124	37.43
744.305	35.17
744.485	34.05
744.666	35.23
744.846	34.34
745.026	33.84
745.207	34.19
745.387	34.6
745.567	34.46
745.747	34.38
745.928	34.5
746.108	33.2
746.288	33.18
746.468	34.73
746.648	34.82
746.829	35.24
747.009	36.39
747.189	35.02
747.369	35.13
747.549	33.88
747.729	32.94
747.909	32.73
748.089	32.27
748.269	32.79
748.449	31.58
748.629	29.39
748.809	28.83
748.989	28.22
749.169	28.57
749.349	29.08
749.529	30.38
749.709	32.79
749.889	34.04
750.068	34.4
750.248	36.31
750.428	35.97
750.608	35.72
750.788	36.75
750.967	36.75
751.147	36.81
751.327	34.38
751.507	33.9
751.686	32.54
751.866	32.89
752.046	33.19
752.225	31.06
752.405	31.77
752.585	33.63
752.764	33.82
752.944	32.3
753.123	33.89
753.303	35.93
753.482	35.78
753.662	35.06
753.841	33.35
754.021	33.2
754.2	34.34
754.38	35.06
754.559	34.76
754.739	34.34
754.918	35.94
755.097	36.2
755.277	34.79
755.456	36.03
755.635	36.68
755.815	36.43
755.994	36.65
756.173	35.56
756.352	36.22
756.532	34.71
756.711	34.8
756.89	33.34
757.069	31.88
757.248	32.26
757.427	31.88
757.607	31.36
757.786	31.44
757.965	32.35
758.144	33.39
758.323	32.33
758.502	31.94
758.681	31.76
758.86	33.24
759.039	33.01
759.218	33.34
759.397	33.8
759.576	34.52
759.755	34.73
759.934	33.39
760.113	32.83
760.291	31.69
760.47	33.24
760.649	33.05
760.828	32.07
761.007	32.18
761.186	32.61
761.364	31.72
761.543	30.71
761.722	30.3
761.901	31.01
762.079	30.81
762.258	31.06
762.437	30.44
762.615	31.63
762.794	33.07
762.972	33.68
763.151	33.73
763.33	34.07
763.508	34.78
763.687	34.68
763.865	34.77
764.044	35.1
764.222	35.45
764.401	36.81
764.579	36.7
764.758	36.4
764.936	36.51
765.114	35.76
765.293	35.62
765.471	35.46
765.65	37.2
765.828	36.79
766.006	36.79
766.184	38.58
766.363	37.12
766.541	35.97
766.719	35.8
766.898	35.44
767.076	36.16
767.254	35.44
767.432	35.56
767.61	33.91
767.788	34.78
767.967	34.68
768.145	33.49
768.323	35.41
768.501	34.97
768.679	33.85
768.857	34.72
769.035	34.46
769.213	34.79
769.391	34.63
769.569	34.63
769.747	34.04
769.925	34.75
770.103	33.81
770.281	33
770.459	35.2
770.636	35.16
770.814	33.84
770.992	34.01
771.17	34.45
771.348	34.84
771.525	35.72
771.703	34.89
771.881	33.35
772.059	32.88
772.236	31.24
772.414	29.44
772.592	31.61
772.769	30.33
772.947	29.64
773.125	30.87
773.302	30.18
773.48	30.81
773.657	31.03
773.835	31.73
774.013	31.97
774.19	32.95
774.368	33.64
774.545	32.95
774.723	33.97
774.9	35.59
775.077	34.03
775.255	34.84
775.432	32.92
775.61	34.66
775.787	35.18
775.964	36.07
776.142	33.67
776.319	34.1
776.496	35.56
776.674	37.32
776.851	35.84
777.028	37.79
777.205	38.95
777.382	39.26
777.56	37.27
777.737	34.9
777.914	36.9
778.091	39.79
778.268	38.43
778.445	36.29
778.622	36.91
778.8	34.83
778.977	33.07
779.154	32.01
779.331	33.68
779.508	34.34
779.685	35.79
779.862	34.06
780.038	34.93
780.215	35.67
780.392	36.25
780.569	34.47
780.746	37.28
780.923	37.16
781.1	36.77
781.277	33.89
781.453	31.86
781.63	34.35
781.807	32.42
781.984	28.29
782.16	27.63
782.337	29.12
782.514	28.38
782.691	28.36
782.867	29.16
783.044	31.87
783.221	30.91
783.397	35.23
783.574	32.38
783.75	33.01
783.927	36.37
784.103	35.6
784.28	32.77
784.456	32.44
784.633	32.08
784.809	31.58
784.986	27.37
785.162	28.8
785.339	27.42
785.515	29.12
785.692	29.64
785.868	30.17
786.044	31.02
786.221	32.89
786.397	32.78
786.573	31.93
786.749	32.23
786.926	35.68
787.102	37.81
787.278	37.27
787.454	38.09
787.631	38.56
787.807	38.48
787.983	41.58
788.159	40.99
788.335	42.41
788.511	44.34
788.687	43.97
788.863	43.63
789.039	42.31
789.216	43.62
789.392	40.89
789.568	40.75
789.744	38.55
789.919	37.08
790.095	36.87
790.271	38.33
790.447	35.32
790.623	34.13
790.799	33.41
790.975	35.06
791.151	33.07
791.327	33.05
791.502	31.98
791.678	33.97
791.854	30.65
792.03	28.05
792.205	26.61
792.381	28.2
792.557	30.47
792.733	27.48
792.908	25.29
793.084	25.55
793.259	28.32
793.435	28.24
793.611	31.31
793.786	35.14
793.962	38.63
794.137	38.5
794.313	35.55
794.488	32.75
794.664	32.23
794.839	31.35
795.015	30.38
795.19	26.63
795.366	24.69
795.541	20.42
795.716	21.89
795.892	20.32
796.067	18.9
796.242	23.06
796.418	24.02
796.593	21.83
796.768	22.12
796.944	22.07
797.119	26.72
797.294	27.2
797.469	28.02
797.644	23.87
797.82	24.12
797.995	23.88
798.17	20.88
798.345	22.24
798.52	25.51
798.695	27.03
798.87	29.62
799.045	27.34
799.22	31.07
799.395	32.81
799.57	32.83
799.745	31.78
799.92	33.07
800.095	37.65
800.27	33.47
800.445	33.3
800.62	32.52
800.795	26.44
800.97	22.98
801.145	19.66
801.319	17.47
801.494	18.51
801.669	19.46
801.844	17.58
802.018	12.47
802.193	17.65
802.368	16.95
802.543	15.95
802.717	18.87
802.892	21.04
803.067	24.05
803.241	22.11
803.416	23.28
803.59	22.86
803.765	25.27
803.94	27.33
804.114	28.94
804.289	31.38
804.463	33.58
804.638	40.09
804.812	39.65
804.986	35.14
805.161	35.72
805.335	37.93
805.51	37.79
805.684	34.71
805.858	32.61
806.033	29.43
806.207	27.4
806.381	25.52
806.556	21.26
806.73	17.51
806.904	24.28
807.078	23.57
807.253	23.59
807.427	23.95
807.601	25.98
807.775	26.98
807.949	24.88
808.123	26.05
808.298	23.47
808.472	31.48
808.646	36.34
808.82	31.52
808.994	28.1
809.168	23.03
809.342	21.66
809.516	17.91
809.69	16.64
809.864	19.92
810.038	22.88
810.212	25.09
810.385	20.68
810.559	18.34
810.733	21.53
810.907	26.61
811.081	31.81
811.255	36.89
811.428	41.46
811.602	35.44
811.776	37.66
811.95	36.77
812.123	37.5
812.297	33.92
812.471	36.81
812.644	31.69
812.818	33
812.992	28.05
813.165	25.85
813.339	19.72
813.512	27.2
813.686	26.43
813.86	18.36
814.033	14.14
814.207	17.09
814.38	14
814.554	20.18
814.727	16.84
814.9	22.83
815.074	22.07
815.247	26.79
815.421	32.32
815.594	31.21
815.767	34.69
815.941	39.24
816.114	42.96
816.287	45.69
816.46	47.28
816.634	50.5
816.807	43.79
816.98	44.6
817.153	39.85
817.327	32.72
817.5	30.23
817.673	33.57
817.846	28.77
818.019	27.7
818.192	21.35
818.365	12.87
818.538	17.57
818.711	17.58
818.884	15.61
819.057	20.15
819.23	25.71
819.403	23.41
819.576	23.58
819.749	27.09
819.922	27.6
820.095	28.05
820.268	33.4
820.441	31.2
820.614	32.02
820.786	32.35
820.959	32.83
821.132	33.54
821.305	35.02
821.477	33.74
821.65	34.79
821.823	33.12
821.996	34.63
822.168	34.75
822.341	34.34
822.514	35.36
822.686	35.46
822.859	34.47
823.031	33.54
823.204	33.79
823.376	34.47
823.549	34.18
823.722	33.71
823.894	33.64
824.067	32.89
824.239	32.24
824.411	31.68
824.584	30.99
824.756	31.98
824.929	32.59
825.101	31.54
825.273	30.56
825.446	30.57
825.618	32.49
825.79	31.65
825.963	31.75
826.135	33.06
826.307	32.43
826.479	34.64
826.652	34.71
826.824	34.24
826.996	35.99
827.168	37.06
827.34	36.77
827.512	35.05
827.684	35.25
827.856	34.25
828.029	35.73
828.201	35.14
828.373	33.52
828.545	33.52
828.717	33.95
828.889	32.07
829.061	31.51
829.232	29.29
829.404	31.3
829.576	29.93
829.748	32.45
829.92	29.28
830.092	27.67
830.264	27.04
830.436	23.77
830.607	22.75
830.779	20.94
830.951	18.35
831.123	19.41
831.294	17.57
831.466	17.43
831.638	13.41
831.809	14.36
831.981	17.78
832.153	13.49
832.324	13.7
832.496	14.79
832.667	23.26
832.839	29.48
833.011	33.88
833.182	33.58
833.354	34.62
833.525	36.26
833.697	33.88
833.868	33.73
834.039	36.19
834.211	37.53
834.382	38.88
834.554	34.23
834.725	31.44
834.896	28.3
835.068	23.87
835.239	21.8
835.41	21.75
835.581	24.1
835.753	23.82
835.924	25.39
836.095	26.1
836.266	21.37
836.438	24.66
836.609	23.56
836.78	21.9
836.951	29.02
837.122	30.81
837.293	29.98
837.464	25.84
837.635	23.65
837.806	21.51
837.977	17.58
838.148	21.24
838.319	20.24
838.49	23.07
838.661	22.64
838.832	23.02
839.003	21.59
839.174	23.81
839.345	27.29
839.516	34.44
839.687	36.9
839.857	36.85
840.028	33.47
840.199	39.08
840.37	30.73
840.54	40.38
840.711	41.05
840.882	38.89
841.053	34.19
841.223	33.26
841.394	35.44
841.564	33.49
841.735	34.07
841.906	34.95
842.076	30.21
842.247	33.81
842.417	31.2
842.588	29.37
842.758	42.33
842.929	46.37
843.099	40.53
843.27	32.82
843.44	30.35
843.611	30.99
843.781	31.96
843.951	20.37
844.122	17.05
844.292	22.05
844.462	9.2
844.633	-7.99
844.803	0.61
844.973	6.82
845.144	14.21
845.314	12.93
845.484	16.75
845.654	13.16
845.824	18.87
845.995	29.6
846.165	19.4
846.335	40.16
846.505	45.33
846.675	51.9
846.845	40.57
847.015	24.15
847.185	26.31
847.355	36.51
847.525	33.59
847.695	27.67
847.865	14.67
848.035	-6.47
848.205	-38.78
848.375	-35.76
848.545	-88.21
848.715	-53.74
848.884	-41.8
849.054	-27.31
849.224	-55.56
849.394	-80.42
849.564	-44.68
849.733	-30.72
849.903	-22.43
850.073	7.31
850.243	31.32
850.412	33.75
850.582	41.88
850.752	51.24
850.921	49.98
851.091	49.17
851.26	61.6
851.43	69.05
851.599	81.42
851.769	81.59
851.939	71.34
852.108	58.62
852.278	55.24
852.447	44.59
852.616	32.85
852.786	18.13
852.955	22.89
853.125	23.94
853.294	25.65
853.463	17.92
853.633	10.37
853.802	-22.17
853.971	-15.9
854.141	-15.44
854.31	-21.11
854.479	-18.91
854.648	13.78
854.818	-21.23
854.987	23.58
855.156	503.91
855.325	-53.78
855.494	-33.18
855.663	-6.94
855.832	13.32
856.001	7.13
856.171	1.29
856.34	16.78
856.509	13.55
856.678	10.05
856.847	16.71
857.016	14.79
857.185	-1.92
857.353	31.14
857.522	75.09
857.691	60.58
857.86	55.39
858.029	66.51
858.198	58.72
858.367	28.88
858.535	14.6
858.704	-20.08
858.873	3.9
859.042	30.39
859.21	-20.19
859.379	-18.2
859.548	-32.75
859.717	-49.31
859.885	-39.29
860.054	-80.52
860.222	-47.11
860.391	-69.69
860.56	-92.2
860.728	-84.81
860.897	-71.8
861.065	-40.06
861.234	-69.69
861.402	-7.5
861.571	8.83
861.739	-25.9
861.908	-12.1
862.076	-48.46
862.244	-27.67
862.413	23.92
862.581	-0.58
862.749	-14.38
862.918	-67.57
863.086	-65.37
863.254	-179.87
863.423	-219.28
863.591	-32.49
863.759	1.45
863.927	17.11
864.096	44.46
864.264	34.75
864.432	50.19
864.6	30.66
864.768	43.77
864.936	55.88
865.104	49.52
865.272	58.16
865.44	48.19
865.608	42.46
865.776	28.1
865.944	7.35
866.112	-4.49
866.28	8.79
866.448	-1.51
866.616	2.69
866.784	8.14
866.952	-5.51
867.12	-150.45
867.288	-3.54
867.455	46.56
867.623	105.64
867.791	120.3
867.959	71.85
868.127	90.02
868.294	96.28
868.462	104.15
868.63	22.27
868.797	35.49
868.965	58.25
869.133	10.9
869.3	6.39
869.468	-73.25
869.636	-537.3
869.803	-480.72
869.971	-570.31
870.138	822.39
870.306	411.43
870.473	188.87
870.641	213.57
870.808	237.76
870.975	661.8
871.143	712.87
871.31	-534.89
871.478	-127.11
871.645	-93.94
871.812	-164.07
871.98	-154.13
872.147	-25.12
872.314	30.5
872.482	25.54
872.649	-32.08
872.816	-73.32
872.983	-2.11
873.15	-686.44
873.318	-1129.47
873.485	-310.22
873.652	-403.68
873.819	477.68
873.986	411.01
874.153	-140.37
874.32	146.94
874.487	143.98
874.654	111.65
874.821	89.51
874.988	103.06
875.155	89.69
875.322	87.15
875.489	75.93
875.656	84.46
875.823	74.03
875.99	95.45
876.157	91.83
876.324	44.36
876.49	69.38
876.657	74.24
876.824	53.1
876.991	112.51
877.157	78.92
877.324	67.02
877.491	7.87
877.658	45.55
877.824	-91.39
877.991	17.73
878.157	73.23
878.324	46.14
878.491	36.78
878.657	30.49
878.824	24.17
878.99	4.5
879.157	26.44
879.323	60.91
879.49	79.69
879.656	66.58
879.823	66.94
879.989	105.7
880.156	248.79
880.322	1434.05
880.488	316.69
880.655	1122.86
880.821	163.22
880.987	54.86
881.154	64.58
881.32	10.13
881.486	43.11
881.652	29.49
881.819	9.48
881.985	1.11
882.151	0.81
882.317	7.39
882.483	13.76
882.649	19.59
882.816	21.63
882.982	20.05
883.148	29.51
883.314	26.53
883.48	27.19
883.646	29.67
883.812	29.65
883.978	32.56
884.144	30.25
884.31	28.25
884.476	27.63
884.642	27.1
884.807	25.75
884.973	22.5
885.139	21.07
885.305	22.18
885.471	21.64
885.637	24.1
885.802	20.66
885.968	21.49
886.134	23.88
886.3	12.87
886.465	10.69
886.631	5.73
886.797	-0.76
886.962	-8.37
887.128	-18.45
887.293	-12.4
887.459	-19.92
887.625	-23.78
887.79	-13.29
887.956	-5.79
888.121	11.2
888.287	21.44
888.452	36.37
888.618	58.41
888.783	69
