Data from 2938050_Reflection_3.txt Node
Date: Sun Jul 12 14:16:12 EDT 2015
User: robert
Spectrometer: USB4E03001
Autoset integration time: false
Trigger mode: 4
Integration Time (sec): 1.000000E-1
Scans to average: 10
Electric dark correction enabled: true
Nonlinearity correction enabled: false
Boxcar width: 5
Stray light correction enabled: false
XAxis mode: Wavelengths
Stop averaging: false
Number of Pixels in Spectrum: 3648
>>>>>Begin Spectral Data<<<<<
177.566	39.59
177.785	109.19
178.005	98.06
178.225	-10.19
178.445	193.74
178.665	27.21
178.885	124.66
179.105	120.25
179.324	93.44
179.544	120.71
179.764	114.23
179.984	86.51
180.204	114.31
180.423	120.84
180.643	112.91
180.863	142.56
181.083	127.4
181.302	98.71
181.522	71.88
181.742	51.12
181.961	40.45
182.181	-75.34
182.401	-83.34
182.621	-35.67
182.84	-20.48
183.06	-16.05
183.279	-38.53
183.499	-26.12
183.719	-72.35
183.938	-34.84
184.158	12.76
184.377	-1.17
184.597	17.95
184.816	35.69
185.036	61.82
185.256	54.06
185.475	70.67
185.695	78.82
185.914	74.92
186.134	91.6
186.353	125.35
186.572	103.03
186.792	115.65
187.011	94.07
187.231	63.72
187.45	32.9
187.67	6.64
187.889	-4.71
188.108	18.63
188.328	15.21
188.547	2.22
188.766	3.74
188.986	11.46
189.205	19.52
189.424	35.11
189.644	44.07
189.863	45.59
190.082	78.12
190.302	112.76
190.521	89.51
190.74	122.6
190.959	149.4
191.178	185.63
191.398	-2240.84
191.617	-361.07
191.836	-327.63
192.055	-96.02
192.274	-260.01
192.494	-145.95
192.713	-141.76
192.932	-160.83
193.151	-66.5
193.37	-20.76
193.589	-31.76
193.808	174.71
194.027	93.42
194.246	126.91
194.465	112.84
194.685	146.62
194.904	96.2
195.123	77.54
195.342	104.64
195.561	87.5
195.78	116.73
195.999	94.39
196.218	99.1
196.436	115.33
196.655	125.99
196.874	99.52
197.093	98.3
197.312	86.37
197.531	97.9
197.75	100.73
197.969	108.27
198.188	72.28
198.407	105.23
198.625	106.58
198.844	96.62
199.063	95.85
199.282	144.39
199.501	153.57
199.719	168.13
199.938	185.99
200.157	155.11
200.376	187.51
200.594	295.5
200.813	227.97
201.032	480.88
201.251	240.31
201.469	152.31
201.688	130.04
201.907	110.23
202.125	107.81
202.344	120.49
202.563	149.29
202.781	70.84
203	56.48
203.218	59.17
203.437	79.36
203.656	105.23
203.874	114.06
204.093	138.42
204.311	262.12
204.53	332.52
204.748	245.97
204.967	163.94
205.185	262.59
205.404	209.83
205.622	185.6
205.841	161.1
206.059	239.37
206.278	149.3
206.496	156.05
206.715	98.19
206.933	70.63
207.151	54.31
207.37	71.54
207.588	65.3
207.806	78.33
208.025	80.93
208.243	90.58
208.461	75.03
208.68	84.44
208.898	86.94
209.116	112.13
209.335	138.1
209.553	150.52
209.771	171.85
209.989	147.97
210.208	220.85
210.426	155.95
210.644	104.16
210.862	104.76
211.081	111.98
211.299	83.96
211.517	70.18
211.735	43.48
211.953	25.86
212.171	32.06
212.39	31.82
212.608	18.47
212.826	18.52
213.044	15.92
213.262	11.14
213.48	-19.59
213.698	-2.04
213.916	20.84
214.134	37.2
214.352	35.29
214.57	49.68
214.788	17.5
215.006	45.7
215.224	45.22
215.442	44.88
215.66	40.15
215.878	78.29
216.096	90.37
216.314	56.46
216.532	59.31
216.75	58.79
216.968	59.32
217.185	62.37
217.403	54.09
217.621	53.06
217.839	39.17
218.057	50.41
218.275	48.46
218.492	44.91
218.71	37.32
218.928	23.72
219.146	18.7
219.363	21.13
219.581	36.31
219.799	52.88
220.017	59.99
220.234	62.5
220.452	56.8
220.67	43.17
220.887	29.17
221.105	55.02
221.323	78.21
221.54	82.6
221.758	67.84
221.976	50.24
222.193	47.1
222.411	31.56
222.629	36.64
222.846	34.48
223.064	36.64
223.281	42.32
223.499	30.47
223.716	24.26
223.934	11.97
224.151	4.44
224.369	2.08
224.586	-13.09
224.804	-7.34
225.021	-2.85
225.239	3.95
225.456	-0.24
225.674	5.21
225.891	6.04
226.108	0.22
226.326	-5.56
226.543	0.73
226.76	2.37
226.978	13.69
227.195	7.27
227.413	1.07
227.63	5.17
227.847	9.82
228.064	7.65
228.282	8.12
228.499	8.82
228.716	9.66
228.934	7.5
229.151	6.93
229.368	4.16
229.585	5.67
229.802	7.7
230.02	5.8
230.237	3.72
230.454	2.7
230.671	4.85
230.888	4.33
231.105	3.48
231.323	4.54
231.54	8.23
231.757	11.88
231.974	11.25
232.191	11.28
232.408	11.67
232.625	13.66
232.842	10.66
233.059	8.88
233.276	10.13
233.493	11.58
233.71	9.47
233.927	3.84
234.144	2.29
234.361	7.6
234.578	6.65
234.795	4.71
235.012	2.57
235.229	4.6
235.446	0.54
235.663	1.75
235.879	0.34
236.096	2.25
236.313	3.6
236.53	3.03
236.747	-2.71
236.964	-4.91
237.181	-1.16
237.397	-1.59
237.614	2.93
237.831	4.02
238.048	3.91
238.264	4.36
238.481	3.32
238.698	1.86
238.915	2.02
239.131	6.17
239.348	6.94
239.565	3.74
239.781	7.32
239.998	6.76
240.215	7.09
240.431	6.26
240.648	6.08
240.865	6.12
241.081	6.1
241.298	5.41
241.514	6.2
241.731	7.24
241.947	8.18
242.164	6.79
242.38	6.08
242.597	5.53
242.814	4.97
243.03	5.94
243.246	6.85
243.463	5.55
243.679	6.37
243.896	4.09
244.112	3.88
244.329	4.31
244.545	5.63
244.762	5.92
244.978	5.44
245.194	7.01
245.411	5.7
245.627	5.8
245.843	5.61
246.06	5.09
246.276	5.91
246.492	5.94
246.709	4.46
246.925	4.32
247.141	3.39
247.357	4.18
247.574	4.06
247.79	3.69
248.006	3.74
248.222	4.88
248.439	4.3
248.655	4.55
248.871	3.87
249.087	4.95
249.303	4.46
249.519	5.56
249.736	6.06
249.952	6.67
250.168	8.22
250.384	8.58
250.6	8.58
250.816	10.15
251.032	8.41
251.248	7.36
251.464	6.65
251.68	7.64
251.896	7.87
252.112	6.88
252.328	5.94
252.544	6.83
252.76	6.67
252.976	5.74
253.192	5.82
253.408	7.66
253.624	10.41
253.84	11.36
254.056	10.44
254.272	11.5
254.487	12.1
254.703	11.03
254.919	12.12
255.135	12.53
255.351	12.6
255.567	13.85
255.782	14.89
255.998	13.27
256.214	13.77
256.43	15.35
256.646	11.96
256.861	10.58
257.077	11.67
257.293	8.89
257.508	9.05
257.724	8.47
257.94	5.14
258.155	4.76
258.371	3.86
258.587	2.38
258.802	1.01
259.018	1.3
259.234	1.69
259.449	1.68
259.665	2.58
259.88	2.21
260.096	3.04
260.312	3.32
260.527	3.11
260.743	3.29
260.958	3.37
261.174	3.43
261.389	4.21
261.605	4.55
261.82	4.49
262.036	3.88
262.251	4.6
262.466	3.26
262.682	3.81
262.897	2.76
263.113	4.01
263.328	4.56
263.543	4.36
263.759	2.97
263.974	3.54
264.189	3.59
264.405	3.06
264.62	2.11
264.835	4.23
265.051	3.97
265.266	4.93
265.481	4.17
265.696	4.57
265.912	4.81
266.127	5.79
266.342	5.66
266.557	5.91
266.773	6.95
266.988	6.73
267.203	5.39
267.418	5.15
267.633	5.36
267.848	4.55
268.064	3.42
268.279	4.99
268.494	3.95
268.709	3.81
268.924	4.72
269.139	4.32
269.354	4.38
269.569	3.62
269.784	6.08
269.999	5.17
270.214	6.21
270.429	6.14
270.644	4.9
270.859	6.14
271.074	6.45
271.289	6.17
271.504	5.66
271.719	4.9
271.934	5.71
272.149	3.05
272.363	3.05
272.578	2.68
272.793	3.39
273.008	4.4
273.223	3.86
273.438	2.58
273.653	1.77
273.867	2.17
274.082	3.34
274.297	4.2
274.512	5.55
274.726	6.07
274.941	6.14
275.156	5.73
275.371	5.62
275.585	6.25
275.8	6.56
276.015	7.85
276.229	7.54
276.444	7.65
276.659	7.02
276.873	7.22
277.088	6.82
277.302	6.91
277.517	6.74
277.732	5.1
277.946	4.21
278.161	4.35
278.375	3.02
278.59	2.63
278.804	1.58
279.019	2.31
279.233	1.23
279.448	1.12
279.662	-0.16
279.877	1.35
280.091	3.2
280.306	3.82
280.52	3.39
280.735	4.59
280.949	4.73
281.163	5.31
281.378	3.69
281.592	4.2
281.806	3.25
282.021	4.46
282.235	3.76
282.449	4.24
282.664	4.5
282.878	5.68
283.092	5.55
283.307	7.01
283.521	6.35
283.735	6.59
283.949	6.64
284.164	8.17
284.378	8.26
284.592	8.87
284.806	7.57
285.02	8.75
285.234	8.62
285.449	7.65
285.663	7.84
285.877	7.98
286.091	8.45
286.305	9.63
286.519	8.91
286.733	9.32
286.947	8.53
287.161	8.92
287.375	6.9
287.589	7.44
287.803	8.18
288.017	6.55
288.231	5.9
288.445	5.66
288.659	4.91
288.873	6.17
289.087	5.59
289.301	5.52
289.515	5.8
289.729	5.8
289.943	5.72
290.157	6.1
290.371	6.55
290.584	6.47
290.798	7.65
291.012	7.26
291.226	7.14
291.44	7.27
291.654	6.61
291.867	6.23
292.081	6.56
292.295	5.17
292.509	4.47
292.722	4.1
292.936	5.31
293.15	3.94
293.364	3.68
293.577	3.64
293.791	4.17
294.005	6.46
294.218	7.03
294.432	7.36
294.645	8.84
294.859	8.79
295.073	9.68
295.286	9.88
295.5	10.25
295.713	11
295.927	9.47
296.14	9.09
296.354	8.36
296.568	8.48
296.781	8.19
296.994	7.49
297.208	8.02
297.421	7.85
297.635	7.28
297.848	7.52
298.062	6.83
298.275	8.01
298.489	7.73
298.702	8.42
298.915	7.61
299.129	7.73
299.342	7.51
299.555	8.12
299.769	7.94
299.982	8.62
300.195	8.44
300.409	9.51
300.622	9.21
300.835	10.23
301.048	9.46
301.262	11.47
301.475	11.54
301.688	11.82
301.901	11.04
302.115	10.88
302.328	10.54
302.541	9.89
302.754	9.66
302.967	10.12
303.18	9.32
303.393	9.42
303.607	8.2
303.82	9.07
304.033	9.3
304.246	8.24
304.459	8.11
304.672	8.15
304.885	8.55
305.098	8.39
305.311	8.33
305.524	9.01
305.737	9.15
305.95	8.94
306.163	8.15
306.376	9.61
306.589	11.3
306.802	10.71
307.015	12.08
307.228	11.98
307.44	11.37
307.653	10.12
307.866	9.21
308.079	8.32
308.292	8.24
308.505	8.06
308.718	6.43
308.93	5.92
309.143	6.53
309.356	4.92
309.569	5.47
309.781	6.16
309.994	7.73
310.207	7.85
310.42	8.47
310.632	8.4
310.845	9.16
311.058	9.7
311.27	9.48
311.483	10.22
311.696	10.61
311.908	10.68
312.121	10.64
312.333	9.91
312.546	9.55
312.759	9.35
312.971	9.79
313.184	9.27
313.396	8.96
313.609	9.37
313.821	8.72
314.034	9.85
314.246	9.53
314.459	10.13
314.671	10.66
314.884	10.11
315.096	11.56
315.309	10.82
315.521	10.68
315.733	11.35
315.946	11.02
316.158	11.58
316.371	11.67
316.583	11.51
316.795	10.47
317.008	10.37
317.22	11.58
317.432	9.79
317.644	11.98
317.857	11.82
318.069	11.06
318.281	11.48
318.494	11.83
318.706	11.27
318.918	11.12
319.13	10.9
319.342	9.47
319.555	9.5
319.767	9.78
319.979	8.32
320.191	8.84
320.403	9.02
320.615	9.71
320.827	9.25
321.039	9.06
321.252	9.87
321.464	10.7
321.676	12.31
321.888	13.01
322.1	13.22
322.312	12.62
322.524	12.84
322.736	13.31
322.948	12.94
323.16	12.62
323.372	12.79
323.584	13.47
323.796	14.06
324.007	14.39
324.219	14.2
324.431	15
324.643	15.52
324.855	15
325.067	14.47
325.279	14.99
325.491	14.51
325.702	14.43
325.914	13.85
326.126	14.31
326.338	13.96
326.55	13.96
326.761	12.71
326.973	13.14
327.185	13.83
327.396	14.9
327.608	14.41
327.82	14.56
328.032	14.94
328.243	15.29
328.455	13.9
328.666	14.02
328.878	14.71
329.09	16.16
329.301	16
329.513	14.72
329.725	14.2
329.936	14.28
330.148	15.58
330.359	15.07
330.571	15.31
330.782	14.64
330.994	14.59
331.205	15.26
331.417	14.7
331.628	15.08
331.84	16.31
332.051	15.65
332.262	16.21
332.474	16.25
332.685	16.88
332.897	15.87
333.108	16.45
333.319	15.81
333.531	13.86
333.742	14.73
333.953	14.82
334.165	14.86
334.376	15.64
334.587	15.41
334.799	15.8
335.01	15.36
335.221	15.94
335.432	16.73
335.644	18.43
335.855	19.54
336.066	20.13
336.277	19.71
336.488	20.27
336.7	20.68
336.911	20.14
337.122	19.63
337.333	20.52
337.544	21.29
337.755	21.46
337.966	21.38
338.177	22.13
338.388	20.22
338.599	21.16
338.811	20.65
339.022	20.75
339.233	21.09
339.444	22.02
339.655	22.24
339.866	21.99
340.076	21.98
340.287	21.5
340.498	20.02
340.709	21.03
340.92	21.22
341.131	21.35
341.342	21.83
341.553	22.61
341.764	21.89
341.975	20.7
342.185	21.84
342.396	21.66
342.607	21.94
342.818	23.07
343.029	22.91
343.239	23.38
343.45	23.59
343.661	23.27
343.872	22.5
344.082	23.04
344.293	23.53
344.504	22.73
344.714	23.02
344.925	22.41
345.136	22.53
345.346	23.43
345.557	23.26
345.768	23.62
345.978	22.48
346.189	23.43
346.399	23
346.61	23.17
346.821	23.04
347.031	23.05
347.242	24
347.452	24.42
347.663	24.09
347.873	23.53
348.084	22.99
348.294	23.99
348.504	23.42
348.715	22.97
348.925	22.56
349.136	23.26
349.346	22.63
349.557	22.16
349.767	21.08
349.977	20.93
350.188	20.43
350.398	20.56
350.608	21.03
350.819	21.2
351.029	21.63
351.239	22.19
351.449	20.74
351.66	19.78
351.87	19.61
352.08	19.31
352.29	19.6
352.501	20.33
352.711	21.57
352.921	20.33
353.131	19.7
353.341	19.91
353.552	19.97
353.762	21.01
353.972	21.95
354.182	22.83
354.392	23.85
354.602	23.53
354.812	23.48
355.022	22.49
355.232	23.29
355.442	23
355.652	23.25
355.862	23.38
356.072	23.35
356.282	23.36
356.492	22.18
356.702	22.14
356.912	22.08
357.122	22.08
357.332	22.68
357.542	22.48
357.752	23.33
357.962	23.01
358.171	21.88
358.381	21.64
358.591	22.47
358.801	22.55
359.011	22.21
359.221	22.76
359.43	23.04
359.64	22.67
359.85	22.61
360.06	22.76
360.269	22.92
360.479	23.6
360.689	23.79
360.899	23.41
361.108	23.78
361.318	24.54
361.528	23.89
361.737	23.69
361.947	23.79
362.156	24.03
362.366	23.74
362.576	23.39
362.785	23.47
362.995	23.47
363.204	23.78
363.414	23.55
363.623	22.78
363.833	22.79
364.042	23.06
364.252	23.01
364.461	23.12
364.671	23.27
364.88	23.45
365.09	23.95
365.299	23.74
365.509	22.94
365.718	23.63
365.927	23.63
366.137	24.1
366.346	23.28
366.555	23.3
366.765	22.92
366.974	22.63
367.183	22.27
367.393	21.45
367.602	21.48
367.811	22.42
368.021	22
368.23	22.3
368.439	21.77
368.648	22.16
368.857	21.87
369.067	22.23
369.276	22.58
369.485	23.32
369.694	23.53
369.903	23.76
370.112	22.84
370.321	23.73
370.531	23.67
370.74	23.99
370.949	23.87
371.158	23.69
371.367	23.24
371.576	23.32
371.785	23.27
371.994	23.65
372.203	23.78
372.412	24.18
372.621	23.6
372.83	23.32
373.039	23.27
373.248	23.03
373.457	23.54
373.666	24.16
373.874	24.41
374.083	23.8
374.292	23.94
374.501	23.2
374.71	22.9
374.919	22.73
375.128	23.44
375.336	23.56
375.545	24.18
375.754	23.56
375.963	23.08
376.171	22.58
376.38	22.9
376.589	22.39
376.798	22.93
377.006	23.41
377.215	23.24
377.424	22.46
377.632	21.46
377.841	21.28
378.05	21.66
378.258	21.6
378.467	21.37
378.675	21.53
378.884	21.83
379.093	21.66
379.301	20.97
379.51	21
379.718	21.53
379.927	22.31
380.135	22.14
380.344	22.05
380.552	22.34
380.761	23.27
380.969	23.32
381.177	22.87
381.386	22.4
381.594	22.78
381.803	22.89
382.011	22.61
382.219	22.66
382.428	23.06
382.636	23.26
382.845	23.51
383.053	22.68
383.261	22.64
383.469	22.58
383.678	22.92
383.886	22.76
384.094	22.71
384.302	22.63
384.511	22.43
384.719	22.15
384.927	21.94
385.135	21.36
385.343	21.51
385.552	21.15
385.76	21.48
385.968	21.51
386.176	21.84
386.384	21.46
386.592	21.29
386.8	21.53
387.008	21.6
387.216	21.45
387.424	21.24
387.633	21
387.841	21.3
388.049	21.37
388.257	21.38
388.465	21.15
388.672	21.41
388.88	21.74
389.088	21.68
389.296	21.42
389.504	21.41
389.712	21.59
389.92	21.83
390.128	21.49
390.336	21.03
390.544	21.01
390.751	20.99
390.959	21.05
391.167	20.82
391.375	20.95
391.583	21.21
391.79	21.35
391.998	21.57
392.206	21.49
392.414	21.5
392.621	21.67
392.829	21.57
393.037	21.27
393.244	21.43
393.452	21.52
393.66	21.46
393.867	21.2
394.075	21.15
394.283	21.11
394.49	21.22
394.698	21.48
394.905	22
395.113	22.32
395.32	22.59
395.528	22.63
395.735	22.71
395.943	22.77
396.15	22.95
396.358	23.18
396.565	23.16
396.773	23.15
396.98	23.26
397.188	23.06
397.395	23.03
397.602	23.13
397.81	22.93
398.017	22.96
398.225	22.95
398.432	23.1
398.639	23.01
398.847	23.05
399.054	23
399.261	22.85
399.468	22.68
399.676	22.62
399.883	22.72
400.09	22.86
400.297	22.91
400.505	22.99
400.712	23
400.919	22.95
401.126	23.04
401.333	23.11
401.54	23.19
401.748	23.19
401.955	23.02
402.162	22.79
402.369	22.69
402.576	22.48
402.783	22.03
402.99	22.08
403.197	21.72
403.404	21.6
403.611	21.65
403.818	21.86
404.025	21.97
404.232	22.19
404.439	22.37
404.646	22.45
404.853	22.41
405.06	22.84
405.267	22.59
405.474	22.76
405.681	22.86
405.887	22.71
406.094	22.5
406.301	22.28
406.508	21.97
406.715	21.85
406.922	21.77
407.128	22.07
407.335	21.89
407.542	21.9
407.749	21.99
407.955	21.85
408.162	22.05
408.369	22.03
408.575	21.94
408.782	21.94
408.989	22.03
409.195	21.77
409.402	21.62
409.609	21.95
409.815	22.1
410.022	22.23
410.228	22.05
410.435	21.81
410.642	22.02
410.848	22.23
411.055	22.21
411.261	22.36
411.468	22.68
411.674	22.72
411.881	22.33
412.087	22.13
412.294	21.96
412.5	22.22
412.706	22.15
412.913	21.86
413.119	21.67
413.326	21.68
413.532	21.65
413.738	21.46
413.945	21.48
414.151	21.71
414.357	21.79
414.564	21.79
414.77	21.94
414.976	21.98
415.182	22.28
415.389	22.24
415.595	22.43
415.801	22.39
416.007	22.38
416.214	22.17
416.42	21.92
416.626	21.94
416.832	22.18
417.038	21.85
417.244	21.97
417.45	21.56
417.657	21.55
417.863	21.46
418.069	21.42
418.275	21.35
418.481	21.33
418.687	21.59
418.893	21.61
419.099	21.47
419.305	21.68
419.511	21.54
419.717	21.64
419.923	21.61
420.129	21.58
420.335	21.43
420.541	21.42
420.746	21.46
420.952	21.15
421.158	21.11
421.364	21.09
421.57	20.95
421.776	20.93
421.982	20.92
422.187	20.9
422.393	20.71
422.599	20.72
422.805	20.76
423.01	20.72
423.216	20.81
423.422	20.63
423.628	20.59
423.833	20.56
424.039	20.62
424.245	20.55
424.45	20.52
424.656	20.56
424.862	20.46
425.067	20.41
425.273	20.38
425.478	20.45
425.684	20.54
425.889	20.48
426.095	20.54
426.301	20.45
426.506	20.39
426.712	20.38
426.917	20.56
427.123	20.71
427.328	20.73
427.533	20.8
427.739	20.62
427.944	20.78
428.15	21.02
428.355	21
428.561	20.96
428.766	21.17
428.971	21.45
429.177	21.28
429.382	21.38
429.587	21.21
429.793	21.3
429.998	21.51
430.203	21.4
430.408	21.34
430.614	21.37
430.819	21.25
431.024	21.25
431.229	21.14
431.434	21.37
431.64	21.33
431.845	21.27
432.05	20.92
432.255	20.73
432.46	20.62
432.665	20.46
432.87	20.54
433.076	20.75
433.281	20.69
433.486	20.77
433.691	20.71
433.896	20.64
434.101	20.98
434.306	21.28
434.511	21.37
434.716	21.47
434.921	21.54
435.126	21.31
435.331	21.26
435.535	21.3
435.74	21.25
435.945	21.25
436.15	21.32
436.355	21.21
436.56	21.09
436.765	21.18
436.97	21.17
437.174	21.01
437.379	21.12
437.584	21.14
437.789	21.21
437.993	21.27
438.198	21.22
438.403	21.11
438.608	21
438.812	20.88
439.017	20.77
439.222	20.77
439.426	20.91
439.631	20.95
439.836	20.92
440.04	20.79
440.245	20.75
440.45	20.8
440.654	20.84
440.859	20.95
441.063	21.04
441.268	21.11
441.472	21.17
441.677	21.1
441.881	21.1
442.086	21.18
442.29	21.29
442.495	21.22
442.699	21.05
442.904	21.04
443.108	20.97
443.312	20.89
443.517	20.82
443.721	20.79
443.925	20.88
444.13	20.88
444.334	20.87
444.538	20.9
444.743	20.89
444.947	20.98
445.151	20.92
445.356	20.89
445.56	20.89
445.764	20.84
445.968	20.81
446.173	20.67
446.377	20.58
446.581	20.5
446.785	20.43
446.989	20.55
447.193	20.52
447.398	20.42
447.602	20.34
447.806	20.34
448.01	20.3
448.214	20.34
448.418	20.49
448.622	20.49
448.826	20.41
449.03	20.28
449.234	20.01
449.438	20.04
449.642	20.14
449.846	20.19
450.05	20.12
450.254	20.29
450.458	20.02
450.662	20.01
450.866	19.91
451.069	19.96
451.273	19.79
451.477	19.77
451.681	19.67
451.885	19.71
452.089	19.78
452.292	19.88
452.496	19.65
452.7	19.87
452.904	19.88
453.107	20.07
453.311	20.03
453.515	20.23
453.719	20.14
453.922	20.19
454.126	20.16
454.33	20
454.533	20
454.737	20.27
454.94	20.24
455.144	20.09
455.348	20.06
455.551	20.16
455.755	20.22
455.958	20.45
456.162	20.34
456.365	20.39
456.569	20.62
456.772	20.52
456.976	20.41
457.179	20.57
457.383	20.58
457.586	20.61
457.79	20.65
457.993	20.52
458.196	20.48
458.4	20.62
458.603	20.66
458.807	20.52
459.01	20.56
459.213	20.51
459.417	20.29
459.62	20.42
459.823	20.36
460.026	20.31
460.23	20.39
460.433	20.39
460.636	20.4
460.839	20.48
461.042	20.63
461.246	20.62
461.449	20.63
461.652	20.78
461.855	20.69
462.058	20.7
462.261	20.74
462.464	20.86
462.668	21.01
462.871	21.17
463.074	21.02
463.277	21.02
463.48	20.97
463.683	21.07
463.886	21.15
464.089	21.1
464.292	21.14
464.495	21.22
464.698	21.22
464.901	21.18
465.104	20.94
465.306	20.97
465.509	20.87
465.712	20.95
465.915	20.81
466.118	20.78
466.321	20.87
466.524	20.87
466.726	20.86
466.929	20.81
467.132	20.93
467.335	20.9
467.538	21.04
467.74	21.14
467.943	21.18
468.146	21.26
468.348	21.06
468.551	21.2
468.754	21.28
468.956	21.39
469.159	21.37
469.362	21.18
469.564	21.46
469.767	21.31
469.969	21.3
470.172	21.42
470.375	21.53
470.577	21.69
470.78	21.59
470.982	21.5
471.185	21.47
471.387	21.66
471.59	21.7
471.792	21.74
471.995	21.78
472.197	21.75
472.399	21.83
472.602	21.82
472.804	21.75
473.007	21.77
473.209	21.74
473.411	21.84
473.614	21.7
473.816	21.65
474.018	21.45
474.22	21.63
474.423	21.67
474.625	21.44
474.827	21.43
475.03	21.57
475.232	21.59
475.434	21.72
475.636	21.71
475.838	21.79
476.04	21.92
476.243	22.12
476.445	21.82
476.647	21.67
476.849	21.82
477.051	21.83
477.253	21.88
477.455	21.79
477.657	21.8
477.859	21.75
478.061	21.56
478.263	21.53
478.465	21.36
478.667	21.38
478.869	21.5
479.071	21.48
479.273	21.41
479.475	21.29
479.677	21.31
479.879	21.08
480.081	20.99
480.283	21
480.485	20.97
480.686	21.06
480.888	21.14
481.09	21.14
481.292	21.17
481.494	21.09
481.695	21.16
481.897	20.98
482.099	21.05
482.301	21.03
482.502	21.13
482.704	21.08
482.906	21.01
483.107	21.01
483.309	20.94
483.511	20.85
483.712	20.83
483.914	20.78
484.115	20.91
484.317	20.95
484.519	20.91
484.72	20.83
484.922	20.83
485.123	20.84
485.325	20.86
485.526	20.96
485.728	21.03
485.929	21.06
486.131	21.04
486.332	20.92
486.534	20.88
486.735	20.9
486.936	20.97
487.138	20.93
487.339	20.99
487.541	20.96
487.742	20.85
487.943	20.82
488.144	20.85
488.346	20.86
488.547	20.87
488.748	20.88
488.95	20.89
489.151	20.88
489.352	20.93
489.553	20.84
489.755	20.78
489.956	20.78
490.157	20.81
490.358	20.83
490.559	20.78
490.76	20.89
490.961	20.84
491.163	20.9
491.364	20.94
491.565	20.99
491.766	20.97
491.967	21.01
492.168	21.06
492.369	21.03
492.57	21.08
492.771	21.16
492.972	21.07
493.173	21.11
493.374	21.29
493.575	21.27
493.776	21.17
493.976	21.25
494.177	21.35
494.378	21.52
494.579	21.62
494.78	21.57
494.981	21.67
495.182	21.77
495.382	21.71
495.583	21.49
495.784	21.62
495.985	21.67
496.185	21.76
496.386	21.64
496.587	21.43
496.788	21.43
496.988	21.52
497.189	21.53
497.39	21.61
497.59	21.78
497.791	21.82
497.992	21.91
498.192	22.1
498.393	22.03
498.593	22.01
498.794	22.11
498.994	22.14
499.195	22.29
499.395	22.3
499.596	22.25
499.796	22.28
499.997	22.22
500.197	22.16
500.398	22.1
500.598	22.33
500.799	22.5
500.999	22.49
501.199	22.49
501.4	22.53
501.6	22.67
501.801	22.77
502.001	22.82
502.201	22.87
502.402	22.94
502.602	22.93
502.802	22.85
503.002	22.85
503.203	22.96
503.403	22.99
503.603	22.84
503.803	22.88
504.003	22.94
504.204	22.82
504.404	22.95
504.604	22.8
504.804	22.89
505.004	22.97
505.204	23.01
505.404	23.27
505.604	23.42
505.804	23.47
506.005	23.42
506.205	23.36
506.405	23.48
506.605	23.54
506.805	23.64
507.005	23.55
507.204	23.53
507.404	23.54
507.604	23.45
507.804	23.61
508.004	23.76
508.204	23.72
508.404	23.73
508.604	23.85
508.804	23.9
509.003	24.02
509.203	24.15
509.403	24.23
509.603	24.29
509.803	24.4
510.002	24.24
510.202	24.27
510.402	24.44
510.602	24.56
510.801	24.53
511.001	24.66
511.201	24.77
511.4	24.86
511.6	24.92
511.8	24.95
511.999	24.98
512.199	25.08
512.398	25.04
512.598	25.03
512.797	25.13
512.997	25.24
513.197	25.14
513.396	25.09
513.596	25.16
513.795	25.07
513.994	25.05
514.194	24.94
514.393	25.06
514.593	25.25
514.792	25.42
514.992	25.45
515.191	25.58
515.39	25.65
515.59	25.6
515.789	25.58
515.988	25.64
516.188	25.84
516.387	25.95
516.586	26.03
516.786	25.99
516.985	25.96
517.184	26.05
517.383	26.07
517.582	26
517.782	26.2
517.981	26.19
518.18	26.32
518.379	26.37
518.578	26.48
518.777	26.43
518.976	26.49
519.176	26.55
519.375	26.57
519.574	26.58
519.773	26.77
519.972	26.7
520.171	26.87
520.37	26.81
520.569	26.87
520.768	26.77
520.967	26.76
521.166	26.78
521.365	26.89
521.564	27.03
521.762	27.16
521.961	27.13
522.16	27.28
522.359	27.25
522.558	27.48
522.757	27.55
522.956	27.73
523.154	27.82
523.353	27.74
523.552	27.58
523.751	27.55
523.949	27.5
524.148	27.59
524.347	27.54
524.546	27.62
524.744	27.72
524.943	27.67
525.142	27.72
525.34	27.72
525.539	27.81
525.737	27.85
525.936	27.7
526.135	27.77
526.333	27.7
526.532	27.74
526.73	27.77
526.929	27.62
527.127	27.65
527.326	27.58
527.524	27.66
527.723	27.7
527.921	27.7
528.12	27.81
528.318	27.82
528.516	27.84
528.715	27.85
528.913	27.82
529.112	27.91
529.31	27.93
529.508	27.98
529.707	27.99
529.905	28.03
530.103	28.1
530.301	28.11
530.5	28.11
530.698	28.19
530.896	28.23
531.094	28.34
531.293	28.4
531.491	28.4
531.689	28.47
531.887	28.46
532.085	28.43
532.283	28.42
532.481	28.52
532.68	28.63
532.878	28.64
533.076	28.66
533.274	28.73
533.472	28.78
533.67	28.8
533.868	28.77
534.066	28.89
534.264	28.99
534.462	29.03
534.66	29.01
534.858	28.98
535.056	29.03
535.253	29.07
535.451	28.98
535.649	28.94
535.847	29.12
536.045	29.23
536.243	29.14
536.441	29.28
536.638	29.3
536.836	29.24
537.034	29.23
537.232	29.41
537.43	29.37
537.627	29.48
537.825	29.34
538.023	29.3
538.22	29.37
538.418	29.41
538.616	29.27
538.813	29.35
539.011	29.43
539.209	29.43
539.406	29.31
539.604	29.44
539.801	29.36
539.999	29.42
540.196	29.53
540.394	29.43
540.591	29.53
540.789	29.51
540.986	29.48
541.184	29.59
541.381	29.66
541.579	29.72
541.776	29.72
541.974	29.76
542.171	29.84
542.368	29.79
542.566	29.94
542.763	29.9
542.96	29.96
543.158	30
543.355	29.91
543.552	29.98
543.75	30.01
543.947	30.09
544.144	30.16
544.341	30.27
544.539	30.39
544.736	30.44
544.933	30.46
545.13	30.56
545.327	30.6
545.524	30.71
545.722	30.65
545.919	30.65
546.116	30.68
546.313	30.69
546.51	30.69
546.707	30.75
546.904	30.71
547.101	30.84
547.298	30.86
547.495	30.99
547.692	31.21
547.889	31.25
548.086	31.17
548.283	31.24
548.48	31.42
548.677	31.48
548.874	31.29
549.07	31.29
549.267	31.51
549.464	31.56
549.661	31.55
549.858	31.5
550.055	31.54
550.251	31.74
550.448	31.46
550.645	31.36
550.842	31.27
551.038	31.22
551.235	31.13
551.432	30.91
551.628	31.1
551.825	31.22
552.022	31.15
552.218	30.97
552.415	31.01
552.612	31.33
552.808	31.28
553.005	31.46
553.201	31.68
553.398	31.79
553.594	32.09
553.791	32.05
553.987	31.94
554.184	31.91
554.38	32.35
554.577	32.31
554.773	32.34
554.97	32.48
555.166	32.46
555.362	32.52
555.559	32.53
555.755	32.45
555.952	32.35
556.148	32.32
556.344	32.42
556.541	32.48
556.737	32.5
556.933	32.55
557.129	32.69
557.326	32.87
557.522	32.9
557.718	32.94
557.914	32.64
558.11	32.72
558.307	32.9
558.503	33.08
558.699	32.91
558.895	32.91
559.091	32.97
559.287	32.94
559.483	32.83
559.679	32.67
559.876	32.89
560.072	33.22
560.268	33.07
560.464	32.92
560.66	32.66
560.856	32.67
561.052	32.78
561.247	32.59
561.443	32.59
561.639	32.63
561.835	32.71
562.031	32.57
562.227	32.48
562.423	32.69
562.619	32.8
562.815	32.98
563.01	33.01
563.206	32.9
563.402	33.13
563.598	33.13
563.793	32.96
563.989	33.18
564.185	33.33
564.381	33.19
564.576	33.13
564.772	33.23
564.968	33.06
565.163	33.14
565.359	33.24
565.555	33.09
565.75	33
565.946	33.17
566.141	33.05
566.337	32.92
566.532	32.95
566.728	32.97
566.923	32.91
567.119	33.17
567.314	33.04
567.51	33.02
567.705	32.98
567.901	33.24
568.096	33.41
568.292	33.51
568.487	33.65
568.682	33.77
568.878	33.9
569.073	33.92
569.268	33.98
569.464	34.13
569.659	34.07
569.854	34.16
570.05	34.14
570.245	34.05
570.44	33.84
570.635	33.77
570.831	33.71
571.026	33.69
571.221	33.63
571.416	33.54
571.611	33.61
571.806	33.73
572.002	33.82
572.197	33.85
572.392	33.75
572.587	33.77
572.782	33.9
572.977	33.87
573.172	33.82
573.367	33.83
573.562	33.8
573.757	33.7
573.952	33.76
574.147	33.7
574.342	33.48
574.537	33.21
574.732	33.22
574.927	33.08
575.121	33.14
575.316	33.19
575.511	33.13
575.706	33.16
575.901	33.19
576.096	33.17
576.29	33.33
576.485	33.4
576.68	33.86
576.875	34.22
577.069	34.2
577.264	34.15
577.459	34.01
577.654	34.12
577.848	34.14
578.043	34.17
578.238	34.14
578.432	33.91
578.627	33.9
578.821	33.77
579.016	33.41
579.21	33.37
579.405	33.66
579.6	33.71
579.794	33.79
579.989	33.65
580.183	33.6
580.378	33.56
580.572	33.41
580.766	33.36
580.961	33.38
581.155	33.58
581.35	33.76
581.544	33.52
581.738	33.58
581.933	33.54
582.127	33.5
582.321	33.56
582.516	33.48
582.71	34.01
582.904	34.28
583.099	34.38
583.293	34.42
583.487	34.35
583.681	34.5
583.875	34.49
584.07	34.38
584.264	34.42
584.458	34.47
584.652	34.76
584.846	34.65
585.04	34.55
585.234	34.33
585.428	34.1
585.623	34.18
585.817	34.22
586.011	34.35
586.205	34.57
586.399	34.7
586.593	34.61
586.787	34.46
586.981	34.53
587.174	34.34
587.368	34.51
587.562	34.82
587.756	34.79
587.95	34.81
588.144	34.7
588.338	34.63
588.532	34.57
588.725	34.67
588.919	34.72
589.113	34.77
589.307	34.89
589.501	34.71
589.694	34.67
589.888	34.57
590.082	34.37
590.275	34.61
590.469	34.69
590.663	34.79
590.856	34.59
591.05	34.73
591.244	34.38
591.437	34.36
591.631	34.33
591.824	34.31
592.018	34.38
592.212	34.56
592.405	34.3
592.599	34.2
592.792	34.07
592.986	34.16
593.179	34.18
593.372	34.38
593.566	34.48
593.759	34.64
593.953	34.6
594.146	34.73
594.339	34.61
594.533	34.76
594.726	34.87
594.92	34.96
595.113	34.99
595.306	34.66
595.499	34.57
595.693	34.66
595.886	34.78
596.079	34.84
596.272	34.87
596.466	34.91
596.659	34.8
596.852	34.87
597.045	34.86
597.238	34.97
597.431	34.99
597.624	35.14
597.818	35.2
598.011	35.2
598.204	35.3
598.397	35.09
598.59	35.23
598.783	35.16
598.976	35.13
599.169	35.17
599.362	35.33
599.555	35.6
599.748	35.3
599.941	35.23
600.134	35.16
600.326	35.11
600.519	35.21
600.712	35.12
600.905	35.36
601.098	35.39
601.291	35.48
601.483	35.46
601.676	35.58
601.869	35.77
602.062	35.66
602.255	35.65
602.447	35.65
602.64	35.74
602.833	35.77
603.025	35.62
603.218	35.64
603.411	35.71
603.603	35.44
603.796	35.18
603.989	35.11
604.181	35.2
604.374	35.26
604.566	35.06
604.759	34.98
604.951	34.97
605.144	35.08
605.336	35.19
605.529	35.13
605.721	35.19
605.914	35.28
606.106	35.47
606.299	35.44
606.491	35.49
606.683	35.67
606.876	35.73
607.068	35.94
607.26	35.89
607.453	35.75
607.645	35.79
607.837	35.96
608.03	36.11
608.222	35.8
608.414	35.74
608.606	35.74
608.799	35.71
608.991	35.57
609.183	35.5
609.375	35.41
609.567	35.29
609.759	35.28
609.952	35.01
610.144	34.93
610.336	35.07
610.528	35.12
610.72	34.9
610.912	34.99
611.104	35.14
611.296	34.94
611.488	35.19
611.68	35.19
611.872	35.27
612.064	35.58
612.256	35.53
612.448	35.77
612.64	35.61
612.832	35.88
613.023	35.45
613.215	35.31
613.407	35.31
613.599	35.43
613.791	35.54
613.983	35.5
614.174	35.19
614.366	35.6
614.558	35.02
614.75	35.29
614.941	35.27
615.133	35.44
615.325	35.8
615.516	36.06
615.708	35.83
615.9	36.08
616.091	35.76
616.283	36.08
616.475	35.99
616.666	36.15
616.858	36.4
617.049	36.48
617.241	36.52
617.432	36.7
617.624	36.42
617.815	36.57
618.007	36.27
618.198	36.32
618.39	36.25
618.581	36.07
618.773	36.24
618.964	35.89
619.155	35.66
619.347	35.62
619.538	35.27
619.729	35.3
619.921	35.09
620.112	35.41
620.303	35.59
620.494	35.63
620.686	35.71
620.877	35.9
621.068	36.06
621.259	36.24
621.451	36.53
621.642	36.67
621.833	36.75
622.024	37.01
622.215	36.48
622.406	36.36
622.597	36.25
622.788	36.26
622.98	36
623.171	36.23
623.362	36.26
623.553	36.14
623.744	36.1
623.935	36.35
624.126	36.18
624.317	36.27
624.508	36.38
624.698	36.53
624.889	36.31
625.08	36.24
625.271	36.01
625.462	35.94
625.653	35.99
625.844	36.03
626.034	35.83
626.225	35.81
626.416	36.06
626.607	36.13
626.798	36.09
626.988	36.03
627.179	36.43
627.37	36.38
627.56	36.37
627.751	36.44
627.942	36.32
628.132	36.33
628.323	36.33
628.514	36.1
628.704	36.14
628.895	35.93
629.085	36.15
629.276	35.87
629.466	35.53
629.657	35.5
629.847	35.48
630.038	35.52
630.228	35.69
630.419	35.77
630.609	35.85
630.8	35.75
630.99	35.87
631.181	35.51
631.371	35.48
631.561	35.95
631.752	36.11
631.942	35.93
632.132	36.14
632.323	36.59
632.513	36.21
632.703	36.09
632.893	36.17
633.084	36.06
633.274	36.26
633.464	36.16
633.654	35.96
633.844	36.1
634.034	35.91
634.225	35.71
634.415	35.19
634.605	35.49
634.795	35.63
634.985	35.37
635.175	35.75
635.365	35.83
635.555	35.98
635.745	35.96
635.935	35.58
636.125	35.99
636.315	36.16
636.505	36.26
636.695	36.48
636.885	36.52
637.075	36.54
637.265	36.25
637.455	36.34
637.644	36.25
637.834	36.3
638.024	36.49
638.214	36.58
638.404	36.51
638.593	36.67
638.783	36.53
638.973	36.59
639.163	36.69
639.352	36.62
639.542	36.68
639.732	37.06
639.921	37.11
640.111	37.09
640.301	36.84
640.49	36.76
640.68	36.3
640.87	36.25
641.059	36.39
641.249	36.45
641.438	36.65
641.628	36.72
641.817	36.25
642.007	36.63
642.196	36.53
642.386	36.65
642.575	37.23
642.764	37.84
642.954	37.58
643.143	37.44
643.333	37.64
643.522	37.75
643.711	37.71
643.901	38.28
644.09	37.96
644.279	38.11
644.469	37.99
644.658	37.14
644.847	37.02
645.036	37.47
645.226	37.28
645.415	37.27
645.604	37.1
645.793	36.98
645.982	36.83
646.171	36.59
646.361	36.71
646.55	36.59
646.739	37
646.928	37.04
647.117	36.62
647.306	36.57
647.495	36.21
647.684	36.23
647.873	36.27
648.062	35.55
648.251	35.63
648.44	35.58
648.629	35.51
648.818	35.51
649.007	35.28
649.196	35.34
649.384	35.7
649.573	35.98
649.762	36.11
649.951	36.16
650.14	36.61
650.328	36.75
650.517	36.91
650.706	37.08
650.895	36.47
651.083	36.34
651.272	37.03
651.461	37.04
651.65	37.22
651.838	37
652.027	36.81
652.216	36.97
652.404	37.01
652.593	36.84
652.781	36.63
652.97	37.05
653.158	37.13
653.347	36.84
653.535	36.67
653.724	36.47
653.912	36.53
654.101	36.53
654.289	36.53
654.478	36.33
654.666	36.5
654.855	36.55
655.043	36.51
655.231	36.44
655.42	36.22
655.608	36.1
655.796	36.56
655.985	36.61
656.173	36.76
656.361	36.48
656.55	37
656.738	36.76
656.926	37.02
657.114	36.99
657.302	37.32
657.491	37.03
657.679	37.22
657.867	36.91
658.055	36.82
658.243	36.89
658.431	36.89
658.619	36.58
658.807	36.14
658.996	35.72
659.184	35.82
659.372	35.64
659.56	35.85
659.748	35.6
659.936	35.46
660.124	35.46
660.311	35.25
660.499	35.38
660.687	35.39
660.875	36.05
661.063	36.65
661.251	36.89
661.439	36.62
661.627	36.58
661.814	36.7
662.002	37.08
662.19	36.83
662.378	36.89
662.565	36.78
662.753	36.78
662.941	36.37
663.129	36.16
663.316	36.02
663.504	36.32
663.692	36.18
663.879	36.5
664.067	36
664.254	36.28
664.442	36.22
664.63	36.09
664.817	35.95
665.005	35.93
665.192	35.49
665.38	35.01
665.567	35.1
665.755	35.47
665.942	35.34
666.13	35.52
666.317	35.4
666.504	35.54
666.692	35.97
666.879	36.16
667.067	36.49
667.254	37.21
667.441	37.72
667.629	38.07
667.816	38.04
668.003	38.06
668.19	38.5
668.378	38.71
668.565	38.5
668.752	38.21
668.939	38.26
669.127	38.26
669.314	38.25
669.501	37.84
669.688	37.27
669.875	37.32
670.062	36.81
670.249	36.57
670.436	37.05
670.623	37.26
670.81	37.42
670.997	37.08
671.184	36.69
671.371	36.78
671.558	37.14
671.745	36.95
671.932	36.28
672.119	36.71
672.306	36.44
672.493	36.16
672.68	36.45
672.867	36.5
673.054	36.84
673.24	36.92
673.427	36.43
673.614	36
673.801	36.33
673.988	37.2
674.174	36.91
674.361	36.89
674.548	36.21
674.734	36.53
674.921	36.61
675.108	36.49
675.294	36.46
675.481	36.38
675.668	36.77
675.854	36.98
676.041	36.76
676.227	37.24
676.414	36.88
676.601	37.1
676.787	36.45
676.974	36.33
677.16	36.78
677.347	36.83
677.533	36.93
677.719	36.55
677.906	36.17
678.092	35.84
678.279	35.71
678.465	36.25
678.651	36.66
678.838	36.74
679.024	36.37
679.21	36.22
679.397	36.17
679.583	35.91
679.769	36.05
679.955	36.19
680.142	36.19
680.328	36.29
680.514	36.31
680.7	36.23
680.886	35.94
681.073	35.82
681.259	35.95
681.445	36.17
681.631	36.49
681.817	36.3
682.003	36.45
682.189	36.44
682.375	36.53
682.561	36.28
682.747	36.28
682.933	36.07
683.119	36.44
683.305	35.95
683.491	35.91
683.677	36.2
683.863	36.53
684.049	36.45
684.235	36.43
684.42	36.28
684.606	36.61
684.792	35.89
684.978	36.43
685.164	36.61
685.349	36.42
685.535	36.12
685.721	35.93
685.907	36.14
686.092	35.45
686.278	35.47
686.464	35.11
686.649	34.97
686.835	35.72
687.021	35.54
687.206	34.96
687.392	35.62
687.577	35.8
687.763	35.51
687.948	35.77
688.134	36.29
688.319	36.78
688.505	36.53
688.69	36.47
688.876	36.28
689.061	36.28
689.247	36.64
689.432	36.24
689.618	36.24
689.803	36.08
689.988	35.62
690.174	35.22
690.359	34.93
690.544	35.33
690.73	35.18
690.915	34.97
691.1	35.21
691.285	35.37
691.471	35.2
691.656	35.04
691.841	35.19
692.026	34.9
692.211	35.78
692.396	35.87
692.582	35.76
692.767	35.44
692.952	35.95
693.137	35.44
693.322	35.16
693.507	36.06
693.692	35.83
693.877	35.85
694.062	36.59
694.247	36.47
694.432	36.45
694.617	36.82
694.802	37.36
694.987	36.87
695.172	37.33
695.357	37.9
695.541	36.99
695.726	37.54
695.911	38.19
696.096	37.97
696.281	38.18
696.466	37.86
696.65	38.26
696.835	37.96
697.02	38.02
697.204	38.21
697.389	38.26
697.574	38.06
697.759	37.62
697.943	37.15
698.128	36.89
698.312	36.38
698.497	37.06
698.682	36.28
698.866	36.13
699.051	36.03
699.235	35.33
699.42	35.33
699.604	35.8
699.789	35.82
699.973	35.75
700.158	35.78
700.342	36.07
700.527	35.59
700.711	36.43
700.895	36.49
701.08	36.63
701.264	37.57
701.448	36.88
701.633	36.07
701.817	35.94
702.001	36.23
702.186	35.93
702.37	35.5
702.554	35.36
702.738	34.89
702.923	35.55
703.107	35.72
703.291	35.94
703.475	35.99
703.659	36.5
703.843	37.14
704.027	37.38
704.212	37.93
704.396	37.74
704.58	37.87
704.764	37.45
704.948	36.76
705.132	36.78
705.316	36.08
705.5	37.21
705.684	37.13
705.868	37.12
706.052	37.02
706.235	37.75
706.419	37.9
706.603	37.82
706.787	37.96
706.971	37.74
707.155	37.59
707.339	38
707.522	36.68
707.706	36.72
707.89	36.61
708.074	35.9
708.257	35.03
708.441	35.85
708.625	36.13
708.808	36.16
708.992	36.9
709.176	37.11
709.359	36.47
709.543	37.22
709.727	37.39
709.91	37.5
710.094	37.84
710.277	37.71
710.461	37.41
710.644	36.74
710.828	36.55
711.011	36.64
711.195	36.62
711.378	37.07
711.562	36.69
711.745	36.93
711.928	36.81
712.112	36.61
712.295	36.62
712.478	36
712.662	35.72
712.845	35.53
713.028	35.02
713.212	34.38
713.395	34.17
713.578	34.35
713.761	33.91
713.945	33.76
714.128	33.99
714.311	33.73
714.494	34.41
714.677	35.18
714.86	36.18
715.043	37.19
715.227	37.92
715.41	38.23
715.593	38.42
715.776	38.89
715.959	39.41
716.142	39.29
716.325	39.65
716.508	39.53
716.691	39.01
716.874	38.37
717.057	37.27
717.239	37.12
717.422	36.67
717.605	36.12
717.788	35.48
717.971	34.75
718.154	34.24
718.337	34.51
718.519	33.99
718.702	34.28
718.885	34.99
719.068	36.03
719.25	35.82
719.433	36.68
719.616	36.82
719.798	37.19
719.981	37.07
720.164	37.64
720.346	37.33
720.529	38.11
720.712	38.73
720.894	38.44
721.077	37.99
721.259	38.74
721.442	38.52
721.624	38.75
721.807	39.42
721.989	40.49
722.172	41.03
722.354	40.7
722.537	39.91
722.719	39.56
722.901	39.6
723.084	39.07
723.266	37.65
723.448	36.9
723.631	36.42
723.813	36
723.995	35.89
724.178	35.65
724.36	35.65
724.542	36.42
724.724	36.61
724.907	35.98
725.089	36.7
725.271	37.92
725.453	38.06
725.635	38.87
725.817	37.77
725.999	36.81
726.181	36.74
726.364	36.97
726.546	36.31
726.728	36.02
726.91	36.12
727.092	35.95
727.274	35.66
727.456	35.09
727.638	35.18
727.819	35.75
728.001	36.24
728.183	35.69
728.365	35.31
728.547	35.21
728.729	34.43
728.911	34.15
729.093	33.41
729.274	33.15
729.456	33.45
729.638	33.44
729.82	34.19
730.001	33.81
730.183	34.72
730.365	35.2
730.546	35.11
730.728	36.41
730.91	36.42
731.091	36.77
731.273	36.56
731.455	37.24
731.636	36.73
731.818	36
731.999	36.27
732.181	35.27
732.362	34.62
732.544	35.82
732.725	34.61
732.907	35.12
733.088	35.49
733.27	36.37
733.451	36.46
733.633	36.16
733.814	36.44
733.995	36.41
734.177	36.97
734.358	37.49
734.539	36.49
734.721	37.34
734.902	36.47
735.083	35.84
735.264	35.6
735.446	34.92
735.627	35.45
735.808	35.51
735.989	35.34
736.17	36.06
736.351	36.35
736.533	37.15
736.714	37.36
736.895	38.1
737.076	39.03
737.257	38.95
737.438	38.81
737.619	39.39
737.8	39.06
737.981	40.26
738.162	39.54
738.343	39.38
738.524	39.69
738.705	39.18
738.886	39.06
739.067	38.35
739.247	37.78
739.428	38.22
739.609	37.92
739.79	36.39
739.971	34.69
740.151	35.55
740.332	34.99
740.513	33.66
740.694	32.93
740.874	32.23
741.055	32.54
741.236	33.06
741.417	32.76
741.597	31.67
741.778	33.64
741.958	33.86
742.139	33.94
742.32	34.82
742.5	35.19
742.681	36.08
742.861	38.02
743.042	36.82
743.222	35.68
743.403	35.67
743.583	35.98
743.764	35.89
743.944	35.97
744.124	35.34
744.305	35.51
744.485	35.45
744.666	35
744.846	33.35
745.026	34.5
745.207	35.27
745.387	34.49
745.567	34.75
745.747	35.25
745.928	36.08
746.108	36.13
746.288	36.58
746.468	37.54
746.648	38.13
746.829	38.15
747.009	37.98
747.189	37.72
747.369	39.49
747.549	39.68
747.729	38.82
747.909	39.43
748.089	39.15
748.269	38.49
748.449	37.2
748.629	35.83
748.809	36.57
748.989	36.14
749.169	35.63
749.349	34.16
749.529	32.86
749.709	32.87
749.889	32.27
750.068	31.91
750.248	32.54
750.428	33.72
750.608	35.69
750.788	35.3
750.967	35.72
751.147	36.31
751.327	36.76
751.507	38.7
751.686	39.1
751.866	37.94
752.046	37.9
752.225	37.67
752.405	37.02
752.585	35.88
752.764	36.6
752.944	35.9
753.123	35.28
753.303	34.88
753.482	35.04
753.662	34.64
753.841	35.17
754.021	35.98
754.2	35.2
754.38	35.91
754.559	36.24
754.739	35.11
754.918	34.67
755.097	35.51
755.277	35.63
755.456	33.86
755.635	33.64
755.815	34.58
755.994	33.48
756.173	33.76
756.352	31.81
756.532	31.24
756.711	31.57
756.89	32.86
757.069	32.24
757.248	32.65
757.427	34.44
757.607	35.46
757.786	35.59
757.965	35.04
758.144	34.97
758.323	35.28
758.502	35.65
758.681	36.19
758.86	35.93
759.039	35.92
759.218	36.82
759.397	35.35
759.576	34.83
759.755	34.75
759.934	36.79
760.113	36.71
760.291	36.83
760.47	36.78
760.649	37.87
760.828	38.39
761.007	37.61
761.186	36.92
761.364	36.73
761.543	37.43
761.722	36.67
761.901	35.33
762.079	35.27
762.258	36.12
762.437	36.94
762.615	35.79
762.794	35.85
762.972	36.93
763.151	36.16
763.33	36.7
763.508	35.9
763.687	35.78
763.865	35.88
764.044	36.1
764.222	35.76
764.401	34.64
764.579	34.79
764.758	34.18
764.936	34.41
765.114	34.96
765.293	34.95
765.471	35.31
765.65	35.8
765.828	36.61
766.006	37
766.184	36.05
766.363	36.49
766.541	37
766.719	38.17
766.898	37.81
767.076	39.14
767.254	39.39
767.432	39.16
767.61	39.84
767.788	38.95
767.967	37.23
768.145	37.97
768.323	37.28
768.501	37.33
768.679	37.93
768.857	38.56
769.035	37.98
769.213	37.97
769.391	38.57
769.569	37.31
769.747	36.12
769.925	37.13
770.103	38.27
770.281	39.66
770.459	38.33
770.636	34.04
770.814	33.24
770.992	31.12
771.17	29.6
771.348	28.85
771.525	29.47
771.703	31.26
771.881	31.18
772.059	28.69
772.236	29.48
772.414	29.63
772.592	32.6
772.769	33.38
772.947	34.77
773.125	35.88
773.302	35.98
773.48	34.19
773.657	35.02
773.835	36.68
774.013	38.24
774.19	38.36
774.368	38.67
774.545	38.93
774.723	40.18
774.9	38.97
775.077	38.21
775.255	40.6
775.432	41.39
775.61	39.75
775.787	37.25
775.964	37.51
776.142	35.67
776.319	36.17
776.496	36.3
776.674	34.61
776.851	37
777.028	39.02
777.205	37.9
777.382	38.34
777.56	39.81
777.737	40.99
777.914	40.14
778.091	42.88
778.268	42.4
778.445	42.79
778.622	43.94
778.8	40.51
778.977	40.55
779.154	39.28
779.331	37.89
779.508	35.24
779.685	35.46
779.862	36.7
780.038	34.03
780.215	33.91
780.392	31.57
780.569	29.98
780.746	30.38
780.923	29.64
781.1	28.53
781.277	30.64
781.453	29.89
781.63	28.57
781.807	28.57
781.984	28.16
782.16	26.91
782.337	29.12
782.514	29.55
782.691	31.71
782.867	30.93
783.044	32.21
783.221	31.13
783.397	33.74
783.574	36.28
783.75	36.06
783.927	38.66
784.103	39.41
784.28	37.18
784.456	37.15
784.633	37.42
784.809	36.79
784.986	38.43
785.162	37.93
785.339	36.28
785.515	34.28
785.692	34.96
785.868	35.12
786.044	36.77
786.221	37.98
786.397	36.6
786.573	35.44
786.749	37.62
786.926	35.15
787.102	34.69
787.278	37.63
787.454	38.34
787.631	37.47
787.807	37.13
787.983	37.56
788.159	37.33
788.335	37.91
788.511	38.71
788.687	37.59
788.863	38.94
789.039	40.27
789.216	37.46
789.392	37.12
789.568	39.11
789.744	38.54
789.919	36.52
790.095	36.37
790.271	38.08
790.447	38.18
790.623	39.94
790.799	39.76
790.975	40.46
791.151	43.11
791.327	43.97
791.502	42.7
791.678	41.23
791.854	41.73
792.03	42.34
792.205	39.92
792.381	40.18
792.557	38.13
792.733	40.02
792.908	39.7
793.084	37.09
793.259	34.83
793.435	34.08
793.611	35.84
793.786	35.06
793.962	33.95
794.137	35.47
794.313	35.15
794.488	34.45
794.664	30.66
794.839	29.93
795.015	31.97
795.19	31.37
795.366	32.29
795.541	31.08
795.716	33.87
795.892	31.93
796.067	32.85
796.242	34.4
796.418	31.4
796.593	32.2
796.768	32.86
796.944	33.94
797.119	37.22
797.294	37.16
797.469	36.3
797.644	31.1
797.82	31.82
797.995	32.65
798.17	32.25
798.345	34.76
798.52	33.12
798.695	31.35
798.87	27.77
799.045	25.26
799.22	26.75
799.395	27.99
799.57	29.28
799.745	33.76
799.92	32.62
800.095	31.94
800.27	32.13
800.445	37.42
800.62	38.09
800.795	39.64
800.97	40.63
801.145	39.68
801.319	40.82
801.494	43
801.669	41.22
801.844	41.84
802.018	40.9
802.193	41.25
802.368	38.56
802.543	39.53
802.717	40.28
802.892	41.72
803.067	40.95
803.241	41.27
803.416	44.76
803.59	44
803.765	40.64
803.94	40.81
804.114	40.8
804.289	42.05
804.463	40.99
804.638	39.82
804.812	37.49
804.986	35.15
805.161	33.26
805.335	33.77
805.51	33.13
805.684	35.67
805.858	36.7
806.033	38.75
806.207	37.4
806.381	37.64
806.556	37.54
806.73	37.6
806.904	39.82
807.078	37.93
807.253	33.9
807.427	36.1
807.601	34.04
807.775	32.81
807.949	29.38
808.123	30.81
808.298	29.39
808.472	32.42
808.646	33.96
808.82	33.99
808.994	37.18
809.168	38.25
809.342	37.42
809.516	39.52
809.69	41
809.864	46.35
810.038	45.49
810.212	50.56
810.385	48.96
810.559	45.31
810.733	45.79
810.907	42.02
811.081	41.42
811.255	38.01
811.428	34.34
811.602	31.68
811.776	29.04
811.95	29.06
812.123	28.49
812.297	28.85
812.471	31.48
812.644	30.46
812.818	36.7
812.992	39.17
813.165	43.08
813.339	48.16
813.512	49.01
813.686	48.54
813.86	47.21
814.033	46
814.207	42.98
814.38	41.38
814.554	41.47
814.727	40.39
814.9	39.96
815.074	41.22
815.247	40.59
815.421	42.94
815.594	44.61
815.767	45.58
815.941	45.02
816.114	47.01
816.287	50.38
816.46	52.03
816.634	52
816.807	49.81
816.98	48.58
817.153	47.26
817.327	43.63
817.5	38.51
817.673	38.18
817.846	34.27
818.019	33.33
818.192	31.24
818.365	28.92
818.538	30.51
818.711	32.45
818.884	30.19
819.057	30.63
819.23	33
819.403	38.36
819.576	39.3
819.749	41.43
819.922	42.49
820.095	41.78
820.268	44.05
820.441	41.06
820.614	41.19
820.786	41.42
820.959	41.43
821.132	40.19
821.305	39.83
821.477	38.74
821.65	37.56
821.823	36.88
821.996	37.13
822.168	36.38
822.341	36.16
822.514	35.67
822.686	35.59
822.859	35.74
823.031	36.18
823.204	34.99
823.376	35.11
823.549	35.72
823.722	35.95
823.894	35.05
824.067	34.51
824.239	33.99
824.411	33.63
824.584	32.68
824.756	31.8
824.929	30.11
825.101	30.03
825.273	30.25
825.446	29.28
825.618	28.71
825.79	30.06
825.963	30.48
826.135	31.44
826.307	30.41
826.479	32.36
826.652	32.46
826.824	33.27
826.996	34.66
827.168	33.96
827.34	33.79
827.512	33.38
827.684	31.81
827.856	31.98
828.029	31.52
828.201	34.09
828.373	33.99
828.545	34.14
828.717	33.79
828.889	31.85
829.061	31.96
829.232	31.8
829.404	31.61
829.576	33.7
829.748	35.01
829.92	33.67
830.092	32.38
830.264	31.31
830.436	29.39
830.607	30.54
830.779	31.07
830.951	29.53
831.123	33.97
831.294	34.75
831.466	32.71
831.638	31.63
831.809	33.49
831.981	35.41
832.153	37.16
832.324	40.32
832.496	41.65
832.667	40.67
832.839	43.46
833.011	40.01
833.182	40.77
833.354	40.69
833.525	40.6
833.697	41.98
833.868	38.05
834.039	35.36
834.211	34.11
834.382	32.32
834.554	34.57
834.725	33.38
834.896	33.61
835.068	32.92
835.239	35.74
835.41	33.95
835.581	34.42
835.753	34.76
835.924	34.77
836.095	35.91
836.266	37.02
836.438	36.37
836.609	35.71
836.78	35.67
836.951	35.05
837.122	32.91
837.293	34.97
837.464	32.29
837.635	32.4
837.806	34.61
837.977	32.93
838.148	36.03
838.319	36.44
838.49	41.54
838.661	36.97
838.832	36.62
839.003	36.52
839.174	37.39
839.345	41.12
839.516	44.68
839.687	42.58
839.857	44.79
840.028	43.33
840.199	42.87
840.37	38.61
840.54	42.72
840.711	44.51
840.882	51.29
841.053	49.28
841.223	45.63
841.394	39.17
841.564	43.45
841.735	40.95
841.906	34.7
842.076	32.73
842.247	31.45
842.417	35.47
842.588	36.73
842.758	32
842.929	32.53
843.099	32.6
843.27	42.38
843.44	39.87
843.611	39.11
843.781	40.65
843.951	43.22
844.122	40.73
844.292	33.53
844.462	32.91
844.633	31.33
844.803	31.44
844.973	35.65
845.144	37.61
845.314	36.82
845.484	44.69
845.654	51.89
845.824	51.97
845.995	55.71
846.165	55.16
846.335	48.53
846.505	45.71
846.675	42.17
846.845	39.62
847.015	32.97
847.185	33.16
847.355	34.51
847.525	34.22
847.695	32.49
847.865	36.79
848.035	41.09
848.205	52.27
848.375	55.55
848.545	56.97
848.715	59.1
848.884	62.81
849.054	68.91
849.224	66.96
849.394	57.05
849.564	58.47
849.733	58.77
849.903	66.3
850.073	60.25
850.243	62.03
850.412	62.15
850.582	61.92
850.752	54.7
850.921	45.09
851.091	48.97
851.26	69.99
851.43	66.37
851.599	69.56
851.769	57.42
851.939	53.79
852.108	58.77
852.278	51.14
852.447	51.27
852.616	58.6
852.786	62.44
852.955	63.01
853.125	43.1
853.294	61.11
853.463	59.09
853.633	59.7
853.802	69.31
853.971	58.02
854.141	64.77
854.31	58.09
854.479	50.38
854.648	47.08
854.818	42.47
854.987	41.96
855.156	40.6
855.325	44.05
855.494	44
855.663	39.33
855.832	43.44
856.001	37.88
856.171	48.74
856.34	51.58
856.509	65.16
856.678	71.43
856.847	67.94
857.016	65.84
857.185	61.45
857.353	62.5
857.522	54.19
857.691	52.67
857.86	65.44
858.029	64.42
858.198	67.18
858.367	64.22
858.535	55.12
858.704	57.38
858.873	55.6
859.042	55.17
859.21	57.65
859.379	67.8
859.548	68.37
859.717	66.54
859.885	69.39
860.054	71.26
860.222	60.42
860.391	70.67
860.56	75.98
860.728	72.55
860.897	70.17
861.065	61.47
861.234	54.61
861.402	49.29
861.571	48.13
861.739	43.68
861.908	46.07
862.076	59.12
862.244	48.5
862.413	48.34
862.581	50.75
862.749	49.27
862.918	60.44
863.086	57.99
863.254	73.43
863.423	68.29
863.591	72.28
863.759	52.31
863.927	50.87
864.096	53.77
864.264	39.58
864.432	40.17
864.6	45.04
864.768	46.75
864.936	49.79
865.104	31.85
865.272	36.88
865.44	34.87
865.608	42.98
865.776	42.59
865.944	43.3
866.112	52.8
866.28	55.5
866.448	52.42
866.616	45.1
866.784	42.71
866.952	45.62
867.12	44.94
867.288	45.57
867.455	46.91
867.623	51.68
867.791	51.35
867.959	53.93
868.127	49.3
868.294	53.39
868.462	53.75
868.63	49.89
868.797	56.99
868.965	53.69
869.133	51.12
869.3	50.51
869.468	56.31
869.636	61.03
869.803	58.66
869.971	59.04
870.138	51.76
870.306	45.11
870.473	46.17
870.641	45.52
870.808	50.29
870.975	50.14
871.143	53.26
871.31	39.37
871.478	29.37
871.645	28.54
871.812	26.17
871.98	22.97
872.147	31.56
872.314	28.5
872.482	26.07
872.649	27.22
872.816	24.23
872.983	6.55
873.15	35.06
873.318	43.69
873.485	29.62
873.652	27.28
873.819	32.29
873.986	51.08
874.153	57.16
874.32	65.24
874.487	45.64
874.654	29.76
874.821	50.01
874.988	37.14
875.155	40.28
875.322	46.35
875.489	36.87
875.656	32.71
875.823	24.79
875.99	41.18
876.157	41.24
876.324	55.9
876.49	64.02
876.657	45.23
876.824	52.07
876.991	58.92
877.157	69.53
877.324	75.06
877.491	81.91
877.658	82.68
877.824	79.62
877.991	76.23
878.157	68.3
878.324	73.78
878.491	68.06
878.657	63.91
878.824	60.05
878.99	45.73
879.157	55.17
879.323	53.76
879.49	65.65
879.656	49.98
879.823	44.54
879.989	48.02
880.156	60.64
880.322	69.92
880.488	72.19
880.655	52.14
880.821	59.78
880.987	50.32
881.154	47.44
881.32	32.27
881.486	33.57
881.652	32.2
881.819	32.23
881.985	28.96
882.151	24.7
882.317	21.39
882.483	21.02
882.649	22.98
882.816	24.18
882.982	28.93
883.148	28.22
883.314	29.23
883.48	28.8
883.646	26.24
883.812	25.52
883.978	30.78
884.144	31
884.31	34.88
884.476	35.15
884.642	33.73
884.807	33.38
884.973	34.47
885.139	34.64
885.305	35.75
885.471	42.43
885.637	44.63
885.802	43.4
885.968	44.58
886.134	47.21
886.3	44.72
886.465	49.61
886.631	46.67
886.797	49.4
886.962	49.85
887.128	53.71
887.293	51.42
887.459	50.42
887.625	50.63
887.79	53.76
887.956	53.51
888.121	57.29
888.287	60.8
888.452	63.25
888.618	68.82
888.783	80
