Data from 2938056_Reflection_3.txt Node
Date: Sun Jul 12 14:01:57 EDT 2015
User: robert
Spectrometer: USB4E03001
Autoset integration time: false
Trigger mode: 4
Integration Time (sec): 1.000000E-1
Scans to average: 10
Electric dark correction enabled: true
Nonlinearity correction enabled: false
Boxcar width: 5
Stray light correction enabled: false
XAxis mode: Wavelengths
Stop averaging: false
Number of Pixels in Spectrum: 3648
>>>>>Begin Spectral Data<<<<<
177.566	232.38
177.785	310.43
178.005	275.55
178.225	16180
178.445	216.78
178.665	271.27
178.885	133.46
179.105	-16.6
179.324	-32.38
179.544	-25.76
179.764	-158.01
179.984	-627.14
180.204	689.72
180.423	179.41
180.643	24.8
180.863	-17.24
181.083	-88.83
181.302	69.06
181.522	56.08
181.742	101.24
181.961	124.56
182.181	121.37
182.401	785.35
182.621	90.51
182.84	25.15
183.06	-45.53
183.279	-164.59
183.499	8.09
183.719	5.97
183.938	10.11
184.158	4.96
184.377	39.79
184.597	35.58
184.816	84.22
185.036	71.74
185.256	61.94
185.475	71.9
185.695	108.82
185.914	140.05
186.134	206.38
186.353	121.12
186.572	145.21
186.792	134.44
187.011	112.9
187.231	84.1
187.45	58.25
187.67	96.73
187.889	81.78
188.108	69.85
188.328	50.83
188.547	24.25
188.766	-26.29
188.986	-174.53
189.205	-89.76
189.424	-111.22
189.644	-61.72
189.863	-54.48
190.082	-72.61
190.302	-76.86
190.521	-62.37
190.74	-33.8
190.959	-7.85
191.178	20.66
191.398	61.77
191.617	48.24
191.836	66.55
192.055	99.95
192.274	120.04
192.494	107.15
192.713	129.11
192.932	198.9
193.151	368.23
193.37	400.4
193.589	281.76
193.808	451.82
194.027	-225.05
194.246	231.05
194.465	377.41
194.685	728.57
194.904	328.03
195.123	289.3
195.342	-746.62
195.561	-152.27
195.78	-851.88
195.999	7667.53
196.218	-344.68
196.436	-319.9
196.655	1232.59
196.874	-67.83
197.093	-20.53
197.312	49.26
197.531	39.1
197.75	-143.28
197.969	460.54
198.188	1288.41
198.407	470.55
198.625	110.75
198.844	440.43
199.063	-153.45
199.282	-304.11
199.501	496.34
199.719	-138.31
199.938	-93.41
200.157	45.74
200.376	108.56
200.594	236.05
200.813	247.88
201.032	114.33
201.251	193.2
201.469	134.97
201.688	305.73
201.907	78.08
202.125	118.27
202.344	48.76
202.563	40.92
202.781	18.3
203	-28.77
203.218	-1.71
203.437	15.31
203.656	-2.67
203.874	-35.66
204.093	-17.9
204.311	21.48
204.53	29.77
204.748	45.56
204.967	66.94
205.185	218.54
205.404	85.89
205.622	66.96
205.841	72.75
206.059	165.16
206.278	127.14
206.496	84.24
206.715	92.7
206.933	101.06
207.151	125.53
207.37	119.82
207.588	117.64
207.806	111.95
208.025	135.96
208.243	196.32
208.461	164.27
208.68	171.02
208.898	336.39
209.116	181.39
209.335	370.78
209.553	183.67
209.771	194.39
209.989	-174.97
210.208	1411.73
210.426	134.04
210.644	53.21
210.862	114.76
211.081	91.36
211.299	37.89
211.517	37.6
211.735	20.59
211.953	0.76
212.171	27.27
212.39	23.15
212.608	24.82
212.826	-12.66
213.044	10.97
213.262	-46.35
213.48	-37.2
213.698	-26.71
213.916	-43.78
214.134	-105.47
214.352	-74.34
214.57	-293.57
214.788	-399.85
215.006	-681.26
215.224	-158.02
215.442	-207.66
215.66	-171.82
215.878	-270.11
216.096	-134.43
216.314	-103.17
216.532	-69.44
216.75	-138.2
216.968	-91.54
217.185	-64.72
217.403	12.13
217.621	27.08
217.839	22.25
218.057	-21.2
218.275	78.43
218.492	-293.72
218.71	-193.49
218.928	-292.86
219.146	6.08
219.363	-0.44
219.581	-22.43
219.799	-36.88
220.017	-15.07
220.234	9.49
220.452	15.41
220.67	9.93
220.887	11.41
221.105	6.65
221.323	15.52
221.54	15.78
221.758	13.82
221.976	12.2
222.193	24.2
222.411	6.68
222.629	1.95
222.846	1.14
223.064	-15.44
223.281	-29.53
223.499	10.13
223.716	5.02
223.934	22.84
224.151	20.67
224.369	39.85
224.586	23.35
224.804	27.75
225.021	36.56
225.239	29.61
225.456	26.31
225.674	39.01
225.891	24.77
226.108	18.22
226.326	14.37
226.543	13.11
226.76	-6.06
226.978	-2.72
227.195	-6.79
227.413	-8.89
227.63	3.65
227.847	11.5
228.064	2.6
228.282	2.54
228.499	5.06
228.716	1.4
228.934	3.69
229.151	5.97
229.368	7.07
229.585	8
229.802	7.63
230.02	2.64
230.237	-1.35
230.454	3.17
230.671	2.36
230.888	0.92
231.105	2.33
231.323	1.1
231.54	2.74
231.757	1.52
231.974	7.73
232.191	8.61
232.408	17.47
232.625	19.13
232.842	20.29
233.059	20.69
233.276	21.2
233.493	19.56
233.71	20.42
233.927	10.92
234.144	8.73
234.361	-0.75
234.578	-9.11
234.795	-18.8
235.012	-13.33
235.229	-32.39
235.446	-28.79
235.663	-31.03
235.879	-28.44
236.096	-39.09
236.313	-26.98
236.53	-19.1
236.747	-14.79
236.964	-7.62
237.181	-4.96
237.397	-8.35
237.614	0.89
237.831	1.63
238.048	5.94
238.264	6.46
238.481	12.41
238.698	12.1
238.915	6.2
239.131	3.57
239.348	6.64
239.565	6.61
239.781	10.42
239.998	6.33
240.215	5.23
240.431	6.03
240.648	3.14
240.865	1.91
241.081	6.49
241.298	6.16
241.514	7.62
241.731	6.43
241.947	6.03
242.164	3.48
242.38	5.64
242.597	5.42
242.814	6.32
243.03	7.37
243.246	7.53
243.463	4.21
243.679	5.81
243.896	5.64
244.112	4.55
244.329	5.61
244.545	6.12
244.762	4.75
244.978	6.14
245.194	4.85
245.411	6
245.627	6.58
245.843	8.51
246.06	9.1
246.276	8.86
246.492	8.98
246.709	7.81
246.925	6.71
247.141	6.67
247.357	6.21
247.574	6.76
247.79	5.42
248.006	5.13
248.222	5.76
248.439	4.75
248.655	4.68
248.871	5.21
249.087	4.41
249.303	6.03
249.519	6.42
249.736	7.24
249.952	5.65
250.168	6.83
250.384	5.99
250.6	5.55
250.816	5.33
251.032	3.86
251.248	4.76
251.464	5.62
251.68	4.59
251.896	2.6
252.112	0.38
252.328	1.53
252.544	2.12
252.76	3.79
252.976	1.85
253.192	2.68
253.408	2.93
253.624	0.75
253.84	2.51
254.056	2.34
254.272	3.07
254.487	5.03
254.703	6.36
254.919	5.75
255.135	2.78
255.351	5.76
255.567	6.38
255.782	7.98
255.998	9.13
256.214	6.51
256.43	5.04
256.646	5.95
256.861	6.11
257.077	5.49
257.293	8.03
257.508	6.78
257.724	5.3
257.94	5.84
258.155	3.89
258.371	1.72
258.587	4.01
258.802	5.19
259.018	4.43
259.234	4.52
259.449	4.64
259.665	3.72
259.88	3.98
260.096	4.27
260.312	3.48
260.527	3.91
260.743	4.66
260.958	4.97
261.174	4.87
261.389	5.11
261.605	4.81
261.82	4.18
262.036	4.13
262.251	5.11
262.466	5.03
262.682	5.57
262.897	4.61
263.113	4.03
263.328	4.41
263.543	5.26
263.759	3.46
263.974	2.51
264.189	2.87
264.405	2.53
264.62	1.68
264.835	-0.09
265.051	-1.09
265.266	1.05
265.481	0.67
265.696	-2.02
265.912	-3.91
266.127	-2.97
266.342	-2.31
266.557	-2.3
266.773	-2.22
266.988	-1.47
267.203	-1.56
267.418	-0.46
267.633	-0.72
267.848	1.16
268.064	1.88
268.279	4.12
268.494	5.61
268.709	7.12
268.924	7.77
269.139	8.77
269.354	7.67
269.569	9.16
269.784	9.65
269.999	10.64
270.214	9.54
270.429	9.49
270.644	9.33
270.859	8.43
271.074	6.95
271.289	6.68
271.504	5.08
271.719	5.14
271.934	5.37
272.149	4.58
272.363	3.13
272.578	2.64
272.793	1.97
273.008	1.21
273.223	2.3
273.438	2.9
273.653	4.39
273.867	5.11
274.082	6.19
274.297	6.16
274.512	6.28
274.726	6.5
274.941	8.46
275.156	9.51
275.371	9.06
275.585	8.59
275.8	8.16
276.015	7.55
276.229	7.95
276.444	7.66
276.659	7.43
276.873	8.2
277.088	8.34
277.302	7.25
277.517	5.13
277.732	5.54
277.946	5.73
278.161	6.57
278.375	4.44
278.59	2.9
278.804	1.83
279.019	1.46
279.233	1.33
279.448	1.89
279.662	1.44
279.877	2.74
280.091	3.04
280.306	4
280.52	2.93
280.735	3.24
280.949	5.16
281.163	5.49
281.378	4.97
281.592	4.09
281.806	4.63
282.021	4.41
282.235	5.51
282.449	6.04
282.664	5.74
282.878	5.86
283.092	6.59
283.307	6.53
283.521	7.27
283.735	7.68
283.949	6.25
284.164	5.93
284.378	6.4
284.592	5.87
284.806	4.92
285.02	4.96
285.234	6.05
285.449	6.02
285.663	5.21
285.877	5.72
286.091	7.11
286.305	7.68
286.519	7.98
286.733	7.87
286.947	7.69
287.161	7.87
287.375	8.07
287.589	7.44
287.803	7.14
288.017	7.75
288.231	6.97
288.445	4.6
288.659	5.67
288.873	6.31
289.087	6.1
289.301	6.76
289.515	6.47
289.729	4.7
289.943	4.82
290.157	5.71
290.371	6.5
290.584	6.7
290.798	7.47
291.012	7.95
291.226	5.64
291.44	6.18
291.654	5.38
291.867	5.35
292.081	5.83
292.295	5.47
292.509	3.39
292.722	3.37
292.936	3.04
293.15	2.43
293.364	1.59
293.577	3.74
293.791	4.08
294.005	4.27
294.218	5.16
294.432	5.14
294.645	5.31
294.859	6.38
295.073	5.23
295.286	4.56
295.5	5.58
295.713	5.16
295.927	5.17
296.14	5.15
296.354	6.06
296.568	5.17
296.781	5.84
296.994	6.21
297.208	6.43
297.421	6.54
297.635	7.1
297.848	7.42
298.062	7.56
298.275	7.05
298.489	6.6
298.702	6.42
298.915	7.62
299.129	7.69
299.342	7.3
299.555	7.35
299.769	7.97
299.982	8.93
300.195	8.64
300.409	8.08
300.622	10.03
300.835	10.75
301.048	10.72
301.262	9.13
301.475	10.07
301.688	11.15
301.901	11
302.115	11.32
302.328	11.11
302.541	10.93
302.754	11.37
302.967	10.64
303.18	10.21
303.393	10.09
303.607	11.47
303.82	10.66
304.033	10.22
304.246	9.91
304.459	9.89
304.672	10.31
304.885	10.24
305.098	11.74
305.311	10.56
305.524	9.98
305.737	9.23
305.95	9.02
306.163	9.73
306.376	8.97
306.589	11.22
306.802	10.66
307.015	9.21
307.228	9.41
307.44	8.39
307.653	8.15
307.866	9.5
308.079	9.4
308.292	9.56
308.505	9.34
308.718	11.09
308.93	9.78
309.143	10.49
309.356	10.24
309.569	8.27
309.781	8.85
309.994	10.51
310.207	10.36
310.42	10.55
310.632	10.16
310.845	10.59
311.058	9.93
311.27	9.63
311.483	8.71
311.696	9.83
311.908	10.95
312.121	10.45
312.333	10.03
312.546	10.37
312.759	11.41
312.971	11.35
313.184	10.59
313.396	10.16
313.609	10.97
313.821	12.31
314.034	11.2
314.246	10.93
314.459	12.13
314.671	11.1
314.884	9.66
315.096	9.65
315.309	9.4
315.521	9.45
315.733	9.27
315.946	8.93
316.158	8.83
316.371	9.15
316.583	9.64
316.795	9.48
317.008	10.64
317.22	10.11
317.432	9.56
317.644	10.57
317.857	11.09
318.069	12.23
318.281	11.38
318.494	11.64
318.706	11.63
318.918	12.85
319.13	12.42
319.342	11.31
319.555	12.29
319.767	11.51
319.979	11.1
320.191	10
320.403	9.03
320.615	9.97
320.827	9.37
321.039	10.64
321.252	9.68
321.464	10.47
321.676	11.94
321.888	12.82
322.1	13.77
322.312	14.42
322.524	14.87
322.736	14.49
322.948	14.28
323.16	14.82
323.372	13.95
323.584	14.39
323.796	14.89
324.007	15.05
324.219	15.67
324.431	15.79
324.643	14.93
324.855	15.28
325.067	16.94
325.279	17.54
325.491	16.71
325.702	16.92
325.914	16.85
326.126	15.93
326.338	15.49
326.55	14.62
326.761	13.63
326.973	13.35
327.185	13.15
327.396	13.02
327.608	13.14
327.82	13.99
328.032	14.57
328.243	14.18
328.455	15.18
328.666	15.94
328.878	16.55
329.09	17.64
329.301	19.25
329.513	19.46
329.725	19.19
329.936	18.98
330.148	20.09
330.359	18.99
330.571	19.83
330.782	18.89
330.994	19
331.205	19.15
331.417	19.33
331.628	19.8
331.84	20.26
332.051	20.98
332.262	21.48
332.474	20.16
332.685	22
332.897	22.18
333.108	23.02
333.319	22.88
333.531	22.81
333.742	22.97
333.953	23.16
334.165	22.38
334.376	20.9
334.587	20.62
334.799	20.4
335.01	19.49
335.221	19.41
335.432	18.2
335.644	17.9
335.855	18.31
336.066	18.77
336.277	18.14
336.488	18.3
336.7	19.15
336.911	19.37
337.122	20.48
337.333	20.63
337.544	20.84
337.755	21.58
337.966	21.31
338.177	21.57
338.388	22.01
338.599	20.91
338.811	21.24
339.022	22.27
339.233	22.69
339.444	21.57
339.655	21.09
339.866	22.08
340.076	22.41
340.287	22.94
340.498	22.42
340.709	21.71
340.92	23.31
341.131	22.91
341.342	22.76
341.553	22.89
341.764	23.72
341.975	25.6
342.185	25.22
342.396	24.7
342.607	24.85
342.818	24.39
343.029	24.25
343.239	23.3
343.45	24.36
343.661	24.28
343.872	23.56
344.082	23.97
344.293	23.42
344.504	22.79
344.714	22.12
344.925	22.45
345.136	24.15
345.346	24.86
345.557	26.61
345.768	26.39
345.978	25.89
346.189	26.08
346.399	25.5
346.61	25.02
346.821	26.28
347.031	27
347.242	26.79
347.452	26.28
347.663	26.22
347.873	25.24
348.084	26.12
348.294	25.9
348.504	26.28
348.715	25.91
348.925	25.74
349.136	25.02
349.346	24.95
349.557	25.05
349.767	24.31
349.977	23.87
350.188	23.78
350.398	23.81
350.608	23.35
350.819	23.28
351.029	23.98
351.239	24.26
351.449	24.4
351.66	25.04
351.87	23.83
352.08	23.55
352.29	23.27
352.501	23.81
352.711	23.95
352.921	25.52
353.131	25.18
353.341	24.81
353.552	24.94
353.762	24.95
353.972	25.24
354.182	26.67
354.392	26.91
354.602	27.42
354.812	26.42
355.022	25.54
355.232	25.39
355.442	25.76
355.652	26.09
355.862	25.63
356.072	25.76
356.282	25.93
356.492	25.44
356.702	25.52
356.912	25.48
357.122	26.22
357.332	26.1
357.542	26.36
357.752	25.97
357.962	25.68
358.171	25.75
358.381	24.49
358.591	24.05
358.801	24.36
359.011	24.43
359.221	24.96
359.43	24.38
359.64	24.9
359.85	24.29
360.06	24.08
360.269	23.99
360.479	24.44
360.689	25.82
360.899	25.83
361.108	25.68
361.318	25.43
361.528	24.99
361.737	25.17
361.947	25.03
362.156	25.41
362.366	26.1
362.576	25.89
362.785	25.52
362.995	25.27
363.204	24.9
363.414	25.1
363.623	25.61
363.833	25.39
364.042	25.73
364.252	25.88
364.461	25.59
364.671	25.56
364.88	26.36
365.09	26.06
365.299	25.89
365.509	26.13
365.718	26.26
365.927	25.88
366.137	26.02
366.346	25.49
366.555	25.17
366.765	25.14
366.974	24.82
367.183	25.21
367.393	26.19
367.602	25.99
367.811	25.76
368.021	25.6
368.23	26.54
368.439	26.91
368.648	27.18
368.857	27.34
369.067	27.68
369.276	27.68
369.485	26.67
369.694	26.24
369.903	27.09
370.112	27.08
370.321	27.03
370.531	25.81
370.74	25.48
370.949	25.16
371.158	24.6
371.367	23.89
371.576	24.26
371.785	24.04
371.994	23.6
372.203	22.96
372.412	23.15
372.621	23.24
372.83	23.62
373.039	23.33
373.248	23.4
373.457	23.9
373.666	24.27
373.874	23.44
374.083	23.89
374.292	24.22
374.501	23.87
374.71	23.89
374.919	23.61
375.128	23.55
375.336	23.77
375.545	24.14
375.754	24.12
375.963	23.96
376.171	23.92
376.38	24.05
376.589	24.1
376.798	23.72
377.006	23.88
377.215	23.46
377.424	23.25
377.632	23.56
377.841	23.3
378.05	23.09
378.258	22.85
378.467	23.31
378.675	22.88
378.884	23.09
379.093	23.8
379.301	23.59
379.51	24.25
379.718	24.68
379.927	24.57
380.135	24.99
380.344	25.23
380.552	25.07
380.761	24.66
380.969	24.68
381.177	24.39
381.386	24.26
381.594	24.2
381.803	24.06
382.011	24.34
382.219	24.49
382.428	24.12
382.636	24.3
382.845	24.56
383.053	24.81
383.261	24.79
383.469	24.96
383.678	25.19
383.886	25.49
384.094	25.07
384.302	24.48
384.511	23.83
384.719	23.86
384.927	23.27
385.135	23.28
385.343	23.33
385.552	23.29
385.76	23.23
385.968	22.89
386.176	22.63
386.384	22.67
386.592	22.75
386.8	22.8
387.008	23.24
387.216	23.7
387.424	24.01
387.633	24.2
387.841	24.66
388.049	24.98
388.257	25.43
388.465	25.42
388.672	25.9
388.88	26.1
389.088	26.1
389.296	25.62
389.504	25.52
389.712	25.35
389.92	25
390.128	24.77
390.336	24.47
390.544	24.47
390.751	24.89
390.959	24.91
391.167	24.85
391.375	25.11
391.583	25.13
391.79	25.3
391.998	25.51
392.206	25.78
392.414	26.04
392.621	25.99
392.829	25.75
393.037	25.77
393.244	25.61
393.452	25.84
393.66	26.05
393.867	26.02
394.075	26.1
394.283	25.88
394.49	25.98
394.698	26.03
394.905	25.9
395.113	25.95
395.32	25.79
395.528	26.01
395.735	25.98
395.943	26.07
396.15	26.49
396.358	26.32
396.565	26.43
396.773	26.39
396.98	25.99
397.188	26.47
397.395	26.77
397.602	27.06
397.81	27.12
398.017	26.94
398.225	27.2
398.432	27.43
398.639	27.61
398.847	27.82
399.054	27.7
399.261	27.99
399.468	28.13
399.676	28.08
399.883	28.09
400.09	28.38
400.297	28.53
400.505	28.43
400.712	28.09
400.919	28.03
401.126	28.16
401.333	28.51
401.54	28.63
401.748	28.7
401.955	28.97
402.162	29
402.369	28.54
402.576	28.57
402.783	28.38
402.99	28.46
403.197	28.73
403.404	28.7
403.611	28.57
403.818	28.79
404.025	28.74
404.232	28.81
404.439	28.73
404.646	28.89
404.853	28.97
405.06	29.24
405.267	29.42
405.474	29.11
405.681	28.93
405.887	28.84
406.094	28.67
406.301	28.63
406.508	28.55
406.715	28.56
406.922	28.44
407.128	28.26
407.335	27.98
407.542	27.4
407.749	27.43
407.955	27.39
408.162	27.39
408.369	27.38
408.575	27.27
408.782	27.24
408.989	27.3
409.195	27.48
409.402	27.66
409.609	27.77
409.815	28.12
410.022	28.09
410.228	28.14
410.435	28.45
410.642	28.47
410.848	28.57
411.055	28.59
411.261	28.58
411.468	28.61
411.674	28.39
411.881	28.24
412.087	28.29
412.294	28.56
412.5	28.51
412.706	28.6
412.913	28.45
413.119	28.03
413.326	27.75
413.532	27.64
413.738	27.73
413.945	27.83
414.151	27.97
414.357	28.01
414.564	27.96
414.77	27.99
414.976	27.64
415.182	27.77
415.389	27.87
415.595	27.87
415.801	28.14
416.007	27.78
416.214	27.78
416.42	27.64
416.626	27.67
416.832	27.68
417.038	27.86
417.244	27.78
417.45	27.93
417.657	28.14
417.863	28
418.069	27.81
418.275	27.82
418.481	27.75
418.687	27.89
418.893	27.63
419.099	27.44
419.305	27.44
419.511	27.44
419.717	27.22
419.923	27.06
420.129	27.19
420.335	27.04
420.541	27.03
420.746	27.14
420.952	27.16
421.158	27.16
421.364	27.43
421.57	27.2
421.776	27.16
421.982	27.27
422.187	27.24
422.393	27.21
422.599	27.28
422.805	27.33
423.01	27.16
423.216	26.88
423.422	26.94
423.628	26.82
423.833	26.93
424.039	26.98
424.245	26.98
424.45	27.07
424.656	27.05
424.862	27.01
425.067	26.98
425.273	27.02
425.478	27.14
425.684	27.17
425.889	27.04
426.095	27.05
426.301	26.94
426.506	26.88
426.712	26.86
426.917	26.74
427.123	26.82
427.328	26.78
427.533	26.82
427.739	27.03
427.944	26.86
428.15	26.9
428.355	26.85
428.561	26.95
428.766	26.75
428.971	26.58
429.177	26.72
429.382	26.84
429.587	26.76
429.793	26.64
429.998	26.33
430.203	26.53
430.408	26.34
430.614	26.41
430.819	26.35
431.024	26.4
431.229	26.49
431.434	26.38
431.64	26.21
431.845	26.29
432.05	26.54
432.255	26.7
432.46	26.6
432.665	26.62
432.87	26.51
433.076	26.45
433.281	26.4
433.486	26.44
433.691	26.6
433.896	26.57
434.101	26.65
434.306	26.58
434.511	26.59
434.716	26.56
434.921	26.67
435.126	26.8
435.331	26.9
435.535	27.05
435.74	27.02
435.945	26.79
436.15	26.87
436.355	27.05
436.56	27.09
436.765	27.16
436.97	27.08
437.174	27.25
437.379	27.27
437.584	27.29
437.789	27.4
437.993	27.34
438.198	27.41
438.403	27.23
438.608	27.02
438.812	26.87
439.017	26.78
439.222	26.81
439.426	26.6
439.631	26.48
439.836	26.4
440.04	26.23
440.245	26.32
440.45	26.33
440.654	26.46
440.859	26.45
441.063	26.4
441.268	26.41
441.472	26.61
441.677	26.86
441.881	26.92
442.086	26.98
442.29	27
442.495	27
442.699	26.95
442.904	26.95
443.108	26.77
443.312	26.81
443.517	26.69
443.721	26.52
443.925	26.26
444.13	26.33
444.334	26.38
444.538	26.25
444.743	26.15
444.947	26.11
445.151	26.16
445.356	26.29
445.56	26.23
445.764	26.19
445.968	26.14
446.173	26.28
446.377	26
446.581	25.93
446.785	25.99
446.989	26.07
447.193	26.15
447.398	26.16
447.602	26.17
447.806	26.3
448.01	26.4
448.214	26.48
448.418	26.41
448.622	26.71
448.826	26.61
449.03	26.61
449.234	26.5
449.438	26.46
449.642	26.21
449.846	26.2
450.05	25.8
450.254	25.72
450.458	25.69
450.662	25.46
450.866	25.28
451.069	25.46
451.273	25.54
451.477	25.7
451.681	25.92
451.885	26.1
452.089	26.07
452.292	26.31
452.496	26.27
452.7	26.11
452.904	26.18
453.107	26.26
453.311	26.28
453.515	26.31
453.719	26.44
453.922	26.24
454.126	26.15
454.33	26.09
454.533	26.07
454.737	26.14
454.94	26.27
455.144	26.25
455.348	26.22
455.551	26.24
455.755	26.26
455.958	25.77
456.162	25.94
456.365	26.17
456.569	26.24
456.772	26.25
456.976	26.22
457.179	26.26
457.383	26.5
457.586	26.44
457.79	26.31
457.993	26.39
458.196	26.69
458.4	26.58
458.603	26.41
458.807	26.5
459.01	26.48
459.213	26.49
459.417	26.56
459.62	26.41
459.823	26.33
460.026	26.27
460.23	26.16
460.433	25.99
460.636	26.05
460.839	26.05
461.042	25.96
461.246	26
461.449	25.96
461.652	25.82
461.855	25.94
462.058	26.05
462.261	26.12
462.464	26.19
462.668	26.59
462.871	26.5
463.074	26.79
463.277	26.92
463.48	27.17
463.683	27.11
463.886	27.34
464.089	27.16
464.292	27.35
464.495	27.39
464.698	27.17
464.901	26.98
465.104	27.02
465.306	26.69
465.509	26.69
465.712	26.41
465.915	26.5
466.118	26.41
466.321	26.42
466.524	26.28
466.726	26.45
466.929	26.83
467.132	26.72
467.335	26.69
467.538	26.81
467.74	26.79
467.943	27.11
468.146	27.17
468.348	27.25
468.551	27.35
468.754	27.38
468.956	27.34
469.159	27.29
469.362	27.53
469.564	27.51
469.767	27.53
469.969	27.55
470.172	27.29
470.375	27.41
470.577	27.41
470.78	27.34
470.982	27.28
471.185	27.1
471.387	26.87
471.59	26.68
471.792	26.6
471.995	26.62
472.197	26.76
472.399	26.77
472.602	26.68
472.804	26.55
473.007	26.83
473.209	26.96
473.411	27.13
473.614	27.36
473.816	27.47
474.018	27.6
474.22	27.78
474.423	27.39
474.625	27.63
474.827	27.55
475.03	27.6
475.232	27.41
475.434	27.3
475.636	27.1
475.838	26.94
476.04	26.81
476.243	26.72
476.445	26.4
476.647	26.71
476.849	26.66
477.051	26.79
477.253	26.87
477.455	26.96
477.657	27.07
477.859	27.04
478.061	27.01
478.263	27.13
478.465	27.17
478.667	27.3
478.869	27.32
479.071	27.12
479.273	27.03
479.475	26.95
479.677	26.81
479.879	26.78
480.081	26.93
480.283	26.95
480.485	26.85
480.686	26.96
480.888	26.91
481.09	26.83
481.292	26.89
481.494	26.92
481.695	26.85
481.897	26.86
482.099	26.75
482.301	26.72
482.502	26.74
482.704	26.77
482.906	26.75
483.107	26.78
483.309	26.74
483.511	26.82
483.712	26.74
483.914	26.78
484.115	26.76
484.317	26.8
484.519	26.8
484.72	26.8
484.922	26.78
485.123	26.81
485.325	26.82
485.526	26.78
485.728	26.72
485.929	26.75
486.131	26.67
486.332	26.61
486.534	26.65
486.735	26.71
486.936	26.68
487.138	26.7
487.339	26.67
487.541	26.67
487.742	26.73
487.943	26.71
488.144	26.74
488.346	26.83
488.547	26.84
488.748	26.79
488.95	26.72
489.151	26.82
489.352	26.86
489.553	26.9
489.755	26.89
489.956	26.91
490.157	26.89
490.358	26.87
490.559	26.84
490.76	26.97
490.961	27.11
491.163	27.13
491.364	27.01
491.565	26.93
491.766	26.81
491.967	26.85
492.168	26.7
492.369	26.83
492.57	26.83
492.771	26.79
492.972	26.76
493.173	26.66
493.374	26.71
493.575	26.83
493.776	26.85
493.976	26.87
494.177	26.88
494.378	27.17
494.579	27.05
494.78	27.25
494.981	27.33
495.182	27.17
495.382	27.08
495.583	26.99
495.784	26.88
495.985	27.1
496.185	27.23
496.386	27.18
496.587	27.21
496.788	27.16
496.988	27.13
497.189	27.27
497.39	27.32
497.59	27.44
497.791	27.44
497.992	27.63
498.192	27.5
498.393	27.54
498.593	27.62
498.794	27.66
498.994	27.83
499.195	27.79
499.395	27.78
499.596	28.06
499.796	28.08
499.997	28.19
500.197	28.08
500.398	28.01
500.598	28.13
500.799	28.15
500.999	28.18
501.199	27.98
501.4	27.92
501.6	27.91
501.801	27.67
502.001	27.73
502.201	27.71
502.402	27.78
502.602	27.9
502.802	27.91
503.002	27.92
503.203	27.8
503.403	28
503.603	28.11
503.803	28.02
504.003	28.25
504.204	28.21
504.404	28.23
504.604	28.32
504.804	28.38
505.004	28.37
505.204	28.48
505.404	28.55
505.604	28.53
505.804	28.68
506.005	28.88
506.205	28.94
506.405	29.02
506.605	28.98
506.805	29.01
507.005	28.97
507.204	29.01
507.404	28.89
507.604	28.95
507.804	29.15
508.004	29.19
508.204	29.38
508.404	29.28
508.604	29.35
508.804	29.41
509.003	29.45
509.203	29.44
509.403	29.34
509.603	29.49
509.803	29.51
510.002	29.62
510.202	29.53
510.402	29.27
510.602	29.54
510.801	29.5
511.001	29.69
511.201	29.75
511.4	30.07
511.6	30.29
511.8	30.26
511.999	30.43
512.199	30.38
512.398	30.41
512.598	30.73
512.797	30.6
512.997	30.58
513.197	30.69
513.396	30.76
513.596	30.81
513.795	30.76
513.994	30.95
514.194	31.08
514.393	31.14
514.593	31.33
514.792	31.28
514.992	31.37
515.191	31.61
515.39	31.49
515.59	31.55
515.789	31.46
515.988	31.59
516.188	31.61
516.387	31.54
516.586	31.65
516.786	31.69
516.985	31.66
517.184	31.67
517.383	31.78
517.582	31.7
517.782	31.6
517.981	31.63
518.18	31.67
518.379	31.67
518.578	31.7
518.777	31.66
518.976	31.69
519.176	31.81
519.375	31.85
519.574	31.77
519.773	31.97
519.972	32.08
520.171	32.07
520.37	32.1
520.569	32.11
520.768	32.27
520.967	32.31
521.166	32.39
521.365	32.33
521.564	32.45
521.762	32.67
521.961	32.78
522.16	32.97
522.359	33.2
522.558	33.28
522.757	33.31
522.956	33.28
523.154	33.42
523.353	33.42
523.552	33.63
523.751	33.59
523.949	33.61
524.148	33.59
524.347	33.5
524.546	33.32
524.744	33.47
524.943	33.68
525.142	33.84
525.34	33.86
525.539	33.93
525.737	33.92
525.936	34
526.135	33.89
526.333	33.94
526.532	34.01
526.73	34.1
526.929	34.07
527.127	34.02
527.326	33.89
527.524	33.93
527.723	33.86
527.921	33.88
528.12	33.84
528.318	33.92
528.516	33.98
528.715	33.96
528.913	34.05
529.112	34
529.31	34.02
529.508	34.08
529.707	34.01
529.905	34.09
530.103	34.12
530.301	34.22
530.5	34.21
530.698	34.2
530.896	34.22
531.094	34.21
531.293	34.3
531.491	34.34
531.689	34.4
531.887	34.48
532.085	34.53
532.283	34.56
532.481	34.59
532.68	34.61
532.878	34.57
533.076	34.59
533.274	34.57
533.472	34.55
533.67	34.53
533.868	34.54
534.066	34.61
534.264	34.65
534.462	34.69
534.66	34.73
534.858	34.78
535.056	34.78
535.253	34.85
535.451	34.8
535.649	34.85
535.847	34.95
536.045	34.82
536.243	34.96
536.441	34.89
536.638	34.8
536.836	34.81
537.034	34.75
537.232	34.88
537.43	34.94
537.627	34.96
537.825	34.93
538.023	35.02
538.22	35.3
538.418	35.16
538.616	35.19
538.813	35.29
539.011	35.13
539.209	35.2
539.406	35.08
539.604	35.01
539.801	35.06
539.999	35.05
540.196	35.01
540.394	34.95
540.591	34.95
540.789	34.91
540.986	34.86
541.184	34.95
541.381	34.9
541.579	34.9
541.776	34.88
541.974	34.88
542.171	34.96
542.368	34.93
542.566	34.92
542.763	34.96
542.96	34.96
543.158	34.96
543.355	35.04
543.552	35.08
543.75	35.16
543.947	35.27
544.144	35.39
544.341	35.25
544.539	35.16
544.736	35.18
544.933	35.08
545.13	35.07
545.327	35.14
545.524	35.01
545.722	35.11
545.919	35.14
546.116	35.26
546.313	35.18
546.51	35.32
546.707	35.41
546.904	35.35
547.101	35.28
547.298	35.48
547.495	35.47
547.692	35.45
547.889	35.41
548.086	35.31
548.283	35.13
548.48	35.21
548.677	35.14
548.874	35.18
549.07	35.24
549.267	35.46
549.464	35.17
549.661	35.12
549.858	35.18
550.055	35.07
550.251	35.17
550.448	35.11
550.645	35.07
550.842	35.04
551.038	34.81
551.235	34.8
551.432	34.76
551.628	34.87
551.825	34.98
552.022	34.99
552.218	35.22
552.415	35.25
552.612	35.34
552.808	35.42
553.005	35.51
553.201	35.62
553.398	35.72
553.594	35.76
553.791	35.83
553.987	35.95
554.184	35.92
554.38	35.95
554.577	35.99
554.773	35.68
554.97	35.65
555.166	35.83
555.362	35.95
555.559	35.74
555.755	35.81
555.952	35.76
556.148	35.51
556.344	35.49
556.541	35.39
556.737	35.29
556.933	35.6
557.129	35.36
557.326	35.19
557.522	35.16
557.718	35.22
557.914	35.16
558.11	35.13
558.307	35.25
558.503	35.3
558.699	35.25
558.895	35.29
559.091	35.05
559.287	35.22
559.483	35.19
559.679	35.21
559.876	35.09
560.072	35.09
560.268	35
560.464	34.92
560.66	35.08
560.856	35.04
561.052	34.89
561.247	35.25
561.443	35.09
561.639	35.17
561.835	35.34
562.031	35.46
562.227	35.33
562.423	35.48
562.619	35.62
562.815	35.44
563.01	35.72
563.206	36.15
563.402	35.84
563.598	35.98
563.793	35.86
563.989	35.75
564.185	35.66
564.381	35.67
564.576	35.66
564.772	35.5
564.968	35.54
565.163	35.42
565.359	35.06
565.555	35.2
565.75	35.2
565.946	35.25
566.141	35.22
566.337	35.3
566.532	35.38
566.728	35.28
566.923	35.37
567.119	35.3
567.314	35.21
567.51	35.3
567.705	35.2
567.901	35.16
568.096	35.13
568.292	35.25
568.487	35.53
568.682	35.38
568.878	35.61
569.073	35.42
569.268	35.24
569.464	35.23
569.659	35.37
569.854	35.45
570.05	35.58
570.245	35.42
570.44	35.27
570.635	34.93
570.831	34.95
571.026	34.83
571.221	34.98
571.416	35.12
571.611	35.1
571.806	34.96
572.002	34.92
572.197	34.78
572.392	34.72
572.587	34.83
572.782	34.92
572.977	35
573.172	35.13
573.367	35.1
573.562	35.24
573.757	35.33
573.952	35.36
574.147	35.46
574.342	35.59
574.537	35.83
574.732	35.83
574.927	35.72
575.121	35.58
575.316	35.42
575.511	35.44
575.706	35.45
575.901	35.29
576.096	35.26
576.29	35.14
576.485	35.34
576.68	35.27
576.875	35.12
577.069	35.22
577.264	35.49
577.459	35.52
577.654	35.37
577.848	35.33
578.043	35.44
578.238	35.5
578.432	35.53
578.627	35.28
578.821	35.35
579.016	35.39
579.21	35.26
579.405	34.9
579.6	35.02
579.794	35.15
579.989	34.99
580.183	34.84
580.378	34.85
580.572	34.92
580.766	34.81
580.961	34.97
581.155	34.76
581.35	34.99
581.544	35.21
581.738	35.1
581.933	35.13
582.127	35.34
582.321	35.54
582.516	35.42
582.71	35.48
582.904	35.55
583.099	35.29
583.293	35.66
583.487	35.65
583.681	35.95
583.875	36.15
584.07	36.39
584.264	36.31
584.458	36.33
584.652	36.5
584.846	36.61
585.04	36.79
585.234	37.14
585.428	36.85
585.623	36.81
585.817	36.72
586.011	36.7
586.205	36.74
586.399	36.6
586.593	36.18
586.787	36.35
586.981	36.16
587.174	36.02
587.368	35.83
587.562	35.88
587.756	36.09
587.95	35.91
588.144	35.8
588.338	35.71
588.532	36.04
588.725	36.51
588.919	36.25
589.113	36.28
589.307	36.05
589.501	36.1
589.694	36.01
589.888	35.97
590.082	35.95
590.275	35.87
590.469	35.72
590.663	35.61
590.856	35.57
591.05	35.67
591.244	35.64
591.437	35.77
591.631	35.47
591.824	35.44
592.018	35.35
592.212	35.62
592.405	35.67
592.599	35.76
592.792	35.39
592.986	35.12
593.179	35
593.372	34.93
593.566	34.97
593.759	35.11
593.953	35.45
594.146	35.36
594.339	35.19
594.533	34.91
594.726	34.99
594.92	35.34
595.113	35.5
595.306	35.6
595.499	35.46
595.693	35.51
595.886	35.59
596.079	35.39
596.272	35.44
596.466	35.34
596.659	35.8
596.852	35.63
597.045	35.53
597.238	35.68
597.431	35.63
597.624	35.94
597.818	35.96
598.011	35.96
598.204	36.1
598.397	36.24
598.59	36.41
598.783	36.15
598.976	36.31
599.169	36.29
599.362	36.2
599.555	36.48
599.748	36.54
599.941	36.33
600.134	36.32
600.326	36.26
600.519	36.06
600.712	35.98
600.905	36
601.098	35.83
601.291	36.12
601.483	35.97
601.676	35.63
601.869	35.42
602.062	35.84
602.255	35.66
602.447	35.7
602.64	35.81
602.833	35.92
603.025	35.8
603.218	35.79
603.411	35.65
603.603	35.56
603.796	35.58
603.989	35.6
604.181	35.5
604.374	35.63
604.566	35.66
604.759	35.51
604.951	35.53
605.144	35.7
605.336	35.86
605.529	36.09
605.721	36.26
605.914	36.36
606.106	36.38
606.299	36.6
606.491	36.75
606.683	36.55
606.876	36.86
607.068	36.79
607.26	36.71
607.453	36.59
607.645	36.24
607.837	36.37
608.03	36.26
608.222	36.5
608.414	36.26
608.606	36.04
608.799	36.27
608.991	36.12
609.183	36.1
609.375	36.12
609.567	36.23
609.759	36.48
609.952	36.38
610.144	36.59
610.336	36.49
610.528	36.36
610.72	36.67
610.912	36.63
611.104	36.6
611.296	36.68
611.488	36.64
611.68	36.73
611.872	36.63
612.064	36.78
612.256	36.48
612.448	36.41
612.64	36.75
612.832	36.77
613.023	36.89
613.215	37.14
613.407	37.24
613.599	37.27
613.791	37.08
613.983	36.9
614.174	36.92
614.366	37.11
614.558	37.27
614.75	36.89
614.941	36.41
615.133	36.36
615.325	36.21
615.516	36.25
615.708	36.51
615.9	36.51
616.091	36.32
616.283	36.34
616.475	36.39
616.666	36.38
616.858	36.46
617.049	36.45
617.241	36.54
617.432	36.36
617.624	36.36
617.815	36.36
618.007	36.63
618.198	36.8
618.39	36.73
618.581	36.84
618.773	36.84
618.964	36.96
619.155	37.33
619.347	37.22
619.538	36.91
619.729	36.98
619.921	36.88
620.112	36.82
620.303	36.92
620.494	36.96
620.686	36.74
620.877	36.69
621.068	36.69
621.259	36.62
621.451	36.48
621.642	37.12
621.833	36.91
622.024	36.88
622.215	36.88
622.406	36.85
622.597	36.83
622.788	36.59
622.98	36.7
623.171	36.61
623.362	36.93
623.553	37.13
623.744	36.99
623.935	36.97
624.126	36.88
624.317	36.87
624.508	37.34
624.698	37
624.889	37.38
625.08	37.04
625.271	37.09
625.462	36.75
625.653	36.6
625.844	36.7
626.034	36.62
626.225	36.77
626.416	36.52
626.607	36.11
626.798	36.33
626.988	36.34
627.179	36.62
627.37	36.66
627.56	36.75
627.751	36.76
627.942	36.66
628.132	36.66
628.323	36.6
628.514	36.86
628.704	36.89
628.895	37
629.085	37.03
629.276	36.68
629.466	36.47
629.657	36.08
629.847	36.25
630.038	36.21
630.228	36.32
630.419	36.26
630.609	36.17
630.8	36.18
630.99	36.26
631.181	36.34
631.371	36.48
631.561	36.53
631.752	36.7
631.942	36.75
632.132	36.93
632.323	37
632.513	36.93
632.703	36.91
632.893	36.83
633.084	36.85
633.274	36.94
633.464	37.21
633.654	37.24
633.844	37.48
634.034	37.34
634.225	37.25
634.415	37.36
634.605	37.61
634.795	37.95
634.985	38.17
635.175	37.89
635.365	37.54
635.555	37.32
635.745	37.4
635.935	37.34
636.125	37.31
636.315	37.22
636.505	37.02
636.695	37.07
636.885	36.64
637.075	36.61
637.265	36.36
637.455	36.68
637.644	36.77
637.834	36.6
638.024	36.16
638.214	36.15
638.404	35.99
638.593	35.87
638.783	36.04
638.973	36.1
639.163	36.04
639.352	36.13
639.542	36
639.732	35.73
639.921	36.03
640.111	36.23
640.301	36.5
640.49	36.59
640.68	36.79
640.87	36.8
641.059	36.67
641.249	36.69
641.438	36.91
641.628	36.48
641.817	36.46
642.007	35.93
642.196	35.97
642.386	35.74
642.575	35.98
642.764	35.64
642.954	35.41
643.143	35.72
643.333	35.56
643.522	35.68
643.711	36.03
643.901	36.26
644.09	36.42
644.279	36.77
644.469	36.52
644.658	36.18
644.847	36.17
645.036	35.93
645.226	35.79
645.415	35.92
645.604	35.63
645.793	35.69
645.982	35.59
646.171	35.67
646.361	35.41
646.55	35.91
646.739	35.98
646.928	36.31
647.117	36.23
647.306	36.01
647.495	36.07
647.684	36.76
647.873	36.66
648.062	37.02
648.251	37.5
648.44	37.46
648.629	36.95
648.818	37.06
649.007	36.99
649.196	37.06
649.384	37.56
649.573	37.19
649.762	36.83
649.951	36.98
650.14	37.04
650.328	36.68
650.517	36.75
650.706	36.9
650.895	36.93
651.083	37.11
651.272	37.15
651.461	36.51
651.65	36.67
651.838	36.3
652.027	36.13
652.216	35.72
652.404	35.92
652.593	35.99
652.781	36.11
652.97	36.09
653.158	35.76
653.347	35.31
653.535	35.61
653.724	35.76
653.912	35.7
654.101	35.41
654.289	35.33
654.478	35.21
654.666	35.25
654.855	35.19
655.043	34.94
655.231	35.32
655.42	35.79
655.608	35.77
655.796	35.62
655.985	35.91
656.173	36.43
656.361	36.33
656.55	36.17
656.738	36.36
656.926	36.56
657.114	36.68
657.302	36.64
657.491	36.6
657.679	36.35
657.867	36.85
658.055	36.62
658.243	36.38
658.431	36.96
658.619	36.8
658.807	36.85
658.996	36.86
659.184	36.99
659.372	36.87
659.56	36.89
659.748	36.87
659.936	36.38
660.124	36.33
660.311	36.51
660.499	36.21
660.687	36.28
660.875	35.86
661.063	35.84
661.251	35.79
661.439	36.02
661.627	36.15
661.814	36.04
662.002	35.93
662.19	36.47
662.378	35.95
662.565	35.53
662.753	35.35
662.941	35.47
663.129	35.31
663.316	35.56
663.504	35.26
663.692	35.37
663.879	35.86
664.067	35.95
664.254	35.85
664.442	36.32
664.63	36.83
664.817	37.1
665.005	37.18
665.192	37.18
665.38	37.19
665.567	37.27
665.755	37.3
665.942	37.27
666.13	37.52
666.317	37.07
666.504	37.23
666.692	37.08
666.879	37.36
667.067	37.27
667.254	37.5
667.441	37.18
667.629	37.02
667.816	36.66
668.003	36.66
668.19	36.76
668.378	37.08
668.565	36.65
668.752	36.61
668.939	36.17
669.127	36.72
669.314	36.48
669.501	36.45
669.688	36.77
669.875	36.85
670.062	37.25
670.249	37.31
670.436	37.11
670.623	37.7
670.81	37.99
670.997	38.34
671.184	38.04
671.371	38.47
671.558	38.24
671.745	37.99
671.932	37.72
672.119	37.19
672.306	36.75
672.493	37.18
672.68	36.55
672.867	36.32
673.054	36.82
673.24	36.97
673.427	36.54
673.614	36.87
673.801	37.17
673.988	37.26
674.174	37.11
674.361	37.33
674.548	36.87
674.734	36.71
674.921	36.69
675.108	36.37
675.294	35.71
675.481	35.4
675.668	35.34
675.854	34.57
676.041	34.73
676.227	35.11
676.414	34.98
676.601	35.34
676.787	35.52
676.974	35.48
677.16	35.71
677.347	35.99
677.533	36.59
677.719	36.87
677.906	37.22
678.092	37.63
678.279	37.75
678.465	37.9
678.651	37.4
678.838	37.75
679.024	37.75
679.21	37.04
679.397	36.88
679.583	36.87
679.769	36.52
679.955	36.4
680.142	36.25
680.328	35.94
680.514	35.74
680.7	36.01
680.886	35.58
681.073	35.83
681.259	36.08
681.445	35.9
681.631	35.74
681.817	35.53
682.003	35.9
682.189	35.94
682.375	36.35
682.561	36.61
682.747	36.64
682.933	36.95
683.119	36.67
683.305	36.85
683.491	37.42
683.677	37.08
683.863	37.47
684.049	37.21
684.235	36.99
684.42	36.77
684.606	36.66
684.792	36.62
684.978	36.51
685.164	36.71
685.349	36.48
685.535	36.63
685.721	36.53
685.907	36.41
686.092	36.49
686.278	36.15
686.464	36
686.649	36.1
686.835	35.83
687.021	35.98
687.206	36.07
687.392	36.64
687.577	35.83
687.763	36.01
687.948	36.14
688.134	36.35
688.319	36.57
688.505	36.37
688.69	36.09
688.876	36.1
689.061	36.01
689.247	35.41
689.432	35.23
689.618	35.51
689.803	35.9
689.988	35.95
690.174	35.26
690.359	34.99
690.544	35.11
690.73	35.39
690.915	36.37
691.1	36.6
691.285	37.06
691.471	36.91
691.656	37.07
691.841	36.92
692.026	36.54
692.211	37.2
692.396	37.57
692.582	38.03
692.767	37.98
692.952	36.93
693.137	36.85
693.322	36.46
693.507	36.56
693.692	36.23
693.877	36.42
694.062	36.23
694.247	35.97
694.432	36.15
694.617	35.83
694.802	35.58
694.987	35.27
695.172	35.23
695.357	35.58
695.541	35.15
695.726	35.15
695.911	34.63
696.096	35.08
696.281	34.61
696.466	34.35
696.65	34.22
696.835	34.43
697.02	34.9
697.204	35.67
697.389	35.21
697.574	35.34
697.759	35.43
697.943	35.61
698.128	35.5
698.312	35.96
698.497	36
698.682	36.33
698.866	36.19
699.051	36.19
699.235	35.78
699.42	36.43
699.604	36.38
699.789	36.19
699.973	36.21
700.158	35.98
700.342	35.53
700.527	35.64
700.711	35.04
700.895	35.57
701.08	35.73
701.264	35.48
701.448	35.21
701.633	35.25
701.817	35.95
702.001	36.3
702.186	37.12
702.37	37.88
702.554	38.23
702.738	39.05
702.923	38.81
703.107	38.31
703.291	37.85
703.475	37.85
703.659	37.62
703.843	37.86
704.027	37.59
704.212	37.13
704.396	36.96
704.58	36.64
704.764	35.86
704.948	35.94
705.132	36.25
705.316	36.57
705.5	36.48
705.684	37.15
705.868	36.73
706.052	36.59
706.235	36.04
706.419	35.79
706.603	35.84
706.787	35.81
706.971	35.71
707.155	35.63
707.339	36.42
707.522	36.7
707.706	36.56
707.89	36.14
708.074	36.17
708.257	36.03
708.441	36.16
708.625	36.45
708.808	36.71
708.992	36.67
709.176	36.19
709.359	35.34
709.543	34.8
709.727	34.78
709.91	34.99
710.094	35
710.277	36.18
710.461	35.8
710.644	34.78
710.828	35.34
711.011	35.48
711.195	36.28
711.378	36.52
711.562	36.81
711.745	36.92
711.928	37.04
712.112	36.9
712.295	36.43
712.478	37.04
712.662	38.43
712.845	37.23
713.028	37.26
713.212	37.14
713.395	37.4
713.578	37.64
713.761	37.61
713.945	37.2
714.128	37.49
714.311	37.4
714.494	37.12
714.677	36.32
714.86	37.61
715.043	36.42
715.227	35.94
715.41	35.72
715.593	35.41
715.776	34.8
715.959	34.73
716.142	34.38
716.325	34.2
716.508	34.2
716.691	33.87
716.874	33.62
717.057	34.62
717.239	35.41
717.422	35.18
717.605	35.44
717.788	35.38
717.971	36.03
718.154	35.67
718.337	35.98
718.519	35.83
718.702	35.6
718.885	35.58
719.068	35.71
719.25	35.19
719.433	35.02
719.616	34.46
719.798	34.7
719.981	34.66
720.164	34.67
720.346	35.16
720.529	35.19
720.712	35.75
720.894	34.92
721.077	34.84
721.259	34.54
721.442	35.4
721.624	35.63
721.807	35.66
721.989	35.63
722.172	36.17
722.354	35.52
722.537	35.48
722.719	36.13
722.901	36.36
723.084	36.02
723.266	35.49
723.448	34.98
723.631	34.85
723.813	35.99
723.995	35.83
724.178	35.54
724.36	36.53
724.542	36.69
724.724	36.22
724.907	36.18
725.089	36.82
725.271	37.62
725.453	37.4
725.635	37.71
725.817	36.5
725.999	36.34
726.181	36.95
726.364	36.64
726.546	36.8
726.728	36.83
726.91	37.53
727.092	36.57
727.274	37.01
727.456	36.72
727.638	36.46
727.819	37.05
728.001	36.73
728.183	36.85
728.365	36.87
728.547	36.61
728.729	36.54
728.911	35.3
729.093	36.17
729.274	36.53
729.456	36.99
729.638	36.33
729.82	35.72
730.001	35.7
730.183	34.63
730.365	33.15
730.546	33.35
730.728	33.16
730.91	32.89
731.091	32.11
731.273	30.85
731.455	30.46
731.636	31.06
731.818	31.71
731.999	32.35
732.181	32.49
732.362	32.94
732.544	34.14
732.725	34.04
732.907	35.23
733.088	36.62
733.27	37.58
733.451	38.26
733.633	38.93
733.814	38.5
733.995	38.33
734.177	40.02
734.358	41.35
734.539	40.34
734.721	40.49
734.902	41
735.083	39.23
735.264	38.92
735.446	38.24
735.627	37.64
735.808	37.79
735.989	38.61
736.17	37.51
736.351	37.76
736.533	38.08
736.714	38.23
736.895	37.4
737.076	39.27
737.257	38.76
737.438	39.45
737.619	39.18
737.8	38.72
737.981	37.85
738.162	37.78
738.343	37.16
738.524	35.87
738.705	34.76
738.886	34.34
739.067	33.75
739.247	34.32
739.428	34.28
739.609	34.55
739.79	34.29
739.971	34.23
740.151	34.6
740.332	34.63
740.513	35.74
740.694	36.12
740.874	36.58
741.055	36.05
741.236	35.31
741.417	34.83
741.597	33.65
741.778	34.29
741.958	34.69
742.139	34.73
742.32	34.25
742.5	34.05
742.681	32.61
742.861	33.27
743.042	33.74
743.222	35.06
743.403	34.78
743.583	36.47
743.764	36.14
743.944	36.63
744.124	35.9
744.305	36.23
744.485	35.86
744.666	37.48
744.846	36.83
745.026	36.78
745.207	35.84
745.387	35.85
745.567	36.13
745.747	35.83
745.928	34.23
746.108	35.19
746.288	35.45
746.468	35.97
746.648	37.35
746.829	36.2
747.009	36.84
747.189	37.61
747.369	37.06
747.549	37.13
747.729	37.11
747.909	38.43
748.089	37.82
748.269	37.22
748.449	35.89
748.629	34.93
748.809	35.6
748.989	34.14
749.169	33.46
749.349	35.81
749.529	34.85
749.709	34.93
749.889	34.78
750.068	35.23
750.248	35.19
750.428	36.63
750.608	35.65
750.788	35.88
750.967	36.63
751.147	36.21
751.327	35.11
751.507	35.87
751.686	36.29
751.866	34.8
752.046	34
752.225	33.88
752.405	33.26
752.585	34.53
752.764	35.2
752.944	35.27
753.123	35.28
753.303	34.41
753.482	33.81
753.662	33.39
753.841	34.84
754.021	34.62
754.2	35.44
754.38	35.02
754.559	35.13
754.739	35.34
754.918	35.44
755.097	35.89
755.277	36.15
755.456	36.94
755.635	37.76
755.815	38.19
755.994	38.08
756.173	36.96
756.352	36.45
756.532	35.95
756.711	36.14
756.89	35.38
757.069	34.08
757.248	33.98
757.427	33.08
757.607	32
757.786	30.47
757.965	30.85
758.144	30.22
758.323	31.38
758.502	31.98
758.681	29.9
758.86	30.53
759.039	32.91
759.218	33.29
759.397	33.82
759.576	34.1
759.755	35.04
759.934	35.46
760.113	36.31
760.291	36.84
760.47	37.22
760.649	39.1
760.828	39.06
761.007	37.59
761.186	38.49
761.364	37.82
761.543	36.75
761.722	36.25
761.901	35.26
762.079	35.25
762.258	35
762.437	35.42
762.615	35.64
762.794	35.88
762.972	36.2
763.151	35.23
763.33	35.59
763.508	36.52
763.687	37.13
763.865	37.73
764.044	37.67
764.222	37.82
764.401	36.53
764.579	36.47
764.758	36.33
764.936	37.18
765.114	37.1
765.293	36.95
765.471	37.68
765.65	36.68
765.828	35.43
766.006	34.87
766.184	35.01
766.363	35.13
766.541	34.48
766.719	35.59
766.898	34.68
767.076	35.56
767.254	36.69
767.432	36.34
767.61	37.23
767.788	39.46
767.967	39.19
768.145	38.78
768.323	39.24
768.501	39.28
768.679	37.86
768.857	38.08
769.035	38.69
769.213	38.06
769.391	37.47
769.569	37.16
769.747	36.58
769.925	38.18
770.103	38.07
770.281	37.14
770.459	37.64
770.636	37.91
770.814	36.91
770.992	35.96
771.17	34.13
771.348	32.1
771.525	31.19
771.703	30.55
771.881	31.96
772.059	30.59
772.236	32.47
772.414	33.23
772.592	32.34
772.769	35.37
772.947	34.45
773.125	35.41
773.302	38.95
773.48	38.19
773.657	38.2
773.835	35.48
774.013	36.98
774.19	37.7
774.368	35.18
774.545	36.02
774.723	34.89
774.9	36.03
775.077	35.82
775.255	35.51
775.432	36.43
775.61	36.6
775.787	38.01
775.964	39.06
776.142	36.02
776.319	37.11
776.496	34.71
776.674	33.41
776.851	33.77
777.028	35.3
777.205	34.15
777.382	33.68
777.56	33.36
777.737	31.91
777.914	30.63
778.091	28.28
778.268	29.16
778.445	31.27
778.622	31.64
778.8	31.35
778.977	31.34
779.154	32.63
779.331	34.55
779.508	35.17
779.685	36.77
779.862	35.34
780.038	37.86
780.215	35.77
780.392	34.56
780.569	33.95
780.746	33.76
780.923	32.77
781.1	33.1
781.277	33.13
781.453	32.08
781.63	32.8
781.807	35.95
781.984	37.43
782.16	38.77
782.337	38.72
782.514	39.86
782.691	40.62
782.867	41.91
783.044	41.77
783.221	42.6
783.397	42.33
783.574	39.27
783.75	38.9
783.927	38.66
784.103	40.66
784.28	41.34
784.456	41.4
784.633	39.39
784.809	37.5
784.986	36.03
785.162	33.92
785.339	35.57
785.515	37.73
785.692	35.73
785.868	36.04
786.044	34.54
786.221	36.06
786.397	34.46
786.573	32.52
786.749	32.27
786.926	31.8
787.102	31.74
787.278	31.44
787.454	32.28
787.631	31.91
787.807	31.03
787.983	30.72
788.159	31.1
788.335	32.36
788.511	34.74
788.687	35.55
788.863	38.59
789.039	41.33
789.216	40.95
789.392	41.03
789.568	41.29
789.744	43.28
789.919	41.06
790.095	39.27
790.271	37.52
790.447	38.1
790.623	40.19
790.799	38.61
790.975	38.69
791.151	40.02
791.327	41.1
791.502	43.91
791.678	42.04
791.854	41.99
792.03	41.93
792.205	42.75
792.381	42.12
792.557	39.79
792.733	40.38
792.908	38.14
793.084	36.95
793.259	35.51
793.435	31.39
793.611	28.96
793.786	34.71
793.962	36.77
794.137	36.46
794.313	37.14
794.488	36.76
794.664	32.97
794.839	34.24
795.015	35.03
795.19	34.81
795.366	36.85
795.541	40.03
795.716	35.33
795.892	34.92
796.067	35.21
796.242	34.39
796.418	33.98
796.593	35.01
796.768	33.14
796.944	33.16
797.119	35.03
797.294	33.62
797.469	34.22
797.644	36.52
797.82	35.51
797.995	34.16
798.17	33.7
798.345	35.83
798.52	37.82
798.695	38.47
798.87	36.57
799.045	32.48
799.22	32.74
799.395	32.82
799.57	32.12
799.745	31.59
799.92	31.47
800.095	34.17
800.27	31.67
800.445	31
800.62	31.88
800.795	33.69
800.97	35.81
801.145	37.25
801.319	36.93
801.494	34.94
801.669	36.2
801.844	37.73
802.018	34.76
802.193	33.41
802.368	31.29
802.543	29.37
802.717	27.95
802.892	28.88
803.067	29.85
803.241	30
803.416	32.34
803.59	33.41
803.765	34.98
803.94	34.99
804.114	34.16
804.289	37.96
804.463	37.78
804.638	37.96
804.812	36.16
804.986	32.6
805.161	30.63
805.335	28.67
805.51	24.5
805.684	22.73
805.858	23.92
806.033	27.67
806.207	26.45
806.381	24.36
806.556	26.73
806.73	29.21
806.904	31.11
807.078	33.54
807.253	34.81
807.427	36.8
807.601	38.44
807.775	40.37
807.949	41.41
808.123	39.11
808.298	41.53
808.472	38.39
808.646	37.31
808.82	33.45
808.994	26.46
809.168	28.83
809.342	34.78
809.516	35.54
809.69	35.11
809.864	30.42
810.038	37.35
810.212	38.12
810.385	39.89
810.559	38.73
810.733	45.04
810.907	48.01
811.081	41.88
811.255	39.01
811.428	39
811.602	38.66
811.776	40.35
811.95	38.16
812.123	38.22
812.297	39.86
812.471	39.91
812.644	38.94
812.818	39.86
812.992	43.66
813.165	44.05
813.339	44.24
813.512	44.4
813.686	47.65
813.86	44.7
814.033	47.92
814.207	45.7
814.38	51.83
814.554	49.5
814.727	50.25
814.9	48.7
815.074	45.55
815.247	42.45
815.421	40.92
815.594	41.99
815.767	41.26
815.941	36.44
816.114	34.95
816.287	30.87
816.46	29.83
816.634	30.13
816.807	33.69
816.98	39.63
817.153	44.28
817.327	45.96
817.5	43.12
817.673	44.59
817.846	46.29
818.019	44.52
818.192	44.35
818.365	46.27
818.538	45.03
818.711	45.71
818.884	41.18
819.057	37.94
819.23	36.62
819.403	36.34
819.576	35.8
819.749	33.68
819.922	33.7
820.095	32.25
820.268	29.86
820.441	29.07
820.614	27.6
820.786	28.78
820.959	29.73
821.132	31.23
821.305	32.44
821.477	32.72
821.65	34.51
821.823	35.41
821.996	35.53
822.168	36.06
822.341	36.82
822.514	36.72
822.686	36.02
822.859	35.49
823.031	35.19
823.204	34.99
823.376	35.16
823.549	34.22
823.722	33.81
823.894	33.49
824.067	33.17
824.239	31.97
824.411	31.65
824.584	31.59
824.756	31.75
824.929	31.2
825.101	29.69
825.273	28.78
825.446	28.79
825.618	29.49
825.79	29.42
825.963	29.36
826.135	29.78
826.307	30.27
826.479	30.19
826.652	30.29
826.824	29.88
826.996	31.6
827.168	31.56
827.34	32.79
827.512	32.06
827.684	32.41
827.856	31.41
828.029	31.62
828.201	30.34
828.373	30.32
828.545	30.58
828.717	31.5
828.889	30.26
829.061	29.12
829.232	27.71
829.404	27.44
829.576	27.78
829.748	30.33
829.92	28.57
830.092	30.61
830.264	30.67
830.436	29.46
830.607	27.38
830.779	28.46
830.951	32.46
831.123	31.41
831.294	32.8
831.466	33.48
831.638	34.94
831.809	38.83
831.981	39.91
832.153	38.01
832.324	38.76
832.496	41.33
832.667	40.89
832.839	39.86
833.011	41.81
833.182	39.26
833.354	36.71
833.525	34.31
833.697	34.42
833.868	34.22
834.039	33.85
834.211	34.55
834.382	34.96
834.554	36.41
834.725	37.07
834.896	38.47
835.068	40
835.239	39.75
835.41	39.69
835.581	37.19
835.753	36.63
835.924	37.41
836.095	34.58
836.266	33.04
836.438	31.95
836.609	30.69
836.78	25.99
836.951	27.94
837.122	32.66
837.293	34.03
837.464	36.11
837.635	38.15
837.806	41.23
837.977	43.72
838.148	47.43
838.319	49.59
838.49	50.82
838.661	61.2
838.832	63.98
839.003	56.72
839.174	50.93
839.345	45.14
839.516	37.96
839.687	33.78
839.857	36.82
840.028	34.17
840.199	33.73
840.37	35.67
840.54	27.65
840.711	16.52
840.882	28.23
841.053	36.18
841.223	38.37
841.394	39.19
841.564	40.86
841.735	41.76
841.906	42.12
842.076	38.45
842.247	35.78
842.417	36.02
842.588	44.89
842.758	29.51
842.929	24.85
843.099	21.46
843.27	20.62
843.44	11.36
843.611	6.94
843.781	-1.97
843.951	-3.18
844.122	-6.39
844.292	-5.19
844.462	-5.2
844.633	9.94
844.803	17.98
844.973	26.96
845.144	27.8
845.314	35.71
845.484	35.65
845.654	37.66
845.824	34.81
845.995	39.11
846.165	37.76
846.335	45.66
846.505	34.42
846.675	34.2
846.845	43.07
847.015	51.92
847.185	47.32
847.355	58.11
847.525	56.86
847.695	62.13
847.865	52.46
848.035	46.95
848.205	42.27
848.375	45.12
848.545	37.55
848.715	28.72
848.884	17.5
849.054	22.27
849.224	6.75
849.394	12.29
849.564	5.33
849.733	3.27
849.903	8.13
850.073	-4.97
850.243	-3.76
850.412	-2.25
850.582	-4.64
850.752	-1.28
850.921	8.63
851.091	4.92
851.26	-1.7
851.43	5.3
851.599	17.65
851.769	7.77
851.939	7.79
852.108	1.39
852.278	-7.12
852.447	-6.35
852.616	-7.58
852.786	-11.88
852.955	6.12
853.125	11.7
853.294	23.01
853.463	3.02
853.633	25.33
853.802	38.46
853.971	38.65
854.141	44.39
854.31	46.81
854.479	33.77
854.648	28.6
854.818	23.45
854.987	26.72
855.156	26.27
855.325	48.37
855.494	49.33
855.663	41.31
855.832	34.77
856.001	44.16
856.171	28.2
856.34	43.39
856.509	51.54
856.678	56.02
856.847	37.73
857.016	31.5
857.185	25.91
857.353	19.1
857.522	12.29
857.691	15.73
857.86	11.84
858.029	24.11
858.198	28.22
858.367	16.42
858.535	23.62
858.704	35.74
858.873	23.17
859.042	23.05
859.21	31.34
859.379	44.89
859.548	61.01
859.717	60.31
859.885	64.06
860.054	50.42
860.222	69.99
860.391	73.46
860.56	67.79
860.728	88.18
860.897	87.41
861.065	73.74
861.234	80.65
861.402	66.49
861.571	69.58
861.739	63.67
861.908	57.04
862.076	51.04
862.244	39.15
862.413	34.59
862.581	35.76
862.749	40.25
862.918	46.14
863.086	34.47
863.254	28.71
863.423	36.36
863.591	47.87
863.759	59.72
863.927	56.35
864.096	52.58
864.264	57.94
864.432	46.6
864.6	40.34
864.768	34.25
864.936	33.25
865.104	41.29
865.272	20.58
865.44	-8.54
865.608	7.07
865.776	23.04
865.944	16.6
866.112	37.88
866.28	30.83
866.448	5.87
866.616	27.11
866.784	4.96
866.952	8.37
867.12	10.19
867.288	36.46
867.455	30.79
867.623	21.11
867.791	32.69
867.959	37.75
868.127	36.43
868.294	50.66
868.462	57.91
868.63	57.32
868.797	67.96
868.965	67.47
869.133	65.42
869.3	62.22
869.468	53.95
869.636	59.68
869.803	54.62
869.971	48.88
870.138	39.25
870.306	27.81
870.473	31.08
870.641	33.27
870.808	38.1
870.975	31.47
871.143	32.96
871.31	44.46
871.478	31.13
871.645	26.86
871.812	53.2
871.98	44.01
872.147	65.17
872.314	59.88
872.482	47.8
872.649	46.31
872.816	54.01
872.983	41.67
873.15	35.2
873.318	25.47
873.485	30.25
873.652	15.42
873.819	29.2
873.986	11.8
874.153	14.99
874.32	12.73
874.487	6.21
874.654	8.43
874.821	14.67
874.988	21.88
875.155	36.32
875.322	30.97
875.489	29.38
875.656	23.79
875.823	21.75
875.99	21.86
876.157	24.65
876.324	25.87
876.49	29.82
876.657	40.2
876.824	53.2
876.991	48.61
877.157	63.44
877.324	71.36
877.491	74.44
877.658	78.13
877.824	79.58
877.991	85.38
878.157	80.95
878.324	73.7
878.491	67.03
878.657	53.84
878.824	54.68
878.99	39.51
879.157	39.93
879.323	32.77
879.49	29.58
879.656	34.2
879.823	39.92
879.989	44.93
880.156	47.94
880.322	48.47
880.488	42.95
880.655	41.82
880.821	39.42
880.987	31.44
881.154	42.26
881.32	46.33
881.486	41.42
881.652	36.93
881.819	32.9
881.985	31.31
882.151	31.61
882.317	30.11
882.483	34.45
882.649	35.52
882.816	36.36
882.982	37.26
883.148	35.25
883.314	35.54
883.48	33.8
883.646	31.3
883.812	31.27
883.978	35.56
884.144	37.35
884.31	34.53
884.476	34.64
884.642	36.79
884.807	32.84
884.973	33.27
885.139	29.69
885.305	32.8
885.471	37.17
885.637	38.65
885.802	32.11
885.968	29.54
886.134	26.42
886.3	26.05
886.465	25.17
886.631	30.65
886.797	26.54
886.962	34.97
887.128	32.75
887.293	33.2
887.459	37.18
887.625	39.48
887.79	40.07
887.956	46.8
888.121	48.92
888.287	45.81
888.452	43.64
888.618	51.2
888.783	39.31
