Data from 2938508_Reflection_1.txt Node
Date: Tue Jun 16 22:54:00 EDT 2015
User: robert
Spectrometer: USB4E03002
Autoset integration time: false
Trigger mode: 4
Integration Time (sec): 1.000000E-1
Scans to average: 10
Electric dark correction enabled: true
Nonlinearity correction enabled: false
Boxcar width: 5
Stray light correction enabled: false
XAxis mode: Wavelengths
Stop averaging: false
Number of Pixels in Spectrum: 3648
>>>>>Begin Spectral Data<<<<<
177.575	-6.87
177.794	38.6
178.014	39.29
178.233	54.31
178.452	68.94
178.672	84.99
178.891	266.67
179.11	-275
179.33	-478.39
179.549	-28.3
179.768	-12.6
179.987	72.91
180.207	166
180.426	105.34
180.645	603.7
180.864	-479.35
181.084	2.68
181.303	45.14
181.522	51.18
181.741	70.72
181.96	64.29
182.179	84.42
182.398	144
182.618	133.63
182.837	152.38
183.056	119.22
183.275	162.84
183.494	214.3
183.713	-97.2
183.932	-276.59
184.151	-290.42
184.37	-1527.67
184.589	223.19
184.808	122.22
185.027	164.98
185.246	125.79
185.465	184.2
185.684	163.37
185.903	196.81
186.122	170.46
186.341	179.5
186.56	175.51
186.779	298.13
186.998	517.54
187.216	757.84
187.435	484.26
187.654	409.29
187.873	669.63
188.092	643.81
188.311	490.8
188.53	514.96
188.748	1455.46
188.967	8919.35
189.186	252.39
189.405	158.51
189.623	114.78
189.842	126.7
190.061	161.67
190.28	135.06
190.498	123.33
190.717	100.35
190.936	107.82
191.154	101.2
191.373	117.29
191.592	137.15
191.81	120.23
192.029	133.09
192.248	127.4
192.466	149.01
192.685	138.99
192.904	176.97
193.122	272.18
193.341	-152.86
193.559	-65.78
193.778	-37.75
193.996	-81.05
194.215	-575.31
194.433	-360.31
194.652	-938.56
194.87	2579.52
195.089	447.29
195.307	475.93
195.526	291.72
195.744	228.69
195.963	178.71
196.181	162.51
196.399	144.8
196.618	168.18
196.836	153.54
197.055	110.24
197.273	133.47
197.491	153.98
197.71	90.02
197.928	109.07
198.146	101.57
198.365	106.61
198.583	134.1
198.801	155.84
199.019	108.2
199.238	127.75
199.456	236.18
199.674	207.52
199.892	199.22
200.111	174.45
200.329	122.7
200.547	86.96
200.765	75.58
200.983	64.37
201.202	38.47
201.42	44.48
201.638	41.77
201.856	56.65
202.074	42.89
202.292	73.78
202.51	88.58
202.728	82.83
202.946	140.85
203.165	150.41
203.383	149.71
203.601	138.58
203.819	173.94
204.037	179.64
204.255	175.85
204.473	181.57
204.691	131.54
204.909	136.39
205.127	208.13
205.345	153.92
205.562	146.17
205.78	158.79
205.998	143.44
206.216	103.94
206.434	123.53
206.652	152.59
206.87	169.31
207.088	166.35
207.306	186.78
207.523	99.51
207.741	143.1
207.959	144.24
208.177	105.54
208.395	126.53
208.612	117.37
208.83	89.99
209.048	86.33
209.266	81.51
209.483	70.1
209.701	66.77
209.919	79.87
210.136	68.98
210.354	59.68
210.572	79.4
210.79	75.06
211.007	78.29
211.225	87.76
211.442	104.17
211.66	100.68
211.878	106.11
212.095	89.78
212.313	86.01
212.53	85.84
212.748	104.97
212.966	87.98
213.183	94.8
213.401	102.7
213.618	95.86
213.836	75.3
214.053	71.27
214.271	72.36
214.488	71.09
214.705	91.19
214.923	77.53
215.14	67.3
215.358	80.68
215.575	65.34
215.793	45.04
216.01	43.91
216.227	76.44
216.445	92.1
216.662	95.14
216.879	92.55
217.097	73.54
217.314	78.97
217.531	67.89
217.749	59.63
217.966	72.67
218.183	61.73
218.4	56.11
218.618	26.63
218.835	32.98
219.052	10.36
219.269	-9.3
219.487	4.35
219.704	14.54
219.921	19.33
220.138	17.84
220.355	10.85
220.572	24.47
220.79	36.06
221.007	53.47
221.224	55.53
221.441	65.02
221.658	60.69
221.875	57.8
222.092	56.64
222.309	53.75
222.526	57.53
222.743	55.54
222.96	45.88
223.177	43.81
223.394	41.04
223.611	35.34
223.828	34.86
224.045	38.47
224.262	34.93
224.479	35.25
224.696	32.39
224.913	30.59
225.13	29.05
225.347	30.21
225.564	27
225.781	22.77
225.997	21.61
226.214	19.2
226.431	16.65
226.648	15.19
226.865	14.58
227.082	14.06
227.298	13.54
227.515	12.85
227.732	11.63
227.949	11.01
228.165	10.81
228.382	10.26
228.599	10.66
228.816	11.17
229.032	12.44
229.249	11.44
229.466	11.87
229.682	10.35
229.899	11.27
230.116	12.39
230.332	12.92
230.549	12.57
230.765	13.16
230.982	12.68
231.199	13.52
231.415	12.41
231.632	12.05
231.848	11.57
232.065	14.01
232.281	13.91
232.498	13.03
232.714	11.72
232.931	12.36
233.147	11.86
233.364	12.83
233.58	10.57
233.797	9.29
234.013	11.23
234.23	12.21
234.446	13.39
234.662	12.07
234.879	14.08
235.095	16.17
235.312	18.11
235.528	19.5
235.744	19.21
235.961	20.24
236.177	22.17
236.393	22.26
236.61	21.93
236.826	18.77
237.042	19.58
237.258	18.14
237.475	17.65
237.691	15.67
237.907	13.88
238.123	11.38
238.339	12.33
238.556	11.42
238.772	10.7
238.988	10.33
239.204	10.77
239.42	10.17
239.636	10
239.853	9.95
240.069	10.23
240.285	9.81
240.501	10.16
240.717	9.69
240.933	10.16
241.149	10.34
241.365	9.78
241.581	9.52
241.797	9.36
242.013	9.47
242.229	8.73
242.445	8.65
242.661	8.88
242.877	9.11
243.093	9.35
243.309	8.89
243.525	7.85
243.741	8.08
243.957	8.49
244.173	8.18
244.388	8.4
244.604	8.95
244.82	8.38
245.036	8.07
245.252	8.37
245.468	7.87
245.683	7.97
245.899	8.02
246.115	7.85
246.331	7.89
246.547	7.46
246.762	7.25
246.978	7.41
247.194	7.82
247.409	8.46
247.625	7.99
247.841	8.08
248.057	7.77
248.272	8.19
248.488	8.78
248.703	7.82
248.919	9.17
249.135	9.56
249.35	9.59
249.566	9.22
249.782	8.37
249.997	8.91
250.213	9.31
250.428	9.06
250.644	8.66
250.859	8.65
251.075	9.4
251.29	8.9
251.506	8.42
251.721	7.84
251.937	8.13
252.152	8.28
252.368	8.72
252.583	8.84
252.798	9.73
253.014	10.9
253.229	10.78
253.445	11.39
253.66	11.66
253.875	12.17
254.091	12.16
254.306	12.26
254.521	12.15
254.737	11.12
254.952	10.97
255.167	9.84
255.383	8.73
255.598	8.46
255.813	7.71
256.028	6.96
256.244	6.25
256.459	5.95
256.674	5.02
256.889	5.33
257.104	5.22
257.32	5.35
257.535	5.57
257.75	5.62
257.965	5.59
258.18	5.45
258.395	5.73
258.61	5.93
258.826	6.01
259.041	6.42
259.256	6.17
259.471	6.37
259.686	5.99
259.901	5.96
260.116	6.06
260.331	6.18
260.546	6.43
260.761	6.4
260.976	6.84
261.191	7.07
261.406	7.08
261.621	7.6
261.836	7.48
262.05	7.94
262.265	7.75
262.48	7.5
262.695	7.69
262.91	7.37
263.125	7.31
263.34	6.96
263.555	6.84
263.769	7.15
263.984	6.76
264.199	7.31
264.414	7.35
264.629	7.44
264.843	7.76
265.058	7.7
265.273	7.97
265.488	8.17
265.702	7.94
265.917	7.96
266.132	7.66
266.346	7.78
266.561	7.37
266.776	7.42
266.99	7.36
267.205	7.33
267.42	7.11
267.634	6.86
267.849	6.65
268.063	6.55
268.278	6.35
268.492	6.12
268.707	6.45
268.922	6.14
269.136	6.25
269.351	6.11
269.565	6.11
269.78	6.07
269.994	6.23
270.209	6.29
270.423	6.26
270.637	6.23
270.852	6.44
271.066	5.89
271.281	6.2
271.495	6.18
271.709	6.48
271.924	6.09
272.138	5.96
272.353	6.11
272.567	5.98
272.781	5.72
272.996	5.54
273.21	5.11
273.424	5.24
273.638	4.98
273.853	4.69
274.067	4.44
274.281	4.97
274.495	5.4
274.71	5.08
274.924	4.96
275.138	5.38
275.352	5.74
275.566	6.47
275.781	6.75
275.995	6.55
276.209	6.78
276.423	6.65
276.637	6.3
276.851	6.44
277.065	6.69
277.279	6.87
277.493	6.99
277.707	6.52
277.921	5.94
278.135	6.29
278.349	6.72
278.563	6.88
278.777	7.21
278.991	7.69
279.205	7.46
279.419	7.19
279.633	7.18
279.847	7.05
280.061	7.01
280.275	7.39
280.489	6.77
280.703	6.45
280.917	6.21
281.131	5.94
281.344	5.46
281.558	5.67
281.772	5.64
281.986	5.35
282.2	5.74
282.414	5.85
282.627	5.6
282.841	6.09
283.055	5.87
283.269	5.84
283.482	5.8
283.696	5.83
283.91	5.09
284.123	5.25
284.337	5.49
284.551	5.19
284.764	5.17
284.978	5
285.192	4.78
285.405	5.3
285.619	5.26
285.833	5.32
286.046	5.47
286.26	5.86
286.473	5.92
286.687	6.3
286.9	6.13
287.114	6.47
287.327	6.36
287.541	6.51
287.754	6.15
287.968	6.33
288.181	6.54
288.395	6.48
288.608	6.73
288.822	6.6
289.035	6
289.248	6.64
289.462	6.25
289.675	6.41
289.889	6.13
290.102	6.21
290.315	6.2
290.529	6
290.742	5.94
290.955	6.21
291.169	6.22
291.382	6.75
291.595	6.12
291.808	6.66
292.022	6.59
292.235	6.76
292.448	6.89
292.661	6.79
292.875	7.03
293.088	6.87
293.301	6.61
293.514	6.73
293.727	6.4
293.94	6.12
294.153	6.22
294.367	6.37
294.58	6.33
294.793	6.42
295.006	6.39
295.219	6.09
295.432	5.79
295.645	5.72
295.858	5.72
296.071	5.57
296.284	5.67
296.497	5.57
296.71	5.7
296.923	5.86
297.136	5.76
297.349	6.01
297.562	6.35
297.775	6.7
297.988	6.81
298.201	7.05
298.414	7.31
298.626	7.37
298.839	7.24
299.052	7.08
299.265	7.38
299.478	6.93
299.691	6.84
299.903	6.51
300.116	7
300.329	6.49
300.542	6.51
300.755	6.72
300.967	6.75
301.18	7.15
301.393	7.25
301.605	7.1
301.818	7.31
302.031	7.18
302.243	7.49
302.456	7.13
302.669	7.66
302.881	7.32
303.094	7.21
303.307	7.69
303.519	7.49
303.732	8.03
303.944	7.65
304.157	8.14
304.37	8.11
304.582	7.72
304.795	7.73
305.007	7.74
305.22	7.87
305.432	8.05
305.645	7.55
305.857	7.69
306.069	6.89
306.282	7.28
306.494	6.93
306.707	6.96
306.919	7.1
307.132	7
307.344	6.93
307.556	7.01
307.769	6.71
307.981	7.31
308.193	6.82
308.406	6.79
308.618	6.71
308.83	6.86
309.043	7.21
309.255	7.47
309.467	7.38
309.679	7.35
309.892	7.43
310.104	7.41
310.316	7
310.528	7.06
310.74	7.26
310.953	7.68
311.165	7.66
311.377	7.45
311.589	7.48
311.801	7.68
312.013	8
312.225	7.88
312.437	8.21
312.649	8.72
312.862	8.81
313.074	9.22
313.286	8.71
313.498	8.41
313.71	8.13
313.922	8.13
314.134	7.87
314.346	7.43
314.558	7.87
314.77	7.84
314.982	7.36
315.193	7.49
315.405	7.42
315.617	7.69
315.829	7.74
316.041	8.08
316.253	8.22
316.465	8.43
316.677	8.56
316.888	7.93
317.1	7.94
317.312	8.08
317.524	8.1
317.736	7.57
317.947	7.59
318.159	7.75
318.371	7.89
318.583	7.6
318.794	7.69
319.006	8.21
319.218	8.19
319.43	7.99
319.641	7.54
319.853	7.33
320.064	7.63
320.276	7.25
320.488	6.85
320.699	6.5
320.911	6.6
321.123	6.74
321.334	6.88
321.546	7.27
321.757	7.09
321.969	8.1
322.18	8.28
322.392	8.14
322.603	8.87
322.815	9.02
323.026	9.35
323.238	9.37
323.449	9.7
323.661	9.13
323.872	9.01
324.083	9.38
324.295	9.12
324.506	9.72
324.718	9.6
324.929	8.76
325.14	9.19
325.352	9.01
325.563	9.07
325.774	9.05
325.986	8.84
326.197	8.81
326.408	8.74
326.62	8.39
326.831	7.73
327.042	7.88
327.253	8.3
327.464	8.17
327.676	7.98
327.887	7.47
328.098	7.03
328.309	7.25
328.52	7.69
328.732	7.67
328.943	7.66
329.154	7.67
329.365	7.61
329.576	7.92
329.787	8.01
329.998	8.07
330.209	8.92
330.42	9.11
330.631	9.32
330.842	8.6
331.053	9.16
331.264	8.9
331.475	9.21
331.686	9.5
331.897	9.16
332.108	9.06
332.319	9.53
332.53	9.23
332.741	9.01
332.952	8.58
333.163	9.03
333.374	8.48
333.585	8.82
333.795	8.51
334.006	8.41
334.217	8.18
334.428	8.32
334.639	8.36
334.849	8.5
335.06	8.96
335.271	9.05
335.482	8.75
335.692	8.92
335.903	8.92
336.114	9.19
336.325	9.2
336.535	9.29
336.746	9.1
336.957	9.4
337.167	9.16
337.378	9.14
337.589	9.22
337.799	9.56
338.01	9.36
338.22	9.32
338.431	8.86
338.642	8.91
338.852	8.89
339.063	8.92
339.273	8.49
339.484	8.31
339.694	8.07
339.905	8.38
340.115	8.39
340.326	8.63
340.536	8.75
340.746	8.8
340.957	8.24
341.167	8.05
341.378	8.03
341.588	7.95
341.799	7.93
342.009	8
342.219	7.58
342.43	7.41
342.64	7.23
342.85	7.22
343.061	7.4
343.271	7.77
343.481	8.03
343.691	8.29
343.902	7.9
344.112	8.33
344.322	8.13
344.532	8.31
344.743	8.33
344.953	8.1
345.163	8.35
345.373	8.36
345.583	8.21
345.793	7.8
346.004	7.66
346.214	7.72
346.424	7.66
346.634	7.75
346.844	7.37
347.054	7.61
347.264	7.91
347.474	7.53
347.684	7.63
347.894	8.06
348.104	8.64
348.314	8.28
348.524	8.26
348.734	8.06
348.944	8.28
349.154	8.73
349.364	8.37
349.574	8.46
349.784	8.45
349.994	8.31
350.204	8.18
350.413	7.93
350.623	8.15
350.833	8.14
351.043	7.84
351.253	7.67
351.463	7.55
351.672	7.42
351.882	7.22
352.092	7.51
352.302	7.88
352.511	8
352.721	7.79
352.931	7.88
353.141	7.95
353.35	8.2
353.56	8.21
353.77	8.46
353.979	8.21
354.189	8.47
354.399	7.99
354.608	7.72
354.818	7.48
355.027	7.95
355.237	7.83
355.447	7.95
355.656	8.17
355.866	8.09
356.075	7.98
356.285	8.26
356.494	8.22
356.704	8.16
356.913	8.09
357.123	8.29
357.332	7.88
357.542	7.81
357.751	7.35
357.96	7.29
358.17	7.03
358.379	7.02
358.589	6.93
358.798	6.57
359.007	6.79
359.217	6.79
359.426	6.55
359.635	6.66
359.845	6.68
360.054	6.91
360.263	6.83
360.472	7.12
360.682	7.08
360.891	7.08
361.1	7.32
361.309	7.14
361.519	6.86
361.728	7.04
361.937	7.07
362.146	6.85
362.355	6.92
362.564	6.91
362.774	6.78
362.983	6.88
363.192	7.08
363.401	6.95
363.61	7.16
363.819	7.49
364.028	7.03
364.237	6.9
364.446	7.18
364.655	7.18
364.864	7.07
365.073	7
365.282	6.73
365.491	6.5
365.7	6.71
365.909	6.59
366.118	6.56
366.327	6.87
366.536	7.03
366.745	7.01
366.954	6.97
367.162	6.83
367.371	6.9
367.58	6.84
367.789	7.03
367.998	6.76
368.207	6.63
368.415	6.48
368.624	6.49
368.833	6.4
369.042	6.55
369.25	6.56
369.459	6.7
369.668	6.5
369.877	6.58
370.085	6.62
370.294	6.72
370.503	7.02
370.711	7.17
370.92	7.29
371.129	7.24
371.337	7
371.546	7
371.754	6.98
371.963	7.04
372.171	7
372.38	6.7
372.589	6.81
372.797	6.3
373.006	6.35
373.214	5.99
373.423	6.14
373.631	6.08
373.84	6.15
374.048	6.11
374.256	6.12
374.465	6.2
374.673	6.3
374.882	6.14
375.09	6.32
375.298	6.26
375.507	6.46
375.715	6.18
375.923	6.43
376.132	6.34
376.34	6.19
376.548	6.31
376.757	6.33
376.965	6.25
377.173	6.18
377.381	6.17
377.59	6.25
377.798	6.19
378.006	6.14
378.214	6.08
378.423	6.35
378.631	6.51
378.839	6.38
379.047	6.27
379.255	6.26
379.463	6.33
379.671	6.56
379.879	6.42
380.088	6.46
380.296	6.48
380.504	6.42
380.712	6.14
380.92	6.09
381.128	6.08
381.336	6.1
381.544	6.14
381.752	6.16
381.96	5.92
382.168	6.06
382.376	5.73
382.584	5.79
382.791	5.68
382.999	5.7
383.207	5.8
383.415	5.61
383.623	5.49
383.831	5.55
384.039	5.43
384.247	5.68
384.454	5.46
384.662	5.52
384.87	5.66
385.078	5.84
385.285	5.72
385.493	5.54
385.701	5.78
385.909	5.84
386.116	5.78
386.324	5.86
386.532	5.72
386.739	5.8
386.947	6.07
387.155	5.66
387.362	5.49
387.57	5.53
387.778	5.67
387.985	5.72
388.193	5.87
388.4	5.75
388.608	5.88
388.816	5.82
389.023	5.93
389.231	5.8
389.438	6.2
389.646	6.21
389.853	6.19
390.061	6.16
390.268	6
390.475	5.87
390.683	5.9
390.89	5.68
391.098	5.89
391.305	5.85
391.512	5.74
391.72	5.55
391.927	5.57
392.135	5.64
392.342	5.55
392.549	5.64
392.756	5.69
392.964	5.71
393.171	5.67
393.378	5.5
393.586	5.3
393.793	5.43
394	5.55
394.207	5.48
394.414	5.38
394.622	5.36
394.829	5.3
395.036	5.09
395.243	4.96
395.45	5.1
395.657	4.93
395.864	4.99
396.072	5.03
396.279	4.97
396.486	5.07
396.693	5.11
396.9	5.09
397.107	4.98
397.314	5.1
397.521	5.03
397.728	4.94
397.935	5.21
398.142	5.28
398.349	5.28
398.556	5.17
398.763	5.1
398.97	5.08
399.177	5.44
399.383	5.52
399.59	5.62
399.797	5.75
400.004	5.54
400.211	5.35
400.418	5.19
400.625	5.16
400.831	5.1
401.038	5.07
401.245	4.91
401.452	4.6
401.658	4.56
401.865	4.44
402.072	4.43
402.279	4.53
402.485	4.43
402.692	4.5
402.899	4.36
403.105	4.5
403.312	4.23
403.519	4.32
403.725	4.38
403.932	4.43
404.138	4.34
404.345	4.34
404.552	4.53
404.758	4.52
404.965	4.41
405.171	4.36
405.378	4.45
405.584	4.63
405.791	4.68
405.997	4.64
406.204	4.52
406.41	4.65
406.617	4.68
406.823	4.71
407.029	4.75
407.236	4.81
407.442	4.98
407.649	4.82
407.855	4.95
408.061	4.81
408.268	4.72
408.474	4.73
408.68	4.62
408.887	4.6
409.093	4.46
409.299	4.46
409.505	4.49
409.712	4.41
409.918	4.33
410.124	4.22
410.33	4.2
410.537	4.12
410.743	4.09
410.949	4.15
411.155	4.27
411.361	4.18
411.567	4.16
411.773	4.32
411.98	4.35
412.186	4.22
412.392	4.18
412.598	4.19
412.804	4.27
413.01	4.45
413.216	4.43
413.422	4.35
413.628	4.38
413.834	4.58
414.04	4.35
414.246	4.35
414.452	4.52
414.658	4.5
414.864	4.52
415.07	4.58
415.275	4.5
415.481	4.4
415.687	4.3
415.893	4.27
416.099	4.14
416.305	4.28
416.511	4.21
416.716	4.2
416.922	4.32
417.128	4.29
417.334	4.28
417.539	4.26
417.745	4.34
417.951	4.36
418.157	4.36
418.362	4.27
418.568	4.16
418.774	4.1
418.979	4.13
419.185	4.09
419.391	4.09
419.596	3.99
419.802	3.98
420.008	3.91
420.213	4.24
420.419	4.26
420.624	4.3
420.83	4.31
421.035	4.4
421.241	4.35
421.446	4.27
421.652	4.18
421.857	4.14
422.063	4.08
422.268	4.09
422.474	3.75
422.679	3.68
422.885	3.63
423.09	3.66
423.295	3.66
423.501	3.6
423.706	3.62
423.911	3.68
424.117	3.8
424.322	3.82
424.527	3.85
424.733	3.77
424.938	3.79
425.143	3.87
425.349	3.78
425.554	3.7
425.759	3.79
425.964	3.76
426.169	3.8
426.375	3.8
426.58	3.78
426.785	3.86
426.99	3.94
427.195	3.91
427.4	3.89
427.605	3.93
427.811	4.03
428.016	4.12
428.221	4.15
428.426	4.05
428.631	3.88
428.836	4.04
429.041	3.96
429.246	3.93
429.451	3.92
429.656	3.91
429.861	3.95
430.066	3.91
430.271	3.83
430.476	3.82
430.681	3.74
430.886	3.88
431.09	3.8
431.295	3.8
431.5	3.9
431.705	3.9
431.91	3.88
432.115	3.89
432.32	3.82
432.524	3.81
432.729	3.86
432.934	3.98
433.139	3.9
433.343	3.89
433.548	3.8
433.753	3.62
433.958	3.64
434.162	3.57
434.367	3.48
434.572	3.47
434.776	3.44
434.981	3.21
435.186	3.17
435.39	3.23
435.595	3.2
435.799	3.18
436.004	3.3
436.209	3.35
436.413	3.4
436.618	3.44
436.822	3.49
437.027	3.47
437.231	3.62
437.436	3.56
437.64	3.51
437.845	3.51
438.049	3.63
438.253	3.59
438.458	3.53
438.662	3.51
438.867	3.48
439.071	3.37
439.275	3.41
439.48	3.46
439.684	3.51
439.888	3.51
440.093	3.47
440.297	3.44
440.501	3.35
440.706	3.43
440.91	3.48
441.114	3.52
441.318	3.58
441.523	3.54
441.727	3.5
441.931	3.5
442.135	3.5
442.339	3.49
442.543	3.5
442.748	3.67
442.952	3.58
443.156	3.57
443.36	3.6
443.564	3.64
443.768	3.68
443.972	3.61
444.176	3.61
444.38	3.62
444.584	3.64
444.788	3.61
444.992	3.47
445.196	3.53
445.4	3.47
445.604	3.44
445.808	3.5
446.012	3.46
446.216	3.55
446.42	3.53
446.624	3.54
446.828	3.6
447.032	3.61
447.235	3.73
447.439	3.76
447.643	3.86
447.847	3.8
448.051	3.74
448.254	3.71
448.458	3.61
448.662	3.54
448.866	3.51
449.069	3.4
449.273	3.37
449.477	3.4
449.681	3.11
449.884	3
450.088	3.08
450.292	3.1
450.495	3.15
450.699	3.17
450.902	3.27
451.106	3.29
451.31	3.3
451.513	3.3
451.717	3.25
451.92	3.36
452.124	3.39
452.327	3.37
452.531	3.31
452.734	3.24
452.938	3.25
453.141	3.24
453.345	3.2
453.548	3.21
453.752	3.15
453.955	3.27
454.158	3.33
454.362	3.29
454.565	3.34
454.769	3.35
454.972	3.3
455.175	3.36
455.379	3.34
455.582	3.39
455.785	3.33
455.988	3.39
456.192	3.27
456.395	3.13
456.598	3.23
456.801	3.15
457.005	3.09
457.208	3.11
457.411	3.06
457.614	3.03
457.817	3.01
458.021	3.01
458.224	3.01
458.427	2.98
458.63	2.98
458.833	3
459.036	2.99
459.239	3.06
459.442	3.1
459.645	3.12
459.848	3.13
460.051	3.18
460.254	3.24
460.457	3.28
460.66	3.31
460.863	3.42
461.066	3.38
461.269	3.42
461.472	3.46
461.675	3.43
461.878	3.51
462.081	3.42
462.284	3.32
462.486	3.31
462.689	3.21
462.892	3.09
463.095	3.09
463.298	3.04
463.5	3.02
463.703	3.02
463.906	3.04
464.109	2.96
464.311	3
464.514	2.87
464.717	2.87
464.92	3.01
465.122	3.15
465.325	3.12
465.528	3.18
465.73	3.24
465.933	3.19
466.135	3.21
466.338	3.21
466.541	3.31
466.743	3.49
466.946	3.49
467.148	3.48
467.351	3.47
467.553	3.54
467.756	3.53
467.958	3.51
468.161	3.52
468.363	3.51
468.566	3.57
468.768	3.62
468.971	3.56
469.173	3.64
469.375	3.62
469.578	3.58
469.78	3.55
469.983	3.48
470.185	3.48
470.387	3.57
470.59	3.51
470.792	3.44
470.994	3.41
471.196	3.42
471.399	3.37
471.601	3.32
471.803	3.35
472.005	3.36
472.208	3.34
472.41	3.37
472.612	3.28
472.814	3.35
473.016	3.42
473.218	3.45
473.421	3.54
473.623	3.61
473.825	3.52
474.027	3.55
474.229	3.44
474.431	3.44
474.633	3.53
474.835	3.53
475.037	3.57
475.239	3.55
475.441	3.42
475.643	3.37
475.845	3.27
476.047	3.34
476.249	3.31
476.451	3.28
476.653	3.34
476.855	3.19
477.057	3.11
477.258	3.04
477.46	2.98
477.662	3.01
477.864	3.02
478.066	3.08
478.268	3.11
478.469	3.08
478.671	3.22
478.873	3.14
479.075	3.17
479.276	3.29
479.478	3.34
479.68	3.35
479.882	3.37
480.083	3.35
480.285	3.28
480.487	3.19
480.688	3.21
480.89	3.15
481.091	3.19
481.293	3.14
481.495	3.1
481.696	3.05
481.898	3.03
482.099	3.03
482.301	3.07
482.502	3.09
482.704	3.11
482.905	3.11
483.107	3.11
483.308	3.11
483.51	3.14
483.711	3.16
483.913	3.2
484.114	3.22
484.315	3.19
484.517	3.17
484.718	3.17
484.92	3.2
485.121	3.21
485.322	3.19
485.524	3.22
485.725	3.26
485.926	3.24
486.127	3.21
486.329	3.19
486.53	3.26
486.731	3.25
486.932	3.24
487.134	3.26
487.335	3.25
487.536	3.34
487.737	3.33
487.938	3.27
488.139	3.28
488.341	3.33
488.542	3.38
488.743	3.34
488.944	3.37
489.145	3.39
489.346	3.33
489.547	3.34
489.748	3.28
489.949	3.31
490.15	3.31
490.351	3.32
490.552	3.32
490.753	3.32
490.954	3.33
491.155	3.31
491.356	3.32
491.557	3.39
491.758	3.43
491.959	3.51
492.159	3.54
492.36	3.57
492.561	3.64
492.762	3.69
492.963	3.67
493.164	3.67
493.364	3.61
493.565	3.66
493.766	3.63
493.967	3.5
494.167	3.39
494.368	3.33
494.569	3.33
494.769	3.3
494.97	3.29
495.171	3.33
495.371	3.35
495.572	3.43
495.773	3.48
495.973	3.53
496.174	3.64
496.375	3.71
496.575	3.74
496.776	3.78
496.976	3.83
497.177	3.78
497.377	3.82
497.578	3.85
497.778	3.86
497.979	3.8
498.179	3.72
498.38	3.7
498.58	3.76
498.78	3.78
498.981	3.79
499.181	3.75
499.382	3.77
499.582	3.79
499.782	3.74
499.983	3.71
500.183	3.72
500.383	3.8
500.584	3.81
500.784	3.72
500.984	3.73
501.184	3.74
501.385	3.8
501.585	3.79
501.785	3.81
501.985	3.88
502.185	3.99
502.386	4.02
502.586	4.03
502.786	4.01
502.986	4.04
503.186	4.04
503.386	4.04
503.586	4.01
503.786	4.09
503.987	4.15
504.187	4.2
504.387	4.18
504.587	4.2
504.787	4.17
504.987	4.17
505.187	4.22
505.387	4.24
505.587	4.17
505.786	4.22
505.986	4.17
506.186	4.08
506.386	4.06
506.586	4
506.786	3.91
506.986	3.98
507.186	4.01
507.386	4.02
507.585	4.06
507.785	4.14
507.985	4.11
508.185	4.22
508.384	4.26
508.584	4.25
508.784	4.31
508.984	4.41
509.183	4.35
509.383	4.34
509.583	4.43
509.782	4.39
509.982	4.4
510.182	4.47
510.381	4.4
510.581	4.43
510.781	4.48
510.98	4.51
511.18	4.48
511.379	4.55
511.579	4.58
511.778	4.48
511.978	4.51
512.177	4.53
512.377	4.48
512.576	4.47
512.776	4.46
512.975	4.52
513.175	4.65
513.374	4.71
513.573	4.8
513.773	4.74
513.972	4.75
514.172	4.81
514.371	4.92
514.57	5
514.77	5.08
514.969	5.1
515.168	5.03
515.367	4.91
515.567	4.9
515.766	4.84
515.965	4.96
516.164	5.02
516.364	5.04
516.563	5.06
516.762	5.1
516.961	5.09
517.16	5.12
517.359	5.18
517.559	5.24
517.758	5.27
517.957	5.34
518.156	5.37
518.355	5.39
518.554	5.41
518.753	5.31
518.952	5.27
519.151	5.29
519.35	5.29
519.549	5.38
519.748	5.34
519.947	5.4
520.146	5.37
520.345	5.35
520.544	5.37
520.743	5.27
520.942	5.32
521.141	5.34
521.339	5.4
521.538	5.4
521.737	5.31
521.936	5.39
522.135	5.29
522.333	5.33
522.532	5.35
522.731	5.33
522.93	5.45
523.129	5.51
523.327	5.54
523.526	5.52
523.725	5.6
523.923	5.57
524.122	5.59
524.321	5.59
524.519	5.63
524.718	5.63
524.917	5.66
525.115	5.64
525.314	5.61
525.512	5.62
525.711	5.65
525.909	5.62
526.108	5.65
526.306	5.61
526.505	5.62
526.703	5.62
526.902	5.65
527.1	5.67
527.299	5.68
527.497	5.74
527.696	5.81
527.894	5.85
528.092	5.9
528.291	5.94
528.489	6.01
528.688	6.07
528.886	6.13
529.084	6.17
529.283	6.21
529.481	6.26
529.679	6.32
529.877	6.33
530.076	6.32
530.274	6.33
530.472	6.34
530.67	6.4
530.869	6.46
531.067	6.46
531.265	6.44
531.463	6.45
531.661	6.45
531.859	6.44
532.057	6.47
532.255	6.54
532.454	6.57
532.652	6.62
532.85	6.62
533.048	6.66
533.246	6.7
533.444	6.78
533.642	6.85
533.84	6.96
534.038	6.95
534.236	6.93
534.434	6.94
534.632	6.95
534.83	7.01
535.027	7.08
535.225	7.13
535.423	7.13
535.621	7.17
535.819	7.2
536.017	7.22
536.215	7.38
536.412	7.44
536.61	7.51
536.808	7.5
537.006	7.57
537.203	7.55
537.401	7.57
537.599	7.65
537.797	7.7
537.994	7.72
538.192	7.74
538.39	7.63
538.587	7.59
538.785	7.61
538.983	7.69
539.18	7.63
539.378	7.64
539.575	7.61
539.773	7.66
539.97	7.65
540.168	7.64
540.366	7.69
540.563	7.74
540.761	7.82
540.958	7.87
541.155	7.95
541.353	8.06
541.55	8.19
541.748	8.3
541.945	8.36
542.143	8.39
542.34	8.5
542.537	8.5
542.735	8.6
542.932	8.65
543.129	8.7
543.327	8.79
543.524	8.79
543.721	8.78
543.919	8.8
544.116	8.93
544.313	9.05
544.51	9.09
544.708	9.26
544.905	9.3
545.102	9.32
545.299	9.39
545.496	9.38
545.693	9.41
545.891	9.45
546.088	9.55
546.285	9.56
546.482	9.64
546.679	9.75
546.876	9.77
547.073	9.92
547.27	10.03
547.467	10.06
547.664	10.13
547.861	10.21
548.058	10.33
548.255	10.4
548.452	10.42
548.649	10.45
548.846	10.61
549.043	10.66
549.24	10.67
549.437	10.81
549.633	10.9
549.83	11.06
550.027	11.19
550.224	11.2
550.421	11.34
550.618	11.37
550.814	11.54
551.011	11.48
551.208	11.62
551.405	11.68
551.601	11.7
551.798	11.7
551.995	11.75
552.191	11.86
552.388	11.93
552.585	11.86
552.781	12.02
552.978	11.94
553.175	12.08
553.371	12.21
553.568	12.27
553.764	12.35
553.961	12.53
554.157	12.58
554.354	12.64
554.55	12.76
554.747	12.89
554.943	12.78
555.14	12.95
555.336	12.92
555.533	12.94
555.729	13.04
555.926	12.99
556.122	13.05
556.318	13.16
556.515	13.3
556.711	13.38
556.907	13.57
557.104	13.82
557.3	13.93
557.496	14.01
557.693	14.07
557.889	14.18
558.085	14.39
558.281	14.45
558.478	14.61
558.674	14.63
558.87	14.69
559.066	14.77
559.262	14.93
559.459	14.99
559.655	15.2
559.851	15.23
560.047	15.36
560.243	15.37
560.439	15.5
560.635	15.58
560.831	15.69
561.027	15.74
561.223	15.78
561.419	15.83
561.615	15.92
561.811	16.04
562.007	16.27
562.203	16.26
562.399	16.49
562.595	16.57
562.791	16.48
562.987	16.6
563.183	16.67
563.379	16.73
563.575	16.71
563.771	16.85
563.966	16.89
564.162	16.89
564.358	17.02
564.554	17.04
564.75	17.09
564.945	17.21
565.141	17.26
565.337	17.37
565.533	17.41
565.728	17.55
565.924	17.54
566.12	17.6
566.315	17.78
566.511	17.83
566.707	17.99
566.902	18.08
567.098	18.14
567.293	18.27
567.489	18.29
567.684	18.43
567.88	18.51
568.076	18.61
568.271	18.64
568.467	18.63
568.662	18.76
568.858	18.71
569.053	18.76
569.248	18.98
569.444	18.97
569.639	19.11
569.835	19.18
570.03	19.32
570.225	19.4
570.421	19.48
570.616	19.51
570.812	19.63
571.007	19.89
571.202	20.01
571.397	20.06
571.593	20.16
571.788	20.29
571.983	20.35
572.178	20.44
572.374	20.58
572.569	20.74
572.764	20.78
572.959	20.79
573.154	20.63
573.35	20.64
573.545	20.68
573.74	20.77
573.935	20.83
574.13	20.91
574.325	21.02
574.52	20.99
574.715	21.01
574.91	21.13
575.105	21.22
575.3	21.33
575.495	21.45
575.69	21.48
575.885	21.55
576.08	21.53
576.275	21.6
576.47	21.39
576.665	21.46
576.86	21.52
577.055	21.44
577.25	21.39
577.444	21.54
577.639	21.66
577.834	21.72
578.029	21.78
578.224	21.85
578.418	21.82
578.613	21.97
578.808	22.08
579.003	22.13
579.197	22.35
579.392	22.5
579.587	22.5
579.781	22.51
579.976	22.58
580.171	22.69
580.365	22.8
580.56	22.85
580.755	23.02
580.949	23.12
581.144	23.19
581.338	23.24
581.533	23.38
581.727	23.4
581.922	23.42
582.116	23.53
582.311	23.47
582.505	23.51
582.7	23.66
582.894	23.7
583.089	23.62
583.283	23.62
583.478	23.79
583.672	23.81
583.866	23.83
584.061	24
584.255	23.95
584.449	23.94
584.644	24.03
584.838	23.93
585.032	24.02
585.226	24.18
585.421	24.16
585.615	23.9
585.809	23.88
586.003	24
586.198	23.96
586.392	23.92
586.586	24.02
586.78	24
586.974	24.1
587.168	23.98
587.363	23.94
587.557	24.07
587.751	24.29
587.945	24.26
588.139	24.27
588.333	24.15
588.527	24.32
588.721	24.34
588.915	24.46
589.109	24.49
589.303	24.53
589.497	24.58
589.691	24.62
589.885	24.63
590.079	24.75
590.273	24.86
590.466	25.06
590.66	25.01
590.854	25.19
591.048	25.22
591.242	25.17
591.436	25.28
591.629	25.47
591.823	25.57
592.017	25.64
592.211	25.53
592.404	25.5
592.598	25.46
592.792	25.45
592.986	25.45
593.179	25.4
593.373	25.59
593.567	25.58
593.76	25.56
593.954	25.53
594.147	25.6
594.341	25.71
594.535	25.8
594.728	25.78
594.922	25.92
595.115	25.92
595.309	25.87
595.502	25.89
595.696	25.91
595.889	25.88
596.083	25.75
596.276	25.71
596.47	25.74
596.663	25.75
596.856	25.81
597.05	25.87
597.243	25.71
597.437	25.84
597.63	25.74
597.823	25.79
598.017	25.88
598.21	26.2
598.403	26.13
598.596	26.14
598.79	26.22
598.983	26.22
599.176	26.17
599.369	26.26
599.563	26.24
599.756	26.27
599.949	26.37
600.142	26.37
600.335	26.33
600.528	26.46
600.722	26.54
600.915	26.66
601.108	26.7
601.301	26.63
601.494	26.73
601.687	26.68
601.88	26.72
602.073	26.66
602.266	26.57
602.459	26.47
602.652	26.52
602.845	26.45
603.038	26.38
603.231	26.45
603.424	26.49
603.617	26.55
603.809	26.6
604.002	26.69
604.195	26.66
604.388	26.8
604.581	26.95
604.774	27
604.966	27.06
605.159	27.05
605.352	27
605.545	27.07
605.737	27.2
605.93	27.27
606.123	27.27
606.316	27.3
606.508	27.34
606.701	27.23
606.894	27.1
607.086	27.16
607.279	27.04
607.471	27.1
607.664	27.03
607.857	26.81
608.049	26.68
608.242	26.69
608.434	26.79
608.627	26.76
608.819	26.82
609.012	26.76
609.204	26.79
609.397	26.89
609.589	26.92
609.782	27.02
609.974	27.06
610.166	27.29
610.359	27.39
610.551	27.37
610.743	27.41
610.936	27.46
611.128	27.54
611.32	27.4
611.513	27.5
611.705	27.44
611.897	27.49
612.09	27.58
612.282	27.48
612.474	27.28
612.666	27.29
612.858	27.2
613.051	27.23
613.243	27.22
613.435	27.42
613.627	27.3
613.819	27.36
614.011	27.34
614.203	27.38
614.395	27.46
614.588	27.64
614.78	27.51
614.972	27.73
615.164	27.73
615.356	27.88
615.548	27.9
615.74	27.86
615.932	27.88
616.124	27.91
616.315	27.95
616.507	27.89
616.699	27.96
616.891	28.09
617.083	28.09
617.275	27.98
617.467	27.89
617.659	27.73
617.85	27.95
618.042	27.95
618.234	27.83
618.426	27.77
618.618	27.82
618.809	27.79
619.001	27.71
619.193	27.62
619.384	27.63
619.576	27.84
619.768	27.94
619.959	27.96
620.151	27.89
620.343	28.1
620.534	28.21
620.726	28.25
620.917	28.05
621.109	28.28
621.301	28.15
621.492	28.16
621.684	28.11
621.875	28.2
622.067	28.08
622.258	28.21
622.45	28.3
622.641	28.09
622.832	28.23
623.024	28.53
623.215	28.48
623.407	28.68
623.598	28.74
623.789	28.74
623.981	28.7
624.172	28.56
624.363	28.37
624.555	28.2
624.746	28.37
624.937	28.13
625.129	27.99
625.32	27.91
625.511	27.84
625.702	27.93
625.893	27.96
626.085	27.98
626.276	28.04
626.467	28.24
626.658	28.27
626.849	28.3
627.04	28.52
627.231	28.63
627.422	28.6
627.614	28.68
627.805	28.76
627.996	28.64
628.187	28.61
628.378	28.83
628.569	28.75
628.76	28.89
628.951	28.85
629.142	28.69
629.332	28.73
629.523	29.06
629.714	29.17
629.905	28.92
630.096	29.03
630.287	29.01
630.478	28.88
630.669	29.04
630.859	28.82
631.05	28.67
631.241	28.63
631.432	28.53
631.623	28.19
631.813	28.06
632.004	28.2
632.195	28.14
632.385	28.1
632.576	28.2
632.767	28.15
632.957	28.28
633.148	28.54
633.339	28.69
633.529	28.78
633.72	28.88
633.91	29
634.101	28.98
634.292	29.2
634.482	29.27
634.673	29.17
634.863	29.05
635.054	28.97
635.244	28.89
635.435	28.86
635.625	28.79
635.815	28.85
636.006	28.63
636.196	28.61
636.387	28.73
636.577	28.83
636.767	29.06
636.958	29.15
637.148	29.21
637.338	29.41
637.529	29.49
637.719	29.67
637.909	29.57
638.099	29.86
638.29	29.94
638.48	29.78
638.67	29.7
638.86	29.37
639.05	29.49
639.241	29.51
639.431	29.4
639.621	29.43
639.811	29.36
640.001	29.56
640.191	29.33
640.381	29.29
640.571	29.31
640.761	29.52
640.951	29.84
641.141	29.8
641.331	29.91
641.521	29.91
641.711	29.97
641.901	29.84
642.091	30.02
642.281	30.17
642.471	30.23
642.661	30.02
642.851	29.91
643.041	29.78
643.231	29.79
643.42	29.59
643.61	29.23
643.8	29.3
643.99	29.39
644.18	29.2
644.369	29.13
644.559	29.04
644.749	29.13
644.939	29.04
645.128	29.07
645.318	29.23
645.508	29.31
645.697	29.56
645.887	29.4
646.076	29.19
646.266	29.1
646.456	29.07
646.645	29.12
646.835	29.12
647.024	29.28
647.214	29.09
647.403	29.01
647.593	28.86
647.782	28.91
647.972	28.84
648.161	29.12
648.351	29.14
648.54	29.18
648.73	29.27
648.919	29.44
649.108	29.5
649.298	29.7
649.487	29.7
649.677	29.99
649.866	30.05
650.055	30.27
650.244	30.22
650.434	30.44
650.623	30.71
650.812	30.84
651.002	30.61
651.191	30.46
651.38	30.47
651.569	30.38
651.758	30.41
651.947	30.53
652.137	30.39
652.326	30.45
652.515	30.35
652.704	30.13
652.893	29.91
653.082	30.14
653.271	30.15
653.46	30.23
653.649	30.23
653.838	29.99
654.027	29.83
654.216	29.96
654.405	30
654.594	29.85
654.783	29.94
654.972	30.04
655.161	30.04
655.35	30.02
655.539	29.79
655.728	29.9
655.916	29.86
656.105	29.97
656.294	29.84
656.483	29.5
656.672	29.46
656.86	29.34
657.049	29.32
657.238	29.26
657.427	29.3
657.615	29.33
657.804	29.25
657.993	29.3
658.181	29.37
658.37	29.41
658.559	29.46
658.747	29.54
658.936	29.59
659.125	29.92
659.313	29.88
659.502	30.03
659.69	30.03
659.879	30.12
660.067	30.28
660.256	30.03
660.444	30.01
660.633	29.98
660.821	30.2
661.01	30.15
661.198	29.86
661.387	30.01
661.575	30.02
661.763	30.21
661.952	30.31
662.14	30.07
662.328	30.29
662.517	30.33
662.705	30.7
662.893	30.54
663.082	30.71
663.27	30.53
663.458	30.31
663.646	30.05
663.834	30.09
664.023	29.92
664.211	29.94
664.399	29.96
664.587	29.89
664.775	29.78
664.963	29.84
665.152	29.77
665.34	29.67
665.528	29.68
665.716	29.8
665.904	29.62
666.092	29.69
666.28	29.84
666.468	29.67
666.656	29.62
666.844	29.53
667.032	29.56
667.22	29.43
667.408	29.46
667.596	29.79
667.784	29.73
667.971	29.95
668.159	29.8
668.347	29.93
668.535	30.09
668.723	30.28
668.911	30.49
669.098	30.29
669.286	30.45
669.474	30.88
669.662	30.63
669.849	30.87
670.037	30.86
670.225	31.19
670.413	30.94
670.6	30.65
670.788	30.72
670.976	30.67
671.163	30.82
671.351	30.73
671.538	30.53
671.726	30.38
671.913	30.12
672.101	29.87
672.289	29.75
672.476	29.72
672.664	29.88
672.851	29.65
673.039	29.57
673.226	29.61
673.413	29.66
673.601	29.35
673.788	29.36
673.976	29.45
674.163	29.6
674.35	29.25
674.538	29.34
674.725	29.36
674.912	29.36
675.1	29.26
675.287	29.09
675.474	29.02
675.662	29.14
675.849	29.32
676.036	29.44
676.223	29.43
676.411	29.89
676.598	29.94
676.785	30.08
676.972	30.28
677.159	30.41
677.346	30.62
677.533	30.79
677.721	30.76
677.908	30.84
678.095	30.69
678.282	30.74
678.469	30.66
678.656	30.71
678.843	30.75
679.03	30.61
679.217	30.58
679.404	30.19
679.591	30.1
679.778	30.23
679.964	30.09
680.151	30.23
680.338	30.18
680.525	30.2
680.712	30.24
680.899	29.96
681.086	29.92
681.272	29.98
681.459	30.39
681.646	30.49
681.833	30.32
682.02	30.64
682.206	30.65
682.393	30.43
682.58	30.5
682.766	30.5
682.953	30.64
683.14	30.69
683.326	30.97
683.513	30.84
683.7	30.56
683.886	30.89
684.073	30.99
684.259	30.75
684.446	30.9
684.632	30.79
684.819	30.86
685.005	31
685.192	30.8
685.378	30.61
685.565	30.93
685.751	31.1
685.938	30.94
686.124	30.51
686.31	30.55
686.497	30.48
686.683	30.6
686.87	30.43
687.056	30.32
687.242	30.3
687.429	30.5
687.615	30.3
687.801	30.53
687.987	30.43
688.174	30.81
688.36	31.06
688.546	31.31
688.732	31.26
688.918	31.08
689.105	31.02
689.291	31.46
689.477	31.43
689.663	31.63
689.849	31.32
690.035	31.32
690.221	31.27
690.407	31.2
690.593	31.08
690.779	31.1
690.965	31.37
691.151	31.4
691.337	31.44
691.523	31.17
691.709	31.15
691.895	31.26
692.081	31.26
692.267	31.28
692.453	31.4
692.639	31.58
692.825	31.52
693.011	31.63
693.196	31.91
693.382	31.71
693.568	31.93
693.754	31.89
693.94	31.89
694.125	32.08
694.311	32
694.497	31.73
694.682	31.25
694.868	31.06
695.054	31.03
695.239	31.21
695.425	31.07
695.611	31.01
695.796	30.69
695.982	30.69
696.168	30.78
696.353	30.49
696.539	30.35
696.724	30.42
696.91	30.53
697.095	30.56
697.281	30.35
697.466	30.44
697.652	30.46
697.837	30.63
698.023	30.7
698.208	30.57
698.393	30.67
698.579	30.79
698.764	30.89
698.949	31.04
699.135	31.13
699.32	31.21
699.505	31.13
699.691	31.04
699.876	31.03
700.061	30.98
700.246	30.78
700.432	30.91
700.617	30.93
700.802	30.94
700.987	30.7
701.172	30.48
701.358	30.56
701.543	30.65
701.728	30.49
701.913	30.51
702.098	30.67
702.283	30.87
702.468	31.04
702.653	31.18
702.838	31.62
703.023	31.42
703.208	31.42
703.393	31.28
703.578	31.37
703.763	31.32
703.948	31.52
704.133	31.1
704.318	31.5
704.503	31.24
704.688	31.21
704.873	31.1
705.057	31.03
705.242	31.34
705.427	31.25
705.612	30.99
705.797	31.16
705.981	30.92
706.166	31.11
706.351	31.28
706.536	31.25
706.72	31.17
706.905	30.92
707.09	31.48
707.274	31.11
707.459	31.24
707.644	31.36
707.828	31.33
708.013	31.5
708.197	31.84
708.382	31.3
708.567	31.28
708.751	31.32
708.936	31.58
709.12	31.41
709.305	31.47
709.489	31.37
709.673	31.45
709.858	31.41
710.042	30.95
710.227	30.46
710.411	30.35
710.596	30.21
710.78	30.39
710.964	30.12
711.149	30.36
711.333	30.48
711.517	30.48
711.702	30.41
711.886	30.26
712.07	30.54
712.254	30.88
712.438	30.99
712.623	30.94
712.807	30.65
712.991	30.76
713.175	30.58
713.359	30.36
713.544	30.33
713.728	30.33
713.912	30.16
714.096	30.08
714.28	30.14
714.464	30.37
714.648	30.5
714.832	30.37
715.016	30.28
715.2	29.85
715.384	29.76
715.568	29.55
715.752	29.53
715.936	29.94
716.12	29.9
716.304	29.82
716.488	29.71
716.671	29.81
716.855	29.69
717.039	29.88
717.223	30.41
717.407	30.65
717.59	30.94
717.774	30.89
717.958	31.06
718.142	31.2
718.325	30.81
718.509	31.04
718.693	31.02
718.877	31.69
719.06	31.62
719.244	31.21
719.428	31.46
719.611	31.34
719.795	31.55
719.978	30.98
720.162	30.67
720.345	30.93
720.529	30.69
720.713	30.32
720.896	29.88
721.08	29.56
721.263	30.05
721.446	29.53
721.63	29.55
721.813	29.69
721.997	29.97
722.18	30.51
722.364	30.76
722.547	30.44
722.73	31.16
722.914	31.26
723.097	31.56
723.28	30.97
723.464	31.14
723.647	31.13
723.83	30.83
724.013	31.15
724.197	30.84
724.38	30.86
724.563	31.14
724.746	30.81
724.929	31.14
725.112	31.4
725.296	31.47
725.479	31.7
725.662	31.68
725.845	31.65
726.028	31.41
726.211	31.71
726.394	31.77
726.577	31.71
726.76	31.65
726.943	31.29
727.126	30.96
727.309	31.1
727.492	30.8
727.675	30.93
727.858	30.85
728.041	31.3
728.224	31.12
728.407	31.1
728.589	30.74
728.772	30.81
728.955	30.9
729.138	30.96
729.321	31.01
729.503	31.2
729.686	31.21
729.869	31.45
730.052	31.14
730.234	30.79
730.417	30.24
730.6	30.83
730.782	30.76
730.965	30.71
731.148	30.6
731.33	30.73
731.513	30.92
731.695	30.81
731.878	30.37
732.061	30.18
732.243	30.27
732.426	30.53
732.608	30.41
732.791	30.12
732.973	29.97
733.156	30.16
733.338	29.9
733.52	29.88
733.703	29.83
733.885	30.22
734.068	30.58
734.25	30.99
734.432	31.11
734.615	31.08
734.797	31.52
734.979	32.32
735.162	32.21
735.344	32.33
735.526	31.89
735.708	32.12
735.891	32.04
736.073	31.94
736.255	31.59
736.437	31.2
736.619	31.39
736.802	31.19
736.984	30.34
737.166	30.13
737.348	30.25
737.53	30.4
737.712	30.43
737.894	30.45
738.076	30.44
738.258	30.28
738.44	30.59
738.622	30.72
738.804	30.76
738.986	31.61
739.168	31.48
739.35	31.18
739.532	30.65
739.714	30.73
739.896	30.43
740.078	30
740.259	30.68
740.441	30.99
740.623	30.73
740.805	30.81
740.987	30.16
741.168	30.69
741.35	31.09
741.532	31.93
741.714	32.09
741.895	32.85
742.077	33.45
742.259	33.42
742.44	33.56
742.622	33.47
742.804	33.16
742.985	33.09
743.167	32.91
743.348	32.62
743.53	32.36
743.711	32.13
743.893	31.45
744.075	31.87
744.256	31.56
744.438	31.06
744.619	31.62
744.8	31.44
744.982	32.09
745.163	32.28
745.345	32.33
745.526	32.26
745.707	32.44
745.889	33.08
746.07	31.67
746.252	31.47
746.433	31.71
746.614	30.95
746.795	31.39
746.977	30.95
747.158	30.51
747.339	30.94
747.52	31.11
747.702	31.29
747.883	31.11
748.064	32.06
748.245	32.63
748.426	32.93
748.607	33.26
748.788	33.38
748.97	32.85
749.151	33.08
749.332	32.8
749.513	33.4
749.694	33.07
749.875	33
750.056	32.76
750.237	33.09
750.418	32.2
750.599	31.93
750.78	32.5
750.96	32.48
751.141	32.27
751.322	31.84
751.503	31.24
751.684	31.62
751.865	31.16
752.046	31.49
752.226	31.25
752.407	31.27
752.588	30.93
752.769	30.5
752.949	30.94
753.13	31.46
753.311	32.12
753.492	32.15
753.672	31.51
753.853	31.72
754.034	31.22
754.214	31.13
754.395	31.25
754.575	31.29
754.756	30.95
754.937	31.23
755.117	31.2
755.298	31.29
755.478	30.98
755.659	31.56
755.839	31.74
756.02	31.69
756.2	31.17
756.381	31.13
756.561	31.57
756.741	32.19
756.922	31.95
757.102	31.84
757.283	31.37
757.463	31.62
757.643	31.32
757.823	31.68
758.004	32.14
758.184	32.51
758.364	32.83
758.545	33.07
758.725	32.63
758.905	33.2
759.085	32.64
759.265	32.53
759.446	32.8
759.626	32.6
759.806	32.02
759.986	31.9
760.166	31.6
760.346	31.11
760.526	30.99
760.706	31
760.886	30.47
761.066	31.2
761.246	31.05
761.426	31.43
761.606	31.06
761.786	31.2
761.966	30.92
762.146	31.09
762.326	30.74
762.506	30.62
762.686	30.52
762.866	30.53
763.046	30.39
763.225	30.32
763.405	30.26
763.585	31.01
763.765	30.86
763.945	30.86
764.124	30.55
764.304	31.22
764.484	31.16
764.664	31.48
764.843	31.63
765.023	31.23
765.203	31.39
765.382	30.66
765.562	30.09
765.741	29.97
765.921	29.77
766.101	29.72
766.28	29.28
766.46	28.79
766.639	28.88
766.819	28.03
766.998	28.52
767.178	28.84
767.357	29.12
767.537	28.93
767.716	30.05
767.896	30.73
768.075	31.31
768.254	31.75
768.434	32.25
768.613	31.93
768.792	32.28
768.972	32.29
769.151	32.06
769.33	32.79
769.51	32.38
769.689	31.2
769.868	30.69
770.047	31.14
770.226	30.96
770.406	31.51
770.585	31.85
770.764	32.18
770.943	31.7
771.122	31.86
771.301	30.91
771.48	31.32
771.66	32.03
771.839	31.85
772.018	31.19
772.197	30.93
772.376	30.35
772.555	29.8
772.734	29.55
772.913	29.5
773.092	29.19
773.271	29.65
773.449	30.28
773.628	29.9
773.807	30.3
773.986	30.03
774.165	30.41
774.344	30.25
774.523	29.94
774.701	30.13
774.88	30.55
775.059	30.39
775.238	30.53
775.417	29.91
775.595	30.36
775.774	30.44
775.953	30.94
776.131	30.35
776.31	30.71
776.489	31.19
776.667	31.25
776.846	31.18
777.025	31.91
777.203	31.64
777.382	31.43
777.56	31.34
777.739	31.13
777.917	29.88
778.096	30.78
778.274	31.05
778.453	30.91
778.631	31.07
778.81	31.37
778.988	30.55
779.166	30.26
779.345	30.46
779.523	30.33
779.702	30.77
779.88	32.08
780.058	31.86
780.237	31.7
780.415	31.44
780.593	31.07
780.771	31.05
780.95	32.46
781.128	32.25
781.306	33
781.484	33.01
781.662	33.16
781.841	32.75
782.019	32.81
782.197	32.6
782.375	33.06
782.553	33.42
782.731	33.23
782.909	32.57
783.087	33.41
783.265	32.88
783.443	31.67
783.621	30.88
783.799	31.12
783.977	30.43
784.155	30.9
784.333	30.41
784.511	30.45
784.689	31.03
784.867	30.82
785.045	29.86
785.223	29.86
785.4	31.36
785.578	32
785.756	31.86
785.934	31.19
786.112	30.8
786.289	31.04
786.467	30.76
786.645	30.67
786.823	30.66
787	31.4
787.178	31.49
787.356	31.99
787.533	31.57
787.711	31.04
787.889	31.21
788.066	30.85
788.244	31.59
788.421	32.13
788.599	31.26
788.776	31.51
788.954	30.54
789.131	29.49
789.309	28.4
789.486	29
789.664	30.2
789.841	31.54
790.019	31.68
790.196	31.74
790.373	31.45
790.551	31.95
790.728	31.1
790.906	32.08
791.083	31.96
791.26	31.67
791.437	31.26
791.615	30.63
791.792	31.02
791.969	31.1
792.146	30.12
792.324	29.74
792.501	29.71
792.678	30.69
792.855	31.17
793.032	32.13
793.209	32.06
793.387	32.01
793.564	31.39
793.741	29.98
793.918	30.75
794.095	31.69
794.272	31.85
794.449	32.16
794.626	32.36
794.803	32.67
794.98	33.42
795.157	34.97
795.334	35.76
795.511	37.1
795.688	37.16
795.864	36.66
796.041	36.62
796.218	36.58
796.395	35.75
796.572	35.48
796.749	34.25
796.925	34.02
797.102	33.07
797.279	32.01
797.456	31.64
797.632	32.65
797.809	32.96
797.986	32.69
798.162	32.71
798.339	33.87
798.516	33.77
798.692	34.22
798.869	34.12
799.046	34.44
799.222	34.89
799.399	34.69
799.575	34.98
799.752	35.39
799.928	34.96
800.105	35.23
800.281	34.7
800.458	33.66
800.634	34.29
800.811	33.77
800.987	32.66
801.163	32.37
801.34	31.93
801.516	31.58
801.692	31.64
801.869	31.34
802.045	31.14
802.221	31.37
802.398	33.34
802.574	31.85
802.75	32.31
802.926	33.38
803.103	33.89
803.279	33.68
803.455	33.19
803.631	33.47
803.807	33.35
803.983	33.32
804.16	32.9
804.336	32.17
804.512	33.4
804.688	32.94
804.864	33.19
805.04	33.23
805.216	34.01
805.392	33.29
805.568	32.2
805.744	32.83
805.92	33.11
806.096	32.91
806.272	31.36
806.448	31.11
806.623	31.72
806.799	31.89
806.975	31.96
807.151	31.53
807.327	31.64
807.503	31.95
807.678	31.47
807.854	31.45
808.03	32.37
808.206	33.86
808.381	33.17
808.557	33.39
808.733	32.1
808.908	30.55
809.084	30.49
809.26	30.77
809.435	30.95
809.611	31.37
809.787	30.35
809.962	30.67
810.138	29.49
810.313	30.15
810.489	29.26
810.664	29.41
810.84	30.99
811.015	31.98
811.191	32.05
811.366	31.76
811.542	31.93
811.717	33.64
811.892	32.85
812.068	33.79
812.243	34.49
812.419	35.31
812.594	34.93
812.769	33.73
812.944	31.83
813.12	32.85
813.295	33.27
813.47	32.78
813.645	31.89
813.821	31.3
813.996	31.56
814.171	31.54
814.346	30.79
814.521	32.15
814.697	33.82
814.872	34.77
815.047	34.28
815.222	33.42
815.397	33.67
815.572	34.89
815.747	36.1
815.922	35.67
816.097	35.07
816.272	33.31
816.447	31.48
816.622	31.58
816.797	31
816.972	30.93
817.147	31.34
817.322	31.86
817.496	30.99
817.671	30.81
817.846	31.05
818.021	31.14
818.196	33.22
818.371	34.4
818.545	32.77
818.72	32.91
818.895	31.99
819.069	31.7
819.244	31.48
819.419	31.11
819.594	30.01
819.768	30.52
819.943	31.06
820.117	30.38
820.292	30.39
820.467	30.32
820.641	30.05
820.816	30.31
820.99	30.15
821.165	29.72
821.339	29.49
821.514	29.82
821.688	29.57
821.863	29.3
822.037	29.43
822.212	29.49
822.386	29.37
822.56	29.43
822.735	29.48
822.909	29.52
823.084	29.7
823.258	29.92
823.432	29.76
823.606	29.79
823.781	29.82
823.955	29.85
824.129	29.83
824.303	30.23
824.478	30.39
824.652	30.15
824.826	29.97
825	30.1
825.174	30.19
825.348	30.1
825.523	29.95
825.697	29.59
825.871	29.85
826.045	29.55
826.219	29.41
826.393	29.54
826.567	29.85
826.741	30.14
826.915	30.05
827.089	30.3
827.263	30.49
827.437	30.34
827.611	30.27
827.784	29.97
827.958	29.95
828.132	29.92
828.306	29.38
828.48	29.57
828.654	29.86
828.827	29.79
829.001	29.41
829.175	29.03
829.349	30.02
829.522	30.13
829.696	30.91
829.87	31.7
830.044	31.68
830.217	32.12
830.391	31.22
830.565	30.64
830.738	31.66
830.912	31.81
831.085	32.65
831.259	32.16
831.432	32.93
831.606	32.92
831.779	31.54
831.953	32.52
832.126	32.37
832.3	32.12
832.473	32.02
832.647	30.89
832.82	30.82
832.994	31.06
833.167	30.62
833.34	30.41
833.514	29.52
833.687	29.52
833.86	28.99
834.034	29.18
834.207	29.62
834.38	30.73
834.553	31.14
834.727	31.14
834.9	30.78
835.073	30.73
835.246	31.03
835.419	31.36
835.593	32.38
835.766	32.94
835.939	33.18
836.112	33.27
836.285	32.56
836.458	33.23
836.631	33.51
836.804	33.83
836.977	35.4
837.15	35.91
837.323	35.77
837.496	35.86
837.669	36.03
837.842	36.07
838.015	36.34
838.188	36.48
838.361	34.45
838.533	33.92
838.706	34.09
838.879	33.82
839.052	34.21
839.225	34.94
839.398	35.9
839.57	35.03
839.743	34.75
839.916	34.82
840.088	33.44
840.261	35.49
840.434	35.64
840.607	35
840.779	34.55
840.952	33.44
841.124	33.22
841.297	32.02
841.47	33.36
841.642	35.21
841.815	34.35
841.987	35.24
842.16	34.16
842.332	34.49
842.505	34.59
842.677	34.71
842.85	35.36
843.022	35.41
843.194	33.51
843.367	31.67
843.539	28.87
843.712	30.41
843.884	32.43
844.056	31.99
844.229	33.91
844.401	36.6
844.573	35.07
844.745	35.81
844.918	35.99
845.09	39.83
845.262	42.95
845.434	42.18
845.606	40.12
845.779	37.47
845.951	36.8
846.123	32.44
846.295	29.12
846.467	30.41
846.639	29.69
846.811	30.55
846.983	29.84
847.155	28.69
847.327	31.33
847.499	33.96
847.671	38.69
847.843	39.57
848.015	42.26
848.187	42.66
848.359	42.3
848.531	41.51
848.703	40.48
848.875	39.74
849.047	39.02
849.218	37.4
849.39	38.78
849.562	35.36
849.734	36.36
849.905	35.48
850.077	37.04
850.249	37.26
850.421	38.87
850.592	39.08
850.764	38.56
850.936	39.52
851.107	41.16
851.279	40.57
851.451	38.76
851.622	40.18
851.794	41.94
851.965	40.31
852.137	41.87
852.308	41.55
852.48	41.76
852.651	42.02
852.823	39.69
852.994	36.06
853.166	32.14
853.337	34.16
853.509	31.84
853.68	31.65
853.851	32.07
854.023	33.79
854.194	34.94
854.365	33.05
854.537	37.65
854.708	37.34
854.879	42.23
855.05	44.12
855.222	45.06
855.393	44.99
855.564	41.48
855.735	41.98
855.906	40.04
856.078	37.17
856.249	37.36
856.42	33.72
856.591	31.64
856.762	29.36
856.933	33.84
857.104	30.06
857.275	32.76
857.446	37.51
857.617	38.32
857.788	34.34
857.959	33.95
858.13	35.03
858.301	35.05
858.472	40
858.643	42.19
858.814	38.7
858.985	39.79
859.155	38.02
859.326	36.38
859.497	37.02
859.668	41.23
859.839	46.5
860.009	46.03
860.18	45.07
860.351	42.77
860.522	38.97
860.692	38.28
860.863	40.45
861.034	39.14
861.204	41.27
861.375	39.88
861.546	36.81
861.716	32.52
861.887	35.89
862.057	33.63
862.228	36.92
862.398	36.99
862.569	36.5
862.739	34.59
862.91	35.98
863.08	31.25
863.251	33.21
863.421	38.03
863.592	37.12
863.762	35.29
863.932	39.01
864.103	39.44
864.273	39.9
864.443	38.21
864.614	38.32
864.784	39.25
864.954	43.25
865.125	47.14
865.295	45.56
865.465	51.36
865.635	53.95
865.805	51.6
865.976	45.35
866.146	48.33
866.316	53.13
866.486	52.32
866.656	53.58
866.826	51.04
866.996	45.4
867.166	44.08
867.336	39.57
867.506	40.68
867.676	42.44
867.846	45.24
868.016	46.86
868.186	44.62
868.356	43.28
868.526	42.1
868.696	44.04
868.866	49.02
869.036	52.32
869.206	54.86
869.376	47.84
869.545	44.61
869.715	41.95
869.885	36.35
870.055	38.56
870.224	43.15
870.394	42.56
870.564	44
870.734	39.68
870.903	39.86
871.073	42.46
871.243	44.76
871.412	46.45
871.582	53.04
871.751	53.52
871.921	53.2
872.091	52.66
872.26	52.36
872.43	53.44
872.599	56.29
872.769	53.98
872.938	52.19
873.108	52.85
873.277	52.95
873.446	43.6
873.616	43.75
873.785	46.04
873.955	44.68
874.124	42.52
874.293	38.66
874.463	35.06
874.632	34.25
874.801	33.31
874.971	31.63
875.14	29.29
875.309	34.5
875.478	33.97
875.647	34.86
875.817	34.43
875.986	36.19
876.155	31.11
876.324	34.74
876.493	30.9
876.662	32.31
876.831	30.23
877	31.22
877.17	31.99
877.339	35.47
877.508	31.8
877.677	30.73
877.846	29.54
878.015	34.77
878.184	36.27
878.352	39.11
878.521	35.78
878.69	40.53
878.859	41.93
879.028	40.26
879.197	38.74
879.366	38.8
879.534	36.54
879.703	36.77
879.872	36.36
880.041	33.25
880.21	32.57
880.378	33.28
880.547	29.93
880.716	29.33
880.884	29.27
881.053	28.35
881.222	28.01
881.39	28.45
881.559	28.13
881.727	28.67
881.896	28.98
882.065	28.81
882.233	28.21
882.402	29.37
882.57	28.8
882.739	28.96
882.907	30.12
883.076	30.01
883.244	30.72
883.412	30.31
883.581	30.14
883.749	29.47
883.918	29.62
884.086	30.9
884.254	31.38
884.423	32.33
884.591	32.45
884.759	31.61
884.927	31.64
885.096	31.55
885.264	32.41
885.432	31.28
885.6	34.06
885.769	33.39
885.937	31.61
886.105	30.64
886.273	30.65
886.441	29.97
886.609	28.26
886.777	27.82
886.945	25.41
887.113	25.81
887.281	26.64
887.449	25.07
887.617	28.13
887.785	32.09
887.953	31.16
888.121	33.53
888.289	36.45
888.457	40.48
888.625	41.46
888.793	43.33
888.961	48.75
889.129	54.06
889.296	54.96
889.464	56.69
889.632	54.36
889.8	57.72
889.967	56.87
890.135	59
