Data from 2938523_Reflection_1.txt Node
Date: Tue Jun 16 22:09:48 EDT 2015
User: robert
Spectrometer: USB4E03002
Autoset integration time: false
Trigger mode: 4
Integration Time (sec): 1.000000E-1
Scans to average: 10
Electric dark correction enabled: true
Nonlinearity correction enabled: false
Boxcar width: 5
Stray light correction enabled: false
XAxis mode: Wavelengths
Stop averaging: false
Number of Pixels in Spectrum: 3648
>>>>>Begin Spectral Data<<<<<
177.575	-86.52
177.794	-57.66
178.014	31.73
178.233	48.32
178.452	47.15
178.672	37.7
178.891	143.75
179.11	1209.09
179.33	2549.15
179.549	637.35
179.768	349.96
179.987	501.78
180.207	391.39
180.426	143.31
180.645	126.89
180.864	130.09
181.084	145.75
181.303	108.87
181.522	92.69
181.741	90.91
181.96	76.95
182.179	60.54
182.398	57.68
182.618	55.81
182.837	36.03
183.056	30.83
183.275	35.81
183.494	29.85
183.713	22.14
183.932	20.45
184.151	10.84
184.37	23.89
184.589	37.39
184.808	30.69
185.027	49.34
185.246	71.6
185.465	66.4
185.684	63.63
185.903	66.08
186.122	68.32
186.341	72.13
186.56	107.11
186.779	107.86
186.998	65.09
187.216	69.53
187.435	16.57
187.654	94.89
187.873	168.38
188.092	216.6
188.311	-59.26
188.53	-76.74
188.748	-136.03
188.967	-976.04
189.186	120.36
189.405	87.81
189.623	93.79
189.842	102.53
190.061	52.66
190.28	42.39
190.498	33.5
190.717	58.03
190.936	54.13
191.154	57.36
191.373	77.06
191.592	67.44
191.81	54.01
192.029	51.22
192.248	48.48
192.466	75.11
192.685	66.5
192.904	79.85
193.122	68.2
193.341	77.61
193.559	69.11
193.778	75.38
193.996	111.32
194.215	149.07
194.433	142.02
194.652	135.2
194.87	120.17
195.089	128.13
195.307	119.48
195.526	118.74
195.744	112.7
195.963	109.02
196.181	89.67
196.399	81.71
196.618	61.41
196.836	58.48
197.055	70.92
197.273	66.85
197.491	53.09
197.71	57.51
197.928	54.25
198.146	52.84
198.365	50.67
198.583	44.03
198.801	43.33
199.019	47.93
199.238	49.4
199.456	20.81
199.674	30.67
199.892	46.53
200.111	37.06
200.329	40.22
200.547	30.44
200.765	17.38
200.983	30.33
201.202	31.42
201.42	32.77
201.638	31.23
201.856	43.41
202.074	33.72
202.292	4.3
202.51	28.18
202.728	37.61
202.946	47.18
203.165	59.94
203.383	80.89
203.601	84.46
203.819	75.28
204.037	58.89
204.255	52.16
204.473	38.76
204.691	46.47
204.909	42.05
205.127	20.36
205.345	25.26
205.562	46.08
205.78	38.81
205.998	36
206.216	42.54
206.434	55.1
206.652	66.29
206.87	69.43
207.088	68.92
207.306	73.96
207.523	84.38
207.741	81.14
207.959	72.22
208.177	68.05
208.395	71.31
208.612	73.06
208.83	70.33
209.048	59.31
209.266	64.16
209.483	60.08
209.701	52.39
209.919	38.36
210.136	45.74
210.354	41.66
210.572	49.35
210.79	54.01
211.007	41.5
211.225	46.27
211.442	48.07
211.66	50.27
211.878	53.9
212.095	125.21
212.313	147.56
212.53	156.68
212.748	150.23
212.966	143.18
213.183	131.2
213.401	161.02
213.618	147.26
213.836	150.49
214.053	123.73
214.271	127.84
214.488	40.02
214.705	33.2
214.923	41.41
215.14	36.9
215.358	37.48
215.575	40.96
215.793	34.51
216.01	25.39
216.227	50.46
216.445	57.33
216.662	60.84
216.879	57.96
217.097	63.79
217.314	62.25
217.531	58.08
217.749	61.94
217.966	60.51
218.183	57.44
218.4	52.95
218.618	50.02
218.835	48.96
219.052	41.75
219.269	45.27
219.487	42.37
219.704	42.27
219.921	43.27
220.138	43.29
220.355	36.99
220.572	45.34
220.79	50.22
221.007	44.67
221.224	40.13
221.441	38.54
221.658	38.75
221.875	38.48
222.092	27.79
222.309	30.72
222.526	23.5
222.743	24.74
222.96	20.49
223.177	19.59
223.394	13.8
223.611	20.77
223.828	22.51
224.045	21.61
224.262	24.84
224.479	26.82
224.696	25.1
224.913	26.34
225.13	24.16
225.347	23.32
225.564	21.58
225.781	22.9
225.997	21.42
226.214	20.27
226.431	17.91
226.648	15.74
226.865	16.39
227.082	15.74
227.298	14.05
227.515	14.13
227.732	14.16
227.949	14.79
228.165	14.35
228.382	14.09
228.599	13.96
228.816	14.4
229.032	13.83
229.249	11.88
229.466	11.69
229.682	13.64
229.899	13.94
230.116	12.35
230.332	12.3
230.549	12.1
230.765	11.56
230.982	13.51
231.199	14.44
231.415	16.46
231.632	18.49
231.848	19.02
232.065	16.09
232.281	17.93
232.498	19.02
232.714	19.31
232.931	19.69
233.147	18.8
233.364	16.94
233.58	16.22
233.797	16.06
234.013	16.82
234.23	17.44
234.446	19.53
234.662	18.73
234.879	18.29
235.095	17.36
235.312	16.41
235.528	19.4
235.744	19.92
235.961	21.09
236.177	20.19
236.393	19.18
236.61	19.16
236.826	20.34
237.042	20.22
237.258	20.73
237.475	20.73
237.691	21.13
237.907	20.4
238.123	20.3
238.339	19.6
238.556	17.97
238.772	17.85
238.988	16.28
239.204	14.48
239.42	13.49
239.636	13.08
239.853	12.37
240.069	11.75
240.285	11.28
240.501	10.16
240.717	9.75
240.933	9.82
241.149	9.88
241.365	10.46
241.581	10.25
241.797	10.41
242.013	10.41
242.229	10.75
242.445	10.13
242.661	9.21
242.877	10
243.093	10.32
243.309	10.34
243.525	9.61
243.741	8.91
243.957	8.97
244.173	8.36
244.388	8.4
244.604	8.04
244.82	8.63
245.036	8.92
245.252	8.84
245.468	8.52
245.683	8.5
245.899	8.43
246.115	8.69
246.331	8.56
246.547	8.81
246.762	9.24
246.978	9.36
247.194	9.31
247.409	9.27
247.625	9.63
247.841	9.81
248.057	10.35
248.272	10.33
248.488	10.28
248.703	10.65
248.919	9.9
249.135	8.5
249.35	7.85
249.566	7.56
249.782	7.55
249.997	7.47
250.213	7.26
250.428	6.39
250.644	6.79
250.859	6.82
251.075	7.1
251.29	7.65
251.506	8
251.721	8.08
251.937	8.85
252.152	9.29
252.368	8.11
252.583	8.86
252.798	10.18
253.014	10.54
253.229	9.42
253.445	8.82
253.66	8.76
253.875	8.57
254.091	9.48
254.306	8.89
254.521	8.2
254.737	8.37
254.952	7.45
255.167	6.77
255.383	6.95
255.598	7.08
255.813	7.3
256.028	7.27
256.244	7.13
256.459	7.11
256.674	6.79
256.889	6.59
257.104	6.95
257.32	7.24
257.535	6.68
257.75	6.48
257.965	6.79
258.18	6.92
258.395	6.99
258.61	6.77
258.826	6.64
259.041	6.87
259.256	6.87
259.471	6.9
259.686	7.02
259.901	7.16
260.116	7.33
260.331	7.12
260.546	6.82
260.761	6.86
260.976	7.39
261.191	7.81
261.406	7.98
261.621	8.07
261.836	7.95
262.05	7.71
262.265	8.38
262.48	8.53
262.695	8.7
262.91	8.84
263.125	8.94
263.34	8.8
263.555	8.36
263.769	7.93
263.984	8.26
264.199	8.15
264.414	7.69
264.629	7.51
264.843	7.43
265.058	7.79
265.273	7.3
265.488	7
265.702	6.89
265.917	7.46
266.132	7.46
266.346	7.18
266.561	7.26
266.776	6.97
266.99	6.96
267.205	6.73
267.42	5.88
267.634	6.41
267.849	6.36
268.063	6.39
268.278	5.67
268.492	5.77
268.707	6.34
268.922	6.12
269.136	6.57
269.351	6.04
269.565	5.9
269.78	6.31
269.994	6.09
270.209	6.3
270.423	6.46
270.637	6.46
270.852	5.81
271.066	5.61
271.281	5.75
271.495	5.46
271.709	6.37
271.924	6.06
272.138	6.48
272.353	6.72
272.567	6.87
272.781	6.28
272.996	6.7
273.21	7.05
273.424	7.09
273.638	7
273.853	7.37
274.067	6.9
274.281	7.75
274.495	7.82
274.71	8.13
274.924	7.57
275.138	8.1
275.352	7.55
275.566	7.71
275.781	7.88
275.995	7.46
276.209	7.22
276.423	7.24
276.637	7.12
276.851	6.68
277.065	5.92
277.279	6.31
277.493	6.55
277.707	6.62
277.921	6.5
278.135	5.66
278.349	6.34
278.563	6.54
278.777	6.4
278.991	6.13
279.205	6.06
279.419	6.1
279.633	6.18
279.847	5.8
280.061	5.99
280.275	6.52
280.489	7.01
280.703	6.94
280.917	7.02
281.131	6.82
281.344	6.93
281.558	7
281.772	7.06
281.986	6.66
282.2	6.8
282.414	6.53
282.627	5.86
282.841	5.8
283.055	6.02
283.269	5.8
283.482	5.83
283.696	5.61
283.91	5.69
284.123	5.37
284.337	5.82
284.551	5.62
284.764	5.9
284.978	6.17
285.192	5.88
285.405	5.67
285.619	5.68
285.833	5.97
286.046	5.94
286.26	5.65
286.473	6.16
286.687	6.1
286.9	6.09
287.114	5.58
287.327	5.55
287.541	5.75
287.754	5.67
287.968	5.91
288.181	5.66
288.395	5.63
288.608	5.71
288.822	5.87
289.035	5.64
289.248	5.38
289.462	5.93
289.675	5.96
289.889	6.11
290.102	5.85
290.315	6.04
290.529	5.96
290.742	5.94
290.955	6.37
291.169	6.22
291.382	6.5
291.595	7.02
291.808	6.86
292.022	7.16
292.235	7.17
292.448	7.84
292.661	7.48
292.875	7.93
293.088	8.26
293.301	7.88
293.514	7.58
293.727	7.55
293.94	7.42
294.153	7.25
294.367	7.15
294.58	6.89
294.793	6.14
295.006	6.06
295.219	5.88
295.432	5.88
295.645	5.76
295.858	5.85
296.071	5.62
296.284	5.7
296.497	5.85
296.71	5.76
296.923	5.92
297.136	6.13
297.349	6.2
297.562	6.21
297.775	6.33
297.988	6.76
298.201	7.16
298.414	7.11
298.626	7.08
298.839	7.29
299.052	7.27
299.265	7.57
299.478	8.14
299.691	8.41
299.903	8.49
300.116	8.14
300.329	7.91
300.542	7.9
300.755	8.02
300.967	7.84
301.18	7.89
301.393	7.65
301.605	7.15
301.818	7.13
302.031	7
302.243	6.72
302.456	6.99
302.669	7.38
302.881	7.2
303.094	7.23
303.307	7.63
303.519	6.99
303.732	7.52
303.944	7.76
304.157	8
304.37	7.89
304.582	8.22
304.795	7.69
305.007	7.56
305.22	7.34
305.432	7.51
305.645	7.08
305.857	7.82
306.069	7.77
306.282	7.61
306.494	7.04
306.707	7.01
306.919	6.94
307.132	7.42
307.344	7.21
307.556	7.42
307.769	7.38
307.981	7.55
308.193	7.47
308.406	6.86
308.618	7.02
308.83	7.22
309.043	7.35
309.255	7.14
309.467	6.84
309.679	6.93
309.892	6.85
310.104	7.06
310.316	7.44
310.528	7.32
310.74	8.08
310.953	7.93
311.165	7.6
311.377	7.48
311.589	7.65
311.801	7.6
312.013	7.63
312.225	7.96
312.437	7.55
312.649	7.47
312.862	7.27
313.074	6.99
313.286	7.23
313.498	7.2
313.71	7.39
313.922	7.63
314.134	7.63
314.346	7.83
314.558	7.4
314.77	8.28
314.982	7.99
315.193	7.98
315.405	7.86
315.617	7.85
315.829	8.3
316.041	8.19
316.253	7.81
316.465	8.36
316.677	7.86
316.888	7.85
317.1	7.3
317.312	7.47
317.524	7.76
317.736	8.04
317.947	8.66
318.159	8.44
318.371	8.36
318.583	8.61
318.794	8.37
319.006	8.79
319.218	8.52
319.43	8.59
319.641	7.91
319.853	7.83
320.064	7.78
320.276	7.36
320.488	7.48
320.699	7.56
320.911	7.44
321.123	7.27
321.334	7.32
321.546	7.96
321.757	7.63
321.969	8.3
322.18	8.39
322.392	8.26
322.603	8.2
322.815	8.31
323.026	8.38
323.238	8.5
323.449	8.59
323.661	8.11
323.872	7.79
324.083	7.83
324.295	7.56
324.506	7.17
324.718	7.3
324.929	7.41
325.14	7.63
325.352	7.76
325.563	7.77
325.774	7.55
325.986	8.1
326.197	8.34
326.408	8.39
326.62	8.26
326.831	8.55
327.042	8.62
327.253	8.21
327.464	7.86
327.676	7.78
327.887	7.66
328.098	8.07
328.309	8
328.52	7.72
328.732	7.7
328.943	7.76
329.154	7.77
329.365	7.48
329.576	7.66
329.787	8.07
329.998	7.47
330.209	7.59
330.42	7.78
330.631	7.17
330.842	7.11
331.053	7
331.264	7.12
331.475	6.82
331.686	7.18
331.897	7.12
332.108	6.68
332.319	7.32
332.53	7.18
332.741	6.94
332.952	7.14
333.163	7.31
333.374	7.62
333.585	7.62
333.795	7.69
334.006	7.66
334.217	7.57
334.428	7.76
334.639	7.49
334.849	7.4
335.06	7.27
335.271	7.4
335.482	7.22
335.692	6.84
335.903	6.79
336.114	6.82
336.325	6.48
336.535	6.91
336.746	7.09
336.957	7.54
337.167	8.05
337.378	8.16
337.589	8.15
337.799	8.31
338.01	8.68
338.22	8.62
338.431	9.25
338.642	9.39
338.852	9.13
339.063	8.75
339.273	8.36
339.484	7.81
339.694	7.62
339.905	7.22
340.115	7.06
340.326	6.96
340.536	7.1
340.746	6.49
340.957	6.43
341.167	6.24
341.378	6.22
341.588	5.93
341.799	5.92
342.009	6.39
342.219	6.76
342.43	6.68
342.64	6.57
342.85	6.62
343.061	6.44
343.271	6.28
343.481	6.02
343.691	5.94
343.902	6.3
344.112	6.2
344.322	5.78
344.532	5.63
344.743	5.48
344.953	5.42
345.163	4.99
345.373	5.04
345.583	5.25
345.793	5.3
346.004	5.67
346.214	5.34
346.424	5.48
346.634	5.6
346.844	5.83
347.054	6.03
347.264	6.12
347.474	6
347.684	6.12
347.894	5.92
348.104	6.23
348.314	5.93
348.524	6.19
348.734	6.14
348.944	6.39
349.154	6.31
349.364	6.5
349.574	6.3
349.784	6.53
349.994	6.68
350.204	6.29
350.413	5.98
350.623	5.95
350.833	5.97
351.043	6.17
351.253	5.77
351.463	5.42
351.672	5.39
351.882	5.45
352.092	5.26
352.302	5.2
352.511	5.4
352.721	5.65
352.931	5.83
353.141	5.74
353.35	5.97
353.56	5.91
353.77	5.99
353.979	6.39
354.189	6.27
354.399	6.68
354.608	6.74
354.818	6.84
355.027	6.95
355.237	6.73
355.447	6.48
355.656	6.11
355.866	6.13
356.075	6.17
356.285	5.79
356.494	5.93
356.704	5.63
356.913	5.65
357.123	5.68
357.332	5.44
357.542	5.41
357.751	5.55
357.96	5.25
358.17	5.22
358.379	5.15
358.589	5.18
358.798	4.98
359.007	5.12
359.217	5
359.426	5.05
359.635	5.28
359.845	5.24
360.054	5.13
360.263	5.32
360.472	5.24
360.682	5.17
360.891	4.96
361.1	4.93
361.309	4.98
361.519	4.79
361.728	4.68
361.937	4.65
362.146	4.57
362.355	4.72
362.564	4.76
362.774	4.88
362.983	5
363.192	5.13
363.401	5.39
363.61	5.21
363.819	5.3
364.028	5.3
364.237	4.92
364.446	5.03
364.655	4.81
364.864	4.83
365.073	4.98
365.282	5.04
365.491	4.98
365.7	4.84
365.909	5.02
366.118	4.95
366.327	4.7
366.536	4.77
366.745	4.8
366.954	4.94
367.162	5.17
367.371	4.89
367.58	5.08
367.789	4.95
367.998	5.04
368.207	5.01
368.415	5.03
368.624	5.1
368.833	5.12
369.042	5.18
369.25	5.41
369.459	5.15
369.668	5.29
369.877	4.97
370.085	5.19
370.294	5.29
370.503	5.09
370.711	5.17
370.92	5.04
371.129	5.12
371.337	4.94
371.546	4.78
371.754	4.96
371.963	5.02
372.171	5.35
372.38	5.18
372.589	5.04
372.797	5.09
373.006	5.08
373.214	5.58
373.423	5.59
373.631	5.72
373.84	5.62
374.048	5.34
374.256	5.06
374.465	4.94
374.673	4.97
374.882	4.73
375.09	4.85
375.298	4.93
375.507	4.9
375.715	4.91
375.923	4.99
376.132	4.84
376.34	4.98
376.548	5.01
376.757	4.92
376.965	5.1
377.173	5.39
377.381	5.35
377.59	5.31
377.798	5.15
378.006	5.03
378.214	4.87
378.423	4.86
378.631	4.68
378.839	4.84
379.047	4.74
379.255	4.7
379.463	4.77
379.671	4.7
379.879	4.61
380.088	4.71
380.296	4.73
380.504	4.94
380.712	5.07
380.92	4.99
381.128	5.03
381.336	4.94
381.544	4.7
381.752	4.49
381.96	4.55
382.168	4.38
382.376	4.27
382.584	4.47
382.791	4.22
382.999	4.22
383.207	4.32
383.415	4.2
383.623	4.31
383.831	4.27
384.039	4.32
384.247	4.11
384.454	4.11
384.662	3.97
384.87	3.6
385.078	3.76
385.285	3.71
385.493	3.75
385.701	3.8
385.909	3.63
386.116	3.76
386.324	3.77
386.532	3.95
386.739	4.12
386.947	4.21
387.155	4.29
387.362	4.12
387.57	4.19
387.778	4.03
387.985	3.9
388.193	4.05
388.4	3.95
388.608	4.02
388.816	3.86
389.023	3.77
389.231	3.7
389.438	3.87
389.646	4
389.853	4.06
390.061	3.96
390.268	4.01
390.475	4.02
390.683	4.01
390.89	3.85
391.098	3.87
391.305	4.01
391.512	4.08
391.72	3.86
391.927	3.63
392.135	3.41
392.342	3.62
392.549	3.69
392.756	3.48
392.964	3.29
393.171	3.3
393.378	3.36
393.586	3.2
393.793	3.1
394	3.22
394.207	3.31
394.414	3.47
394.622	3.41
394.829	3.27
395.036	3.45
395.243	3.68
395.45	3.57
395.657	3.54
395.864	3.61
396.072	3.69
396.279	3.77
396.486	3.82
396.693	3.74
396.9	3.75
397.107	3.74
397.314	3.75
397.521	3.74
397.728	3.82
397.935	3.95
398.142	3.9
398.349	4.01
398.556	3.85
398.763	3.75
398.97	3.59
399.177	3.44
399.383	3.39
399.59	3.15
399.797	3.18
400.004	3.07
400.211	2.97
400.418	2.94
400.625	2.79
400.831	2.94
401.038	2.92
401.245	3.19
401.452	3.24
401.658	3.28
401.865	3.4
402.072	3.23
402.279	3.32
402.485	3.22
402.692	3.29
402.899	3.09
403.105	3.02
403.312	3.07
403.519	2.92
403.725	2.93
403.932	2.89
404.138	2.96
404.345	2.96
404.552	2.91
404.758	2.89
404.965	2.83
405.171	3
405.378	2.87
405.584	2.95
405.791	3.02
405.997	3.14
406.204	3.17
406.41	3.33
406.617	3.3
406.823	3.18
407.029	3.24
407.236	3.39
407.442	3.52
407.649	3.67
407.855	3.54
408.061	3.69
408.268	3.45
408.474	3.45
408.68	3.27
408.887	3.3
409.093	3.52
409.299	3.5
409.505	3.45
409.712	3.35
409.918	3.36
410.124	3.41
410.33	3.33
410.537	3.4
410.743	3.31
410.949	3.2
411.155	3.25
411.361	3.03
411.567	2.98
411.773	2.86
411.98	2.92
412.186	2.86
412.392	2.8
412.598	2.59
412.804	2.57
413.01	2.6
413.216	2.67
413.422	2.61
413.628	2.73
413.834	2.72
414.04	2.76
414.246	2.61
414.452	2.59
414.658	2.6
414.864	2.7
415.07	2.85
415.275	3.02
415.481	3.02
415.687	3.05
415.893	3.01
416.099	2.91
416.305	2.95
416.511	2.9
416.716	2.76
416.922	2.77
417.128	2.84
417.334	2.75
417.539	2.55
417.745	2.51
417.951	2.6
418.157	2.68
418.362	2.8
418.568	2.71
418.774	2.77
418.979	2.88
419.185	2.81
419.391	2.64
419.596	2.68
419.802	2.68
420.008	2.61
420.213	2.57
420.419	2.55
420.624	2.47
420.83	2.45
421.035	2.55
421.241	2.56
421.446	2.62
421.652	2.73
421.857	2.67
422.063	2.7
422.268	2.79
422.474	2.75
422.679	2.75
422.885	2.71
423.09	2.65
423.295	2.53
423.501	2.53
423.706	2.58
423.911	2.47
424.117	2.49
424.322	2.47
424.527	2.44
424.733	2.42
424.938	2.4
425.143	2.46
425.349	2.64
425.554	2.66
425.759	2.62
425.964	2.5
426.169	2.64
426.375	2.52
426.58	2.67
426.785	2.68
426.99	2.79
427.195	2.81
427.4	2.8
427.605	2.9
427.811	2.87
428.016	2.7
428.221	2.76
428.426	2.65
428.631	2.83
428.836	2.7
429.041	2.73
429.246	2.52
429.451	2.37
429.656	2.34
429.861	2.25
430.066	2.31
430.271	2.45
430.476	2.49
430.681	2.55
430.886	2.43
431.09	2.48
431.295	2.34
431.5	2.39
431.705	2.41
431.91	2.43
432.115	2.45
432.32	2.38
432.524	2.39
432.729	2.23
432.934	2.23
433.139	2.28
433.343	2.26
433.548	2.44
433.753	2.48
433.958	2.44
434.162	2.4
434.367	2.32
434.572	2.3
434.776	2.14
434.981	2.34
435.186	2.3
435.39	2.25
435.595	2.27
435.799	2.16
436.004	2.12
436.209	2.21
436.413	2.2
436.618	2.24
436.822	2.34
437.027	2.52
437.231	2.35
437.436	2.25
437.64	2.33
437.845	2.32
438.049	2.28
438.253	2.31
438.458	2.37
438.662	2.28
438.867	2.22
439.071	2.16
439.275	2.07
439.48	2.2
439.684	2.19
439.888	2.17
440.093	2.17
440.297	2.13
440.501	2.12
440.706	2.16
440.91	2.3
441.114	2.38
441.318	2.45
441.523	2.49
441.727	2.44
441.931	2.56
442.135	2.57
442.339	2.44
442.543	2.53
442.748	2.52
442.952	2.35
443.156	2.2
443.36	2.09
443.564	2.01
443.768	2.04
443.972	2.14
444.176	2.15
444.38	2.15
444.584	2.19
444.788	2.24
444.992	2.25
445.196	2.36
445.4	2.39
445.604	2.42
445.808	2.46
446.012	2.41
446.216	2.24
446.42	2.24
446.624	2.16
446.828	2.23
447.032	2.19
447.235	2.19
447.439	2.16
447.643	2.24
447.847	2.24
448.051	2.24
448.254	2.23
448.458	2.31
448.662	2.32
448.866	2.41
449.069	2.39
449.273	2.39
449.477	2.36
449.681	2.31
449.884	2.3
450.088	2.3
450.292	2.32
450.495	2.4
450.699	2.43
450.902	2.37
451.106	2.23
451.31	2.28
451.513	2.35
451.717	2.44
451.92	2.5
452.124	2.55
452.327	2.56
452.531	2.57
452.734	2.53
452.938	2.52
453.141	2.62
453.345	2.68
453.548	2.56
453.752	2.51
453.955	2.47
454.158	2.34
454.362	2.26
454.565	2.24
454.769	2.19
454.972	2.25
455.175	2.18
455.379	2.11
455.582	2.14
455.785	2.18
455.988	2.15
456.192	2.05
456.395	2.11
456.598	2.12
456.801	2.05
457.005	2.02
457.208	1.95
457.411	1.95
457.614	1.94
457.817	1.88
458.021	1.91
458.224	1.92
458.427	1.91
458.63	1.9
458.833	1.94
459.036	1.95
459.239	2
459.442	2.01
459.645	2
459.848	2.03
460.051	2.1
460.254	2.12
460.457	2.12
460.66	2.19
460.863	2.2
461.066	2.21
461.269	2.25
461.472	2.27
461.675	2.36
461.878	2.47
462.081	2.43
462.284	2.44
462.486	2.45
462.689	2.5
462.892	2.48
463.095	2.42
463.298	2.34
463.5	2.47
463.703	2.38
463.906	2.33
464.109	2.34
464.311	2.4
464.514	2.44
464.717	2.47
464.92	2.36
465.122	2.4
465.325	2.49
465.528	2.5
465.73	2.34
465.933	2.37
466.135	2.33
466.338	2.32
466.541	2.29
466.743	2.29
466.946	2.25
467.148	2.24
467.351	2.15
467.553	2.11
467.756	2.16
467.958	2.25
468.161	2.18
468.363	2.22
468.566	2.23
468.768	2.3
468.971	2.18
469.173	2.19
469.375	2.16
469.578	2.21
469.78	2.23
469.983	2.22
470.185	2.15
470.387	2.13
470.59	2.06
470.792	2.05
470.994	2.02
471.196	2.09
471.399	2.12
471.601	2.25
471.803	2.21
472.005	2.31
472.208	2.3
472.41	2.42
472.612	2.51
472.814	2.56
473.016	2.58
473.218	2.62
473.421	2.56
473.623	2.51
473.825	2.5
474.027	2.61
474.229	2.47
474.431	2.46
474.633	2.44
474.835	2.48
475.037	2.45
475.239	2.36
475.441	2.33
475.643	2.35
475.845	2.37
476.047	2.42
476.249	2.32
476.451	2.39
476.653	2.46
476.855	2.38
477.057	2.29
477.258	2.32
477.46	2.36
477.662	2.31
477.864	2.36
478.066	2.32
478.268	2.21
478.469	2.26
478.671	2.25
478.873	2.18
479.075	2.22
479.276	2.21
479.478	2.17
479.68	2.16
479.882	2.21
480.083	2.17
480.285	2.19
480.487	2.14
480.688	2.07
480.89	2.06
481.091	2.01
481.293	2
481.495	1.99
481.696	1.98
481.898	1.98
482.099	1.95
482.301	1.97
482.502	1.96
482.704	1.98
482.905	2
483.107	2.03
483.308	2.08
483.51	2.06
483.711	2.05
483.913	2.05
484.114	2.07
484.315	2.07
484.517	2.06
484.718	2.02
484.92	2.02
485.121	2
485.322	1.93
485.524	1.88
485.725	1.89
485.926	1.89
486.127	1.94
486.329	1.91
486.53	1.93
486.731	1.94
486.932	1.96
487.134	1.98
487.335	1.97
487.536	2
487.737	2
487.938	2.01
488.139	2.08
488.341	2.06
488.542	2.06
488.743	2.02
488.944	2
489.145	2.01
489.346	1.96
489.547	1.97
489.748	1.97
489.949	2.02
490.15	1.97
490.351	1.94
490.552	1.97
490.753	1.98
490.954	2
491.155	2.01
491.356	2.02
491.557	2.08
491.758	2.09
491.959	2.09
492.159	2.04
492.36	2.08
492.561	2.12
492.762	2.07
492.963	2.06
493.164	2.05
493.364	1.96
493.565	1.96
493.766	1.99
493.967	2
494.167	1.99
494.368	2.02
494.569	2.01
494.769	1.94
494.97	1.94
495.171	1.98
495.371	1.99
495.572	2.09
495.773	2.09
495.973	2.12
496.174	2.08
496.375	2.17
496.575	2.21
496.776	2.29
496.976	2.36
497.177	2.39
497.377	2.44
497.578	2.52
497.778	2.55
497.979	2.57
498.179	2.5
498.38	2.61
498.58	2.6
498.78	2.57
498.981	2.6
499.181	2.56
499.382	2.58
499.582	2.57
499.782	2.55
499.983	2.48
500.183	2.47
500.383	2.51
500.584	2.39
500.784	2.35
500.984	2.37
501.184	2.33
501.385	2.29
501.585	2.29
501.785	2.22
501.985	2.2
502.185	2.22
502.386	2.25
502.586	2.14
502.786	2.24
502.986	2.32
503.186	2.29
503.386	2.32
503.586	2.38
503.786	2.33
503.987	2.36
504.187	2.37
504.387	2.39
504.587	2.41
504.787	2.51
504.987	2.56
505.187	2.54
505.387	2.54
505.587	2.61
505.786	2.64
505.986	2.7
506.186	2.74
506.386	2.74
506.586	2.76
506.786	2.72
506.986	2.76
507.186	2.72
507.386	2.72
507.585	2.73
507.785	2.65
507.985	2.71
508.185	2.74
508.384	2.74
508.584	2.71
508.784	2.77
508.984	2.85
509.183	2.74
509.383	2.79
509.583	2.83
509.782	2.85
509.982	2.9
510.182	2.81
510.381	2.8
510.581	2.86
510.781	2.92
510.98	2.89
511.18	2.88
511.379	3.06
511.579	3.04
511.778	3.09
511.978	3.07
512.177	3
512.377	3.02
512.576	3.05
512.776	3.02
512.975	3.02
513.175	3.02
513.374	2.96
513.573	2.88
513.773	2.93
513.972	2.83
514.172	2.91
514.371	3.04
514.57	3.1
514.77	3.04
514.969	3.08
515.168	3.11
515.367	3.19
515.567	3.24
515.766	3.28
515.965	3.26
516.164	3.29
516.364	3.3
516.563	3.3
516.762	3.3
516.961	3.29
517.16	3.28
517.359	3.24
517.559	3.27
517.758	3.23
517.957	3.21
518.156	3.25
518.355	3.24
518.554	3.2
518.753	3.23
518.952	3.24
519.151	3.31
519.35	3.3
519.549	3.3
519.748	3.24
519.947	3.32
520.146	3.3
520.345	3.31
520.544	3.38
520.743	3.46
520.942	3.42
521.141	3.41
521.339	3.4
521.538	3.34
521.737	3.38
521.936	3.42
522.135	3.39
522.333	3.51
522.532	3.42
522.731	3.36
522.93	3.4
523.129	3.43
523.327	3.45
523.526	3.44
523.725	3.56
523.923	3.62
524.122	3.69
524.321	3.69
524.519	3.61
524.718	3.67
524.917	3.71
525.115	3.63
525.314	3.63
525.512	3.64
525.711	3.65
525.909	3.63
526.108	3.58
526.306	3.55
526.505	3.57
526.703	3.62
526.902	3.61
527.1	3.62
527.299	3.66
527.497	3.68
527.696	3.7
527.894	3.74
528.092	3.77
528.291	3.75
528.489	3.76
528.688	3.77
528.886	3.78
529.084	3.83
529.283	3.86
529.481	3.88
529.679	3.87
529.877	3.86
530.076	3.85
530.274	3.82
530.472	3.85
530.67	3.92
530.869	3.95
531.067	3.99
531.265	3.97
531.463	3.98
531.661	3.99
531.859	3.98
532.057	4.04
532.255	4.06
532.454	4.12
532.652	4.15
532.85	4.14
533.048	4.15
533.246	4.12
533.444	4.17
533.642	4.18
533.84	4.2
534.038	4.28
534.236	4.28
534.434	4.29
534.632	4.28
534.83	4.39
535.027	4.45
535.225	4.48
535.423	4.55
535.621	4.54
535.819	4.53
536.017	4.52
536.215	4.5
536.412	4.48
536.61	4.54
536.808	4.55
537.006	4.51
537.203	4.56
537.401	4.66
537.599	4.72
537.797	4.76
537.994	4.84
538.192	4.86
538.39	4.97
538.587	5.01
538.785	5.06
538.983	5.1
539.18	5.12
539.378	5.12
539.575	5.08
539.773	5.01
539.97	5.03
540.168	5.08
540.366	5.13
540.563	5.12
540.761	5.16
540.958	5.13
541.155	5.12
541.353	5.15
541.55	5.14
541.748	5.14
541.945	5.22
542.143	5.21
542.34	5.23
542.537	5.21
542.735	5.21
542.932	5.19
543.129	5.25
543.327	5.33
543.524	5.36
543.721	5.33
543.919	5.42
544.116	5.47
544.313	5.65
544.51	5.58
544.708	5.65
544.905	5.68
545.102	5.76
545.299	5.74
545.496	5.75
545.693	5.78
545.891	5.87
546.088	5.79
546.285	5.86
546.482	5.85
546.679	5.93
546.876	5.99
547.073	6.14
547.27	6.22
547.467	6.25
547.664	6.3
547.861	6.35
548.058	6.49
548.255	6.7
548.452	6.68
548.649	6.74
548.846	6.78
549.043	6.81
549.24	6.82
549.437	6.81
549.633	7.01
549.83	7
550.027	7.05
550.224	7.01
550.421	7.01
550.618	7.02
550.814	7.08
551.011	7.15
551.208	7.29
551.405	7.33
551.601	7.38
551.798	7.37
551.995	7.29
552.191	7.31
552.388	7.34
552.585	7.38
552.781	7.46
552.978	7.39
553.175	7.49
553.371	7.41
553.568	7.4
553.764	7.41
553.961	7.47
554.157	7.79
554.354	7.9
554.55	7.86
554.747	7.91
554.943	7.96
555.14	8.13
555.336	8.09
555.533	8.11
555.729	8.25
555.926	8.31
556.122	8.39
556.318	8.3
556.515	8.37
556.711	8.48
556.907	8.59
557.104	8.7
557.3	8.77
557.496	8.94
557.693	9.06
557.889	9.14
558.085	9.26
558.281	9.3
558.478	9.46
558.674	9.58
558.87	9.69
559.066	9.74
559.262	9.78
559.459	9.68
559.655	9.66
559.851	9.78
560.047	9.83
560.243	9.93
560.439	9.93
560.635	9.95
560.831	9.82
561.027	9.76
561.223	9.82
561.419	9.83
561.615	9.9
561.811	10.02
562.007	9.95
562.203	10
562.399	9.99
562.595	10.08
562.791	10.2
562.987	10.45
563.183	10.66
563.379	10.78
563.575	10.82
563.771	10.95
563.966	11.06
564.162	11.14
564.358	11.25
564.554	11.31
564.75	11.37
564.945	11.4
565.141	11.46
565.337	11.6
565.533	11.59
565.728	11.68
565.924	11.74
566.12	11.83
566.315	11.91
566.511	11.83
566.707	11.88
566.902	12.06
567.098	12.2
567.293	12.17
567.489	12.25
567.684	12.27
567.88	12.31
568.076	12.3
568.271	12.43
568.467	12.51
568.662	12.66
568.858	12.85
569.053	12.84
569.248	12.78
569.444	12.83
569.639	12.8
569.835	12.91
570.03	13.02
570.225	13.17
570.421	13.16
570.616	13.25
570.812	13.41
571.007	13.34
571.202	13.44
571.397	13.61
571.593	13.68
571.788	13.8
571.983	13.96
572.178	13.91
572.374	13.95
572.569	13.96
572.764	14.02
572.959	14
573.154	14.01
573.35	14.08
573.545	14.05
573.74	14.15
573.935	14.12
574.13	14.12
574.325	14.23
574.52	14.32
574.715	14.45
574.91	14.45
575.105	14.53
575.3	14.62
575.495	14.68
575.69	14.79
575.885	14.91
576.08	14.96
576.275	15.06
576.47	15.16
576.665	15.12
576.86	15.07
577.055	15.15
577.25	15.15
577.444	15.25
577.639	15.24
577.834	15.18
578.029	15.04
578.224	15.17
578.418	15.11
578.613	15.26
578.808	15.36
579.003	15.39
579.197	15.4
579.392	15.39
579.587	15.53
579.781	15.48
579.976	15.54
580.171	15.68
580.365	15.78
580.56	15.82
580.755	15.74
580.949	15.85
581.144	15.98
581.338	16.1
581.533	16.12
581.727	16.08
581.922	16.19
582.116	16.3
582.311	16.21
582.505	16.15
582.7	16.19
582.894	16.27
583.089	16.18
583.283	16.14
583.478	16.11
583.672	16.14
583.866	16.21
584.061	16.17
584.255	16.13
584.449	16.41
584.644	16.42
584.838	16.42
585.032	16.44
585.226	16.45
585.421	16.51
585.615	16.64
585.809	16.74
586.003	16.79
586.198	16.97
586.392	17.09
586.586	16.93
586.78	17.12
586.974	17.18
587.168	17.24
587.363	17.3
587.557	17.4
587.751	17.39
587.945	17.42
588.139	17.3
588.333	17.2
588.527	17.13
588.721	17.2
588.915	17.04
589.109	17.03
589.303	17.05
589.497	17.04
589.691	16.9
589.885	16.96
590.079	16.93
590.273	17.01
590.466	16.97
590.66	16.9
590.854	16.97
591.048	16.97
591.242	17.03
591.436	16.9
591.629	16.97
591.823	17.01
592.017	17.09
592.211	17.16
592.404	17.19
592.598	17.34
592.792	17.51
592.986	17.51
593.179	17.64
593.373	17.65
593.567	17.81
593.76	17.78
593.954	18.01
594.147	18
594.341	18.08
594.535	18.15
594.728	18.14
594.922	18.12
595.115	18.07
595.309	18.05
595.502	18.07
595.696	18.07
595.889	18.12
596.083	17.9
596.276	17.83
596.47	17.81
596.663	17.74
596.856	17.75
597.05	17.8
597.243	17.87
597.437	17.77
597.63	17.68
597.823	17.74
598.017	17.73
598.21	17.99
598.403	18.03
598.596	18
598.79	18.09
598.983	18.02
599.176	17.99
599.369	18.08
599.563	18.25
599.756	18.37
599.949	18.29
600.142	18.36
600.335	18.08
600.528	18.07
600.722	18.14
600.915	18.13
601.108	18.19
601.301	18.2
601.494	18.04
601.687	18.12
601.88	18
602.073	18.1
602.266	18.07
602.459	18.12
602.652	18.16
602.845	18.14
603.038	18.1
603.231	18.22
603.424	18.32
603.617	18.37
603.809	18.24
604.002	18.26
604.195	18.27
604.388	18.25
604.581	18.4
604.774	18.44
604.966	18.43
605.159	18.33
605.352	18.22
605.545	18.05
605.737	18.07
605.93	18.11
606.123	18.26
606.316	18.23
606.508	18.29
606.701	18.3
606.894	18.31
607.086	18.32
607.279	18.38
607.471	18.35
607.664	18.53
607.857	18.51
608.049	18.61
608.242	18.59
608.434	18.62
608.627	18.69
608.819	18.57
609.012	18.45
609.204	18.41
609.397	18.4
609.589	18.52
609.782	18.4
609.974	18.48
610.166	18.45
610.359	18.34
610.551	18.37
610.743	18.34
610.936	18.36
611.128	18.51
611.32	18.58
611.513	18.82
611.705	18.81
611.897	18.7
612.09	18.69
612.282	18.69
612.474	18.59
612.666	18.61
612.858	18.5
613.051	18.77
613.243	18.64
613.435	18.6
613.627	18.61
613.819	18.61
614.011	19.03
614.203	19.01
614.395	19.05
614.588	19.32
614.78	19.24
614.972	19.21
615.164	19.02
615.356	18.97
615.548	18.79
615.74	18.75
615.932	18.66
616.124	18.3
616.315	18.49
616.507	18.54
616.699	18.68
616.891	18.8
617.083	19
617.275	18.99
617.467	19.04
617.659	19.31
617.85	19.45
618.042	19.48
618.234	19.64
618.426	19.48
618.618	19.42
618.809	19.31
619.001	19.11
619.193	18.99
619.384	18.8
619.576	18.98
619.768	18.98
619.959	18.8
620.151	18.99
620.343	18.95
620.534	19.21
620.726	19.31
620.917	19.46
621.109	19.32
621.301	19.45
621.492	19.64
621.684	19.58
621.875	19.55
622.067	19.69
622.258	19.5
622.45	19.53
622.641	19.4
622.832	19.2
623.024	19.07
623.215	19.21
623.407	19.15
623.598	19.1
623.789	19.12
623.981	19.08
624.172	19.08
624.363	19.13
624.555	19.22
624.746	19.14
624.937	19.13
625.129	19.19
625.32	19.32
625.511	19.33
625.702	19.48
625.893	19.44
626.085	19.4
626.276	19.42
626.467	19.53
626.658	19.28
626.849	19.38
627.04	19.31
627.231	19.21
627.422	19.17
627.614	19.22
627.805	19.05
627.996	19.06
628.187	19.15
628.378	19.13
628.569	19.07
628.76	19.35
628.951	19.2
629.142	19.31
629.332	19.25
629.523	19.19
629.714	19.2
629.905	19.41
630.096	19.38
630.287	19.52
630.478	19.4
630.669	19.3
630.859	19.25
631.05	19.21
631.241	19.24
631.432	19.19
631.623	19.3
631.813	19.28
632.004	19.11
632.195	19.14
632.385	18.96
632.576	18.98
632.767	19.2
632.957	19.31
633.148	19.46
633.339	19.42
633.529	19.66
633.72	19.68
633.91	19.56
634.101	19.6
634.292	19.52
634.482	19.46
634.673	19.66
634.863	19.64
635.054	19.54
635.244	19.45
635.435	19.53
635.625	19.3
635.815	19.24
636.006	19.24
636.196	19.25
636.387	19.47
636.577	19.57
636.767	19.49
636.958	19.37
637.148	19.32
637.338	19.37
637.529	19.46
637.719	19.81
637.909	19.83
638.099	19.82
638.29	19.96
638.48	19.86
638.67	20.01
638.86	20.09
639.05	20.03
639.241	20.05
639.431	19.87
639.621	19.75
639.811	19.66
640.001	19.7
640.191	19.71
640.381	19.49
640.571	19.53
640.761	19.47
640.951	19.29
641.141	19.24
641.331	19.09
641.521	19.2
641.711	19.15
641.901	19.04
642.091	19.09
642.281	19.02
642.471	19.15
642.661	19.1
642.851	19.11
643.041	19.19
643.231	19.27
643.42	19.51
643.61	19.78
643.8	19.98
643.99	19.9
644.18	19.89
644.369	20.21
644.559	20.29
644.749	20.4
644.939	20.36
645.128	20.43
645.318	20.39
645.508	20.21
645.697	20.18
645.887	20.01
646.076	20.16
646.266	19.92
646.456	19.78
646.645	19.91
646.835	19.78
647.024	19.77
647.214	19.59
647.403	19.62
647.593	19.71
647.782	19.52
647.972	19.63
648.161	19.71
648.351	19.78
648.54	19.64
648.73	19.37
648.919	19.71
649.108	19.73
649.298	19.86
649.487	19.95
649.677	20.09
649.866	20.2
650.055	20.13
650.244	20.03
650.434	20.17
650.623	20.41
650.812	20.38
651.002	20.02
651.191	19.92
651.38	19.84
651.569	19.74
651.758	19.37
651.947	19.42
652.137	19.33
652.326	19.4
652.515	19.47
652.704	19.39
652.893	19.41
653.082	19.45
653.271	19.72
653.46	19.82
653.649	19.93
653.838	20.21
654.027	20.14
654.216	20.24
654.405	20.21
654.594	20.09
654.783	20.09
654.972	20.07
655.161	20.1
655.35	19.97
655.539	20.24
655.728	20.25
655.916	20.21
656.105	20.14
656.294	20.39
656.483	20.19
656.672	20.24
656.86	20.15
657.049	20.05
657.238	20.14
657.427	20.06
657.615	19.85
657.804	19.88
657.993	19.82
658.181	19.93
658.37	19.79
658.559	19.78
658.747	19.63
658.936	19.78
659.125	19.93
659.313	19.9
659.502	20.03
659.69	19.98
659.879	19.94
660.067	20.01
660.256	19.73
660.444	19.61
660.633	19.82
660.821	20.22
661.01	20.11
661.198	20.06
661.387	19.94
661.575	19.83
661.763	20.01
661.952	20.12
662.14	20.21
662.328	20.25
662.517	20.28
662.705	20.28
662.893	19.92
663.082	19.79
663.27	19.63
663.458	19.71
663.646	19.65
663.834	19.45
664.023	19.35
664.211	19.23
664.399	19.43
664.587	19.57
664.775	19.35
664.963	19.48
665.152	19.65
665.34	19.84
665.528	19.92
665.716	20.09
665.904	20.09
666.092	19.91
666.28	19.85
666.468	19.99
666.656	20.03
666.844	20.28
667.032	20.22
667.22	20.38
667.408	20.33
667.596	20.67
667.784	20.47
667.971	20.49
668.159	20.41
668.347	20.52
668.535	20.24
668.723	19.98
668.911	19.81
669.098	19.84
669.286	19.66
669.474	19.63
669.662	19.31
669.849	19.38
670.037	19.22
670.225	19.58
670.413	19.51
670.6	19.92
670.788	19.97
670.976	20.23
671.163	20.07
671.351	20.17
671.538	20.22
671.726	20.42
671.913	20.21
672.101	20.47
672.289	20.44
672.476	20.39
672.664	20.26
672.851	20.43
673.039	20.44
673.226	20.57
673.413	20.56
673.601	20.65
673.788	20.44
673.976	20.66
674.163	20.67
674.35	20.56
674.538	20.86
674.725	20.8
674.912	20.6
675.1	20.56
675.287	20.42
675.474	20.08
675.662	20.3
675.849	20.41
676.036	20.53
676.223	20.52
676.411	20.54
676.598	20.33
676.785	20.26
676.972	20.41
677.159	20.08
677.346	20.2
677.533	20.49
677.721	20.2
677.908	20.22
678.095	20.01
678.282	19.92
678.469	19.85
678.656	19.94
678.843	19.89
679.03	19.84
679.217	20.04
679.404	20.02
679.591	20.01
679.778	19.99
679.964	19.96
680.151	19.92
680.338	20.13
680.525	20.18
680.712	20.16
680.899	20.27
681.086	20.11
681.272	20.05
681.459	20.1
681.646	20.12
681.833	19.92
682.02	19.69
682.206	19.9
682.393	19.78
682.58	19.7
682.766	19.71
682.953	19.61
683.14	19.87
683.326	20.19
683.513	20.37
683.7	20.45
683.886	20.97
684.073	21.03
684.259	21.02
684.446	21.02
684.632	21.1
684.819	20.94
685.005	20.85
685.192	20.96
685.378	20.68
685.565	20.36
685.751	20.22
685.938	20.01
686.124	20.24
686.31	20.28
686.497	20.05
686.683	20.23
686.87	20.19
687.056	20.25
687.242	20.32
687.429	20.27
687.615	20.43
687.801	20.36
687.987	20.22
688.174	20.02
688.36	20.24
688.546	20.41
688.732	20.09
688.918	20.17
689.105	20.24
689.291	20.16
689.477	20.23
689.663	20.29
689.849	20.38
690.035	20.45
690.221	20.7
690.407	20.67
690.593	20.63
690.779	20.86
690.965	21.01
691.151	20.85
691.337	20.87
691.523	20.84
691.709	20.8
691.895	21.25
692.081	21.38
692.267	21.16
692.453	20.93
692.639	20.95
692.825	20.88
693.011	20.86
693.196	21.07
693.382	20.97
693.568	20.85
693.754	20.94
693.94	20.19
694.125	20.49
694.311	20.4
694.497	20.28
694.682	20.51
694.868	20.62
695.054	20.65
695.239	20.64
695.425	20.41
695.611	20.84
695.796	20.63
695.982	20.87
696.168	20.55
696.353	20.7
696.539	20.86
696.724	20.77
696.91	20.69
697.095	20.72
697.281	20.57
697.466	20.71
697.652	20.45
697.837	20.52
698.023	20.49
698.208	20.55
698.393	20.46
698.579	20.28
698.764	20.26
698.949	20.15
699.135	20.05
699.32	20.28
699.505	20.16
699.691	20.17
699.876	20.3
700.061	20.49
700.246	20.55
700.432	20.59
700.617	20.6
700.802	20.17
700.987	20.47
701.172	20.61
701.358	20.48
701.543	20.59
701.728	20.79
701.913	21.06
702.098	20.94
702.283	21.07
702.468	21.07
702.653	21.2
702.838	21.55
703.023	21.3
703.208	21.31
703.393	21.36
703.578	21.49
703.763	21.44
703.948	21.12
704.133	21.57
704.318	21.24
704.503	21.58
704.688	21.7
704.873	21.51
705.057	21.78
705.242	21.56
705.427	21.52
705.612	21.57
705.797	21.85
705.981	22.02
706.166	21.78
706.351	21.54
706.536	20.92
706.72	20.56
706.905	20.78
707.09	20.48
707.274	20.3
707.459	20.57
707.644	20.48
707.828	20.23
708.013	19.88
708.197	19.85
708.382	20.21
708.567	20.33
708.751	20.54
708.936	20.49
709.12	20.77
709.305	21.12
709.489	20.64
709.673	20.58
709.858	20.86
710.042	21.04
710.227	21
710.411	20.74
710.596	20.98
710.78	21.06
710.964	21.3
711.149	21.52
711.333	21.49
711.517	21.75
711.702	21.73
711.886	21.61
712.07	21.37
712.254	21.28
712.438	21.73
712.623	21.85
712.807	21.61
712.991	21.44
713.175	20.9
713.359	20.71
713.544	20.51
713.728	20.54
713.912	20.13
714.096	20.33
714.28	19.94
714.464	20.04
714.648	19.92
714.832	20.14
715.016	20.12
715.2	20.49
715.384	20.56
715.568	21.08
715.752	21.09
715.936	21.39
716.12	21.18
716.304	21.65
716.488	21.22
716.671	21.29
716.855	21.42
717.039	21.32
717.223	21.11
717.407	20.99
717.59	20.56
717.774	20.32
717.958	19.85
718.142	19.79
718.325	19.8
718.509	19.85
718.693	19.66
718.877	19.43
719.06	19.31
719.244	19.69
719.428	19.89
719.611	19.92
719.795	20.4
719.978	21.61
720.162	21.78
720.345	21.88
720.529	21.67
720.713	21.92
720.896	21.96
721.08	22.52
721.263	21.99
721.446	22.19
721.63	22.28
721.813	21.89
721.997	21.1
722.18	20.95
722.364	21.15
722.547	21.15
722.73	21.1
722.914	20.74
723.097	20.73
723.28	20.82
723.464	20.5
723.647	20.64
723.83	20.53
724.013	21.03
724.197	21.21
724.38	20.83
724.563	21.19
724.746	21.04
724.929	21.62
725.112	21.82
725.296	21.84
725.479	21.91
725.662	21.46
725.845	21.64
726.028	21.05
726.211	20.92
726.394	20.75
726.577	20.2
726.76	20.62
726.943	20.38
727.126	19.98
727.309	19.67
727.492	19.68
727.675	19.9
727.858	20.19
728.041	20.2
728.224	20.33
728.407	20.36
728.589	20.58
728.772	20.59
728.955	20.54
729.138	20.6
729.321	20.94
729.503	21.08
729.686	21.29
729.869	21.14
730.052	21.34
730.234	21.54
730.417	21.32
730.6	21.55
730.782	21.39
730.965	21.42
731.148	21.17
731.33	21
731.513	21.04
731.695	20.78
731.878	20.56
732.061	20.14
732.243	20.17
732.426	20.42
732.608	20.4
732.791	20.55
732.973	21.01
733.156	21.19
733.338	21.31
733.52	21.22
733.703	20.99
733.885	21.17
734.068	21.54
734.25	21.56
734.432	21.37
734.615	21.11
734.797	20.78
734.979	20.29
735.162	20.03
735.344	19.94
735.526	19.65
735.708	20.17
735.891	20.97
736.073	20.77
736.255	20.45
736.437	20.67
736.619	20.79
736.802	20.51
736.984	21.05
737.166	21.6
737.348	21.89
737.53	22.19
737.712	22.11
737.894	21.6
738.076	22.09
738.258	22.38
738.44	22.01
738.622	22.68
738.804	22.75
738.986	22.62
739.168	21.69
739.35	22.15
739.532	21.93
739.714	21.75
739.896	21.45
740.078	21.09
740.259	20.6
740.441	21.42
740.623	20.73
740.805	20.57
740.987	20.03
741.168	20.4
741.35	19.78
741.532	20.06
741.714	20.15
741.895	20.08
742.077	20.47
742.259	20.5
742.44	19.93
742.622	20.53
742.804	21.27
742.985	21.82
743.167	22.24
743.348	22.59
743.53	22.53
743.711	23.07
743.893	23.43
744.075	23.22
744.256	23.39
744.438	23.56
744.619	23.04
744.8	22.93
744.982	22.78
745.163	22.85
745.345	22.39
745.526	23.41
745.707	23.13
745.889	22.74
746.07	22.17
746.252	22.71
746.433	23.7
746.614	23.93
746.795	23.72
746.977	23.22
747.158	23.96
747.339	24.37
747.52	23.86
747.702	23.7
747.883	23.78
748.064	23.7
748.245	22.69
748.426	21.19
748.607	21.26
748.788	21.03
748.97	21.32
749.151	20.26
749.332	20.2
749.513	19.92
749.694	20.37
749.875	21.24
750.056	21.41
750.237	21.92
750.418	22.08
750.599	21.52
750.78	21.67
750.96	21.66
751.141	21.92
751.322	21.74
751.503	22.33
751.684	21.49
751.865	20.98
752.046	21.32
752.226	21.75
752.407	22.15
752.588	22.3
752.769	23.02
752.949	23.12
753.13	23.7
753.311	23.53
753.492	23.29
753.672	23.09
753.853	23.26
754.034	23.67
754.214	23.41
754.395	23.2
754.575	23.96
754.756	23.02
754.937	22.87
755.117	21.91
755.298	22.64
755.478	22.74
755.659	23.14
755.839	22.84
756.02	22.74
756.2	22.48
756.381	22.71
756.561	22.84
756.741	23.48
756.922	23.58
757.102	23.65
757.283	23.49
757.463	21.95
757.643	22.55
757.823	22.74
758.004	22.31
758.184	21.87
758.364	21.88
758.545	21.4
758.725	20.44
758.905	20.73
759.085	21.27
759.265	20.64
759.446	21.25
759.626	21.49
759.806	20.7
759.986	20.27
760.166	20.78
760.346	20.25
760.526	19.82
760.706	20.32
760.886	19.86
761.066	19.97
761.246	20.25
761.426	20.55
761.606	20.19
761.786	20.88
761.966	21.27
762.146	21.23
762.326	22
762.506	21.97
762.686	22.07
762.866	22.33
763.046	22.17
763.225	21.95
763.405	21.87
763.585	21.37
763.765	21.26
763.945	21.04
764.124	21.65
764.304	21.33
764.484	21.88
764.664	21.51
764.843	21.74
765.023	21.52
765.203	21.59
765.382	21.73
765.562	22.41
765.741	22.16
765.921	22.47
766.101	22.35
766.28	22.09
766.46	21.42
766.639	21.19
766.819	20.97
766.998	21.08
767.178	21.17
767.357	21.23
767.537	21.08
767.716	21.46
767.896	21.18
768.075	20.5
768.254	20.7
768.434	20.92
768.613	22.17
768.792	21.63
768.972	21.57
769.151	21.29
769.33	20.91
769.51	20.78
769.689	20.83
769.868	21.11
770.047	21.77
770.226	21.66
770.406	22.21
770.585	22.05
770.764	22.56
770.943	22.58
771.122	22.66
771.301	23.21
771.48	23.27
771.66	22.47
771.839	22.7
772.018	22.55
772.197	22.34
772.376	22.7
772.555	22.05
772.734	22.39
772.913	22.14
773.092	22.31
773.271	22.58
773.449	22.27
773.628	22.71
773.807	23.05
773.986	22.42
774.165	23.92
774.344	23.91
774.523	23.65
774.701	23.28
774.88	23.5
775.059	24.01
775.238	23.81
775.417	24.22
775.595	24.12
775.774	23.51
775.953	23.26
776.131	21.98
776.31	21.21
776.489	20.64
776.667	20.91
776.846	21.27
777.025	21.49
777.203	20.43
777.382	20.52
777.56	20.33
777.739	20.21
777.917	20.89
778.096	21.27
778.274	20.67
778.453	22.22
778.631	22.28
778.81	22.27
778.988	21.48
779.166	21.72
779.345	21.75
779.523	23.38
779.702	23.68
779.88	23.73
780.058	23.64
780.237	23.99
780.415	24.1
780.593	23.97
780.771	23.93
780.95	25.42
781.128	25.79
781.306	25.3
781.484	24.52
781.662	24.49
781.841	24.13
782.019	23.35
782.197	23.27
782.375	22.3
782.553	22.04
782.731	22.33
782.909	20.83
783.087	21.88
783.265	22.83
783.443	22.31
783.621	21.99
783.799	21.4
783.977	22.26
784.155	23.16
784.333	23.8
784.511	23.1
784.689	22.35
784.867	22.65
785.045	21.83
785.223	21.74
785.4	22.85
785.578	23.08
785.756	24.24
785.934	23.9
786.112	23.51
786.289	23.31
786.467	24.17
786.645	24.59
786.823	25.34
787	25.3
787.178	23.92
787.356	21.86
787.533	21.01
787.711	21.16
787.889	21.44
788.066	21.18
788.244	20.71
788.421	20.62
788.599	20.71
788.776	19.85
788.954	19.84
789.131	20.86
789.309	21.93
789.486	23.85
789.664	23.7
789.841	24.92
790.019	25.33
790.196	26.72
790.373	26.76
790.551	27.47
790.728	28.38
790.906	28.35
791.083	28.02
791.26	28.71
791.437	27.89
791.615	27.31
791.792	25.87
791.969	26.47
792.146	25.64
792.324	26.22
792.501	26.01
792.678	24.78
792.855	24.94
793.032	24.56
793.209	23.84
793.387	23.46
793.564	23.41
793.741	23.05
793.918	22.4
794.095	22.96
794.272	21.3
794.449	20.54
794.626	22.06
794.803	21.27
794.98	21.87
795.157	22.08
795.334	22.73
795.511	21.58
795.688	22.53
795.864	22.62
796.041	22.09
796.218	23.05
796.395	23.4
796.572	22.14
796.749	23.13
796.925	21.97
797.102	22.27
797.279	20.75
797.456	22.65
797.632	22.04
797.809	22.6
797.986	22.31
798.162	22.13
798.339	22.03
798.516	22.15
798.692	20.34
798.869	22.19
799.046	21.4
799.222	22.33
799.399	21.87
799.575	22.69
799.752	21.35
799.928	21.64
800.105	21.55
800.281	22.38
800.458	22.56
800.634	25.02
800.811	25.11
800.987	24.88
801.163	25.17
801.34	26.4
801.516	26.28
801.692	27.15
801.869	27.32
802.045	27.71
802.221	26.21
802.398	26.5
802.574	25.72
802.75	23.62
802.926	24.08
803.103	24.45
803.279	22.49
803.455	21.6
803.631	21.75
803.807	21.84
803.983	21.16
804.16	21.44
804.336	20.7
804.512	19.67
804.688	21.75
804.864	22.18
805.04	21.81
805.216	23.72
805.392	23.84
805.568	24.24
805.744	25.27
805.92	25.74
806.096	26.55
806.272	27.38
806.448	29.66
806.623	28.64
806.799	29.57
806.975	29.62
807.151	28.94
807.327	28.49
807.503	27.05
807.678	26.29
807.854	25.78
808.03	24.94
808.206	24.31
808.381	22.87
808.557	22.55
808.733	20.76
808.908	19.99
809.084	19.99
809.26	19.08
809.435	19.61
809.611	18.26
809.787	18.28
809.962	19.43
810.138	20.6
810.313	20.83
810.489	21.94
810.664	22.24
810.84	21.81
811.015	20.37
811.191	23.39
811.366	24.39
811.542	25.41
811.717	26.6
811.892	26.41
812.068	26
812.243	24.98
812.419	24.67
812.594	25.97
812.769	26.24
812.944	27.09
813.12	25.63
813.295	25.03
813.47	24.37
813.645	23.72
813.821	23.02
813.996	23.5
814.171	25.24
814.346	25.27
814.521	24.14
814.697	25.91
814.872	25.45
815.047	26.67
815.222	26.9
815.397	26.31
815.572	25.63
815.747	26.01
815.922	24
816.097	23.01
816.272	23.57
816.447	22.55
816.622	22.01
816.797	21.94
816.972	21.16
817.147	21.54
817.322	22.34
817.496	22.96
817.671	22.79
817.846	23.88
818.021	23.44
818.196	23.04
818.371	23.02
818.545	22.98
818.72	23.76
818.895	22.85
819.069	22.89
819.244	23.47
819.419	23.43
819.594	22.23
819.768	21.93
819.943	21.93
820.117	22.29
820.292	22.99
820.467	23.06
820.641	22.89
820.816	22.79
820.99	22.23
821.165	21.88
821.339	21.65
821.514	22.06
821.688	22.24
821.863	22.26
822.037	22.05
822.212	21.98
822.386	21.81
822.56	22.04
822.735	22.11
822.909	22.2
823.084	22.19
823.258	22.05
823.432	22.15
823.606	21.88
823.781	21.78
823.955	21.85
824.129	21.96
824.303	22
824.478	21.69
824.652	21.73
824.826	21.99
825	22.2
825.174	22.81
825.348	22.47
825.523	22.72
825.697	22.98
825.871	22.7
826.045	22.17
826.219	22.07
826.393	22.31
826.567	22.63
826.741	22.34
826.915	22.1
827.089	21.99
827.263	22.16
827.437	22.17
827.611	22.46
827.784	22.95
827.958	23.52
828.132	23.53
828.306	23.11
828.48	22.99
828.654	23.42
828.827	23.68
829.001	23.42
829.175	23.48
829.349	23.74
829.522	23.56
829.696	24.05
829.87	23.73
830.044	23.92
830.217	23.65
830.391	23.69
830.565	24.01
830.738	24.08
830.912	24.53
831.085	24.24
831.259	23.91
831.432	23.33
831.606	23.01
831.779	22.95
831.953	23.6
832.126	23.41
832.3	23.42
832.473	22.97
832.647	22.85
832.82	23.07
832.994	23.55
833.167	23.4
833.34	23.31
833.514	23.04
833.687	23.11
833.86	22.56
834.034	23.62
834.207	23.67
834.38	22.59
834.553	22.84
834.727	22.7
834.9	23.72
835.073	23.49
835.246	23.83
835.419	23.59
835.593	24.83
835.766	25.16
835.939	25.13
836.112	25.56
836.285	27.22
836.458	27.87
836.631	27.99
836.804	26.66
836.977	29.01
837.15	29.69
837.323	29.34
837.496	28.67
837.669	29.74
837.842	29.15
838.015	28.32
838.188	28.36
838.361	27.13
838.533	27.03
838.706	27.65
838.879	25.75
839.052	24.62
839.225	25.6
839.398	23.86
839.57	24.25
839.743	25.08
839.916	24.75
840.088	25.74
840.261	26.99
840.434	27.74
840.607	27.21
840.779	27.32
840.952	27.26
841.124	27.3
841.297	28.82
841.47	28.64
841.642	27.04
841.815	27.77
841.987	26.49
842.16	25.29
842.332	26.16
842.505	26.83
842.677	27.21
842.85	29.02
843.022	30.65
843.194	30.57
843.367	29.91
843.539	29.02
843.712	28.65
843.884	30.2
844.056	32.72
844.229	30.88
844.401	30.05
844.573	29.07
844.745	25.19
844.918	22.14
845.09	22.51
845.262	23.84
845.434	25.61
845.606	25.11
845.779	25.75
845.951	23.99
846.123	21.63
846.295	21.8
846.467	20.79
846.639	24.56
846.811	26.65
846.983	29.35
847.155	26.52
847.327	26.62
847.499	26.41
847.671	25.03
847.843	26.24
848.015	26.34
848.187	27.62
848.359	29.59
848.531	27.95
848.703	28.07
848.875	22.77
849.047	21.74
849.218	23.49
849.39	26.08
849.562	22.9
849.734	22.19
849.905	26.41
850.077	22.01
850.249	22.07
850.421	25.01
850.592	23.4
850.764	25.37
850.936	27.58
851.107	25.61
851.279	23.41
851.451	30.17
851.622	30.67
851.794	28.35
851.965	28.93
852.137	29.47
852.308	27.56
852.48	30.01
852.651	28.95
852.823	29.75
852.994	27.8
853.166	26.88
853.337	22.54
853.509	19.07
853.68	21.75
853.851	22.14
854.023	20.92
854.194	19.99
854.365	16.42
854.537	17.28
854.708	18.73
854.879	23.07
855.05	28.08
855.222	30.9
855.393	32.35
855.564	30.09
855.735	34.17
855.906	38.23
856.078	35.91
856.249	38.54
856.42	37.37
856.591	39.16
856.762	36
856.933	30.95
857.104	27.58
857.275	28.49
857.446	27.88
857.617	28.1
857.788	24.92
857.959	30.42
858.13	33.04
858.301	35.27
858.472	29.44
858.643	30.33
858.814	32.86
858.985	36.12
859.155	35.75
859.326	37.3
859.497	36.75
859.668	35.55
859.839	34.26
860.009	33.86
860.18	33.93
860.351	38.2
860.522	39.91
860.692	38.2
860.863	36.53
861.034	35.14
861.204	34.24
861.375	36.86
861.546	37.04
861.716	35.54
861.887	31.22
862.057	30.41
862.228	27.92
862.398	23.83
862.569	25.79
862.739	26.77
862.91	29.04
863.08	32.71
863.251	30.32
863.421	31.83
863.592	33.29
863.762	32.18
863.932	33.71
864.103	35.1
864.273	39.37
864.443	35.23
864.614	36.81
864.784	37.53
864.954	34.66
865.125	33.51
865.295	34.13
865.465	33.44
865.635	34
865.805	37.49
865.976	40.34
866.146	38.61
866.316	44.24
866.486	45.21
866.656	42.96
866.826	39.91
866.996	39.1
867.166	34.51
867.336	32.14
867.506	35.89
867.676	31.57
867.846	29.94
868.016	28.54
868.186	25.12
868.356	22.83
868.526	21.87
868.696	22.66
868.866	24.54
869.036	26.89
869.206	32.73
869.376	27.57
869.545	24.36
869.715	24.32
869.885	23.03
870.055	24.48
870.224	22.25
870.394	23.19
870.564	28.95
870.734	25.8
870.903	26.25
871.073	23.46
871.243	26.64
871.412	28.24
871.582	25.86
871.751	27.71
871.921	25.81
872.091	25.59
872.26	24.49
872.43	23.71
872.599	23.21
872.769	24.56
872.938	24.56
873.108	25.01
873.277	24.17
873.446	22.19
873.616	19.67
873.785	25.77
873.955	25.51
874.124	23.89
874.293	25.69
874.463	29.73
874.632	31.78
874.801	29.79
874.971	26.35
875.14	28.8
875.309	31.08
875.478	35.55
875.647	30.89
875.817	32.64
875.986	34.51
876.155	30.75
876.324	34.2
876.493	32.46
876.662	34.01
876.831	36.62
877	35.63
877.17	37.39
877.339	35.84
877.508	37.33
877.677	34.83
877.846	33.89
878.015	32.22
878.184	25.38
878.352	28.34
878.521	27.18
878.69	26.7
878.859	24.87
879.028	26.5
879.197	27.53
879.366	26.02
879.534	27.25
879.703	26.54
879.872	25.7
880.041	25.22
880.21	23.32
880.378	22.91
880.547	22.19
880.716	23.44
880.884	22.13
881.053	21.18
881.222	21.18
881.39	20.79
881.559	21.26
881.727	21.86
881.896	22.25
882.065	22.24
882.233	22.38
882.402	22.55
882.57	22.17
882.739	22.25
882.907	21.96
883.076	21.8
883.244	22.08
883.412	21.72
883.581	22.21
883.749	22.5
883.918	22.27
884.086	22.65
884.254	23.67
884.423	23.86
884.591	23.83
884.759	24.62
884.927	25.53
885.096	24.31
885.264	25.49
885.432	25.92
885.6	26.82
885.769	26.76
885.937	26.11
886.105	25.94
886.273	26.79
886.441	27.84
886.609	27.5
886.777	25.56
886.945	29.72
887.113	28.54
887.281	26.22
887.449	22.61
887.617	23.34
887.785	27
887.953	25.19
888.121	22.59
888.289	21.79
888.457	22.62
888.625	23.72
888.793	22.52
888.961	22.59
889.129	23.65
889.296	26.75
889.464	27.55
889.632	24.06
889.8	24.59
889.967	28.26
890.135	27.85
