Data from 2938537_Reflection_3.txt Node
Date: Mon Jun 15 23:45:23 EDT 2015
User: robert
Spectrometer: USB4E03002
Autoset integration time: false
Trigger mode: 4
Integration Time (sec): 1.000000E-1
Scans to average: 10
Electric dark correction enabled: true
Nonlinearity correction enabled: false
Boxcar width: 6
Stray light correction enabled: false
XAxis mode: Wavelengths
Stop averaging: false
Number of Pixels in Spectrum: 3648
>>>>>Begin Spectral Data<<<<<
177.575	-44.41
177.794	-81.74
178.014	-98.23
178.233	-118.75
178.452	-417.67
178.672	105.45
178.891	400
179.11	-124.19
179.33	-133.87
179.549	-181.5
179.768	-136.36
179.987	-262.93
180.207	-56.31
180.426	-68.43
180.645	-54.39
180.864	-29.46
181.084	-54.19
181.303	-47.46
181.522	-20.65
181.741	-43.01
181.96	-22.3
182.179	-9.75
182.398	3.69
182.618	-48.94
182.837	-21.38
183.056	-36.24
183.275	-7.39
183.494	-30.02
183.713	-80.94
183.932	-40.05
184.151	-103.1
184.37	-147.06
184.589	-78.92
184.808	-218.72
185.027	-346.92
185.246	-176.14
185.465	-113.08
185.684	-248.68
185.903	-320.74
186.122	-2008.51
186.341	4900
186.56	1171.6
186.779	2528.21
186.998	-531.69
187.216	3111.54
187.435	362.74
187.654	937.86
187.873	4619.05
188.092	746.09
188.311	711.11
188.53	3591.67
188.748	-4090
188.967	-735.45
189.186	-2197.56
189.405	-979.22
189.623	1605.77
189.842	563.35
190.061	7427.27
190.28	-513.51
190.498	-1107.02
190.717	-751.35
190.936	-4185.71
191.154	-1454.05
191.373	5300
191.592	1811.11
191.81	1327.03
192.029	620.97
192.248	747.62
192.466	-1475
192.685	-228.77
192.904	-423.14
193.122	1328.57
193.341	1870.37
193.559	263.75
193.778	381.82
193.996	191.67
194.215	177.26
194.433	162.65
194.652	212.25
194.87	292.05
195.089	224.35
195.307	244.77
195.526	177.22
195.744	163.11
195.963	419.67
196.181	412.72
196.399	2200
196.618	558.78
196.836	-278.61
197.055	-215.74
197.273	-449.17
197.491	-70.72
197.71	-187.05
197.928	-39.49
198.146	-35.06
198.365	-19.85
198.583	-37.25
198.801	5700
199.019	440
199.238	515.52
199.456	1290.63
199.674	300
199.892	442.31
200.111	2303.57
200.329	246.33
200.547	339.43
200.765	272.57
200.983	337.61
201.202	355.86
201.42	659.31
201.638	468.68
201.856	1231.67
202.074	616.52
202.292	440.22
202.51	376.79
202.728	355.29
202.946	229.08
203.165	226.7
203.383	229.67
203.601	200.43
203.819	133.71
204.037	130.18
204.255	103.02
204.473	150.79
204.691	99.73
204.909	64.14
205.127	59.45
205.345	48.41
205.562	78.96
205.78	192.26
205.998	128.94
206.216	83.05
206.434	106.5
206.652	135.4
206.87	153.24
207.088	145.38
207.306	174.09
207.523	195.25
207.741	322.46
207.959	265.16
208.177	291.61
208.395	223.48
208.612	195.09
208.83	276.13
209.048	309.05
209.266	304.78
209.483	285.74
209.701	389.88
209.919	964.62
210.136	354.59
210.354	343.82
210.572	295.62
210.79	317.7
211.007	246.37
211.225	245.9
211.442	199.78
211.66	142.19
211.878	43.34
212.095	23.98
212.313	26.86
212.53	39.71
212.748	19.5
212.966	24.32
213.183	15.64
213.401	22.44
213.618	37.04
213.836	31.34
214.053	52.48
214.271	57.2
214.488	126.14
214.705	266.83
214.923	241.31
215.14	238.81
215.358	154.77
215.575	169.99
215.793	151.25
216.01	159.45
216.227	150.37
216.445	121.94
216.662	113.12
216.879	106.98
217.097	89.33
217.314	91.4
217.531	86.73
217.749	99.43
217.966	84.77
218.183	84.33
218.4	74.24
218.618	71.57
218.835	55.95
219.052	51.76
219.269	49.12
219.487	63.45
219.704	63.45
219.921	58.12
220.138	46.14
220.355	46.45
220.572	44.69
220.79	46.45
221.007	44.29
221.224	42.28
221.441	45.16
221.658	47.62
221.875	49.54
222.092	38.63
222.309	34.94
222.526	34.54
222.743	35.31
222.96	36.05
223.177	29.72
223.394	25.29
223.611	26.03
223.828	29.81
224.045	32.12
224.262	27.55
224.479	21.46
224.696	16.47
224.913	19.45
225.13	17.77
225.347	17.67
225.564	13.47
225.781	12.14
225.997	12.51
226.214	12.37
226.431	10.82
226.648	9.46
226.865	8.7
227.082	9.65
227.298	10.42
227.515	11.12
227.732	10.65
227.949	9.11
228.165	9.02
228.382	9.78
228.599	9.72
228.816	9.5
229.032	9.76
229.249	10.51
229.466	10.71
229.682	10.78
229.899	10.59
230.116	10.33
230.332	8.77
230.549	9.07
230.765	11.39
230.982	10.8
231.199	11.45
231.415	10.56
231.632	9.76
231.848	10.43
232.065	9.52
232.281	9.21
232.498	10.8
232.714	9.41
232.931	11.27
233.147	11.24
233.364	11.01
233.58	10.23
233.797	10.91
234.013	11.12
234.23	12.16
234.446	12.67
234.662	10.48
234.879	10.84
235.095	11.51
235.312	10.46
235.528	9.76
235.744	10.33
235.961	10.23
236.177	12.23
236.393	12.01
236.61	12.23
236.826	11.3
237.042	11.34
237.258	11.03
237.475	11.96
237.691	10.43
237.907	10.04
238.123	9.85
238.339	11.5
238.556	11.45
238.772	12.26
238.988	10.63
239.204	11.16
239.42	10.87
239.636	11.2
239.853	11.1
240.069	10.87
240.285	10.61
240.501	11.27
240.717	11.68
240.933	12.27
241.149	11.77
241.365	11.91
241.581	11.8
241.797	11.11
242.013	11.27
242.229	11.08
242.445	11.11
242.661	11.07
242.877	10.83
243.093	11.29
243.309	10.64
243.525	9.91
243.741	9.09
243.957	8.94
244.173	8.09
244.388	7.87
244.604	8.46
244.82	7.92
245.036	7.48
245.252	7.29
245.468	7.03
245.683	6.9
245.899	6.69
246.115	6.81
246.331	6.62
246.547	6.66
246.762	6.64
246.978	6.41
247.194	6.62
247.409	6.4
247.625	6.34
247.841	6.83
248.057	6.48
248.272	6.7
248.488	6.29
248.703	6.77
248.919	6.32
249.135	6.24
249.35	5.92
249.566	5.97
249.782	6.89
249.997	6.34
250.213	5.87
250.428	5.6
250.644	5.72
250.859	6.45
251.075	6.53
251.29	7.81
251.506	7.52
251.721	7.8
251.937	7.69
252.152	7.91
252.368	8.24
252.583	8.15
252.798	8.1
253.014	8.97
253.229	9.38
253.445	9.11
253.66	8.56
253.875	8.76
254.091	9.12
254.306	8.3
254.521	7.86
254.737	6.96
254.952	6.86
255.167	6.4
255.383	5.19
255.598	5.96
255.813	5.73
256.028	6.12
256.244	5.91
256.459	5.85
256.674	5.63
256.889	4.89
257.104	4.78
257.32	5.03
257.535	5.44
257.75	5.17
257.965	5.08
258.18	5.68
258.395	5.28
258.61	5.39
258.826	5.24
259.041	5.35
259.256	5.34
259.471	5.17
259.686	5.37
259.901	5.54
260.116	5.34
260.331	5.71
260.546	6
260.761	6.16
260.976	5.78
261.191	6
261.406	5.73
261.621	5.9
261.836	5.62
262.05	5.69
262.265	5.92
262.48	5.43
262.695	5.5
262.91	5.61
263.125	5.43
263.34	5.15
263.555	5.12
263.769	4.91
263.984	5.44
264.199	6.05
264.414	6.43
264.629	6
264.843	6.31
265.058	6.29
265.273	5.98
265.488	6.31
265.702	6.79
265.917	6.75
266.132	7.28
266.346	6.87
266.561	6.94
266.776	6.56
266.99	6.28
267.205	5.89
267.42	6.1
267.634	6.04
267.849	6.5
268.063	7.14
268.278	6.59
268.492	6.29
268.707	6.14
268.922	5.36
269.136	6.17
269.351	6.36
269.565	6.39
269.78	6.43
269.994	6.65
270.209	6.53
270.423	6.45
270.637	6.23
270.852	6.34
271.066	6.63
271.281	6.75
271.495	6.6
271.709	6.92
271.924	6.58
272.138	6.5
272.353	6.64
272.567	6.56
272.781	6.25
272.996	6.67
273.21	6.49
273.424	6.56
273.638	6.31
273.853	6.25
274.067	5.96
274.281	6.1
274.495	6.08
274.71	6.16
274.924	5.57
275.138	5.64
275.352	5.95
275.566	6.08
275.781	5.85
275.995	5.99
276.209	5.52
276.423	5.39
276.637	5.34
276.851	5.54
277.065	5.66
277.279	5.99
277.493	5.8
277.707	6.5
277.921	5.99
278.135	5.38
278.349	5.39
278.563	5.37
278.777	5.26
278.991	5.66
279.205	5.63
279.419	5.53
279.633	5.82
279.847	6.08
280.061	5.97
280.275	6.16
280.489	6.2
280.703	6.52
280.917	6.85
281.131	7
281.344	6.84
281.558	6.67
281.772	6.26
281.986	6.39
282.2	6.5
282.414	6.03
282.627	5.89
282.841	6.07
283.055	5.94
283.269	5.98
283.482	5.64
283.696	5.77
283.91	5.25
284.123	5.54
284.337	5.49
284.551	5.86
284.764	5.5
284.978	5.17
285.192	5.15
285.405	5.18
285.619	5.04
285.833	5.12
286.046	5.13
286.26	5.32
286.473	5.36
286.687	5.64
286.9	5.75
287.114	6.13
287.327	5.92
287.541	6.23
287.754	6.59
287.968	6.63
288.181	6.55
288.395	6.48
288.608	6.55
288.822	6.15
289.035	6.02
289.248	5.82
289.462	5.72
289.675	5.58
289.889	5.08
290.102	5.28
290.315	5.3
290.529	5.03
290.742	4.97
290.955	5.03
291.169	5.05
291.382	4.9
291.595	5.09
291.808	5
292.022	4.86
292.235	5
292.448	4.58
292.661	5.12
292.875	5.09
293.088	5.21
293.301	5.32
293.514	5.54
293.727	5.4
293.94	5.34
294.153	5.46
294.367	5.47
294.58	5.43
294.793	5.71
295.006	5.87
295.219	6.23
295.432	6.08
295.645	5.85
295.858	5.58
296.071	5.61
296.284	5.82
296.497	5.87
296.71	5.9
296.923	5.75
297.136	6.06
297.349	6.14
297.562	5.85
297.775	5.62
297.988	5.65
298.201	5.42
298.414	5.38
298.626	5.34
298.839	5.33
299.052	5.09
299.265	5.17
299.478	5.02
299.691	4.91
299.903	4.63
300.116	4.82
300.329	4.75
300.542	5
300.755	4.98
300.967	5.32
301.18	5.42
301.393	5.89
301.605	6.17
301.818	6.08
302.031	6.2
302.243	6.44
302.456	6.34
302.669	6.66
302.881	6.99
303.094	7.14
303.307	6.86
303.519	6.95
303.732	6.8
303.944	6.98
304.157	7.08
304.37	6.74
304.582	6.97
304.795	7.05
305.007	6.8
305.22	7.23
305.432	6.87
305.645	6.63
305.857	7.07
306.069	7.22
306.282	6.89
306.494	7.15
306.707	7.36
306.919	7.03
307.132	7.24
307.344	7.17
307.556	6.86
307.769	6.73
307.981	6.67
308.193	6.54
308.406	6.53
308.618	5.91
308.83	5.87
309.043	5.95
309.255	6.05
309.467	6
309.679	6.08
309.892	5.93
310.104	5.91
310.316	5.99
310.528	6.12
310.74	6.02
310.953	6.21
311.165	6.45
311.377	6.72
311.589	7.2
311.801	7.28
312.013	7.5
312.225	7.43
312.437	7.61
312.649	7.61
312.862	7.74
313.074	7.66
313.286	7.87
313.498	7.83
313.71	8.03
313.922	7.69
314.134	7.94
314.346	7.76
314.558	8.02
314.77	7.6
314.982	7.62
315.193	7.2
315.405	6.89
315.617	6.59
315.829	6.43
316.041	6.24
316.253	6.35
316.465	5.7
316.677	6.01
316.888	5.91
317.1	5.86
317.312	5.66
317.524	5.81
317.736	5.8
317.947	6.24
318.159	6.53
318.371	6.79
318.583	7.31
318.794	8.12
319.006	8.54
319.218	9.02
319.43	9.17
319.641	9.36
319.853	9.09
320.064	9.52
320.276	9.39
320.488	9.67
320.699	9.82
320.911	10.36
321.123	10.5
321.334	10.24
321.546	9.18
321.757	8.72
321.969	8.62
322.18	8.4
322.392	8.55
322.603	8.82
322.815	8.19
323.026	7.9
323.238	7.79
323.449	7.75
323.661	7.77
323.872	7.72
324.083	7.86
324.295	7.96
324.506	8.02
324.718	8.13
324.929	7.71
325.14	7.86
325.352	7.82
325.563	7.92
325.774	8.31
325.986	8.08
326.197	7.94
326.408	7.84
326.62	7.92
326.831	8.1
327.042	8.77
327.253	9.23
327.464	9.12
327.676	10.05
327.887	9.73
328.098	9.62
328.309	10.08
328.52	10.35
328.732	10.82
328.943	10.86
329.154	10.93
329.365	10.9
329.576	10.76
329.787	10.21
329.998	9.69
330.209	9.62
330.42	9.45
330.631	9.59
330.842	9.65
331.053	9.29
331.264	9.23
331.475	9.31
331.686	9.44
331.897	9.38
332.108	9.45
332.319	9.73
332.53	10.14
332.741	10.65
332.952	10.9
333.163	10.69
333.374	10.73
333.585	11.17
333.795	11.31
334.006	11.16
334.217	10.92
334.428	11.05
334.639	10.89
334.849	10.64
335.06	10.27
335.271	10.28
335.482	9.5
335.692	9.84
335.903	9.85
336.114	9.89
336.325	9.57
336.535	9.89
336.746	9.88
336.957	10.13
337.167	10.16
337.378	10.88
337.589	11.01
337.799	11.55
338.01	11.58
338.22	11.77
338.431	11.29
338.642	11.49
338.852	11.41
339.063	11.54
339.273	11.1
339.484	11.39
339.694	11.31
339.905	11.03
340.115	10.71
340.326	10.72
340.536	10.05
340.746	9.8
340.957	10.39
341.167	10.49
341.378	10.5
341.588	10.41
341.799	10.21
342.009	10.52
342.219	10.26
342.43	10.14
342.64	10.22
342.85	9.99
343.061	9.87
343.271	10.05
343.481	9.86
343.691	9.71
343.902	9.89
344.112	9.64
344.322	9.64
344.532	9.77
344.743	9.25
344.953	9.19
345.163	8.97
345.373	8.75
345.583	8.94
345.793	9.48
346.004	9.78
346.214	10.36
346.424	10.24
346.634	10.32
346.844	10.32
347.054	10.35
347.264	10.51
347.474	11.05
347.684	10.91
347.894	11.12
348.104	11.46
348.314	11.32
348.524	10.89
348.734	10.99
348.944	10.87
349.154	10.91
349.364	10.64
349.574	10.8
349.784	10.65
349.994	10.44
350.204	10.29
350.413	10.17
350.623	10.04
350.833	9.93
351.043	9.8
351.253	9.77
351.463	9.33
351.672	9.05
351.882	9.15
352.092	9.09
352.302	9.14
352.511	9.05
352.721	9.14
352.931	9.32
353.141	9.55
353.35	9.56
353.56	9.61
353.77	9.43
353.979	9.18
354.189	8.88
354.399	8.88
354.608	8.85
354.818	9.03
355.027	8.71
355.237	8.82
355.447	8.88
355.656	8.54
355.866	8.55
356.075	8.66
356.285	8.74
356.494	8.89
356.704	9.07
356.913	9.33
357.123	9.53
357.332	9.4
357.542	9.1
357.751	9.21
357.96	9.3
358.17	9.13
358.379	9.38
358.589	9.26
358.798	9.08
359.007	8.78
359.217	8.55
359.426	8.66
359.635	8.74
359.845	8.69
360.054	8.59
360.263	8.74
360.472	8.7
360.682	8.64
360.891	8.56
361.1	8.53
361.309	8.57
361.519	8.67
361.728	8.87
361.937	9.05
362.146	9
362.355	9.08
362.564	8.87
362.774	9.03
362.983	8.9
363.192	8.89
363.401	8.77
363.61	9.14
363.819	8.98
364.028	8.77
364.237	8.74
364.446	8.69
364.655	8.8
364.864	8.92
365.073	8.67
365.282	8.48
365.491	8.53
365.7	8.72
365.909	8.55
366.118	8.57
366.327	8.33
366.536	8.45
366.745	8.71
366.954	8.73
367.162	8.58
367.371	8.64
367.58	8.45
367.789	8.45
367.998	8.7
368.207	8.6
368.415	8.59
368.624	8.76
368.833	8.89
369.042	8.84
369.25	8.8
369.459	8.87
369.668	8.73
369.877	8.73
370.085	8.12
370.294	8.17
370.503	8.22
370.711	8.21
370.92	8.45
371.129	8.27
371.337	8.18
371.546	8.46
371.754	8.28
371.963	8.15
372.171	8.05
372.38	8.11
372.589	8.13
372.797	8.59
373.006	8.28
373.214	8.37
373.423	8.52
373.631	8.18
373.84	8.32
374.048	8.24
374.256	7.84
374.465	7.96
374.673	8.07
374.882	8.1
375.09	8.23
375.298	8.23
375.507	8.1
375.715	8.19
375.923	8.13
376.132	7.93
376.34	7.99
376.548	7.98
376.757	8.21
376.965	8.25
377.173	8.26
377.381	8.19
377.59	8.02
377.798	7.65
378.006	7.61
378.214	7.72
378.423	7.62
378.631	7.48
378.839	7.5
379.047	7.53
379.255	7.4
379.463	7.23
379.671	7.14
379.879	7.02
380.088	6.95
380.296	6.96
380.504	7.34
380.712	7.12
380.92	7.15
381.128	7.18
381.336	7.09
381.544	7.02
381.752	7.13
381.96	7.01
382.168	7.14
382.376	7.09
382.584	7.02
382.791	7.12
382.999	7.07
383.207	6.93
383.415	7.14
383.623	7.06
383.831	7.27
384.039	7.46
384.247	7.55
384.454	7.27
384.662	7.26
384.87	7
385.078	7.01
385.285	7.03
385.493	6.75
385.701	6.88
385.909	6.98
386.116	6.75
386.324	6.75
386.532	6.64
386.739	6.6
386.947	6.48
387.155	6.62
387.362	6.64
387.57	6.78
387.778	6.75
387.985	6.68
388.193	6.86
388.4	6.84
388.608	6.63
388.816	6.84
389.023	6.78
389.231	6.72
389.438	6.59
389.646	6.55
389.853	6.48
390.061	6.35
390.268	6.19
390.475	6.22
390.683	6.21
390.89	6.15
391.098	5.99
391.305	6.02
391.512	6.06
391.72	5.93
391.927	5.7
392.135	5.62
392.342	5.68
392.549	5.62
392.756	5.7
392.964	5.78
393.171	5.64
393.378	5.74
393.586	5.63
393.793	5.68
394	5.57
394.207	5.48
394.414	5.49
394.622	5.64
394.829	5.62
395.036	5.64
395.243	5.76
395.45	5.74
395.657	5.53
395.864	5.65
396.072	5.63
396.279	5.66
396.486	5.72
396.693	5.81
396.9	5.7
397.107	5.88
397.314	5.94
397.521	5.93
397.728	5.93
397.935	5.84
398.142	5.83
398.349	6.05
398.556	6.18
398.763	6.12
398.97	6.14
399.177	5.97
399.383	5.96
399.59	5.96
399.797	5.93
400.004	5.96
400.211	5.94
400.418	5.76
400.625	5.65
400.831	5.71
401.038	5.58
401.245	5.48
401.452	5.37
401.658	5.43
401.865	5.52
402.072	5.48
402.279	5.4
402.485	5.38
402.692	5.31
402.899	5.32
403.105	5.32
403.312	5.32
403.519	5.29
403.725	5.25
403.932	5.13
404.138	5.19
404.345	5
404.552	5.1
404.758	5.07
404.965	5.07
405.171	4.92
405.378	4.84
405.584	4.77
405.791	4.66
405.997	4.78
406.204	4.82
406.41	4.83
406.617	4.83
406.823	4.75
407.029	4.87
407.236	4.71
407.442	4.65
407.649	4.66
407.855	4.63
408.061	4.7
408.268	4.82
408.474	4.91
408.68	4.96
408.887	4.89
409.093	4.82
409.299	4.8
409.505	4.77
409.712	4.81
409.918	4.75
410.124	4.78
410.33	4.72
410.537	4.89
410.743	4.82
410.949	4.65
411.155	4.67
411.361	4.47
411.567	4.36
411.773	4.2
411.98	4.19
412.186	4.34
412.392	4.21
412.598	4.35
412.804	4.4
413.01	4.55
413.216	4.55
413.422	4.55
413.628	4.66
413.834	4.61
414.04	4.53
414.246	4.64
414.452	4.84
414.658	4.73
414.864	4.66
415.07	4.77
415.275	4.59
415.481	4.56
415.687	4.37
415.893	4.16
416.099	4.27
416.305	4.25
416.511	4.25
416.716	4.34
416.922	4.33
417.128	4.32
417.334	4.36
417.539	4.32
417.745	4.21
417.951	4.24
418.157	4.15
418.362	4.22
418.568	4.3
418.774	4.2
418.979	4.13
419.185	4.08
419.391	4.08
419.596	4.03
419.802	4.07
420.008	3.67
420.213	3.63
420.419	3.64
420.624	3.61
420.83	3.67
421.035	3.63
421.241	3.61
421.446	3.6
421.652	3.61
421.857	3.6
422.063	3.54
422.268	3.52
422.474	3.37
422.679	3.84
422.885	3.8
423.09	3.73
423.295	3.72
423.501	3.66
423.706	3.65
423.911	3.63
424.117	3.6
424.322	3.71
424.527	3.76
424.733	3.68
424.938	3.65
425.143	3.7
425.349	3.61
425.554	3.78
425.759	3.91
425.964	3.99
426.169	4.09
426.375	4.07
426.58	4.02
426.785	4.1
426.99	3.92
427.195	3.8
427.4	3.98
427.605	4.05
427.811	4.07
428.016	4.05
428.221	3.85
428.426	3.79
428.631	3.77
428.836	3.7
429.041	3.75
429.246	3.74
429.451	3.73
429.656	3.76
429.861	3.93
430.066	3.88
430.271	3.89
430.476	3.89
430.681	3.93
430.886	3.98
431.09	3.89
431.295	3.84
431.5	3.77
431.705	3.88
431.91	3.89
432.115	3.9
432.32	3.94
432.524	3.86
432.729	3.82
432.934	3.87
433.139	3.89
433.343	3.85
433.548	3.85
433.753	3.99
433.958	3.94
434.162	3.94
434.367	3.92
434.572	3.91
434.776	3.97
434.981	3.86
435.186	3.83
435.39	3.79
435.595	3.69
435.799	3.67
436.004	3.62
436.209	3.66
436.413	3.59
436.618	3.64
436.822	3.66
437.027	3.61
437.231	3.56
437.436	3.44
437.64	3.57
437.845	3.61
438.049	3.68
438.253	3.68
438.458	3.67
438.662	3.75
438.867	3.76
439.071	3.69
439.275	3.74
439.48	3.75
439.684	3.75
439.888	3.86
440.093	3.94
440.297	3.9
440.501	3.86
440.706	3.93
440.91	3.94
441.114	4
441.318	3.95
441.523	3.93
441.727	4.03
441.931	4.07
442.135	4.02
442.339	4.03
442.543	4.02
442.748	4
442.952	3.97
443.156	3.98
443.36	3.85
443.564	3.83
443.768	3.74
443.972	3.78
444.176	3.8
444.38	3.75
444.584	3.65
444.788	3.7
444.992	3.67
445.196	3.63
445.4	3.52
445.604	3.49
445.808	3.49
446.012	3.44
446.216	3.4
446.42	3.44
446.624	3.37
446.828	3.35
447.032	3.37
447.235	3.39
447.439	3.36
447.643	3.32
447.847	3.34
448.051	3.45
448.254	3.5
448.458	3.51
448.662	3.51
448.866	3.52
449.069	3.52
449.273	3.58
449.477	3.54
449.681	3.52
449.884	3.56
450.088	3.57
450.292	3.61
450.495	3.54
450.699	3.5
450.902	3.44
451.106	3.46
451.31	3.57
451.513	3.6
451.717	3.6
451.92	3.63
452.124	3.62
452.327	3.59
452.531	3.72
452.734	3.7
452.938	3.7
453.141	3.72
453.345	3.69
453.548	3.76
453.752	3.72
453.955	3.59
454.158	3.59
454.362	3.57
454.565	3.57
454.769	3.61
454.972	3.59
455.175	3.38
455.379	3.44
455.582	3.41
455.785	3.5
455.988	3.46
456.192	3.34
456.395	3.38
456.598	3.43
456.801	3.38
457.005	3.38
457.208	3.31
457.411	3.29
457.614	3.34
457.817	3.29
458.021	3.24
458.224	3.23
458.427	3.2
458.63	3.23
458.833	3.29
459.036	3.3
459.239	3.27
459.442	3.32
459.645	3.33
459.848	3.37
460.051	3.37
460.254	3.32
460.457	3.4
460.66	3.5
460.863	3.53
461.066	3.47
461.269	3.56
461.472	3.57
461.675	3.56
461.878	3.55
462.081	3.53
462.284	3.5
462.486	3.54
462.689	3.54
462.892	3.58
463.095	3.65
463.298	3.55
463.5	3.57
463.703	3.54
463.906	3.54
464.109	3.47
464.311	3.52
464.514	3.66
464.717	3.76
464.92	3.76
465.122	3.71
465.325	3.76
465.528	3.72
465.73	3.55
465.933	3.62
466.135	3.58
466.338	3.66
466.541	3.56
466.743	3.55
466.946	3.42
467.148	3.41
467.351	3.28
467.553	3.29
467.756	3.23
467.958	3.13
468.161	3.18
468.363	3.29
468.566	3.27
468.768	3.35
468.971	3.37
469.173	3.39
469.375	3.45
469.578	3.48
469.78	3.52
469.983	3.52
470.185	3.54
470.387	3.61
470.59	3.66
470.792	3.65
470.994	3.55
471.196	3.5
471.399	3.45
471.601	3.4
471.803	3.33
472.005	3.37
472.208	3.36
472.41	3.32
472.612	3.35
472.814	3.3
473.016	3.36
473.218	3.34
473.421	3.41
473.623	3.44
473.825	3.54
474.027	3.56
474.229	3.57
474.431	3.75
474.633	3.79
474.835	3.84
475.037	3.89
475.239	3.96
475.441	4
475.643	3.94
475.845	3.94
476.047	3.95
476.249	4.02
476.451	3.96
476.653	3.97
476.855	3.96
477.057	3.81
477.258	3.77
477.46	3.84
477.662	3.77
477.864	3.74
478.066	3.75
478.268	3.75
478.469	3.74
478.671	3.65
478.873	3.63
479.075	3.58
479.276	3.56
479.478	3.55
479.68	3.71
479.882	3.67
480.083	3.59
480.285	3.56
480.487	3.5
480.688	3.52
480.89	3.46
481.091	3.45
481.293	3.42
481.495	3.36
481.696	3.35
481.898	3.33
482.099	3.3
482.301	3.24
482.502	3.24
482.704	3.25
482.905	3.24
483.107	3.23
483.308	3.19
483.51	3.2
483.711	3.24
483.913	3.23
484.114	3.28
484.315	3.31
484.517	3.34
484.718	3.33
484.92	3.35
485.121	3.36
485.322	3.36
485.524	3.36
485.725	3.37
485.926	3.4
486.127	3.36
486.329	3.32
486.53	3.33
486.731	3.34
486.932	3.33
487.134	3.31
487.335	3.36
487.536	3.39
487.737	3.37
487.938	3.36
488.139	3.35
488.341	3.38
488.542	3.38
488.743	3.43
488.944	3.45
489.145	3.45
489.346	3.43
489.547	3.43
489.748	3.48
489.949	3.47
490.15	3.43
490.351	3.5
490.552	3.52
490.753	3.55
490.954	3.52
491.155	3.57
491.356	3.59
491.557	3.53
491.758	3.55
491.959	3.57
492.159	3.56
492.36	3.57
492.561	3.59
492.762	3.67
492.963	3.65
493.164	3.67
493.364	3.67
493.565	3.67
493.766	3.62
493.967	3.57
494.167	3.63
494.368	3.61
494.569	3.63
494.769	3.7
494.97	3.62
495.171	3.59
495.371	3.57
495.572	3.53
495.773	3.57
495.973	3.63
496.174	3.66
496.375	3.75
496.575	3.86
496.776	3.88
496.976	3.97
497.177	3.97
497.377	4.02
497.578	4.01
497.778	4.1
497.979	4.16
498.179	4.27
498.38	4.32
498.58	4.33
498.78	4.39
498.981	4.42
499.181	4.38
499.382	4.4
499.582	4.5
499.782	4.48
499.983	4.44
500.183	4.54
500.383	4.45
500.584	4.42
500.784	4.36
500.984	4.26
501.184	4.28
501.385	4.27
501.585	4.19
501.785	4.18
501.985	4.28
502.185	4.19
502.386	4.18
502.586	4.23
502.786	4.26
502.986	4.45
503.186	4.43
503.386	4.43
503.586	4.58
503.786	4.6
503.987	4.6
504.187	4.64
504.387	4.65
504.587	4.61
504.787	4.69
504.987	4.79
505.187	4.8
505.387	4.74
505.587	4.77
505.786	4.85
505.986	4.92
506.186	4.9
506.386	4.91
506.586	4.91
506.786	4.93
506.986	5.03
507.186	5.02
507.386	4.99
507.585	4.93
507.785	4.96
507.985	5.07
508.185	5.01
508.384	5.01
508.584	5.01
508.784	5
508.984	5
509.183	5.05
509.383	5.05
509.583	5.09
509.782	5.17
509.982	5.27
510.182	5.38
510.381	5.38
510.581	5.38
510.781	5.44
510.98	5.5
511.18	5.55
511.379	5.56
511.579	5.63
511.778	5.67
511.978	5.7
512.177	5.72
512.377	5.68
512.576	5.6
512.776	5.6
512.975	5.63
513.175	5.63
513.374	5.71
513.573	5.65
513.773	5.72
513.972	5.78
514.172	5.81
514.371	5.89
514.57	6.02
514.77	5.98
514.969	6.08
515.168	6.15
515.367	6.19
515.567	6.22
515.766	6.22
515.965	6.2
516.164	6.25
516.364	6.17
516.563	6.17
516.762	6.19
516.961	6.17
517.16	6.17
517.359	6.22
517.559	6.19
517.758	6.24
517.957	6.3
518.156	6.34
518.355	6.43
518.554	6.38
518.753	6.41
518.952	6.5
519.151	6.55
519.35	6.49
519.549	6.57
519.748	6.64
519.947	6.63
520.146	6.72
520.345	6.73
520.544	6.76
520.743	6.75
520.942	6.79
521.141	6.93
521.339	6.91
521.538	6.91
521.737	6.94
521.936	7.02
522.135	7.01
522.333	6.94
522.532	7.03
522.731	7.08
522.93	7.1
523.129	7.05
523.327	7.06
523.526	7.01
523.725	7.04
523.923	7.12
524.122	7.16
524.321	7.2
524.519	7.27
524.718	7.27
524.917	7.3
525.115	7.3
525.314	7.31
525.512	7.35
525.711	7.37
525.909	7.38
526.108	7.41
526.306	7.43
526.505	7.42
526.703	7.39
526.902	7.4
527.1	7.41
527.299	7.43
527.497	7.47
527.696	7.5
527.894	7.5
528.092	7.52
528.291	7.56
528.489	7.59
528.688	7.62
528.886	7.65
529.084	7.68
529.283	7.76
529.481	7.83
529.679	7.87
529.877	7.92
530.076	7.94
530.274	7.98
530.472	8.04
530.67	8.04
530.869	8.06
531.067	8.08
531.265	8.12
531.463	8.14
531.661	8.19
531.859	8.23
532.057	8.23
532.255	8.23
532.454	8.26
532.652	8.29
532.85	8.28
533.048	8.34
533.246	8.37
533.444	8.43
533.642	8.51
533.84	8.56
534.038	8.57
534.236	8.6
534.434	8.56
534.632	8.56
534.83	8.58
535.027	8.59
535.225	8.6
535.423	8.62
535.621	8.63
535.819	8.68
536.017	8.68
536.215	8.68
536.412	8.65
536.61	8.7
536.808	8.71
537.006	8.82
537.203	8.87
537.401	8.95
537.599	9.01
537.797	9.06
537.994	9.11
538.192	9.07
538.39	9.05
538.587	9.05
538.785	9.06
538.983	9.11
539.18	9.04
539.378	9.07
539.575	9.04
539.773	9.05
539.97	9.03
540.168	8.99
540.366	9.01
540.563	9.06
540.761	9.1
540.958	9.19
541.155	9.2
541.353	9.24
541.55	9.27
541.748	9.36
541.945	9.37
542.143	9.47
542.34	9.54
542.537	9.69
542.735	9.8
542.932	9.88
543.129	9.92
543.327	9.99
543.524	9.98
543.721	10.09
543.919	10.21
544.116	10.32
544.313	10.31
544.51	10.38
544.708	10.38
544.905	10.38
545.102	10.33
545.299	10.36
545.496	10.34
545.693	10.36
545.891	10.39
546.088	10.4
546.285	10.44
546.482	10.4
546.679	10.37
546.876	10.51
547.073	10.57
547.27	10.61
547.467	10.76
547.664	10.78
547.861	10.88
548.058	10.99
548.255	11.03
548.452	11.09
548.649	11.18
548.846	11.22
549.043	11.37
549.24	11.47
549.437	11.41
549.633	11.49
549.83	11.55
550.027	11.5
550.224	11.57
550.421	11.58
550.618	11.68
550.814	11.73
551.011	11.75
551.208	11.75
551.405	11.76
551.601	11.74
551.798	11.73
551.995	11.86
552.191	11.82
552.388	11.79
552.585	11.78
552.781	11.84
552.978	11.85
553.175	11.91
553.371	11.88
553.568	12.07
553.764	12.12
553.961	12.17
554.157	12.16
554.354	12.24
554.55	12.23
554.747	12.3
554.943	12.45
555.14	12.51
555.336	12.46
555.533	12.57
555.729	12.57
555.926	12.69
556.122	12.55
556.318	12.76
556.515	12.68
556.711	12.73
556.907	12.91
557.104	12.96
557.3	13.05
557.496	13.12
557.693	13.14
557.889	13.25
558.085	13.34
558.281	13.29
558.478	13.24
558.674	13.28
558.87	13.27
559.066	13.42
559.262	13.56
559.459	13.47
559.655	13.57
559.851	13.55
560.047	13.6
560.243	13.69
560.439	13.8
560.635	13.78
560.831	13.9
561.027	14.03
561.223	14.13
561.419	14.12
561.615	14.25
561.811	14.23
562.007	14.3
562.203	14.29
562.399	14.36
562.595	14.42
562.791	14.52
562.987	14.49
563.183	14.55
563.379	14.54
563.575	14.58
563.771	14.63
563.966	14.73
564.162	14.67
564.358	14.83
564.554	14.84
564.75	14.85
564.945	14.81
565.141	14.79
565.337	14.8
565.533	14.81
565.728	14.84
565.924	14.93
566.12	15.08
566.315	15.2
566.511	15.27
566.707	15.43
566.902	15.49
567.098	15.61
567.293	15.68
567.489	15.77
567.684	15.88
567.88	15.93
568.076	15.99
568.271	16.08
568.467	16.1
568.662	16.04
568.858	15.99
569.053	15.91
569.248	15.82
569.444	15.75
569.639	15.71
569.835	15.79
570.03	15.77
570.225	15.86
570.421	15.92
570.616	16.04
570.812	16.03
571.007	16.16
571.202	16.16
571.397	16.21
571.593	16.31
571.788	16.37
571.983	16.49
572.178	16.63
572.374	16.67
572.569	16.86
572.764	16.86
572.959	16.87
573.154	16.91
573.35	17.01
573.545	16.94
573.74	17.02
573.935	16.99
574.13	16.96
574.325	17.01
574.52	17.09
574.715	16.93
574.91	17.06
575.105	17.17
575.3	17.1
575.495	17.23
575.69	17.26
575.885	17.23
576.08	17.38
576.275	17.47
576.47	17.58
576.665	17.73
576.86	17.83
577.055	17.84
577.25	18.1
577.444	18.02
577.639	17.82
577.834	18.05
578.029	17.96
578.224	18
578.418	18.2
578.613	18.17
578.808	18.06
579.003	18.15
579.197	18.2
579.392	18.19
579.587	18.21
579.781	18.18
579.976	18.25
580.171	18.36
580.365	18.38
580.56	18.37
580.755	18.27
580.949	18.15
581.144	18.16
581.338	18.32
581.533	18.31
581.727	18.26
581.922	18.39
582.116	18.35
582.311	18.42
582.505	18.4
582.7	18.5
582.894	18.48
583.089	18.69
583.283	18.73
583.478	18.73
583.672	18.84
583.866	18.86
584.061	18.95
584.255	18.97
584.449	18.97
584.644	19
584.838	19.03
585.032	19.11
585.226	19.09
585.421	19.13
585.615	19.08
585.809	19.16
586.003	19.36
586.198	19.3
586.392	19.3
586.586	19.29
586.78	19.36
586.974	19.25
587.168	19.33
587.363	19.29
587.557	19.33
587.751	19.27
587.945	19.32
588.139	19.43
588.333	19.51
588.527	19.42
588.721	19.44
588.915	19.43
589.109	19.48
589.303	19.46
589.497	19.66
589.691	19.63
589.885	19.71
590.079	19.76
590.273	19.96
590.466	19.87
590.66	19.81
590.854	19.85
591.048	19.85
591.242	19.88
591.436	20.08
591.629	20.11
591.823	20.18
592.017	20.11
592.211	20.12
592.404	20.15
592.598	20.15
592.792	20.13
592.986	20.16
593.179	20.19
593.373	20.23
593.567	20.28
593.76	20.16
593.954	20.04
594.147	20.01
594.341	20.02
594.535	20.07
594.728	20.13
594.922	20.06
595.115	20
595.309	20.15
595.502	20.2
595.696	20.15
595.889	20.07
596.083	20.18
596.276	20.36
596.47	20.3
596.663	20.36
596.856	20.43
597.05	20.44
597.243	20.36
597.437	20.43
597.63	20.48
597.823	20.45
598.017	20.51
598.21	20.63
598.403	20.79
598.596	20.62
598.79	20.67
598.983	20.81
599.176	20.92
599.369	20.89
599.563	20.96
599.756	21.24
599.949	21.28
600.142	21.34
600.335	21.14
600.528	21.16
600.722	21.14
600.915	21.23
601.108	21.24
601.301	21.21
601.494	21.26
601.687	21.22
601.88	21.12
602.073	20.97
602.266	20.86
602.459	20.87
602.652	20.88
602.845	20.86
603.038	20.83
603.231	20.82
603.424	20.67
603.617	20.81
603.809	20.79
604.002	20.84
604.195	20.74
604.388	20.83
604.581	20.99
604.774	20.98
604.966	20.95
605.159	20.97
605.352	21.22
605.545	21.31
605.737	21.3
605.93	21.42
606.123	21.38
606.316	21.42
606.508	21.43
606.701	21.46
606.894	21.51
607.086	21.47
607.279	21.47
607.471	21.56
607.664	21.56
607.857	21.35
608.049	21.28
608.242	21.28
608.434	21.27
608.627	21.26
608.819	21.29
609.012	21.32
609.204	21.34
609.397	21.33
609.589	21.38
609.782	21.5
609.974	21.45
610.166	21.44
610.359	21.53
610.551	21.57
610.743	21.63
610.936	21.59
611.128	21.75
611.32	21.67
611.513	21.64
611.705	21.61
611.897	21.79
612.09	21.75
612.282	21.73
612.474	22
612.666	22.1
612.858	22.28
613.051	22.29
613.243	22.34
613.435	22.48
613.627	22.27
613.819	22.68
614.011	22.61
614.203	22.8
614.395	22.57
614.588	22.61
614.78	22.69
614.972	22.5
615.164	22.58
615.356	22.43
615.548	22.61
615.74	22.63
615.932	22.57
616.124	22.82
616.315	22.54
616.507	22.58
616.699	22.57
616.891	22.62
617.083	22.69
617.275	22.7
617.467	22.75
617.659	22.66
617.85	22.74
618.042	22.7
618.234	22.56
618.426	22.6
618.618	22.44
618.809	22.43
619.001	22.45
619.193	22.52
619.384	22.41
619.576	22.27
619.768	22.2
619.959	21.99
620.151	22.09
620.343	22.14
620.534	21.99
620.726	22.26
620.917	22.27
621.109	22.37
621.301	22.4
621.492	22.5
621.684	22.39
621.875	22.44
622.067	22.58
622.258	22.55
622.45	22.82
622.641	22.89
622.832	22.83
623.024	22.84
623.215	22.66
623.407	22.68
623.598	22.55
623.789	22.5
623.981	22.48
624.172	22.5
624.363	22.59
624.555	22.53
624.746	22.34
624.937	22.19
625.129	22.18
625.32	22.18
625.511	22.33
625.702	22.34
625.893	22.3
626.085	22.36
626.276	22.39
626.467	22.32
626.658	22.32
626.849	22.26
627.04	22.22
627.231	22.29
627.422	22.38
627.614	22.34
627.805	22.41
627.996	22.3
628.187	22.41
628.378	22.58
628.569	22.65
628.76	22.69
628.951	22.72
629.142	22.91
629.332	22.93
629.523	23
629.714	23.16
629.905	22.97
630.096	22.87
630.287	22.78
630.478	22.76
630.669	22.72
630.859	22.63
631.05	22.54
631.241	22.43
631.432	22.4
631.623	22.39
631.813	22.29
632.004	22.3
632.195	22.18
632.385	22.33
632.576	22.36
632.767	22.38
632.957	22.43
633.148	22.4
633.339	22.22
633.529	22.27
633.72	22.34
633.91	22.43
634.101	22.43
634.292	22.52
634.482	22.59
634.673	22.7
634.863	22.67
635.054	22.63
635.244	22.49
635.435	22.58
635.625	22.58
635.815	22.78
636.006	22.87
636.196	22.98
636.387	22.91
636.577	22.86
636.767	23.01
636.958	22.93
637.148	22.88
637.338	22.89
637.529	22.92
637.719	23.06
637.909	22.96
638.099	23.04
638.29	23.02
638.48	23.08
638.67	23.05
638.86	23.04
639.05	23.01
639.241	23.04
639.431	23
639.621	23.29
639.811	23.42
640.001	23.38
640.191	23.36
640.381	23.35
640.571	23.31
640.761	23.23
640.951	23.22
641.141	23.01
641.331	23.16
641.521	23.09
641.711	22.98
641.901	23.07
642.091	22.69
642.281	22.66
642.471	22.81
642.661	22.9
642.851	22.98
643.041	23.21
643.231	23.2
643.42	23.13
643.61	23.25
643.8	23.15
643.99	23.04
644.18	23.04
644.369	23.17
644.559	23.18
644.749	23.13
644.939	23.07
645.128	22.88
645.318	22.87
645.508	22.62
645.697	22.7
645.887	22.8
646.076	22.92
646.266	23.08
646.456	23.33
646.645	23.51
646.835	23.36
647.024	23.58
647.214	23.76
647.403	23.72
647.593	23.98
647.782	23.98
647.972	24.14
648.161	24.15
648.351	24.05
648.54	24.09
648.73	23.85
648.919	23.73
649.108	23.53
649.298	23.64
649.487	23.66
649.677	23.43
649.866	23.59
650.055	23.56
650.244	23.49
650.434	23.3
650.623	23.27
650.812	23.13
651.002	23.02
651.191	23.41
651.38	23.51
651.569	23.58
651.758	23.59
651.947	23.68
652.137	23.89
652.326	23.87
652.515	23.95
652.704	24.06
652.893	24.04
653.082	24.2
653.271	24.57
653.46	24.64
653.649	24.38
653.838	24.31
654.027	24.39
654.216	24.68
654.405	24.58
654.594	24.61
654.783	24.47
654.972	24.53
655.161	24.4
655.35	24.49
655.539	24.19
655.728	24.06
655.916	24
656.105	24.12
656.294	24
656.483	23.95
656.672	23.61
656.86	23.55
657.049	23.4
657.238	23.32
657.427	23.29
657.615	23.42
657.804	23.42
657.993	23.45
658.181	23.39
658.37	23.4
658.559	23.34
658.747	23.35
658.936	23.12
659.125	23.28
659.313	23.21
659.502	23.26
659.69	23.57
659.879	23.55
660.067	23.62
660.256	23.66
660.444	23.74
660.633	23.79
660.821	23.7
661.01	23.62
661.198	23.72
661.387	23.96
661.575	23.91
661.763	24.07
661.952	24.22
662.14	23.92
662.328	23.93
662.517	23.86
662.705	23.92
662.893	24.12
663.082	24
663.27	24.21
663.458	24.29
663.646	24.42
663.834	24.46
664.023	24.35
664.211	24.35
664.399	24.08
664.587	24.3
664.775	24.14
664.963	24.3
665.152	24.41
665.34	24.16
665.528	24.32
665.716	24.21
665.904	24.3
666.092	24.23
666.28	24.19
666.468	24.25
666.656	24.36
666.844	24.78
667.032	24.54
667.22	24.93
667.408	24.72
667.596	24.67
667.784	25.06
667.971	24.94
668.159	25.09
668.347	24.91
668.535	25.03
668.723	25.19
668.911	25.27
669.098	24.95
669.286	24.85
669.474	24.88
669.662	24.58
669.849	24.65
670.037	24.72
670.225	24.44
670.413	24.76
670.6	24.9
670.788	24.97
670.976	24.95
671.163	24.79
671.351	24.73
671.538	24.97
671.726	24.78
671.913	24.96
672.101	24.98
672.289	24.79
672.476	24.68
672.664	24.81
672.851	24.24
673.039	24.05
673.226	24.28
673.413	24.29
673.601	24.09
673.788	24.1
673.976	23.93
674.163	23.9
674.35	23.9
674.538	23.93
674.725	24.15
674.912	24.09
675.1	24.05
675.287	24.32
675.474	24.27
675.662	24.16
675.849	24.29
676.036	24.42
676.223	23.93
676.411	24.27
676.598	24.41
676.785	24.4
676.972	24.57
677.159	24.44
677.346	24.27
677.533	24.14
677.721	24.34
677.908	24.41
678.095	24.54
678.282	24.3
678.469	24.37
678.656	24.68
678.843	24.6
679.03	24.37
679.217	24.27
679.404	24.15
679.591	24.36
679.778	24.46
679.964	24.46
680.151	24.42
680.338	24.35
680.525	24.12
680.712	24.39
680.899	24.34
681.086	24.3
681.272	24.15
681.459	24.49
681.646	24.53
681.833	24.58
682.02	24.39
682.206	24.52
682.393	24.56
682.58	24.34
682.766	24.34
682.953	24.56
683.14	24.84
683.326	24.97
683.513	25.3
683.7	25.19
683.886	25.06
684.073	24.95
684.259	24.98
684.446	25.17
684.632	24.93
684.819	25.02
685.005	25.04
685.192	25.19
685.378	25.14
685.565	24.61
685.751	24.52
685.938	24.3
686.124	24.55
686.31	24.62
686.497	24.71
686.683	24.6
686.87	24.48
687.056	24.68
687.242	24.5
687.429	24.59
687.615	24.69
687.801	24.75
687.987	24.67
688.174	24.77
688.36	24.92
688.546	24.88
688.732	24.62
688.918	24.69
689.105	24.59
689.291	24.74
689.477	24.87
689.663	24.98
689.849	25.1
690.035	25.17
690.221	25.39
690.407	25.45
690.593	25.61
690.779	25.31
690.965	25.43
691.151	25.96
691.337	25.99
691.523	26.43
691.709	26.17
691.895	26.07
692.081	25.89
692.267	26.01
692.453	25.73
692.639	25.33
692.825	25.21
693.011	25.26
693.196	25.4
693.382	25.21
693.568	24.82
693.754	24.54
693.94	24.21
694.125	24.48
694.311	24.38
694.497	24.69
694.682	24.76
694.868	24.7
695.054	24.93
695.239	25.1
695.425	24.88
695.611	24.9
695.796	24.76
695.982	24.71
696.168	24.95
696.353	25
696.539	24.97
696.724	24.91
696.91	24.87
697.095	24.37
697.281	24.33
697.466	24.19
697.652	24.18
697.837	23.97
698.023	24.18
698.208	24.32
698.393	24.38
698.579	24.35
698.764	24.46
698.949	24.48
699.135	24.72
699.32	24.64
699.505	24.9
699.691	24.92
699.876	24.74
700.061	24.66
700.246	25.12
700.432	24.74
700.617	24.35
700.802	24.42
700.987	25.03
701.172	24.94
701.358	25
701.543	25.08
701.728	25.04
701.913	25.42
702.098	25.78
702.283	26.18
702.468	26.32
702.653	26.22
702.838	26.45
703.023	26.75
703.208	26.68
703.393	26.28
703.578	26.35
703.763	26.08
703.948	25.96
704.133	26.28
704.318	25.86
704.503	25.76
704.688	25.61
704.873	25.73
705.057	25.6
705.242	25.48
705.427	25.73
705.612	25.85
705.797	25.61
705.981	25.79
706.166	26.02
706.351	25.7
706.536	25.31
706.72	25.29
706.905	24.98
707.09	24.88
707.274	24.94
707.459	24.93
707.644	25.3
707.828	24.91
708.013	24.84
708.197	25.1
708.382	24.81
708.567	24.57
708.751	24.41
708.936	24.73
709.12	24.8
709.305	25.02
709.489	25.28
709.673	25.31
709.858	25.46
710.042	25.39
710.227	25.71
710.411	25.89
710.596	25.7
710.78	25.72
710.964	26.23
711.149	26.53
711.333	26.56
711.517	27
711.702	27.15
711.886	27.09
712.07	26.83
712.254	26.65
712.438	26.41
712.623	26.48
712.807	26.41
712.991	26.33
713.175	26.39
713.359	26.21
713.544	26.15
713.728	26.01
713.912	25.8
714.096	25.6
714.28	25.29
714.464	25.34
714.648	25.26
714.832	25.15
715.016	25.18
715.2	25.06
715.384	25.2
715.568	24.95
715.752	24.92
715.936	24.77
716.12	25.11
716.304	24.8
716.488	24.56
716.671	25.06
716.855	25.29
717.039	25.28
717.223	25.23
717.407	25.12
717.59	25.17
717.774	25.05
717.958	25.26
718.142	24.94
718.325	25.21
718.509	24.73
718.693	25.34
718.877	25.53
719.06	25.09
719.244	24.44
719.428	24.81
719.611	25.26
719.795	25.09
719.978	25.29
720.162	25.24
720.345	25.47
720.529	25.54
720.713	25.35
720.896	25.61
721.08	25.44
721.263	25.48
721.446	25.92
721.63	26.74
721.813	26.37
721.997	26.23
722.18	26.5
722.364	26.32
722.547	26.33
722.73	25.8
722.914	25.67
723.097	25.53
723.28	25.19
723.464	24.92
723.647	25.01
723.83	24.42
724.013	24.24
724.197	24.62
724.38	24.59
724.563	24.92
724.746	25.04
724.929	25.49
725.112	25.66
725.296	25.85
725.479	25.99
725.662	26.19
725.845	26.23
726.028	25.99
726.211	26.47
726.394	26.61
726.577	26.46
726.76	26.21
726.943	26.01
727.126	25.93
727.309	25.59
727.492	25.7
727.675	25.4
727.858	25.82
728.041	25.67
728.224	25.7
728.407	26.25
728.589	26.09
728.772	26.19
728.955	26.41
729.138	26.66
729.321	27.1
729.503	27.14
729.686	27.05
729.869	27.29
730.052	27.68
730.234	27.35
730.417	27.69
730.6	27.66
730.782	27.4
730.965	27.94
731.148	27.55
731.33	27.43
731.513	27.14
731.695	26.6
731.878	26.69
732.061	26.66
732.243	26.53
732.426	26.62
732.608	26.41
732.791	26.23
732.973	26.52
733.156	26.78
733.338	26.16
733.52	26.23
733.703	26.17
733.885	26.66
734.068	26.22
734.25	26.21
734.432	26.44
734.615	26.24
734.797	25.76
734.979	26.03
735.162	26.21
735.344	25.95
735.526	26.17
735.708	26.43
735.891	26.07
736.073	25.84
736.255	25.47
736.437	25.95
736.619	25.47
736.802	25.34
736.984	25.52
737.166	25.79
737.348	25.97
737.53	25.8
737.712	25.65
737.894	25.11
738.076	24.82
738.258	25.25
738.44	25.57
738.622	25.48
738.804	25.54
738.986	25.31
739.168	25.37
739.35	25.4
739.532	25.61
739.714	25.8
739.896	26.12
740.078	26.11
740.259	26.09
740.441	26.08
740.623	25.66
740.805	25.98
740.987	25.55
741.168	25.72
741.35	26.31
741.532	25.6
741.714	25.65
741.895	25.52
742.077	25.06
742.259	25.07
742.44	25.1
742.622	24.96
742.804	25.01
742.985	25.18
743.167	24.84
743.348	25.73
743.53	25.2
743.711	25.95
743.893	26.73
744.075	26.84
744.256	26.98
744.438	27.06
744.619	26.89
744.8	26.63
744.982	26.81
745.163	27.24
745.345	27.55
745.526	27.61
745.707	27.68
745.889	27.8
746.07	26.54
746.252	26.48
746.433	25.31
746.614	24.77
746.795	25.44
746.977	25.48
747.158	26.21
747.339	25.71
747.52	25.59
747.702	25.22
747.883	25.3
748.064	25.44
748.245	25.41
748.426	26
748.607	26.31
748.788	27.04
748.97	27.31
749.151	26.7
749.332	26.66
749.513	26.34
749.694	26.73
749.875	26.07
750.056	25.86
750.237	25.62
750.418	25.07
750.599	25.3
750.78	25.14
750.96	24.97
751.141	24.69
751.322	24.94
751.503	25.06
751.684	24.63
751.865	24.74
752.046	24.58
752.226	24.89
752.407	25.49
752.588	25.55
752.769	25.58
752.949	26.14
753.13	26.18
753.311	25.52
753.492	26.09
753.672	25.73
753.853	26.05
754.034	26.36
754.214	25.76
754.395	25.78
754.575	25.89
754.756	26.17
754.937	26.09
755.117	26.83
755.298	26.29
755.478	25.63
755.659	26.19
755.839	25.64
756.02	25.82
756.2	25.38
756.381	25.51
756.561	25.88
756.741	26.17
756.922	26.13
757.102	26.34
757.283	26.88
757.463	26.5
757.643	26.81
757.823	27.52
758.004	27.32
758.184	27.99
758.364	27.84
758.545	27.74
758.725	27.7
758.905	27.66
759.085	26.79
759.265	26.53
759.446	25.48
759.626	25.21
759.806	25.33
759.986	25.06
760.166	24.73
760.346	24.78
760.526	24.74
760.706	24.91
760.886	25.31
761.066	25.21
761.246	25.22
761.426	25.14
761.606	24.99
761.786	25.05
761.966	24.92
762.146	24.92
762.326	25.04
762.506	25.16
762.686	25.36
762.866	24.89
763.046	24.76
763.225	24.68
763.405	24.5
763.585	24.81
763.765	25.48
763.945	25.44
764.124	25.91
764.304	26.31
764.484	26.08
764.664	25.81
764.843	25.62
765.023	25.01
765.203	25.29
765.382	25.22
765.562	25.38
765.741	25.72
765.921	25.33
766.101	25.3
766.28	25.49
766.46	25.23
766.639	24.99
766.819	25.53
766.998	25.32
767.178	25.83
767.357	26.59
767.537	27.03
767.716	27.18
767.896	27.12
768.075	26.43
768.254	26.91
768.434	26.95
768.613	27.71
768.792	27.63
768.972	27.65
769.151	27.88
769.33	28.79
769.51	28.67
769.689	28.59
769.868	28.88
770.047	29.16
770.226	29.18
770.406	30.09
770.585	29.83
770.764	29.54
770.943	28.62
771.122	29.1
771.301	28.89
771.48	28.22
771.66	28.09
771.839	27.57
772.018	27.99
772.197	27.4
772.376	27
772.555	26.85
772.734	25.99
772.913	25.86
773.092	25.94
773.271	26.28
773.449	26.52
773.628	26.06
773.807	26.2
773.986	25.5
774.165	25.92
774.344	24.87
774.523	24.81
774.701	25.44
774.88	24.75
775.059	24.68
775.238	24.25
775.417	24.99
775.595	25.17
775.774	24.37
775.953	23.99
776.131	23.37
776.31	23.7
776.489	24.09
776.667	24.48
776.846	23.84
777.025	22.52
777.203	22.87
777.382	23.77
777.56	24.23
777.739	24.28
777.917	24.79
778.096	25.33
778.274	26.62
778.453	27.76
778.631	27.17
778.81	26.59
778.988	26.54
779.166	26.75
779.345	28.12
779.523	28.54
779.702	28.18
779.88	27.99
780.058	27.5
780.237	27.31
780.415	27.56
780.593	26.56
780.771	27.43
780.95	28.14
781.128	28.39
781.306	29.11
781.484	29.29
781.662	29.4
781.841	28.5
782.019	29.04
782.197	29.01
782.375	28.13
782.553	27.22
782.731	26.39
782.909	27.48
783.087	26.4
783.265	26.89
783.443	26.93
783.621	26.82
783.799	27.11
783.977	26.48
784.155	27.41
784.333	26.7
784.511	26.83
784.689	27.82
784.867	28.51
785.045	28.69
785.223	28.32
785.4	28.27
785.578	27.92
785.756	27.69
785.934	27.3
786.112	26.88
786.289	27.05
786.467	27.14
786.645	27.14
786.823	27.69
787	26.72
787.178	26.53
787.356	27.16
787.533	26.8
787.711	26.34
787.889	26.33
788.066	26.03
788.244	25.84
788.421	25.44
788.599	25.07
788.776	25.28
788.954	25.81
789.131	25.37
789.309	26.07
789.486	26.77
789.664	26.96
789.841	26.14
790.019	26.66
790.196	26.57
790.373	28.19
790.551	28.66
790.728	29.95
790.906	30.33
791.083	30.27
791.26	29.59
791.437	28.75
791.615	28.45
791.792	28
791.969	26.05
792.146	27.76
792.324	28.53
792.501	28.76
792.678	27.26
792.855	26.92
793.032	26.44
793.209	27.21
793.387	26.16
793.564	27.57
793.741	28.97
793.918	30.01
794.095	30.08
794.272	31.12
794.449	31.35
794.626	30.31
794.803	31.59
794.98	31.96
795.157	31.99
795.334	32.16
795.511	31.28
795.688	31.74
795.864	31.09
796.041	31.77
796.218	30.81
796.395	30.38
796.572	30.45
796.749	29.36
796.925	30.1
797.102	28.58
797.279	28.5
797.456	27.87
797.632	27.35
797.809	28.04
797.986	27.89
798.162	27.5
798.339	26.01
798.516	26.88
798.692	27.85
798.869	28.03
799.046	27.81
799.222	27.19
799.399	27.32
799.575	28.3
799.752	29.74
799.928	30.27
800.105	29.79
800.281	30.53
800.458	30.46
800.634	30.12
800.811	29.98
800.987	29.7
801.163	30.43
801.34	30.91
801.516	31.57
801.692	31.06
801.869	30.34
802.045	29.49
802.221	28.59
802.398	28.9
802.574	28.8
802.75	30.16
802.926	30.9
803.103	30.17
803.279	29.5
803.455	28.77
803.631	29.45
803.807	28.87
803.983	29.46
804.16	28.6
804.336	27.86
804.512	29.5
804.688	29.59
804.864	29.34
805.04	28.56
805.216	29.1
805.392	29.3
805.568	29.53
805.744	29.23
805.92	28.71
806.096	27.54
806.272	27.81
806.448	28.83
806.623	28.36
806.799	26.95
806.975	27.41
807.151	26.96
807.327	26.49
807.503	26.25
807.678	28.1
807.854	27.89
808.03	28.19
808.206	27.48
808.381	28.08
808.557	28.38
808.733	28.5
808.908	30.19
809.084	30.06
809.26	29.08
809.435	29.34
809.611	29.51
809.787	29.34
809.962	26.04
810.138	26.47
810.313	26.52
810.489	26.99
810.664	27.53
810.84	27.16
811.015	26.78
811.191	27.46
811.366	28.31
811.542	27.64
811.717	29.71
811.892	30.2
812.068	29.31
812.243	31.35
812.419	31.36
812.594	30.48
812.769	31.55
812.944	31.16
813.12	30.33
813.295	30.26
813.47	30.25
813.645	29.38
813.821	31.54
813.996	30.65
814.171	31.26
814.346	33.02
814.521	33.7
814.697	33.04
814.872	33.56
815.047	33.61
815.222	33.41
815.397	33.71
815.572	33.97
815.747	33.48
815.922	34.93
816.097	33.23
816.272	31.94
816.447	31.54
816.622	30.59
816.797	29.56
816.972	30.15
817.147	30.46
817.322	29.44
817.496	30.45
817.671	30.51
817.846	29.42
818.021	29.34
818.196	29.47
818.371	30.41
818.545	30.69
818.72	30.1
818.895	29.61
819.069	28.71
819.244	28.17
819.419	27.16
819.594	27.48
819.768	26.59
819.943	25.82
820.117	26.28
820.292	26.15
820.467	25.67
820.641	25.18
820.816	24.99
820.99	25.12
821.165	25.34
821.339	25.61
821.514	25.81
821.688	25.81
821.863	25.51
822.037	25.59
822.212	26.02
822.386	25.87
822.56	25.79
822.735	25.85
822.909	25.92
823.084	26.13
823.258	26.03
823.432	25.89
823.606	25.98
823.781	25.92
823.955	26.2
824.129	26.78
824.303	26.99
824.478	26.67
824.652	26.71
824.826	26.69
825	26.81
825.174	26.54
825.348	26.25
825.523	26.45
825.697	26.84
825.871	26.43
826.045	26.68
826.219	26.71
826.393	26.01
826.567	26.16
826.741	25.96
826.915	26.53
827.089	26.83
827.263	26.74
827.437	26.78
827.611	27.12
827.784	27.24
827.958	26.54
828.132	27.08
828.306	26.64
828.48	26.2
828.654	26.33
828.827	25.55
829.001	26.26
829.175	25.91
829.349	26.07
829.522	26.04
829.696	27.08
829.87	27.39
830.044	27.12
830.217	28.16
830.391	27.07
830.565	26.58
830.738	26.87
830.912	27.1
831.085	28.17
831.259	28.58
831.432	29.17
831.606	28.29
831.779	28.32
831.953	27.68
832.126	26.18
832.3	26.61
832.473	26.49
832.647	27.79
832.82	28.62
832.994	28.82
833.167	28.69
833.34	28.9
833.514	28
833.687	27.54
833.86	28.07
834.034	28.18
834.207	28.29
834.38	29.15
834.553	29.36
834.727	29.15
834.9	28.88
835.073	29.43
835.246	29.54
835.419	29.36
835.593	28.9
835.766	29.94
835.939	29.56
836.112	29.46
836.285	29.77
836.458	29.85
836.631	30.12
836.804	30.19
836.977	30.85
837.15	31.42
837.323	30.25
837.496	29.47
837.669	31.47
837.842	31.62
838.015	32.38
838.188	32.13
838.361	31.68
838.533	31.94
838.706	32.44
838.879	30.75
839.052	30.37
839.225	29.89
839.398	28.7
839.57	30.06
839.743	30.94
839.916	28.4
840.088	27.95
840.261	27.14
840.434	27.72
840.607	28.71
840.779	27.74
840.952	27.3
841.124	29.56
841.297	28.91
841.47	28.95
841.642	29.74
841.815	29.71
841.987	28.88
842.16	32.19
842.332	34.23
842.505	33.52
842.677	33.99
842.85	34.23
843.022	36.86
843.194	39.26
843.367	39.39
843.539	40.49
843.712	42.84
843.884	43.41
844.056	43.53
844.229	45.17
844.401	42.29
844.573	40.6
844.745	40.49
844.918	41.11
845.09	42.42
845.262	37.77
845.434	35.22
845.606	34.7
845.779	32.84
845.951	35.21
846.123	32.88
846.295	32.24
846.467	32.29
846.639	33.48
846.811	31.34
846.983	32.93
847.155	35.02
847.327	29.93
847.499	33.04
847.671	31.49
847.843	30.6
848.015	31.52
848.187	29.48
848.359	30.12
848.531	27.62
848.703	27.84
848.875	26.79
849.047	30.06
849.218	32.37
849.39	30.59
849.562	34.05
849.734	35.96
849.905	39.52
850.077	39.8
850.249	43.17
850.421	40.35
850.592	44.62
850.764	47.1
850.936	46.3
851.107	45.72
851.279	48.18
851.451	41.72
851.622	42.1
851.794	46.59
851.965	45.87
852.137	43.11
852.308	44.45
852.48	44.11
852.651	46.54
852.823	41.87
852.994	41.34
853.166	43.33
853.337	43.99
853.509	39.53
853.68	43.27
853.851	44.51
854.023	38.55
854.194	34.86
854.365	36.81
854.537	34.5
854.708	31.18
854.879	28.62
855.05	34.64
855.222	33.57
855.393	34.4
855.564	39.62
855.735	41.56
855.906	40.91
856.078	38.58
856.249	39.44
856.42	46.17
856.591	46
856.762	43.4
856.933	44.33
857.104	46.95
857.275	45.89
857.446	48.65
857.617	49.44
857.788	45.23
857.959	46.73
858.13	51.58
858.301	52.49
858.472	50.83
858.643	48.48
858.814	48.67
858.985	51.77
859.155	56.85
859.326	54.21
859.497	51.36
859.668	49.03
859.839	42.03
860.009	42.15
860.18	41.65
860.351	37.93
860.522	37.3
860.692	38.11
860.863	39.05
861.034	38.91
861.204	38.32
861.375	34.3
861.546	33.59
861.716	36.65
861.887	35.52
862.057	37.97
862.228	36.56
862.398	32.23
862.569	31.57
862.739	27.66
862.91	28.57
863.08	26.22
863.251	25.24
863.421	26.06
863.592	29.37
863.762	27.82
863.932	25.15
864.103	31.23
864.273	33.01
864.443	37.81
864.614	40.47
864.784	41.78
864.954	48.33
865.125	48.77
865.295	49.09
865.465	48.23
865.635	50.29
865.805	47.43
865.976	52.31
866.146	47.58
866.316	45.12
866.486	47.23
866.656	45
866.826	46.7
866.996	47.76
867.166	45.92
867.336	50.73
867.506	52.34
867.676	54.04
867.846	49.18
868.016	48.85
868.186	45.68
868.356	50.41
868.526	53.56
868.696	47.74
868.866	46.8
869.036	47.73
869.206	48.91
869.376	46.48
869.545	43.91
869.715	42.22
869.885	37.81
870.055	41.77
870.224	42.8
870.394	47.16
870.564	45.75
870.734	42.31
870.903	45.78
871.073	52.38
871.243	51.75
871.412	48.28
871.582	51.53
871.751	49.25
871.921	48.91
872.091	51.4
872.26	49.95
872.43	47.39
872.599	46.78
872.769	48.76
872.938	55.06
873.108	56.74
873.277	53.11
873.446	52.42
873.616	52.53
873.785	51.01
873.955	52.67
874.124	53.43
874.293	57.02
874.463	56.94
874.632	60.27
874.801	58.15
874.971	60.47
875.14	51.53
875.309	49.36
875.478	51.99
875.647	49.68
875.817	49.48
875.986	50.36
876.155	45.77
876.324	45.14
876.493	38.93
876.662	36.17
876.831	33.49
877	31.9
877.17	25.23
877.339	27.16
877.508	30.77
877.677	25.94
877.846	28.44
878.015	22.5
878.184	19.7
878.352	19.98
878.521	19.99
878.69	27.03
878.859	32.23
879.028	31.11
879.197	31.21
879.366	29.81
879.534	28.49
879.703	25.87
879.872	27.11
880.041	25.58
880.21	27.92
880.378	28.35
880.547	30.19
880.716	30.55
880.884	29.2
881.053	28.31
881.222	28.95
881.39	29.43
881.559	29.85
881.727	29.55
881.896	29.65
882.065	29.84
882.233	30.14
882.402	30.28
882.57	30.12
882.739	29.73
882.907	29.54
883.076	29.41
883.244	29.58
883.412	30.13
883.581	29.44
883.749	30.02
883.918	29.88
884.086	30.84
884.254	30.9
884.423	30.39
884.591	30.74
884.759	31.28
884.927	30.83
885.096	31.17
885.264	32.88
885.432	33.26
885.6	32.07
885.769	34.38
885.937	34.75
886.105	37.52
886.273	35.17
886.441	34.94
886.609	35.99
886.777	34.44
886.945	34.51
887.113	36.88
887.281	36.22
887.449	32.13
887.617	32.16
887.785	33.45
887.953	30.82
888.121	28.76
888.289	28.57
888.457	30.26
888.625	32.13
888.793	32.47
888.961	35.54
889.129	37.54
889.296	37.2
889.464	37.68
889.632	40.61
889.8	40.6
889.967	40.01
890.135	44.36
