Data from 2938505_Reflection_3.txt Node
Date: Tue Jun 16 23:06:17 EDT 2015
User: robert
Spectrometer: USB4E03002
Autoset integration time: false
Trigger mode: 4
Integration Time (sec): 1.000000E-1
Scans to average: 10
Electric dark correction enabled: true
Nonlinearity correction enabled: false
Boxcar width: 5
Stray light correction enabled: false
XAxis mode: Wavelengths
Stop averaging: false
Number of Pixels in Spectrum: 3648
>>>>>Begin Spectral Data<<<<<
177.575	3008
177.794	-87.25
178.014	15.24
178.233	1.83
178.452	7.7
178.672	1.1
178.891	-71.37
179.11	687.5
179.33	457.29
179.549	605.85
179.768	77.1
179.987	862.4
180.207	-10.44
180.426	34.51
180.645	52.17
180.864	70.84
181.084	73.91
181.303	66.82
181.522	63.02
181.741	51.98
181.96	59.95
182.179	48.7
182.398	47.03
182.618	57.88
182.837	50.77
183.056	54.08
183.275	45.88
183.494	38.02
183.713	36.47
183.932	49.37
184.151	49.25
184.37	32.92
184.589	23.95
184.808	44.03
185.027	33.21
185.246	42.94
185.465	18.46
185.684	14.75
185.903	17.05
186.122	17.84
186.341	-4.25
186.56	-68.93
186.779	-141.92
186.998	-17.59
187.216	-45.38
187.435	-8.09
187.654	-96.44
187.873	-41.22
188.092	-0.8
188.311	-10.16
188.53	-3.3
188.748	15.8
188.967	17.93
189.186	13.86
189.405	-0.06
189.623	18.3
189.842	6.85
190.061	22.23
190.28	24.69
190.498	25.8
190.717	34.58
190.936	41.42
191.154	54.62
191.373	74.59
191.592	72.57
191.81	100.84
192.029	102.05
192.248	104.69
192.466	97.32
192.685	99.66
192.904	93.76
193.122	72.28
193.341	78.77
193.559	68.18
193.778	60.99
193.996	57.86
194.215	36.89
194.433	40.72
194.652	41.22
194.87	51.87
195.089	65.23
195.307	58.24
195.526	92.25
195.744	74.62
195.963	83.97
196.181	83.11
196.399	65.51
196.618	95.07
196.836	83.11
197.055	79.4
197.273	67.29
197.491	49.8
197.71	53.15
197.928	23.36
198.146	11.22
198.365	13.64
198.583	30.9
198.801	52.83
199.019	43.58
199.238	58.15
199.456	63.47
199.674	55.39
199.892	66.33
200.111	64.57
200.329	79.76
200.547	77.55
200.765	74.5
200.983	72.31
201.202	50.2
201.42	57.79
201.638	20.53
201.856	0.12
202.074	21.73
202.292	6.38
202.51	18.02
202.728	10.1
202.946	26.81
203.165	31.57
203.383	10.26
203.601	17
203.819	-9.91
204.037	5.23
204.255	25.73
204.473	32.78
204.691	25.49
204.909	31.47
205.127	42.12
205.345	47.8
205.562	75.83
205.78	73.76
205.998	98.3
206.216	124.15
206.434	102.51
206.652	89.13
206.87	95.43
207.088	101.63
207.306	97.44
207.523	94.48
207.741	91.4
207.959	81.68
208.177	100.36
208.395	89.11
208.612	77.15
208.83	74.87
209.048	80.15
209.266	56.67
209.483	51.25
209.701	37.34
209.919	27.84
210.136	41.58
210.354	34.03
210.572	14.46
210.79	0.71
211.007	11.85
211.225	15.51
211.442	15.59
211.66	13.45
211.878	8.16
212.095	-68.53
212.313	-59.45
212.53	-68.28
212.748	-101.78
212.966	-104.84
213.183	-63.94
213.401	-83.53
213.618	-87.08
213.836	-116.52
214.053	-87.12
214.271	-97
214.488	-18.6
214.705	-47.19
214.923	-57.38
215.14	-57.94
215.358	-40.42
215.575	-30.16
215.793	-22.24
216.01	2.09
216.227	11.1
216.445	11.55
216.662	31.06
216.879	45.56
217.097	57.91
217.314	59.54
217.531	48.3
217.749	43.09
217.966	38.54
218.183	36
218.4	22.38
218.618	27.3
218.835	40.46
219.052	32.27
219.269	17.07
219.487	15.28
219.704	19.52
219.921	35.65
220.138	38.1
220.355	34.47
220.572	38.47
220.79	48.87
221.007	39.03
221.224	25.79
221.441	26.22
221.658	29.15
221.875	19.61
222.092	15.78
222.309	12.56
222.526	13.36
222.743	13.39
222.96	19.19
223.177	18.84
223.394	16.8
223.611	15.58
223.828	13.81
224.045	12.09
224.262	17.32
224.479	19.02
224.696	17.47
224.913	18.2
225.13	19.99
225.347	14.71
225.564	10.41
225.781	13.27
225.997	15.72
226.214	14.94
226.431	14.45
226.648	13.42
226.865	13.18
227.082	12.61
227.298	11.13
227.515	10.1
227.732	10.45
227.949	11.09
228.165	9.6
228.382	8.12
228.599	8.34
228.816	8.63
229.032	8.75
229.249	9.23
229.466	9.44
229.682	9.83
229.899	10.17
230.116	9.05
230.332	9.61
230.549	13.27
230.765	14.21
230.982	14.15
231.199	14.1
231.415	14.13
231.632	13.25
231.848	13.3
232.065	13.16
232.281	14.43
232.498	16.21
232.714	16.39
232.931	14.6
233.147	14.75
233.364	14.08
233.58	12.4
233.797	10.85
234.013	9.78
234.23	10.76
234.446	12.17
234.662	10.23
234.879	9.49
235.095	6.44
235.312	4.32
235.528	2.01
235.744	2.5
235.961	4.41
236.177	4.32
236.393	5.52
236.61	4.42
236.826	3.63
237.042	2.48
237.258	2.63
237.475	3.39
237.691	4.25
237.907	4.81
238.123	4.2
238.339	3.27
238.556	4.54
238.772	4.68
238.988	5.52
239.204	6.12
239.42	8.43
239.636	7.27
239.853	8.04
240.069	9.16
240.285	9.24
240.501	9.88
240.717	10.99
240.933	9.8
241.149	10.06
241.365	9.91
241.581	9.23
241.797	9.27
242.013	9.81
242.229	9.81
242.445	9.33
242.661	10.09
242.877	9.52
243.093	8.49
243.309	9.8
243.525	9.64
243.741	9.46
243.957	9.91
244.173	9.22
244.388	9.66
244.604	9.33
244.82	8.94
245.036	8.96
245.252	8.94
245.468	9.06
245.683	8.85
245.899	9.11
246.115	9.09
246.331	8.7
246.547	8.8
246.762	8.71
246.978	8.89
247.194	9.17
247.409	9.25
247.625	9.17
247.841	9.21
248.057	9.22
248.272	8.38
248.488	7.85
248.703	7.87
248.919	7.78
249.135	7.82
249.35	7.72
249.566	7.73
249.782	6.81
249.997	7.36
250.213	7.35
250.428	7.17
250.644	7.85
250.859	8.49
251.075	9.15
251.29	9.03
251.506	7.92
251.721	7.43
251.937	6.53
252.152	6.78
252.368	6.31
252.583	5.79
252.798	5.66
253.014	4.89
253.229	5.2
253.445	5.82
253.66	4.48
253.875	6.3
254.091	7.48
254.306	9.16
254.521	10.19
254.737	9.89
254.952	9.48
255.167	9.61
255.383	9.55
255.598	8.41
255.813	7.53
256.028	8.23
256.244	7.72
256.459	6.73
256.674	5.74
256.889	5.14
257.104	5.84
257.32	6.47
257.535	6.38
257.75	6.44
257.965	6.55
258.18	6.97
258.395	6.87
258.61	7.2
258.826	7.42
259.041	7.89
259.256	8.09
259.471	8.05
259.686	7.54
259.901	7.78
260.116	7.56
260.331	7.91
260.546	7.64
260.761	7.63
260.976	7.28
261.191	7.37
261.406	6.37
261.621	6
261.836	5.61
262.05	6.94
262.265	6.79
262.48	7.42
262.695	8.03
262.91	7.7
263.125	7.81
263.34	7.82
263.555	7.57
263.769	8.09
263.984	7.99
264.199	8.01
264.414	7.55
264.629	7.19
264.843	6.76
265.058	5.82
265.273	5.95
265.488	6.65
265.702	6.93
265.917	6.73
266.132	6.6
266.346	7
266.561	7.07
266.776	6.63
266.99	6.45
267.205	6.75
267.42	7.17
267.634	7.03
267.849	6.36
268.063	6.32
268.278	6.95
268.492	7.11
268.707	7.15
268.922	7.16
269.136	7.15
269.351	7.74
269.565	7.74
269.78	7.23
269.994	7.22
270.209	7.58
270.423	7.48
270.637	7.59
270.852	7.56
271.066	7.53
271.281	7.06
271.495	7.08
271.709	6.69
271.924	6.62
272.138	6.9
272.353	6.76
272.567	6.04
272.781	5.82
272.996	5.42
273.21	5.44
273.424	5.4
273.638	5.7
273.853	5.99
274.067	6.35
274.281	6.38
274.495	6.96
274.71	6.65
274.924	7.65
275.138	7.73
275.352	7.63
275.566	7.82
275.781	7.36
275.995	7.88
276.209	7.83
276.423	7.75
276.637	8.03
276.851	6.94
277.065	7.06
277.279	6.9
277.493	7.14
277.707	7.28
277.921	6.67
278.135	6.78
278.349	6.76
278.563	6.78
278.777	6.6
278.991	6.3
279.205	6.96
279.419	7.18
279.633	6.81
279.847	6.63
280.061	6.7
280.275	6.66
280.489	7.16
280.703	7.06
280.917	7.27
281.131	7.48
281.344	7.42
281.558	7.34
281.772	7.35
281.986	7.23
282.2	6.94
282.414	6.37
282.627	6.58
282.841	5.97
283.055	5.93
283.269	5.69
283.482	5.57
283.696	5.48
283.91	5.41
284.123	5.79
284.337	5.81
284.551	6.3
284.764	6.8
284.978	7.07
285.192	7.24
285.405	7.32
285.619	7.78
285.833	8.15
286.046	8.33
286.26	8.4
286.473	7.87
286.687	8
286.9	7.74
287.114	7.42
287.327	7.48
287.541	7.04
287.754	6.69
287.968	6.21
288.181	5.77
288.395	6.01
288.608	5.99
288.822	6.1
289.035	5.91
289.248	5.7
289.462	5.93
289.675	5.39
289.889	5.95
290.102	5.89
290.315	5.58
290.529	5.86
290.742	4.98
290.955	5.11
291.169	5.43
291.382	5.49
291.595	5.42
291.808	5.12
292.022	5.89
292.235	5.97
292.448	5.83
292.661	6.21
292.875	6.19
293.088	6.7
293.301	6.47
293.514	6.44
293.727	6.47
293.94	6.57
294.153	6.74
294.367	6.32
294.58	5.95
294.793	5.99
295.006	5.87
295.219	5.58
295.432	5.59
295.645	5.5
295.858	5.53
296.071	5.87
296.284	6.07
296.497	6
296.71	6.3
296.923	6.74
297.136	6.79
297.349	6.82
297.562	6.82
297.775	6.71
297.988	6.86
298.201	7
298.414	7.03
298.626	6.59
298.839	6.7
299.052	6.69
299.265	6.2
299.478	6.8
299.691	6.83
299.903	6.91
300.116	7.27
300.329	7.24
300.542	7.16
300.755	7.35
300.967	7.7
301.18	7.67
301.393	7.59
301.605	7.43
301.818	6.93
302.031	7.01
302.243	7.09
302.456	6.83
302.669	6.95
302.881	6.96
303.094	5.98
303.307	6.18
303.519	6.55
303.732	6.15
303.944	6.51
304.157	6.75
304.37	6.84
304.582	6.59
304.795	6.16
305.007	6.31
305.22	5.58
305.432	6.16
305.645	5.93
305.857	5.25
306.069	5.68
306.282	5.63
306.494	5.43
306.707	5.4
306.919	5.51
307.132	6.25
307.344	5.89
307.556	6.36
307.769	6.25
307.981	6.16
308.193	6.54
308.406	6.5
308.618	6.41
308.83	6.91
309.043	7.01
309.255	7.46
309.467	7.58
309.679	7.59
309.892	7.92
310.104	8.12
310.316	8.18
310.528	8.02
310.74	7.88
310.953	8.05
311.165	7.53
311.377	7.82
311.589	7.93
311.801	7.46
312.013	7.54
312.225	6.71
312.437	6
312.649	6.12
312.862	6.53
313.074	6.92
313.286	6.81
313.498	7.05
313.71	6.78
313.922	6.18
314.134	6.33
314.346	6
314.558	6.45
314.77	7.22
314.982	7.23
315.193	6.54
315.405	6.29
315.617	6.3
315.829	6.26
316.041	6.26
316.253	6.27
316.465	6.73
316.677	7.02
316.888	6.95
317.1	6.95
317.312	6.74
317.524	6.65
317.736	6.31
317.947	6.1
318.159	5.85
318.371	5.5
318.583	5.75
318.794	5.31
319.006	5.68
319.218	5.56
319.43	5.23
319.641	5.33
319.853	5.66
320.064	5.96
320.276	6.53
320.488	6.84
320.699	7.09
320.911	6.93
321.123	6.92
321.334	6.89
321.546	7.45
321.757	7.62
321.969	7.55
322.18	7.63
322.392	7.68
322.603	7.62
322.815	7.71
323.026	7.53
323.238	7.49
323.449	7.58
323.661	7.63
323.872	7.43
324.083	6.9
324.295	6.81
324.506	7.09
324.718	6.79
324.929	6.82
325.14	6.31
325.352	6.3
325.563	6.29
325.774	6.19
325.986	6.01
326.197	5.92
326.408	6.29
326.62	6.59
326.831	6.34
327.042	6.25
327.253	6.39
327.464	6.88
327.676	7.19
327.887	7.49
328.098	7.38
328.309	7.42
328.52	7.69
328.732	7.91
328.943	7.36
329.154	7.45
329.365	7.56
329.576	6.96
329.787	6.8
329.998	7.1
330.209	7.05
330.42	7.3
330.631	7.37
330.842	6.87
331.053	6.32
331.264	7.02
331.475	7.13
331.686	7.23
331.897	7.37
332.108	7.26
332.319	6.52
332.53	6.11
332.741	6.07
332.952	5.77
333.163	6.22
333.374	6.49
333.585	5.95
333.795	5.82
334.006	5.84
334.217	6.09
334.428	6.06
334.639	6.22
334.849	6.09
335.06	6.34
335.271	6.86
335.482	6.67
335.692	6.92
335.903	6.81
336.114	6.83
336.325	6.77
336.535	6.73
336.746	6.7
336.957	7.13
337.167	7.61
337.378	7.41
337.589	7.01
337.799	7.38
338.01	6.92
338.22	7.2
338.431	7.05
338.642	7.12
338.852	7.05
339.063	7.26
339.273	7.07
339.484	7.12
339.694	6.87
339.905	7.08
340.115	6.87
340.326	7.08
340.536	6.84
340.746	6.79
340.957	6.92
341.167	6.8
341.378	6.58
341.588	6.26
341.799	6.31
342.009	6.05
342.219	5.82
342.43	5.59
342.64	5.78
342.85	5.84
343.061	5.99
343.271	5.82
343.481	5.74
343.691	6.21
343.902	6.24
344.112	6.18
344.322	6.35
344.532	6.49
344.743	6.65
344.953	6.63
345.163	6.78
345.373	6.75
345.583	6.6
345.793	6.91
346.004	6.84
346.214	7.06
346.424	6.98
346.634	7.21
346.844	7.12
347.054	6.92
347.264	6.75
347.474	6.82
347.684	6.89
347.894	7.22
348.104	7.21
348.314	6.85
348.524	6.74
348.734	6.84
348.944	6.67
349.154	6.31
349.364	6.51
349.574	6.44
349.784	6.4
349.994	6.22
350.204	6.2
350.413	5.89
350.623	5.92
350.833	5.56
351.043	5.18
351.253	5.62
351.463	6
351.672	6.24
351.882	6.29
352.092	6.46
352.302	6.45
352.511	6.6
352.721	6.77
352.931	6.72
353.141	7.34
353.35	7.35
353.56	7.01
353.77	7.16
353.979	6.5
354.189	6.78
354.399	6.54
354.608	6.84
354.818	6.42
355.027	6.46
355.237	6.48
355.447	6.28
355.656	6.29
355.866	6.35
356.075	6.18
356.285	6.46
356.494	6.2
356.704	6.17
356.913	6
357.123	6.08
357.332	5.74
357.542	5.69
357.751	5.4
357.96	5.54
358.17	5.24
358.379	5.04
358.589	4.92
358.798	4.88
359.007	4.78
359.217	4.79
359.426	4.82
359.635	4.79
359.845	4.89
360.054	5
360.263	4.95
360.472	5.06
360.682	5.14
360.891	5.19
361.1	5.23
361.309	5.3
361.519	5.26
361.728	5.12
361.937	5.26
362.146	4.95
362.355	5.02
362.564	5.07
362.774	5.08
362.983	4.93
363.192	4.92
363.401	4.88
363.61	4.9
363.819	4.87
364.028	5.13
364.237	5.15
364.446	5.4
364.655	5.42
364.864	5.43
365.073	5.52
365.282	5.74
365.491	5.94
365.7	6.03
365.909	6.1
366.118	5.98
366.327	5.81
366.536	5.88
366.745	6.01
366.954	6.04
367.162	5.9
367.371	6.23
367.58	6.31
367.789	6.19
367.998	5.93
368.207	5.77
368.415	5.67
368.624	5.71
368.833	5.76
369.042	5.72
369.25	5.38
369.459	5.2
369.668	4.65
369.877	4.41
370.085	4.12
370.294	4.11
370.503	4.31
370.711	4.33
370.92	4.14
371.129	3.95
371.337	3.82
371.546	3.86
371.754	4.02
371.963	3.97
372.171	4.02
372.38	4.43
372.589	4.51
372.797	4.52
373.006	4.66
373.214	5.02
373.423	5.13
373.631	5.14
373.84	5.4
374.048	5.37
374.256	5.77
374.465	5.65
374.673	5.57
374.882	5.61
375.09	5.32
375.298	5.22
375.507	4.83
375.715	4.89
375.923	4.99
376.132	4.79
376.34	4.82
376.548	4.81
376.757	4.94
376.965	4.73
377.173	4.65
377.381	4.7
377.59	4.53
377.798	4.73
378.006	4.61
378.214	4.55
378.423	4.72
378.631	4.43
378.839	4.22
379.047	4.41
379.255	4.5
379.463	4.67
379.671	4.8
379.879	5.06
380.088	4.96
380.296	4.65
380.504	4.58
380.712	4.53
380.92	4.77
381.128	4.86
381.336	4.79
381.544	4.93
381.752	4.85
381.96	4.79
382.168	4.63
382.376	4.8
382.584	5.01
382.791	5
382.999	4.79
383.207	4.89
383.415	4.94
383.623	4.64
383.831	4.63
384.039	4.53
384.247	4.54
384.454	4.58
384.662	4.22
384.87	4.26
385.078	4.27
385.285	4.35
385.493	4.45
385.701	4.19
385.909	4.45
386.116	4.23
386.324	4.17
386.532	4.19
386.739	4.29
386.947	4.62
387.155	4.5
387.362	4.5
387.57	4.62
387.778	4.21
387.985	4.26
388.193	4.15
388.4	4.39
388.608	4.51
388.816	4.43
389.023	4.44
389.231	4.61
389.438	4.75
389.646	4.72
389.853	4.56
390.061	4.61
390.268	4.45
390.475	4.55
390.683	4.54
390.89	4.37
391.098	4.4
391.305	4.23
391.512	4.09
391.72	3.8
391.927	3.84
392.135	3.98
392.342	4.09
392.549	4.22
392.756	4.16
392.964	3.91
393.171	3.9
393.378	3.74
393.586	3.86
393.793	3.74
394	3.94
394.207	3.96
394.414	3.81
394.622	3.68
394.829	3.92
395.036	3.77
395.243	3.86
395.45	3.89
395.657	3.98
395.864	3.96
396.072	4.11
396.279	4.23
396.486	4.19
396.693	4.22
396.9	4.32
397.107	4.22
397.314	4.2
397.521	4.25
397.728	4.23
397.935	4.17
398.142	3.98
398.349	3.72
398.556	3.46
398.763	3.22
398.97	3.23
399.177	3.2
399.383	3.02
399.59	3.1
399.797	3.19
400.004	3.07
400.211	3.1
400.418	3.22
400.625	3.36
400.831	3.51
401.038	3.57
401.245	3.41
401.452	3.33
401.658	3.39
401.865	3.37
402.072	3.07
402.279	3.11
402.485	3.25
402.692	3.1
402.899	3.16
403.105	3.21
403.312	3.39
403.519	3.45
403.725	3.45
403.932	3.45
404.138	3.44
404.345	3.49
404.552	3.59
404.758	3.45
404.965	3.58
405.171	3.44
405.378	3.52
405.584	3.37
405.791	3.37
405.997	3.27
406.204	3.28
406.41	3.38
406.617	3.56
406.823	3.47
407.029	3.54
407.236	3.55
407.442	3.6
407.649	3.31
407.855	3.26
408.061	3.19
408.268	3.3
408.474	3.18
408.68	2.99
408.887	2.85
409.093	3.07
409.299	2.9
409.505	2.87
409.712	2.92
409.918	3.08
410.124	3.17
410.33	3.16
410.537	3.07
410.743	3.07
410.949	3.28
411.155	3.49
411.361	3.32
411.567	3.68
411.773	3.75
411.98	3.78
412.186	3.72
412.392	3.73
412.598	3.77
412.804	3.96
413.01	4.1
413.216	3.98
413.422	3.87
413.628	3.83
413.834	3.5
414.04	3.41
414.246	3.19
414.452	3.04
414.658	3.08
414.864	3.12
415.07	2.99
415.275	2.84
415.481	2.73
415.687	2.62
415.893	2.54
416.099	2.6
416.305	2.46
416.511	2.53
416.716	2.48
416.922	2.28
417.128	2.28
417.334	2.34
417.539	2.44
417.745	2.57
417.951	2.6
418.157	2.64
418.362	2.63
418.568	2.74
418.774	2.66
418.979	2.7
419.185	2.81
419.391	2.82
419.596	2.74
419.802	2.58
420.008	2.38
420.213	3.02
420.419	3
420.624	3.01
420.83	3.01
421.035	3.09
421.241	3.12
421.446	3.03
421.652	3.01
421.857	2.97
422.063	3.07
422.268	3.19
422.474	2.5
422.679	2.58
422.885	2.57
423.09	2.64
423.295	2.66
423.501	2.63
423.706	2.7
423.911	2.77
424.117	2.85
424.322	2.82
424.527	2.8
424.733	2.94
424.938	2.9
425.143	2.86
425.349	2.75
425.554	2.79
425.759	2.79
425.964	2.77
426.169	2.56
426.375	2.54
426.58	2.63
426.785	2.57
426.99	2.31
427.195	2.36
427.4	2.38
427.605	2.33
427.811	2.16
428.016	2.1
428.221	2.01
428.426	2.04
428.631	2.04
428.836	1.99
429.041	2
429.246	2.06
429.451	2.02
429.656	2.05
429.861	2.07
430.066	2.09
430.271	2.28
430.476	2.44
430.681	2.57
430.886	2.5
431.09	2.53
431.295	2.58
431.5	2.54
431.705	2.53
431.91	2.55
432.115	2.65
432.32	2.64
432.524	2.55
432.729	2.43
432.934	2.38
433.139	2.38
433.343	2.28
433.548	2.33
433.753	2.37
433.958	2.32
434.162	2.26
434.367	2.09
434.572	2.15
434.776	2.27
434.981	2.23
435.186	2.18
435.39	2.25
435.595	2.25
435.799	2.19
436.004	2.24
436.209	2.22
436.413	2.37
436.618	2.36
436.822	2.34
437.027	2.3
437.231	2.32
437.436	2.39
437.64	2.39
437.845	2.38
438.049	2.28
438.253	2.24
438.458	2.27
438.662	2.19
438.867	2.24
439.071	2.21
439.275	2.15
439.48	2.22
439.684	2.27
439.888	2.22
440.093	2.26
440.297	2.3
440.501	2.32
440.706	2.37
440.91	2.33
441.114	2.26
441.318	2.3
441.523	2.24
441.727	2.3
441.931	2.28
442.135	2.29
442.339	2.27
442.543	2.33
442.748	2.39
442.952	2.33
443.156	2.28
443.36	2.41
443.564	2.36
443.768	2.31
443.972	2.28
444.176	2.18
444.38	2.25
444.584	2.26
444.788	2.18
444.992	2.07
445.196	2.06
445.4	2.14
445.604	2.08
445.808	2.07
446.012	2.16
446.216	2.09
446.42	2.19
446.624	2.06
446.828	2.06
447.032	2.07
447.235	2.1
447.439	2.19
447.643	2.13
447.847	2.15
448.051	2.11
448.254	2.08
448.458	2
448.662	1.95
448.866	2.04
449.069	2.03
449.273	1.98
449.477	2.06
449.681	2.02
449.884	1.99
450.088	1.95
450.292	1.95
450.495	1.98
450.699	2.05
450.902	1.89
451.106	1.87
451.31	1.83
451.513	1.89
451.717	1.77
451.92	1.75
452.124	1.76
452.327	1.77
452.531	1.89
452.734	1.85
452.938	1.83
453.141	1.93
453.345	1.97
453.548	2.06
453.752	2.08
453.955	2.11
454.158	2.07
454.362	1.97
454.565	1.97
454.769	1.82
454.972	1.84
455.175	1.82
455.379	1.86
455.582	1.76
455.785	1.78
455.988	1.78
456.192	1.82
456.395	1.81
456.598	1.98
456.801	2.03
457.005	2.05
457.208	2.06
457.411	2.16
457.614	2.19
457.817	2.26
458.021	2.18
458.224	2.25
458.427	2.26
458.63	2.25
458.833	2.2
459.036	2.15
459.239	2.23
459.442	2.24
459.645	2.22
459.848	2.24
460.051	2.13
460.254	2.16
460.457	2.15
460.66	2.11
460.863	2.1
461.066	2.06
461.269	2.1
461.472	2.01
461.675	2.1
461.878	2.13
462.081	2.08
462.284	2.3
462.486	2.33
462.689	2.23
462.892	2.32
463.095	2.4
463.298	2.55
463.5	2.63
463.703	2.64
463.906	2.47
464.109	2.44
464.311	2.39
464.514	2.23
464.717	2.17
464.92	2.21
465.122	2.21
465.325	2.12
465.528	2
465.73	1.87
465.933	2.05
466.135	2.1
466.338	2.09
466.541	2.14
466.743	2.24
466.946	2.34
467.148	2.28
467.351	2.27
467.553	2.22
467.756	2.27
467.958	2.28
468.161	2.18
468.363	2.18
468.566	2.16
468.768	2.11
468.971	1.97
469.173	1.95
469.375	2.11
469.578	2.09
469.78	2.23
469.983	2.23
470.185	2.28
470.387	2.23
470.59	2.14
470.792	2.18
470.994	2.19
471.196	2.37
471.399	2.41
471.601	2.34
471.803	2.28
472.005	2.17
472.208	2.13
472.41	2.22
472.612	2.14
472.814	2.28
473.016	2.11
473.218	2.12
473.421	2.05
473.623	1.96
473.825	1.91
474.027	1.92
474.229	1.97
474.431	2.02
474.633	1.78
474.835	1.88
475.037	1.81
475.239	1.9
475.441	1.91
475.643	1.96
475.845	2.01
476.047	1.99
476.249	2.04
476.451	1.95
476.653	1.98
476.855	2.18
477.057	2.18
477.258	2.16
477.46	2.24
477.662	2.3
477.864	2.26
478.066	2.3
478.268	2.29
478.469	2.3
478.671	2.41
478.873	2.36
479.075	2.27
479.276	2.2
479.478	2.19
479.68	2.13
479.882	2.1
480.083	2.07
480.285	2.04
480.487	2.1
480.688	2.06
480.89	2.01
481.091	1.98
481.293	1.99
481.495	2.02
481.696	2.08
481.898	2.08
482.099	2.08
482.301	2.12
482.502	2.1
482.704	2.1
482.905	2.12
483.107	2.15
483.308	2.18
483.51	2.19
483.711	2.19
483.913	2.15
484.114	2.15
484.315	2.16
484.517	2.14
484.718	2.16
484.92	2.16
485.121	2.12
485.322	2.09
485.524	2.12
485.725	2.13
485.926	2.15
486.127	2.18
486.329	2.14
486.53	2.16
486.731	2.1
486.932	2.04
487.134	2.02
487.335	2.06
487.536	2.01
487.737	1.99
487.938	2.01
488.139	1.98
488.341	1.97
488.542	2.06
488.743	2.03
488.944	2.11
489.145	2.16
489.346	2.18
489.547	2.2
489.748	2.25
489.949	2.21
490.15	2.18
490.351	2.16
490.552	2.17
490.753	2.13
490.954	2.12
491.155	2.12
491.356	2.12
491.557	2.13
491.758	2.13
491.959	2.14
492.159	2.21
492.36	2.2
492.561	2.22
492.762	2.17
492.963	2.1
493.164	2.09
493.364	2.16
493.565	2.13
493.766	2.14
493.967	2.14
494.167	2.09
494.368	2.08
494.569	2.07
494.769	2.09
494.97	2.12
495.171	2.21
495.371	2.24
495.572	2.21
495.773	2.22
495.973	2.22
496.174	2.16
496.375	2.16
496.575	2.22
496.776	2.32
496.976	2.32
497.177	2.3
497.377	2.31
497.578	2.33
497.778	2.32
497.979	2.35
498.179	2.31
498.38	2.4
498.58	2.47
498.78	2.37
498.981	2.28
499.181	2.33
499.382	2.32
499.582	2.36
499.782	2.35
499.983	2.35
500.183	2.28
500.383	2.32
500.584	2.21
500.784	2.28
500.984	2.3
501.184	2.32
501.385	2.32
501.585	2.38
501.785	2.32
501.985	2.36
502.185	2.43
502.386	2.52
502.586	2.58
502.786	2.63
502.986	2.61
503.186	2.63
503.386	2.69
503.586	2.66
503.786	2.64
503.987	2.67
504.187	2.63
504.387	2.6
504.587	2.58
504.787	2.59
504.987	2.62
505.187	2.59
505.387	2.54
505.587	2.5
505.786	2.54
505.986	2.62
506.186	2.65
506.386	2.66
506.586	2.67
506.786	2.72
506.986	2.67
507.186	2.7
507.386	2.68
507.585	2.73
507.785	2.77
507.985	2.8
508.185	2.74
508.384	2.76
508.584	2.78
508.784	2.69
508.984	2.67
509.183	2.66
509.383	2.61
509.583	2.59
509.782	2.6
509.982	2.6
510.182	2.54
510.381	2.55
510.581	2.59
510.781	2.57
510.98	2.58
511.18	2.61
511.379	2.62
511.579	2.64
511.778	2.65
511.978	2.61
512.177	2.59
512.377	2.59
512.576	2.59
512.776	2.53
512.975	2.58
513.175	2.68
513.374	2.64
513.573	2.63
513.773	2.7
513.972	2.75
514.172	2.85
514.371	2.95
514.57	2.98
514.77	3.03
514.969	3.16
515.168	3.16
515.367	3.17
515.567	3.22
515.766	3.32
515.965	3.31
516.164	3.33
516.364	3.31
516.563	3.31
516.762	3.27
516.961	3.23
517.16	3.1
517.359	3.12
517.559	3.11
517.758	3.1
517.957	3.11
518.156	3.09
518.355	3.1
518.554	3.13
518.753	3.13
518.952	3.21
519.151	3.25
519.35	3.37
519.549	3.35
519.748	3.35
519.947	3.32
520.146	3.27
520.345	3.26
520.544	3.24
520.743	3.22
520.942	3.12
521.141	3.15
521.339	3.17
521.538	3.12
521.737	3.18
521.936	3.27
522.135	3.32
522.333	3.33
522.532	3.32
522.731	3.35
522.93	3.33
523.129	3.38
523.327	3.33
523.526	3.32
523.725	3.35
523.923	3.32
524.122	3.29
524.321	3.34
524.519	3.34
524.718	3.37
524.917	3.42
525.115	3.5
525.314	3.47
525.512	3.5
525.711	3.51
525.909	3.51
526.108	3.56
526.306	3.6
526.505	3.56
526.703	3.56
526.902	3.58
527.1	3.55
527.299	3.54
527.497	3.59
527.696	3.61
527.894	3.64
528.092	3.67
528.291	3.69
528.489	3.71
528.688	3.74
528.886	3.78
529.084	3.8
529.283	3.81
529.481	3.84
529.679	3.83
529.877	3.86
530.076	3.87
530.274	3.87
530.472	3.84
530.67	3.84
530.869	3.87
531.067	3.85
531.265	3.83
531.463	3.87
531.661	3.86
531.859	3.95
532.057	3.92
532.255	3.92
532.454	3.95
532.652	3.94
532.85	3.96
533.048	3.97
533.246	4.02
533.444	4.13
533.642	4.23
533.84	4.24
534.038	4.2
534.236	4.27
534.434	4.34
534.632	4.39
534.83	4.41
535.027	4.48
535.225	4.49
535.423	4.56
535.621	4.52
535.819	4.46
536.017	4.52
536.215	4.51
536.412	4.51
536.61	4.53
536.808	4.52
537.006	4.57
537.203	4.53
537.401	4.53
537.599	4.53
537.797	4.63
537.994	4.69
538.192	4.73
538.39	4.85
538.587	4.93
538.785	4.88
538.983	4.9
539.18	4.93
539.378	4.94
539.575	4.95
539.773	4.96
539.97	4.95
540.168	4.94
540.366	4.96
540.563	5
540.761	5.06
540.958	5.13
541.155	5.17
541.353	5.18
541.55	5.25
541.748	5.25
541.945	5.27
542.143	5.35
542.34	5.38
542.537	5.37
542.735	5.37
542.932	5.35
543.129	5.31
543.327	5.35
543.524	5.44
543.721	5.43
543.919	5.54
544.116	5.6
544.313	5.55
544.51	5.68
544.708	5.77
544.905	5.83
545.102	5.85
545.299	5.93
545.496	5.98
545.693	6.03
545.891	6.04
546.088	6.06
546.285	6.15
546.482	6.22
546.679	6.28
546.876	6.25
547.073	6.27
547.27	6.33
547.467	6.35
547.664	6.42
547.861	6.44
548.058	6.49
548.255	6.51
548.452	6.44
548.649	6.69
548.846	6.75
549.043	6.95
549.24	7
549.437	7.05
549.633	7.22
549.83	7.19
550.027	7.2
550.224	7.33
550.421	7.42
550.618	7.58
550.814	7.48
551.011	7.44
551.208	7.42
551.405	7.47
551.601	7.51
551.798	7.45
551.995	7.55
552.191	7.65
552.388	7.65
552.585	7.71
552.781	7.71
552.978	7.78
553.175	7.84
553.371	7.94
553.568	7.97
553.764	8.12
553.961	8.3
554.157	8.36
554.354	8.33
554.55	8.53
554.747	8.68
554.943	8.72
555.14	8.76
555.336	8.93
555.533	8.98
555.729	9.05
555.926	8.92
556.122	8.99
556.318	9.11
556.515	9.14
556.711	9.24
556.907	9.2
557.104	9.24
557.3	9.4
557.496	9.46
557.693	9.51
557.889	9.72
558.085	9.74
558.281	9.7
558.478	9.66
558.674	9.76
558.87	9.72
559.066	9.79
559.262	9.84
559.459	9.9
559.655	9.91
559.851	9.96
560.047	9.95
560.243	10.11
560.439	10.25
560.635	10.39
560.831	10.54
561.027	10.61
561.223	10.83
561.419	11.05
561.615	11.09
561.811	11.1
562.007	11.27
562.203	11.31
562.399	11.43
562.595	11.58
562.791	11.6
562.987	11.66
563.183	11.75
563.379	11.65
563.575	11.61
563.771	11.6
563.966	11.81
564.162	11.81
564.358	11.89
564.554	11.94
564.75	11.9
564.945	11.94
565.141	11.93
565.337	12.04
565.533	12.05
565.728	12.2
565.924	12.29
566.12	12.29
566.315	12.34
566.511	12.35
566.707	12.35
566.902	12.52
567.098	12.56
567.293	12.76
567.489	12.73
567.684	12.79
567.88	12.78
568.076	12.93
568.271	13.03
568.467	13.21
568.662	13.32
568.858	13.52
569.053	13.63
569.248	13.69
569.444	13.66
569.639	13.82
569.835	14.05
570.03	14.05
570.225	14.04
570.421	14.15
570.616	14.2
570.812	14.27
571.007	14.21
571.202	14.19
571.397	14.29
571.593	14.37
571.788	14.39
571.983	14.47
572.178	14.65
572.374	14.72
572.569	14.63
572.764	14.66
572.959	14.75
573.154	14.83
573.35	14.89
573.545	14.93
573.74	15
573.935	15.01
574.13	14.99
574.325	14.98
574.52	15.06
574.715	15.14
574.91	15.2
575.105	15.21
575.3	15.29
575.495	15.34
575.69	15.42
575.885	15.45
576.08	15.45
576.275	15.38
576.47	15.37
576.665	15.37
576.86	15.48
577.055	15.49
577.25	15.61
577.444	15.68
577.639	15.67
577.834	15.7
578.029	15.71
578.224	15.87
578.418	15.99
578.613	16.18
578.808	16.27
579.003	16.33
579.197	16.39
579.392	16.42
579.587	16.51
579.781	16.65
579.976	16.8
580.171	16.92
580.365	16.98
580.56	17.09
580.755	17.13
580.949	17.16
581.144	17.07
581.338	17.08
581.533	16.96
581.727	16.97
581.922	17.02
582.116	17.05
582.311	17.08
582.505	17.17
582.7	17.25
582.894	17.38
583.089	17.34
583.283	17.45
583.478	17.35
583.672	17.55
583.866	17.6
584.061	17.61
584.255	17.6
584.449	17.76
584.644	17.77
584.838	17.8
585.032	17.81
585.226	18.14
585.421	18.25
585.615	18.43
585.809	18.54
586.003	18.57
586.198	18.58
586.392	18.52
586.586	18.49
586.78	18.37
586.974	18.36
587.168	18.21
587.363	17.97
587.557	17.87
587.751	17.91
587.945	17.87
588.139	17.98
588.333	18.13
588.527	18.36
588.721	18.32
588.915	18.51
589.109	18.58
589.303	18.79
589.497	18.95
589.691	19.05
589.885	19.12
590.079	19.08
590.273	19.1
590.466	19.09
590.66	18.86
590.854	19.02
591.048	18.87
591.242	18.9
591.436	18.81
591.629	18.88
591.823	18.81
592.017	18.83
592.211	18.99
592.404	18.98
592.598	19.06
592.792	19.33
592.986	19.16
593.179	19.28
593.373	19.2
593.567	19.22
593.76	19.15
593.954	19.24
594.147	19.38
594.341	19.48
594.535	19.5
594.728	19.47
594.922	19.42
595.115	19.66
595.309	19.68
595.502	19.8
595.696	19.79
595.889	19.76
596.083	19.79
596.276	19.6
596.47	19.48
596.663	19.54
596.856	19.57
597.05	19.54
597.243	19.3
597.437	19.28
597.63	19.35
597.823	19.39
598.017	19.5
598.21	19.56
598.403	19.84
598.596	19.75
598.79	19.59
598.983	19.48
599.176	19.54
599.369	19.68
599.563	19.82
599.756	19.79
599.949	19.72
600.142	19.76
600.335	19.73
600.528	19.59
600.722	19.66
600.915	19.76
601.108	19.81
601.301	19.77
601.494	19.94
601.687	19.92
601.88	19.87
602.073	19.99
602.266	19.86
602.459	19.94
602.652	20.05
602.845	20.2
603.038	20.21
603.231	20.22
603.424	20.25
603.617	20.13
603.809	20.13
604.002	20.17
604.195	20.21
604.388	20.37
604.581	20.38
604.774	20.35
604.966	20.36
605.159	20.33
605.352	20.38
605.545	20.45
605.737	20.6
605.93	20.63
606.123	20.62
606.316	20.67
606.508	20.63
606.701	20.63
606.894	20.67
607.086	20.53
607.279	20.6
607.471	20.75
607.664	20.76
607.857	20.67
608.049	20.66
608.242	20.8
608.434	20.84
608.627	20.83
608.819	20.78
609.012	20.68
609.204	20.76
609.397	20.87
609.589	20.76
609.782	20.78
609.974	20.87
610.166	21.01
610.359	20.99
610.551	20.92
610.743	21.08
610.936	21.21
611.128	21.33
611.32	21.37
611.513	21.22
611.705	21.31
611.897	21.38
612.09	21.53
612.282	21.62
612.474	21.62
612.666	21.58
612.858	21.45
613.051	21.34
613.243	21.28
613.435	21.2
613.627	21.37
613.819	21.27
614.011	21.13
614.203	20.98
614.395	20.78
614.588	20.93
614.78	20.78
614.972	20.73
615.164	20.77
615.356	20.89
615.548	20.94
615.74	20.83
615.932	20.73
616.124	20.91
616.315	20.8
616.507	20.82
616.699	20.64
616.891	20.73
617.083	20.91
617.275	21.02
617.467	21.22
617.659	21.35
617.85	21.46
618.042	21.69
618.234	21.59
618.426	21.77
618.618	21.67
618.809	21.6
619.001	21.65
619.193	21.68
619.384	21.7
619.576	21.48
619.768	21.38
619.959	21.45
620.151	21.51
620.343	21.54
620.534	21.45
620.726	21.59
620.917	21.64
621.109	21.76
621.301	21.72
621.492	21.67
621.684	21.71
621.875	21.73
622.067	21.65
622.258	21.64
622.45	21.74
622.641	21.64
622.832	21.55
623.024	21.61
623.215	21.61
623.407	21.68
623.598	21.56
623.789	21.52
623.981	21.52
624.172	21.63
624.363	21.52
624.555	21.37
624.746	21.57
624.937	21.69
625.129	21.74
625.32	21.88
625.511	21.73
625.702	21.84
625.893	21.71
626.085	21.7
626.276	21.6
626.467	21.68
626.658	21.63
626.849	21.56
627.04	21.55
627.231	21.62
627.422	21.51
627.614	21.53
627.805	21.49
627.996	21.56
628.187	21.58
628.378	21.52
628.569	21.54
628.76	21.79
628.951	21.8
629.142	21.79
629.332	21.8
629.523	21.77
629.714	21.94
629.905	22.04
630.096	22.25
630.287	22.25
630.478	22.46
630.669	22.54
630.859	22.39
631.05	22.49
631.241	22.59
631.432	22.39
631.623	22.25
631.813	22.19
632.004	22.18
632.195	22.07
632.385	21.99
632.576	21.93
632.767	21.91
632.957	21.99
633.148	21.88
633.339	21.73
633.529	21.91
633.72	22.04
633.91	21.98
634.101	22.12
634.292	22.22
634.482	22.36
634.673	22.43
634.863	22.25
635.054	22.18
635.244	22.24
635.435	22.38
635.625	22.25
635.815	22.3
636.006	22.39
636.196	22.24
636.387	22.17
636.577	22.28
636.767	22.37
636.958	22.42
637.148	22.63
637.338	22.67
637.529	22.64
637.719	22.56
637.909	22.57
638.099	22.51
638.29	22.43
638.48	22.54
638.67	22.33
638.86	21.99
639.05	21.83
639.241	21.74
639.431	21.71
639.621	21.55
639.811	21.64
640.001	21.53
640.191	21.45
640.381	21.36
640.571	21.17
640.761	21.23
640.951	21.51
641.141	21.74
641.331	21.79
641.521	21.74
641.711	21.78
641.901	21.79
642.091	21.92
642.281	22.09
642.471	22.32
642.661	22.42
642.851	22.54
643.041	22.53
643.231	22.64
643.42	22.55
643.61	22.56
643.8	22.69
643.99	22.57
644.18	22.69
644.369	22.79
644.559	22.72
644.749	22.82
644.939	22.83
645.128	22.81
645.318	22.53
645.508	22.52
645.697	22.47
645.887	22.48
646.076	22.68
646.266	22.59
646.456	22.34
646.645	22.42
646.835	22.4
647.024	22.29
647.214	22.31
647.403	22.49
647.593	22.69
647.782	22.84
647.972	22.8
648.161	22.62
648.351	22.76
648.54	23.14
648.73	23.1
648.919	22.97
649.108	23.08
649.298	22.87
649.487	22.97
649.677	22.96
649.866	22.86
650.055	22.86
650.244	22.95
650.434	22.77
650.623	22.64
650.812	22.66
651.002	22.8
651.191	22.71
651.38	23
651.569	22.83
651.758	22.62
651.947	22.47
652.137	22.56
652.326	22.55
652.515	22.54
652.704	22.62
652.893	22.59
653.082	22.58
653.271	22.77
653.46	22.59
653.649	22.74
653.838	22.68
654.027	22.98
654.216	22.86
654.405	22.94
654.594	22.94
654.783	22.95
654.972	23.06
655.161	22.95
655.35	22.93
655.539	22.91
655.728	22.97
655.916	23.04
656.105	23.01
656.294	22.93
656.483	22.98
656.672	22.94
656.86	23.04
657.049	22.96
657.238	22.96
657.427	22.97
657.615	23.05
657.804	22.98
657.993	23.01
658.181	22.96
658.37	23.24
658.559	23.22
658.747	23.38
658.936	23.14
659.125	23.26
659.313	23.16
659.502	23.18
659.69	23.33
659.879	23.42
660.067	23.49
660.256	23.54
660.444	23.28
660.633	23.4
660.821	23.52
661.01	23.58
661.198	23.32
661.387	23.56
661.575	23.56
661.763	23.41
661.952	23.14
662.14	23.06
662.328	23.05
662.517	23.1
662.705	23.05
662.893	22.98
663.082	23.05
663.27	23.17
663.458	23.09
663.646	23.04
663.834	22.98
664.023	22.97
664.211	23.2
664.399	22.91
664.587	23.1
664.775	22.8
664.963	22.61
665.152	22.37
665.34	22.38
665.528	22.57
665.716	22.53
665.904	22.76
666.092	22.8
666.28	22.73
666.468	23.19
666.656	23.14
666.844	23.48
667.032	23.43
667.22	23.48
667.408	23.47
667.596	23.29
667.784	23.35
667.971	23.16
668.159	23.17
668.347	23.16
668.535	23.1
668.723	23.05
668.911	23.04
669.098	23.14
669.286	23.35
669.474	23.5
669.662	23.32
669.849	23.29
670.037	23.41
670.225	23.76
670.413	23.44
670.6	23.39
670.788	23.61
670.976	23.78
671.163	23.96
671.351	23.88
671.538	23.93
671.726	24.18
671.913	24.06
672.101	23.75
672.289	23.45
672.476	23.71
672.664	23.57
672.851	23.25
673.039	23.17
673.226	23.11
673.413	22.96
673.601	22.7
673.788	22.63
673.976	22.75
674.163	23.01
674.35	23.25
674.538	23.01
674.725	23.3
674.912	23.39
675.1	23.31
675.287	23.22
675.474	23.28
675.662	23.57
675.849	23.66
676.036	23.76
676.223	24.08
676.411	24.23
676.598	24.51
676.785	24.27
676.972	24.14
677.159	24.01
677.346	24.05
677.533	23.89
677.721	23.63
677.908	23.4
678.095	23.43
678.282	23.11
678.469	23.13
678.656	23.41
678.843	23.28
679.03	23.29
679.217	23.35
679.404	23.29
679.591	23.48
679.778	23.54
679.964	23.81
680.151	23.64
680.338	23.65
680.525	23.48
680.712	23.03
680.899	23.28
681.086	23.46
681.272	23.52
681.459	23.65
681.646	23.65
681.833	23.79
682.02	23.73
682.206	23.83
682.393	23.75
682.58	23.58
682.766	24.07
682.953	24.02
683.14	23.87
683.326	24.01
683.513	23.93
683.7	23.66
683.886	23.62
684.073	23.75
684.259	23.79
684.446	23.92
684.632	24.2
684.819	23.63
685.005	23.66
685.192	23.7
685.378	23.48
685.565	23.41
685.751	23.64
685.938	23.81
686.124	23.69
686.31	23.81
686.497	23.75
686.683	23.64
686.87	23.72
687.056	23.69
687.242	23.86
687.429	23.73
687.615	23.96
687.801	23.86
687.987	23.75
688.174	23.64
688.36	23.23
688.546	23.17
688.732	23.01
688.918	23.3
689.105	23.28
689.291	23.29
689.477	23.32
689.663	23.16
689.849	23.5
690.035	23.57
690.221	23.85
690.407	23.7
690.593	23.96
690.779	24.1
690.965	23.62
691.151	23.6
691.337	23.61
691.523	23.62
691.709	23.69
691.895	23.55
692.081	23.39
692.267	23.15
692.453	23.51
692.639	23.5
692.825	23.58
693.011	24.23
693.196	24.1
693.382	24.1
693.568	24.37
693.754	24.03
693.94	23.79
694.125	23.84
694.311	23.86
694.497	23.92
694.682	23.52
694.868	23.49
695.054	23.3
695.239	23.78
695.425	23.79
695.611	23.55
695.796	23.85
695.982	23.96
696.168	24.04
696.353	24.1
696.539	24.23
696.724	24.27
696.91	24.39
697.095	24.36
697.281	24.14
697.466	24.09
697.652	23.96
697.837	23.9
698.023	24.05
698.208	23.89
698.393	23.9
698.579	23.82
698.764	23.91
698.949	23.62
699.135	23.57
699.32	23.65
699.505	23.52
699.691	23.74
699.876	23.73
700.061	23.56
700.246	23.65
700.432	23.58
700.617	23.62
700.802	23.58
700.987	23.93
701.172	23.78
701.358	23.88
701.543	23.89
701.728	23.81
701.913	23.71
702.098	23.51
702.283	23.62
702.468	23.61
702.653	23.31
702.838	23.58
703.023	23.55
703.208	23.91
703.393	23.91
703.578	24.12
703.763	24.37
703.948	24.5
704.133	24.8
704.318	24.76
704.503	25.01
704.688	25.42
704.873	25.33
705.057	25.22
705.242	25.15
705.427	25.01
705.612	25.23
705.797	25.13
705.981	25.24
706.166	25.04
706.351	25.08
706.536	24.44
706.72	24.02
706.905	23.72
707.09	23.82
707.274	23.78
707.459	23.83
707.644	23.7
707.828	23.62
708.013	23.54
708.197	23.79
708.382	23.78
708.567	24.16
708.751	24.2
708.936	24.41
709.12	24.09
709.305	24.13
709.489	24.07
709.673	24.02
709.858	24.15
710.042	24.61
710.227	24.7
710.411	24.65
710.596	24.8
710.78	24.93
710.964	24.8
711.149	24.93
711.333	25.01
711.517	24.93
711.702	24.65
711.886	24.41
712.07	23.9
712.254	23.56
712.438	23.95
712.623	24.06
712.807	23.98
712.991	24.03
713.175	24.5
713.359	23.93
713.544	23.7
713.728	23.86
713.912	23.9
714.096	24.15
714.28	24.41
714.464	24.03
714.648	23.94
714.832	23.6
715.016	23.61
715.2	23.03
715.384	23.71
715.568	23.94
715.752	24.04
715.936	23.93
716.12	23.72
716.304	23.27
716.488	23.48
716.671	22.97
716.855	23.67
717.039	23.6
717.223	23.58
717.407	23.46
717.59	23.65
717.774	23.37
717.958	23.29
718.142	23.27
718.325	23.41
718.509	22.61
718.693	23.05
718.877	22.7
719.06	22.85
719.244	23.13
719.428	22.88
719.611	22.84
719.795	23.04
719.978	23.36
720.162	23.62
720.345	23.87
720.529	24.7
720.713	24.79
720.896	25.05
721.08	25.08
721.263	24.81
721.446	24.92
721.63	24.53
721.813	24.51
721.997	24.39
722.18	24.66
722.364	24.77
722.547	24.56
722.73	25.01
722.914	24.28
723.097	24.39
723.28	24.49
723.464	24.34
723.647	24.62
723.83	24.87
724.013	25.12
724.197	24.61
724.38	24.42
724.563	24.53
724.746	23.76
724.929	24.78
725.112	24.94
725.296	25.09
725.479	25.2
725.662	25.13
725.845	24.68
726.028	24.85
726.211	25.2
726.394	25.23
726.577	24.94
726.76	25.58
726.943	25.16
727.126	24.81
727.309	24.75
727.492	25.19
727.675	25.36
727.858	25.55
728.041	25.2
728.224	25.2
728.407	25.45
728.589	25.49
728.772	25.29
728.955	25.5
729.138	25.65
729.321	25.45
729.503	25.2
729.686	25.01
729.869	25.13
730.052	25.28
730.234	25.18
730.417	25.01
730.6	24.97
730.782	25.03
730.965	24.64
731.148	24.83
731.33	24.87
731.513	24.66
731.695	24.72
731.878	24.59
732.061	24.44
732.243	24.65
732.426	24.68
732.608	24.4
732.791	24.19
732.973	23.98
733.156	23.58
733.338	23.51
733.52	23.95
733.703	23.56
733.885	23.52
734.068	23.21
734.25	22.77
734.432	22.73
734.615	22.95
734.797	23.24
734.979	23.7
735.162	24.02
735.344	24.57
735.526	24.38
735.708	25.5
735.891	25.5
736.073	25.53
736.255	25.61
736.437	25.44
736.619	26.01
736.802	25.87
736.984	26.34
737.166	26.2
737.348	25.59
737.53	25.37
737.712	24.62
737.894	24.66
738.076	25
738.258	25.47
738.44	25.7
738.622	25.09
738.804	25.54
738.986	25.08
739.168	25.05
739.35	25.21
739.532	25.44
739.714	25.66
739.896	25.83
740.078	25.84
740.259	25.17
740.441	25.06
740.623	25.58
740.805	25.08
740.987	25.33
741.168	25.01
741.35	24.79
741.532	24.25
741.714	23.4
741.895	23.25
742.077	23.4
742.259	23.71
742.44	23.91
742.622	23.83
742.804	23.84
742.985	23.87
743.167	24.44
743.348	24.68
743.53	24.46
743.711	25.44
743.893	25.07
744.075	24.6
744.256	23.96
744.438	23.52
744.619	23.44
744.8	23.66
744.982	23.44
745.163	23.46
745.345	23.78
745.526	24.81
745.707	24.76
745.889	25.16
746.07	25.77
746.252	26.61
746.433	26.75
746.614	26.68
746.795	25.95
746.977	25.51
747.158	25.07
747.339	24.83
747.52	24.01
747.702	23.71
747.883	23.93
748.064	23.29
748.245	22.35
748.426	22.13
748.607	22.47
748.788	23.61
748.97	23.74
749.151	23.47
749.332	24.1
749.513	24.06
749.694	23.66
749.875	23.72
750.056	24.24
750.237	24.72
750.418	24.88
750.599	24.08
750.78	22.79
750.96	23
751.141	24.15
751.322	23.53
751.503	23.55
751.684	23.83
751.865	23.65
752.046	23.65
752.226	24.46
752.407	24.48
752.588	24.82
752.769	26.05
752.949	26.75
753.13	25.96
753.311	25.63
753.492	25.55
753.672	26.25
753.853	26.57
754.034	26.7
754.214	26.03
754.395	26.39
754.575	26.77
754.756	26.38
754.937	25.57
755.117	25.68
755.298	26.86
755.478	26.95
755.659	26.62
755.839	26.29
756.02	25.61
756.2	25.98
756.381	25.54
756.561	25.64
756.741	25.26
756.922	25.8
757.102	25.68
757.283	24.97
757.463	25.76
757.643	25.51
757.823	25.76
758.004	26.22
758.184	25.99
758.364	26.18
758.545	25.25
758.725	25.4
758.905	24.6
759.085	25.01
759.265	25.79
759.446	25.8
759.626	25.82
759.806	25.43
759.986	24.46
760.166	24.5
760.346	24.13
760.526	24.68
760.706	24.49
760.886	24.86
761.066	24.71
761.246	24.45
761.426	24.29
761.606	24.39
761.786	24.65
761.966	25.32
762.146	25.06
762.326	25.66
762.506	25.35
762.686	25.38
762.866	25.53
763.046	25.69
763.225	25.35
763.405	25.2
763.585	25.23
763.765	25.28
763.945	25.19
764.124	25.26
764.304	24.89
764.484	25.33
764.664	25.12
764.843	24.84
765.023	24.56
765.203	24.57
765.382	24.94
765.562	24.98
765.741	24.25
765.921	24.46
766.101	24.25
766.28	24.02
766.46	24.24
766.639	24.67
766.819	24.37
766.998	24.09
767.178	24.32
767.357	23.58
767.537	23.71
767.716	24.88
767.896	25.12
768.075	25.72
768.254	26.19
768.434	25.47
768.613	25.36
768.792	25.73
768.972	25.49
769.151	24.64
769.33	24.78
769.51	24.65
769.689	23.07
769.868	22.45
770.047	21.79
770.226	21.35
770.406	21.95
770.585	21.17
770.764	21.1
770.943	22.14
771.122	23.19
771.301	23.4
771.48	24.12
771.66	25.02
771.839	25.71
772.018	25.75
772.197	26.28
772.376	25.79
772.555	26.47
772.734	26.51
772.913	26.47
773.092	26.72
773.271	26.5
773.449	26.32
773.628	26.52
773.807	26.79
773.986	26.93
774.165	27.4
774.344	27.6
774.523	27.22
774.701	28.08
774.88	27.61
775.059	26.46
775.238	26.58
775.417	25.36
775.595	24.61
775.774	24.19
775.953	24.65
776.131	24.36
776.31	23.68
776.489	24.63
776.667	23.84
776.846	23.96
777.025	23.78
777.203	23.04
777.382	23.82
777.56	25.17
777.739	25.17
777.917	25.25
778.096	24.62
778.274	25.36
778.453	24.13
778.631	24.1
778.81	23.92
778.988	24.79
779.166	25.76
779.345	24.22
779.523	23.38
779.702	23.04
779.88	23.01
780.058	23.42
780.237	23.5
780.415	24.08
780.593	24.46
780.771	24.7
780.95	25.19
781.128	25.28
781.306	26.46
781.484	25.77
781.662	25.77
781.841	25.15
782.019	24.28
782.197	23.78
782.375	24.07
782.553	24.13
782.731	23.69
782.909	23.2
783.087	23.14
783.265	23.18
783.443	23.82
783.621	23.6
783.799	23.78
783.977	23.78
784.155	24.05
784.333	23.7
784.511	22.69
784.689	23.33
784.867	22.31
785.045	23.05
785.223	22.08
785.4	22.24
785.578	22.56
785.756	21.97
785.934	23.13
786.112	23.26
786.289	22.84
786.467	23.26
786.645	22.87
786.823	22.86
787	21.77
787.178	22.18
787.356	22.79
787.533	23.02
787.711	23.35
787.889	22.94
788.066	22.26
788.244	23.01
788.421	23.79
788.599	23.88
788.776	24.59
788.954	24.55
789.131	25.56
789.309	25.81
789.486	25.67
789.664	26.18
789.841	27.37
790.019	27.87
790.196	27.66
790.373	27.19
790.551	27.09
790.728	27.36
790.906	27.9
791.083	27.53
791.26	26.72
791.437	26.44
791.615	25.11
791.792	23.87
791.969	23.91
792.146	23.09
792.324	22.97
792.501	24.08
792.678	23.42
792.855	23.21
793.032	23.15
793.209	24.52
793.387	25.9
793.564	27.53
793.741	27.26
793.918	27.09
794.095	28.65
794.272	28.02
794.449	27.01
794.626	27.21
794.803	27.59
794.98	27.91
795.157	26.66
795.334	25.99
795.511	25.33
795.688	26.29
795.864	26.25
796.041	26.34
796.218	27.17
796.395	27.32
796.572	27.99
796.749	28.26
796.925	27.35
797.102	27.54
797.279	27.08
797.456	26.27
797.632	25.3
797.809	25.26
797.986	25.05
798.162	24.8
798.339	25.06
798.516	24.65
798.692	23.76
798.869	23.87
799.046	24.01
799.222	24.16
799.399	25.67
799.575	26.02
799.752	26.79
799.928	26.92
800.105	27.17
800.281	26.55
800.458	26.48
800.634	26.79
800.811	26.29
800.987	25.72
801.163	25.69
801.34	25.97
801.516	26.04
801.692	25.18
801.869	24.06
802.045	24.47
802.221	24.76
802.398	25.07
802.574	24.82
802.75	25.83
802.926	25.73
803.103	26.46
803.279	25.55
803.455	25.67
803.631	26.03
803.807	26.54
803.983	26.32
804.16	26.21
804.336	25.96
804.512	26.47
804.688	26.69
804.864	26.35
805.04	24.51
805.216	23.62
805.392	23.55
805.568	24.11
805.744	24.31
805.92	23.68
806.096	23.72
806.272	23.27
806.448	23.89
806.623	23.49
806.799	23.97
806.975	23.79
807.151	23.98
807.327	23.07
807.503	22.69
807.678	22.73
807.854	23.88
808.03	24.2
808.206	24.66
808.381	23.82
808.557	23.55
808.733	23.14
808.908	24.48
809.084	25.95
809.26	27.26
809.435	25.76
809.611	25.16
809.787	24.91
809.962	25.11
810.138	25
810.313	25.03
810.489	26.06
810.664	26.87
810.84	27.66
811.015	26.28
811.191	25.54
811.366	25.7
811.542	25.92
811.717	24.82
811.892	24.37
812.068	24.19
812.243	23.13
812.419	22.93
812.594	22.4
812.769	21.75
812.944	22.68
813.12	23.38
813.295	24.69
813.47	23.89
813.645	23.39
813.821	23.76
813.996	23.22
814.171	24.21
814.346	23.77
814.521	24.31
814.697	24.83
814.872	25.41
815.047	24.96
815.222	24.37
815.397	25.46
815.572	26.99
815.747	26.09
815.922	28.23
816.097	27.56
816.272	26.87
816.447	27.05
816.622	26.18
816.797	26.18
816.972	25.3
817.147	25.36
817.322	25.91
817.496	24.62
817.671	25.26
817.846	23.97
818.021	25.28
818.196	25.27
818.371	24.42
818.545	25.57
818.72	25.19
818.895	25.84
819.069	26.68
819.244	25.9
819.419	26.24
819.594	26.48
819.768	26.21
819.943	25.84
820.117	26.31
820.292	26.14
820.467	25.88
820.641	26.04
820.816	26.16
820.99	25.71
821.165	25.45
821.339	25.71
821.514	25.54
821.688	25.54
821.863	25.37
822.037	25.62
822.212	25.72
822.386	25.77
822.56	25.74
822.735	25.57
822.909	25.62
823.084	25.76
823.258	25.52
823.432	25.6
823.606	25.56
823.781	25.62
823.955	25.35
824.129	25.45
824.303	25.49
824.478	25.34
824.652	25.58
824.826	25.52
825	25.37
825.174	25.68
825.348	25.67
825.523	26.08
825.697	26.29
825.871	26.64
826.045	26.32
826.219	25.77
826.393	25.51
826.567	25.65
826.741	25.87
826.915	26.3
827.089	26.26
827.263	26.06
827.437	25.82
827.611	26.09
827.784	25.54
827.958	25.61
828.132	26.22
828.306	26.63
828.48	26.58
828.654	26.23
828.827	25.75
829.001	25.59
829.175	25.65
829.349	25.29
829.522	24.17
829.696	24.62
829.87	24.82
830.044	23.84
830.217	24.11
830.391	24.08
830.565	24.57
830.738	25.81
830.912	25.71
831.085	26.67
831.259	27.17
831.432	28.29
831.606	28.29
831.779	28.49
831.953	28.49
832.126	28.79
832.3	28.79
832.473	28.16
832.647	26.97
832.82	25.89
832.994	25.59
833.167	25.49
833.34	25.1
833.514	25.15
833.687	24.8
833.86	24.3
834.034	23.95
834.207	23.43
834.38	23.79
834.553	23.99
834.727	25
834.9	24.5
835.073	24.22
835.246	24.08
835.419	23.73
835.593	24.15
835.766	25.05
835.939	24.45
836.112	24.94
836.285	24.69
836.458	24.84
836.631	24.65
836.804	25.65
836.977	26.49
837.15	26.73
837.323	26.55
837.496	25.66
837.669	25.43
837.842	25.94
838.015	25.85
838.188	26.18
838.361	26.47
838.533	26.31
838.706	24.9
838.879	23.65
839.052	23.34
839.225	24.1
839.398	26.58
839.57	25.53
839.743	26.13
839.916	25.27
840.088	26.16
840.261	24.82
840.434	25.1
840.607	26.03
840.779	26.87
840.952	26.53
841.124	26.08
841.297	23.21
841.47	24.42
841.642	23.39
841.815	23.68
841.987	21.88
842.16	22.35
842.332	22.22
842.505	22.34
842.677	21.34
842.85	21.53
843.022	21.48
843.194	22.72
843.367	22.43
843.539	23.03
843.712	24.53
843.884	25.79
844.056	29.16
844.229	27.65
844.401	26.4
844.573	25.7
844.745	27.06
844.918	27.88
845.09	28.99
845.262	30.12
845.434	28.72
845.606	27.79
845.779	30.02
845.951	26.18
846.123	28.43
846.295	27.93
846.467	28.24
846.639	29.52
846.811	31.42
846.983	32.14
847.155	29.51
847.327	31.75
847.499	31.17
847.671	28
847.843	28.62
848.015	29.68
848.187	34.27
848.359	36.6
848.531	36.99
848.703	33.39
848.875	30.22
849.047	32
849.218	29.44
849.39	30.54
849.562	32.37
849.734	31.95
849.905	29.93
850.077	28.22
850.249	26.93
850.421	23.7
850.592	22.25
850.764	23.15
850.936	23.7
851.107	25.19
851.279	22.98
851.451	26.48
851.622	26.8
851.794	28.76
851.965	26.28
852.137	28.89
852.308	28.93
852.48	30.3
852.651	32.17
852.823	30.72
852.994	31.47
853.166	32.63
853.337	31.31
853.509	32.56
853.68	34.05
853.851	38.03
854.023	36.27
854.194	39.76
854.365	41.02
854.537	40.57
854.708	39.91
854.879	41.52
855.05	38.89
855.222	32.02
855.393	28.47
855.564	25.85
855.735	25.79
855.906	29.07
856.078	28.53
856.249	25.78
856.42	25.81
856.591	27.62
856.762	27.21
856.933	32.04
857.104	34.28
857.275	37.74
857.446	37.32
857.617	32.68
857.788	31.29
857.959	27.17
858.13	29.02
858.301	26.76
858.472	25.93
858.643	25.11
858.814	24.25
858.985	24.74
859.155	26.03
859.326	28.01
859.497	30.83
859.668	28.67
859.839	30.01
860.009	28.29
860.18	29.57
860.351	29.56
860.522	27.34
860.692	27.65
860.863	27.5
861.034	25.63
861.204	22.86
861.375	19.78
861.546	18.85
861.716	19.18
861.887	21.77
862.057	20.49
862.228	22
862.398	21.76
862.569	19.86
862.739	20.81
862.91	21.57
863.08	25.83
863.251	30.48
863.421	32.12
863.592	32.77
863.762	28.58
863.932	29.36
864.103	29.02
864.273	31.07
864.443	33.11
864.614	34.2
864.784	33.82
864.954	31.75
865.125	32.15
865.295	36.59
865.465	36.28
865.635	37.91
865.805	39.51
865.976	40.9
866.146	42.31
866.316	38.2
866.486	39.68
866.656	36.59
866.826	34.6
866.996	30.66
867.166	25.35
867.336	26.39
867.506	26.13
867.676	26.1
867.846	25.5
868.016	24.38
868.186	29.64
868.356	27.17
868.526	28.56
868.696	28.78
868.866	29.77
869.036	31.73
869.206	31.09
869.376	34.62
869.545	34.41
869.715	33.84
869.885	34.73
870.055	27.81
870.224	25.33
870.394	27.75
870.564	29.85
870.734	32.62
870.903	31.32
871.073	32.5
871.243	27.46
871.412	26.95
871.582	28.06
871.751	26.35
871.921	31.49
872.091	31.2
872.26	30
872.43	26.59
872.599	25.93
872.769	23.8
872.938	22.24
873.108	25.38
873.277	26.05
873.446	25.45
873.616	24.33
873.785	23.46
873.955	26.32
874.124	28.58
874.293	29.86
874.463	25.98
874.632	27.47
874.801	25.44
874.971	25.66
875.14	25.97
875.309	26.17
875.478	27.19
875.647	32.17
875.817	30.4
875.986	29.15
876.155	30.86
876.324	34.72
876.493	35.91
876.662	38
876.831	34.9
877	30.59
877.17	28.4
877.339	29.7
877.508	26.69
877.677	28.03
877.846	25.58
878.015	27.22
878.184	25.02
878.352	24.48
878.521	23.9
878.69	27.1
878.859	27.14
879.028	29.48
879.197	29.8
879.366	28.73
879.534	28.78
879.703	29.44
879.872	27.38
880.041	27.71
880.21	27.36
880.378	28.1
880.547	26.73
880.716	28.18
880.884	28.46
881.053	27.21
881.222	26.89
881.39	26.42
881.559	25.51
881.727	25.56
881.896	25.27
882.065	26.1
882.233	25.49
882.402	25.54
882.57	24.83
882.739	24.25
882.907	24.03
883.076	23.91
883.244	23.3
883.412	24.17
883.581	24.06
883.749	24.09
883.918	22.8
884.086	22.49
884.254	22.53
884.423	23.15
884.591	22.02
884.759	22.18
884.927	22.9
885.096	22.71
885.264	22.76
885.432	22.53
885.6	23.65
885.769	23.85
885.937	24.87
886.105	25.37
886.273	24.83
886.441	24.62
886.609	25.17
886.777	25.02
886.945	25.42
887.113	25.82
887.281	28.06
887.449	27.46
887.617	26.82
887.785	28.22
887.953	28.12
888.121	27.19
888.289	31.56
888.457	33.1
888.625	33.45
888.793	32.27
888.961	32.61
889.129	30.08
889.296	28.21
889.464	31.06
889.632	28.96
889.8	27.55
889.967	29.68
890.135	28.18
