Data from 2938554_Reflection_1.txt Node
Date: Sun Jun 14 23:51:37 EDT 2015
User: robert
Spectrometer: USB4E03002
Autoset integration time: false
Trigger mode: 4
Integration Time (sec): 1.000000E-1
Scans to average: 10
Electric dark correction enabled: true
Nonlinearity correction enabled: false
Boxcar width: 5
Stray light correction enabled: false
XAxis mode: Wavelengths
Stop averaging: false
Number of Pixels in Spectrum: 3648
>>>>>Begin Spectral Data<<<<<
177.575	196.37
177.794	-478.34
178.014	607.02
178.233	-298.63
178.452	-44.99
178.672	166.41
178.891	66.1
179.11	73.65
179.33	58.76
179.549	61.45
179.768	127.31
179.987	94.84
180.207	113.32
180.426	134.51
180.645	182.34
180.864	134.85
181.084	76.3
181.303	57.16
181.522	55.87
181.741	50.45
181.96	-23.31
182.179	-40.66
182.398	31.37
182.618	63.34
182.837	-28.09
183.056	33.9
183.275	68.51
183.494	62.35
183.713	79.74
183.932	71.52
184.151	49.39
184.37	69.89
184.589	59.6
184.808	150.03
185.027	77.29
185.246	-14.9
185.465	-60.43
185.684	-6.14
185.903	1.99
186.122	92.53
186.341	126.75
186.56	180.92
186.779	157.33
186.998	74.58
187.216	57.03
187.435	44.58
187.654	77.42
187.873	60.96
188.092	92.45
188.311	224.43
188.53	249.82
188.748	-222.02
188.967	-46.47
189.186	-736.97
189.405	-1209.07
189.623	-640.58
189.842	-4405.56
190.061	-585.31
190.28	-1022.01
190.498	186.76
190.717	77.96
190.936	97.81
191.154	56.04
191.373	49.74
191.592	45.87
191.81	25.88
192.029	-5.22
192.248	102.82
192.466	119.4
192.685	27.45
192.904	46.98
193.122	113.37
193.341	-126.83
193.559	-100.31
193.778	249.59
193.996	50.64
194.215	49.74
194.433	54.64
194.652	13.46
194.87	30.11
195.089	42.47
195.307	18.79
195.526	37.69
195.744	27.35
195.963	44.09
196.181	40.34
196.399	47.78
196.618	119
196.836	109.54
197.055	112.61
197.273	144.44
197.491	339.96
197.71	210.49
197.928	163.04
198.146	231.88
198.365	283.42
198.583	394.82
198.801	425.97
199.019	286.4
199.238	670.86
199.456	247.63
199.674	233.44
199.892	194.93
200.111	212.55
200.329	432.9
200.547	324.35
200.765	218.2
200.983	170.38
201.202	150.91
201.42	108.66
201.638	98.4
201.856	103.64
202.074	101.48
202.292	79.99
202.51	63.12
202.728	53.15
202.946	38.94
203.165	-1.5
203.383	-82.67
203.601	-57.43
203.819	127.74
204.037	2197.62
204.255	311.72
204.473	241.54
204.691	159.09
204.909	149.55
205.127	144.93
205.345	222.61
205.562	166.55
205.78	51.81
205.998	-454.01
206.216	-1389.66
206.434	-3167.82
206.652	-220.85
206.87	-133.96
207.088	1676.03
207.306	-1183
207.523	-54.72
207.741	-11.39
207.959	-14.54
208.177	-4.31
208.395	-38.55
208.612	-37.77
208.83	-35.42
209.048	-39.36
209.266	-42.16
209.483	-32.82
209.701	-37.24
209.919	-25.24
210.136	-59.65
210.354	-86.53
210.572	-203.24
210.79	-274.32
211.007	-443.2
211.225	-1909.88
211.442	352.39
211.66	192
211.878	199.73
212.095	-71.68
212.313	-110.03
212.53	-93.89
212.748	-55.55
212.966	-6.61
213.183	7.67
213.401	1.29
213.618	-0.26
213.836	11.03
214.053	5.82
214.271	8.73
214.488	11.48
214.705	35.36
214.923	42.83
215.14	42.44
215.358	34
215.575	23.6
215.793	31.79
216.01	7.27
216.227	-46.26
216.445	13.91
216.662	-26.83
216.879	-56.5
217.097	-151.21
217.314	-96.11
217.531	-108.39
217.749	-118.03
217.966	-123.06
218.183	-220.34
218.4	-60.43
218.618	-77.97
218.835	-68.36
219.052	-59.86
219.269	-36.12
219.487	-35.95
219.704	-41.18
219.921	-42
220.138	-38.35
220.355	-34.76
220.572	-32.05
220.79	-45.41
221.007	-20.87
221.224	-28.99
221.441	-22.63
221.658	-39.67
221.875	-29.78
222.092	-30.73
222.309	-36.27
222.526	-35.43
222.743	-23.74
222.96	-24.04
223.177	-21.01
223.394	-24.4
223.611	-19.35
223.828	-21.1
224.045	-13
224.262	-10.79
224.479	-8.59
224.696	-4.7
224.913	-3.4
225.13	-6.47
225.347	-3.29
225.564	-2.33
225.781	-1.4
225.997	1.16
226.214	4.2
226.431	3.08
226.648	3.55
226.865	5.38
227.082	6.16
227.298	6.06
227.515	6.79
227.732	7.77
227.949	7.54
228.165	7.52
228.382	6.41
228.599	4.63
228.816	6.27
229.032	6.37
229.249	5.7
229.466	6.67
229.682	6.81
229.899	7.04
230.116	6.32
230.332	6.25
230.549	6.83
230.765	5.92
230.982	5.54
231.199	6.39
231.415	5.4
231.632	4.85
231.848	3.44
232.065	2.02
232.281	1.76
232.498	2.6
232.714	3.14
232.931	2.76
233.147	5.16
233.364	7.69
233.58	3.73
233.797	5.02
234.013	5.07
234.23	4.75
234.446	5.09
234.662	5.1
234.879	4.66
235.095	3.6
235.312	2.92
235.528	1.67
235.744	1.32
235.961	5.95
236.177	5.41
236.393	4.9
236.61	4.12
236.826	3.65
237.042	3.19
237.258	3.44
237.475	3.91
237.691	6.94
237.907	7.4
238.123	8.66
238.339	6.49
238.556	5.54
238.772	3.39
238.988	4.9
239.204	7.15
239.42	6.8
239.636	6.49
239.853	6.53
240.069	6.02
240.285	5.76
240.501	5.42
240.717	6.24
240.933	6.16
241.149	7.34
241.365	7.18
241.581	6.08
241.797	6.34
242.013	6.39
242.229	6.2
242.445	5.76
242.661	5.74
242.877	5.94
243.093	5
243.309	5.66
243.525	5.33
243.741	4.5
243.957	4.23
244.173	4.53
244.388	4.73
244.604	4.96
244.82	4.82
245.036	5.23
245.252	4.55
245.468	5.3
245.683	5.26
245.899	5.35
246.115	5.76
246.331	6.03
246.547	5.71
246.762	5.88
246.978	6.43
247.194	6.73
247.409	6.64
247.625	7.31
247.841	6.4
248.057	6.18
248.272	6.27
248.488	6.3
248.703	6.77
248.919	7.4
249.135	6.81
249.35	6.02
249.566	5.08
249.782	5.54
249.997	5.24
250.213	5.75
250.428	6.37
250.644	6.01
250.859	6.44
251.075	5.29
251.29	5.2
251.506	5.98
251.721	4.84
251.937	6
252.152	5.92
252.368	6.56
252.583	6.52
252.798	5.23
253.014	5.66
253.229	3.46
253.445	5.09
253.66	5.36
253.875	3.12
254.091	3.22
254.306	2.69
254.521	1.28
254.737	1.12
254.952	1.34
255.167	1.54
255.383	2.82
255.598	4.06
255.813	3.78
256.028	3.02
256.244	3.8
256.459	4.17
256.674	4.19
256.889	4.31
257.104	4.61
257.32	4.53
257.535	4.7
257.75	4.19
257.965	3.99
258.18	4.04
258.395	4.12
258.61	4.05
258.826	4.06
259.041	3.6
259.256	3.69
259.471	2.97
259.686	2.95
259.901	3.17
260.116	2.95
260.331	2.79
260.546	2.87
260.761	3.07
260.976	2.97
261.191	2.47
261.406	3.36
261.621	3.38
261.836	4.03
262.05	3.94
262.265	3.47
262.48	4.02
262.695	4.28
262.91	3.13
263.125	2.33
263.34	1.54
263.555	2.23
263.769	1.47
263.984	1.42
264.199	1.68
264.414	2.05
264.629	1.9
264.843	1.83
265.058	1.56
265.273	2.13
265.488	2.42
265.702	3.16
265.917	3.42
266.132	3.6
266.346	3.85
266.561	3.31
266.776	2.52
266.99	2.54
267.205	2.5
267.42	2.57
267.634	2.67
267.849	2.36
268.063	2.81
268.278	2.8
268.492	2.76
268.707	2.44
268.922	2.71
269.136	3.1
269.351	3.21
269.565	3.4
269.78	3.62
269.994	3.12
270.209	3.03
270.423	2.9
270.637	2.57
270.852	2.79
271.066	2.74
271.281	2.51
271.495	2.61
271.709	2.42
271.924	2.02
272.138	1.64
272.353	1.56
272.567	1.84
272.781	1.3
272.996	1.31
273.21	0.87
273.424	1.16
273.638	1.83
273.853	2.06
274.067	2.62
274.281	2.54
274.495	2.56
274.71	3.1
274.924	2.95
275.138	3.33
275.352	3.43
275.566	3.67
275.781	3.66
275.995	3.39
276.209	3.19
276.423	3.41
276.637	3.76
276.851	4.16
277.065	4.26
277.279	5.03
277.493	4.86
277.707	4.07
277.921	3.92
278.135	3.4
278.349	3.14
278.563	2.95
278.777	2.5
278.991	2.53
279.205	1.94
279.419	1.91
279.633	1.26
279.847	1.55
280.061	2.23
280.275	2.19
280.489	2.57
280.703	3.21
280.917	2.88
281.131	2.68
281.344	2.06
281.558	2.79
281.772	2.98
281.986	3.12
282.2	2.98
282.414	3.25
282.627	3.36
282.841	3.53
283.055	3
283.269	3.28
283.482	3.42
283.696	3.82
283.91	3.17
284.123	3.02
284.337	3.07
284.551	3.17
284.764	3.33
284.978	3.37
285.192	3.04
285.405	3.28
285.619	3.44
285.833	3.71
286.046	3.68
286.26	3.94
286.473	3.86
286.687	4.13
286.9	4.05
287.114	3.54
287.327	3.52
287.541	3.54
287.754	3.24
287.968	3.2
288.181	3.19
288.395	3.27
288.608	3.05
288.822	3.13
289.035	2.68
289.248	2.59
289.462	2.77
289.675	2.7
289.889	2.73
290.102	3.14
290.315	2.94
290.529	3.01
290.742	2.93
290.955	3.11
291.169	3.22
291.382	3.61
291.595	3.9
291.808	4.14
292.022	4.35
292.235	4.65
292.448	4.19
292.661	4.27
292.875	4.08
293.088	4.22
293.301	4.33
293.514	4.43
293.727	4.28
293.94	4.22
294.153	3.9
294.367	3.94
294.58	4.08
294.793	4.34
295.006	4.23
295.219	4.24
295.432	4.16
295.645	4.16
295.858	4.02
296.071	4.03
296.284	4.06
296.497	4.32
296.71	4.36
296.923	3.98
297.136	3.72
297.349	3.79
297.562	3.58
297.775	3.95
297.988	4.22
298.201	4.41
298.414	4.19
298.626	4.41
298.839	4.69
299.052	4.5
299.265	4.68
299.478	4.85
299.691	5.19
299.903	5.2
300.116	5.02
300.329	4.48
300.542	3.89
300.755	4.02
300.967	3.35
301.18	2.96
301.393	2.89
301.605	2.8
301.818	2.97
302.031	2.75
302.243	3.05
302.456	2.96
302.669	3.16
302.881	3.81
303.094	4.28
303.307	4.87
303.519	4.96
303.732	5.3
303.944	5.41
304.157	5.37
304.37	5.55
304.582	5.47
304.795	5.24
305.007	5.23
305.22	5.18
305.432	4.99
305.645	4.78
305.857	4.58
306.069	4.27
306.282	4.32
306.494	3.9
306.707	3.88
306.919	4.08
307.132	4.23
307.344	4.5
307.556	4.43
307.769	4.49
307.981	4.65
308.193	4.92
308.406	5.04
308.618	5.25
308.83	5.58
309.043	5.45
309.255	5.34
309.467	5.56
309.679	5.52
309.892	5.77
310.104	5.73
310.316	5.52
310.528	5.45
310.74	5.68
310.953	5.32
311.165	5.45
311.377	5.07
311.589	5.41
311.801	5.73
312.013	5.81
312.225	5.68
312.437	5.58
312.649	6.3
312.862	6
313.074	5.22
313.286	5.57
313.498	5.32
313.71	5.83
313.922	5.19
314.134	4.89
314.346	4.45
314.558	4.71
314.77	4.97
314.982	4.33
315.193	4.8
315.405	5.42
315.617	5.57
315.829	5.71
316.041	5.89
316.253	6.09
316.465	5.84
316.677	6.48
316.888	6.02
317.1	6.21
317.312	6.07
317.524	6.22
317.736	5.91
317.947	5.67
318.159	5.69
318.371	5.45
318.583	5.69
318.794	5.64
319.006	5.87
319.218	6.06
319.43	5.83
319.641	5.83
319.853	5.72
320.064	6.63
320.276	6.6
320.488	6.95
320.699	7
320.911	7.06
321.123	6.87
321.334	6.91
321.546	6.95
321.757	6.68
321.969	7.28
322.18	6.96
322.392	6.32
322.603	6.51
322.815	6.57
323.026	6.6
323.238	7.09
323.449	7.26
323.661	6.98
323.872	6.79
324.083	7.27
324.295	6.58
324.506	6.77
324.718	7.21
324.929	6.7
325.14	6.25
325.352	6.06
325.563	5.4
325.774	5.67
325.986	5.64
326.197	5.77
326.408	5.75
326.62	6.25
326.831	6.4
327.042	6.24
327.253	6.73
327.464	7.27
327.676	7.27
327.887	7.28
328.098	6.97
328.309	7.33
328.52	7.42
328.732	7.44
328.943	7.4
329.154	7.09
329.365	7.4
329.576	7.48
329.787	7.21
329.998	7.57
330.209	7.7
330.42	7.89
330.631	7.81
330.842	7.78
331.053	7.61
331.264	7.67
331.475	8.17
331.686	8.09
331.897	7.98
332.108	8.07
332.319	8.09
332.53	7.82
332.741	7.96
332.952	7.8
333.163	7.69
333.374	7.96
333.585	8.13
333.795	8
334.006	8.01
334.217	8.09
334.428	8.09
334.639	7.99
334.849	8.37
335.06	8.24
335.271	8.28
335.482	8.42
335.692	8.11
335.903	7.64
336.114	7.63
336.325	7.3
336.535	7.25
336.746	7.18
336.957	7.27
337.167	7.3
337.378	7.5
337.589	7.46
337.799	7.55
338.01	7.9
338.22	8.31
338.431	8.63
338.642	8.63
338.852	8.45
339.063	8.36
339.273	8.51
339.484	8.19
339.694	7.94
339.905	7.51
340.115	7.24
340.326	6.82
340.536	6.68
340.746	6.39
340.957	6.63
341.167	6.57
341.378	7.03
341.588	7.18
341.799	7.06
342.009	7.34
342.219	7.71
342.43	7.98
342.64	8.17
342.85	8.23
343.061	8.69
343.271	8.61
343.481	8.89
343.691	8.63
343.902	8.59
344.112	8.89
344.322	8.93
344.532	8.59
344.743	8.62
344.953	8.46
345.163	8.46
345.373	7.82
345.583	7.87
345.793	7.66
346.004	7.63
346.214	7.43
346.424	7.56
346.634	7.13
346.844	7.59
347.054	7.45
347.264	7.5
347.474	7.44
347.684	8.02
347.894	7.86
348.104	7.85
348.314	7.74
348.524	7.46
348.734	7.46
348.944	7.63
349.154	7.71
349.364	7.87
349.574	7.87
349.784	8.09
349.994	7.56
350.204	7.9
350.413	8.31
350.623	8.52
350.833	9.12
351.043	8.99
351.253	9.19
351.463	8.94
351.672	8.67
351.882	8.67
352.092	8.49
352.302	8.34
352.511	8
352.721	7.81
352.931	7.58
353.141	7.2
353.35	7.35
353.56	7.13
353.77	7.59
353.979	7.57
354.189	7.82
354.399	7.83
354.608	8.02
354.818	7.98
355.027	8
355.237	8.06
355.447	8.26
355.656	8.27
355.866	8.13
356.075	7.8
356.285	8.06
356.494	7.87
356.704	7.91
356.913	7.9
357.123	7.79
357.332	7.85
357.542	7.87
357.751	7.89
357.96	7.72
358.17	7.64
358.379	7.69
358.589	7.72
358.798	7.64
359.007	7.65
359.217	7.64
359.426	7.75
359.635	7.65
359.845	7.73
360.054	7.59
360.263	7.72
360.472	7.95
360.682	7.91
360.891	7.77
361.1	7.81
361.309	7.72
361.519	7.69
361.728	7.62
361.937	7.55
362.146	7.31
362.355	7.13
362.564	7.06
362.774	6.74
362.983	6.74
363.192	6.67
363.401	6.45
363.61	6.44
363.819	6.35
364.028	6.42
364.237	6.23
364.446	6.34
364.655	6.4
364.864	6.1
365.073	6.3
365.282	6.01
365.491	5.92
365.7	6.26
365.909	6.03
366.118	6.19
366.327	6.17
366.536	6.41
366.745	6.57
366.954	6.46
367.162	6.68
367.371	6.58
367.58	6.61
367.789	6.65
367.998	6.63
368.207	6.99
368.415	7.01
368.624	6.8
368.833	6.82
369.042	6.73
369.25	6.8
369.459	7.11
369.668	7.1
369.877	7.23
370.085	7.6
370.294	7.73
370.503	7.52
370.711	7.4
370.92	7.64
371.129	7.43
371.337	7.17
371.546	7.12
371.754	6.64
371.963	6.66
372.171	6.76
372.38	6.53
372.589	6.28
372.797	6.05
373.006	5.94
373.214	5.82
373.423	5.95
373.631	6.34
373.84	6.24
374.048	6.31
374.256	6.19
374.465	5.84
374.673	5.9
374.882	5.84
375.09	6.09
375.298	6.2
375.507	6.26
375.715	6.27
375.923	5.87
376.132	5.91
376.34	6
376.548	6.17
376.757	6.32
376.965	6.08
377.173	5.98
377.381	6.12
377.59	5.97
377.798	6.12
378.006	5.99
378.214	6.09
378.423	6.25
378.631	6.3
378.839	6.15
379.047	6.09
379.255	6.26
379.463	6.36
379.671	6.13
379.879	6.03
380.088	5.86
380.296	5.93
380.504	6.05
380.712	6.02
380.92	6.02
381.128	6.08
381.336	6.2
381.544	6.06
381.752	6.03
381.96	6.04
382.168	6
382.376	5.78
382.584	5.75
382.791	5.56
382.999	5.61
383.207	5.52
383.415	5.51
383.623	5.46
383.831	5.32
384.039	5.25
384.247	5.2
384.454	5.52
384.662	5.76
384.87	5.7
385.078	5.73
385.285	5.65
385.493	5.44
385.701	5.41
385.909	5.43
386.116	5.52
386.324	5.61
386.532	5.71
386.739	5.41
386.947	5.2
387.155	5.37
387.362	5.41
387.57	5.44
387.778	5.55
387.985	5.48
388.193	5.63
388.4	5.86
388.608	5.88
388.816	5.59
389.023	5.67
389.231	6
389.438	5.86
389.646	5.97
389.853	6.01
390.061	5.94
390.268	6.16
390.475	6.04
390.683	6.09
390.89	5.95
391.098	6.24
391.305	6.22
391.512	5.89
391.72	5.91
391.927	6.07
392.135	5.91
392.342	5.97
392.549	5.82
392.756	5.89
392.964	5.53
393.171	5.6
393.378	5.41
393.586	5.3
393.793	5.57
394	5.49
394.207	5.25
394.414	5.18
394.622	5.15
394.829	5.13
395.036	4.94
395.243	4.96
395.45	4.86
395.657	4.85
395.864	5
396.072	5.01
396.279	5.12
396.486	5.1
396.693	5.07
396.9	4.84
397.107	4.81
397.314	4.84
397.521	5.04
397.728	5.35
397.935	5.28
398.142	5.29
398.349	5.25
398.556	5.29
398.763	5.26
398.97	5.36
399.177	5.62
399.383	5.58
399.59	5.67
399.797	5.45
400.004	5.11
400.211	5.47
400.418	5.43
400.625	5.17
400.831	5.14
401.038	5.08
401.245	5.15
401.452	5.12
401.658	5.16
401.865	4.94
402.072	4.85
402.279	4.9
402.485	4.75
402.692	4.72
402.899	4.67
403.105	4.63
403.312	4.76
403.519	4.65
403.725	4.62
403.932	4.7
404.138	4.66
404.345	4.75
404.552	4.79
404.758	4.66
404.965	4.82
405.171	4.9
405.378	4.99
405.584	4.85
405.791	4.96
405.997	4.98
406.204	4.96
406.41	5.21
406.617	5.47
406.823	5.44
407.029	5.58
407.236	5.43
407.442	5.35
407.649	5.11
407.855	5.32
408.061	5.22
408.268	5.21
408.474	5.04
408.68	5.01
408.887	4.8
409.093	4.78
409.299	4.76
409.505	4.85
409.712	4.94
409.918	4.99
410.124	4.84
410.33	4.86
410.537	4.98
410.743	5.08
410.949	5.03
411.155	5.15
411.361	5.09
411.567	4.94
411.773	4.95
411.98	5.14
412.186	5.2
412.392	5.18
412.598	5.1
412.804	4.79
413.01	4.8
413.216	4.91
413.422	4.86
413.628	4.84
413.834	4.87
414.04	4.88
414.246	4.82
414.452	4.54
414.658	4.45
414.864	4.74
415.07	4.82
415.275	4.71
415.481	4.61
415.687	4.62
415.893	4.72
416.099	4.71
416.305	4.64
416.511	4.6
416.716	4.84
416.922	4.92
417.128	4.76
417.334	4.72
417.539	4.74
417.745	4.66
417.951	4.6
418.157	4.63
418.362	4.67
418.568	4.6
418.774	4.56
418.979	4.57
419.185	4.57
419.391	4.58
419.596	4.69
419.802	4.7
420.008	4.83
420.213	4.8
420.419	4.71
420.624	4.75
420.83	4.8
421.035	4.82
421.241	4.77
421.446	4.79
421.652	4.84
421.857	4.77
422.063	4.78
422.268	4.74
422.474	4.83
422.679	4.86
422.885	4.75
423.09	4.77
423.295	4.72
423.501	4.75
423.706	4.71
423.911	4.71
424.117	4.71
424.322	4.75
424.527	4.74
424.733	4.7
424.938	4.74
425.143	4.78
425.349	4.8
425.554	4.88
425.759	4.8
425.964	4.76
426.169	4.69
426.375	4.72
426.58	4.6
426.785	4.54
426.99	4.58
427.195	4.57
427.4	4.55
427.605	4.5
427.811	4.51
428.016	4.68
428.221	4.8
428.426	4.89
428.631	4.83
428.836	4.9
429.041	4.98
429.246	4.86
429.451	4.88
429.656	4.88
429.861	4.94
430.066	4.96
430.271	4.89
430.476	4.77
430.681	4.7
430.886	4.74
431.09	4.76
431.295	4.69
431.5	4.71
431.705	4.79
431.91	4.78
432.115	4.69
432.32	4.65
432.524	4.65
432.729	4.71
432.934	4.79
433.139	4.76
433.343	4.74
433.548	4.65
433.753	4.71
433.958	4.54
434.162	4.51
434.367	4.55
434.572	4.51
434.776	4.58
434.981	4.53
435.186	4.4
435.39	4.38
435.595	4.52
435.799	4.58
436.004	4.62
436.209	4.61
436.413	4.64
436.618	4.65
436.822	4.76
437.027	4.62
437.231	4.6
437.436	4.64
437.64	4.7
437.845	4.64
438.049	4.57
438.253	4.51
438.458	4.56
438.662	4.59
438.867	4.54
439.071	4.48
439.275	4.47
439.48	4.58
439.684	4.56
439.888	4.54
440.093	4.57
440.297	4.69
440.501	4.64
440.706	4.62
440.91	4.62
441.114	4.7
441.318	4.62
441.523	4.69
441.727	4.63
441.931	4.68
442.135	4.7
442.339	4.63
442.543	4.55
442.748	4.66
442.952	4.66
443.156	4.7
443.36	4.67
443.564	4.68
443.768	4.65
443.972	4.53
444.176	4.45
444.38	4.35
444.584	4.25
444.788	4.29
444.992	4.26
445.196	4.27
445.4	4.27
445.604	4.17
445.808	4.2
446.012	4.19
446.216	4.33
446.42	4.3
446.624	4.35
446.828	4.47
447.032	4.42
447.235	4.46
447.439	4.51
447.643	4.45
447.847	4.5
448.051	4.51
448.254	4.42
448.458	4.35
448.662	4.43
448.866	4.44
449.069	4.28
449.273	4.37
449.477	4.25
449.681	4.15
449.884	4.14
450.088	4.1
450.292	4.05
450.495	4.15
450.699	4.08
450.902	4.11
451.106	4.06
451.31	4.21
451.513	4.18
451.717	4.22
451.92	4.23
452.124	4.3
452.327	4.29
452.531	4.29
452.734	4.27
452.938	4.19
453.141	4.16
453.345	4.26
453.548	4.24
453.752	4.21
453.955	4.17
454.158	4.24
454.362	4.13
454.565	4.2
454.769	4.22
454.972	4.32
455.175	4.43
455.379	4.45
455.582	4.39
455.785	4.34
455.988	4.46
456.192	4.48
456.395	4.42
456.598	4.48
456.801	4.39
457.005	4.43
457.208	4.39
457.411	4.4
457.614	4.37
457.817	4.36
458.021	4.42
458.224	4.36
458.427	4.46
458.63	4.44
458.833	4.47
459.036	4.56
459.239	4.5
459.442	4.53
459.645	4.52
459.848	4.56
460.051	4.59
460.254	4.55
460.457	4.57
460.66	4.4
460.863	4.35
461.066	4.39
461.269	4.29
461.472	4.34
461.675	4.3
461.878	4.25
462.081	4.22
462.284	4.25
462.486	4.22
462.689	4.26
462.892	4.3
463.095	4.35
463.298	4.29
463.5	4.5
463.703	4.53
463.906	4.56
464.109	4.76
464.311	4.76
464.514	4.7
464.717	4.75
464.92	4.63
465.122	4.67
465.325	4.75
465.528	4.68
465.73	4.58
465.933	4.57
466.135	4.54
466.338	4.42
466.541	4.37
466.743	4.4
466.946	4.43
467.148	4.44
467.351	4.41
467.553	4.41
467.756	4.45
467.958	4.58
468.161	4.55
468.363	4.58
468.566	4.51
468.768	4.56
468.971	4.67
469.173	4.63
469.375	4.61
469.578	4.52
469.78	4.55
469.983	4.55
470.185	4.4
470.387	4.39
470.59	4.37
470.792	4.45
470.994	4.5
471.196	4.41
471.399	4.34
471.601	4.33
471.803	4.37
472.005	4.32
472.208	4.33
472.41	4.28
472.612	4.23
472.814	4.19
473.016	4.14
473.218	4.11
473.421	4.11
473.623	4.16
473.825	4.27
474.027	4.32
474.229	4.32
474.431	4.27
474.633	4.29
474.835	4.3
475.037	4.39
475.239	4.34
475.441	4.4
475.643	4.39
475.845	4.42
476.047	4.41
476.249	4.49
476.451	4.49
476.653	4.53
476.855	4.64
477.057	4.69
477.258	4.66
477.46	4.8
477.662	4.77
477.864	4.84
478.066	4.78
478.268	4.76
478.469	4.65
478.671	4.66
478.873	4.65
479.075	4.61
479.276	4.57
479.478	4.53
479.68	4.45
479.882	4.47
480.083	4.37
480.285	4.4
480.487	4.41
480.688	4.43
480.89	4.42
481.091	4.44
481.293	4.39
481.495	4.34
481.696	4.37
481.898	4.41
482.099	4.36
482.301	4.4
482.502	4.44
482.704	4.45
482.905	4.46
483.107	4.45
483.308	4.44
483.51	4.49
483.711	4.53
483.913	4.52
484.114	4.48
484.315	4.53
484.517	4.51
484.718	4.47
484.92	4.47
485.121	4.45
485.322	4.45
485.524	4.43
485.725	4.41
485.926	4.44
486.127	4.45
486.329	4.45
486.53	4.43
486.731	4.42
486.932	4.43
487.134	4.43
487.335	4.46
487.536	4.5
487.737	4.5
487.938	4.47
488.139	4.5
488.341	4.5
488.542	4.51
488.743	4.53
488.944	4.57
489.145	4.54
489.346	4.53
489.547	4.49
489.748	4.5
489.949	4.55
490.15	4.61
490.351	4.54
490.552	4.6
490.753	4.61
490.954	4.61
491.155	4.64
491.356	4.65
491.557	4.65
491.758	4.68
491.959	4.67
492.159	4.66
492.36	4.59
492.561	4.63
492.762	4.6
492.963	4.66
493.164	4.7
493.364	4.67
493.565	4.69
493.766	4.75
493.967	4.77
494.167	4.73
494.368	4.77
494.569	4.8
494.769	4.83
494.97	4.82
495.171	4.72
495.371	4.69
495.572	4.72
495.773	4.81
495.973	4.83
496.174	4.86
496.375	4.89
496.575	4.94
496.776	4.99
496.976	4.99
497.177	4.99
497.377	5.02
497.578	5.08
497.778	5.03
497.979	5.01
498.179	5.04
498.38	5.01
498.58	5.02
498.78	4.98
498.981	4.97
499.181	5.05
499.382	5.03
499.582	5.09
499.782	5.06
499.983	5.07
500.183	5.07
500.383	5.05
500.584	5.16
500.784	5.2
500.984	5.21
501.184	5.24
501.385	5.18
501.585	5.23
501.785	5.32
501.985	5.32
502.185	5.38
502.386	5.35
502.586	5.33
502.786	5.37
502.986	5.4
503.186	5.48
503.386	5.42
503.586	5.49
503.786	5.55
503.987	5.53
504.187	5.6
504.387	5.71
504.587	5.81
504.787	5.88
504.987	5.83
505.187	5.79
505.387	5.78
505.587	5.88
505.786	5.89
505.986	5.95
506.186	5.94
506.386	6.01
506.586	5.95
506.786	5.85
506.986	5.85
507.186	5.84
507.386	5.86
507.585	5.86
507.785	5.88
507.985	5.9
508.185	5.86
508.384	5.94
508.584	5.91
508.784	5.97
508.984	6.1
509.183	6.13
509.383	6.26
509.583	6.32
509.782	6.34
509.982	6.35
510.182	6.42
510.381	6.56
510.581	6.62
510.781	6.67
510.98	6.79
511.18	6.78
511.379	6.78
511.579	6.83
511.778	6.85
511.978	6.96
512.177	7.04
512.377	7.01
512.576	7.02
512.776	6.93
512.975	6.9
513.175	6.89
513.374	6.96
513.573	7.06
513.773	6.96
513.972	7.02
514.172	6.99
514.371	7.03
514.57	7.04
514.77	6.92
514.969	6.99
515.168	7.04
515.367	7.03
515.567	7
515.766	6.97
515.965	7.1
516.164	7.22
516.364	7.27
516.563	7.22
516.762	7.38
516.961	7.5
517.16	7.51
517.359	7.6
517.559	7.62
517.758	7.7
517.957	7.76
518.156	7.79
518.355	7.77
518.554	7.76
518.753	7.88
518.952	7.79
519.151	7.82
519.35	7.9
519.549	7.83
519.748	7.86
519.947	7.9
520.146	7.87
520.345	7.89
520.544	7.92
520.743	7.88
520.942	7.92
521.141	7.97
521.339	7.97
521.538	7.99
521.737	7.98
521.936	7.97
522.135	7.98
522.333	8.04
522.532	8.08
522.731	8.15
522.93	8.26
523.129	8.3
523.327	8.31
523.526	8.36
523.725	8.35
523.923	8.43
524.122	8.46
524.321	8.47
524.519	8.51
524.718	8.55
524.917	8.53
525.115	8.55
525.314	8.59
525.512	8.69
525.711	8.71
525.909	8.72
526.108	8.71
526.306	8.74
526.505	8.77
526.703	8.77
526.902	8.79
527.1	8.81
527.299	8.84
527.497	8.86
527.696	8.83
527.894	8.82
528.092	8.85
528.291	8.89
528.489	8.92
528.688	8.94
528.886	8.99
529.084	9
529.283	9.08
529.481	9.09
529.679	9.08
529.877	9.09
530.076	9.16
530.274	9.23
530.472	9.28
530.67	9.26
530.869	9.29
531.067	9.3
531.265	9.27
531.463	9.26
531.661	9.31
531.859	9.32
532.057	9.43
532.255	9.46
532.454	9.46
532.652	9.48
532.85	9.55
533.048	9.6
533.246	9.62
533.444	9.68
533.642	9.68
533.84	9.66
534.038	9.67
534.236	9.66
534.434	9.6
534.632	9.7
534.83	9.73
535.027	9.75
535.225	9.8
535.423	9.75
535.621	9.78
535.819	9.85
536.017	9.83
536.215	9.88
536.412	9.87
536.61	9.89
536.808	9.86
537.006	9.9
537.203	9.87
537.401	9.81
537.599	9.94
537.797	10
537.994	9.99
538.192	10.02
538.39	10.07
538.587	10.05
538.785	10.05
538.983	10.08
539.18	10.03
539.378	10.1
539.575	10.15
539.773	10.12
539.97	10.17
540.168	10.17
540.366	10.24
540.563	10.27
540.761	10.35
540.958	10.41
541.155	10.48
541.353	10.51
541.55	10.49
541.748	10.54
541.945	10.61
542.143	10.62
542.34	10.65
542.537	10.7
542.735	10.75
542.932	10.78
543.129	10.84
543.327	10.79
543.524	10.85
543.721	10.93
543.919	10.9
544.116	10.92
544.313	10.91
544.51	10.97
544.708	10.95
544.905	10.94
545.102	11.01
545.299	11.03
545.496	11.11
545.693	11.14
545.891	11.23
546.088	11.29
546.285	11.45
546.482	11.54
546.679	11.57
546.876	11.64
547.073	11.71
547.27	11.72
547.467	11.74
547.664	11.71
547.861	11.71
548.058	11.68
548.255	11.7
548.452	11.54
548.649	11.5
548.846	11.54
549.043	11.57
549.24	11.64
549.437	11.64
549.633	11.69
549.83	11.9
550.027	11.99
550.224	12.06
550.421	12.14
550.618	12.26
550.814	12.34
551.011	12.39
551.208	12.37
551.405	12.36
551.601	12.37
551.798	12.4
551.995	12.3
552.191	12.29
552.388	12.3
552.585	12.24
552.781	12.33
552.978	12.42
553.175	12.52
553.371	12.68
553.568	12.73
553.764	12.8
553.961	12.8
554.157	12.89
554.354	13.06
554.55	13.05
554.747	13.18
554.943	13.14
555.14	12.99
555.336	12.78
555.533	12.69
555.729	12.72
555.926	12.77
556.122	12.84
556.318	12.98
556.515	12.93
556.711	12.98
556.907	12.94
557.104	12.94
557.3	13.13
557.496	13.39
557.693	13.53
557.889	13.58
558.085	13.62
558.281	13.66
558.478	13.68
558.674	13.78
558.87	13.8
559.066	13.89
559.262	13.96
559.459	13.97
559.655	13.95
559.851	13.9
560.047	14.04
560.243	14.09
560.439	14.16
560.635	14.13
560.831	14.12
561.027	14.19
561.223	14.31
561.419	14.39
561.615	14.51
561.811	14.51
562.007	14.6
562.203	14.54
562.399	14.58
562.595	14.75
562.791	14.94
562.987	15.04
563.183	15.13
563.379	15.09
563.575	15.11
563.771	15.07
563.966	15.18
564.162	15.23
564.358	15.24
564.554	15.26
564.75	15.21
564.945	15.21
565.141	15.24
565.337	15.31
565.533	15.39
565.728	15.42
565.924	15.53
566.12	15.69
566.315	15.8
566.511	15.9
566.707	16.08
566.902	16.12
567.098	16.14
567.293	16.22
567.489	16.25
567.684	16.21
567.88	16.25
568.076	16.33
568.271	16.34
568.467	16.36
568.662	16.38
568.858	16.36
569.053	16.48
569.248	16.59
569.444	16.61
569.639	16.7
569.835	16.84
570.03	16.9
570.225	16.97
570.421	16.9
570.616	16.98
570.812	17.04
571.007	16.97
571.202	16.95
571.397	16.97
571.593	16.99
571.788	17.01
571.983	17.06
572.178	17.09
572.374	17
572.569	17.1
572.764	17.1
572.959	17.14
573.154	17.26
573.35	17.34
573.545	17.34
573.74	17.38
573.935	17.36
574.13	17.4
574.325	17.56
574.52	17.64
574.715	17.67
574.91	17.68
575.105	17.74
575.3	17.7
575.495	17.77
575.69	17.79
575.885	17.87
576.08	17.97
576.275	18
576.47	17.87
576.665	17.89
576.86	17.98
577.055	17.9
577.25	17.97
577.444	17.99
577.639	17.97
577.834	18.06
578.029	18.04
578.224	18.09
578.418	18.19
578.613	18.26
578.808	18.27
579.003	18.27
579.197	18.55
579.392	18.65
579.587	18.78
579.781	18.76
579.976	18.77
580.171	18.94
580.365	18.88
580.56	18.82
580.755	19
580.949	19.16
581.144	19.14
581.338	19.13
581.533	19.12
581.727	19.22
581.922	19.41
582.116	19.44
582.311	19.42
582.505	19.34
582.7	19.31
582.894	19.27
583.089	19.26
583.283	19.32
583.478	19.28
583.672	19.2
583.866	19.26
584.061	19.24
584.255	19.21
584.449	19.16
584.644	19.38
584.838	19.48
585.032	19.36
585.226	19.36
585.421	19.48
585.615	19.64
585.809	19.57
586.003	19.5
586.198	19.58
586.392	19.59
586.586	19.59
586.78	19.55
586.974	19.55
587.168	19.52
587.363	19.65
587.557	19.73
587.751	19.61
587.945	19.68
588.139	19.84
588.333	19.92
588.527	20.08
588.721	20.24
588.915	20.26
589.109	20.37
589.303	20.5
589.497	20.52
589.691	20.43
589.885	20.6
590.079	20.64
590.273	20.45
590.466	20.43
590.66	20.34
590.854	20.2
591.048	20.28
591.242	20.28
591.436	20.49
591.629	20.43
591.823	20.52
592.017	20.58
592.211	20.71
592.404	20.79
592.598	20.73
592.792	20.76
592.986	20.93
593.179	21
593.373	21.05
593.567	21
593.76	20.93
593.954	20.93
594.147	20.8
594.341	20.8
594.535	20.84
594.728	20.79
594.922	20.85
595.115	20.91
595.309	20.92
595.502	20.87
595.696	20.99
595.889	21.09
596.083	20.92
596.276	21.03
596.47	21.17
596.663	21.31
596.856	21.46
597.05	21.41
597.243	21.27
597.437	21.22
597.63	21.28
597.823	21.17
598.017	21.15
598.21	21.3
598.403	21.24
598.596	21.12
598.79	20.9
598.983	20.82
599.176	20.99
599.369	21.17
599.563	21.2
599.756	21.32
599.949	21.4
600.142	21.58
600.335	21.74
600.528	21.8
600.722	21.77
600.915	21.9
601.108	21.85
601.301	21.84
601.494	21.86
601.687	21.89
601.88	21.79
602.073	21.8
602.266	21.78
602.459	21.81
602.652	21.9
602.845	21.98
603.038	22.08
603.231	22.24
603.424	22.24
603.617	22.16
603.809	22.15
604.002	22.15
604.195	22.17
604.388	22.2
604.581	22.15
604.774	22.12
604.966	22.08
605.159	22
605.352	21.86
605.545	21.82
605.737	21.9
605.93	21.89
606.123	22.02
606.316	21.98
606.508	21.89
606.701	21.79
606.894	21.69
607.086	21.77
607.279	21.88
607.471	22.01
607.664	22
607.857	22
608.049	22.16
608.242	22.18
608.434	22.21
608.627	22.33
608.819	22.36
609.012	22.52
609.204	22.49
609.397	22.44
609.589	22.38
609.782	22.45
609.974	22.54
610.166	22.52
610.359	22.43
610.551	22.53
610.743	22.49
610.936	22.66
611.128	22.64
611.32	22.82
611.513	22.87
611.705	22.9
611.897	22.92
612.09	22.84
612.282	22.84
612.474	23.05
612.666	23.13
612.858	23.09
613.051	23.2
613.243	23.19
613.435	23.12
613.627	23.25
613.819	23.41
614.011	23.63
614.203	23.79
614.395	23.85
614.588	23.73
614.78	23.68
614.972	23.81
615.164	23.81
615.356	23.72
615.548	23.6
615.74	23.51
615.932	23.53
616.124	23.52
616.315	23.45
616.507	23.52
616.699	23.61
616.891	23.48
617.083	23.55
617.275	23.32
617.467	23.41
617.659	23.76
617.85	23.88
618.042	23.85
618.234	23.75
618.426	23.77
618.618	23.7
618.809	23.73
619.001	23.75
619.193	23.63
619.384	23.82
619.576	23.82
619.768	23.65
619.959	23.76
620.151	23.64
620.343	23.64
620.534	23.75
620.726	23.55
620.917	23.58
621.109	23.54
621.301	23.55
621.492	23.68
621.684	23.75
621.875	23.5
622.067	23.21
622.258	23.49
622.45	23.59
622.641	23.54
622.832	23.83
623.024	23.82
623.215	23.85
623.407	23.79
623.598	23.68
623.789	23.65
623.981	24.01
624.172	24.25
624.363	24.14
624.555	24.12
624.746	24.37
624.937	24.31
625.129	24.29
625.32	24.37
625.511	24.49
625.702	24.45
625.893	24.5
626.085	24.45
626.276	24.39
626.467	24.42
626.658	24.43
626.849	24.18
627.04	24.34
627.231	24.41
627.422	24.31
627.614	24.36
627.805	24.39
627.996	24.46
628.187	24.63
628.378	24.38
628.569	24.39
628.76	24.39
628.951	24.37
629.142	24.12
629.332	24.13
629.523	24.3
629.714	24.31
629.905	24.43
630.096	24.39
630.287	24.04
630.478	24.43
630.669	24.53
630.859	24.47
631.05	24.56
631.241	24.69
631.432	24.66
631.623	24.73
631.813	24.56
632.004	24.53
632.195	24.67
632.385	24.88
632.576	24.73
632.767	24.71
632.957	24.85
633.148	24.89
633.339	24.85
633.529	24.92
633.72	24.97
633.91	25.14
634.101	25.14
634.292	25.04
634.482	25.07
634.673	25.11
634.863	25.05
635.054	25
635.244	25.06
635.435	25.24
635.625	25.25
635.815	25.08
636.006	24.94
636.196	25.05
636.387	25.06
636.577	24.98
636.767	24.95
636.958	24.97
637.148	24.92
637.338	24.68
637.529	24.74
637.719	24.7
637.909	24.92
638.099	25.22
638.29	25.09
638.48	25.13
638.67	25.15
638.86	25.4
639.05	25.53
639.241	25.58
639.431	25.67
639.621	25.63
639.811	25.68
640.001	25.72
640.191	25.63
640.381	25.7
640.571	25.81
640.761	25.87
640.951	25.72
641.141	25.59
641.331	25.74
641.521	25.9
641.711	25.72
641.901	25.89
642.091	25.82
642.281	25.73
642.471	25.87
642.661	25.65
642.851	25.76
643.041	25.75
643.231	25.64
643.42	25.44
643.61	25.38
643.8	25.51
643.99	25.2
644.18	25.2
644.369	25.34
644.559	25.27
644.749	25.28
644.939	24.98
645.128	25.3
645.318	25.13
645.508	25.13
645.697	25.11
645.887	25.13
646.076	25.42
646.266	25.28
646.456	25.26
646.645	25.25
646.835	25.43
647.024	25.53
647.214	25.17
647.403	25.65
647.593	25.83
647.782	25.84
647.972	25.87
648.161	25.78
648.351	25.68
648.54	25.64
648.73	25.61
648.919	25.48
649.108	25.63
649.298	25.49
649.487	25.36
649.677	25.44
649.866	25.48
650.055	25.5
650.244	25.57
650.434	25.82
650.623	25.86
650.812	25.84
651.002	25.95
651.191	25.95
651.38	26.18
651.569	26.17
651.758	26.25
651.947	26.43
652.137	26.4
652.326	26.33
652.515	26.21
652.704	26.37
652.893	26.44
653.082	26.52
653.271	26.6
653.46	26.84
653.649	26.73
653.838	26.59
654.027	26.68
654.216	26.69
654.405	26.55
654.594	26.67
654.783	26.61
654.972	26.38
655.161	26.2
655.35	26.35
655.539	26.23
655.728	26.54
655.916	26.53
656.105	26.21
656.294	26.15
656.483	26.47
656.672	26.56
656.86	26.49
657.049	26.6
657.238	26.75
657.427	26.55
657.615	26.51
657.804	26.35
657.993	26.45
658.181	26.64
658.37	26.66
658.559	26.51
658.747	26.53
658.936	26.62
659.125	26.61
659.313	26.58
659.502	26.48
659.69	26.49
659.879	26.56
660.067	26.6
660.256	26.64
660.444	26.68
660.633	26.76
660.821	26.53
661.01	26.51
661.198	26.57
661.387	26.57
661.575	26.76
661.763	26.7
661.952	26.89
662.14	27
662.328	27.01
662.517	26.97
662.705	26.92
662.893	26.97
663.082	27.12
663.27	27.16
663.458	27.23
663.646	27.11
663.834	27.17
664.023	26.95
664.211	26.71
664.399	26.46
664.587	26.42
664.775	26.57
664.963	26.73
665.152	26.6
665.34	26.5
665.528	26.42
665.716	26.49
665.904	26.59
666.092	26.64
666.28	26.55
666.468	26.81
666.656	27.04
666.844	27.09
667.032	26.93
667.22	26.82
667.408	27.06
667.596	26.98
667.784	26.85
667.971	26.96
668.159	27.06
668.347	27.22
668.535	27.28
668.723	27.15
668.911	27.34
669.098	27.48
669.286	27.46
669.474	27.5
669.662	27.53
669.849	27.9
670.037	27.88
670.225	27.87
670.413	27.77
670.6	27.92
670.788	27.97
670.976	27.58
671.163	27.59
671.351	28.03
671.538	28.15
671.726	28.36
671.913	28.33
672.101	28.19
672.289	28.14
672.476	28.18
672.664	27.99
672.851	27.97
673.039	27.99
673.226	28.07
673.413	27.78
673.601	27.72
673.788	27.68
673.976	27.52
674.163	27.49
674.35	27.39
674.538	27.68
674.725	27.45
674.912	27.47
675.1	27.5
675.287	27.61
675.474	27.54
675.662	27.34
675.849	27.34
676.036	27.69
676.223	28
676.411	28.22
676.598	27.91
676.785	28.23
676.972	28.28
677.159	28.6
677.346	28.35
677.533	28.45
677.721	28.46
677.908	28.58
678.095	28.25
678.282	28.4
678.469	28.22
678.656	28.26
678.843	28.32
679.03	28.4
679.217	28.29
679.404	28.66
679.591	28.64
679.778	28.71
679.964	28.64
680.151	28.72
680.338	28.43
680.525	28.46
680.712	28.51
680.899	28.34
681.086	28.1
681.272	27.99
681.459	27.61
681.646	27.37
681.833	27.62
682.02	27.58
682.206	27.59
682.393	27.71
682.58	27.91
682.766	27.92
682.953	27.81
683.14	27.96
683.326	28.2
683.513	28.22
683.7	28.62
683.886	28.36
684.073	28.53
684.259	28.77
684.446	28.67
684.632	28.83
684.819	28.83
685.005	29.16
685.192	29.24
685.378	29.07
685.565	29.21
685.751	29.17
685.938	29.27
686.124	29.16
686.31	29.09
686.497	29.24
686.683	29.08
686.87	28.97
687.056	28.77
687.242	28.62
687.429	28.59
687.615	28.41
687.801	28.29
687.987	28.4
688.174	28.47
688.36	28.37
688.546	28.4
688.732	28.28
688.918	28.52
689.105	28.56
689.291	28.86
689.477	28.91
689.663	29.09
689.849	28.97
690.035	28.93
690.221	28.72
690.407	28.59
690.593	28.29
690.779	28.37
690.965	28.2
691.151	27.99
691.337	27.78
691.523	27.81
691.709	27.75
691.895	28.1
692.081	28.06
692.267	28.36
692.453	28.31
692.639	28.51
692.825	28.24
693.011	28.43
693.196	28.7
693.382	28.83
693.568	28.93
693.754	28.83
693.94	28.64
694.125	28.79
694.311	28.34
694.497	28.58
694.682	28.41
694.868	28.49
695.054	28.29
695.239	28.33
695.425	28.3
695.611	27.91
695.796	28.27
695.982	28.2
696.168	28.13
696.353	28.51
696.539	28.44
696.724	28.62
696.91	28.75
697.095	28.82
697.281	28.89
697.466	28.84
697.652	28.97
697.837	28.86
698.023	29.14
698.208	28.94
698.393	28.58
698.579	28.65
698.764	28.53
698.949	28.52
699.135	28.49
699.32	28.23
699.505	28.22
699.691	28.41
699.876	28.28
700.061	28.33
700.246	28.2
700.432	28.71
700.617	28.89
700.802	28.69
700.987	28.84
701.172	29.08
701.358	29.07
701.543	29.17
701.728	29.08
701.913	29.23
702.098	28.81
702.283	28.92
702.468	28.6
702.653	28.36
702.838	28.63
703.023	28.65
703.208	28.33
703.393	28.57
703.578	28.84
703.763	28.58
703.948	28.67
704.133	28.3
704.318	29.08
704.503	29.12
704.688	29.08
704.873	29.13
705.057	28.88
705.242	29.17
705.427	29.05
705.612	28.8
705.797	29.33
705.981	29.13
706.166	29.73
706.351	29.37
706.536	29.6
706.72	29.89
706.905	29.6
707.09	29.86
707.274	30.13
707.459	30.26
707.644	30.11
707.828	29.71
708.013	29.62
708.197	29.52
708.382	29.57
708.567	29.71
708.751	29.69
708.936	30.11
709.12	29.9
709.305	29.61
709.489	29.79
709.673	30.05
709.858	29.88
710.042	30.15
710.227	30.07
710.411	29.43
710.596	28.97
710.78	28.55
710.964	28.42
711.149	28.28
711.333	28.02
711.517	27.9
711.702	27.73
711.886	28.18
712.07	28.31
712.254	28.51
712.438	29.12
712.623	29.39
712.807	29.57
712.991	29.6
713.175	29.9
713.359	30.28
713.544	30.11
713.728	30.26
713.912	30.05
714.096	29.86
714.28	29.25
714.464	29.18
714.648	29.55
714.832	29.41
715.016	29.61
715.2	29.66
715.384	29.7
715.568	29.7
715.752	29.83
715.936	30.06
716.12	29.85
716.304	30.58
716.488	30.68
716.671	30.02
716.855	30.92
717.039	30.38
717.223	30.2
717.407	29.95
717.59	30.03
717.774	29.92
717.958	29.83
718.142	30.4
718.325	29.84
718.509	29.67
718.693	30.04
718.877	29.33
719.06	30.09
719.244	30.36
719.428	30.46
719.611	30.75
719.795	30.5
719.978	29.76
720.162	29.55
720.345	29.93
720.529	29.93
720.713	30.04
720.896	29.9
721.08	29.62
721.263	29.56
721.446	29.74
721.63	29.83
721.813	29.94
721.997	30.32
722.18	30.55
722.364	30.42
722.547	30.56
722.73	30.63
722.914	30.85
723.097	30.71
723.28	30.68
723.464	30.77
723.647	30.37
723.83	30.15
724.013	30.57
724.197	30.06
724.38	30.33
724.563	30.45
724.746	30.09
724.929	29.4
725.112	29.65
725.296	29.49
725.479	29.63
725.662	29.77
725.845	29.92
726.028	29.73
726.211	29.72
726.394	29.75
726.577	29.79
726.76	30.06
726.943	30.3
727.126	30.11
727.309	30.05
727.492	29.68
727.675	29.89
727.858	30.21
728.041	30.28
728.224	30.33
728.407	30.31
728.589	29.92
728.772	29.99
728.955	30.05
729.138	29.92
729.321	30.25
729.503	30.39
729.686	29.71
729.869	29.37
730.052	29.31
730.234	29.31
730.417	29.1
730.6	29.19
730.782	28.9
730.965	28.77
731.148	29.26
731.33	29.18
731.513	28.74
731.695	29.14
731.878	29.4
732.061	29.46
732.243	29.55
732.426	29.51
732.608	29.41
732.791	29.56
732.973	29.85
733.156	29.4
733.338	29.05
733.52	29.09
733.703	28.83
733.885	28.67
734.068	28.58
734.25	28.34
734.432	28.61
734.615	28.65
734.797	28.11
734.979	28.02
735.162	28.81
735.344	29.37
735.526	29.43
735.708	29.66
735.891	29.89
736.073	30.13
736.255	30.55
736.437	30.29
736.619	30.64
736.802	30.91
736.984	31.36
737.166	30.71
737.348	30.69
737.53	31.18
737.712	31.88
737.894	31.32
738.076	31.21
738.258	30.97
738.44	30.67
738.622	30.58
738.804	30.4
738.986	30.25
739.168	29.9
739.35	29.66
739.532	29.92
739.714	29.11
739.896	29.09
740.078	28.67
740.259	28.9
740.441	28.03
740.623	27.69
740.805	28.58
740.987	28.56
741.168	29.36
741.35	28.93
741.532	28.81
741.714	28.87
741.895	28.84
742.077	28.95
742.259	28.64
742.44	30.09
742.622	30.47
742.804	29.42
742.985	29.21
743.167	28.68
743.348	28.88
743.53	28.23
743.711	28.14
743.893	28.37
744.075	28.24
744.256	28.35
744.438	28.04
744.619	27.11
744.8	27.35
744.982	27.13
745.163	26.93
745.345	27
745.526	26.74
745.707	26.43
745.889	26.47
746.07	26.73
746.252	26.73
746.433	26.47
746.614	27.3
746.795	27.76
746.977	28.13
747.158	28
747.339	27.9
747.52	27.9
747.702	28.87
747.883	28.84
748.064	29.35
748.245	30.26
748.426	30.85
748.607	30.69
748.788	30.52
748.97	30.43
749.151	30.94
749.332	31.25
749.513	31.58
749.694	31.8
749.875	32.11
750.056	31.5
750.237	30.44
750.418	30.12
750.599	29.49
750.78	29.12
750.96	28.91
751.141	28.91
751.322	28.43
751.503	28.41
751.684	27.04
751.865	26.81
752.046	26.58
752.226	26.96
752.407	27.24
752.588	27.44
752.769	28.14
752.949	28.48
753.13	27.7
753.311	28
753.492	28.34
753.672	29.01
753.853	29.38
754.034	28.8
754.214	28.6
754.395	28.11
754.575	28.93
754.756	28.49
754.937	27.46
755.117	28.36
755.298	29.29
755.478	29.36
755.659	29.98
755.839	29.87
756.02	31.26
756.2	31.43
756.381	32.24
756.561	32.26
756.741	32.2
756.922	32.64
757.102	32.42
757.283	32.29
757.463	32.13
757.643	31.78
757.823	31.44
758.004	31.03
758.184	31.63
758.364	31.45
758.545	31.66
758.725	32.01
758.905	32.97
759.085	33.25
759.265	32.25
759.446	32.06
759.626	31.78
759.806	32.3
759.986	32.28
760.166	31.38
760.346	31.28
760.526	30.94
760.706	30.47
760.886	30.41
761.066	29.88
761.246	30.27
761.426	30.51
761.606	30.77
761.786	30.26
761.966	30.57
762.146	30.98
762.326	30.7
762.506	30.75
762.686	31.12
762.866	30.6
763.046	30.88
763.225	30.49
763.405	30.48
763.585	29.97
763.765	29.96
763.945	29.91
764.124	29.57
764.304	29.65
764.484	29.21
764.664	29.36
764.843	29.42
765.023	28.84
765.203	29.39
765.382	29.38
765.562	29.64
765.741	30.22
765.921	30.45
766.101	30.25
766.28	29.78
766.46	30.27
766.639	30.27
766.819	30.28
766.998	30.81
767.178	30.62
767.357	30.5
767.537	31.25
767.716	30.41
767.896	29.77
768.075	29.75
768.254	30.41
768.434	30.7
768.613	29.6
768.792	30.08
768.972	29.34
769.151	29.35
769.33	29.53
769.51	29.49
769.689	30.23
769.868	30.51
770.047	31.48
770.226	32.19
770.406	31.7
770.585	31.52
770.764	31.13
770.943	31.99
771.122	31.73
771.301	30.89
771.48	30.38
771.66	30.12
771.839	30.01
772.018	29.28
772.197	28.27
772.376	29.1
772.555	29.91
772.734	30.4
772.913	30.55
773.092	31.04
773.271	31.71
773.449	31.67
773.628	30.82
773.807	31.15
773.986	31.45
774.165	31.5
774.344	30.75
774.523	30.39
774.701	30.11
774.88	30.99
775.059	29.92
775.238	29.58
775.417	28.85
775.595	30.06
775.774	29.63
775.953	29.16
776.131	29.35
776.31	30.07
776.489	30.7
776.667	30.46
776.846	29.51
777.025	30.37
777.203	31.05
777.382	31.65
777.56	31.3
777.739	31.38
777.917	31.63
778.096	31.36
778.274	31.17
778.453	31.01
778.631	30.33
778.81	30.11
778.988	30.45
779.166	30.27
779.345	30.67
779.523	30.27
779.702	31.02
779.88	31.34
780.058	32.06
780.237	31.64
780.415	31.46
780.593	31.92
780.771	32.21
780.95	31.59
781.128	31.26
781.306	30.91
781.484	31.57
781.662	31.22
781.841	31.9
782.019	30.86
782.197	30.81
782.375	30.38
782.553	30.89
782.731	30.37
782.909	30.63
783.087	30.39
783.265	31.1
783.443	30.41
783.621	28.43
783.799	27.79
783.977	28.47
784.155	28.91
784.333	29.22
784.511	29.06
784.689	29.48
784.867	29.75
785.045	29.38
785.223	28.92
785.4	28.83
785.578	29.81
785.756	29.43
785.934	29.61
786.112	30.36
786.289	30.6
786.467	31
786.645	31.3
786.823	30.25
787	30.95
787.178	30.66
787.356	31.61
787.533	32.66
787.711	33.14
787.889	33.23
788.066	32.84
788.244	32.41
788.421	32.01
788.599	32.04
788.776	33.06
788.954	33.21
789.131	34.21
789.309	33.73
789.486	32.95
789.664	32.09
789.841	31.61
790.019	30.87
790.196	31.63
790.373	31.58
790.551	31.36
790.728	31.02
790.906	30.8
791.083	29.27
791.26	28.71
791.437	29
791.615	29.16
791.792	28.28
791.969	27.98
792.146	27.31
792.324	27.61
792.501	27.85
792.678	27.57
792.855	27.39
793.032	28.34
793.209	28.03
793.387	28.21
793.564	28.99
793.741	30.92
793.918	30.81
794.095	31.51
794.272	30.53
794.449	30.6
794.626	31.56
794.803	31.61
794.98	31.43
795.157	32.11
795.334	31.88
795.511	31.64
795.688	30.7
795.864	32.02
796.041	31.35
796.218	32.13
796.395	31.5
796.572	30.61
796.749	30.01
796.925	30.17
797.102	30.03
797.279	29.76
797.456	29.56
797.632	29.34
797.809	29.26
797.986	29.68
798.162	30.1
798.339	29.93
798.516	30.01
798.692	29.88
798.869	28.89
799.046	27.98
799.222	27.23
799.399	27.59
799.575	28.17
799.752	27.16
799.928	26.88
800.105	25.23
800.281	25.54
800.458	26.05
800.634	26.7
800.811	28.13
800.987	29.69
801.163	30.23
801.34	30.14
801.516	29.76
801.692	30.11
801.869	29.65
802.045	30.84
802.221	30.45
802.398	30.03
802.574	30.95
802.75	31.5
802.926	31.12
803.103	31.54
803.279	31.82
803.455	32.83
803.631	32.34
803.807	32.66
803.983	32.76
804.16	33.17
804.336	33.24
804.512	33.16
804.688	31.13
804.864	31.27
805.04	32.08
805.216	31.93
805.392	30.58
805.568	31.79
805.744	31.43
805.92	31.1
806.096	31.05
806.272	30.66
806.448	30.36
806.623	30.88
806.799	30.7
806.975	28.74
807.151	28.41
807.327	28.28
807.503	26.88
807.678	27.15
807.854	27.19
808.03	26.79
808.206	27.3
808.381	27.99
808.557	29.44
808.733	28.58
808.908	30.84
809.084	30.9
809.26	30.87
809.435	31.11
809.611	31.63
809.787	31.15
809.962	31.36
810.138	30.5
810.313	28.87
810.489	27.19
810.664	28.94
810.84	27.09
811.015	26.78
811.191	28.18
811.366	28.31
811.542	28.57
811.717	28.6
811.892	28.42
812.068	29.77
812.243	30.81
812.419	31.19
812.594	29.4
812.769	29.3
812.944	28.56
813.12	27.8
813.295	28.05
813.47	27.44
813.645	29.71
813.821	30.55
813.996	29.54
814.171	28.8
814.346	27.83
814.521	29.44
814.697	30.18
814.872	30.67
815.047	29.9
815.222	30.53
815.397	30.37
815.572	28.37
815.747	27.67
815.922	27.53
816.097	26.66
816.272	29.97
816.447	29.18
816.622	29.82
816.797	30.06
816.972	29.82
817.147	28.26
817.322	28.14
817.496	26.81
817.671	27.7
817.846	28.28
818.021	30.2
818.196	28.01
818.371	29.15
818.545	28.9
818.72	30.13
818.895	31.19
819.069	31.68
819.244	31.48
819.419	32.54
819.594	31.96
819.768	31.69
819.943	31.29
820.117	30.78
820.292	30.09
820.467	29.77
820.641	29.22
820.816	29.57
820.99	29.81
821.165	29.97
821.339	30.09
821.514	30.06
821.688	30.22
821.863	30.17
822.037	30.34
822.212	30.41
822.386	30.61
822.56	30.42
822.735	30.09
822.909	30.03
823.084	29.94
823.258	29.77
823.432	30.1
823.606	30.05
823.781	29.94
823.955	29.67
824.129	29.78
824.303	29.59
824.478	30.35
824.652	30.55
824.826	30.63
825	30.76
825.174	31.29
825.348	30.82
825.523	31.14
825.697	31.46
825.871	31.89
826.045	31.35
826.219	31.44
826.393	30.57
826.567	30.25
826.741	30.15
826.915	29.96
827.089	29.66
827.263	29.92
827.437	29.45
827.611	29.02
827.784	28.7
827.958	29.44
828.132	29.32
828.306	30.01
828.48	30.41
828.654	30.69
828.827	30.84
829.001	31.16
829.175	30.49
829.349	30.35
829.522	30.37
829.696	30.98
829.87	30.54
830.044	30.6
830.217	29.77
830.391	28.75
830.565	28.59
830.738	28.13
830.912	27.2
831.085	27.81
831.259	29.54
831.432	30.49
831.606	29.81
831.779	29.71
831.953	28.84
832.126	29.29
832.3	30.38
832.473	30.57
832.647	30.56
832.82	31.14
832.994	30.59
833.167	30.12
833.34	29.9
833.514	30
833.687	30.11
833.86	30.71
834.034	30.54
834.207	30.34
834.38	29.93
834.553	30.11
834.727	29.73
834.9	29.29
835.073	28.92
835.246	29.06
835.419	29.24
835.593	28.53
835.766	28.36
835.939	28.55
836.112	28.18
836.285	27.44
836.458	26.98
836.631	26.6
836.804	27.75
836.977	26.35
837.15	26.2
837.323	24.48
837.496	24.98
837.669	24.02
837.842	23.35
838.015	23.29
838.188	24.62
838.361	24.73
838.533	27.79
838.706	29.06
838.879	30.97
839.052	30.04
839.225	32.26
839.398	32.37
839.57	33.5
839.743	33.84
839.916	34.86
840.088	34.35
840.261	34.15
840.434	30.02
840.607	30.96
840.779	31.14
840.952	32.08
841.124	32.95
841.297	30.96
841.47	30.98
841.642	30.25
841.815	29.6
841.987	28.43
842.16	27.91
842.332	29.51
842.505	27.38
842.677	28.23
842.85	24.98
843.022	23.34
843.194	25.47
843.367	22.6
843.539	25.29
843.712	26.89
843.884	26.23
844.056	28.12
844.229	31.09
844.401	28.37
844.573	25.88
844.745	28.89
844.918	27.57
845.09	27
845.262	30.21
845.434	26.92
845.606	23.86
845.779	28.11
845.951	30.73
846.123	28.44
846.295	31.9
846.467	30.54
846.639	30.85
846.811	30.19
846.983	32.31
847.155	32
847.327	29.67
847.499	34.47
847.671	33.58
847.843	30.13
848.015	24.67
848.187	24.19
848.359	24.87
848.531	26.37
848.703	26.32
848.875	27.54
849.047	26.54
849.218	31.14
849.39	27.79
849.562	28.63
849.734	32.44
849.905	40.61
850.077	42.61
850.249	44
850.421	39.57
850.592	41.54
850.764	42.6
850.936	44.95
851.107	44.46
851.279	46.28
851.451	44.93
851.622	42
851.794	36.71
851.965	34.97
852.137	33.26
852.308	32.42
852.48	31.25
852.651	25.9
852.823	22.29
852.994	22.9
853.166	23.69
853.337	23.25
853.509	25.38
853.68	25.99
853.851	27.06
854.023	26.45
854.194	30.29
854.365	29.24
854.537	32.28
854.708	31.98
854.879	32.49
855.05	31.01
855.222	25.13
855.393	23.17
855.564	23.8
855.735	22.77
855.906	22.07
856.078	20.96
856.249	25.22
856.42	21.26
856.591	26.88
856.762	22.15
856.933	22.16
857.104	23.91
857.275	23.19
857.446	22.56
857.617	21.58
857.788	25.88
857.959	26.59
858.13	23.7
858.301	28.7
858.472	26.68
858.643	22.77
858.814	21.29
858.985	21.96
859.155	21.7
859.326	29.85
859.497	26.3
859.668	22.91
859.839	21.51
860.009	19.31
860.18	19.02
860.351	15.83
860.522	23.5
860.692	22.33
860.863	19.6
861.034	15.71
861.204	10.09
861.375	12.02
861.546	10
861.716	13.52
861.887	17.31
862.057	16.43
862.228	15.43
862.398	15
862.569	13.81
862.739	15.1
862.91	22.53
863.08	22.35
863.251	26.26
863.421	28.38
863.592	24.18
863.762	20.38
863.932	17.07
864.103	18.96
864.273	20.22
864.443	23.94
864.614	27.86
864.784	21.93
864.954	21.79
865.125	18.14
865.295	17.46
865.465	19.21
865.635	24.06
865.805	27.99
865.976	24.69
866.146	22.28
866.316	18.69
866.486	16.87
866.656	16.33
866.826	15.97
866.996	18.11
867.166	22.84
867.336	19.33
867.506	16.58
867.676	13.77
867.846	10.54
868.016	9.31
868.186	14.41
868.356	15.59
868.526	15.88
868.696	19.51
868.866	18
869.036	18.45
869.206	27.14
869.376	36.36
869.545	41.05
869.715	43.3
869.885	44.38
870.055	44.11
870.224	48.97
870.394	50.56
870.564	48.19
870.734	43.88
870.903	38.51
871.073	31.12
871.243	24.25
871.412	20.8
871.582	25.61
871.751	28.28
871.921	26.2
872.091	21.56
872.26	21.86
872.43	21.66
872.599	27.12
872.769	30.21
872.938	33.46
873.108	29.96
873.277	29.3
873.446	29.34
873.616	26.4
873.785	24.61
873.955	27.29
874.124	28.43
874.293	29.45
874.463	27.59
874.632	29.57
874.801	28.55
874.971	33.64
875.14	24.59
875.309	23.55
875.478	27.54
875.647	31.83
875.817	32.59
875.986	28.53
876.155	27.49
876.324	22.76
876.493	17.96
876.662	21.19
876.831	22.22
877	28.88
877.17	30.29
877.339	25.81
877.508	21.43
877.677	20.57
877.846	25.06
878.015	23.9
878.184	28.06
878.352	29.91
878.521	29.28
878.69	30.4
878.859	30.97
879.028	30.15
879.197	29.58
879.366	31.78
879.534	29.55
879.703	28.69
879.872	31.26
880.041	30.47
880.21	31.7
880.378	31.92
880.547	30.91
880.716	31.22
880.884	30.76
881.053	31.71
881.222	30.81
881.39	32.11
881.559	31.3
881.727	31.43
881.896	31.45
882.065	30.96
882.233	30.27
882.402	30.78
882.57	30.67
882.739	30.74
882.907	30.03
883.076	30.82
883.244	29.71
883.412	30.29
883.581	29.45
883.749	29.96
883.918	30.06
884.086	30.05
884.254	28.38
884.423	28.23
884.591	28.24
884.759	29.43
884.927	28.26
885.096	29.61
885.264	29.93
885.432	29.78
885.6	28.01
885.769	27.67
885.937	27.52
886.105	27.12
886.273	25.86
886.441	24.91
886.609	23.74
886.777	24.15
886.945	21.79
887.113	19.81
887.281	19.56
887.449	21.31
887.617	19.68
887.785	21.66
887.953	26.14
888.121	26.91
888.289	29.52
888.457	31.23
888.625	30.88
888.793	29.66
888.961	29.25
889.129	32.29
889.296	33.66
889.464	36.64
889.632	32.62
889.8	33.5
889.967	35.64
890.135	30.27
