Data from 2938518_Reflection_1.txt Node
Date: Tue Jun 16 22:24:21 EDT 2015
User: robert
Spectrometer: USB4E03002
Autoset integration time: false
Trigger mode: 4
Integration Time (sec): 1.000000E-1
Scans to average: 10
Electric dark correction enabled: true
Nonlinearity correction enabled: false
Boxcar width: 5
Stray light correction enabled: false
XAxis mode: Wavelengths
Stop averaging: false
Number of Pixels in Spectrum: 3648
>>>>>Begin Spectral Data<<<<<
177.575	-147.2
177.794	-104.2
178.014	-38.88
178.233	-36.72
178.452	-51.77
178.672	-11.05
178.891	139.31
179.11	1752.89
179.33	4702.82
179.549	1108.85
179.768	360.6
179.987	492.21
180.207	438.01
180.426	158.56
180.645	131.82
180.864	139.35
181.084	101.01
181.303	88.17
181.522	82.21
181.741	79.17
181.96	86.56
182.179	114.62
182.398	102.05
182.618	99.37
182.837	100.25
183.056	89.29
183.275	97.11
183.494	96.45
183.713	88.79
183.932	97.8
184.151	80.3
184.37	78.97
184.589	71.7
184.808	69.28
185.027	73.24
185.246	91.92
185.465	106.96
185.684	125.49
185.903	131.85
186.122	133.19
186.341	132.71
186.56	191.73
186.779	254.39
186.998	248.98
187.216	297.71
187.435	475.79
187.654	525.37
187.873	737.2
188.092	888.67
188.311	-925.49
188.53	-536.4
188.748	-620.4
188.967	-10620.83
189.186	532.9
189.405	269.88
189.623	217.32
189.842	204.91
190.061	137.68
190.28	133.4
190.498	92.63
190.717	103.27
190.936	105.6
191.154	106.28
191.373	114.09
191.592	111.64
191.81	118.08
192.029	104.33
192.248	96.2
192.466	127.3
192.685	106.13
192.904	142.93
193.122	130.94
193.341	133.25
193.559	113.07
193.778	111.28
193.996	142.32
194.215	152.9
194.433	165.63
194.652	176
194.87	156.71
195.089	172.38
195.307	164.62
195.526	183.94
195.744	181.41
195.963	221.19
196.181	199.05
196.399	193.32
196.618	189.12
196.836	155.01
197.055	139.42
197.273	153.78
197.491	144.19
197.71	159.5
197.928	141
198.146	145.86
198.365	132.93
198.583	147.25
198.801	146.49
199.019	155.17
199.238	191.38
199.456	193.52
199.674	172.63
199.892	161.59
200.111	135.17
200.329	121.6
200.547	107.93
200.765	83.08
200.983	75.41
201.202	76.08
201.42	83.44
201.638	86.41
201.856	93.71
202.074	98.71
202.292	105.42
202.51	119.05
202.728	115.77
202.946	124.13
203.165	156.69
203.383	179.83
203.601	190.11
203.819	134.33
204.037	109.84
204.255	114.37
204.473	105.53
204.691	102.07
204.909	96.88
205.127	98.88
205.345	94.2
205.562	76.07
205.78	76.79
205.998	54.72
206.216	69.71
206.434	82.63
206.652	74.65
206.87	78.83
207.088	85.03
207.306	86.9
207.523	87.72
207.741	86.42
207.959	90.85
208.177	90.94
208.395	94.31
208.612	107.7
208.83	105.91
209.048	101.29
209.266	92.58
209.483	75.29
209.701	70.71
209.919	74.94
210.136	76.86
210.354	79.15
210.572	84.98
210.79	92
211.007	80.73
211.225	85.64
211.442	88.41
211.66	97.87
211.878	107.97
212.095	116.59
212.313	130.54
212.53	141.36
212.748	134.55
212.966	121.71
213.183	108.44
213.401	121.03
213.618	115.31
213.836	121.28
214.053	111.68
214.271	130.18
214.488	120.69
214.705	98.71
214.923	87.19
215.14	80.78
215.358	81.74
215.575	91.37
215.793	71.61
216.01	52.99
216.227	60.58
216.445	66.73
216.662	59.94
216.879	63.65
217.097	66.56
217.314	70.45
217.531	74.23
217.749	74.1
217.966	67.26
218.183	63.64
218.4	57.35
218.618	59.52
218.835	49.64
219.052	43.79
219.269	51.21
219.487	53.76
219.704	55.66
219.921	50.64
220.138	46.45
220.355	47.25
220.572	58.39
220.79	65.77
221.007	61.82
221.224	59.69
221.441	64.61
221.658	58.63
221.875	54.3
222.092	43.81
222.309	42.17
222.526	41.03
222.743	42.75
222.96	36.52
223.177	36.04
223.394	31.89
223.611	35.97
223.828	36.62
224.045	35.65
224.262	38.6
224.479	38.16
224.696	37.08
224.913	34.75
225.13	33.46
225.347	32.97
225.564	29.78
225.781	27.56
225.997	25.07
226.214	23.38
226.431	20.45
226.648	17.02
226.865	18.56
227.082	17.39
227.298	16.55
227.515	16.96
227.732	16.89
227.949	17.15
228.165	17.73
228.382	17.91
228.599	18.04
228.816	18.49
229.032	19.06
229.249	17.25
229.466	17.85
229.682	18.2
229.899	18.1
230.116	17.49
230.332	18.68
230.549	18.45
230.765	19.13
230.982	20.23
231.199	21.93
231.415	23.63
231.632	25.84
231.848	26.41
232.065	26.29
232.281	27.03
232.498	27.8
232.714	26.22
232.931	26.35
233.147	25.98
233.364	24.89
233.58	23.15
233.797	22.73
234.013	22.57
234.23	22.89
234.446	22.68
234.662	21.48
234.879	20.7
235.095	20.05
235.312	19.04
235.528	20.66
235.744	20.99
235.961	21.06
236.177	20.39
236.393	20.85
236.61	18.79
236.826	19.95
237.042	21.51
237.258	20.64
237.475	21.51
237.691	22.42
237.907	20.75
238.123	20.53
238.339	20.38
238.556	19.49
238.772	19.34
238.988	19.51
239.204	19.27
239.42	18.11
239.636	17.67
239.853	16.54
240.069	15.31
240.285	14.91
240.501	13.38
240.717	12.79
240.933	12.54
241.149	11.7
241.365	11.93
241.581	12.27
241.797	12
242.013	12.4
242.229	12.79
242.445	13.27
242.661	13.44
242.877	14.6
243.093	14.37
243.309	14.37
243.525	14.02
243.741	13.26
243.957	12.29
244.173	11.39
244.388	11.32
244.604	10.46
244.82	9.92
245.036	9.45
245.252	9.73
245.468	10.11
245.683	10.07
245.899	9.99
246.115	10.47
246.331	10.21
246.547	10.51
246.762	10.55
246.978	11.09
247.194	10.97
247.409	11.76
247.625	11.73
247.841	11.47
248.057	11.77
248.272	12.39
248.488	11.97
248.703	11.98
248.919	11.55
249.135	10.38
249.35	9.92
249.566	10.01
249.782	9.07
249.997	8.96
250.213	9.21
250.428	8.84
250.644	8.18
250.859	9.1
251.075	9.8
251.29	10.29
251.506	10.8
251.721	10.62
251.937	11.56
252.152	10.8
252.368	10.46
252.583	10.45
252.798	11.42
253.014	13.11
253.229	11.34
253.445	11.42
253.66	11.16
253.875	11.13
254.091	11.71
254.306	11.19
254.521	12.36
254.737	11.99
254.952	11.82
255.167	10.7
255.383	9.4
255.598	9
255.813	8.22
256.028	8.21
256.244	8.38
256.459	8.7
256.674	8.46
256.889	8
257.104	7.75
257.32	7.93
257.535	7.86
257.75	7.74
257.965	7.86
258.18	8.21
258.395	8.39
258.61	8.09
258.826	7.78
259.041	7.85
259.256	8.13
259.471	8.41
259.686	8.57
259.901	8.42
260.116	8.5
260.331	8.5
260.546	8.54
260.761	8.16
260.976	8.63
261.191	8.73
261.406	9
261.621	8.33
261.836	7.71
262.05	7.95
262.265	8.54
262.48	9.17
262.695	9.38
262.91	9.53
263.125	10.1
263.34	9.58
263.555	9.5
263.769	9.62
263.984	10.28
264.199	10.64
264.414	9.77
264.629	10.16
264.843	9.72
265.058	9.5
265.273	9.11
265.488	8.99
265.702	9.09
265.917	9.52
266.132	8.93
266.346	8.91
266.561	8.89
266.776	8.53
266.99	7.93
267.205	7.97
267.42	8.16
267.634	8.01
267.849	8.21
268.063	8.33
268.278	8.17
268.492	8.35
268.707	8.53
268.922	8.62
269.136	8.9
269.351	9.03
269.565	8.47
269.78	8.15
269.994	7.95
270.209	7.84
270.423	8.03
270.637	8.04
270.852	7.8
271.066	7.82
271.281	7.77
271.495	7.57
271.709	8.06
271.924	8.14
272.138	8.57
272.353	9.12
272.567	8.88
272.781	8.88
272.996	8.98
273.21	9.29
273.424	9.03
273.638	9.12
273.853	9.74
274.067	9.02
274.281	9.33
274.495	9.15
274.71	8.77
274.924	8.81
275.138	8.18
275.352	7.77
275.566	7.86
275.781	7.91
275.995	7.59
276.209	7.53
276.423	7.69
276.637	8.15
276.851	7.78
277.065	8.02
277.279	8.03
277.493	8.77
277.707	8.73
277.921	8.22
278.135	7.65
278.349	8.02
278.563	7.88
278.777	8.05
278.991	7.78
279.205	8.24
279.419	8.25
279.633	8.66
279.847	7.98
280.061	8.32
280.275	8.88
280.489	8.92
280.703	9.01
280.917	8.67
281.131	8.41
281.344	8.31
281.558	8
281.772	7.88
281.986	7.53
282.2	7.92
282.414	7.18
282.627	6.75
282.841	7.15
283.055	7.05
283.269	7.29
283.482	7.09
283.696	6.91
283.91	7.07
284.123	6.44
284.337	6.45
284.551	6.29
284.764	6.78
284.978	7.24
285.192	6.97
285.405	6.99
285.619	6.77
285.833	7
286.046	7.14
286.26	7.08
286.473	7.67
286.687	7.72
286.9	7.7
287.114	7.47
287.327	7.21
287.541	6.94
287.754	6.94
287.968	7.39
288.181	7.31
288.395	6.92
288.608	7.19
288.822	7.25
289.035	6.99
289.248	6.69
289.462	7.03
289.675	6.64
289.889	7.27
290.102	6.91
290.315	6.67
290.529	6.73
290.742	6.95
290.955	6.61
291.169	6.84
291.382	7.12
291.595	7.74
291.808	8.09
292.022	8.77
292.235	8.44
292.448	8.98
292.661	8.92
292.875	8.78
293.088	9.16
293.301	9.1
293.514	8.9
293.727	9.12
293.94	8.96
294.153	8.27
294.367	7.94
294.58	7.37
294.793	7.22
295.006	7.13
295.219	7.08
295.432	6.83
295.645	6.8
295.858	6.55
296.071	6.18
296.284	6.19
296.497	6.2
296.71	6.17
296.923	6.63
297.136	6.48
297.349	6.46
297.562	6.83
297.775	7.16
297.988	7.52
298.201	8.09
298.414	8.26
298.626	8.09
298.839	8.42
299.052	8.23
299.265	8.56
299.478	8.59
299.691	8.63
299.903	8.12
300.116	7.56
300.329	7.56
300.542	7.55
300.755	7.38
300.967	7.33
301.18	7.08
301.393	7.27
301.605	6.58
301.818	7.13
302.031	7.18
302.243	7.2
302.456	7.54
302.669	7.15
302.881	7.07
303.094	7.46
303.307	7.99
303.519	8.17
303.732	8.54
303.944	8.71
304.157	8.43
304.37	8.62
304.582	8.92
304.795	8.52
305.007	8.62
305.22	8.33
305.432	8.21
305.645	7.72
305.857	8.09
306.069	8.05
306.282	8.44
306.494	8.01
306.707	7.9
306.919	7.64
307.132	8.09
307.344	8.35
307.556	8.24
307.769	8.49
307.981	8.62
308.193	8.15
308.406	7.52
308.618	7.4
308.83	7.59
309.043	7.6
309.255	7.69
309.467	7.52
309.679	7.36
309.892	7.4
310.104	7.03
310.316	7.4
310.528	7.54
310.74	7.89
310.953	7.75
311.165	7.81
311.377	7.64
311.589	7.51
311.801	7.4
312.013	7.78
312.225	7.78
312.437	7.93
312.649	7.75
312.862	7.7
313.074	7.62
313.286	7.84
313.498	7.5
313.71	7.79
313.922	8.27
314.134	8.37
314.346	8.27
314.558	8.59
314.77	8.78
314.982	8.65
315.193	8.67
315.405	9.11
315.617	8.75
315.829	9.2
316.041	8.86
316.253	8.67
316.465	9.13
316.677	8.55
316.888	8.3
317.1	8.49
317.312	8.72
317.524	8.65
317.736	8.89
317.947	9.66
318.159	9.53
318.371	9.33
318.583	9.53
318.794	9.44
319.006	9.95
319.218	10.07
319.43	9.81
319.641	9.23
319.853	9.42
320.064	9.22
320.276	9.11
320.488	8.97
320.699	9.74
320.911	9.51
321.123	8.98
321.334	9.07
321.546	9.34
321.757	9.21
321.969	9.89
322.18	9.75
322.392	9.81
322.603	9.95
322.815	10.21
323.026	9.91
323.238	9.99
323.449	10.17
323.661	10.16
323.872	9.94
324.083	10.04
324.295	9.48
324.506	9.5
324.718	9.41
324.929	9.06
325.14	8.83
325.352	8.92
325.563	9.05
325.774	8.89
325.986	8.91
326.197	8.67
326.408	8.5
326.62	8.82
326.831	8.35
327.042	8.17
327.253	8.34
327.464	8.52
327.676	8.27
327.887	8.47
328.098	8.42
328.309	8.39
328.52	8.48
328.732	8.83
328.943	8.79
329.154	9.4
329.365	9.15
329.576	8.61
329.787	8.37
329.998	8.43
330.209	8.24
330.42	8.74
330.631	8.44
330.842	8.73
331.053	8.58
331.264	8.48
331.475	8.29
331.686	8.58
331.897	8.96
332.108	8.99
332.319	9.17
332.53	8.94
332.741	8.7
332.952	8.8
333.163	8.68
333.374	8.42
333.585	8.47
333.795	8.7
334.006	8.96
334.217	8.87
334.428	9.17
334.639	9.21
334.849	9.46
335.06	9.34
335.271	9.21
335.482	8.82
335.692	9.11
335.903	8.79
336.114	8.63
336.325	8.29
336.535	8.74
336.746	8.74
336.957	8.8
337.167	8.86
337.378	9.24
337.589	9.75
337.799	9.59
338.01	9.57
338.22	9.61
338.431	10.05
338.642	10.32
338.852	9.95
339.063	9.75
339.273	9.29
339.484	9.14
339.694	8.5
339.905	7.92
340.115	8.25
340.326	8.16
340.536	8.08
340.746	7.56
340.957	7.37
341.167	7.13
341.378	6.86
341.588	6.74
341.799	6.33
342.009	6.44
342.219	6.54
342.43	6.47
342.64	6.53
342.85	6.65
343.061	6.68
343.271	6.82
343.481	6.59
343.691	6.78
343.902	7.01
344.112	7.46
344.322	7.63
344.532	7.66
344.743	7.48
344.953	7.21
345.163	7.23
345.373	7.22
345.583	7.03
345.793	7.09
346.004	7.18
346.214	6.8
346.424	6.82
346.634	7.05
346.844	7.25
347.054	7.52
347.264	7.74
347.474	7.42
347.684	7.44
347.894	7.15
348.104	7.41
348.314	7.26
348.524	7.76
348.734	7.09
348.944	7.09
349.154	7.02
349.364	6.59
349.574	6.36
349.784	6.71
349.994	6.87
350.204	6.82
350.413	6.89
350.623	6.97
350.833	6.94
351.043	7.22
351.253	6.88
351.463	6.41
351.672	7.14
351.882	7.2
352.092	7.15
352.302	6.61
352.511	6.91
352.721	7.13
352.931	7.26
353.141	7.18
353.35	7.5
353.56	7.48
353.77	8.04
353.979	8.06
354.189	7.92
354.399	7.92
354.608	8.33
354.818	8.27
355.027	8.18
355.237	7.94
355.447	8.13
355.656	7.96
355.866	7.79
356.075	7.48
356.285	7.23
356.494	7.58
356.704	7.67
356.913	7.71
357.123	7.67
357.332	7.5
357.542	7.45
357.751	7.37
357.96	7.11
358.17	7.35
358.379	7.33
358.589	7.57
358.798	7.04
359.007	6.76
359.217	6.72
359.426	6.7
359.635	6.88
359.845	7.12
360.054	7.06
360.263	7.14
360.472	7.16
360.682	7.09
360.891	6.82
361.1	7.04
361.309	7.11
361.519	6.93
361.728	6.88
361.937	6.74
362.146	6.45
362.355	6.47
362.564	6.51
362.774	6.36
362.983	6.31
363.192	6.33
363.401	6.33
363.61	6.43
363.819	6.46
364.028	6.66
364.237	6.42
364.446	6.53
364.655	6.27
364.864	6.38
365.073	6.45
365.282	6.7
365.491	6.58
365.7	6.65
365.909	6.43
366.118	6.26
366.327	6.04
366.536	6.17
366.745	6.14
366.954	6.18
367.162	6.11
367.371	6.15
367.58	6.18
367.789	6.04
367.998	6.13
368.207	6.21
368.415	6.46
368.624	6.35
368.833	6.5
369.042	6.48
369.25	6.62
369.459	6.7
369.668	6.39
369.877	5.92
370.085	6.11
370.294	5.81
370.503	5.81
370.711	5.86
370.92	5.78
371.129	5.65
371.337	5.59
371.546	5.5
371.754	5.34
371.963	5.41
372.171	5.71
372.38	5.58
372.589	5.79
372.797	5.64
373.006	5.55
373.214	5.87
373.423	5.89
373.631	5.8
373.84	5.9
374.048	5.72
374.256	5.61
374.465	5.83
374.673	5.87
374.882	5.84
375.09	5.93
375.298	6.04
375.507	5.78
375.715	5.73
375.923	5.97
376.132	5.78
376.34	5.81
376.548	6.05
376.757	5.74
376.965	5.81
377.173	5.88
377.381	5.91
377.59	5.66
377.798	5.71
378.006	5.75
378.214	5.61
378.423	5.64
378.631	5.63
378.839	5.7
379.047	5.76
379.255	5.79
379.463	5.69
379.671	5.38
379.879	5.4
380.088	5.46
380.296	5.31
380.504	5.3
380.712	5.37
380.92	5.21
381.128	4.97
381.336	4.88
381.544	4.57
381.752	4.34
381.96	4.75
382.168	4.72
382.376	4.82
382.584	5.05
382.791	4.77
382.999	4.81
383.207	4.98
383.415	5.17
383.623	5.06
383.831	5.28
384.039	5.4
384.247	5.06
384.454	4.95
384.662	4.84
384.87	4.68
385.078	5
385.285	4.71
385.493	4.49
385.701	4.34
385.909	4.26
386.116	4.13
386.324	4.16
386.532	4.42
386.739	4.51
386.947	4.49
387.155	4.44
387.362	4.24
387.57	4.34
387.778	4.4
387.985	4.44
388.193	4.53
388.4	4.32
388.608	4.39
388.816	4.08
389.023	4.12
389.231	3.92
389.438	4.1
389.646	4.3
389.853	4.43
390.061	4.42
390.268	4.47
390.475	4.64
390.683	4.85
390.89	4.7
391.098	4.9
391.305	5.01
391.512	5.16
391.72	4.95
391.927	4.53
392.135	4.33
392.342	4.3
392.549	4.24
392.756	3.9
392.964	3.66
393.171	3.78
393.378	3.72
393.586	3.68
393.793	3.66
394	3.81
394.207	4.17
394.414	4.3
394.622	4.55
394.829	4.65
395.036	5.09
395.243	5.3
395.45	5.07
395.657	5.04
395.864	4.91
396.072	5.09
396.279	5.01
396.486	4.96
396.693	4.84
396.9	4.76
397.107	4.58
397.314	4.37
397.521	4.39
397.728	4.67
397.935	4.8
398.142	4.78
398.349	4.59
398.556	4.5
398.763	4.44
398.97	4.5
399.177	4.27
399.383	4.2
399.59	3.99
399.797	4
400.004	3.76
400.211	3.7
400.418	3.55
400.625	3.57
400.831	3.59
401.038	3.52
401.245	3.53
401.452	3.66
401.658	3.83
401.865	3.98
402.072	3.97
402.279	4.07
402.485	3.93
402.692	4.12
402.899	4.02
403.105	3.93
403.312	3.93
403.519	3.86
403.725	3.81
403.932	3.76
404.138	3.88
404.345	3.63
404.552	3.49
404.758	3.57
404.965	3.41
405.171	3.43
405.378	3.52
405.584	3.61
405.791	3.57
405.997	3.64
406.204	3.61
406.41	3.61
406.617	3.89
406.823	3.87
407.029	3.88
407.236	4.09
407.442	4.08
407.649	4.13
407.855	3.98
408.061	4.02
408.268	3.76
408.474	3.65
408.68	3.53
408.887	3.38
409.093	3.51
409.299	3.5
409.505	3.24
409.712	3.18
409.918	3.09
410.124	3.14
410.33	3.15
410.537	3.32
410.743	3.41
410.949	3.34
411.155	3.5
411.361	3.41
411.567	3.31
411.773	3.36
411.98	3.5
412.186	3.49
412.392	3.44
412.598	3.31
412.804	3.14
413.01	3.08
413.216	3.06
413.422	3.11
413.628	3.15
413.834	3.07
414.04	3.12
414.246	3
414.452	2.85
414.658	2.98
414.864	3.05
415.07	3.14
415.275	3.21
415.481	3.15
415.687	3.07
415.893	3.03
416.099	3.13
416.305	3.03
416.511	2.98
416.716	3.09
416.922	3.08
417.128	3.13
417.334	3.12
417.539	2.9
417.745	2.87
417.951	2.83
418.157	2.82
418.362	2.81
418.568	2.81
418.774	2.82
418.979	2.76
419.185	2.64
419.391	2.53
419.596	2.52
419.802	2.56
420.008	2.52
420.213	2.41
420.419	2.42
420.624	2.38
420.83	2.34
421.035	2.37
421.241	2.39
421.446	2.33
421.652	2.37
421.857	2.34
422.063	2.37
422.268	2.38
422.474	2.47
422.679	2.45
422.885	2.41
423.09	2.36
423.295	2.34
423.501	2.32
423.706	2.38
423.911	2.36
424.117	2.39
424.322	2.43
424.527	2.51
424.733	2.41
424.938	2.39
425.143	2.43
425.349	2.58
425.554	2.48
425.759	2.44
425.964	2.39
426.169	2.43
426.375	2.4
426.58	2.39
426.785	2.37
426.99	2.51
427.195	2.56
427.4	2.61
427.605	2.67
427.811	2.8
428.016	2.84
428.221	2.91
428.426	2.83
428.631	2.77
428.836	2.79
429.041	2.78
429.246	2.76
429.451	2.6
429.656	2.4
429.861	2.33
430.066	2.36
430.271	2.34
430.476	2.41
430.681	2.45
430.886	2.59
431.09	2.61
431.295	2.56
431.5	2.52
431.705	2.55
431.91	2.65
432.115	2.63
432.32	2.57
432.524	2.55
432.729	2.49
432.934	2.49
433.139	2.38
433.343	2.34
433.548	2.38
433.753	2.39
433.958	2.36
434.162	2.38
434.367	2.43
434.572	2.48
434.776	2.36
434.981	2.5
435.186	2.48
435.39	2.51
435.595	2.57
435.799	2.57
436.004	2.53
436.209	2.57
436.413	2.43
436.618	2.4
436.822	2.36
437.027	2.5
437.231	2.32
437.436	2.28
437.64	2.23
437.845	2.14
438.049	2.08
438.253	2.11
438.458	2.1
438.662	2.14
438.867	2.16
439.071	2.11
439.275	2.08
439.48	2.17
439.684	2.11
439.888	2.18
440.093	2.07
440.297	2.09
440.501	2.13
440.706	2.21
440.91	2.34
441.114	2.28
441.318	2.33
441.523	2.39
441.727	2.33
441.931	2.47
442.135	2.5
442.339	2.59
442.543	2.56
442.748	2.44
442.952	2.36
443.156	2.18
443.36	2.22
443.564	2.2
443.768	2.1
443.972	2.16
444.176	2.17
444.38	2.13
444.584	2.08
444.788	2.11
444.992	2.13
445.196	2.11
445.4	2.12
445.604	2.08
445.808	2.13
446.012	2.13
446.216	2.03
446.42	2.01
446.624	1.96
446.828	2.09
447.032	2.02
447.235	2.06
447.439	2.08
447.643	2.13
447.847	2.19
448.051	2.16
448.254	2.19
448.458	2.18
448.662	2.11
448.866	2.14
449.069	2.12
449.273	2.21
449.477	2.1
449.681	2.04
449.884	2.09
450.088	1.94
450.292	1.98
450.495	2.04
450.699	2.11
450.902	2.15
451.106	2.08
451.31	1.99
451.513	2.04
451.717	2.14
451.92	2.2
452.124	2.19
452.327	2.32
452.531	2.31
452.734	2.28
452.938	2.31
453.141	2.38
453.345	2.4
453.548	2.39
453.752	2.36
453.955	2.33
454.158	2.25
454.362	2.1
454.565	2.2
454.769	2.21
454.972	2.18
455.175	2.21
455.379	2.22
455.582	2.23
455.785	2.29
455.988	2.23
456.192	2.23
456.395	2.24
456.598	2.39
456.801	2.2
457.005	2.17
457.208	2.16
457.411	2.12
457.614	1.95
457.817	2.02
458.021	2
458.224	2.02
458.427	1.91
458.63	1.98
458.833	1.97
459.036	1.98
459.239	1.97
459.442	2.02
459.645	2.03
459.848	2.11
460.051	2
460.254	2.02
460.457	2.03
460.66	2.15
460.863	2.14
461.066	2.22
461.269	2.29
461.472	2.33
461.675	2.25
461.878	2.25
462.081	2.22
462.284	2.3
462.486	2.26
462.689	2.37
462.892	2.44
463.095	2.37
463.298	2.26
463.5	2.42
463.703	2.29
463.906	2.44
464.109	2.44
464.311	2.53
464.514	2.58
464.717	2.56
464.92	2.46
465.122	2.46
465.325	2.55
465.528	2.59
465.73	2.44
465.933	2.51
466.135	2.38
466.338	2.4
466.541	2.44
466.743	2.43
466.946	2.4
467.148	2.3
467.351	2.15
467.553	2.13
467.756	2.17
467.958	2.18
468.161	2.11
468.363	2.1
468.566	2.06
468.768	2.02
468.971	1.96
469.173	2.07
469.375	2.05
469.578	2.11
469.78	2.04
469.983	1.91
470.185	1.82
470.387	1.84
470.59	1.88
470.792	1.87
470.994	1.83
471.196	1.81
471.399	1.82
471.601	1.89
471.803	1.81
472.005	1.97
472.208	2.03
472.41	2.07
472.612	2.15
472.814	2.1
473.016	2.2
473.218	2.35
473.421	2.36
473.623	2.35
473.825	2.41
474.027	2.56
474.229	2.5
474.431	2.53
474.633	2.51
474.835	2.5
475.037	2.55
475.239	2.45
475.441	2.32
475.643	2.32
475.845	2.31
476.047	2.31
476.249	2.24
476.451	2.16
476.653	2.2
476.855	2.16
477.057	2.1
477.258	2.09
477.46	2.16
477.662	2.16
477.864	2.16
478.066	2.08
478.268	2.09
478.469	2.01
478.671	2.03
478.873	1.94
479.075	1.99
479.276	2.04
479.478	1.98
479.68	1.93
479.882	1.9
480.083	1.89
480.285	1.94
480.487	1.93
480.688	1.98
480.89	2.01
481.091	1.96
481.293	1.93
481.495	1.88
481.696	1.91
481.898	1.88
482.099	1.87
482.301	1.87
482.502	1.86
482.704	1.84
482.905	1.82
483.107	1.8
483.308	1.82
483.51	1.8
483.711	1.77
483.913	1.74
484.114	1.78
484.315	1.78
484.517	1.79
484.718	1.74
484.92	1.79
485.121	1.8
485.322	1.79
485.524	1.79
485.725	1.81
485.926	1.82
486.127	1.84
486.329	1.81
486.53	1.8
486.731	1.79
486.932	1.8
487.134	1.74
487.335	1.7
487.536	1.71
487.737	1.72
487.938	1.73
488.139	1.76
488.341	1.77
488.542	1.75
488.743	1.77
488.944	1.77
489.145	1.83
489.346	1.81
489.547	1.88
489.748	1.89
489.949	1.89
490.15	1.85
490.351	1.84
490.552	1.83
490.753	1.83
490.954	1.86
491.155	1.86
491.356	1.81
491.557	1.85
491.758	1.83
491.959	1.82
492.159	1.83
492.36	1.87
492.561	1.94
492.762	1.98
492.963	2.03
493.164	1.96
493.364	1.99
493.565	2.01
493.766	2.09
493.967	2.06
494.167	2.1
494.368	2.12
494.569	2.12
494.769	2.06
494.97	2.02
495.171	2.03
495.371	2.03
495.572	2.04
495.773	2.09
495.973	2.07
496.174	2.06
496.375	2.07
496.575	2.06
496.776	2.1
496.976	2.14
497.177	2.14
497.377	2.16
497.578	2.23
497.778	2.21
497.979	2.22
498.179	2.16
498.38	2.21
498.58	2.31
498.78	2.3
498.981	2.3
499.181	2.28
499.382	2.29
499.582	2.34
499.782	2.37
499.983	2.39
500.183	2.41
500.383	2.52
500.584	2.46
500.784	2.34
500.984	2.38
501.184	2.41
501.385	2.44
501.585	2.49
501.785	2.4
501.985	2.35
502.185	2.37
502.386	2.33
502.586	2.26
502.786	2.33
502.986	2.45
503.186	2.46
503.386	2.43
503.586	2.47
503.786	2.48
503.987	2.57
504.187	2.62
504.387	2.6
504.587	2.61
504.787	2.68
504.987	2.75
505.187	2.64
505.387	2.59
505.587	2.64
505.786	2.69
505.986	2.7
506.186	2.69
506.386	2.74
506.586	2.77
506.786	2.8
506.986	2.79
507.186	2.75
507.386	2.8
507.585	2.81
507.785	2.76
507.985	2.76
508.185	2.77
508.384	2.71
508.584	2.6
508.784	2.61
508.984	2.67
509.183	2.67
509.383	2.68
509.583	2.67
509.782	2.71
509.982	2.74
510.182	2.67
510.381	2.61
510.581	2.7
510.781	2.86
510.98	2.93
511.18	2.94
511.379	3.01
511.579	3.05
511.778	3.09
511.978	3.02
512.177	3.06
512.377	3.15
512.576	3.22
512.776	3.19
512.975	3.16
513.175	3.13
513.374	3.03
513.573	2.95
513.773	2.99
513.972	2.99
514.172	3.14
514.371	3.22
514.57	3.17
514.77	3.28
514.969	3.42
515.168	3.44
515.367	3.51
515.567	3.55
515.766	3.58
515.965	3.57
516.164	3.62
516.364	3.56
516.563	3.47
516.762	3.43
516.961	3.33
517.16	3.24
517.359	3.18
517.559	3.22
517.758	3.23
517.957	3.25
518.156	3.29
518.355	3.22
518.554	3.2
518.753	3.23
518.952	3.31
519.151	3.34
519.35	3.37
519.549	3.4
519.748	3.3
519.947	3.34
520.146	3.38
520.345	3.31
520.544	3.37
520.743	3.46
520.942	3.44
521.141	3.46
521.339	3.52
521.538	3.45
521.737	3.53
521.936	3.59
522.135	3.56
522.333	3.61
522.532	3.62
522.731	3.59
522.93	3.64
523.129	3.69
523.327	3.74
523.526	3.72
523.725	3.83
523.923	3.84
524.122	3.85
524.321	3.85
524.519	3.8
524.718	3.82
524.917	3.86
525.115	3.84
525.314	3.86
525.512	3.84
525.711	3.85
525.909	3.84
526.108	3.8
526.306	3.84
526.505	3.89
526.703	3.89
526.902	3.89
527.1	3.91
527.299	3.91
527.497	3.92
527.696	3.92
527.894	3.96
528.092	3.97
528.291	4
528.489	3.98
528.688	3.97
528.886	4
529.084	4.06
529.283	4.07
529.481	4.08
529.679	4.08
529.877	4.13
530.076	4.15
530.274	4.16
530.472	4.14
530.67	4.2
530.869	4.21
531.067	4.25
531.265	4.23
531.463	4.26
531.661	4.3
531.859	4.25
532.057	4.26
532.255	4.26
532.454	4.28
532.652	4.32
532.85	4.32
533.048	4.36
533.246	4.38
533.444	4.43
533.642	4.45
533.84	4.5
534.038	4.61
534.236	4.66
534.434	4.63
534.632	4.64
534.83	4.72
535.027	4.75
535.225	4.77
535.423	4.77
535.621	4.78
535.819	4.74
536.017	4.75
536.215	4.76
536.412	4.75
536.61	4.86
536.808	4.9
537.006	4.87
537.203	4.93
537.401	5.03
537.599	5.11
537.797	5.12
537.994	5.16
538.192	5.2
538.39	5.28
538.587	5.37
538.785	5.37
538.983	5.39
539.18	5.42
539.378	5.38
539.575	5.31
539.773	5.29
539.97	5.31
540.168	5.33
540.366	5.31
540.563	5.32
540.761	5.31
540.958	5.27
541.155	5.27
541.353	5.31
541.55	5.32
541.748	5.36
541.945	5.41
542.143	5.39
542.34	5.45
542.537	5.52
542.735	5.53
542.932	5.52
543.129	5.64
543.327	5.71
543.524	5.8
543.721	5.81
543.919	5.85
544.116	5.93
544.313	6.1
544.51	6.09
544.708	6.16
544.905	6.19
545.102	6.32
545.299	6.35
545.496	6.41
545.693	6.37
545.891	6.44
546.088	6.47
546.285	6.49
546.482	6.44
546.679	6.51
546.876	6.5
547.073	6.58
547.27	6.58
547.467	6.55
547.664	6.58
547.861	6.65
548.058	6.77
548.255	6.9
548.452	6.96
548.649	7.14
548.846	7.24
549.043	7.23
549.24	7.17
549.437	7.28
549.633	7.38
549.83	7.46
550.027	7.61
550.224	7.58
550.421	7.63
550.618	7.6
550.814	7.54
551.011	7.54
551.208	7.61
551.405	7.69
551.601	7.67
551.798	7.58
551.995	7.53
552.191	7.57
552.388	7.6
552.585	7.59
552.781	7.66
552.978	7.57
553.175	7.67
553.371	7.81
553.568	7.93
553.764	7.98
553.961	8.2
554.157	8.35
554.354	8.23
554.55	8.37
554.747	8.41
554.943	8.47
555.14	8.76
555.336	8.78
555.533	8.73
555.729	8.7
555.926	8.78
556.122	8.82
556.318	8.85
556.515	9.1
556.711	9.09
556.907	9.26
557.104	9.39
557.3	9.37
557.496	9.37
557.693	9.48
557.889	9.62
558.085	9.74
558.281	9.89
558.478	9.93
558.674	9.94
558.87	9.95
559.066	9.97
559.262	10
559.459	10.08
559.655	10.2
559.851	10.2
560.047	10.24
560.243	10.33
560.439	10.27
560.635	10.43
560.831	10.38
561.027	10.41
561.223	10.42
561.419	10.43
561.615	10.46
561.811	10.6
562.007	10.69
562.203	10.73
562.399	10.76
562.595	10.88
562.791	10.83
562.987	11.02
563.183	11.18
563.379	11.18
563.575	11.2
563.771	11.34
563.966	11.38
564.162	11.43
564.358	11.51
564.554	11.57
564.75	11.57
564.945	11.61
565.141	11.7
565.337	11.87
565.533	11.93
565.728	12.01
565.924	11.97
566.12	12.03
566.315	12.08
566.511	12.12
566.707	12.11
566.902	12.25
567.098	12.42
567.293	12.29
567.489	12.28
567.684	12.31
567.88	12.34
568.076	12.4
568.271	12.51
568.467	12.63
568.662	12.72
568.858	12.85
569.053	12.86
569.248	12.89
569.444	13.07
569.639	13.16
569.835	13.36
570.03	13.53
570.225	13.63
570.421	13.74
570.616	13.89
570.812	14.02
571.007	14.05
571.202	14.26
571.397	14.33
571.593	14.35
571.788	14.39
571.983	14.46
572.178	14.48
572.374	14.61
572.569	14.57
572.764	14.51
572.959	14.44
573.154	14.49
573.35	14.37
573.545	14.48
573.74	14.54
573.935	14.61
574.13	14.63
574.325	14.58
574.52	14.67
574.715	14.7
574.91	14.78
575.105	14.88
575.3	14.9
575.495	15.04
575.69	15.01
575.885	15.22
576.08	15.25
576.275	15.28
576.47	15.5
576.665	15.41
576.86	15.46
577.055	15.54
577.25	15.69
577.444	15.75
577.639	15.82
577.834	15.84
578.029	15.83
578.224	15.94
578.418	16.1
578.613	16.15
578.808	16.28
579.003	16.43
579.197	16.48
579.392	16.41
579.587	16.67
579.781	16.64
579.976	16.67
580.171	16.57
580.365	16.6
580.56	16.62
580.755	16.59
580.949	16.6
581.144	16.57
581.338	16.66
581.533	16.72
581.727	16.7
581.922	16.71
582.116	16.87
582.311	16.9
582.505	16.88
582.7	16.92
582.894	17.15
583.089	17.07
583.283	17.06
583.478	17.1
583.672	17.06
583.866	17.05
584.061	17.13
584.255	17.16
584.449	17.42
584.644	17.67
584.838	17.7
585.032	17.69
585.226	17.86
585.421	17.92
585.615	17.98
585.809	18.04
586.003	18.15
586.198	18.37
586.392	18.42
586.586	18.31
586.78	18.28
586.974	18.43
587.168	18.37
587.363	18.42
587.557	18.62
587.751	18.61
587.945	18.77
588.139	18.69
588.333	18.59
588.527	18.58
588.721	18.67
588.915	18.63
589.109	18.51
589.303	18.61
589.497	18.58
589.691	18.53
589.885	18.38
590.079	18.45
590.273	18.52
590.466	18.56
590.66	18.46
590.854	18.4
591.048	18.42
591.242	18.53
591.436	18.46
591.629	18.65
591.823	18.74
592.017	18.95
592.211	18.93
592.404	19
592.598	19.08
592.792	19.23
592.986	19.41
593.179	19.42
593.373	19.35
593.567	19.42
593.76	19.35
593.954	19.48
594.147	19.51
594.341	19.53
594.535	19.55
594.728	19.44
594.922	19.43
595.115	19.41
595.309	19.27
595.502	19.35
595.696	19.3
595.889	19.35
596.083	19.2
596.276	19.18
596.47	19.26
596.663	19.21
596.856	19.34
597.05	19.45
597.243	19.44
597.437	19.68
597.63	19.78
597.823	19.91
598.017	19.87
598.21	20.13
598.403	20.2
598.596	20.16
598.79	20.29
598.983	20.16
599.176	20.22
599.369	20.35
599.563	20.46
599.756	20.31
599.949	20.38
600.142	20.51
600.335	20.28
600.528	20.26
600.722	20.36
600.915	20.34
601.108	20.42
601.301	20.32
601.494	20.29
601.687	20.2
601.88	20.2
602.073	20.12
602.266	20.1
602.459	20.16
602.652	20.2
602.845	20.18
603.038	20.13
603.231	20.24
603.424	20.27
603.617	20.21
603.809	20.17
604.002	20.23
604.195	20.42
604.388	20.4
604.581	20.41
604.774	20.49
604.966	20.38
605.159	20.43
605.352	20.48
605.545	20.57
605.737	20.69
605.93	20.68
606.123	20.83
606.316	20.77
606.508	20.96
606.701	21.08
606.894	21.01
607.086	21.1
607.279	21.13
607.471	21.02
607.664	20.88
607.857	20.78
608.049	20.94
608.242	20.85
608.434	20.84
608.627	20.68
608.819	20.55
609.012	20.66
609.204	20.67
609.397	20.71
609.589	20.75
609.782	20.83
609.974	20.95
610.166	20.83
610.359	20.94
610.551	20.92
610.743	20.99
610.936	21.1
611.128	21.01
611.32	20.98
611.513	21.07
611.705	21.13
611.897	21.09
612.09	21.22
612.282	21.49
612.474	21.22
612.666	21.3
612.858	21.42
613.051	21.61
613.243	21.46
613.435	21.57
613.627	21.37
613.819	21.29
614.011	21.75
614.203	21.6
614.395	21.65
614.588	21.84
614.78	21.82
614.972	21.78
615.164	21.71
615.356	21.76
615.548	21.7
615.74	21.94
615.932	21.87
616.124	21.47
616.315	21.65
616.507	21.51
616.699	21.71
616.891	21.74
617.083	21.86
617.275	21.94
617.467	22.06
617.659	22.23
617.85	22.42
618.042	22.61
618.234	22.71
618.426	22.66
618.618	22.64
618.809	22.57
619.001	22.5
619.193	22.48
619.384	22.38
619.576	22.53
619.768	22.53
619.959	22.37
620.151	22.61
620.343	22.72
620.534	22.82
620.726	22.89
620.917	23.07
621.109	22.94
621.301	22.91
621.492	22.84
621.684	22.72
621.875	22.64
622.067	22.49
622.258	22.29
622.45	22.3
622.641	22.25
622.832	22.21
623.024	22.15
623.215	22.32
623.407	22.37
623.598	22.51
623.789	22.51
623.981	22.53
624.172	22.77
624.363	22.76
624.555	22.8
624.746	22.56
624.937	22.53
625.129	22.5
625.32	22.57
625.511	22.53
625.702	22.47
625.893	22.58
626.085	22.59
626.276	22.52
626.467	22.61
626.658	22.48
626.849	22.53
627.04	22.55
627.231	22.49
627.422	22.45
627.614	22.63
627.805	22.75
627.996	22.64
628.187	22.69
628.378	22.72
628.569	22.67
628.76	22.76
628.951	22.79
629.142	22.78
629.332	22.74
629.523	22.8
629.714	22.66
629.905	22.64
630.096	22.88
630.287	23.03
630.478	22.89
630.669	22.96
630.859	22.84
631.05	22.93
631.241	23.02
631.432	22.93
631.623	22.82
631.813	22.94
632.004	22.86
632.195	22.67
632.385	22.45
632.576	22.47
632.767	22.39
632.957	22.47
633.148	22.51
633.339	22.48
633.529	22.5
633.72	22.68
633.91	22.59
634.101	22.5
634.292	22.55
634.482	22.52
634.673	22.63
634.863	22.77
635.054	22.9
635.244	23.05
635.435	23.2
635.625	23.23
635.815	23.2
636.006	23.27
636.196	23.54
636.387	23.66
636.577	23.78
636.767	23.83
636.958	23.68
637.148	23.72
637.338	23.37
637.529	23.34
637.719	23.72
637.909	23.62
638.099	23.64
638.29	23.64
638.48	23.52
638.67	23.75
638.86	23.67
639.05	23.73
639.241	23.63
639.431	23.73
639.621	23.94
639.811	23.71
640.001	23.84
640.191	23.54
640.381	23.33
640.571	23.58
640.761	23.38
640.951	23.3
641.141	23.24
641.331	23.1
641.521	23.49
641.711	23.51
641.901	23.55
642.091	23.73
642.281	23.75
642.471	23.89
642.661	23.81
642.851	24.01
643.041	24.3
643.231	24.58
643.42	24.92
643.61	24.6
643.8	24.47
643.99	24.59
644.18	24.24
644.369	24.66
644.559	24.69
644.749	24.79
644.939	24.52
645.128	24.37
645.318	24.27
645.508	23.92
645.697	24.19
645.887	24.12
646.076	23.83
646.266	24.01
646.456	23.92
646.645	24.02
646.835	23.8
647.024	23.92
647.214	23.91
647.403	23.85
647.593	24.12
647.782	23.99
647.972	24.11
648.161	24.44
648.351	24.53
648.54	24.41
648.73	24.29
648.919	24.38
649.108	24.5
649.298	24.36
649.487	24.54
649.677	24.36
649.866	24.37
650.055	24.25
650.244	24.18
650.434	24.15
650.623	24.17
650.812	24.3
651.002	24.17
651.191	24.21
651.38	24.35
651.569	23.98
651.758	23.9
651.947	24.12
652.137	24.04
652.326	24.09
652.515	24.14
652.704	23.97
652.893	23.82
653.082	23.79
653.271	23.92
653.46	23.82
653.649	24.16
653.838	24.45
654.027	24.17
654.216	24.17
654.405	24.09
654.594	24.01
654.783	24.16
654.972	24.24
655.161	24.38
655.35	24.05
655.539	24.45
655.728	24.52
655.916	24.42
656.105	24.45
656.294	24.72
656.483	24.86
656.672	24.89
656.86	25.02
657.049	25.11
657.238	25.12
657.427	25.17
657.615	25.02
657.804	25
657.993	25.02
658.181	24.97
658.37	24.94
658.559	24.79
658.747	24.77
658.936	24.76
659.125	24.78
659.313	24.82
659.502	24.91
659.69	24.87
659.879	24.81
660.067	24.93
660.256	24.89
660.444	24.75
660.633	24.95
660.821	25.05
661.01	24.95
661.198	24.88
661.387	24.72
661.575	24.75
661.763	25.18
661.952	25.34
662.14	25.4
662.328	25.37
662.517	25.57
662.705	25.57
662.893	25.46
663.082	25.68
663.27	25.26
663.458	25.32
663.646	25.29
663.834	25.08
664.023	24.96
664.211	24.88
664.399	25.22
664.587	25.28
664.775	24.83
664.963	24.94
665.152	24.9
665.34	25.27
665.528	25.44
665.716	25.33
665.904	25.15
666.092	25.13
666.28	24.88
666.468	24.96
666.656	25.02
666.844	25.53
667.032	25.53
667.22	25.57
667.408	25.65
667.596	25.8
667.784	25.63
667.971	25.71
668.159	25.65
668.347	25.76
668.535	25.6
668.723	25.46
668.911	25.25
669.098	25.35
669.286	25.43
669.474	25.33
669.662	25.14
669.849	25.46
670.037	25.41
670.225	25.68
670.413	25.77
670.6	25.64
670.788	25.68
670.976	25.97
671.163	25.88
671.351	25.65
671.538	25.9
671.726	25.89
671.913	25.81
672.101	25.88
672.289	25.69
672.476	25.57
672.664	25.66
672.851	25.74
673.039	25.63
673.226	25.46
673.413	25.6
673.601	25.44
673.788	25.25
673.976	25.35
674.163	25.21
674.35	25.2
674.538	25.43
674.725	25.42
674.912	25.25
675.1	25.21
675.287	25.46
675.474	25.5
675.662	25.53
675.849	25.95
676.036	25.86
676.223	26.03
676.411	25.82
676.598	25.6
676.785	25.66
676.972	25.83
677.159	25.61
677.346	25.26
677.533	25.21
677.721	25.19
677.908	25.05
678.095	25.06
678.282	25.17
678.469	25.28
678.656	25.28
678.843	25.25
679.03	25.24
679.217	25.52
679.404	25.79
679.591	25.59
679.778	25.61
679.964	25.56
680.151	25.38
680.338	25.24
680.525	25.5
680.712	25.5
680.899	25.57
681.086	25.5
681.272	25.4
681.459	25.4
681.646	25.53
681.833	25.55
682.02	25.58
682.206	25.64
682.393	25.82
682.58	25.72
682.766	25.86
682.953	25.98
683.14	26.17
683.326	26.38
683.513	26.46
683.7	26.85
683.886	26.96
684.073	27.04
684.259	27.17
684.446	27.29
684.632	27.37
684.819	27.26
685.005	27.2
685.192	27.2
685.378	27.18
685.565	27.08
685.751	26.57
685.938	26.76
686.124	26.74
686.31	26.84
686.497	26.44
686.683	26.27
686.87	26.39
687.056	26.14
687.242	26.28
687.429	26.19
687.615	26.42
687.801	26.71
687.987	26.51
688.174	26.49
688.36	26.71
688.546	26.81
688.732	26.53
688.918	26.52
689.105	26.8
689.291	26.56
689.477	26.7
689.663	26.72
689.849	26.36
690.035	26.21
690.221	26.21
690.407	26.45
690.593	26.42
690.779	26.81
690.965	27.02
691.151	27
691.337	26.95
691.523	26.82
691.709	26.96
691.895	27.85
692.081	27.76
692.267	27.68
692.453	27.26
692.639	27.2
692.825	27
693.011	26.78
693.196	26.85
693.382	26.95
693.568	26.59
693.754	26.43
693.94	25.66
694.125	26.09
694.311	26.05
694.497	25.79
694.682	26.1
694.868	26.42
695.054	26.76
695.239	26.8
695.425	26.76
695.611	27.17
695.796	27
695.982	27
696.168	26.68
696.353	26.8
696.539	27.06
696.724	27.04
696.91	26.77
697.095	26.78
697.281	26.4
697.466	26.47
697.652	26.19
697.837	26.34
698.023	26.34
698.208	26.3
698.393	26.26
698.579	26.14
698.764	26.06
698.949	26.23
699.135	25.97
699.32	26.29
699.505	26.07
699.691	26.17
699.876	25.87
700.061	25.95
700.246	26.52
700.432	26.68
700.617	26.74
700.802	26.55
700.987	26.63
701.172	27.07
701.358	27.22
701.543	27.43
701.728	27.8
701.913	28.48
702.098	28.78
702.283	28.57
702.468	28.77
702.653	29.02
702.838	29.21
703.023	28.78
703.208	28.4
703.393	28.18
703.578	28.2
703.763	27.96
703.948	27.27
704.133	27.44
704.318	27.08
704.503	26.97
704.688	26.92
704.873	26.85
705.057	27.5
705.242	27.73
705.427	27.76
705.612	27.67
705.797	27.86
705.981	28.07
706.166	28
706.351	28.22
706.536	27.87
706.72	27.61
706.905	27.52
707.09	27.23
707.274	26.8
707.459	26.99
707.644	27.18
707.828	27.33
708.013	27.32
708.197	27.12
708.382	27.05
708.567	26.99
708.751	27.17
708.936	27.37
709.12	27.3
709.305	27.27
709.489	27.14
709.673	26.78
709.858	26.88
710.042	27.24
710.227	27.39
710.411	27.52
710.596	27.6
710.78	27.81
710.964	27.98
711.149	28.02
711.333	28.49
711.517	28.41
711.702	28.87
711.886	28.57
712.07	28.14
712.254	27.59
712.438	27.5
712.623	27.72
712.807	27.44
712.991	27.4
713.175	27.27
713.359	27
713.544	26.87
713.728	26.65
713.912	26.38
714.096	26.34
714.28	26.61
714.464	26.67
714.648	26.6
714.832	26.86
715.016	26.86
715.2	26.96
715.384	27.08
715.568	27.51
715.752	27.58
715.936	27.9
716.12	28.13
716.304	28.42
716.488	28.32
716.671	28.53
716.855	28.31
717.039	28.2
717.223	27.98
717.407	27.53
717.59	27.16
717.774	26.95
717.958	26.6
718.142	26.45
718.325	26.26
718.509	26.35
718.693	25.88
718.877	25.74
719.06	25.78
719.244	26.24
719.428	26.5
719.611	26.37
719.795	26.71
719.978	27.36
720.162	27.37
720.345	27.27
720.529	27.2
720.713	27.67
720.896	27.64
721.08	27.77
721.263	27.8
721.446	27.91
721.63	28.35
721.813	28.05
721.997	27.88
722.18	27.85
722.364	28.08
722.547	28
722.73	28.02
722.914	28.23
723.097	28.27
723.28	27.97
723.464	27.74
723.647	27.78
723.83	28
724.013	28.13
724.197	28.62
724.38	28.32
724.563	28.52
724.746	28.15
724.929	28.06
725.112	28.5
725.296	28.62
725.479	28.81
725.662	28.53
725.845	28.78
726.028	28.33
726.211	28.13
726.394	28.5
726.577	28.55
726.76	28.71
726.943	28.53
727.126	28.45
727.309	28.41
727.492	28.61
727.675	28.49
727.858	28.01
728.041	28.36
728.224	28.06
728.407	28
728.589	27.64
728.772	27.59
728.955	27.8
729.138	27.32
729.321	27.79
729.503	27.99
729.686	28.03
729.869	28.07
730.052	27.89
730.234	27.87
730.417	27.61
730.6	27.79
730.782	27.88
730.965	27.84
731.148	27.81
731.33	27.49
731.513	27.39
731.695	27.93
731.878	28.04
732.061	27.62
732.243	27.9
732.426	28.01
732.608	28.04
732.791	28.34
732.973	28.64
733.156	28.77
733.338	28.67
733.52	28.82
733.703	28.13
733.885	28.28
734.068	28.49
734.25	29.12
734.432	28.82
734.615	28.44
734.797	28.04
734.979	27.87
735.162	27.7
735.344	28.06
735.526	28
735.708	28.52
735.891	29.26
736.073	29.23
736.255	28.29
736.437	28.48
736.619	28.96
736.802	29.12
736.984	28.97
737.166	28.95
737.348	28.59
737.53	28.62
737.712	28.27
737.894	27.75
738.076	27.68
738.258	27.78
738.44	27.85
738.622	28.02
738.804	27.82
738.986	27.68
739.168	27.17
739.35	27.52
739.532	27.16
739.714	27.06
739.896	26.63
740.078	27.15
740.259	26.65
740.441	27.15
740.623	26.9
740.805	26.41
740.987	26.65
741.168	27.12
741.35	26.96
741.532	27.26
741.714	27.53
741.895	27.51
742.077	27.52
742.259	28.27
742.44	27.58
742.622	27.14
742.804	28.05
742.985	28.09
743.167	28.44
743.348	28.64
743.53	29.12
743.711	29.62
743.893	29.96
744.075	30.06
744.256	29.72
744.438	30.12
744.619	30.68
744.8	30.69
744.982	30.76
745.163	30.84
745.345	30.62
745.526	30.31
745.707	29.74
745.889	29.82
746.07	29.21
746.252	29.82
746.433	30.17
746.614	30.31
746.795	30.45
746.977	30.23
747.158	30.42
747.339	30.33
747.52	30.3
747.702	29.96
747.883	29.66
748.064	29.93
748.245	29.3
748.426	28.94
748.607	28.71
748.788	28.35
748.97	28.36
749.151	27.9
749.332	28.24
749.513	28.36
749.694	28.51
749.875	29.62
750.056	30.16
750.237	30.23
750.418	30.16
750.599	30.35
750.78	30.19
750.96	30.23
751.141	30.18
751.322	29.48
751.503	29.27
751.684	29.82
751.865	28.51
752.046	28.54
752.226	29.36
752.407	29.71
752.588	29.87
752.769	31.05
752.949	31.13
753.13	31.81
753.311	31.95
753.492	31.82
753.672	31.5
753.853	31.65
754.034	31.36
754.214	30.49
754.395	29.87
754.575	29.82
754.756	28.98
754.937	29.25
755.117	28.42
755.298	28.61
755.478	28.49
755.659	28.12
755.839	28.32
756.02	28.16
756.2	28.2
756.381	28.5
756.561	28.92
756.741	28.92
756.922	28.59
757.102	29.31
757.283	29.42
757.463	29.27
757.643	30.13
757.823	30.74
758.004	31.19
758.184	30.82
758.364	30.89
758.545	30.63
758.725	30.39
758.905	30.77
759.085	30.71
759.265	30.38
759.446	30.15
759.626	29.71
759.806	29.19
759.986	28.58
760.166	29.19
760.346	29.49
760.526	29.5
760.706	29.28
760.886	29.19
761.066	29.49
761.246	29.96
761.426	30.21
761.606	29.89
761.786	30.07
761.966	30.29
762.146	30.3
762.326	30.1
762.506	29.51
762.686	29.75
762.866	29.41
763.046	28.91
763.225	28.7
763.405	28.81
763.585	29.05
763.765	28.88
763.945	28.7
764.124	28.61
764.304	29.13
764.484	29.35
764.664	29.57
764.843	30.04
765.023	29.96
765.203	29.57
765.382	29.61
765.562	29.73
765.741	29.83
765.921	29.74
766.101	29.82
766.28	28.87
766.46	28.49
766.639	27.83
766.819	27.92
766.998	28.48
767.178	28.72
767.357	28.62
767.537	28.88
767.716	28.39
767.896	28.26
768.075	28.35
768.254	28.34
768.434	29.44
768.613	29.96
768.792	29.03
768.972	28.35
769.151	28.27
769.33	27.68
769.51	27.53
769.689	28.41
769.868	28.83
770.047	28.87
770.226	29.15
770.406	29.2
770.585	29.57
770.764	30.24
770.943	30.47
771.122	31.41
771.301	32.71
771.48	33.26
771.66	32.17
771.839	32.17
772.018	32.25
772.197	32
772.376	31.68
772.555	30.93
772.734	30.38
772.913	30.39
773.092	29.14
773.271	28.65
773.449	27.67
773.628	28.42
773.807	28.13
773.986	28.19
774.165	28.64
774.344	28.1
774.523	28.66
774.701	28.96
774.88	28.92
775.059	29.51
775.238	29.69
775.417	30.57
775.595	31.27
775.774	31.17
775.953	30.7
776.131	30.8
776.31	31.18
776.489	30.72
776.667	30.26
776.846	29.63
777.025	30.45
777.203	29.77
777.382	29.77
777.56	28.58
777.739	28.39
777.917	28.79
778.096	28.58
778.274	28.55
778.453	29.13
778.631	29.97
778.81	31.21
778.988	30.58
779.166	30.98
779.345	29.74
779.523	30.41
779.702	31.1
779.88	31.01
780.058	31.28
780.237	31.58
780.415	31.76
780.593	32.07
780.771	32
780.95	32.53
781.128	33.46
781.306	34.25
781.484	34.69
781.662	34.58
781.841	34.07
782.019	33.83
782.197	33.02
782.375	32.06
782.553	30.82
782.731	30.15
782.909	29.09
783.087	28.79
783.265	29.31
783.443	28.96
783.621	28.74
783.799	29.04
783.977	29.05
784.155	29.92
784.333	30.77
784.511	30.94
784.689	31.33
784.867	31.14
785.045	31.25
785.223	31.59
785.4	31.45
785.578	31.87
785.756	32.21
785.934	31.96
786.112	31.73
786.289	31.34
786.467	31.78
786.645	31.3
786.823	32.23
787	32.24
787.178	30.71
787.356	30.43
787.533	29.2
787.711	29.44
787.889	29.75
788.066	29.35
788.244	29.9
788.421	30.31
788.599	30.57
788.776	29.95
788.954	28.85
789.131	29.3
789.309	29.58
789.486	31.09
789.664	30.72
789.841	30.79
790.019	30.39
790.196	30.27
790.373	29.39
790.551	29.39
790.728	29.9
790.906	30.37
791.083	30.19
791.26	31.16
791.437	32.01
791.615	32.05
791.792	32.46
791.969	33.38
792.146	33.87
792.324	34.5
792.501	34.99
792.678	35.47
792.855	36.11
793.032	36.71
793.209	35.92
793.387	35.25
793.564	34.63
793.741	33.71
793.918	33.33
794.095	32.79
794.272	31.7
794.449	31.5
794.626	32.42
794.803	31.02
794.98	30.79
795.157	30.29
795.334	29.97
795.511	29.48
795.688	30.45
795.864	31.32
796.041	30.88
796.218	31.96
796.395	31.94
796.572	29.97
796.749	31.02
796.925	30.58
797.102	30.86
797.279	30.54
797.456	31.5
797.632	31.66
797.809	31.64
797.986	32.39
798.162	32.4
798.339	32.7
798.516	33.61
798.692	32.43
798.869	33.08
799.046	32.63
799.222	32.46
799.399	32.71
799.575	32.22
799.752	31.25
799.928	30.64
800.105	30.28
800.281	30.43
800.458	29.97
800.634	31.77
800.811	32
800.987	30.38
801.163	30.92
801.34	31.93
801.516	32.25
801.692	32.57
801.869	32.08
802.045	32.47
802.221	31.42
802.398	31.74
802.574	30.18
802.75	29.51
802.926	30.47
803.103	29.52
803.279	28.61
803.455	27.06
803.631	27.44
803.807	27.92
803.983	28.46
804.16	27.41
804.336	27.03
804.512	27.14
804.688	28.89
804.864	30.72
805.04	31.64
805.216	32.12
805.392	32.96
805.568	33.74
805.744	34.91
805.92	34.7
806.096	36.34
806.272	37.14
806.448	38.39
806.623	37.15
806.799	36.73
806.975	36.5
807.151	35.25
807.327	35.23
807.503	33.71
807.678	33.51
807.854	33
808.03	33.29
808.206	33.41
808.381	32.7
808.557	32.52
808.733	31.96
808.908	32.77
809.084	34.38
809.26	33.77
809.435	34.85
809.611	34.06
809.787	33.97
809.962	33.63
810.138	32.82
810.313	33.01
810.489	34.44
810.664	33.48
810.84	32.6
811.015	31.73
811.191	34.12
811.366	33.94
811.542	33.43
811.717	33.98
811.892	33
812.068	33.54
812.243	31.71
812.419	30.14
812.594	30.79
812.769	31.59
812.944	31.8
813.12	29.85
813.295	29.34
813.47	30.38
813.645	29.9
813.821	31.56
813.996	31.61
814.171	35.08
814.346	35.24
814.521	36.06
814.697	37.92
814.872	38.08
815.047	38.38
815.222	40.24
815.397	39.19
815.572	39.56
815.747	38.39
815.922	37.5
816.097	35.36
816.272	36.24
816.447	36.55
816.622	35.06
816.797	35.71
816.972	35.5
817.147	33.2
817.322	33.07
817.496	32.86
817.671	32.23
817.846	32.98
818.021	32.64
818.196	31.35
818.371	30.06
818.545	29.48
818.72	28.47
818.895	28.57
819.069	29.67
819.244	30.85
819.419	30.89
819.594	31.2
819.768	30.56
819.943	30.6
820.117	31.26
820.292	31.49
820.467	31.49
820.641	31.31
820.816	30.77
820.99	30.02
821.165	29.52
821.339	29.3
821.514	29.45
821.688	29.32
821.863	29.12
822.037	28.77
822.212	28.78
822.386	28.61
822.56	28.66
822.735	28.73
822.909	28.79
823.084	28.8
823.258	28.56
823.432	28.61
823.606	28.67
823.781	28.84
823.955	28.85
824.129	28.94
824.303	29.27
824.478	29.61
824.652	29.77
824.826	29.89
825	29.92
825.174	30.23
825.348	29.81
825.523	30.21
825.697	29.93
825.871	30.44
826.045	30.03
826.219	29.34
826.393	28.92
826.567	29.02
826.741	29.22
826.915	28.86
827.089	29.1
827.263	29.67
827.437	29.38
827.611	30.34
827.784	30.5
827.958	31.14
828.132	31.06
828.306	31.44
828.48	31.79
828.654	31.99
828.827	32.41
829.001	32.74
829.175	32.38
829.349	33.15
829.522	31.95
829.696	32.1
829.87	31.08
830.044	32.26
830.217	31.71
830.391	31.85
830.565	31.53
830.738	31.8
830.912	31.14
831.085	30.91
831.259	30.83
831.432	31.01
831.606	30.59
831.779	31.04
831.953	30.67
832.126	30.3
832.3	30.31
832.473	30.98
832.647	30.66
832.82	31.64
832.994	31.87
833.167	32.14
833.34	32.07
833.514	31.89
833.687	32.37
833.86	32.77
834.034	33.3
834.207	32.93
834.38	32.91
834.553	32.92
834.727	32.3
834.9	32.31
835.073	31.61
835.246	31.95
835.419	32.07
835.593	32
835.766	31.76
835.939	31.66
836.112	31.75
836.285	32.34
836.458	33.54
836.631	34.21
836.804	34.79
836.977	35.85
837.15	36.86
837.323	36.76
837.496	38.16
837.669	38.03
837.842	36.54
838.015	37.13
838.188	35.98
838.361	34.54
838.533	32.74
838.706	33.28
838.879	32.88
839.052	32.69
839.225	33.24
839.398	31.72
839.57	30.85
839.743	34.24
839.916	35.1
840.088	35.46
840.261	36.37
840.434	38.2
840.607	37.08
840.779	37.31
840.952	35.02
841.124	34.36
841.297	35.4
841.47	36.88
841.642	36.68
841.815	34.95
841.987	35.15
842.16	35.09
842.332	35.76
842.505	37.91
842.677	39.34
842.85	40.7
843.022	41.11
843.194	41.19
843.367	41.27
843.539	39.6
843.712	40.4
843.884	41.6
844.056	43.31
844.229	42.06
844.401	42.56
844.573	38.07
844.745	38.44
844.918	37.78
845.09	39.17
845.262	41.28
845.434	42.39
845.606	42.34
845.779	41.25
845.951	39.64
846.123	38.68
846.295	36.73
846.467	37.31
846.639	42.15
846.811	45.59
846.983	42.35
847.155	39.85
847.327	39.28
847.499	40.04
847.671	40.91
847.843	41.15
848.015	39.6
848.187	39.11
848.359	42.61
848.531	38.36
848.703	37.59
848.875	38.99
849.047	40.16
849.218	41.93
849.39	40.87
849.562	37.41
849.734	38.92
849.905	43.67
850.077	42.15
850.249	35.79
850.421	38.99
850.592	37.68
850.764	39.15
850.936	39.38
851.107	38.09
851.279	39.37
851.451	44.58
851.622	41.64
851.794	37.85
851.965	39.69
852.137	43.37
852.308	42.82
852.48	47.41
852.651	45.65
852.823	45.64
852.994	44.13
853.166	42.28
853.337	43.94
853.509	45.99
853.68	49
853.851	48.47
854.023	50.49
854.194	47.28
854.365	40.8
854.537	40.02
854.708	39.58
854.879	39.29
855.05	42.27
855.222	41.9
855.393	41.08
855.564	39.5
855.735	42
855.906	41.82
856.078	41.78
856.249	47.1
856.42	48.49
856.591	48.9
856.762	50.18
856.933	46.69
857.104	38.58
857.275	42.14
857.446	42.8
857.617	45.28
857.788	44.91
857.959	46.94
858.13	44.56
858.301	42.24
858.472	39.28
858.643	38.06
858.814	39.61
858.985	43.6
859.155	43.02
859.326	45.66
859.497	38.6
859.668	39.91
859.839	40.33
860.009	42.09
860.18	45.87
860.351	51.11
860.522	52.43
860.692	50.57
860.863	50.17
861.034	47.96
861.204	46.62
861.375	51.26
861.546	49.36
861.716	48.75
861.887	45.2
862.057	45
862.228	43.02
862.398	41.04
862.569	45.24
862.739	51.21
862.91	51.6
863.08	50.96
863.251	48.59
863.421	48.69
863.592	50.55
863.762	51.89
863.932	48.86
864.103	50.27
864.273	55.02
864.443	51.59
864.614	48.36
864.784	51.46
864.954	52.35
865.125	54.45
865.295	56.43
865.465	55.92
865.635	56.77
865.805	61.19
865.976	60.87
866.146	59.46
866.316	59.04
866.486	58.02
866.656	55.92
866.826	51.87
866.996	50.07
867.166	48.43
867.336	47.06
867.506	48
867.676	43.66
867.846	44.7
868.016	42.76
868.186	45.23
868.356	46.29
868.526	44.99
868.696	47.91
868.866	50.69
869.036	49.1
869.206	48.37
869.376	45.22
869.545	46.75
869.715	42.78
869.885	43.1
870.055	42.64
870.224	43.5
870.394	45.05
870.564	47.09
870.734	47.17
870.903	49.6
871.073	48.42
871.243	49.98
871.412	47.96
871.582	48.18
871.751	47.76
871.921	49.13
872.091	47.04
872.26	42.56
872.43	40.3
872.599	37.43
872.769	39.9
872.938	40.66
873.108	41.18
873.277	43.73
873.446	41.86
873.616	40.97
873.785	43.33
873.955	41.4
874.124	43.96
874.293	48.4
874.463	50.44
874.632	48.71
874.801	50.81
874.971	49.58
875.14	51.36
875.309	52.39
875.478	54.95
875.647	49.65
875.817	48.52
875.986	49.81
876.155	47.51
876.324	47.89
876.493	48.04
876.662	45.57
876.831	44.54
877	45.11
877.17	46.02
877.339	43.98
877.508	46.21
877.677	48.58
877.846	47.42
878.015	43.97
878.184	37.99
878.352	35.41
878.521	37.12
878.69	35.45
878.859	32.46
879.028	33.49
879.197	32.63
879.366	30.12
879.534	30.91
879.703	30.24
879.872	30.91
880.041	33.14
880.21	33.6
880.378	32.43
880.547	32.11
880.716	32.25
880.884	31.31
881.053	30.92
881.222	30.81
881.39	30.09
881.559	30.3
881.727	29.83
881.896	29.15
882.065	29.1
882.233	28.67
882.402	29.14
882.57	29.33
882.739	29.84
882.907	29.92
883.076	30.09
883.244	30.11
883.412	29.86
883.581	30.44
883.749	31.46
883.918	31.66
884.086	32.38
884.254	32.57
884.423	32.37
884.591	30.98
884.759	30.58
884.927	31.07
885.096	31.03
885.264	32.73
885.432	33.29
885.6	33.51
885.769	33.09
885.937	33.62
886.105	34.91
886.273	33.86
886.441	37.82
886.609	40.16
886.777	41.26
886.945	43.79
887.113	44.45
887.281	44.6
887.449	45.78
887.617	46.4
887.785	45.48
887.953	43.16
888.121	45.97
888.289	43.02
888.457	43.53
888.625	42.51
888.793	43.82
888.961	43.07
889.129	41.61
889.296	40.87
889.464	41.6
889.632	43.4
889.8	46.22
889.967	46.45
890.135	50.19
