Data from 2938448_Reflection_2.txt Node
Date: Fri Jun 19 18:04:39 EDT 2015
User: robert
Spectrometer: USB4E03002
Autoset integration time: false
Trigger mode: 4
Integration Time (sec): 1.000000E-1
Scans to average: 10
Electric dark correction enabled: true
Nonlinearity correction enabled: false
Boxcar width: 5
Stray light correction enabled: false
XAxis mode: Wavelengths
Stop averaging: false
Number of Pixels in Spectrum: 3648
>>>>>Begin Spectral Data<<<<<
177.575	-484.9
177.794	-146.79
178.014	-123.8
178.233	-23.36
178.452	-2.56
178.672	52.66
178.891	119.32
179.11	-472.59
179.33	-594.21
179.549	-278.88
179.768	-239.28
179.987	-231.03
180.207	-285.9
180.426	-503.32
180.645	-282.83
180.864	-517.37
181.084	846.06
181.303	443.15
181.522	243.1
181.741	279.28
181.96	174.38
182.179	137.99
182.398	106.83
182.618	117.85
182.837	130.6
183.056	136.41
183.275	137.95
183.494	144.41
183.713	176.23
183.932	221.79
184.151	228.56
184.37	368.96
184.589	611.61
184.808	563.63
185.027	578.61
185.246	516.67
185.465	1261.68
185.684	815300
185.903	-407.66
186.122	-353.82
186.341	-318.74
186.56	-293.56
186.779	-208.97
186.998	-226.85
187.216	-103.24
187.435	-72.98
187.654	-79.23
187.873	-118.22
188.092	-198.16
188.311	-141.67
188.53	-158.59
188.748	-324.18
188.967	-171.7
189.186	-290.55
189.405	-811.67
189.623	-19217.46
189.842	-1835.55
190.061	-288.83
190.28	-428.84
190.498	-277.61
190.717	431.46
190.936	317.14
191.154	305.81
191.373	179.07
191.592	228.38
191.81	488.7
192.029	970.32
192.248	255.01
192.466	306.45
192.685	361.69
192.904	288.72
193.122	609
193.341	-1953.73
193.559	4731.94
193.778	-10854.61
193.996	-2436.49
194.215	1465.45
194.433	688.21
194.652	-1779.03
194.87	-334.45
195.089	-700.35
195.307	-428.93
195.526	-1665.74
195.744	736.7
195.963	667100
196.181	1960.53
196.399	601.86
196.618	408.19
196.836	484.16
197.055	358.76
197.273	326.75
197.491	365.95
197.71	245.61
197.928	293.21
198.146	263.29
198.365	153.37
198.583	161.69
198.801	278.27
199.019	806.18
199.238	575.98
199.456	563.31
199.674	544.27
199.892	-3377.52
200.111	-388.31
200.329	-311.02
200.547	-186.85
200.765	-116.43
200.983	-130.16
201.202	-112.77
201.42	-128.7
201.638	-148.12
201.856	-139.09
202.074	-243.07
202.292	-304.48
202.51	-289.94
202.728	-265.67
202.946	-1618.84
203.165	-14048.68
203.383	1685.46
203.601	505.27
203.819	1108.25
204.037	-714.95
204.255	-354.44
204.473	-123.72
204.691	-116.98
204.909	-44.1
205.127	-25.18
205.345	6.38
205.562	-32.09
205.78	-4.31
205.998	-13.06
206.216	-204.87
206.434	-1679.21
206.652	813.81
206.87	461.77
207.088	4106.86
207.306	628.6
207.523	251.38
207.741	212.52
207.959	198.77
208.177	195.61
208.395	182.83
208.612	182.97
208.83	163.21
209.048	149.87
209.266	144.2
209.483	113.99
209.701	105.96
209.919	123.28
210.136	154.77
210.354	168.9
210.572	154.39
210.79	187.02
211.007	138.43
211.225	143.19
211.442	159.84
211.66	104.29
211.878	68.44
212.095	-8.46
212.313	-8.73
212.53	-43.96
212.748	-18.36
212.966	-24.42
213.183	-30.21
213.401	-9.65
213.618	-20.96
213.836	-13.75
214.053	-17.37
214.271	-66.64
214.488	168.44
214.705	202.25
214.923	204.3
215.14	160.02
215.358	171.96
215.575	370.74
215.793	306.43
216.01	218.49
216.227	186.19
216.445	264.25
216.662	199.53
216.879	179.97
217.097	141.75
217.314	118.64
217.531	129.67
217.749	97.99
217.966	104.7
218.183	90.89
218.4	73.66
218.618	70.82
218.835	56.9
219.052	78.28
219.269	73.66
219.487	77.54
219.704	80.73
219.921	79.68
220.138	91.96
220.355	86.05
220.572	97.32
220.79	89.8
221.007	89.06
221.224	78.33
221.441	58.28
221.658	53.83
221.875	51.86
222.092	40.23
222.309	46.85
222.526	45.01
222.743	36.29
222.96	33
223.177	38.38
223.394	30.15
223.611	29.49
223.828	34.72
224.045	39.71
224.262	36.05
224.479	41
224.696	36.94
224.913	37.32
225.13	37.95
225.347	34.31
225.564	30.89
225.781	28.67
225.997	30.03
226.214	26.77
226.431	23.07
226.648	21.26
226.865	18.65
227.082	17.68
227.298	16.86
227.515	16.7
227.732	16.96
227.949	16.78
228.165	15.54
228.382	15.53
228.599	14.52
228.816	12.98
229.032	12.83
229.249	12.62
229.466	11.68
229.682	11.5
229.899	10.14
230.116	9.61
230.332	9.97
230.549	11.65
230.765	10.17
230.982	10.04
231.199	12.9
231.415	15.54
231.632	15.11
231.848	16.96
232.065	16.8
232.281	17.68
232.498	17.77
232.714	17.67
232.931	18.47
233.147	17.63
233.364	18.06
233.58	15.59
233.797	16.43
234.013	18.34
234.23	14.95
234.446	16.21
234.662	12.95
234.879	12.52
235.095	11.98
235.312	12.95
235.528	14.37
235.744	12.9
235.961	12.83
236.177	11.46
236.393	12.48
236.61	17.71
236.826	18.27
237.042	20.45
237.258	18.6
237.475	17.45
237.691	15.42
237.907	15.14
238.123	18.72
238.339	18.47
238.556	19.69
238.772	18.01
238.988	16.7
239.204	15.53
239.42	16.67
239.636	16.47
239.853	15.97
240.069	16.1
240.285	15.23
240.501	13.67
240.717	14.27
240.933	12.77
241.149	12.9
241.365	13
241.581	13.21
241.797	12.38
242.013	12.47
242.229	13.01
242.445	13.16
242.661	12.52
242.877	12.36
243.093	12.88
243.309	12.36
243.525	11.9
243.741	11.32
243.957	11.19
244.173	10.14
244.388	9.41
244.604	9.53
244.82	9.17
245.036	9.22
245.252	9.26
245.468	8.63
245.683	8.85
245.899	8.68
246.115	8.37
246.331	7.63
246.547	7.63
246.762	7.96
246.978	7.84
247.194	7.94
247.409	8.02
247.625	8.29
247.841	8.32
248.057	8.8
248.272	8.4
248.488	7.93
248.703	7.71
248.919	8.57
249.135	7.98
249.35	7.11
249.566	6.93
249.782	7.88
249.997	7.28
250.213	7.65
250.428	6.59
250.644	7.88
250.859	9.09
251.075	9.94
251.29	9.99
251.506	10.83
251.721	11.46
251.937	12.29
252.152	11.37
252.368	11.38
252.583	11.94
252.798	12.9
253.014	13.02
253.229	12.48
253.445	11.74
253.66	11.19
253.875	10.46
254.091	9.44
254.306	8.14
254.521	9.27
254.737	8.35
254.952	7.69
255.167	7.13
255.383	7.19
255.598	8.01
255.813	8.63
256.028	8.51
256.244	9.05
256.459	9.1
256.674	9.21
256.889	7.79
257.104	8.46
257.32	7.94
257.535	8.05
257.75	7.57
257.965	7.43
258.18	7.24
258.395	7.58
258.61	7.2
258.826	7.19
259.041	6.81
259.256	7.38
259.471	7.24
259.686	7.76
259.901	7.76
260.116	7.69
260.331	7.62
260.546	8.31
260.761	8.09
260.976	8.26
261.191	8.39
261.406	9.01
261.621	8.68
261.836	8.36
262.05	8.26
262.265	9.23
262.48	9.61
262.695	9.18
262.91	8.94
263.125	8.17
263.34	8.26
263.555	7.54
263.769	6.89
263.984	7.71
264.199	8.13
264.414	7.72
264.629	6.66
264.843	6.79
265.058	7.07
265.273	6.49
265.488	7.65
265.702	7.24
265.917	8.32
266.132	9.1
266.346	8.94
266.561	9.11
266.776	9.22
266.99	9.26
267.205	8.96
267.42	9.97
267.634	9.95
267.849	8.92
268.063	9.78
268.278	9.02
268.492	8.9
268.707	9.05
268.922	8.5
269.136	8.11
269.351	7.59
269.565	8.2
269.78	7.16
269.994	7.47
270.209	8.08
270.423	7.7
270.637	8.21
270.852	8.35
271.066	8.31
271.281	8.63
271.495	9.16
271.709	9.39
271.924	9.2
272.138	9.45
272.353	9.78
272.567	9.67
272.781	10.29
272.996	9.99
273.21	10.04
273.424	9.91
273.638	9.55
273.853	9.57
274.067	9.3
274.281	9.58
274.495	9.05
274.71	8.69
274.924	8.32
275.138	8.16
275.352	7.85
275.566	7.61
275.781	7.77
275.995	8.48
276.209	8.84
276.423	9.14
276.637	8.2
276.851	8.52
277.065	8.01
277.279	8.55
277.493	8.39
277.707	8.38
277.921	7.9
278.135	7.24
278.349	6.08
278.563	5.2
278.777	5.61
278.991	6.3
279.205	6.76
279.419	7.07
279.633	7.51
279.847	7.18
280.061	6.81
280.275	7.43
280.489	7.91
280.703	8.78
280.917	8.84
281.131	8.47
281.344	8.23
281.558	7.54
281.772	7.62
281.986	7.23
282.2	7.36
282.414	7.53
282.627	6.74
282.841	6.56
283.055	6.75
283.269	7
283.482	7.2
283.696	7.22
283.91	7.54
284.123	7.39
284.337	7.35
284.551	7.32
284.764	7.65
284.978	8.02
285.192	7.82
285.405	7.77
285.619	7.7
285.833	8.04
286.046	8.19
286.26	8.6
286.473	9.01
286.687	8.91
286.9	8.89
287.114	8.71
287.327	9.29
287.541	9.08
287.754	8.51
287.968	8.54
288.181	8.54
288.395	8.04
288.608	7.78
288.822	7.18
289.035	7.2
289.248	6.95
289.462	7.03
289.675	6.59
289.889	7.02
290.102	7.16
290.315	6.52
290.529	6.39
290.742	6.54
290.955	6.32
291.169	6.63
291.382	6.95
291.595	7.38
291.808	8.23
292.022	8.15
292.235	8
292.448	8.5
292.661	8.77
292.875	8.61
293.088	9.21
293.301	10.28
293.514	10.11
293.727	9.63
293.94	9.6
294.153	8.82
294.367	8.5
294.58	8.61
294.793	8.16
295.006	8.91
295.219	8.9
295.432	8.85
295.645	8.24
295.858	8.65
296.071	8.67
296.284	8.81
296.497	9.51
296.71	10.01
296.923	10.44
297.136	10.84
297.349	10.55
297.562	10.5
297.775	10.35
297.988	10.39
298.201	10.42
298.414	10.31
298.626	10.56
298.839	9.5
299.052	9.03
299.265	8.59
299.478	8.06
299.691	7.68
299.903	8.08
300.116	8.26
300.329	8.28
300.542	7.95
300.755	8.27
300.967	8.48
301.18	8.88
301.393	9.42
301.605	9.88
301.818	10.23
302.031	10.51
302.243	10.18
302.456	10.17
302.669	10.23
302.881	10.87
303.094	10.98
303.307	10.25
303.519	10.49
303.732	10.29
303.944	9.9
304.157	10.59
304.37	10.65
304.582	11.01
304.795	11.27
305.007	11.91
305.22	11.43
305.432	11.32
305.645	11.16
305.857	11.77
306.069	11.71
306.282	12.05
306.494	11.73
306.707	11.02
306.919	10.96
307.132	10.71
307.344	10.29
307.556	10.35
307.769	10.61
307.981	11.3
308.193	11.12
308.406	10.65
308.618	10.1
308.83	9.49
309.043	9.73
309.255	9.65
309.467	9.35
309.679	9.24
309.892	8.85
310.104	8.57
310.316	8.43
310.528	8.17
310.74	8.54
310.953	8.62
311.165	8.96
311.377	9.25
311.589	9.27
311.801	10.13
312.013	9.6
312.225	9.89
312.437	10.58
312.649	10.59
312.862	10.13
313.074	10.42
313.286	11.4
313.498	11.3
313.71	11.05
313.922	11.13
314.134	10.73
314.346	11.06
314.558	11.28
314.77	10.82
314.982	10.62
315.193	11.18
315.405	10.9
315.617	10.36
315.829	11.21
316.041	11.63
316.253	11.88
316.465	11.65
316.677	11.76
316.888	11.67
317.1	11.85
317.312	12.11
317.524	11.48
317.736	11.93
317.947	12.59
318.159	11.88
318.371	11.41
318.583	11.38
318.794	11.41
319.006	11.8
319.218	11.82
319.43	11.92
319.641	11.84
319.853	12.28
320.064	12.36
320.276	11.81
320.488	11.19
320.699	11.64
320.911	11.86
321.123	11.69
321.334	12.13
321.546	12.58
321.757	12.37
321.969	12.56
322.18	12.62
322.392	12.55
322.603	11.84
322.815	12.26
323.026	12.03
323.238	11.89
323.449	12.13
323.661	11.18
323.872	10.57
324.083	10.41
324.295	10.13
324.506	10.12
324.718	9.91
324.929	10.28
325.14	10.22
325.352	10.34
325.563	10.63
325.774	10.74
325.986	11.37
326.197	11.43
326.408	11.59
326.62	11.98
326.831	12.23
327.042	11.63
327.253	11.44
327.464	11.85
327.676	11.93
327.887	10.66
328.098	10.26
328.309	9.98
328.52	10.85
328.732	10.63
328.943	10.96
329.154	10.86
329.365	11.9
329.576	12.5
329.787	11.91
329.998	12.02
330.209	13.27
330.42	13.12
330.631	13.53
330.842	13.24
331.053	12.95
331.264	12.34
331.475	12.7
331.686	12.14
331.897	12
332.108	12.6
332.319	12.35
332.53	11.88
332.741	11.99
332.952	12.13
333.163	11.89
333.374	12.56
333.585	12.16
333.795	12.01
334.006	12.56
334.217	12.6
334.428	12.19
334.639	12.54
334.849	12.73
335.06	13.01
335.271	12.31
335.482	11.76
335.692	11.44
335.903	11.45
336.114	10.85
336.325	10.98
336.535	10.85
336.746	10.84
336.957	11.3
337.167	11.01
337.378	11.17
337.589	11.77
337.799	11.92
338.01	12.36
338.22	12.43
338.431	12.45
338.642	12.29
338.852	12.11
339.063	12.17
339.273	11.46
339.484	11.56
339.694	11.36
339.905	11.54
340.115	11.8
340.326	11.65
340.536	12.04
340.746	12.33
340.957	11.84
341.167	11.89
341.378	11.95
341.588	11.88
341.799	11.71
342.009	11.23
342.219	10.37
342.43	9.83
342.64	9.41
342.85	9.05
343.061	8.77
343.271	9.12
343.481	9.4
343.691	9.58
343.902	9.45
344.112	9.63
344.322	9.93
344.532	10.19
344.743	10.91
344.953	11.23
345.163	11
345.373	11.24
345.583	10.8
345.793	10.65
346.004	10.98
346.214	10.92
346.424	11.17
346.634	11.15
346.844	11.41
347.054	11.17
347.264	11.34
347.474	11.95
347.684	11.71
347.894	12.05
348.104	12.64
348.314	11.8
348.524	11.8
348.734	11.62
348.944	11.79
349.154	11.61
349.364	11.68
349.574	11.24
349.784	10.69
349.994	10.8
350.204	10.14
350.413	9.33
350.623	9.29
350.833	9.38
351.043	9
351.253	8.85
351.463	8.99
351.672	8.74
351.882	9.12
352.092	9.4
352.302	9.65
352.511	10.4
352.721	10.28
352.931	10.77
353.141	10.86
353.35	10.95
353.56	10.82
353.77	10.27
353.979	10.02
354.189	9.66
354.399	9.67
354.608	9.63
354.818	9.58
355.027	9.71
355.237	9.2
355.447	8.98
355.656	8.97
355.866	9.17
356.075	9.52
356.285	9.66
356.494	10.09
356.704	10.02
356.913	9.88
357.123	9.25
357.332	8.85
357.542	9.1
357.751	9.5
357.96	9.76
358.17	9.47
358.379	9.4
358.589	9.5
358.798	9.36
359.007	9.29
359.217	9.29
359.426	9.42
359.635	9.76
359.845	9.65
360.054	9.27
360.263	9.02
360.472	9.1
360.682	9
360.891	8.86
361.1	8.66
361.309	8.88
361.519	8.95
361.728	8.96
361.937	9.08
362.146	9.03
362.355	8.85
362.564	8.79
362.774	8.7
362.983	8.41
363.192	8.36
363.401	8.26
363.61	7.96
363.819	7.91
364.028	7.96
364.237	7.19
364.446	7.06
364.655	7.1
364.864	7.21
365.073	7.64
365.282	7.77
365.491	7.71
365.7	7.78
365.909	7.77
366.118	7.4
366.327	7.44
366.536	8.04
366.745	8.17
366.954	8.25
367.162	8.37
367.371	8.1
367.58	8.28
367.789	8.21
367.998	7.87
368.207	7.76
368.415	7.89
368.624	8.06
368.833	8
369.042	8.18
369.25	8.76
369.459	8.58
369.668	8.13
369.877	8.12
370.085	8.24
370.294	8.11
370.503	7.8
370.711	7.69
370.92	7.67
371.129	7.4
371.337	6.61
371.546	5.97
371.754	5.77
371.963	5.85
372.171	5.55
372.38	5.29
372.589	5.72
372.797	6.15
373.006	6.45
373.214	6.24
373.423	6.5
373.631	7.18
373.84	7.17
374.048	7.15
374.256	7.24
374.465	7.69
374.673	7.77
374.882	7.53
375.09	7.21
375.298	6.95
375.507	6.94
375.715	6.74
375.923	6.75
376.132	6.49
376.34	6.53
376.548	6.32
376.757	6.07
376.965	6.14
377.173	6.4
377.381	6.83
377.59	6.7
377.798	6.55
378.006	6.55
378.214	6.85
378.423	6.98
378.631	6.94
378.839	7.27
379.047	7.5
379.255	7.29
379.463	6.96
379.671	6.57
379.879	6.85
380.088	6.71
380.296	6.91
380.504	6.6
380.712	6.97
380.92	6.87
381.128	6.73
381.336	6.01
381.544	5.92
381.752	5.91
381.96	6.03
382.168	5.96
382.376	6.02
382.584	5.73
382.791	5.73
382.999	5.41
383.207	5.31
383.415	5.38
383.623	5.66
383.831	5.91
384.039	5.95
384.247	5.75
384.454	5.32
384.662	5.22
384.87	5.16
385.078	4.84
385.285	4.91
385.493	4.92
385.701	4.77
385.909	4.97
386.116	4.9
386.324	4.8
386.532	4.95
386.739	5.35
386.947	5.18
387.155	5.5
387.362	5.69
387.57	5.65
387.778	5.96
387.985	5.91
388.193	5.73
388.4	5.62
388.608	5.65
388.816	5.61
389.023	5.13
389.231	5.08
389.438	4.73
389.646	4.87
389.853	4.7
390.061	4.33
390.268	4.51
390.475	4.45
390.683	4.63
390.89	4.62
391.098	4.6
391.305	5.05
391.512	5.1
391.72	5.12
391.927	4.91
392.135	4.92
392.342	5.13
392.549	4.94
392.756	5.08
392.964	4.86
393.171	4.82
393.378	4.92
393.586	4.81
393.793	4.88
394	4.79
394.207	4.81
394.414	5.06
394.622	5.05
394.829	5.1
395.036	4.94
395.243	4.98
395.45	4.87
395.657	4.7
395.864	4.61
396.072	4.9
396.279	4.83
396.486	4.73
396.693	4.61
396.9	4.34
397.107	4.22
397.314	4.12
397.521	4.03
397.728	4.13
397.935	4.19
398.142	4.18
398.349	3.99
398.556	4.12
398.763	4.11
398.97	3.95
399.177	4.25
399.383	4.26
399.59	4.5
399.797	4.34
400.004	4.31
400.211	4.25
400.418	4.18
400.625	3.98
400.831	4.05
401.038	4.14
401.245	4.26
401.452	3.96
401.658	4.01
401.865	3.82
402.072	3.94
402.279	4.06
402.485	3.91
402.692	3.96
402.899	3.98
403.105	3.89
403.312	3.81
403.519	3.78
403.725	3.81
403.932	3.8
404.138	3.83
404.345	3.83
404.552	3.67
404.758	3.95
404.965	3.85
405.171	3.7
405.378	3.73
405.584	3.69
405.791	3.65
405.997	3.7
406.204	3.72
406.41	3.67
406.617	3.72
406.823	3.71
407.029	3.48
407.236	3.68
407.442	3.91
407.649	4.01
407.855	4.01
408.061	4.05
408.268	4
408.474	3.92
408.68	3.89
408.887	3.88
409.093	3.82
409.299	3.91
409.505	3.7
409.712	3.48
409.918	3.2
410.124	3.28
410.33	3.22
410.537	3.1
410.743	3.14
410.949	3.35
411.155	3.31
411.361	3.25
411.567	3.12
411.773	3.1
411.98	3.26
412.186	3.5
412.392	3.21
412.598	3.13
412.804	3.3
413.01	3.28
413.216	3.14
413.422	3.11
413.628	3.22
413.834	3.27
414.04	3.33
414.246	3.24
414.452	3.06
414.658	3.02
414.864	2.98
415.07	2.88
415.275	2.95
415.481	2.95
415.687	2.86
415.893	2.83
416.099	2.82
416.305	2.87
416.511	2.91
416.716	2.94
416.922	3.06
417.128	3.13
417.334	3.1
417.539	3.02
417.745	2.99
417.951	3.01
418.157	2.97
418.362	3
418.568	2.96
418.774	2.87
418.979	2.79
419.185	2.84
419.391	2.82
419.596	2.9
419.802	2.83
420.008	2.86
420.213	2.45
420.419	2.51
420.624	2.55
420.83	2.49
421.035	2.59
421.241	2.67
421.446	2.67
421.652	2.62
421.857	2.62
422.063	2.62
422.268	2.58
422.474	2.98
422.679	2.93
422.885	2.93
423.09	2.92
423.295	2.88
423.501	2.86
423.706	2.72
423.911	2.73
424.117	2.64
424.322	2.73
424.527	2.76
424.733	2.82
424.938	2.82
425.143	2.77
425.349	2.85
425.554	2.85
425.759	3.02
425.964	3.17
426.169	3.21
426.375	3.33
426.58	3.38
426.785	3.45
426.99	3.46
427.195	3.46
427.4	3.34
427.605	3.28
427.811	3.3
428.016	3.04
428.221	3.04
428.426	3.02
428.631	2.91
428.836	2.8
429.041	2.7
429.246	2.58
429.451	2.66
429.656	2.68
429.861	2.72
430.066	2.63
430.271	2.74
430.476	2.77
430.681	2.85
430.886	2.82
431.09	2.87
431.295	2.85
431.5	2.89
431.705	2.76
431.91	2.76
432.115	2.74
432.32	2.85
432.524	2.85
432.729	2.93
432.934	2.96
433.139	2.96
433.343	2.96
433.548	2.99
433.753	3.07
433.958	3.18
434.162	3.34
434.367	3.37
434.572	3.31
434.776	3.25
434.981	3.1
435.186	3.03
435.39	3.04
435.595	3.06
435.799	3.15
436.004	3.21
436.209	3.08
436.413	2.93
436.618	2.78
436.822	2.78
437.027	2.71
437.231	2.69
437.436	2.63
437.64	2.61
437.845	2.6
438.049	2.46
438.253	2.34
438.458	2.43
438.662	2.5
438.867	2.52
439.071	2.6
439.275	2.65
439.48	2.64
439.684	2.7
439.888	2.7
440.093	2.68
440.297	2.73
440.501	2.74
440.706	2.73
440.91	2.71
441.114	2.75
441.318	2.77
441.523	2.75
441.727	2.81
441.931	2.75
442.135	2.79
442.339	2.82
442.543	2.95
442.748	2.89
442.952	2.88
443.156	2.9
443.36	2.82
443.564	2.84
443.768	2.84
443.972	2.83
444.176	2.93
444.38	2.92
444.584	2.81
444.788	2.65
444.992	2.67
445.196	2.63
445.4	2.5
445.604	2.57
445.808	2.55
446.012	2.53
446.216	2.5
446.42	2.45
446.624	2.47
446.828	2.56
447.032	2.61
447.235	2.61
447.439	2.6
447.643	2.69
447.847	2.7
448.051	2.63
448.254	2.68
448.458	2.69
448.662	2.59
448.866	2.54
449.069	2.42
449.273	2.41
449.477	2.42
449.681	2.47
449.884	2.4
450.088	2.33
450.292	2.35
450.495	2.24
450.699	2.34
450.902	2.44
451.106	2.44
451.31	2.5
451.513	2.46
451.717	2.46
451.92	2.53
452.124	2.52
452.327	2.61
452.531	2.55
452.734	2.54
452.938	2.48
453.141	2.41
453.345	2.39
453.548	2.42
453.752	2.48
453.955	2.63
454.158	2.55
454.362	2.59
454.565	2.7
454.769	2.66
454.972	2.82
455.175	2.87
455.379	2.96
455.582	2.92
455.785	2.92
455.988	2.89
456.192	2.69
456.395	2.64
456.598	2.62
456.801	2.53
457.005	2.68
457.208	2.67
457.411	2.64
457.614	2.6
457.817	2.58
458.021	2.59
458.224	2.67
458.427	2.78
458.63	2.78
458.833	2.81
459.036	2.77
459.239	2.67
459.442	2.61
459.645	2.66
459.848	2.62
460.051	2.73
460.254	2.7
460.457	2.64
460.66	2.59
460.863	2.59
461.066	2.51
461.269	2.53
461.472	2.57
461.675	2.54
461.878	2.45
462.081	2.45
462.284	2.36
462.486	2.36
462.689	2.31
462.892	2.29
463.095	2.32
463.298	2.39
463.5	2.45
463.703	2.47
463.906	2.54
464.109	2.44
464.311	2.5
464.514	2.62
464.717	2.65
464.92	2.62
465.122	2.48
465.325	2.55
465.528	2.57
465.73	2.52
465.933	2.5
466.135	2.48
466.338	2.67
466.541	2.76
466.743	2.74
466.946	2.62
467.148	2.69
467.351	2.8
467.553	2.73
467.756	2.74
467.958	2.69
468.161	2.64
468.363	2.59
468.566	2.54
468.768	2.35
468.971	2.33
469.173	2.42
469.375	2.39
469.578	2.31
469.78	2.39
469.983	2.41
470.185	2.4
470.387	2.52
470.59	2.56
470.792	2.56
470.994	2.66
471.196	2.67
471.399	2.61
471.601	2.65
471.803	2.79
472.005	2.67
472.208	2.67
472.41	2.7
472.612	2.73
472.814	2.83
473.016	2.75
473.218	2.69
473.421	2.63
473.623	2.65
473.825	2.65
474.027	2.52
474.229	2.56
474.431	2.5
474.633	2.53
474.835	2.47
475.037	2.44
475.239	2.47
475.441	2.51
475.643	2.48
475.845	2.44
476.047	2.42
476.249	2.49
476.451	2.46
476.653	2.49
476.855	2.53
477.057	2.54
477.258	2.53
477.46	2.53
477.662	2.54
477.864	2.59
478.066	2.69
478.268	2.67
478.469	2.76
478.671	2.81
478.873	2.75
479.075	2.67
479.276	2.68
479.478	2.63
479.68	2.68
479.882	2.65
480.083	2.67
480.285	2.62
480.487	2.59
480.688	2.57
480.89	2.58
481.091	2.6
481.293	2.61
481.495	2.59
481.696	2.59
481.898	2.55
482.099	2.55
482.301	2.52
482.502	2.57
482.704	2.57
482.905	2.55
483.107	2.55
483.308	2.54
483.51	2.51
483.711	2.53
483.913	2.51
484.114	2.51
484.315	2.51
484.517	2.52
484.718	2.48
484.92	2.5
485.121	2.5
485.322	2.51
485.524	2.53
485.725	2.59
485.926	2.6
486.127	2.61
486.329	2.66
486.53	2.66
486.731	2.7
486.932	2.7
487.134	2.71
487.335	2.73
487.536	2.7
487.737	2.69
487.938	2.65
488.139	2.59
488.341	2.65
488.542	2.63
488.743	2.61
488.944	2.53
489.145	2.56
489.346	2.58
489.547	2.58
489.748	2.66
489.949	2.68
490.15	2.71
490.351	2.74
490.552	2.74
490.753	2.71
490.954	2.74
491.155	2.76
491.356	2.73
491.557	2.71
491.758	2.75
491.959	2.72
492.159	2.76
492.36	2.84
492.561	2.85
492.762	2.83
492.963	2.87
493.164	2.83
493.364	2.91
493.565	2.93
493.766	2.89
493.967	2.86
494.167	2.8
494.368	2.8
494.569	2.62
494.769	2.65
494.97	2.71
495.171	2.77
495.371	2.79
495.572	2.77
495.773	2.79
495.973	2.84
496.174	2.83
496.375	2.86
496.575	2.83
496.776	2.89
496.976	2.88
497.177	2.87
497.377	2.83
497.578	2.83
497.778	2.85
497.979	2.84
498.179	2.81
498.38	2.9
498.58	3
498.78	3.06
498.981	3.12
499.181	3.16
499.382	3.19
499.582	3.19
499.782	3.31
499.983	3.29
500.183	3.33
500.383	3.41
500.584	3.32
500.784	3.15
500.984	3.15
501.184	3.14
501.385	3.21
501.585	3.19
501.785	3.19
501.985	3.26
502.185	3.26
502.386	3.27
502.586	3.28
502.786	3.34
502.986	3.37
503.186	3.42
503.386	3.37
503.586	3.28
503.786	3.29
503.987	3.34
504.187	3.27
504.387	3.27
504.587	3.27
504.787	3.22
504.987	3.18
505.187	3.19
505.387	3.07
505.587	3.12
505.786	3.13
505.986	3.15
506.186	3.2
506.386	3.13
506.586	3.17
506.786	3.15
506.986	3.27
507.186	3.28
507.386	3.33
507.585	3.42
507.785	3.42
507.985	3.49
508.185	3.54
508.384	3.52
508.584	3.59
508.784	3.56
508.984	3.62
509.183	3.56
509.383	3.61
509.583	3.63
509.782	3.65
509.982	3.67
510.182	3.64
510.381	3.56
510.581	3.57
510.781	3.63
510.98	3.68
511.18	3.69
511.379	3.75
511.579	3.74
511.778	3.78
511.978	3.73
512.177	3.82
512.377	3.87
512.576	3.88
512.776	3.87
512.975	3.84
513.175	3.91
513.374	3.89
513.573	3.9
513.773	3.94
513.972	3.97
514.172	4.05
514.371	4.07
514.57	4.09
514.77	4.19
514.969	4.2
515.168	4.27
515.367	4.23
515.567	4.29
515.766	4.23
515.965	4.17
516.164	4.14
516.364	4.15
516.563	4.1
516.762	4.01
516.961	4.01
517.16	4.06
517.359	4.05
517.559	4.08
517.758	4.02
517.957	4.05
518.156	4.19
518.355	4.19
518.554	4.19
518.753	4.23
518.952	4.32
519.151	4.36
519.35	4.35
519.549	4.36
519.748	4.46
519.947	4.6
520.146	4.59
520.345	4.53
520.544	4.61
520.743	4.61
520.942	4.64
521.141	4.59
521.339	4.61
521.538	4.66
521.737	4.64
521.936	4.61
522.135	4.6
522.333	4.66
522.532	4.64
522.731	4.62
522.93	4.67
523.129	4.69
523.327	4.79
523.526	4.76
523.725	4.72
523.923	4.69
524.122	4.64
524.321	4.66
524.519	4.68
524.718	4.74
524.917	4.78
525.115	4.79
525.314	4.78
525.512	4.79
525.711	4.79
525.909	4.8
526.108	4.84
526.306	4.92
526.505	4.91
526.703	4.87
526.902	4.86
527.1	4.86
527.299	4.86
527.497	4.87
527.696	4.88
527.894	4.9
528.092	4.91
528.291	4.91
528.489	4.89
528.688	4.91
528.886	4.95
529.084	4.96
529.283	4.97
529.481	5.02
529.679	5.09
529.877	5.07
530.076	5.13
530.274	5.19
530.472	5.25
530.67	5.28
530.869	5.24
531.067	5.24
531.265	5.24
531.463	5.24
531.661	5.19
531.859	5.14
532.057	5.19
532.255	5.19
532.454	5.14
532.652	5.16
532.85	5.15
533.048	5.19
533.246	5.2
533.444	5.25
533.642	5.31
533.84	5.36
534.038	5.42
534.236	5.46
534.434	5.46
534.632	5.57
534.83	5.58
535.027	5.64
535.225	5.7
535.423	5.75
535.621	5.78
535.819	5.75
536.017	5.78
536.215	5.75
536.412	5.76
536.61	5.76
536.808	5.72
537.006	5.73
537.203	5.67
537.401	5.69
537.599	5.72
537.797	5.75
537.994	5.82
538.192	5.88
538.39	5.95
538.587	5.95
538.785	6.07
538.983	6.14
539.18	6.11
539.378	6.15
539.575	6.16
539.773	6.15
539.97	6.22
540.168	6.21
540.366	6.22
540.563	6.24
540.761	6.24
540.958	6.23
541.155	6.26
541.353	6.37
541.55	6.4
541.748	6.42
541.945	6.48
542.143	6.43
542.34	6.52
542.537	6.54
542.735	6.6
542.932	6.67
543.129	6.64
543.327	6.65
543.524	6.69
543.721	6.72
543.919	6.79
544.116	6.87
544.313	7
544.51	6.98
544.708	6.99
544.905	7
545.102	7.06
545.299	7.11
545.496	7.11
545.693	7.11
545.891	7.18
546.088	7.12
546.285	7.11
546.482	7.07
546.679	7.11
546.876	7.19
547.073	7.24
547.27	7.19
547.467	7.2
547.664	7.25
547.861	7.23
548.058	7.29
548.255	7.4
548.452	7.51
548.649	7.52
548.846	7.7
549.043	7.62
549.24	7.58
549.437	7.64
549.633	7.8
549.83	7.87
550.027	8.06
550.224	8.13
550.421	8.3
550.618	8.25
550.814	8.36
551.011	8.33
551.208	8.43
551.405	8.54
551.601	8.64
551.798	8.7
551.995	8.7
552.191	8.67
552.388	8.69
552.585	8.59
552.781	8.65
552.978	8.62
553.175	8.56
553.371	8.7
553.568	8.77
553.764	8.79
553.961	8.8
554.157	8.87
554.354	8.98
554.55	8.99
554.747	9.13
554.943	9.07
555.14	9.13
555.336	9.25
555.533	9.17
555.729	9.36
555.926	9.35
556.122	9.46
556.318	9.53
556.515	9.53
556.711	9.64
556.907	9.7
557.104	9.95
557.3	10.05
557.496	10.06
557.693	10.23
557.889	10.23
558.085	10.41
558.281	10.5
558.478	10.57
558.674	10.69
558.87	10.61
559.066	10.67
559.262	10.6
559.459	10.73
559.655	10.9
559.851	10.97
560.047	10.93
560.243	11
560.439	11.08
560.635	11.08
560.831	11.09
561.027	11.15
561.223	11.18
561.419	11.38
561.615	11.32
561.811	11.35
562.007	11.32
562.203	11.52
562.399	11.5
562.595	11.43
562.791	11.74
562.987	11.85
563.183	12.04
563.379	12.03
563.575	12.05
563.771	12.2
563.966	12.16
564.162	12.26
564.358	12.29
564.554	12.38
564.75	12.44
564.945	12.3
565.141	12.35
565.337	12.41
565.533	12.53
565.728	12.59
565.924	12.56
566.12	12.7
566.315	12.76
566.511	12.81
566.707	12.78
566.902	12.94
567.098	13.05
567.293	13.03
567.489	13.03
567.684	13.02
567.88	13.05
568.076	13.11
568.271	13.2
568.467	13.22
568.662	13.16
568.858	13.28
569.053	13.26
569.248	13.18
569.444	13.31
569.639	13.35
569.835	13.51
570.03	13.51
570.225	13.61
570.421	13.67
570.616	13.81
570.812	13.92
571.007	13.97
571.202	14.06
571.397	14.15
571.593	14.17
571.788	14.23
571.983	14.2
572.178	14.36
572.374	14.46
572.569	14.47
572.764	14.42
572.959	14.46
573.154	14.49
573.35	14.43
573.545	14.55
573.74	14.5
573.935	14.52
574.13	14.46
574.325	14.43
574.52	14.47
574.715	14.46
574.91	14.57
575.105	14.63
575.3	14.65
575.495	14.78
575.69	14.81
575.885	14.92
576.08	15.03
576.275	15.19
576.47	15.15
576.665	15.08
576.86	15.17
577.055	15.02
577.25	14.94
577.444	14.96
577.639	15.05
577.834	15.09
578.029	15.11
578.224	15.14
578.418	15.27
578.613	15.34
578.808	15.38
579.003	15.31
579.197	15.48
579.392	15.61
579.587	15.77
579.781	15.86
579.976	15.94
580.171	16.13
580.365	16.02
580.56	16.08
580.755	16.17
580.949	16.29
581.144	16.36
581.338	16.28
581.533	16.32
581.727	16.18
581.922	16.1
582.116	16.06
582.311	16.04
582.505	16.11
582.7	16.02
582.894	16.1
583.089	15.99
583.283	15.98
583.478	16.22
583.672	16.21
583.866	16.4
584.061	16.41
584.255	16.38
584.449	16.3
584.644	16.37
584.838	16.46
585.032	16.34
585.226	16.36
585.421	16.56
585.615	16.52
585.809	16.52
586.003	16.44
586.198	16.37
586.392	16.34
586.586	16.46
586.78	16.52
586.974	16.6
587.168	16.59
587.363	16.61
587.557	16.46
587.751	16.51
587.945	16.59
588.139	16.77
588.333	16.84
588.527	16.93
588.721	16.86
588.915	16.77
589.109	16.74
589.303	16.84
589.497	16.92
589.691	17.14
589.885	17.19
590.079	17.32
590.273	17.19
590.466	17.24
590.66	17.13
590.854	17.25
591.048	17.25
591.242	17.21
591.436	17.19
591.629	17.22
591.823	17.07
592.017	17.07
592.211	16.95
592.404	16.94
592.598	16.96
592.792	17.05
592.986	16.88
593.179	16.95
593.373	17
593.567	17.16
593.76	17.07
593.954	17.2
594.147	17.18
594.341	17.13
594.535	17.25
594.728	17.25
594.922	17.35
595.115	17.22
595.309	17.3
595.502	17.31
595.696	17.26
595.889	17.35
596.083	17.32
596.276	17.39
596.47	17.49
596.663	17.35
596.856	17.39
597.05	17.42
597.243	17.72
597.437	17.75
597.63	17.81
597.823	17.88
598.017	17.88
598.21	17.88
598.403	17.87
598.596	17.9
598.79	18.15
598.983	18.11
599.176	18
599.369	17.95
599.563	18.01
599.756	18
599.949	18.04
600.142	18.08
600.335	18.31
600.528	18.37
600.722	18.33
600.915	18.37
601.108	18.37
601.301	18.6
601.494	18.66
601.687	18.6
601.88	18.6
602.073	18.49
602.266	18.43
602.459	18.22
602.652	18.1
602.845	18.12
603.038	17.92
603.231	17.95
603.424	17.85
603.617	17.9
603.809	17.86
604.002	17.81
604.195	17.88
604.388	17.99
604.581	18.03
604.774	18.12
604.966	17.97
605.159	18.04
605.352	17.98
605.545	18.05
605.737	17.96
605.93	17.95
606.123	18.02
606.316	18.03
606.508	18.06
606.701	18.14
606.894	17.94
607.086	18.15
607.279	18.15
607.471	18.24
607.664	18.24
607.857	18.18
608.049	18.22
608.242	18.18
608.434	18.12
608.627	18.06
608.819	17.93
609.012	18.1
609.204	18.03
609.397	18.02
609.589	18.07
609.782	18.13
609.974	18.22
610.166	18.28
610.359	18.43
610.551	18.51
610.743	18.39
610.936	18.52
611.128	18.56
611.32	18.61
611.513	18.88
611.705	18.79
611.897	18.53
612.09	18.51
612.282	18.52
612.474	18.25
612.666	18.44
612.858	18.52
613.051	18.46
613.243	18.58
613.435	18.57
613.627	18.39
613.819	18.34
614.011	18.78
614.203	18.83
614.395	18.83
614.588	19.02
614.78	18.58
614.972	18.64
615.164	18.5
615.356	18.18
615.548	18.19
615.74	18.29
615.932	18.22
616.124	17.84
616.315	17.96
616.507	17.97
616.699	17.96
616.891	18.1
617.083	18.14
617.275	18.51
617.467	18.77
617.659	18.76
617.85	18.58
618.042	18.76
618.234	18.92
618.426	18.78
618.618	18.61
618.809	18.57
619.001	18.68
619.193	18.58
619.384	18.34
619.576	18.27
619.768	18.11
619.959	18.06
620.151	18.03
620.343	18
620.534	17.82
620.726	18.03
620.917	18.1
621.109	18.03
621.301	18.14
621.492	18.22
621.684	18.28
621.875	18.49
622.067	18.6
622.258	18.41
622.45	18.35
622.641	18.51
622.832	18.41
623.024	18.37
623.215	18.38
623.407	18.24
623.598	18.21
623.789	18.23
623.981	18.1
624.172	18.11
624.363	18.35
624.555	18.31
624.746	18.35
624.937	18.36
625.129	18.44
625.32	18.47
625.511	18.63
625.702	18.71
625.893	18.56
626.085	18.72
626.276	18.63
626.467	18.56
626.658	18.59
626.849	18.62
627.04	18.5
627.231	18.44
627.422	18.37
627.614	18.25
627.805	18.19
627.996	18.18
628.187	17.95
628.378	18.19
628.569	18.44
628.76	18.48
628.951	18.39
629.142	18.44
629.332	18.42
629.523	18.55
629.714	18.49
629.905	18.48
630.096	18.58
630.287	18.7
630.478	18.65
630.669	18.52
630.859	18.7
631.05	18.64
631.241	18.78
631.432	18.7
631.623	18.7
631.813	18.79
632.004	18.59
632.195	18.55
632.385	18.55
632.576	18.43
632.767	18.46
632.957	18.38
633.148	18.53
633.339	18.36
633.529	18.41
633.72	18.37
633.91	18.46
634.101	18.64
634.292	18.67
634.482	18.65
634.673	18.8
634.863	18.74
635.054	18.68
635.244	18.54
635.435	18.62
635.625	18.69
635.815	18.82
636.006	18.65
636.196	18.63
636.387	18.56
636.577	18.59
636.767	18.47
636.958	18.48
637.148	18.38
637.338	18.55
637.529	18.61
637.719	18.69
637.909	18.61
638.099	18.81
638.29	19.03
638.48	19.01
638.67	19.03
638.86	19.02
639.05	18.92
639.241	19.14
639.431	19.24
639.621	19.18
639.811	19.19
640.001	19.17
640.191	18.95
640.381	18.62
640.571	18.83
640.761	18.81
640.951	18.86
641.141	18.77
641.331	18.46
641.521	18.27
641.711	18.52
641.901	18.41
642.091	18.29
642.281	18.33
642.471	18.2
642.661	18.21
642.851	18.19
643.041	18.31
643.231	18.47
643.42	18.64
643.61	18.79
643.8	18.56
643.99	18.68
644.18	18.68
644.369	18.63
644.559	18.96
644.749	18.82
644.939	18.9
645.128	18.71
645.318	18.63
645.508	18.65
645.697	18.57
645.887	18.51
646.076	18.43
646.266	18.34
646.456	18.54
646.645	18.67
646.835	18.62
647.024	18.86
647.214	19.13
647.403	19.03
647.593	19.2
647.782	19.16
647.972	19.26
648.161	19.07
648.351	19.26
648.54	19.17
648.73	18.98
648.919	18.88
649.108	18.78
649.298	18.84
649.487	19.04
649.677	18.93
649.866	18.94
650.055	18.85
650.244	18.88
650.434	18.9
650.623	18.84
650.812	18.89
651.002	18.99
651.191	18.77
651.38	18.56
651.569	18.5
651.758	18.42
651.947	18.45
652.137	18.47
652.326	18.64
652.515	18.7
652.704	18.91
652.893	18.93
653.082	19.22
653.271	19.39
653.46	19.37
653.649	19.44
653.838	19.49
654.027	19.36
654.216	19.42
654.405	19.29
654.594	19.39
654.783	19.26
654.972	19.23
655.161	19.05
655.35	19.05
655.539	19.16
655.728	19.07
655.916	19.33
656.105	19.22
656.294	19.12
656.483	19.17
656.672	18.97
656.86	18.97
657.049	18.99
657.238	18.97
657.427	19.02
657.615	19
657.804	19.01
657.993	18.82
658.181	19.08
658.37	19.17
658.559	19.1
658.747	19.28
658.936	19.25
659.125	19.52
659.313	19.51
659.502	19.45
659.69	19.3
659.879	19.36
660.067	19.34
660.256	19.1
660.444	19.18
660.633	19.36
660.821	19.27
661.01	19.3
661.198	19.02
661.387	19.15
661.575	18.91
661.763	19.04
661.952	18.82
662.14	18.66
662.328	18.8
662.517	18.7
662.705	18.51
662.893	18.16
663.082	18.35
663.27	18.17
663.458	18.29
663.646	18.63
663.834	18.68
664.023	18.86
664.211	19.04
664.399	19.1
664.587	19.19
664.775	19.35
664.963	19.86
665.152	19.69
665.34	19.98
665.528	19.6
665.716	19.56
665.904	19.55
666.092	19.69
666.28	19.82
666.468	19.62
666.656	19.64
666.844	19.68
667.032	19.65
667.22	20
667.408	19.62
667.596	19.95
667.784	19.94
667.971	20.01
668.159	19.94
668.347	19.69
668.535	19.73
668.723	19.65
668.911	19.64
669.098	19.28
669.286	18.97
669.474	19.08
669.662	18.96
669.849	19.06
670.037	19.17
670.225	19.24
670.413	19.58
670.6	19.51
670.788	19.65
670.976	19.69
671.163	19.86
671.351	19.71
671.538	19.89
671.726	19.91
671.913	19.79
672.101	19.49
672.289	19.44
672.476	19.15
672.664	19.26
672.851	19.26
673.039	18.98
673.226	19.08
673.413	19.15
673.601	19.15
673.788	19.42
673.976	19.31
674.163	19.36
674.35	19.58
674.538	19.75
674.725	19.84
674.912	19.72
675.1	19.85
675.287	19.74
675.474	19.62
675.662	19.65
675.849	19.64
676.036	19.7
676.223	19.61
676.411	19.38
676.598	19.4
676.785	19.6
676.972	19.81
677.159	20.03
677.346	19.83
677.533	20.21
677.721	20.08
677.908	19.81
678.095	19.81
678.282	19.89
678.469	19.92
678.656	19.9
678.843	19.77
679.03	19.56
679.217	19.62
679.404	19.9
679.591	19.68
679.778	19.77
679.964	20.02
680.151	19.8
680.338	19.93
680.525	19.63
680.712	19.66
680.899	19.69
681.086	19.74
681.272	19.55
681.459	19.39
681.646	19.17
681.833	18.93
682.02	18.7
682.206	19.09
682.393	19.24
682.58	19.34
682.766	19.06
682.953	18.87
683.14	18.73
683.326	19.39
683.513	19.46
683.7	19.78
683.886	20.04
684.073	20.11
684.259	19.82
684.446	19.49
684.632	19.65
684.819	19.98
685.005	20.25
685.192	20.41
685.378	19.79
685.565	19.91
685.751	19.74
685.938	19.78
686.124	19.68
686.31	19.69
686.497	19.66
686.683	19.83
686.87	19.77
687.056	19.72
687.242	19.47
687.429	19.82
687.615	19.76
687.801	19.71
687.987	19.39
688.174	19.47
688.36	19.45
688.546	19.46
688.732	19.37
688.918	19.49
689.105	19.58
689.291	19.91
689.477	19.63
689.663	19.68
689.849	19.67
690.035	20.1
690.221	19.87
690.407	20.3
690.593	20.24
690.779	20.16
690.965	20
691.151	19.83
691.337	19.83
691.523	19.8
691.709	19.74
691.895	20.13
692.081	19.89
692.267	19.92
692.453	19.73
692.639	19.87
692.825	19.79
693.011	19.58
693.196	19.87
693.382	19.42
693.568	19.27
693.754	19.47
693.94	19.38
694.125	19.49
694.311	19.57
694.497	19.26
694.682	19.35
694.868	19.17
695.054	19.08
695.239	18.67
695.425	18.99
695.611	19.22
695.796	18.98
695.982	18.92
696.168	18.97
696.353	19
696.539	19.12
696.724	19.1
696.91	19.39
697.095	19.65
697.281	19.76
697.466	19.85
697.652	19.89
697.837	19.96
698.023	19.94
698.208	19.63
698.393	19.5
698.579	19.61
698.764	19.42
698.949	19.11
699.135	19.22
699.32	19.17
699.505	18.95
699.691	18.62
699.876	18.38
700.061	18.51
700.246	18.83
700.432	19.16
700.617	19.42
700.802	19.79
700.987	20.26
701.172	20.42
701.358	20.38
701.543	20.63
701.728	20.64
701.913	20.75
702.098	20.69
702.283	20.66
702.468	20.7
702.653	20.1
702.838	20.1
703.023	19.94
703.208	19.54
703.393	20.13
703.578	19.91
703.763	20.27
703.948	20.15
704.133	20.05
704.318	20.13
704.503	20.02
704.688	20.46
704.873	20.23
705.057	20.23
705.242	20.17
705.427	19.76
705.612	19.88
705.797	20.08
705.981	20.59
706.166	20.81
706.351	20.47
706.536	20.42
706.72	19.97
706.905	19.98
707.09	20.02
707.274	20.07
707.459	20.23
707.644	20.39
707.828	19.93
708.013	19.52
708.197	19.22
708.382	19.4
708.567	19.34
708.751	19.56
708.936	19.62
709.12	19.69
709.305	19.35
709.489	19.17
709.673	19.23
709.858	19.44
710.042	19.53
710.227	19.4
710.411	19.49
710.596	19.4
710.78	19.41
710.964	19.55
711.149	19.68
711.333	20.23
711.517	19.79
711.702	19.69
711.886	19.57
712.07	19.59
712.254	19.76
712.438	19.96
712.623	20.3
712.807	20.28
712.991	20.05
713.175	20.08
713.359	19.78
713.544	20.25
713.728	20.31
713.912	20.28
714.096	20.4
714.28	20.28
714.464	20.18
714.648	20.06
714.832	20.04
715.016	19.87
715.2	19.53
715.384	19.59
715.568	19.81
715.752	19.5
715.936	19.77
716.12	19.94
716.304	20.33
716.488	20.03
716.671	19.87
716.855	20.09
717.039	20.44
717.223	20.22
717.407	20.34
717.59	20.24
717.774	20.78
717.958	20.31
718.142	20.11
718.325	19.99
718.509	20.28
718.693	20.38
718.877	20.09
719.06	20.25
719.244	20.75
719.428	20.44
719.611	20.32
719.795	19.52
719.978	19.63
720.162	19.32
720.345	19.33
720.529	19.36
720.713	19.54
720.896	19.46
721.08	18.76
721.263	18.84
721.446	19.13
721.63	19.32
721.813	19.67
721.997	19.82
722.18	19.99
722.364	19.92
722.547	20.12
722.73	19.58
722.914	20.26
723.097	20.83
723.28	20.81
723.464	20.92
723.647	20.77
723.83	20.74
724.013	20.64
724.197	20.92
724.38	20.8
724.563	20.37
724.746	21.34
724.929	20.97
725.112	21.09
725.296	20.9
725.479	20.83
725.662	21.02
725.845	21.06
726.028	20.91
726.211	20.57
726.394	20.58
726.577	20.74
726.76	19.92
726.943	19.82
727.126	19.55
727.309	19.62
727.492	19.56
727.675	19.13
727.858	18.75
728.041	19.19
728.224	19.54
728.407	19.65
728.589	19.62
728.772	19.84
728.955	20.05
729.138	20.1
729.321	20.13
729.503	20.24
729.686	20.42
729.869	20.9
730.052	21.07
730.234	21.01
730.417	20.93
730.6	20.89
730.782	20.77
730.965	20.46
731.148	20.74
731.33	20.88
731.513	20.58
731.695	20.47
731.878	20.71
732.061	20.29
732.243	20.28
732.426	20.39
732.608	20.52
732.791	20.72
732.973	20.48
733.156	20.56
733.338	20.1
733.52	20.51
733.703	20.33
733.885	20.09
734.068	19.76
734.25	19.79
734.432	19.69
734.615	19.81
734.797	19.42
734.979	19.75
735.162	19.49
735.344	19.83
735.526	19.28
735.708	19.78
735.891	19.77
736.073	19.61
736.255	19.18
736.437	19.05
736.619	18.46
736.802	18.6
736.984	18.54
737.166	18.45
737.348	18.57
737.53	19.02
737.712	18.8
737.894	18.87
738.076	19.69
738.258	19.78
738.44	20.07
738.622	20.49
738.804	20.7
738.986	20.95
739.168	20.61
739.35	20.47
739.532	20.22
739.714	20.49
739.896	20.74
740.078	20.5
740.259	20.52
740.441	20.37
740.623	19.96
740.805	20.17
740.987	20.02
741.168	20.04
741.35	20.81
741.532	20.83
741.714	20.67
741.895	20
742.077	20.55
742.259	20.74
742.44	20.78
742.622	20.82
742.804	21
742.985	21.13
743.167	21.25
743.348	20.78
743.53	20.44
743.711	19.79
743.893	20.74
744.075	20.59
744.256	20.41
744.438	20.53
744.619	21.04
744.8	20.41
744.982	19.52
745.163	20.01
745.345	20.06
745.526	20.9
745.707	21.95
745.889	21.31
746.07	21.32
746.252	21.48
746.433	21.14
746.614	21.1
746.795	21.08
746.977	21.76
747.158	21.27
747.339	20.86
747.52	20.76
747.702	19.57
747.883	20.27
748.064	20.29
748.245	20.63
748.426	20.96
748.607	20.34
748.788	20.53
748.97	21.2
749.151	21.2
749.332	20.79
749.513	20.05
749.694	20.83
749.875	19.4
750.056	19.57
750.237	19.54
750.418	19.05
750.599	19.34
750.78	19.89
750.96	19.49
751.141	19.85
751.322	20.3
751.503	20.56
751.684	20.96
751.865	21.42
752.046	20.9
752.226	20.83
752.407	21.46
752.588	22.03
752.769	21.56
752.949	21.61
753.13	21.98
753.311	21.7
753.492	22.07
753.672	22.19
753.853	22.27
754.034	21.89
754.214	22.42
754.395	21.9
754.575	21.31
754.756	20.96
754.937	21.14
755.117	20.54
755.298	20.82
755.478	21.38
755.659	20.81
755.839	20.99
756.02	21.55
756.2	21.09
756.381	20.35
756.561	20.59
756.741	20.8
756.922	21.19
757.102	21.42
757.283	21.24
757.463	20.44
757.643	20.3
757.823	20.23
758.004	20.15
758.184	19.63
758.364	20.89
758.545	21.52
758.725	21.76
758.905	20.73
759.085	20.87
759.265	20.89
759.446	20.99
759.626	21.07
759.806	21.43
759.986	21.35
760.166	21.46
760.346	21.2
760.526	20.39
760.706	20.04
760.886	20.21
761.066	20.24
761.246	20.46
761.426	20.92
761.606	20.76
761.786	20.65
761.966	20.96
762.146	20.84
762.326	20.55
762.506	20.87
762.686	21.17
762.866	21.39
763.046	21.25
763.225	21.14
763.405	20.74
763.585	20.57
763.765	20.04
763.945	19.36
764.124	19.88
764.304	20.28
764.484	20.43
764.664	19.92
764.843	19.36
765.023	19.23
765.203	19.28
765.382	19.23
765.562	20.01
765.741	20.26
765.921	21.17
766.101	20.4
766.28	20.26
766.46	19.38
766.639	19.75
766.819	20.27
766.998	20.3
767.178	20.32
767.357	20.6
767.537	19.58
767.716	19.79
767.896	19.37
768.075	20.18
768.254	19.95
768.434	20.16
768.613	20.68
768.792	20.51
768.972	20.71
769.151	21.27
769.33	20.63
769.51	21.35
769.689	21.8
769.868	21.84
770.047	21.31
770.226	21.78
770.406	21.9
770.585	21.21
770.764	20.98
770.943	20.89
771.122	20.59
771.301	21.28
771.48	21.54
771.66	21.2
771.839	20.74
772.018	21.15
772.197	20.23
772.376	20.58
772.555	20.63
772.734	21.17
772.913	21.3
773.092	21.5
773.271	20.75
773.449	20.65
773.628	20.37
773.807	20.47
773.986	19.84
774.165	20.42
774.344	21.13
774.523	21.88
774.701	21.55
774.88	21.9
775.059	21.81
775.238	22.74
775.417	22.62
775.595	23.36
775.774	24.12
775.953	23.76
776.131	24.09
776.31	22.96
776.489	22.8
776.667	22.22
776.846	21.77
777.025	21.18
777.203	20.32
777.382	21.13
777.56	20.53
777.739	20.28
777.917	21.32
778.096	21.43
778.274	21.6
778.453	20.85
778.631	21.87
778.81	21.29
778.988	21.15
779.166	22.18
779.345	21.27
779.523	21.08
779.702	20.54
779.88	20.4
780.058	20.26
780.237	20.6
780.415	20.97
780.593	21.46
780.771	21.24
780.95	22.17
781.128	22.03
781.306	22.05
781.484	22.69
781.662	22.19
781.841	22.32
782.019	22.05
782.197	21.26
782.375	22.25
782.553	22.17
782.731	22.89
782.909	22.74
783.087	22.67
783.265	22.07
783.443	22.22
783.621	22.87
783.799	22.26
783.977	22.2
784.155	22.37
784.333	21.79
784.511	21.23
784.689	21.21
784.867	21.26
785.045	20.55
785.223	21.36
785.4	20.92
785.578	20.75
785.756	21.48
785.934	21.55
786.112	22.21
786.289	20.17
786.467	19.66
786.645	19.79
786.823	19.4
787	19.83
787.178	19.04
787.356	19
787.533	18.8
787.711	18.25
787.889	18.36
788.066	18.51
788.244	20.29
788.421	21.12
788.599	20.34
788.776	20.85
788.954	21.31
789.131	22.24
789.309	22.1
789.486	22.89
789.664	22.52
789.841	23.3
790.019	22.71
790.196	22.25
790.373	22.13
790.551	23.76
790.728	23.07
790.906	22.19
791.083	21.46
791.26	23.26
791.437	23.14
791.615	23.9
791.792	22.9
791.969	23.24
792.146	24.33
792.324	24.5
792.501	24.18
792.678	25.29
792.855	26.38
793.032	26.38
793.209	24.92
793.387	25.1
793.564	24.64
793.741	24.72
793.918	25.03
794.095	24.2
794.272	23.75
794.449	23.58
794.626	23.57
794.803	23.13
794.98	22.57
795.157	21.77
795.334	21.74
795.511	22.46
795.688	23.12
795.864	22.61
796.041	22.42
796.218	22.84
796.395	22.9
796.572	21.6
796.749	21.06
796.925	22.62
797.102	23.59
797.279	22.66
797.456	22.64
797.632	21.52
797.809	21.57
797.986	22.16
798.162	21.36
798.339	20.58
798.516	20.76
798.692	21.16
798.869	20
799.046	20.49
799.222	21.58
799.399	21.31
799.575	22.72
799.752	23.43
799.928	23.57
800.105	23.4
800.281	24.32
800.458	25.24
800.634	24.21
800.811	24.81
800.987	24.28
801.163	24.24
801.34	23.44
801.516	23.33
801.692	24.14
801.869	24.37
802.045	24.33
802.221	24.61
802.398	24.2
802.574	26.12
802.75	26.87
802.926	27.58
803.103	27.7
803.279	28.15
803.455	27.29
803.631	26.57
803.807	26.75
803.983	27.81
804.16	26.16
804.336	26.89
804.512	26.5
804.688	25.79
804.864	24.27
805.04	24.84
805.216	24.7
805.392	25.26
805.568	24.81
805.744	23.69
805.92	24.6
806.096	27.37
806.272	26.21
806.448	26.9
806.623	27.43
806.799	28.72
806.975	27.83
807.151	28.86
807.327	28.66
807.503	28.29
807.678	28.58
807.854	27.96
808.03	25.19
808.206	25.18
808.381	23.8
808.557	23.49
808.733	22.35
808.908	21.66
809.084	20.71
809.26	19.75
809.435	21.72
809.611	20.75
809.787	19.6
809.962	19.96
810.138	19.4
810.313	19.28
810.489	19.93
810.664	19.51
810.84	20.4
811.015	22.02
811.191	23.25
811.366	22.56
811.542	22.59
811.717	23.4
811.892	24
812.068	24.83
812.243	24.86
812.419	23.7
812.594	24.99
812.769	24.37
812.944	24.08
813.12	23.1
813.295	23.4
813.47	23.48
813.645	23.38
813.821	22.2
813.996	23.26
814.171	23.61
814.346	23.33
814.521	22.68
814.697	23.38
814.872	22.86
815.047	22.88
815.222	22.44
815.397	22.77
815.572	22.02
815.747	22.28
815.922	21.73
816.097	21.37
816.272	23.23
816.447	24.93
816.622	25.03
816.797	25.57
816.972	25.05
817.147	23.34
817.322	24.36
817.496	25.72
817.671	27
817.846	26.79
818.021	26.71
818.196	24.4
818.371	22.63
818.545	22.35
818.72	21.98
818.895	22.81
819.069	23.02
819.244	22.14
819.419	21.74
819.594	20.83
819.768	20.05
819.943	20.85
820.117	21.13
820.292	21.85
820.467	21.55
820.641	21.2
820.816	21.32
820.99	21.21
821.165	21.35
821.339	21.17
821.514	21.4
821.688	21.39
821.863	20.89
822.037	20.87
822.212	20.54
822.386	20.32
822.56	20.09
822.735	19.75
822.909	19.8
823.084	19.65
823.258	19.56
823.432	19.31
823.606	19.18
823.781	19.34
823.955	19.21
824.129	19.34
824.303	19.72
824.478	20.11
824.652	20.12
824.826	20.55
825	20.68
825.174	20.87
825.348	20.71
825.523	20.8
825.697	21.11
825.871	21.44
826.045	21.54
826.219	21.18
826.393	20.92
826.567	21.53
826.741	21.78
826.915	21.75
827.089	22.15
827.263	22.59
827.437	23.28
827.611	23.19
827.784	23.26
827.958	23.13
828.132	23.27
828.306	23.83
828.48	23.23
828.654	22.83
828.827	22.49
829.001	22.34
829.175	22.98
829.349	22.79
829.522	22.85
829.696	22.78
829.87	22.76
830.044	23.47
830.217	23.38
830.391	24.03
830.565	23.61
830.738	25.33
830.912	24.74
831.085	22.78
831.259	23.28
831.432	23.09
831.606	24.45
831.779	24.18
831.953	23.76
832.126	23.48
832.3	22.69
832.473	22.63
832.647	21.63
832.82	21.45
832.994	22.26
833.167	21.68
833.34	21.93
833.514	20.91
833.687	20.91
833.86	21.35
834.034	21.95
834.207	22.76
834.38	22.82
834.553	23.62
834.727	24.06
834.9	23.82
835.073	23.66
835.246	22.8
835.419	22.81
835.593	23.01
835.766	22.79
835.939	22.08
836.112	21.75
836.285	21.82
836.458	20.67
836.631	20.4
836.804	21.57
836.977	21.69
837.15	23.52
837.323	24.46
837.496	24.59
837.669	25.62
837.842	25.7
838.015	27.41
838.188	27.73
838.361	27.54
838.533	26.9
838.706	26.18
838.879	25.88
839.052	25.18
839.225	24.85
839.398	24.54
839.57	24.1
839.743	25.5
839.916	24.09
840.088	24.89
840.261	26.56
840.434	28.14
840.607	26.41
840.779	27.89
840.952	28.19
841.124	28.28
841.297	28.54
841.47	27.42
841.642	26.46
841.815	27.07
841.987	26.57
842.16	24.98
842.332	26.04
842.505	29.8
842.677	29.68
842.85	30.16
843.022	29.84
843.194	31.75
843.367	33.86
843.539	35.02
843.712	35.3
843.884	33.28
844.056	36.79
844.229	36.34
844.401	36.21
844.573	34.64
844.745	33.02
844.918	34.93
845.09	34.34
845.262	32.13
845.434	29.91
845.606	28.69
845.779	35.08
845.951	34.82
846.123	32.11
846.295	30.15
846.467	31.93
846.639	34.17
846.811	32.5
846.983	33.01
847.155	33.83
847.327	36.18
847.499	40.74
847.671	37.93
847.843	33.35
848.015	34.95
848.187	37.69
848.359	37.17
848.531	34.38
848.703	35.38
848.875	35.93
849.047	36.72
849.218	34.59
849.39	32.51
849.562	29.03
849.734	31.96
849.905	30.95
850.077	29.62
850.249	32.22
850.421	37.85
850.592	39.05
850.764	38.9
850.936	39.01
851.107	39.07
851.279	40.29
851.451	44.68
851.622	47.67
851.794	49.17
851.965	48.93
852.137	42.5
852.308	39.86
852.48	37.2
852.651	38.3
852.823	39.36
852.994	44.37
853.166	39.74
853.337	39.07
853.509	34.88
853.68	36.04
853.851	36.53
854.023	40.76
854.194	41.59
854.365	42.36
854.537	39.54
854.708	42.81
854.879	35.15
855.05	38.73
855.222	36.84
855.393	43.23
855.564	41.36
855.735	37.55
855.906	39.1
856.078	35.64
856.249	38.25
856.42	36.51
856.591	31.88
856.762	37.93
856.933	37.54
857.104	36.65
857.275	33.41
857.446	37.51
857.617	38.18
857.788	35.72
857.959	40.01
858.13	38.09
858.301	38.12
858.472	36.14
858.643	36.11
858.814	39.87
858.985	41.7
859.155	39.89
859.326	38.17
859.497	40.14
859.668	39.71
859.839	37.45
860.009	35.71
860.18	36.57
860.351	39.45
860.522	38.28
860.692	30.35
860.863	31.37
861.034	32.38
861.204	28.36
861.375	29.74
861.546	30.04
861.716	32.53
861.887	37.13
862.057	37.06
862.228	32.77
862.398	32.39
862.569	38.04
862.739	38.46
862.91	34.11
863.08	36.39
863.251	37.66
863.421	38.32
863.592	38.78
863.762	40.69
863.932	42.83
864.103	46.25
864.273	45.77
864.443	47.35
864.614	48.12
864.784	52.37
864.954	55.56
865.125	57.72
865.295	61.07
865.465	60.55
865.635	56.55
865.805	56.1
865.976	58.48
866.146	53.15
866.316	51.42
866.486	48.74
866.656	47.03
866.826	45.04
866.996	43.21
867.166	39.84
867.336	38.77
867.506	38.96
867.676	42.61
867.846	40.9
868.016	45.18
868.186	45.15
868.356	46.52
868.526	43.88
868.696	43.43
868.866	41.12
869.036	42.36
869.206	41.28
869.376	42.76
869.545	34.77
869.715	32.29
869.885	28.36
870.055	25.11
870.224	29.65
870.394	36.22
870.564	41.65
870.734	39.78
870.903	36.27
871.073	34
871.243	32.6
871.412	41.52
871.582	43.06
871.751	48.52
871.921	56.44
872.091	54.77
872.26	52.51
872.43	44.16
872.599	46.85
872.769	46.67
872.938	47.89
873.108	49.13
873.277	45.02
873.446	43.56
873.616	43.64
873.785	40.5
873.955	35.24
874.124	34.18
874.293	36.1
874.463	31.23
874.632	29.65
874.801	33.22
874.971	29.07
875.14	32.14
875.309	32.04
875.478	31.86
875.647	30.31
875.817	31.91
875.986	33.68
876.155	33.93
876.324	36.96
876.493	39.34
876.662	34.23
876.831	34.59
877	30.64
877.17	33.34
877.339	31.88
877.508	29.78
877.677	29.37
877.846	22.77
878.015	25.41
878.184	23.09
878.352	27.14
878.521	27.46
878.69	26.9
878.859	28.24
879.028	27.64
879.197	28.53
879.366	28.95
879.534	29.83
879.703	30.03
879.872	27.87
880.041	27.43
880.21	24.7
880.378	26.27
880.547	26.03
880.716	26.06
880.884	25.72
881.053	23.77
881.222	24.14
881.39	23.58
881.559	23.86
881.727	22.71
881.896	23.05
882.065	23.76
882.233	22.87
882.402	22.13
882.57	21.37
882.739	21.83
882.907	23.16
883.076	22.76
883.244	22.55
883.412	22.98
883.581	24.14
883.749	23.41
883.918	22.54
884.086	23.41
884.254	25.51
884.423	26.95
884.591	25.66
884.759	25.38
884.927	25.08
885.096	25.42
885.264	25.78
885.432	27.55
885.6	27.36
885.769	27.42
885.937	24.87
886.105	22.21
886.273	21.58
886.441	22.43
886.609	21.03
886.777	22.31
886.945	23.3
887.113	22.59
887.281	19.19
887.449	21.66
887.617	22.72
887.785	25.3
887.953	28.62
888.121	25.24
888.289	28.25
888.457	28.32
888.625	28.13
888.793	28.56
888.961	30.08
889.129	34.62
889.296	35.93
889.464	37.22
889.632	40.09
889.8	39.05
889.967	44.57
890.135	41.48
