Data from 2938548_Reflection_3.txt Node
Date: Mon Jun 15 00:12:57 EDT 2015
User: robert
Spectrometer: USB4E03002
Autoset integration time: false
Trigger mode: 4
Integration Time (sec): 1.000000E-1
Scans to average: 10
Electric dark correction enabled: true
Nonlinearity correction enabled: false
Boxcar width: 5
Stray light correction enabled: false
XAxis mode: Wavelengths
Stop averaging: false
Number of Pixels in Spectrum: 3648
>>>>>Begin Spectral Data<<<<<
177.575	10.59
177.794	9.3
178.014	9.85
178.233	24.9
178.452	35.66
178.672	49.24
178.891	42.54
179.11	-14.59
179.33	-256.11
179.549	6.93
179.768	-41.52
179.987	-67.8
180.207	-104.49
180.426	-316.77
180.645	-174.01
180.864	-309.55
181.084	-304.73
181.303	-1231.63
181.522	1281.3
181.741	-1094.63
181.96	6545.83
182.179	428.9
182.398	755.99
182.618	525.57
182.837	-7593.15
183.056	-1052.27
183.275	-475.12
183.494	2153.54
183.713	-658.03
183.932	495.07
184.151	302.28
184.37	261.92
184.589	343.53
184.808	284.35
185.027	276.29
185.246	182.1
185.465	210.11
185.684	248.97
185.903	221.12
186.122	224.2
186.341	726.48
186.56	739.3
186.779	-103.71
186.998	-107.85
187.216	-100.55
187.435	-50.81
187.654	-20.43
187.873	-35.81
188.092	-35.62
188.311	-18.37
188.53	-3.91
188.748	-4.16
188.967	-16.57
189.186	-86.89
189.405	-96.96
189.623	-122.12
189.842	-76.89
190.061	-106.13
190.28	-140.39
190.498	-130.72
190.717	-210.61
190.936	-814.99
191.154	-822.2
191.373	-8512.5
191.592	-1124.87
191.81	268.76
192.029	200.08
192.248	241.48
192.466	222.66
192.685	210.74
192.904	158.8
193.122	166.35
193.341	281.4
193.559	275.18
193.778	274.4
193.996	205.94
194.215	496.97
194.433	356.68
194.652	176.14
194.87	200.1
195.089	-744.63
195.307	-20.5
195.526	-138.35
195.744	-1121.8
195.963	460.38
196.181	1070.24
196.399	600.44
196.618	634.11
196.836	3070.39
197.055	477.1
197.273	1223.18
197.491	387.16
197.71	205.49
197.928	270.03
198.146	352.13
198.365	617.44
198.583	1118.71
198.801	-1574.71
199.019	1438.84
199.238	-18368.97
199.456	-184.97
199.674	-596.97
199.892	-920.58
200.111	-132.82
200.329	-127.34
200.547	-263.71
200.765	-1445.73
200.983	-348.98
201.202	-1778.16
201.42	-1189.84
201.638	-532.56
201.856	657.82
202.074	1354.12
202.292	-452.96
202.51	-426.31
202.728	-589.91
202.946	1773.12
203.165	974
203.383	807.27
203.601	671.78
203.819	785.29
204.037	425.76
204.255	501.27
204.473	553.44
204.691	425.08
204.909	244.72
205.127	270.1
205.345	347.91
205.562	337.33
205.78	363.34
205.998	398.18
206.216	247.99
206.434	4266.14
206.652	-308.22
206.87	-321.87
207.088	-203.59
207.306	-61.85
207.523	-26.84
207.741	-82.72
207.959	-99.82
208.177	-2153.99
208.395	-483.32
208.612	-416.53
208.83	1023.04
209.048	440.77
209.266	394.31
209.483	270.72
209.701	205.59
209.919	198.8
210.136	216.43
210.354	282.42
210.572	310.31
210.79	244.85
211.007	255.15
211.225	284.88
211.442	332.43
211.66	452.6
211.878	728.07
212.095	829.87
212.313	505.17
212.53	517.79
212.748	399.53
212.966	389.93
213.183	310.05
213.401	269.47
213.618	272.75
213.836	226.49
214.053	220.19
214.271	211.12
214.488	48.04
214.705	37.75
214.923	65.1
215.14	62.54
215.358	60.47
215.575	71.1
215.793	74.13
216.01	54.08
216.227	58.33
216.445	44.42
216.662	63.8
216.879	114.82
217.097	106.03
217.314	88.83
217.531	77.05
217.749	72.68
217.966	72.55
218.183	64.09
218.4	65.96
218.618	65.56
218.835	61.62
219.052	42.82
219.269	27.52
219.487	27.39
219.704	24.02
219.921	35.26
220.138	48.06
220.355	31.4
220.572	30.67
220.79	42.62
221.007	46.69
221.224	35.06
221.441	46.86
221.658	53.81
221.875	55.04
222.092	56.6
222.309	41.59
222.526	35.98
222.743	35.46
222.96	32.28
223.177	34.03
223.394	27.3
223.611	27.73
223.828	24.25
224.045	19.62
224.262	11.96
224.479	5.97
224.696	17.81
224.913	15.75
225.13	15.88
225.347	20.4
225.564	16.96
225.781	16.45
225.997	16.77
226.214	15.83
226.431	14.6
226.648	15.01
226.865	15.58
227.082	13.18
227.298	13.2
227.515	13.08
227.732	12.45
227.949	12.67
228.165	12.81
228.382	13.44
228.599	12.58
228.816	13.09
229.032	15.57
229.249	16.25
229.466	15.71
229.682	17.39
229.899	18.52
230.116	18.31
230.332	19.18
230.549	19.39
230.765	18.84
230.982	21.65
231.199	22.16
231.415	21.48
231.632	19.66
231.848	21.34
232.065	19.45
232.281	19.33
232.498	19.14
232.714	16.74
232.931	16.36
233.147	16.63
233.364	16.29
233.58	17.85
233.797	16.83
234.013	17.88
234.23	18.91
234.446	18.75
234.662	20.53
234.879	20.41
235.095	21.88
235.312	22.85
235.528	23.85
235.744	26.08
235.961	23.93
236.177	22.51
236.393	23.16
236.61	23.85
236.826	23.14
237.042	20.21
237.258	20.33
237.475	20.21
237.691	19.52
237.907	16.5
238.123	15.2
238.339	14.6
238.556	13.54
238.772	12.27
238.988	11.5
239.204	10.78
239.42	10.61
239.636	10.16
239.853	11.02
240.069	11.03
240.285	10.86
240.501	10.69
240.717	10.22
240.933	11.15
241.149	10.92
241.365	10.61
241.581	11.46
241.797	12.06
242.013	12.3
242.229	11.83
242.445	11.83
242.661	12.63
242.877	12.75
243.093	13.06
243.309	13.75
243.525	13.98
243.741	13.82
243.957	13.55
244.173	13.1
244.388	12.66
244.604	12.63
244.82	12.94
245.036	12.69
245.252	12.01
245.468	11.78
245.683	11.12
245.899	10.81
246.115	10.41
246.331	9.84
246.547	9.39
246.762	9.12
246.978	8.69
247.194	8.33
247.409	8.16
247.625	8.31
247.841	8.34
248.057	8.36
248.272	8.91
248.488	8.57
248.703	8.85
248.919	9.95
249.135	9.97
249.35	10.07
249.566	9.6
249.782	9.98
249.997	9.7
250.213	9.22
250.428	9.2
250.644	9.31
250.859	9.88
251.075	10.05
251.29	10.03
251.506	10.51
251.721	10.2
251.937	10.38
252.152	9.08
252.368	8.44
252.583	9.03
252.798	7.98
253.014	7.05
253.229	7.08
253.445	7.43
253.66	6.43
253.875	6.59
254.091	7.59
254.306	7.5
254.521	7.79
254.737	9.05
254.952	8.91
255.167	10.21
255.383	10.2
255.598	10.11
255.813	9.13
256.028	9.11
256.244	8.56
256.459	7.84
256.674	7.29
256.889	7.79
257.104	7.52
257.32	7.91
257.535	7.65
257.75	7.53
257.965	7.46
258.18	7.54
258.395	7.47
258.61	7.59
258.826	7.76
259.041	8.08
259.256	8.25
259.471	8.3
259.686	7.85
259.901	7.89
260.116	7.94
260.331	8.25
260.546	8.08
260.761	8.48
260.976	8.34
261.191	8.25
261.406	7.97
261.621	7.32
261.836	7.53
262.05	8.29
262.265	8.65
262.48	9.17
262.695	8.88
262.91	8.79
263.125	8.36
263.34	8.68
263.555	9.18
263.769	9.39
263.984	9.51
264.199	9.49
264.414	9.2
264.629	9.35
264.843	8.62
265.058	8.7
265.273	8.87
265.488	8.7
265.702	8.7
265.917	8.58
266.132	8.58
266.346	8.73
266.561	8.31
266.776	8.57
266.99	8.4
267.205	8.98
267.42	9.05
267.634	9.39
267.849	9.76
268.063	9.36
268.278	9.19
268.492	9.41
268.707	9.08
268.922	9.66
269.136	9.33
269.351	8.91
269.565	8.6
269.78	8.79
269.994	8.71
270.209	8.35
270.423	8.34
270.637	7.62
270.852	7.27
271.066	7.09
271.281	6.88
271.495	6.99
271.709	7.36
271.924	7.5
272.138	7.04
272.353	7
272.567	6.96
272.781	7.66
272.996	7.93
273.21	8.15
273.424	8.28
273.638	8.32
273.853	8.39
274.067	7.85
274.281	7.31
274.495	7.07
274.71	7.01
274.924	7.28
275.138	7.06
275.352	7.11
275.566	6.77
275.781	6.88
275.995	6.97
276.209	6.87
276.423	7.86
276.637	8.75
276.851	9.4
277.065	9.94
277.279	9.89
277.493	9.78
277.707	10.12
277.921	10.72
278.135	10.91
278.349	10.41
278.563	10.04
278.777	9.59
278.991	9.11
279.205	8.63
279.419	8.26
279.633	8.5
279.847	8.14
280.061	8.36
280.275	8.12
280.489	7.98
280.703	8.56
280.917	8.79
281.131	8.5
281.344	8.37
281.558	8.68
281.772	8.58
281.986	8.39
282.2	8.54
282.414	8.37
282.627	8.1
282.841	8.35
283.055	7.89
283.269	7.42
283.482	7.77
283.696	7.74
283.91	7.52
284.123	7.75
284.337	7.66
284.551	7.66
284.764	7.68
284.978	7.48
285.192	6.77
285.405	6.7
285.619	6.81
285.833	5.99
286.046	6.15
286.26	6.15
286.473	5.62
286.687	5.72
286.9	5.44
287.114	5.72
287.327	6.3
287.541	6.91
287.754	6.86
287.968	6.8
288.181	7.32
288.395	7.16
288.608	7.23
288.822	7.54
289.035	7.13
289.248	7.29
289.462	6.98
289.675	6.6
289.889	6.57
290.102	6.66
290.315	6.62
290.529	6.62
290.742	6.86
290.955	6.97
291.169	6.72
291.382	7.36
291.595	7.55
291.808	7.22
292.022	7.71
292.235	7.46
292.448	7.92
292.661	8.51
292.875	8.3
293.088	8.11
293.301	7.91
293.514	8.13
293.727	7.64
293.94	7.56
294.153	7.94
294.367	7.37
294.58	7.72
294.793	7.12
295.006	6.96
295.219	6.81
295.432	6.71
295.645	6.95
295.858	7.06
296.071	7.33
296.284	7.1
296.497	6.82
296.71	6.99
296.923	6.96
297.136	7.25
297.349	6.97
297.562	7.11
297.775	7.01
297.988	6.85
298.201	6.63
298.414	6.33
298.626	6.47
298.839	6.73
299.052	6.68
299.265	6.65
299.478	6.62
299.691	6.65
299.903	6.84
300.116	7.21
300.329	7.06
300.542	7.11
300.755	7.15
300.967	7.17
301.18	7.02
301.393	6.99
301.605	6.75
301.818	6.66
302.031	7
302.243	6.93
302.456	6.73
302.669	6.55
302.881	6.57
303.094	7.04
303.307	6.7
303.519	7.07
303.732	7.54
303.944	7.72
304.157	7.86
304.37	7.92
304.582	7.51
304.795	7.45
305.007	7.97
305.22	7.86
305.432	7.91
305.645	8
305.857	7.92
306.069	7.43
306.282	7.19
306.494	7.05
306.707	7.14
306.919	7.6
307.132	7.78
307.344	7.75
307.556	8.04
307.769	7.81
307.981	7.99
308.193	7.73
308.406	7.98
308.618	8.11
308.83	8.23
309.043	8.02
309.255	7.95
309.467	7.74
309.679	7.69
309.892	7.18
310.104	7.21
310.316	7.46
310.528	7.54
310.74	7.59
310.953	7.6
311.165	7.35
311.377	7.46
311.589	7.47
311.801	7.56
312.013	7.23
312.225	7.35
312.437	7.25
312.649	6.74
312.862	6.53
313.074	6.48
313.286	6.33
313.498	6.48
313.71	6.21
313.922	6.31
314.134	6.02
314.346	6.28
314.558	6.42
314.77	6.6
314.982	6.87
315.193	6.96
315.405	6.74
315.617	6.88
315.829	6.9
316.041	6.8
316.253	6.64
316.465	6.86
316.677	6.32
316.888	6.36
317.1	5.81
317.312	5.4
317.524	5.69
317.736	5.76
317.947	5.75
318.159	5.39
318.371	5.39
318.583	5.19
318.794	5.06
319.006	5.24
319.218	5.37
319.43	5.64
319.641	6.19
319.853	6.09
320.064	6.11
320.276	5.96
320.488	6.67
320.699	6.91
320.911	6.74
321.123	7.69
321.334	7.77
321.546	8.21
321.757	8.35
321.969	8.53
322.18	8.34
322.392	8.38
322.603	8.78
322.815	8.06
323.026	7.92
323.238	7.96
323.449	7.58
323.661	7.57
323.872	6.99
324.083	7.29
324.295	7.03
324.506	6.88
324.718	6.8
324.929	6.42
325.14	6.94
325.352	7.19
325.563	7.36
325.774	7.09
325.986	7.32
326.197	7.22
326.408	7.08
326.62	6.71
326.831	6.85
327.042	6.71
327.253	6.9
327.464	6.68
327.676	6.7
327.887	6.52
328.098	6.76
328.309	6.42
328.52	6.49
328.732	6.37
328.943	6.99
329.154	7.05
329.365	7.31
329.576	7.15
329.787	7.49
329.998	7.37
330.209	7.97
330.42	7.94
330.631	8
330.842	7.79
331.053	7.5
331.264	7.26
331.475	7.29
331.686	7.44
331.897	7.02
332.108	6.41
332.319	6.76
332.53	6.14
332.741	6.01
332.952	6.02
333.163	6.35
333.374	6.47
333.585	6.25
333.795	6.65
334.006	6.45
334.217	6.95
334.428	7.61
334.639	7.38
334.849	7.32
335.06	7.31
335.271	7.56
335.482	7.64
335.692	7.52
335.903	7.39
336.114	7.19
336.325	7.68
336.535	7.87
336.746	7.33
336.957	7.14
337.167	7.49
337.378	7.44
337.589	7.32
337.799	7.36
338.01	7.46
338.22	7.8
338.431	7.8
338.642	7.36
338.852	7
339.063	7.15
339.273	7.31
339.484	7.05
339.694	7.22
339.905	7.36
340.115	7.36
340.326	7.48
340.536	7.3
340.746	6.87
340.957	7
341.167	6.98
341.378	7.2
341.588	7.08
341.799	7.33
342.009	7.25
342.219	7.28
342.43	7.44
342.64	7.37
342.85	7.33
343.061	7.6
343.271	7.61
343.481	7.79
343.691	7.59
343.902	7.64
344.112	7.54
344.322	7.6
344.532	7.32
344.743	7.12
344.953	7.1
345.163	7.22
345.373	7.22
345.583	7.06
345.793	6.87
346.004	6.82
346.214	6.85
346.424	7.1
346.634	7.16
346.844	7.59
347.054	7.35
347.264	7.13
347.474	7.16
347.684	7.26
347.894	7.59
348.104	7.53
348.314	7.52
348.524	7.41
348.734	6.96
348.944	6.68
349.154	6.57
349.364	6.62
349.574	6.83
349.784	6.87
349.994	6.57
350.204	6.4
350.413	6.4
350.623	6.48
350.833	6.48
351.043	6.53
351.253	6.6
351.463	6.23
351.672	6.31
351.882	6.22
352.092	6.31
352.302	6.26
352.511	5.86
352.721	5.85
352.931	5.82
353.141	5.74
353.35	5.78
353.56	5.89
353.77	6.22
353.979	6.11
354.189	5.98
354.399	5.9
354.608	5.83
354.818	5.83
355.027	6.14
355.237	6.1
355.447	5.89
355.656	5.96
355.866	5.59
356.075	5.19
356.285	5.39
356.494	5.53
356.704	5.42
356.913	5.51
357.123	6.17
357.332	5.86
357.542	5.98
357.751	6.07
357.96	6.1
358.17	6.42
358.379	6.49
358.589	6.34
358.798	6.11
359.007	6.05
359.217	6.26
359.426	5.77
359.635	5.97
359.845	5.75
360.054	5.89
360.263	5.93
360.472	5.63
360.682	5.82
360.891	5.93
361.1	6
361.309	6.04
361.519	5.72
361.728	5.8
361.937	5.63
362.146	5.82
362.355	5.73
362.564	5.4
362.774	5.61
362.983	5.44
363.192	5.19
363.401	5.2
363.61	5.1
363.819	5.14
364.028	5.11
364.237	5.1
364.446	4.72
364.655	4.76
364.864	5.05
365.073	4.99
365.282	5.01
365.491	5.05
365.7	5.01
365.909	4.92
366.118	5.08
366.327	5.18
366.536	5.17
366.745	5.47
366.954	5.24
367.162	5.32
367.371	5.66
367.58	5.51
367.789	5.52
367.998	5.59
368.207	5.55
368.415	5.26
368.624	5.21
368.833	5.03
369.042	5
369.25	5.04
369.459	4.87
369.668	4.62
369.877	4.71
370.085	4.76
370.294	4.76
370.503	4.78
370.711	4.98
370.92	5.01
371.129	5.02
371.337	5.06
371.546	5.01
371.754	4.94
371.963	4.86
372.171	4.58
372.38	4.52
372.589	4.37
372.797	4.53
373.006	4.51
373.214	4.36
373.423	4.81
373.631	4.63
373.84	4.74
374.048	4.66
374.256	4.74
374.465	4.91
374.673	4.78
374.882	5.01
375.09	4.93
375.298	4.9
375.507	5.1
375.715	4.88
375.923	4.84
376.132	5.09
376.34	5.25
376.548	5.2
376.757	5.33
376.965	5.45
377.173	5.36
377.381	5.3
377.59	5.32
377.798	5.02
378.006	4.97
378.214	5.16
378.423	5.24
378.631	5.15
378.839	4.84
379.047	4.94
379.255	5.05
379.463	5.07
379.671	5.26
379.879	5.4
380.088	5.32
380.296	5.33
380.504	5.46
380.712	5.33
380.92	5.37
381.128	5.54
381.336	5.31
381.544	5.11
381.752	5.11
381.96	5
382.168	4.78
382.376	4.81
382.584	4.67
382.791	4.48
382.999	4.4
383.207	4.34
383.415	4.56
383.623	4.5
383.831	4.61
384.039	4.55
384.247	4.57
384.454	4.69
384.662	4.87
384.87	4.96
385.078	4.93
385.285	4.95
385.493	4.85
385.701	4.82
385.909	5.03
386.116	4.8
386.324	4.81
386.532	4.79
386.739	4.78
386.947	4.62
387.155	4.75
387.362	4.81
387.57	4.53
387.778	4.56
387.985	4.37
388.193	4.31
388.4	4.45
388.608	4.46
388.816	4.48
389.023	4.47
389.231	4.18
389.438	3.85
389.646	3.76
389.853	3.63
390.061	3.75
390.268	3.76
390.475	3.65
390.683	3.58
390.89	3.35
391.098	3.45
391.305	3.49
391.512	3.77
391.72	3.94
391.927	3.8
392.135	3.88
392.342	3.77
392.549	3.85
392.756	3.86
392.964	4.05
393.171	4.09
393.378	3.9
393.586	3.78
393.793	3.78
394	3.81
394.207	3.9
394.414	3.99
394.622	3.98
394.829	3.9
395.036	3.86
395.243	3.57
395.45	3.63
395.657	3.65
395.864	3.59
396.072	3.57
396.279	3.59
396.486	3.77
396.693	3.83
396.9	3.78
397.107	3.79
397.314	3.75
397.521	3.85
397.728	4.04
397.935	3.98
398.142	4.08
398.349	4.09
398.556	3.87
398.763	3.65
398.97	3.74
399.177	3.69
399.383	3.72
399.59	3.65
399.797	3.76
400.004	3.63
400.211	3.75
400.418	3.76
400.625	3.74
400.831	3.81
401.038	3.95
401.245	3.7
401.452	3.77
401.658	3.78
401.865	3.78
402.072	3.63
402.279	3.48
402.485	3.31
402.692	3.25
402.899	3.11
403.105	3.08
403.312	2.78
403.519	2.99
403.725	2.82
403.932	2.85
404.138	2.77
404.345	2.8
404.552	2.97
404.758	3.12
404.965	3.04
405.171	3.11
405.378	3.12
405.584	3.34
405.791	3.28
405.997	3.47
406.204	3.35
406.41	3.52
406.617	3.6
406.823	3.54
407.029	3.5
407.236	3.62
407.442	3.7
407.649	3.64
407.855	3.63
408.061	3.45
408.268	3.49
408.474	3.45
408.68	3.5
408.887	3.48
409.093	3.51
409.299	3.51
409.505	3.49
409.712	3.57
409.918	3.72
410.124	3.82
410.33	3.91
410.537	3.84
410.743	3.95
410.949	3.79
411.155	3.58
411.361	3.43
411.567	3.24
411.773	3.24
411.98	3.09
412.186	3
412.392	2.79
412.598	2.78
412.804	2.78
413.01	2.54
413.216	2.67
413.422	2.8
413.628	2.85
413.834	2.97
414.04	2.95
414.246	2.85
414.452	2.9
414.658	3.07
414.864	3.26
415.07	3.4
415.275	3.54
415.481	3.49
415.687	3.43
415.893	3.32
416.099	3.28
416.305	3.24
416.511	3.35
416.716	3.19
416.922	3.07
417.128	2.9
417.334	2.74
417.539	2.67
417.745	2.7
417.951	2.72
418.157	2.84
418.362	2.88
418.568	2.81
418.774	2.71
418.979	2.73
419.185	2.7
419.391	2.77
419.596	2.77
419.802	2.84
420.008	2.82
420.213	2.09
420.419	1.99
420.624	2
420.83	2.02
421.035	2.05
421.241	2.14
421.446	2.2
421.652	2.14
421.857	2.19
422.063	2.15
422.268	2.16
422.474	2.82
422.679	2.9
422.885	2.86
423.09	2.88
423.295	2.93
423.501	2.9
423.706	2.86
423.911	2.85
424.117	2.74
424.322	2.65
424.527	2.53
424.733	2.65
424.938	2.63
425.143	2.65
425.349	2.54
425.554	2.39
425.759	2.39
425.964	2.47
426.169	2.44
426.375	2.49
426.58	2.57
426.785	2.72
426.99	2.56
427.195	2.59
427.4	2.55
427.605	2.58
427.811	2.74
428.016	2.6
428.221	2.53
428.426	2.56
428.631	2.57
428.836	2.51
429.041	2.55
429.246	2.63
429.451	2.57
429.656	2.56
429.861	2.68
430.066	2.59
430.271	2.63
430.476	2.46
430.681	2.43
430.886	2.46
431.09	2.55
431.295	2.49
431.5	2.58
431.705	2.56
431.91	2.57
432.115	2.46
432.32	2.56
432.524	2.63
432.729	2.71
432.934	2.74
433.139	2.73
433.343	2.71
433.548	2.74
433.753	2.56
433.958	2.57
434.162	2.52
434.367	2.5
434.572	2.47
434.776	2.36
434.981	2.5
435.186	2.44
435.39	2.44
435.595	2.41
435.799	2.4
436.004	2.49
436.209	2.48
436.413	2.51
436.618	2.56
436.822	2.45
437.027	2.44
437.231	2.38
437.436	2.42
437.64	2.36
437.845	2.32
438.049	2.27
438.253	2.18
438.458	2.14
438.662	2.1
438.867	2.14
439.071	2.19
439.275	2.18
439.48	2.14
439.684	2.09
439.888	2.06
440.093	2.02
440.297	2.06
440.501	2.14
440.706	2.16
440.91	2.15
441.114	2.08
441.318	2.11
441.523	2.14
441.727	2.13
441.931	2.2
442.135	2.24
442.339	2.42
442.543	2.31
442.748	2.32
442.952	2.32
443.156	2.39
443.36	2.35
443.564	2.25
443.768	2.26
443.972	2.32
444.176	2.25
444.38	2.26
444.584	2.13
444.788	2.14
444.992	2.14
445.196	2.17
445.4	2.13
445.604	2.14
445.808	2.17
446.012	2.16
446.216	2.14
446.42	2.13
446.624	2.1
446.828	2.17
447.032	2.28
447.235	2.28
447.439	2.23
447.643	2.24
447.847	2.26
448.051	2.3
448.254	2.28
448.458	2.26
448.662	2.36
448.866	2.5
449.069	2.55
449.273	2.46
449.477	2.39
449.681	2.38
449.884	2.32
450.088	2.43
450.292	2.22
450.495	2.32
450.699	2.34
450.902	2.28
451.106	2.14
451.31	2.09
451.513	2.08
451.717	2.06
451.92	2.11
452.124	2.21
452.327	2.16
452.531	2.28
452.734	2.21
452.938	2.2
453.141	2.3
453.345	2.43
453.548	2.4
453.752	2.39
453.955	2.38
454.158	2.44
454.362	2.48
454.565	2.45
454.769	2.47
454.972	2.5
455.175	2.43
455.379	2.32
455.582	2.13
455.785	2.18
455.988	2.23
456.192	2.28
456.395	2.22
456.598	2.12
456.801	2.18
457.005	2.2
457.208	2.22
457.411	2.31
457.614	2.37
457.817	2.42
458.021	2.35
458.224	2.37
458.427	2.26
458.63	2.26
458.833	2.24
459.036	2.22
459.239	2.27
459.442	2.19
459.645	2.13
459.848	2.11
460.051	2.11
460.254	2.14
460.457	2.07
460.66	2.19
460.863	2.17
461.066	2.21
461.269	2.21
461.472	2.05
461.675	2.08
461.878	2.17
462.081	2.12
462.284	2.01
462.486	2.01
462.689	2.01
462.892	2.05
463.095	2.09
463.298	2.17
463.5	2.17
463.703	2.19
463.906	2.29
464.109	2.13
464.311	2.16
464.514	2.23
464.717	2.16
464.92	2.23
465.122	2.15
465.325	2.13
465.528	2.07
465.73	2.01
465.933	2.05
466.135	2
466.338	2.09
466.541	2.17
466.743	2.22
466.946	2.27
467.148	2.29
467.351	2.25
467.553	2.17
467.756	2.13
467.958	2.12
468.161	2.08
468.363	2.04
468.566	1.96
468.768	1.89
468.971	1.83
469.173	1.77
469.375	1.72
469.578	1.9
469.78	2.01
469.983	2
470.185	2.05
470.387	2.03
470.59	2.08
470.792	2.09
470.994	2.08
471.196	2.12
471.399	2.17
471.601	2.12
471.803	2.03
472.005	1.93
472.208	1.97
472.41	1.92
472.612	2.05
472.814	2.03
473.016	2.08
473.218	2.14
473.421	2.1
473.623	2.18
473.825	2.21
474.027	2.13
474.229	2.23
474.431	2.19
474.633	2.28
474.835	2.23
475.037	2.18
475.239	2.15
475.441	2.09
475.643	2.12
475.845	2.02
476.047	2.01
476.249	1.99
476.451	2.01
476.653	2.05
476.855	1.97
477.057	2
477.258	2.02
477.46	2.03
477.662	2.1
477.864	2.05
478.066	2.11
478.268	2.11
478.469	2.11
478.671	2.11
478.873	2.12
479.075	2.16
479.276	2.02
479.478	2.01
479.68	2.02
479.882	1.97
480.083	1.97
480.285	1.95
480.487	2.01
480.688	2.07
480.89	2.01
481.091	2.04
481.293	2.03
481.495	2.07
481.696	2.06
481.898	2.04
482.099	2.05
482.301	2.04
482.502	2.02
482.704	2.01
482.905	2
483.107	2.01
483.308	1.99
483.51	1.99
483.711	1.99
483.913	2
484.114	2
484.315	1.97
484.517	2
484.718	2.03
484.92	2.02
485.121	1.99
485.322	2.01
485.524	2.01
485.725	2
485.926	1.97
486.127	1.98
486.329	1.99
486.53	2.04
486.731	2.02
486.932	2
487.134	2.02
487.335	1.99
487.536	1.99
487.737	2
487.938	2.01
488.139	2.06
488.341	1.99
488.542	1.98
488.743	1.96
488.944	1.94
489.145	1.98
489.346	1.95
489.547	2.02
489.748	2.05
489.949	2.04
490.15	2.01
490.351	2.02
490.552	2.08
490.753	2.12
490.954	2.12
491.155	2.15
491.356	2.13
491.557	2.14
491.758	2.11
491.959	2.08
492.159	2.03
492.36	2.12
492.561	2.08
492.762	2.1
492.963	2.02
493.164	2.06
493.364	2.04
493.565	1.98
493.766	1.95
493.967	2
494.167	1.99
494.368	2.06
494.569	2.02
494.769	2.07
494.97	1.99
495.171	1.98
495.371	1.98
495.572	2
495.773	2.07
495.973	2.15
496.174	2.11
496.375	2.1
496.575	2.14
496.776	2.13
496.976	2.13
497.177	2.17
497.377	2.19
497.578	2.19
497.778	2.21
497.979	2.25
498.179	2.12
498.38	2.2
498.58	2.15
498.78	2.11
498.981	2.15
499.181	2.08
499.382	2.15
499.582	2.16
499.782	2.19
499.983	2.13
500.183	2.12
500.383	2.18
500.584	2.11
500.784	2.22
500.984	2.34
501.184	2.29
501.385	2.37
501.585	2.34
501.785	2.35
501.985	2.41
502.185	2.53
502.386	2.44
502.586	2.43
502.786	2.52
502.986	2.5
503.186	2.33
503.386	2.36
503.586	2.46
503.786	2.38
503.987	2.31
504.187	2.28
504.387	2.19
504.587	2.28
504.787	2.28
504.987	2.25
505.187	2.28
505.387	2.41
505.587	2.41
505.786	2.31
505.986	2.35
506.186	2.46
506.386	2.42
506.586	2.43
506.786	2.41
506.986	2.5
507.186	2.5
507.386	2.48
507.585	2.46
507.785	2.46
507.985	2.45
508.185	2.49
508.384	2.47
508.584	2.51
508.784	2.57
508.984	2.53
509.183	2.47
509.383	2.48
509.583	2.48
509.782	2.48
509.982	2.58
510.182	2.57
510.381	2.56
510.581	2.57
510.781	2.64
510.98	2.63
511.18	2.68
511.379	2.72
511.579	2.74
511.778	2.68
511.978	2.7
512.177	2.63
512.377	2.7
512.576	2.72
512.776	2.69
512.975	2.61
513.175	2.61
513.374	2.62
513.573	2.66
513.773	2.66
513.972	2.78
514.172	2.77
514.371	2.76
514.57	2.69
514.77	2.63
514.969	2.67
515.168	2.62
515.367	2.61
515.567	2.64
515.766	2.53
515.965	2.48
516.164	2.53
516.364	2.52
516.563	2.48
516.762	2.59
516.961	2.69
517.16	2.73
517.359	2.77
517.559	2.75
517.758	2.74
517.957	2.83
518.156	2.87
518.355	2.85
518.554	2.88
518.753	2.94
518.952	2.82
519.151	2.78
519.35	2.77
519.549	2.77
519.748	2.82
519.947	2.85
520.146	2.84
520.345	2.88
520.544	2.91
520.743	2.94
520.942	2.86
521.141	2.94
521.339	2.99
521.538	2.95
521.737	2.98
521.936	2.96
522.135	2.9
522.333	2.98
522.532	2.93
522.731	2.95
522.93	2.98
523.129	3.07
523.327	3.14
523.526	3.1
523.725	3.12
523.923	3.14
524.122	3.19
524.321	3.26
524.519	3.23
524.718	3.23
524.917	3.22
525.115	3.19
525.314	3.18
525.512	3.19
525.711	3.22
525.909	3.27
526.108	3.3
526.306	3.27
526.505	3.26
526.703	3.27
526.902	3.29
527.1	3.28
527.299	3.33
527.497	3.32
527.696	3.33
527.894	3.35
528.092	3.32
528.291	3.32
528.489	3.34
528.688	3.35
528.886	3.36
529.084	3.34
529.283	3.37
529.481	3.36
529.679	3.38
529.877	3.4
530.076	3.45
530.274	3.48
530.472	3.5
530.67	3.53
530.869	3.59
531.067	3.61
531.265	3.71
531.463	3.68
531.661	3.66
531.859	3.7
532.057	3.71
532.255	3.62
532.454	3.62
532.652	3.64
532.85	3.66
533.048	3.61
533.246	3.64
533.444	3.62
533.642	3.7
533.84	3.75
534.038	3.76
534.236	3.76
534.434	3.86
534.632	3.87
534.83	3.85
535.027	3.82
535.225	3.9
535.423	3.89
535.621	3.9
535.819	3.88
536.017	3.89
536.215	3.91
536.412	3.91
536.61	3.88
536.808	3.93
537.006	4.03
537.203	4.11
537.401	4.11
537.599	4.15
537.797	4.17
537.994	4.22
538.192	4.19
538.39	4.24
538.587	4.25
538.785	4.3
538.983	4.36
539.18	4.35
539.378	4.29
539.575	4.24
539.773	4.26
539.97	4.26
540.168	4.25
540.366	4.29
540.563	4.31
540.761	4.31
540.958	4.34
541.155	4.34
541.353	4.38
541.55	4.41
541.748	4.51
541.945	4.55
542.143	4.59
542.34	4.62
542.537	4.57
542.735	4.59
542.932	4.7
543.129	4.72
543.327	4.69
543.524	4.67
543.721	4.75
543.919	4.75
544.116	4.76
544.313	4.82
544.51	4.9
544.708	5.02
544.905	5.05
545.102	5.08
545.299	5.13
545.496	5.23
545.693	5.16
545.891	5.15
546.088	5.13
546.285	5.16
546.482	5.22
546.679	5.24
546.876	5.27
547.073	5.29
547.27	5.34
547.467	5.38
547.664	5.48
547.861	5.75
548.058	5.81
548.255	5.93
548.452	6.04
548.649	6.02
548.846	6.04
549.043	6.05
549.24	5.98
549.437	5.85
549.633	5.88
549.83	5.84
550.027	5.76
550.224	5.85
550.421	5.92
550.618	5.9
550.814	5.99
551.011	6.02
551.208	6.11
551.405	6.38
551.601	6.58
551.798	6.64
551.995	6.63
552.191	6.77
552.388	6.68
552.585	6.74
552.781	6.77
552.978	6.79
553.175	6.89
553.371	6.89
553.568	6.84
553.764	6.86
553.961	6.94
554.157	6.95
554.354	6.95
554.55	7.21
554.747	7.2
554.943	7.17
555.14	7.21
555.336	7.21
555.533	7.3
555.729	7.33
555.926	7.23
556.122	7.27
556.318	7.37
556.515	7.44
556.711	7.35
556.907	7.36
557.104	7.52
557.3	7.59
557.496	7.63
557.693	7.58
557.889	7.59
558.085	7.73
558.281	7.74
558.478	7.81
558.674	7.85
558.87	8.02
559.066	8.17
559.262	8.26
559.459	8.45
559.655	8.57
559.851	8.78
560.047	8.89
560.243	8.97
560.439	8.99
560.635	9.06
560.831	9.14
561.027	9.15
561.223	9.2
561.419	9.18
561.615	9.09
561.811	9.12
562.007	9.1
562.203	9.13
562.399	9.03
562.595	9.12
562.791	9.06
562.987	9.17
563.183	9.17
563.379	9.21
563.575	9.31
563.771	9.41
563.966	9.37
564.162	9.4
564.358	9.46
564.554	9.55
564.75	9.57
564.945	9.68
565.141	9.64
565.337	9.81
565.533	9.81
565.728	9.77
565.924	9.85
566.12	9.96
566.315	10.05
566.511	10.09
566.707	10.23
566.902	10.31
567.098	10.38
567.293	10.54
567.489	10.55
567.684	10.61
567.88	10.82
568.076	10.95
568.271	11.02
568.467	11.1
568.662	11.17
568.858	11.24
569.053	11.32
569.248	11.43
569.444	11.4
569.639	11.26
569.835	11.35
570.03	11.49
570.225	11.46
570.421	11.52
570.616	11.51
570.812	11.64
571.007	11.71
571.202	11.79
571.397	11.78
571.593	11.85
571.788	12.07
571.983	12.13
572.178	11.97
572.374	11.94
572.569	11.92
572.764	12.02
572.959	11.96
573.154	11.96
573.35	11.97
573.545	12.06
573.74	12.13
573.935	12.15
574.13	12.19
574.325	12.31
574.52	12.41
574.715	12.58
574.91	12.67
575.105	12.75
575.3	12.87
575.495	12.93
575.69	13
575.885	13.03
576.08	12.99
576.275	12.99
576.47	13.16
576.665	13.27
576.86	13.35
577.055	13.43
577.25	13.5
577.444	13.51
577.639	13.49
577.834	13.5
578.029	13.6
578.224	13.71
578.418	13.92
578.613	13.93
578.808	13.82
579.003	13.8
579.197	13.85
579.392	14.02
579.587	14.09
579.781	14.23
579.976	14.28
580.171	14.16
580.365	14.14
580.56	14.28
580.755	14.2
580.949	14.31
581.144	14.28
581.338	14.27
581.533	14.12
581.727	14.13
581.922	14.15
582.116	14.23
582.311	14.41
582.505	14.63
582.7	14.47
582.894	14.58
583.089	14.73
583.283	14.86
583.478	14.99
583.672	15.09
583.866	15.16
584.061	15.15
584.255	15.09
584.449	15.28
584.644	15.31
584.838	15.33
585.032	15.4
585.226	15.39
585.421	15.37
585.615	15.36
585.809	15.4
586.003	15.58
586.198	15.68
586.392	15.79
586.586	15.64
586.78	15.61
586.974	15.55
587.168	15.63
587.363	15.66
587.557	15.72
587.751	15.63
587.945	15.72
588.139	15.6
588.333	15.75
588.527	15.76
588.721	15.99
588.915	16.14
589.109	16.37
589.303	16.45
589.497	16.47
589.691	16.54
589.885	16.61
590.079	16.65
590.273	16.63
590.466	16.58
590.66	16.6
590.854	16.46
591.048	16.37
591.242	16.36
591.436	16.32
591.629	16.41
591.823	16.47
592.017	16.62
592.211	16.62
592.404	16.75
592.598	16.8
592.792	16.83
592.986	16.87
593.179	17.04
593.373	16.96
593.567	16.96
593.76	16.96
593.954	16.88
594.147	16.9
594.341	16.87
594.535	16.93
594.728	16.9
594.922	17.06
595.115	17.02
595.309	16.99
595.502	17.12
595.696	17.14
595.889	17.07
596.083	17.19
596.276	17.15
596.47	17.24
596.663	17.28
596.856	17.34
597.05	17.23
597.243	17.4
597.437	17.38
597.63	17.5
597.823	17.63
598.017	17.79
598.21	17.78
598.403	17.91
598.596	17.97
598.79	17.9
598.983	17.94
599.176	18.03
599.369	17.89
599.563	17.98
599.756	17.89
599.949	17.7
600.142	17.59
600.335	17.7
600.528	17.52
600.722	17.53
600.915	17.42
601.108	17.36
601.301	17.41
601.494	17.44
601.687	17.46
601.88	17.46
602.073	17.52
602.266	17.65
602.459	17.52
602.652	17.63
602.845	17.55
603.038	17.67
603.231	17.7
603.424	17.56
603.617	17.64
603.809	17.55
604.002	17.52
604.195	17.52
604.388	17.46
604.581	17.64
604.774	17.74
604.966	17.97
605.159	18.05
605.352	18.13
605.545	18.36
605.737	18.36
605.93	18.43
606.123	18.37
606.316	18.43
606.508	18.34
606.701	18.41
606.894	18.43
607.086	18.24
607.279	18.25
607.471	18.24
607.664	18.26
607.857	18.27
608.049	18.38
608.242	18.59
608.434	18.67
608.627	18.97
608.819	18.9
609.012	18.88
609.204	18.91
609.397	18.8
609.589	18.88
609.782	18.8
609.974	18.92
610.166	18.97
610.359	18.9
610.551	18.88
610.743	18.69
610.936	18.64
611.128	18.68
611.32	18.65
611.513	18.72
611.705	18.73
611.897	18.84
612.09	18.75
612.282	18.79
612.474	18.85
612.666	18.88
612.858	18.83
613.051	19.03
613.243	18.97
613.435	19.17
613.627	19.38
613.819	19.31
614.011	19.39
614.203	19.34
614.395	19.25
614.588	19.2
614.78	19.16
614.972	19.29
615.164	19.26
615.356	19.21
615.548	19.28
615.74	19.19
615.932	19.23
616.124	19.12
616.315	19.36
616.507	19.47
616.699	19.62
616.891	19.68
617.083	19.71
617.275	19.61
617.467	19.67
617.659	19.46
617.85	19.45
618.042	19.53
618.234	19.68
618.426	19.57
618.618	19.53
618.809	19.39
619.001	19.5
619.193	19.5
619.384	19.48
619.576	19.52
619.768	19.55
619.959	19.73
620.151	19.87
620.343	19.83
620.534	19.72
620.726	19.64
620.917	19.58
621.109	19.63
621.301	19.77
621.492	19.79
621.684	19.76
621.875	19.93
622.067	19.81
622.258	19.8
622.45	19.8
622.641	19.81
622.832	19.93
623.024	20.01
623.215	20.03
623.407	19.89
623.598	19.99
623.789	20.05
623.981	20.1
624.172	20.18
624.363	20.05
624.555	20.1
624.746	20.21
624.937	20.29
625.129	20.34
625.32	20.35
625.511	20.42
625.702	20.37
625.893	20.45
626.085	20.39
626.276	20.33
626.467	20.25
626.658	20.24
626.849	20.22
627.04	20.09
627.231	20.15
627.422	20.1
627.614	20.1
627.805	20.28
627.996	20.55
628.187	20.63
628.378	20.73
628.569	20.83
628.76	20.89
628.951	20.98
629.142	21
629.332	21.07
629.523	21.09
629.714	21.17
629.905	21.09
630.096	20.8
630.287	20.82
630.478	20.73
630.669	20.84
630.859	20.8
631.05	20.74
631.241	20.73
631.432	20.5
631.623	20.44
631.813	20.5
632.004	20.4
632.195	20.23
632.385	20.14
632.576	20.28
632.767	20.23
632.957	20.25
633.148	20.26
633.339	20.24
633.529	20.5
633.72	20.56
633.91	20.4
634.101	20.6
634.292	20.71
634.482	20.65
634.673	20.64
634.863	20.76
635.054	20.57
635.244	20.88
635.435	21.07
635.625	21.02
635.815	20.91
636.006	21.01
636.196	21.06
636.387	21.24
636.577	21.33
636.767	21.36
636.958	21.37
637.148	21.73
637.338	21.47
637.529	21.61
637.719	21.62
637.909	22.01
638.099	22.07
638.29	21.98
638.48	21.81
638.67	21.9
638.86	21.84
639.05	21.65
639.241	21.4
639.431	21.42
639.621	21.28
639.811	21.3
640.001	20.99
640.191	20.91
640.381	20.95
640.571	21.03
640.761	21.06
640.951	21.22
641.141	21.3
641.331	21.46
641.521	21.36
641.711	21.39
641.901	21.38
642.091	21.23
642.281	21.31
642.471	21.22
642.661	21.4
642.851	21.52
643.041	21.31
643.231	21.19
643.42	21.16
643.61	21.14
643.8	21.22
643.99	21.21
644.18	21.47
644.369	21.49
644.559	21.52
644.749	21.45
644.939	21.45
645.128	21.35
645.318	21.57
645.508	21.57
645.697	21.78
645.887	21.55
646.076	21.79
646.266	22
646.456	22.01
646.645	22.11
646.835	21.98
647.024	21.77
647.214	22.01
647.403	22.01
647.593	22.24
647.782	22.33
647.972	22.33
648.161	21.95
648.351	21.8
648.54	21.78
648.73	21.66
648.919	21.75
649.108	21.99
649.298	21.73
649.487	21.73
649.677	21.86
649.866	21.68
650.055	21.82
650.244	21.88
650.434	21.93
650.623	21.94
650.812	22.29
651.002	22.4
651.191	22.32
651.38	22.47
651.569	22.57
651.758	22.4
651.947	22.38
652.137	22.47
652.326	22.77
652.515	22.61
652.704	22.69
652.893	22.52
653.082	22.4
653.271	22.4
653.46	22.39
653.649	22.54
653.838	22.48
654.027	22.49
654.216	22.58
654.405	22.39
654.594	22.56
654.783	22.63
654.972	22.47
655.161	22.43
655.35	22.41
655.539	22.63
655.728	22.24
655.916	22.13
656.105	22.59
656.294	22.53
656.483	22.61
656.672	22.47
656.86	22.46
657.049	22.55
657.238	22.76
657.427	22.61
657.615	22.65
657.804	22.72
657.993	22.96
658.181	22.64
658.37	22.63
658.559	22.42
658.747	22.45
658.936	22.41
659.125	22.45
659.313	22.21
659.502	22.45
659.69	22.4
659.879	22.4
660.067	22.33
660.256	22.34
660.444	22.46
660.633	22.57
660.821	22.67
661.01	22.8
661.198	22.67
661.387	22.79
661.575	22.64
661.763	22.7
661.952	22.89
662.14	22.83
662.328	22.85
662.517	22.74
662.705	23.03
662.893	23.06
663.082	22.88
663.27	22.93
663.458	22.94
663.646	23.02
663.834	22.75
664.023	22.87
664.211	23.05
664.399	23.19
664.587	23.15
664.775	22.94
664.963	23.14
665.152	23.37
665.34	23.34
665.528	23.57
665.716	23.58
665.904	23.88
666.092	23.86
666.28	23.82
666.468	23.87
666.656	23.97
666.844	24.06
667.032	23.82
667.22	23.81
667.408	24
667.596	23.82
667.784	23.75
667.971	23.76
668.159	23.65
668.347	23.55
668.535	23.37
668.723	23.12
668.911	22.88
669.098	23.03
669.286	22.97
669.474	22.86
669.662	22.89
669.849	23.06
670.037	22.79
670.225	23.14
670.413	23.11
670.6	23.33
670.788	23.66
670.976	23.94
671.163	23.95
671.351	23.91
671.538	24.06
671.726	23.91
671.913	23.94
672.101	23.99
672.289	23.77
672.476	23.82
672.664	23.95
672.851	23.92
673.039	24.17
673.226	24.05
673.413	24.12
673.601	24.15
673.788	24.56
673.976	24.56
674.163	24.81
674.35	24.52
674.538	24.81
674.725	24.79
674.912	24.91
675.1	24.78
675.287	24.88
675.474	24.8
675.662	24.43
675.849	24.43
676.036	24.71
676.223	24.81
676.411	25.01
676.598	24.67
676.785	24.52
676.972	24.51
677.159	24.54
677.346	24.68
677.533	24.68
677.721	24.83
677.908	24.99
678.095	24.81
678.282	24.82
678.469	24.87
678.656	24.88
678.843	24.84
679.03	24.73
679.217	24.59
679.404	24.33
679.591	24.32
679.778	24.56
679.964	24.43
680.151	24.33
680.338	24.23
680.525	24.21
680.712	24.26
680.899	24.29
681.086	24.53
681.272	24.72
681.459	25
681.646	25.15
681.833	25.02
682.02	24.98
682.206	24.89
682.393	24.77
682.58	24.84
682.766	24.98
682.953	25.15
683.14	24.84
683.326	24.78
683.513	24.82
683.7	25.11
683.886	25.34
684.073	25.45
684.259	25.75
684.446	25.8
684.632	25.9
684.819	25.84
685.005	25.81
685.192	26.09
685.378	25.93
685.565	25.87
685.751	25.57
685.938	25.57
686.124	25.49
686.31	25.38
686.497	25.49
686.683	25.27
686.87	25.18
687.056	24.99
687.242	25.23
687.429	25.51
687.615	25.53
687.801	25.59
687.987	25.62
688.174	25.58
688.36	25.84
688.546	26.03
688.732	26.09
688.918	25.95
689.105	26.25
689.291	25.89
689.477	25.75
689.663	25.78
689.849	25.52
690.035	25.24
690.221	25.25
690.407	25.08
690.593	24.98
690.779	25.04
690.965	25.39
691.151	25.38
691.337	25.13
691.523	25.3
691.709	25.23
691.895	25.53
692.081	25.94
692.267	26.22
692.453	26.03
692.639	25.99
692.825	26.04
693.011	26.15
693.196	26.17
693.382	26.62
693.568	26.63
693.754	26.3
693.94	26.37
694.125	26.16
694.311	25.79
694.497	26.13
694.682	26.28
694.868	26.35
695.054	26.28
695.239	26.09
695.425	26.13
695.611	25.98
695.796	26.09
695.982	26.08
696.168	26.03
696.353	26.37
696.539	26.26
696.724	26.34
696.91	26.25
697.095	26.07
697.281	25.92
697.466	25.83
697.652	25.89
697.837	26.02
698.023	25.99
698.208	25.91
698.393	25.71
698.579	25.49
698.764	25.33
698.949	25.43
699.135	25.38
699.32	25.96
699.505	25.9
699.691	25.88
699.876	25.77
700.061	25.62
700.246	25.54
700.432	25.62
700.617	25.84
700.802	25.85
700.987	25.77
701.172	25.95
701.358	25.27
701.543	25.41
701.728	25.59
701.913	25.53
702.098	25.71
702.283	25.73
702.468	25.89
702.653	25.83
702.838	25.83
703.023	25.75
703.208	25.61
703.393	25.51
703.578	25.74
703.763	25.65
703.948	26.09
704.133	26.22
704.318	26.29
704.503	25.88
704.688	25.73
704.873	25.89
705.057	26.11
705.242	26.57
705.427	26.6
705.612	26.21
705.797	26.11
705.981	25.95
706.166	25.97
706.351	26.19
706.536	26.42
706.72	26.62
706.905	26.53
707.09	26.06
707.274	26.04
707.459	26.72
707.644	26.98
707.828	27.18
708.013	26.9
708.197	26.59
708.382	26.43
708.567	26.6
708.751	26.83
708.936	26.97
709.12	27.54
709.305	27.24
709.489	27.08
709.673	26.83
709.858	26.65
710.042	26.86
710.227	27.33
710.411	27.73
710.596	27.33
710.78	27.44
710.964	27.49
711.149	27.45
711.333	28.07
711.517	27.72
711.702	28.05
711.886	28.1
712.07	28.33
712.254	27.9
712.438	27.56
712.623	27.57
712.807	27.22
712.991	27.41
713.175	27.01
713.359	26.68
713.544	27.12
713.728	26.8
713.912	26.78
714.096	26.38
714.28	26.67
714.464	26.91
714.648	27.29
714.832	27.36
715.016	26.97
715.2	27.23
715.384	27.07
715.568	26.87
715.752	27.24
715.936	27.17
716.12	27.64
716.304	27.52
716.488	27.68
716.671	27.96
716.855	28.09
717.039	28.01
717.223	28.06
717.407	28.37
717.59	28.17
717.774	27.67
717.958	27.9
718.142	27.67
718.325	27.82
718.509	27.48
718.693	27.16
718.877	27.3
719.06	27.3
719.244	27.5
719.428	27.04
719.611	27.59
719.795	27.79
719.978	27.96
720.162	27.99
720.345	28
720.529	27.93
720.713	27.77
720.896	27.33
721.08	27.35
721.263	26.74
721.446	27.28
721.63	27.01
721.813	26.83
721.997	26.19
722.18	25.88
722.364	25.96
722.547	25.88
722.73	26.01
722.914	26.34
723.097	26.8
723.28	27.14
723.464	26.39
723.647	25.94
723.83	26.02
724.013	26.37
724.197	26.21
724.38	26.28
724.563	26.31
724.746	26.38
724.929	26.34
725.112	26.04
725.296	26.07
725.479	26.58
725.662	27
725.845	27.2
726.028	27.28
726.211	27.45
726.394	27.59
726.577	27.5
726.76	27.24
726.943	26.78
727.126	26.69
727.309	26.58
727.492	26.45
727.675	26.36
727.858	26.79
728.041	27.1
728.224	27.56
728.407	27.29
728.589	27.48
728.772	26.99
728.955	27.59
729.138	27.76
729.321	27.84
729.503	27.54
729.686	27.48
729.869	26.88
730.052	26.32
730.234	26.08
730.417	25.86
730.6	25.54
730.782	25.83
730.965	25.82
731.148	25.87
731.33	26.01
731.513	26.27
731.695	26.91
731.878	27.26
732.061	27.75
732.243	28.3
732.426	28.34
732.608	28.56
732.791	28.55
732.973	28.12
733.156	28.25
733.338	28.45
733.52	29.03
733.703	28.49
733.885	28.49
734.068	28.23
734.25	27.58
734.432	27.46
734.615	27.75
734.797	27.97
734.979	28.71
735.162	28.62
735.344	28.56
735.526	27.95
735.708	27.86
735.891	27.96
736.073	28.14
736.255	28.44
736.437	28.48
736.619	28.29
736.802	28.37
736.984	27.78
737.166	27.42
737.348	27.75
737.53	27.63
737.712	27.66
737.894	27.3
738.076	26.97
738.258	27.17
738.44	27.49
738.622	27.54
738.804	27.39
738.986	27.18
739.168	27.48
739.35	26.9
739.532	26.83
739.714	26.79
739.896	27.26
740.078	27.94
740.259	27.74
740.441	27.78
740.623	28.01
740.805	28.04
740.987	28.75
741.168	28.77
741.35	28.49
741.532	29.42
741.714	29.3
741.895	29.11
742.077	28.92
742.259	28.39
742.44	28.4
742.622	28.86
742.804	28.39
742.985	28.23
743.167	28.4
743.348	28.21
743.53	27.45
743.711	27.63
743.893	27.1
744.075	26.84
744.256	27.49
744.438	27.53
744.619	26.94
744.8	27.54
744.982	27.28
745.163	27.22
745.345	28.2
745.526	28.53
745.707	28.74
745.889	29.32
746.07	29.45
746.252	29.25
746.433	29.16
746.614	28.94
746.795	28.53
746.977	29.38
747.158	29.26
747.339	28.95
747.52	29.13
747.702	28.89
747.883	29.24
748.064	29.36
748.245	29.48
748.426	29.63
748.607	29.21
748.788	29.56
748.97	29.38
749.151	28.74
749.332	28.92
749.513	28.63
749.694	28.81
749.875	28.45
750.056	28.24
750.237	28.52
750.418	28.35
750.599	29
750.78	28.82
750.96	28.77
751.141	29.82
751.322	29.96
751.503	29.84
751.684	29.63
751.865	30.1
752.046	30.11
752.226	29.47
752.407	29.5
752.588	29.93
752.769	30.44
752.949	29.46
753.13	28.93
753.311	29.3
753.492	29.11
753.672	29.85
753.853	28.95
754.034	28.64
754.214	28.38
754.395	28.34
754.575	28.02
754.756	27.47
754.937	28.66
755.117	29.03
755.298	28.76
755.478	28.9
755.659	28.26
755.839	28.3
756.02	28.87
756.2	29.5
756.381	29.57
756.561	30.16
756.741	30.7
756.922	29.97
757.102	29.88
757.283	29.8
757.463	30.4
757.643	30.71
757.823	31.87
758.004	31.93
758.184	31.7
758.364	31.85
758.545	31.09
758.725	30.57
758.905	30.36
759.085	30.94
759.265	30.9
759.446	30.5
759.626	30.23
759.806	28.84
759.986	28.65
760.166	28.68
760.346	28.85
760.526	29.03
760.706	29.48
760.886	29.36
761.066	29.22
761.246	29.23
761.426	29.47
761.606	29.75
761.786	29.77
761.966	29.66
762.146	29.56
762.326	28.85
762.506	29.04
762.686	28.69
762.866	29.44
763.046	29.46
763.225	29.42
763.405	28.95
763.585	28.57
763.765	28.52
763.945	28.51
764.124	28.82
764.304	29.41
764.484	29.16
764.664	29.93
764.843	29.54
765.023	29.35
765.203	28.84
765.382	29.31
765.562	29.1
765.741	29.47
765.921	29.36
766.101	29.07
766.28	29.06
766.46	29.15
766.639	28.22
766.819	28.41
766.998	28.12
767.178	28.73
767.357	28.77
767.537	29.33
767.716	29.05
767.896	29.04
768.075	28.95
768.254	28.57
768.434	28.1
768.613	28.11
768.792	28.48
768.972	29.03
769.151	29.17
769.33	29.31
769.51	29.24
769.689	29.57
769.868	30.68
770.047	31.37
770.226	31.79
770.406	32.7
770.585	34.01
770.764	33.42
770.943	32.46
771.122	32.4
771.301	31.94
771.48	31.68
771.66	32.14
771.839	30.61
772.018	30.64
772.197	31.42
772.376	30.96
772.555	30.6
772.734	29.71
772.913	30.62
773.092	30.01
773.271	29.22
773.449	29.52
773.628	29.41
773.807	29.63
773.986	29.31
774.165	28.6
774.344	29.32
774.523	28.79
774.701	29.72
774.88	28.74
775.059	28.73
775.238	29.61
775.417	30.1
775.595	30.16
775.774	30.85
775.953	30.85
776.131	30.47
776.31	29.44
776.489	30.05
776.667	30.86
776.846	31.27
777.025	31.45
777.203	31.72
777.382	31.88
777.56	32.26
777.739	32.14
777.917	32.03
778.096	31.76
778.274	32.32
778.453	31.21
778.631	30.12
778.81	30.17
778.988	30.79
779.166	29.97
779.345	29.82
779.523	29.08
779.702	29.14
779.88	29.18
780.058	28.91
780.237	28.84
780.415	29.37
780.593	29.69
780.771	30.47
780.95	30.25
781.128	31.91
781.306	31.66
781.484	32.25
781.662	32.74
781.841	32.6
782.019	33.43
782.197	34.23
782.375	34.26
782.553	34.41
782.731	34.76
782.909	34.1
783.087	33.41
783.265	33.31
783.443	32.79
783.621	32.88
783.799	32.81
783.977	33.01
784.155	32.25
784.333	32.63
784.511	31.82
784.689	30.28
784.867	30.21
785.045	30.16
785.223	30.28
785.4	30.75
785.578	30.63
785.756	31.31
785.934	31.21
786.112	31.09
786.289	30.46
786.467	31.61
786.645	31.95
786.823	31.75
787	31.29
787.178	30.94
787.356	30.96
787.533	30.46
787.711	30.63
787.889	30.81
788.066	30.38
788.244	30.64
788.421	29.71
788.599	29.12
788.776	29.54
788.954	29.79
789.131	30.18
789.309	29.86
789.486	30.83
789.664	30.06
789.841	29.04
790.019	29.1
790.196	29.64
790.373	30.18
790.551	31.11
790.728	31.07
790.906	30.98
791.083	30.16
791.26	30.97
791.437	29.93
791.615	29.86
791.792	30.35
791.969	30.29
792.146	29.77
792.324	29.26
792.501	28.69
792.678	29.2
792.855	29.2
793.032	30.05
793.209	29.86
793.387	29.7
793.564	30.09
793.741	30.26
793.918	31.37
794.095	31.21
794.272	31.27
794.449	31.2
794.626	30.06
794.803	30.46
794.98	30.83
795.157	30.24
795.334	30.37
795.511	30.28
795.688	30.32
795.864	29.47
796.041	29.27
796.218	30.29
796.395	30.66
796.572	32.56
796.749	32.96
796.925	33.13
797.102	32.63
797.279	32.35
797.456	31.67
797.632	31.7
797.809	32.19
797.986	32.13
798.162	30.67
798.339	30.55
798.516	29.41
798.692	28.64
798.869	28.23
799.046	28.9
799.222	30.06
799.399	30.77
799.575	30.61
799.752	29.87
799.928	29.93
800.105	30.42
800.281	30.1
800.458	30.45
800.634	31.29
800.811	31.18
800.987	31.62
801.163	30.05
801.34	29.57
801.516	29.56
801.692	30.89
801.869	30.97
802.045	30.33
802.221	31.38
802.398	31.83
802.574	31.29
802.75	31.87
802.926	31.35
803.103	32.42
803.279	31.98
803.455	33.41
803.631	32.41
803.807	32.73
803.983	34.16
804.16	32.2
804.336	31.42
804.512	30.73
804.688	30.75
804.864	31.23
805.04	30.65
805.216	31.01
805.392	29.63
805.568	30.94
805.744	31.14
805.92	30.49
806.096	32.13
806.272	31.54
806.448	31.85
806.623	31.57
806.799	30.54
806.975	31.22
807.151	32.67
807.327	32.59
807.503	31.38
807.678	31.4
807.854	31.46
808.03	31.82
808.206	32.54
808.381	32.72
808.557	32.15
808.733	33.63
808.908	33.68
809.084	33.16
809.26	33.68
809.435	33.16
809.611	32.75
809.787	32.98
809.962	32.36
810.138	31.82
810.313	32.64
810.489	33.04
810.664	32.28
810.84	31.6
811.015	30.19
811.191	30.1
811.366	30.69
811.542	30.44
811.717	30.54
811.892	30.29
812.068	32.27
812.243	32.07
812.419	31.36
812.594	30.29
812.769	30.42
812.944	31.08
813.12	30.71
813.295	30.9
813.47	30.24
813.645	29.68
813.821	30.21
813.996	28.91
814.171	28.99
814.346	30.25
814.521	31.97
814.697	32.97
814.872	33.53
815.047	34.08
815.222	33.87
815.397	33.8
815.572	35.47
815.747	35.56
815.922	34.66
816.097	34.26
816.272	32.55
816.447	31.62
816.622	30.92
816.797	30.96
816.972	30.62
817.147	29.89
817.322	31.16
817.496	29.88
817.671	29.81
817.846	29.82
818.021	29.6
818.196	30.63
818.371	30.7
818.545	30.76
818.72	31.69
818.895	31.74
819.069	32.7
819.244	32
819.419	32.2
819.594	31.62
819.768	32.37
819.943	31.76
820.117	31.38
820.292	30.37
820.467	29.85
820.641	29.52
820.816	29.35
820.99	29.59
821.165	29.65
821.339	29.45
821.514	29.43
821.688	29.5
821.863	29.54
822.037	29.64
822.212	29.96
822.386	29.89
822.56	29.99
822.735	30.26
822.909	30.08
823.084	30.35
823.258	30.24
823.432	30.29
823.606	30.25
823.781	30.43
823.955	30.44
824.129	30.51
824.303	30.79
824.478	30.64
824.652	30.03
824.826	30.22
825	30.09
825.174	30.87
825.348	31.17
825.523	31.17
825.697	31.01
825.871	31.17
826.045	30.99
826.219	31.04
826.393	30.8
826.567	30.92
826.741	30.49
826.915	30.4
827.089	30.05
827.263	29.65
827.437	29.84
827.611	29.55
827.784	29.07
827.958	29.4
828.132	29.31
828.306	29.58
828.48	30.26
828.654	30.8
828.827	31.01
829.001	30.75
829.175	31.77
829.349	31.38
829.522	32.05
829.696	32.35
829.87	32.25
830.044	32.43
830.217	33.17
830.391	32.72
830.565	32.45
830.738	32.22
830.912	32.43
831.085	31.2
831.259	31.17
831.432	31.95
831.606	32.94
831.779	32.95
831.953	32.36
832.126	32.01
832.3	32.5
832.473	32.78
832.647	32.87
832.82	32.82
832.994	33.5
833.167	33.43
833.34	32.16
833.514	31.45
833.687	31.01
833.86	31.51
834.034	30.92
834.207	30.84
834.38	30.82
834.553	30.38
834.727	30.96
834.9	31.34
835.073	31.5
835.246	33.25
835.419	33.85
835.593	33.9
835.766	34.06
835.939	33.98
836.112	33.85
836.285	33.28
836.458	34.22
836.631	33.2
836.804	31.96
836.977	32.32
837.15	32.09
837.323	32.02
837.496	32.35
837.669	31.58
837.842	32.79
838.015	33.39
838.188	33.44
838.361	32.84
838.533	32.87
838.706	32.15
838.879	32.66
839.052	31.25
839.225	30.77
839.398	30.48
839.57	31.16
839.743	30.42
839.916	29.86
840.088	30.96
840.261	30.1
840.434	31.9
840.607	33.3
840.779	32.45
840.952	32.57
841.124	32.65
841.297	33.5
841.47	35.14
841.642	33.94
841.815	33.96
841.987	32.99
842.16	35.2
842.332	33.5
842.505	35.19
842.677	36.68
842.85	36.4
843.022	37.65
843.194	36.72
843.367	34.59
843.539	36.49
843.712	38.06
843.884	37.55
844.056	36.35
844.229	39.03
844.401	34.64
844.573	31.8
844.745	30.75
844.918	27.71
845.09	29.64
845.262	30.98
845.434	32.5
845.606	30.61
845.779	31.36
845.951	29.22
846.123	25.95
846.295	27.64
846.467	28.81
846.639	32.84
846.811	35.03
846.983	34.09
847.155	33.1
847.327	32.97
847.499	33.6
847.671	36.66
847.843	40.53
848.015	41.16
848.187	42.86
848.359	43.64
848.531	34.91
848.703	37.39
848.875	37.78
849.047	36.78
849.218	35.2
849.39	36.05
849.562	31.47
849.734	28.08
849.905	27.2
850.077	28.45
850.249	30.9
850.421	34.76
850.592	34.87
850.764	39.18
850.936	44.38
851.107	45.72
851.279	43.26
851.451	48.48
851.622	50.1
851.794	57.04
851.965	50.93
852.137	44.86
852.308	46.71
852.48	46.79
852.651	44.74
852.823	43.07
852.994	42.38
853.166	44.85
853.337	44.94
853.509	44.62
853.68	41.49
853.851	43.08
854.023	44.57
854.194	44.42
854.365	43.16
854.537	41.04
854.708	44.49
854.879	46.32
855.05	41.96
855.222	38.79
855.393	39.63
855.564	34.23
855.735	35.42
855.906	39.53
856.078	38.67
856.249	41.28
856.42	41.05
856.591	40.16
856.762	37.86
856.933	39.15
857.104	38.71
857.275	41.02
857.446	47.84
857.617	51.82
857.788	48.76
857.959	51.6
858.13	47.36
858.301	47.96
858.472	46.38
858.643	46.31
858.814	48.64
858.985	48.12
859.155	46.52
859.326	43.57
859.497	40.71
859.668	42.49
859.839	42.18
860.009	43.25
860.18	42.65
860.351	41.43
860.522	43.92
860.692	47.17
860.863	50.75
861.034	48.15
861.204	53.71
861.375	54.2
861.546	51.09
861.716	50.87
861.887	44.12
862.057	44.08
862.228	46.07
862.398	44.51
862.569	40.5
862.739	36.64
862.91	40.57
863.08	35.38
863.251	33.6
863.421	37.33
863.592	39.54
863.762	47.85
863.932	49.39
864.103	46.8
864.273	51.42
864.443	49.59
864.614	50.1
864.784	47.89
864.954	50.6
865.125	54.68
865.295	51.76
865.465	50.47
865.635	48.14
865.805	48.38
865.976	46.29
866.146	41.3
866.316	44.68
866.486	48.23
866.656	48.91
866.826	49.79
866.996	44.04
867.166	46.56
867.336	46.97
867.506	47.96
867.676	49.93
867.846	50.81
868.016	50.7
868.186	47.13
868.356	41.78
868.526	41.73
868.696	38.19
868.866	42.53
869.036	36.82
869.206	37.77
869.376	41.94
869.545	33.9
869.715	38.09
869.885	41.64
870.055	45.37
870.224	47.41
870.394	45.95
870.564	54.9
870.734	57.35
870.903	58.1
871.073	56.41
871.243	52.35
871.412	56.37
871.582	52.75
871.751	53.63
871.921	52.9
872.091	59.98
872.26	57.36
872.43	50.98
872.599	47.2
872.769	45.83
872.938	44.14
873.108	45.48
873.277	47.84
873.446	48.54
873.616	47.74
873.785	48.49
873.955	40.38
874.124	40.81
874.293	35.26
874.463	32.65
874.632	35
874.801	34.4
874.971	26.06
875.14	24.6
875.309	28.75
875.478	24.46
875.647	19.59
875.817	25.29
875.986	28.09
876.155	35.76
876.324	40.8
876.493	40.46
876.662	45.6
876.831	52.49
877	51.24
877.17	45.45
877.339	48.77
877.508	53.41
877.677	51.16
877.846	47.52
878.015	46.17
878.184	40.96
878.352	41.13
878.521	37.15
878.69	30.28
878.859	32.17
879.028	35.61
879.197	35.32
879.366	30.21
879.534	30.42
879.703	32.67
879.872	33.32
880.041	34.72
880.21	35.48
880.378	34.76
880.547	35.25
880.716	33.58
880.884	33.73
881.053	33.03
881.222	34.43
881.39	34.92
881.559	34.87
881.727	35.14
881.896	35.69
882.065	35.37
882.233	35.67
882.402	35.89
882.57	36.64
882.739	36.33
882.907	36.54
883.076	35.77
883.244	34.99
883.412	34.97
883.581	33.78
883.749	33.13
883.918	32.98
884.086	33.03
884.254	33.33
884.423	33.32
884.591	33.61
884.759	34.32
884.927	35.03
885.096	35.43
885.264	36.05
885.432	37.72
885.6	37.99
885.769	37.06
885.937	36.5
886.105	36.23
886.273	35.7
886.441	35.24
886.609	34.69
886.777	35.22
886.945	35.96
887.113	36.13
887.281	33.15
887.449	33.32
887.617	36.23
887.785	38.05
887.953	38.49
888.121	41.38
888.289	41.86
888.457	42.64
888.625	42.97
888.793	44.32
888.961	46.12
889.129	52.31
889.296	51.52
889.464	52.18
889.632	52.68
889.8	55.33
889.967	53.99
890.135	54.38
