Data from 2938498_Reflection_3.txt Node
Date: Wed Jun 17 00:24:28 EDT 2015
User: robert
Spectrometer: USB4E03002
Autoset integration time: false
Trigger mode: 4
Integration Time (sec): 1.000000E-1
Scans to average: 10
Electric dark correction enabled: true
Nonlinearity correction enabled: false
Boxcar width: 5
Stray light correction enabled: false
XAxis mode: Wavelengths
Stop averaging: false
Number of Pixels in Spectrum: 3648
>>>>>Begin Spectral Data<<<<<
177.575	119.59
177.794	4288.89
178.014	479.02
178.233	157.09
178.452	172.43
178.672	377.67
178.891	8.67
179.11	0.57
179.33	47.37
179.549	-506.47
179.768	195.03
179.987	139.81
180.207	36.28
180.426	-11.74
180.645	143.98
180.864	474.37
181.084	-166.92
181.303	2.55
181.522	-12.23
181.741	159.94
181.96	214.35
182.179	196.47
182.398	65.92
182.618	-226.33
182.837	-229.24
183.056	-739.24
183.275	-93.72
183.494	-2906.25
183.713	-3613.13
183.932	316.97
184.151	-435.48
184.37	-416.39
184.589	-428.48
184.808	-5.82
185.027	-21.37
185.246	96.68
185.465	165.67
185.684	158.53
185.903	223.49
186.122	352.07
186.341	210.54
186.56	1198.28
186.779	-179.65
186.998	-62.24
187.216	27.39
187.435	7.48
187.654	20.33
187.873	37.37
188.092	23.1
188.311	44.93
188.53	-1.16
188.748	-94.94
188.967	6.82
189.186	-101.05
189.405	16.41
189.623	-78.17
189.842	-344.22
190.061	677.78
190.28	75.9
190.498	431.53
190.717	959.06
190.936	76.99
191.154	-99.05
191.373	3830.43
191.592	4816.28
191.81	389.48
192.029	150.87
192.248	695.64
192.466	190.73
192.685	-219.7
192.904	28.01
193.122	-12.16
193.341	-133.39
193.559	1047.81
193.778	-306.92
193.996	27.42
194.215	78.44
194.433	423.27
194.652	704.08
194.87	1990.91
195.089	156.88
195.307	193.85
195.526	100
195.744	104.48
195.963	74.65
196.181	396.39
196.399	317.58
196.618	-209.63
196.836	628.12
197.055	-164.67
197.273	80.41
197.491	53.3
197.71	64.97
197.928	49.24
198.146	88.23
198.365	93.28
198.583	119.8
198.801	155.69
199.019	159.46
199.238	71.03
199.456	99.53
199.674	37.79
199.892	63.91
200.111	92.95
200.329	196.59
200.547	2050
200.765	87.29
200.983	90.1
201.202	33.49
201.42	33.15
201.638	41.46
201.856	24.89
202.074	20.41
202.292	-31.06
202.51	-12.49
202.728	-24.36
202.946	-10.13
203.165	-33.66
203.383	-56.23
203.601	-20.36
203.819	10.71
204.037	-25.33
204.255	-51.44
204.473	-115.88
204.691	-205.26
204.909	-91.92
205.127	-354.41
205.345	37150
205.562	79.34
205.78	122.46
205.998	353.83
206.216	-3504.55
206.434	-45.38
206.652	-29.9
206.87	-31.8
207.088	25.5
207.306	-14.22
207.523	-29.37
207.741	-17.49
207.959	-1.81
208.177	3.32
208.395	2.32
208.612	-22.33
208.83	4.88
209.048	23.92
209.266	83.83
209.483	21.17
209.701	49.87
209.919	57.35
210.136	-17.75
210.354	-43.93
210.572	-30.46
210.79	-102.03
211.007	-61.17
211.225	-39.55
211.442	-57.32
211.66	-74.27
211.878	-31.74
212.095	-27.99
212.313	-46.37
212.53	-55.75
212.748	-55.61
212.966	-75.9
213.183	-28.06
213.401	-39.22
213.618	-81.77
213.836	-92.4
214.053	-44.53
214.271	-53.82
214.488	-170.25
214.705	-271.69
214.923	-4.12
215.14	80.17
215.358	44.89
215.575	76.85
215.793	935.71
216.01	194.15
216.227	191.17
216.445	229.02
216.662	241.93
216.879	416.17
217.097	540.17
217.314	415.25
217.531	679.87
217.749	675.19
217.966	-312.51
218.183	2181.65
218.4	-1079.17
218.618	-80.25
218.835	-103.87
219.052	4.25
219.269	71.93
219.487	80.03
219.704	73.88
219.921	74.59
220.138	56.57
220.355	53.24
220.572	53.77
220.79	55.15
221.007	41.95
221.224	7.7
221.441	-17.9
221.658	-56.66
221.875	-64.49
222.092	-44
222.309	-25.88
222.526	-20.57
222.743	-40.61
222.96	-13.89
223.177	-34.24
223.394	-18.07
223.611	-6.16
223.828	4.89
224.045	3.13
224.262	9.07
224.479	7.63
224.696	4.81
224.913	11.3
225.13	9.83
225.347	8.78
225.564	12.84
225.781	11.82
225.997	12.82
226.214	15.02
226.431	14.68
226.648	12.34
226.865	11.22
227.082	10.9
227.298	9.13
227.515	11.25
227.732	9.51
227.949	9.97
228.165	7.47
228.382	9.9
228.599	8.8
228.816	8.82
229.032	10.78
229.249	12.87
229.466	11.78
229.682	12.5
229.899	12.08
230.116	14.57
230.332	11.88
230.549	15.82
230.765	10.8
230.982	9.24
231.199	10.56
231.415	11.56
231.632	7.45
231.848	10.96
232.065	8.66
232.281	6.38
232.498	5.36
232.714	6.11
232.931	2.93
233.147	4.56
233.364	6.53
233.58	8.33
233.797	2.22
234.013	5.22
234.23	2.64
234.446	0.75
234.662	0.23
234.879	-3.98
235.095	-2.62
235.312	-0.91
235.528	0.99
235.744	0.16
235.961	1.1
236.177	3.76
236.393	1.59
236.61	3.61
236.826	4.98
237.042	4.25
237.258	7.4
237.475	7.78
237.691	9.45
237.907	7.91
238.123	6.5
238.339	3.89
238.556	7.23
238.772	7.15
238.988	7.49
239.204	10.09
239.42	11.09
239.636	10.51
239.853	11.58
240.069	12.81
240.285	13.9
240.501	14.61
240.717	14.54
240.933	13.99
241.149	13.56
241.365	13.65
241.581	12.99
241.797	12.96
242.013	13.97
242.229	13.65
242.445	11.46
242.661	11.06
242.877	11.93
243.093	13.25
243.309	11.7
243.525	13.21
243.741	13.67
243.957	13.4
244.173	13.87
244.388	13.22
244.604	13.04
244.82	13.41
245.036	13.63
245.252	12.47
245.468	11.56
245.683	12.11
245.899	11.99
246.115	11.28
246.331	11.52
246.547	11.52
246.762	11.52
246.978	11.03
247.194	11.54
247.409	11.28
247.625	11.46
247.841	11.93
248.057	11.95
248.272	12.1
248.488	12.88
248.703	11.86
248.919	11.98
249.135	12.57
249.35	13.07
249.566	12.29
249.782	11.62
249.997	10.67
250.213	10.46
250.428	9.43
250.644	10.61
250.859	9.24
251.075	9.92
251.29	9.29
251.506	9.15
251.721	8.46
251.937	7.79
252.152	7.68
252.368	7.61
252.583	5.78
252.798	7.97
253.014	5.72
253.229	6.85
253.445	4.88
253.66	4.42
253.875	3.35
254.091	4.48
254.306	3.58
254.521	3.27
254.737	4.6
254.952	4.27
255.167	3.52
255.383	2.65
255.598	1.5
255.813	3.6
256.028	2.94
256.244	3.2
256.459	2.62
256.674	4.17
256.889	4.57
257.104	4.96
257.32	6.18
257.535	6.29
257.75	6.88
257.965	7.61
258.18	7.29
258.395	7.89
258.61	7.61
258.826	7.53
259.041	7.53
259.256	7.23
259.471	7.17
259.686	7.03
259.901	6.58
260.116	6.2
260.331	5.78
260.546	5.82
260.761	4.98
260.976	5.56
261.191	5.62
261.406	4.96
261.621	5
261.836	4.76
262.05	4.55
262.265	5.78
262.48	5.48
262.695	6.07
262.91	4.73
263.125	5.26
263.34	5.17
263.555	6.26
263.769	6.12
263.984	6.7
264.199	6.83
264.414	6.41
264.629	6.34
264.843	7.3
265.058	7.76
265.273	8.68
265.488	8.31
265.702	7.88
265.917	8.06
266.132	8.5
266.346	9.36
266.561	9.66
266.776	10.09
266.99	10.84
267.205	10.83
267.42	10.2
267.634	9.59
267.849	9.7
268.063	10.49
268.278	9.64
268.492	10.08
268.707	9.51
268.922	9.3
269.136	8.72
269.351	7.47
269.565	6.9
269.78	7.18
269.994	7.98
270.209	8.02
270.423	7.71
270.637	8.11
270.852	8.02
271.066	7.55
271.281	6.65
271.495	6.13
271.709	6.8
271.924	6.53
272.138	6.52
272.353	6.59
272.567	6.74
272.781	6.25
272.996	5.06
273.21	4.8
273.424	4.69
273.638	6.29
273.853	7.03
274.067	6.4
274.281	6.18
274.495	6.13
274.71	5.7
274.924	5.83
275.138	5.57
275.352	7.63
275.566	7.13
275.781	8.12
275.995	7.64
276.209	7.99
276.423	7.15
276.637	7.81
276.851	7.78
277.065	7.42
277.279	7.14
277.493	7.73
277.707	7.25
277.921	7.23
278.135	5.91
278.349	5.58
278.563	5.65
278.777	6.25
278.991	5.12
279.205	5.49
279.419	6.16
279.633	6.74
279.847	7.2
280.061	6.85
280.275	6.92
280.489	7.68
280.703	8.46
280.917	8.64
281.131	8.69
281.344	9.79
281.558	8.74
281.772	8.46
281.986	8.15
282.2	8.05
282.414	7.56
282.627	7.64
282.841	7.1
283.055	6.21
283.269	6.05
283.482	6.53
283.696	6.23
283.91	6.43
284.123	6.88
284.337	7.26
284.551	7.23
284.764	7.54
284.978	7.52
285.192	7.9
285.405	8.72
285.619	8.43
285.833	8.18
286.046	8.93
286.26	8.86
286.473	7.85
286.687	7.95
286.9	7.88
287.114	8.44
287.327	8.87
287.541	8.81
287.754	8.16
287.968	8.72
288.181	8.28
288.395	7.84
288.608	8.73
288.822	9.36
289.035	9.06
289.248	8.87
289.462	9.09
289.675	8.85
289.889	8.94
290.102	9.39
290.315	9.52
290.529	10.04
290.742	10.07
290.955	10.34
291.169	10.16
291.382	10.24
291.595	10.73
291.808	9.97
292.022	11.07
292.235	11.44
292.448	10.83
292.661	10.54
292.875	11.03
293.088	11.35
293.301	10.89
293.514	11.49
293.727	11.58
293.94	11.53
294.153	11.62
294.367	11.34
294.58	11.42
294.793	11.58
295.006	11.9
295.219	11.65
295.432	11.46
295.645	12
295.858	11.93
296.071	12.18
296.284	11.9
296.497	11.72
296.71	11.54
296.923	11.61
297.136	11.64
297.349	11.97
297.562	11.74
297.775	11.75
297.988	11.46
298.201	11.38
298.414	11.56
298.626	11.9
298.839	12.16
299.052	12.4
299.265	11.56
299.478	12.05
299.691	11.93
299.903	11.88
300.116	12.26
300.329	12.56
300.542	12.51
300.755	11.96
300.967	11.9
301.18	12.66
301.393	12.57
301.605	12.83
301.818	12.71
302.031	12.54
302.243	12.68
302.456	13.21
302.669	13.46
302.881	13.26
303.094	13.88
303.307	14.2
303.519	13.51
303.732	13.58
303.944	14.06
304.157	14.33
304.37	14.87
304.582	15.89
304.795	15.86
305.007	15.35
305.22	15.44
305.432	15.75
305.645	15.82
305.857	15.58
306.069	16.48
306.282	16.85
306.494	16.03
306.707	15.45
306.919	14.95
307.132	14.52
307.344	14.62
307.556	15.34
307.769	14.68
307.981	14.85
308.193	14.93
308.406	14.18
308.618	14.45
308.83	15.01
309.043	15.19
309.255	15.22
309.467	15.05
309.679	14.79
309.892	14.52
310.104	14.61
310.316	14.5
310.528	14.85
310.74	14.73
310.953	14.88
311.165	14.98
311.377	14.84
311.589	15.02
311.801	14.83
312.013	15.25
312.225	15.02
312.437	15
312.649	14.91
312.862	14.72
313.074	14.8
313.286	14.42
313.498	13.87
313.71	14.22
313.922	14.02
314.134	14.3
314.346	14.66
314.558	15.28
314.77	16.05
314.982	15.87
315.193	16.19
315.405	16.52
315.617	16.45
315.829	16.74
316.041	16.31
316.253	16.97
316.465	17.24
316.677	16.78
316.888	16.76
317.1	15.77
317.312	16.03
317.524	15.86
317.736	15.78
317.947	16.04
318.159	15.79
318.371	16.71
318.583	15.87
318.794	15.82
319.006	15.46
319.218	14.99
319.43	15.4
319.641	15.17
319.853	14.94
320.064	14.59
320.276	14.65
320.488	14.8
320.699	14.54
320.911	15.55
321.123	15.3
321.334	15.7
321.546	15.89
321.757	15.82
321.969	16.18
322.18	16.78
322.392	17.57
322.603	16.87
322.815	16.62
323.026	16.27
323.238	16.1
323.449	16.83
323.661	16.72
323.872	17.49
324.083	18.27
324.295	18.36
324.506	18.4
324.718	18.39
324.929	19.02
325.14	19.99
325.352	19.98
325.563	20.12
325.774	20.3
325.986	20.48
326.197	20.48
326.408	19.82
326.62	20.15
326.831	20.01
327.042	19.75
327.253	20.24
327.464	20.2
327.676	21.1
327.887	21.54
328.098	21.82
328.309	22.91
328.52	23.35
328.732	24.67
328.943	25.26
329.154	26.24
329.365	27.06
329.576	26.91
329.787	27.28
329.998	27.84
330.209	27.66
330.42	27.66
330.631	27.71
330.842	27.69
331.053	27.05
331.264	27.11
331.475	27.12
331.686	27.45
331.897	27.72
332.108	28.38
332.319	27.71
332.53	28.06
332.741	28.23
332.952	28.01
333.163	27.79
333.374	27.9
333.585	27.72
333.795	27.83
334.006	27.67
334.217	28.16
334.428	27.84
334.639	28.44
334.849	28.65
335.06	28.37
335.271	28.95
335.482	29.14
335.692	29.73
335.903	30.23
336.114	29.76
336.325	30.12
336.535	30.44
336.746	30.42
336.957	30.01
337.167	29.65
337.378	30.02
337.589	29.78
337.799	29.68
338.01	29.46
338.22	29.1
338.431	29.44
338.642	29.05
338.852	28.54
339.063	28.8
339.273	29.1
339.484	29.57
339.694	29.86
339.905	30.01
340.115	30.41
340.326	30.44
340.536	30.35
340.746	30.52
340.957	30.26
341.167	30.45
341.378	30.69
341.588	30.71
341.799	30.39
342.009	30.34
342.219	30.14
342.43	30.28
342.64	30.39
342.85	30.54
343.061	30.47
343.271	30.66
343.481	30.55
343.691	29.83
343.902	29.82
344.112	30.18
344.322	29.62
344.532	29.27
344.743	28.72
344.953	28.3
345.163	28.08
345.373	27.78
345.583	27.78
345.793	27.62
346.004	27.79
346.214	27.43
346.424	26.93
346.634	27.15
346.844	27.3
347.054	27.26
347.264	27.65
347.474	27.68
347.684	27.95
347.894	27.8
348.104	27.64
348.314	27.6
348.524	27.91
348.734	27.92
348.944	27.82
349.154	27.81
349.364	28.08
349.574	27.95
349.784	28.05
349.994	27.8
350.204	28.24
350.413	28.15
350.623	28.46
350.833	28.01
351.043	27.85
351.253	28.27
351.463	28.44
351.672	28.49
351.882	28.95
352.092	28.72
352.302	28.94
352.511	28.68
352.721	28.69
352.931	28.23
353.141	28.55
353.35	28.69
353.56	28.32
353.77	27.89
353.979	28.09
354.189	27.68
354.399	28
354.608	27.89
354.818	27.76
355.027	27.96
355.237	28.02
355.447	28.05
355.656	27.74
355.866	27.79
356.075	27.95
356.285	27.39
356.494	27.39
356.704	26.99
356.913	26.97
357.123	27.13
357.332	26.82
357.542	26.95
357.751	26.62
357.96	26.9
358.17	26.95
358.379	26.88
358.589	27.2
358.798	27.02
359.007	27.14
359.217	27.29
359.426	27.32
359.635	27.34
359.845	27.16
360.054	27.41
360.263	27.53
360.472	27.51
360.682	27.57
360.891	27.28
361.1	27.25
361.309	27.4
361.519	27.09
361.728	26.66
361.937	26.69
362.146	26.63
362.355	26.54
362.564	26.29
362.774	26.18
362.983	26.31
363.192	26.35
363.401	26.38
363.61	25.66
363.819	25.52
364.028	25.64
364.237	25.63
364.446	25.51
364.655	25.17
364.864	25.25
365.073	25.2
365.282	25.01
365.491	24.92
365.7	24.6
365.909	25.05
366.118	25.3
366.327	25.67
366.536	25.61
366.745	25.72
366.954	25.84
367.162	25.86
367.371	25.59
367.58	25.52
367.789	25.52
367.998	25.8
368.207	25.54
368.415	25.46
368.624	25.35
368.833	25.19
369.042	25.19
369.25	25.16
369.459	24.91
369.668	25.04
369.877	24.86
370.085	24.86
370.294	24.76
370.503	25.01
370.711	24.79
370.92	24.63
371.129	24.71
371.337	24.81
371.546	24.61
371.754	24.67
371.963	24.54
372.171	24.37
372.38	24.5
372.589	24.29
372.797	24.11
373.006	24.3
373.214	24.42
373.423	24.39
373.631	24.16
373.84	24.21
374.048	23.89
374.256	23.82
374.465	23.83
374.673	23.63
374.882	23.66
375.09	23.59
375.298	23.47
375.507	22.92
375.715	22.84
375.923	22.87
376.132	23.03
376.34	23.44
376.548	23.33
376.757	23.23
376.965	22.95
377.173	23.01
377.381	22.93
377.59	22.76
377.798	22.83
378.006	22.7
378.214	22.49
378.423	21.97
378.631	21.75
378.839	21.79
379.047	21.63
379.255	21.84
379.463	21.49
379.671	21.35
379.879	21.46
380.088	21.5
380.296	21.47
380.504	21.54
380.712	21.68
380.92	21.31
381.128	21.14
381.336	21.41
381.544	21.27
381.752	21.37
381.96	21.42
382.168	21.35
382.376	21.35
382.584	21.26
382.791	20.92
382.999	20.88
383.207	20.9
383.415	21.16
383.623	21.01
383.831	21
384.039	20.89
384.247	20.75
384.454	20.45
384.662	20.18
384.87	20.13
385.078	20.43
385.285	20.52
385.493	20.27
385.701	19.75
385.909	19.6
386.116	19.47
386.324	19.52
386.532	19.51
386.739	19.51
386.947	19.67
387.155	19.6
387.362	19.44
387.57	19.45
387.778	19.46
387.985	19.79
388.193	19.96
388.4	19.96
388.608	19.63
388.816	19.61
389.023	19.74
389.231	19.69
389.438	19.65
389.646	19.63
389.853	19.37
390.061	19.45
390.268	19.13
390.475	18.89
390.683	18.8
390.89	18.84
391.098	18.72
391.305	18.54
391.512	18.46
391.72	18.37
391.927	18.22
392.135	18.19
392.342	18.07
392.549	18.01
392.756	18.13
392.964	18.09
393.171	18.06
393.378	18.13
393.586	18.07
393.793	17.87
394	17.87
394.207	17.94
394.414	17.79
394.622	17.93
394.829	17.99
395.036	17.87
395.243	18.05
395.45	18.21
395.657	18.16
395.864	18.39
396.072	18.38
396.279	18.23
396.486	18.05
396.693	17.98
396.9	17.73
397.107	17.75
397.314	17.65
397.521	17.38
397.728	17.27
397.935	17.3
398.142	17.03
398.349	16.95
398.556	16.9
398.763	16.89
398.97	16.99
399.177	16.91
399.383	16.93
399.59	17
399.797	16.77
400.004	16.5
400.211	16.37
400.418	16.27
400.625	16.25
400.831	16.22
401.038	16.32
401.245	16.13
401.452	16.27
401.658	16.21
401.865	16.07
402.072	16.16
402.279	16.11
402.485	15.94
402.692	15.83
402.899	15.78
403.105	15.64
403.312	15.54
403.519	15.7
403.725	15.62
403.932	15.44
404.138	15.36
404.345	15.27
404.552	15.46
404.758	15.35
404.965	15.21
405.171	15.33
405.378	15.42
405.584	15.37
405.791	15.25
405.997	15.26
406.204	15.45
406.41	15.47
406.617	15.57
406.823	15.43
407.029	15.37
407.236	15.57
407.442	15.39
407.649	15.48
407.855	15.29
408.061	15.35
408.268	15.13
408.474	15.15
408.68	15.12
408.887	15.05
409.093	14.95
409.299	15.26
409.505	15.26
409.712	15.23
409.918	15.1
410.124	15.17
410.33	14.9
410.537	15.08
410.743	14.8
410.949	14.62
411.155	14.54
411.361	14.58
411.567	14.41
411.773	14.24
411.98	14.16
412.186	14.13
412.392	13.95
412.598	14.03
412.804	13.95
413.01	13.96
413.216	14.14
413.422	14.02
413.628	13.89
413.834	13.82
414.04	13.96
414.246	13.97
414.452	13.9
414.658	13.9
414.864	13.89
415.07	13.84
415.275	13.81
415.481	13.75
415.687	13.78
415.893	13.92
416.099	13.8
416.305	13.78
416.511	13.76
416.716	13.71
416.922	13.8
417.128	13.72
417.334	13.7
417.539	13.65
417.745	13.66
417.951	13.64
418.157	13.5
418.362	13.49
418.568	13.31
418.774	13.19
418.979	13.15
419.185	13.08
419.391	12.97
419.596	12.88
419.802	12.84
420.008	12.69
420.213	13.14
420.419	13.09
420.624	13.08
420.83	13.14
421.035	13.17
421.241	13.18
421.446	13.07
421.652	13.1
421.857	13.11
422.063	13.08
422.268	12.99
422.474	12.44
422.679	12.44
422.885	12.38
423.09	12.31
423.295	12.21
423.501	12.1
423.706	12.07
423.911	11.97
424.117	11.84
424.322	11.77
424.527	11.78
424.733	11.62
424.938	11.6
425.143	11.55
425.349	11.58
425.554	11.57
425.759	11.53
425.964	11.6
426.169	11.65
426.375	11.66
426.58	11.69
426.785	11.75
426.99	11.84
427.195	11.81
427.4	11.84
427.605	11.84
427.811	11.86
428.016	11.85
428.221	11.79
428.426	11.88
428.631	11.92
428.836	11.8
429.041	11.8
429.246	11.82
429.451	11.8
429.656	11.77
429.861	11.68
430.066	11.71
430.271	11.8
430.476	11.78
430.681	11.7
430.886	11.7
431.09	11.76
431.295	11.7
431.5	11.71
431.705	11.71
431.91	11.67
432.115	11.71
432.32	11.72
432.524	11.65
432.729	11.54
432.934	11.56
433.139	11.52
433.343	11.48
433.548	11.52
433.753	11.52
433.958	11.54
434.162	11.56
434.367	11.55
434.572	11.39
434.776	11.34
434.981	11.44
435.186	11.44
435.39	11.33
435.595	11.4
435.799	11.42
436.004	11.47
436.209	11.4
436.413	11.35
436.618	11.43
436.822	11.56
437.027	11.52
437.231	11.59
437.436	11.6
437.64	11.65
437.845	11.58
438.049	11.55
438.253	11.46
438.458	11.43
438.662	11.39
438.867	11.3
439.071	11.25
439.275	11.4
439.48	11.31
439.684	11.23
439.888	11.25
440.093	11.27
440.297	11.2
440.501	11.26
440.706	11.28
440.91	11.38
441.114	11.41
441.318	11.41
441.523	11.27
441.727	11.23
441.931	11.26
442.135	11.2
442.339	11.23
442.543	11.23
442.748	11.09
442.952	11.07
443.156	10.99
443.36	10.93
443.564	10.9
443.768	10.93
443.972	11.01
444.176	10.9
444.38	10.92
444.584	10.86
444.788	10.83
444.992	10.84
445.196	10.84
445.4	10.79
445.604	10.73
445.808	10.72
446.012	10.69
446.216	10.68
446.42	10.69
446.624	10.57
446.828	10.64
447.032	10.6
447.235	10.61
447.439	10.58
447.643	10.57
447.847	10.63
448.051	10.67
448.254	10.65
448.458	10.56
448.662	10.55
448.866	10.68
449.069	10.59
449.273	10.71
449.477	10.74
449.681	10.8
449.884	10.82
450.088	10.81
450.292	10.79
450.495	10.74
450.699	10.7
450.902	10.72
451.106	10.64
451.31	10.51
451.513	10.43
451.717	10.28
451.92	10.16
452.124	10.15
452.327	10.11
452.531	10.05
452.734	9.97
452.938	10.05
453.141	10.06
453.345	9.98
453.548	10.03
453.752	9.9
453.955	10.04
454.158	9.96
454.362	9.88
454.565	9.84
454.769	9.76
454.972	9.86
455.175	9.71
455.379	9.65
455.582	9.75
455.785	9.67
455.988	9.8
456.192	9.69
456.395	9.87
456.598	9.94
456.801	9.94
457.005	10
457.208	10.04
457.411	10.04
457.614	10.02
457.817	10.06
458.021	10.1
458.224	10.11
458.427	10.17
458.63	10.11
458.833	10.15
459.036	10.14
459.239	10.09
459.442	9.96
459.645	9.98
459.848	10.02
460.051	9.96
460.254	9.91
460.457	9.87
460.66	9.88
460.863	9.88
461.066	9.77
461.269	9.76
461.472	9.87
461.675	10.03
461.878	10.19
462.081	10.18
462.284	10.26
462.486	10.49
462.689	10.48
462.892	10.45
463.095	10.48
463.298	10.58
463.5	10.63
463.703	10.7
463.906	10.67
464.109	10.6
464.311	10.68
464.514	10.61
464.717	10.48
464.92	10.47
465.122	10.39
465.325	10.37
465.528	10.48
465.73	10.63
465.933	10.56
466.135	10.57
466.338	10.58
466.541	10.53
466.743	10.6
466.946	10.67
467.148	10.73
467.351	10.83
467.553	10.88
467.756	10.86
467.958	10.63
468.161	10.55
468.363	10.51
468.566	10.58
468.768	10.67
468.971	10.79
469.173	10.74
469.375	10.73
469.578	10.79
469.78	10.81
469.983	10.65
470.185	10.76
470.387	10.97
470.59	11.07
470.792	11.04
470.994	10.94
471.196	10.81
471.399	10.93
471.601	10.94
471.803	10.85
472.005	10.89
472.208	10.94
472.41	10.92
472.612	10.78
472.814	10.73
473.016	10.65
473.218	10.64
473.421	10.72
473.623	10.63
473.825	10.69
474.027	10.75
474.229	10.74
474.431	10.87
474.633	11.06
474.835	11.19
475.037	11.27
475.239	11.34
475.441	11.38
475.643	11.43
475.845	11.39
476.047	11.34
476.249	11.39
476.451	11.39
476.653	11.33
476.855	11.27
477.057	11.23
477.258	11.26
477.46	11.25
477.662	11.2
477.864	11.25
478.066	11.33
478.268	11.4
478.469	11.35
478.671	11.33
478.873	11.32
479.075	11.3
479.276	11.3
479.478	11.2
479.68	11.15
479.882	11.23
480.083	11.13
480.285	11.07
480.487	11.02
480.688	11.02
480.89	10.99
481.091	10.96
481.293	10.9
481.495	10.88
481.696	10.84
481.898	10.84
482.099	10.75
482.301	10.72
482.502	10.72
482.704	10.67
482.905	10.64
483.107	10.64
483.308	10.65
483.51	10.59
483.711	10.59
483.913	10.59
484.114	10.61
484.315	10.66
484.517	10.67
484.718	10.67
484.92	10.7
485.121	10.66
485.322	10.66
485.524	10.66
485.725	10.72
485.926	10.7
486.127	10.7
486.329	10.66
486.53	10.62
486.731	10.63
486.932	10.63
487.134	10.63
487.335	10.69
487.536	10.7
487.737	10.7
487.938	10.75
488.139	10.79
488.341	10.82
488.542	10.85
488.743	10.91
488.944	10.95
489.145	10.97
489.346	11.01
489.547	10.95
489.748	10.89
489.949	10.85
490.15	10.84
490.351	10.83
490.552	10.84
490.753	10.84
490.954	10.87
491.155	10.87
491.356	10.92
491.557	10.92
491.758	11.03
491.959	11.17
492.159	11.29
492.36	11.34
492.561	11.41
492.762	11.48
492.963	11.57
493.164	11.58
493.364	11.62
493.565	11.62
493.766	11.65
493.967	11.71
494.167	11.69
494.368	11.66
494.569	11.69
494.769	11.71
494.97	11.75
495.171	11.78
495.371	11.79
495.572	11.74
495.773	11.85
495.973	11.89
496.174	11.85
496.375	11.91
496.575	11.96
496.776	11.96
496.976	11.9
497.177	11.94
497.377	11.98
497.578	12.07
497.778	12.12
497.979	12.08
498.179	12.17
498.38	12.25
498.58	12.24
498.78	12.29
498.981	12.42
499.181	12.62
499.382	12.65
499.582	12.71
499.782	12.77
499.983	12.85
500.183	12.91
500.383	12.99
500.584	13.11
500.784	13.21
500.984	13.28
501.184	13.28
501.385	13.41
501.585	13.55
501.785	13.65
501.985	13.69
502.185	13.77
502.386	13.83
502.586	13.91
502.786	13.9
502.986	13.97
503.186	14.07
503.386	14.15
503.586	14.12
503.786	14.15
503.987	14.16
504.187	14.23
504.387	14.37
504.587	14.42
504.787	14.46
504.987	14.52
505.187	14.58
505.387	14.56
505.587	14.64
505.786	14.6
505.986	14.57
506.186	14.63
506.386	14.71
506.586	14.75
506.786	14.88
506.986	14.89
507.186	15.02
507.386	14.99
507.585	15.11
507.785	15.15
507.985	15.29
508.185	15.35
508.384	15.42
508.584	15.43
508.784	15.53
508.984	15.56
509.183	15.68
509.383	15.79
509.583	15.91
509.782	15.99
509.982	16.08
510.182	16.24
510.381	16.39
510.581	16.45
510.781	16.64
510.98	16.7
511.18	16.8
511.379	16.88
511.579	16.87
511.778	17.01
511.978	17.16
512.177	17.31
512.377	17.38
512.576	17.56
512.776	17.68
512.975	17.77
513.175	17.88
513.374	18
513.573	17.96
513.773	18.06
513.972	18.21
514.172	18.31
514.371	18.37
514.57	18.41
514.77	18.41
514.969	18.48
515.168	18.56
515.367	18.73
515.567	18.81
515.766	19.03
515.965	19.13
516.164	19.15
516.364	19.16
516.563	19.29
516.762	19.37
516.961	19.42
517.16	19.48
517.359	19.54
517.559	19.54
517.758	19.6
517.957	19.6
518.156	19.67
518.355	19.84
518.554	19.9
518.753	19.9
518.952	20.05
519.151	20.2
519.35	20.32
519.549	20.43
519.748	20.57
519.947	20.68
520.146	20.86
520.345	20.98
520.544	20.98
520.743	21.24
520.942	21.39
521.141	21.41
521.339	21.49
521.538	21.66
521.737	21.75
521.936	21.79
522.135	21.82
522.333	21.85
522.532	21.97
522.731	22.11
522.93	22.07
523.129	22.08
523.327	22.1
523.526	22.11
523.725	22.12
523.923	22.07
524.122	22.09
524.321	22.16
524.519	22.18
524.718	22.15
524.917	22.17
525.115	22.28
525.314	22.43
525.512	22.54
525.711	22.63
525.909	22.69
526.108	22.8
526.306	22.81
526.505	22.88
526.703	22.91
526.902	22.96
527.1	23.01
527.299	22.99
527.497	22.91
527.696	22.91
527.894	22.9
528.092	22.9
528.291	22.89
528.489	22.94
528.688	22.92
528.886	22.99
529.084	22.98
529.283	22.95
529.481	23
529.679	23.15
529.877	23.29
530.076	23.43
530.274	23.56
530.472	23.68
530.67	23.78
530.869	23.85
531.067	23.9
531.265	23.97
531.463	24.07
531.661	24.11
531.859	24.1
532.057	24.06
532.255	24
532.454	23.97
532.652	23.97
532.85	24.01
533.048	24.09
533.246	24.13
533.444	24.19
533.642	24.21
533.84	24.19
534.038	24.25
534.236	24.35
534.434	24.48
534.632	24.61
534.83	24.66
535.027	24.73
535.225	24.78
535.423	24.8
535.621	24.81
535.819	24.85
536.017	24.96
536.215	25.04
536.412	25.03
536.61	25.01
536.808	25
537.006	25.07
537.203	25.08
537.401	25.12
537.599	25.23
537.797	25.35
537.994	25.4
538.192	25.51
538.39	25.55
538.587	25.69
538.785	25.73
538.983	25.85
539.18	25.85
539.378	25.84
539.575	25.81
539.773	25.84
539.97	25.82
540.168	25.82
540.366	25.81
540.563	25.75
540.761	25.69
540.958	25.73
541.155	25.69
541.353	25.71
541.55	25.78
541.748	25.81
541.945	25.81
542.143	25.88
542.34	25.88
542.537	25.93
542.735	26.05
542.932	26.1
543.129	26.12
543.327	26.2
543.524	26.28
543.721	26.27
543.919	26.39
544.116	26.44
544.313	26.47
544.51	26.55
544.708	26.6
544.905	26.68
545.102	26.81
545.299	26.9
545.496	26.92
545.693	26.94
545.891	26.93
546.088	26.88
546.285	26.87
546.482	26.88
546.679	26.93
546.876	26.98
547.073	27.01
547.27	26.99
547.467	26.98
547.664	27.09
547.861	27.17
548.058	27.3
548.255	27.36
548.452	27.58
548.649	27.68
548.846	27.7
549.043	27.8
549.24	27.78
549.437	27.8
549.633	27.98
549.83	27.97
550.027	28.05
550.224	28.1
550.421	28.34
550.618	28.41
550.814	28.41
551.011	28.49
551.208	28.49
551.405	28.47
551.601	28.62
551.798	28.53
551.995	28.62
552.191	28.58
552.388	28.59
552.585	28.51
552.781	28.45
552.978	28.55
553.175	28.67
553.371	28.63
553.568	28.69
553.764	28.66
553.961	28.77
554.157	28.72
554.354	28.84
554.55	29
554.747	29.01
554.943	29.05
555.14	29.1
555.336	29.18
555.533	29.32
555.729	29.41
555.926	29.48
556.122	29.48
556.318	29.59
556.515	29.57
556.711	29.48
556.907	29.52
557.104	29.67
557.3	29.65
557.496	29.55
557.693	29.71
557.889	29.84
558.085	30.05
558.281	30.16
558.478	30.14
558.674	30.19
558.87	30.31
559.066	30.4
559.262	30.35
559.459	30.47
559.655	30.64
559.851	30.6
560.047	30.63
560.243	30.54
560.439	30.53
560.635	30.62
560.831	30.7
561.027	30.68
561.223	30.69
561.419	30.75
561.615	30.69
561.811	30.7
562.007	30.68
562.203	30.68
562.399	30.72
562.595	30.82
562.791	30.78
562.987	30.81
563.183	30.91
563.379	31.06
563.575	31.2
563.771	31.32
563.966	31.37
564.162	31.37
564.358	31.45
564.554	31.48
564.75	31.55
564.945	31.56
565.141	31.69
565.337	31.68
565.533	31.62
565.728	31.64
565.924	31.55
566.12	31.58
566.315	31.7
566.511	31.67
566.707	31.71
566.902	31.74
567.098	31.81
567.293	31.71
567.489	31.86
567.684	31.93
567.88	31.98
568.076	32.1
568.271	32
568.467	32.11
568.662	32.1
568.858	32.11
569.053	32.11
569.248	32.19
569.444	32.23
569.639	32.25
569.835	32.35
570.03	32.34
570.225	32.43
570.421	32.64
570.616	32.5
570.812	32.54
571.007	32.54
571.202	32.64
571.397	32.65
571.593	32.68
571.788	32.75
571.983	32.75
572.178	32.83
572.374	32.87
572.569	32.93
572.764	33.01
572.959	33.07
573.154	33.11
573.35	33.12
573.545	33.18
573.74	33.23
573.935	33.18
574.13	33.22
574.325	33.24
574.52	33.26
574.715	33.22
574.91	33.3
575.105	33.39
575.3	33.42
575.495	33.44
575.69	33.6
575.885	33.65
576.08	33.66
576.275	33.66
576.47	33.81
576.665	33.78
576.86	33.7
577.055	33.76
577.25	33.78
577.444	33.85
577.639	33.89
577.834	33.75
578.029	33.68
578.224	33.8
578.418	33.81
578.613	33.69
578.808	33.9
579.003	34.09
579.197	34.14
579.392	34.22
579.587	34.32
579.781	34.35
579.976	34.46
580.171	34.68
580.365	34.65
580.56	34.69
580.755	34.6
580.949	34.49
581.144	34.61
581.338	34.52
581.533	34.59
581.727	34.55
581.922	34.51
582.116	34.58
582.311	34.58
582.505	34.64
582.7	34.76
582.894	34.88
583.089	35.11
583.283	34.97
583.478	35.12
583.672	35.19
583.866	35.32
584.061	35.34
584.255	35.32
584.449	35.29
584.644	35.34
584.838	35.4
585.032	35.37
585.226	35.26
585.421	35.27
585.615	35.3
585.809	35.19
586.003	35.08
586.198	35.21
586.392	35.52
586.586	35.46
586.78	35.47
586.974	35.48
587.168	35.59
587.363	35.5
587.557	35.52
587.751	35.47
587.945	35.54
588.139	35.69
588.333	35.62
588.527	35.48
588.721	35.6
588.915	35.55
589.109	35.6
589.303	35.45
589.497	35.65
589.691	35.74
589.885	35.76
590.079	35.69
590.273	35.58
590.466	35.58
590.66	35.54
590.854	35.61
591.048	35.62
591.242	35.48
591.436	35.6
591.629	35.51
591.823	35.5
592.017	35.58
592.211	35.63
592.404	35.64
592.598	35.63
592.792	35.46
592.986	35.43
593.179	35.43
593.373	35.54
593.567	35.63
593.76	35.72
593.954	35.82
594.147	35.85
594.341	35.89
594.535	35.97
594.728	35.99
594.922	36.07
595.115	36.14
595.309	36.13
595.502	36.13
595.696	36
595.889	35.85
596.083	35.92
596.276	35.77
596.47	35.82
596.663	35.77
596.856	35.83
597.05	35.77
597.243	35.8
597.437	35.91
597.63	35.91
597.823	35.98
598.017	35.98
598.21	35.79
598.403	35.96
598.596	35.97
598.79	36.03
598.983	35.94
599.176	36.15
599.369	36.09
599.563	36.11
599.756	36.14
599.949	36.1
600.142	36.25
600.335	36.23
600.528	36.16
600.722	36.1
600.915	36.29
601.108	36.32
601.301	36.22
601.494	36.25
601.687	36.07
601.88	36.04
602.073	36.12
602.266	36.14
602.459	36.06
602.652	36.15
602.845	36.09
603.038	35.98
603.231	36.04
603.424	36.11
603.617	36.02
603.809	36.06
604.002	35.95
604.195	36.01
604.388	35.96
604.581	36.14
604.774	36.1
604.966	36.21
605.159	36.17
605.352	36.13
605.545	36.01
605.737	36.08
605.93	36.25
606.123	36.42
606.316	36.49
606.508	36.68
606.701	36.6
606.894	36.72
607.086	36.74
607.279	36.85
607.471	36.94
607.664	37.05
607.857	37.06
608.049	36.93
608.242	36.93
608.434	36.84
608.627	36.71
608.819	36.76
609.012	36.59
609.204	36.59
609.397	36.6
609.589	36.66
609.782	36.76
609.974	36.74
610.166	36.88
610.359	36.91
610.551	36.92
610.743	36.91
610.936	36.91
611.128	37.07
611.32	37.04
611.513	37.09
611.705	36.97
611.897	37
612.09	37.07
612.282	37.13
612.474	37.1
612.666	37.17
612.858	37.21
613.051	37.3
613.243	37.33
613.435	37.38
613.627	37.2
613.819	37.32
614.011	37.04
614.203	37.23
614.395	37.19
614.588	37.26
614.78	37.2
614.972	37.24
615.164	37.23
615.356	37.11
615.548	37.22
615.74	37.27
615.932	37.19
616.124	37.22
616.315	37
616.507	37.06
616.699	36.89
616.891	36.92
617.083	36.95
617.275	37.05
617.467	37.29
617.659	37.19
617.85	37.14
618.042	37.22
618.234	37.3
618.426	37.38
618.618	37.18
618.809	37.28
619.001	37.33
619.193	37.24
619.384	37.28
619.576	37.11
619.768	37.03
619.959	37.08
620.151	37.12
620.343	37.34
620.534	37.05
620.726	37.15
620.917	37.22
621.109	37.03
621.301	37.04
621.492	36.91
621.684	36.76
621.875	36.89
622.067	36.89
622.258	36.89
622.45	36.83
622.641	37.14
622.832	37.14
623.024	37.08
623.215	37.18
623.407	37.25
623.598	37.28
623.789	37.48
623.981	37.4
624.172	37.42
624.363	37.36
624.555	37.22
624.746	37.13
624.937	37.15
625.129	37.18
625.32	37.16
625.511	37.04
625.702	36.91
625.893	36.86
626.085	36.93
626.276	36.87
626.467	36.9
626.658	36.88
626.849	36.94
627.04	36.78
627.231	36.8
627.422	36.85
627.614	37.01
627.805	37.08
627.996	37.11
628.187	37.1
628.378	37.22
628.569	37.23
628.76	37.3
628.951	37.28
629.142	37.51
629.332	37.42
629.523	37.34
629.714	37.22
629.905	37.18
630.096	37.05
630.287	36.9
630.478	36.97
630.669	36.88
630.859	36.85
631.05	36.81
631.241	36.81
631.432	36.95
631.623	37.05
631.813	37.19
632.004	37.12
632.195	37.28
632.385	37.27
632.576	37.19
632.767	37.23
632.957	37.22
633.148	37.1
633.339	37.08
633.529	37.1
633.72	36.87
633.91	36.8
634.101	36.77
634.292	36.73
634.482	36.8
634.673	36.81
634.863	36.78
635.054	36.89
635.244	36.94
635.435	36.86
635.625	36.69
635.815	36.93
636.006	37.04
636.196	37.28
636.387	37.24
636.577	37.28
636.767	37.19
636.958	37.34
637.148	37.24
637.338	37.59
637.529	37.61
637.719	37.53
637.909	37.63
638.099	37.5
638.29	37.49
638.48	37.42
638.67	37.2
638.86	37.31
639.05	37.2
639.241	37.28
639.431	36.95
639.621	36.89
639.811	37.03
640.001	36.78
640.191	36.85
640.381	36.69
640.571	36.81
640.761	37.22
640.951	37.22
641.141	37.17
641.331	37.16
641.521	37.22
641.711	37.28
641.901	37.28
642.091	37.44
642.281	37.33
642.471	37.54
642.661	37.72
642.851	37.53
643.041	37.47
643.231	37.55
643.42	37.38
643.61	37.47
643.8	37.48
643.99	37.63
644.18	37.56
644.369	37.79
644.559	37.76
644.749	37.72
644.939	37.75
645.128	37.92
645.318	38.06
645.508	37.97
645.697	37.82
645.887	37.92
646.076	37.79
646.266	37.83
646.456	37.54
646.645	37.42
646.835	37.1
647.024	37.27
647.214	37.07
647.403	36.75
647.593	37.09
647.782	37.15
647.972	37.12
648.161	37.04
648.351	36.79
648.54	36.87
648.73	36.92
648.919	37.15
649.108	36.83
649.298	36.76
649.487	37.06
649.677	37.13
649.866	37.17
650.055	36.91
650.244	36.97
650.434	37.11
650.623	37.23
650.812	37.12
651.002	36.78
651.191	36.99
651.38	37.37
651.569	37.31
651.758	37
651.947	36.81
652.137	37.32
652.326	37.38
652.515	37.3
652.704	37.13
652.893	37.25
653.082	37.6
653.271	37.47
653.46	37.17
653.649	36.88
653.838	36.9
654.027	37.15
654.216	36.76
654.405	36.76
654.594	37.03
654.783	37.2
654.972	37.07
655.161	37.01
655.35	37.1
655.539	37.07
655.728	37.23
655.916	37.22
656.105	36.99
656.294	36.96
656.483	36.84
656.672	36.68
656.86	36.65
657.049	36.81
657.238	36.83
657.427	36.78
657.615	36.96
657.804	36.9
657.993	36.9
658.181	36.86
658.37	36.95
658.559	37.1
658.747	37
658.936	37
659.125	36.66
659.313	36.72
659.502	36.8
659.69	36.66
659.879	36.73
660.067	36.97
660.256	37.2
660.444	37.28
660.633	37.39
660.821	37.59
661.01	37.74
661.198	38.15
661.387	38.33
661.575	38.2
661.763	38.17
661.952	38.25
662.14	38.27
662.328	38.4
662.517	38.1
662.705	37.75
662.893	37.97
663.082	38.04
663.27	37.96
663.458	37.86
663.646	37.92
663.834	37.96
664.023	37.85
664.211	37.7
664.399	37.61
664.587	37.77
664.775	37.62
664.963	37.43
665.152	37.18
665.34	37.41
665.528	37.21
665.716	37.31
665.904	37.43
666.092	37.52
666.28	37.25
666.468	37.11
666.656	37.3
666.844	37.63
667.032	37.83
667.22	37.95
667.408	37.84
667.596	37.91
667.784	37.78
667.971	37.52
668.159	37.34
668.347	37.71
668.535	37.85
668.723	37.64
668.911	37.77
669.098	37.47
669.286	37.28
669.474	37.3
669.662	37.23
669.849	37.25
670.037	37.42
670.225	37.65
670.413	37.36
670.6	37.32
670.788	37.37
670.976	37.22
671.163	37.49
671.351	37.59
671.538	37.57
671.726	37.53
671.913	37.58
672.101	37.65
672.289	37.63
672.476	37.52
672.664	37.53
672.851	37.66
673.039	37.56
673.226	37.29
673.413	37.51
673.601	37.29
673.788	37.37
673.976	37.44
674.163	37.2
674.35	37.13
674.538	37.39
674.725	37.47
674.912	37.65
675.1	37.99
675.287	37.83
675.474	37.64
675.662	37.85
675.849	37.86
676.036	37.77
676.223	38
676.411	38
676.598	38.09
676.785	37.8
676.972	37.49
677.159	37.35
677.346	37.33
677.533	37.28
677.721	37.33
677.908	37.42
678.095	37.37
678.282	37.23
678.469	37.15
678.656	37.22
678.843	37.29
679.03	37.56
679.217	37.45
679.404	37.47
679.591	37.52
679.778	37.24
679.964	37.12
680.151	37.07
680.338	37.21
680.525	37.06
680.712	36.85
680.899	36.99
681.086	36.89
681.272	36.92
681.459	37.17
681.646	37.13
681.833	37.54
682.02	37.58
682.206	37.66
682.393	37.74
682.58	38
682.766	37.92
682.953	37.73
683.14	37.58
683.326	37.59
683.513	37.51
683.7	37.51
683.886	37.14
684.073	37.15
684.259	37.07
684.446	37.13
684.632	37.22
684.819	37.4
685.005	37.53
685.192	37.43
685.378	37.46
685.565	37.44
685.751	37.32
685.938	37.18
686.124	37.01
686.31	37.15
686.497	36.63
686.683	36.39
686.87	36.23
687.056	36.31
687.242	36.34
687.429	36.16
687.615	36.27
687.801	36.27
687.987	36.45
688.174	36.59
688.36	36.42
688.546	36.87
688.732	36.94
688.918	37.14
689.105	36.99
689.291	37.22
689.477	37.24
689.663	37.05
689.849	37.1
690.035	37.02
690.221	37.07
690.407	37.14
690.593	36.93
690.779	36.67
690.965	36.5
691.151	36.65
691.337	36.5
691.523	36.49
691.709	36.99
691.895	37.22
692.081	37.32
692.267	37.05
692.453	36.89
692.639	37.04
692.825	37.3
693.011	37.39
693.196	37.3
693.382	37.18
693.568	37.31
693.754	36.86
693.94	37.04
694.125	37.3
694.311	37.42
694.497	37.44
694.682	36.95
694.868	37.06
695.054	36.88
695.239	36.74
695.425	36.85
695.611	36.46
695.796	36.26
695.982	36.15
696.168	36.13
696.353	36.24
696.539	36.26
696.724	36.43
696.91	36.46
697.095	36.47
697.281	36.47
697.466	36.36
697.652	36.45
697.837	36.48
698.023	36.48
698.208	36.31
698.393	36.19
698.579	36.38
698.764	36.48
698.949	36.29
699.135	36.36
699.32	36.3
699.505	36.42
699.691	36.62
699.876	36.58
700.061	36.66
700.246	36.81
700.432	36.76
700.617	36.72
700.802	36.3
700.987	36.52
701.172	36.4
701.358	36.46
701.543	36.59
701.728	36.46
701.913	36.33
702.098	36.22
702.283	36.19
702.468	36.11
702.653	35.92
702.838	36.58
703.023	36.46
703.208	36.39
703.393	36.9
703.578	36.33
703.763	36.78
703.948	37.22
704.133	36.97
704.318	36.95
704.503	37.47
704.688	37.48
704.873	37.38
705.057	37.61
705.242	37.79
705.427	37.66
705.612	38.11
705.797	37.89
705.981	37.56
706.166	37.69
706.351	37.45
706.536	37.23
706.72	37.13
706.905	37.17
707.09	37.17
707.274	37.16
707.459	36.99
707.644	36.91
707.828	36.71
708.013	37.01
708.197	36.92
708.382	37.17
708.567	37.02
708.751	37.54
708.936	37.04
709.12	36.95
709.305	36.91
709.489	36.6
709.673	36.66
709.858	36.74
710.042	36.58
710.227	36.73
710.411	36.72
710.596	36.97
710.78	36.36
710.964	36.8
711.149	36.42
711.333	36.31
711.517	36.35
711.702	36.75
711.886	36.55
712.07	36.38
712.254	36.32
712.438	36.45
712.623	36.15
712.807	36.35
712.991	36.36
713.175	36.94
713.359	36.89
713.544	36.96
713.728	36.58
713.912	36.79
714.096	37.19
714.28	37.21
714.464	36.78
714.648	36.76
714.832	36.86
715.016	36.48
715.2	36.14
715.384	36.21
715.568	36.5
715.752	36.36
715.936	36.28
716.12	36.13
716.304	35.85
716.488	35.9
716.671	36.03
716.855	36.17
717.039	36.45
717.223	36.67
717.407	36.78
717.59	36.43
717.774	36.49
717.958	36.51
718.142	36.47
718.325	36.74
718.509	36.94
718.693	36.63
718.877	36.03
719.06	35.99
719.244	35.77
719.428	35.81
719.611	35.54
719.795	35.77
719.978	35.59
720.162	35.33
720.345	35.05
720.529	35.04
720.713	35.43
720.896	35.78
721.08	36.08
721.263	35.87
721.446	35.62
721.63	35.75
721.813	35.81
721.997	36.31
722.18	36.66
722.364	36.58
722.547	36.72
722.73	36.49
722.914	36.35
723.097	35.92
723.28	36.46
723.464	36.71
723.647	37.27
723.83	37.16
724.013	36.86
724.197	36.92
724.38	36.88
724.563	36.66
724.746	36.7
724.929	37.41
725.112	37.86
725.296	38.03
725.479	37.85
725.662	37.36
725.845	36.82
726.028	36.96
726.211	36.76
726.394	36.81
726.577	36.65
726.76	36.38
726.943	35.42
727.126	35.17
727.309	34.96
727.492	35
727.675	35.32
727.858	35.45
728.041	35.12
728.224	35.07
728.407	35.15
728.589	35.76
728.772	36.1
728.955	36.31
729.138	35.98
729.321	35.61
729.503	36.22
729.686	36.02
729.869	36.26
730.052	36.56
730.234	36.49
730.417	36.34
730.6	35.99
730.782	35.53
730.965	35.75
731.148	36.19
731.33	36.18
731.513	35.71
731.695	35.43
731.878	35.13
732.061	34.72
732.243	34.62
732.426	35.11
732.608	34.99
732.791	35.46
732.973	35.4
733.156	35.47
733.338	35.66
733.52	35.31
733.703	35.58
733.885	35.82
734.068	36.24
734.25	36.7
734.432	36.14
734.615	36.4
734.797	36.23
734.979	36.58
735.162	36.18
735.344	35.78
735.526	36.09
735.708	36
735.891	35.79
736.073	35.22
736.255	34.69
736.437	34.88
736.619	34.7
736.802	35.08
736.984	34.64
737.166	34.73
737.348	34.83
737.53	34.47
737.712	34.63
737.894	34.38
738.076	34.83
738.258	35.35
738.44	35.29
738.622	35.06
738.804	34.59
738.986	34.36
739.168	34.41
739.35	34.63
739.532	34.84
739.714	34.56
739.896	34.63
740.078	34.28
740.259	34.39
740.441	34.31
740.623	34.3
740.805	35.1
740.987	35.02
741.168	34.21
741.35	34.37
741.532	34.03
741.714	34.32
741.895	35.12
742.077	35.41
742.259	34.83
742.44	34.56
742.622	35.71
742.804	35.15
742.985	36.28
743.167	37.62
743.348	36.89
743.53	37.41
743.711	37.29
743.893	36.55
744.075	36.41
744.256	36.75
744.438	37.01
744.619	36.07
744.8	35.85
744.982	35.13
745.163	34.36
745.345	34.58
745.526	34.08
745.707	34.27
745.889	33.86
746.07	33.87
746.252	34.03
746.433	34.02
746.614	33.92
746.795	34.29
746.977	34.14
747.158	34.22
747.339	34.48
747.52	35.13
747.702	34.91
747.883	35.39
748.064	35.96
748.245	35.41
748.426	35.29
748.607	35.21
748.788	35.37
748.97	35.23
749.151	35.18
749.332	35.55
749.513	35.55
749.694	35.72
749.875	36.02
750.056	35.64
750.237	35.84
750.418	36.15
750.599	36.96
750.78	36.04
750.96	36.16
751.141	36.14
751.322	35.93
751.503	35.92
751.684	35.76
751.865	35.3
752.046	35.24
752.226	34.61
752.407	34.9
752.588	34.02
752.769	35.05
752.949	35.09
753.13	34.89
753.311	34.9
753.492	35.44
753.672	36.24
753.853	36.28
754.034	35.79
754.214	36.3
754.395	35.44
754.575	35.34
754.756	35.16
754.937	35.49
755.117	35.51
755.298	35.63
755.478	33.93
755.659	33.16
755.839	33.53
756.02	33.41
756.2	33.43
756.381	34.26
756.561	34.5
756.741	33.69
756.922	33.97
757.102	34.15
757.283	33.91
757.463	34.68
757.643	34.79
757.823	34.57
758.004	34.83
758.184	35
758.364	34.33
758.545	33.9
758.725	34.2
758.905	33.58
759.085	34.18
759.265	34.12
759.446	34.35
759.626	34.2
759.806	34.23
759.986	34.63
760.166	34.19
760.346	34.35
760.526	34.63
760.706	35.1
760.886	35.41
761.066	35.04
761.246	34.92
761.426	34.68
761.606	35.09
761.786	35.04
761.966	34.8
762.146	34.84
762.326	34.8
762.506	34.95
762.686	34.74
762.866	34.49
763.046	34.08
763.225	34.01
763.405	34.19
763.585	34.2
763.765	33.77
763.945	33.78
764.124	34.05
764.304	34.34
764.484	34.68
764.664	34.32
764.843	34.43
765.023	35.05
765.203	35.22
765.382	35.17
765.562	35.23
765.741	36.17
765.921	36.29
766.101	36.15
766.28	36.42
766.46	35.92
766.639	36.69
766.819	36.26
766.998	35.93
767.178	36.13
767.357	36.44
767.537	35.97
767.716	35.62
767.896	35.49
768.075	35.78
768.254	35.4
768.434	35.61
768.613	34.72
768.792	34.55
768.972	34.36
769.151	34.08
769.33	33.67
769.51	33.79
769.689	33.56
769.868	33.46
770.047	33.08
770.226	32.81
770.406	32.98
770.585	33.97
770.764	34.72
770.943	34.61
771.122	34.49
771.301	34.51
771.48	33.99
771.66	33.66
771.839	34.06
772.018	34.45
772.197	34.53
772.376	33.78
772.555	33.39
772.734	33.36
772.913	33.99
773.092	33.45
773.271	33.22
773.449	33.64
773.628	34.68
773.807	34.28
773.986	34.85
774.165	35.88
774.344	36.21
774.523	35.68
774.701	36.3
774.88	36.9
775.059	36.8
775.238	36.1
775.417	36.07
775.595	35.04
775.774	34.57
775.953	33.02
776.131	32.08
776.31	32.3
776.489	32.06
776.667	31.7
776.846	30.64
777.025	31.38
777.203	32.81
777.382	33.24
777.56	33.89
777.739	34.39
777.917	35.91
778.096	35.88
778.274	35.91
778.453	36.57
778.631	35.68
778.81	36.2
778.988	36.12
779.166	36.25
779.345	36.28
779.523	37.01
779.702	36.93
779.88	36.51
780.058	36.52
780.237	36.69
780.415	36.96
780.593	38.12
780.771	37.98
780.95	38.53
781.128	38.07
781.306	37.92
781.484	37.65
781.662	38.7
781.841	38.83
782.019	38.83
782.197	37.97
782.375	37.99
782.553	38.01
782.731	38.01
782.909	37.67
783.087	37.07
783.265	36.67
783.443	35.99
783.621	35.32
783.799	35.08
783.977	34.34
784.155	35.15
784.333	35.56
784.511	34.52
784.689	34.28
784.867	34.16
785.045	34.94
785.223	34.74
785.4	35.05
785.578	33.82
785.756	34.66
785.934	35.63
786.112	35.22
786.289	33.88
786.467	33.42
786.645	32.72
786.823	32.56
787	31.03
787.178	31.08
787.356	30.83
787.533	31.63
787.711	30.38
787.889	30.71
788.066	30.4
788.244	30.7
788.421	31.48
788.599	32.29
788.776	32.35
788.954	33.74
789.131	34.24
789.309	34.85
789.486	35.43
789.664	35.76
789.841	35.32
790.019	35.58
790.196	35.71
790.373	35.53
790.551	34.75
790.728	34.11
790.906	34.37
791.083	35.48
791.26	34.42
791.437	34.02
791.615	34.2
791.792	33.98
791.969	34.23
792.146	33.73
792.324	34.05
792.501	34.88
792.678	36.4
792.855	35.94
793.032	34.79
793.209	35.87
793.387	35.8
793.564	35.68
793.741	36.73
793.918	36.63
794.095	38.14
794.272	38.24
794.449	38.16
794.626	37.94
794.803	37.72
794.98	37.41
795.157	36.97
795.334	36.87
795.511	36.94
795.688	36.72
795.864	36.15
796.041	35.19
796.218	34.77
796.395	34.49
796.572	33.97
796.749	34.56
796.925	34.41
797.102	34.22
797.279	34.07
797.456	34.01
797.632	33.6
797.809	34.38
797.986	34.74
798.162	34.93
798.339	34.73
798.516	34.66
798.692	33.6
798.869	33.39
799.046	33.35
799.222	33.37
799.399	33.77
799.575	33.92
799.752	33.93
799.928	33.56
800.105	34.45
800.281	33.92
800.458	34.12
800.634	35.09
800.811	35.59
800.987	35.97
801.163	36.72
801.34	36
801.516	34.89
801.692	34.09
801.869	34.25
802.045	33.71
802.221	35.05
802.398	35.18
802.574	34.9
802.75	34.05
802.926	33.77
803.103	33.49
803.279	33.75
803.455	34.61
803.631	35.82
803.807	36.59
803.983	35.67
804.16	34.74
804.336	34.24
804.512	34.16
804.688	35.11
804.864	34.47
805.04	34.03
805.216	33.41
805.392	33.15
805.568	32.59
805.744	32.13
805.92	32.67
806.096	33.24
806.272	32.91
806.448	33.28
806.623	33.09
806.799	33.77
806.975	33.15
807.151	32.98
807.327	33.88
807.503	33.22
807.678	32.92
807.854	33.38
808.03	33.58
808.206	33.39
808.381	32.68
808.557	33.34
808.733	33.28
808.908	33.36
809.084	35.12
809.26	33.53
809.435	33.86
809.611	33.34
809.787	32.32
809.962	31.99
810.138	31.67
810.313	32.04
810.489	31.06
810.664	30.91
810.84	32.15
811.015	30.8
811.191	30.71
811.366	30.91
811.542	32.15
811.717	32.35
811.892	33.64
812.068	35.26
812.243	34.43
812.419	35.32
812.594	35.8
812.769	35.58
812.944	36.45
813.12	37.47
813.295	37.17
813.47	36.9
813.645	36.86
813.821	35.03
813.996	34.5
814.171	36.28
814.346	35.41
814.521	34.48
814.697	35.28
814.872	35.36
815.047	34.71
815.222	35.09
815.397	34.66
815.572	35.55
815.747	34.97
815.922	35.14
816.097	33.84
816.272	33.26
816.447	32.35
816.622	31.94
816.797	32.12
816.972	32.49
817.147	32.96
817.322	32.36
817.496	32.48
817.671	32.89
817.846	32.85
818.021	31.86
818.196	32.78
818.371	33.95
818.545	33.52
818.72	33.02
818.895	32.62
819.069	31.95
819.244	32.8
819.419	32.15
819.594	32.21
819.768	31.64
819.943	33.35
820.117	32.64
820.292	32.43
820.467	31.93
820.641	32.13
820.816	32.45
820.99	32.72
821.165	32.82
821.339	32.89
821.514	32.96
821.688	32.96
821.863	32.79
822.037	32.97
822.212	32.94
822.386	33.12
822.56	32.92
822.735	33.11
822.909	32.99
823.084	32.66
823.258	32.77
823.432	32.85
823.606	32.83
823.781	32.74
823.955	32.59
824.129	32.64
824.303	32.9
824.478	33.17
824.652	33.1
824.826	33.08
825	33.14
825.174	32.65
825.348	32.81
825.523	32.7
825.697	32.86
825.871	33.31
826.045	33.3
826.219	32.79
826.393	32.98
826.567	32.82
826.741	32.93
826.915	33.25
827.089	33.51
827.263	33.53
827.437	33.88
827.611	33.61
827.784	33.19
827.958	33.13
828.132	33.19
828.306	33.41
828.48	33.24
828.654	33.54
828.827	32.74
829.001	32.31
829.175	31.75
829.349	32.04
829.522	32.34
829.696	32.02
829.87	31.84
830.044	32.32
830.217	30.81
830.391	30.98
830.565	30.2
830.738	31.13
830.912	32.21
831.085	31.88
831.259	30.65
831.432	30.93
831.606	32.25
831.779	33.43
831.953	32.91
832.126	32.76
832.3	32.23
832.473	32.17
832.647	33.57
832.82	33.92
832.994	34.02
833.167	34.69
833.34	33.87
833.514	33.16
833.687	32.37
833.86	32.84
834.034	33.55
834.207	34.08
834.38	33.86
834.553	33.33
834.727	33.04
834.9	33.73
835.073	33.05
835.246	33.16
835.419	34.04
835.593	34.25
835.766	33.71
835.939	33.19
836.112	32.79
836.285	33.05
836.458	31.88
836.631	31.07
836.804	29.73
836.977	31.04
837.15	31.91
837.323	31.78
837.496	32.16
837.669	32.41
837.842	32.28
838.015	32
838.188	32.47
838.361	32.38
838.533	31.73
838.706	32.33
838.879	31.55
839.052	32.44
839.225	30.48
839.398	30.69
839.57	29.41
839.743	27.87
839.916	28.38
840.088	28.53
840.261	29.68
840.434	31.78
840.607	31.93
840.779	31.52
840.952	30.35
841.124	31.33
841.297	31.6
841.47	31.8
841.642	33.79
841.815	33.07
841.987	34.2
842.16	33.01
842.332	30.42
842.505	28.68
842.677	28.86
842.85	27.71
843.022	28.85
843.194	26.11
843.367	27.02
843.539	27.71
843.712	27.79
843.884	27.42
844.056	28.55
844.229	30.95
844.401	32.38
844.573	32.46
844.745	32.12
844.918	28.17
845.09	28.89
845.262	31.9
845.434	31.89
845.606	31.77
845.779	30.59
845.951	30.68
846.123	31.29
846.295	30.17
846.467	32.74
846.639	31.47
846.811	32.25
846.983	34.04
847.155	28.01
847.327	26.22
847.499	25.19
847.671	26.17
847.843	22.38
848.015	22.44
848.187	22.52
848.359	19.86
848.531	22.53
848.703	22.98
848.875	23.02
849.047	29.28
849.218	32.92
849.39	33.53
849.562	33.25
849.734	34.6
849.905	33.87
850.077	37.62
850.249	35.09
850.421	34.63
850.592	34.52
850.764	34.09
850.936	33.71
851.107	31.06
851.279	34.92
851.451	34.02
851.622	35.26
851.794	34.36
851.965	33.51
852.137	34.19
852.308	35.3
852.48	36.6
852.651	36.76
852.823	35.6
852.994	38.35
853.166	34.1
853.337	35.44
853.509	36.19
853.68	32.81
853.851	35.56
854.023	34.6
854.194	31.51
854.365	37.04
854.537	39.57
854.708	43.48
854.879	41.09
855.05	38.41
855.222	37.92
855.393	36.24
855.564	40.52
855.735	36.46
855.906	38.86
856.078	42.06
856.249	34.22
856.42	31.7
856.591	30.79
856.762	30
856.933	33.86
857.104	34.88
857.275	32.36
857.446	28.18
857.617	29.48
857.788	27.29
857.959	27.18
858.13	29.94
858.301	32.28
858.472	29.63
858.643	30.72
858.814	30.02
858.985	31.59
859.155	32.73
859.326	37.31
859.497	32.99
859.668	38.12
859.839	39.49
860.009	38.7
860.18	35.48
860.351	33.53
860.522	30.7
860.692	30.5
860.863	28.06
861.034	26.6
861.204	26.54
861.375	32.14
861.546	29.95
861.716	27.57
861.887	26.41
862.057	24.23
862.228	27.33
862.398	29.21
862.569	30.5
862.739	31.56
862.91	33.95
863.08	32.36
863.251	31.08
863.421	34.06
863.592	33.91
863.762	33.89
863.932	34.33
864.103	30.5
864.273	30.72
864.443	32.08
864.614	27.55
864.784	30.54
864.954	28.4
865.125	22.7
865.295	21.12
865.465	17.11
865.635	15.46
865.805	14.9
865.976	20.54
866.146	19.3
866.316	17.68
866.486	16.4
866.656	14.48
866.826	19.44
866.996	22.75
867.166	19.95
867.336	25.2
867.506	27.4
867.676	27.31
867.846	25.15
868.016	26.35
868.186	30.14
868.356	30.9
868.526	30.65
868.696	27.1
868.866	26.94
869.036	27.41
869.206	27.42
869.376	29.27
869.545	32.9
869.715	35.21
869.885	35.44
870.055	34.33
870.224	35.29
870.394	34.78
870.564	38.15
870.734	39.62
870.903	41
871.073	37.95
871.243	34.38
871.412	32.66
871.582	30.19
871.751	27.28
871.921	25.27
872.091	26.99
872.26	29.72
872.43	29.02
872.599	27.39
872.769	30.38
872.938	32.98
873.108	38.14
873.277	41.03
873.446	43.37
873.616	47.16
873.785	46.05
873.955	47.24
874.124	46.11
874.293	43.42
874.463	44.19
874.632	40.18
874.801	39.63
874.971	41.26
875.14	36.72
875.309	34.68
875.478	36.78
875.647	37.02
875.817	35.11
875.986	30.7
876.155	32.24
876.324	35.04
876.493	38.55
876.662	39.05
876.831	40.7
877	40.23
877.17	40.06
877.339	33.9
877.508	37.34
877.677	36.19
877.846	37.63
878.015	39.31
878.184	36.49
878.352	31.38
878.521	29.43
878.69	25.16
878.859	27.77
879.028	30.66
879.197	34.23
879.366	28.97
879.534	28.35
879.703	29.38
879.872	28.92
880.041	31.1
880.21	31.47
880.378	33.88
880.547	33.55
880.716	33.94
880.884	33.84
881.053	32.91
881.222	32.99
881.39	33.67
881.559	33.75
881.727	34.39
881.896	33.65
882.065	33.93
882.233	32.82
882.402	32.42
882.57	31.5
882.739	30.4
882.907	31.19
883.076	31.25
883.244	31.07
883.412	31.02
883.581	30
883.749	30.35
883.918	30.34
884.086	30.57
884.254	30.78
884.423	30.5
884.591	32.19
884.759	30.82
884.927	32.6
885.096	32.87
885.264	32.76
885.432	32.63
885.6	32.15
885.769	31.5
885.937	31.08
886.105	30.75
886.273	33.57
886.441	31.5
886.609	31.35
886.777	29.54
886.945	27.52
887.113	26.55
887.281	28.35
887.449	28.94
887.617	27.75
887.785	26.96
887.953	27.51
888.121	26.45
888.289	25.88
888.457	26.36
888.625	27.79
888.793	30.28
888.961	34.87
889.129	35.66
889.296	35.79
889.464	38.7
889.632	42.44
889.8	42.72
889.967	41.9
890.135	46.42
