Data from 2938534_Reflection_1.txt Node
Date: Mon Jun 15 23:57:05 EDT 2015
User: robert
Spectrometer: USB4E03002
Autoset integration time: false
Trigger mode: 4
Integration Time (sec): 1.000000E-1
Scans to average: 10
Electric dark correction enabled: true
Nonlinearity correction enabled: false
Boxcar width: 6
Stray light correction enabled: false
XAxis mode: Wavelengths
Stop averaging: false
Number of Pixels in Spectrum: 3648
>>>>>Begin Spectral Data<<<<<
177.575	-133.36
177.794	3.22
178.014	56.45
178.233	33.01
178.452	64.16
178.672	23.93
178.891	78.57
179.11	42.59
179.33	40.51
179.549	48.79
179.768	27.41
179.987	11.82
180.207	-5.92
180.426	-16.33
180.645	34.84
180.864	51.22
181.084	43.77
181.303	159.38
181.522	109.78
181.741	193.17
181.96	363.64
182.179	225.89
182.398	384.38
182.618	516.41
182.837	940.74
183.056	-8814.29
183.275	-367.31
183.494	-451.25
183.713	-501.18
183.932	-139.81
184.151	-107.38
184.37	-46.19
184.589	9.3
184.808	84.52
185.027	59.74
185.246	50.69
185.465	72.96
185.684	76.61
185.903	62.85
186.122	40.72
186.341	28.47
186.56	38.93
186.779	26.63
186.998	2.02
187.216	-18.67
187.435	-63.91
187.654	-96.82
187.873	-92.11
188.092	-244.81
188.311	-266.51
188.53	-191.74
188.748	-343.79
188.967	-133.33
189.186	-305.45
189.405	-163.48
189.623	-108.5
189.842	-15.17
190.061	0.29
190.28	35.94
190.498	47.19
190.717	56.64
190.936	87.71
191.154	81.99
191.373	73.53
191.592	72.65
191.81	23.08
192.029	61.19
192.248	81.31
192.466	205
192.685	-43.59
192.904	-60.83
193.122	-154.55
193.341	-81.3
193.559	-137.21
193.778	-120.51
193.996	-358.06
194.215	-71.16
194.433	-58.39
194.652	-87.03
194.87	-280
195.089	-233.5
195.307	-103.54
195.526	-105.94
195.744	-161.49
195.963	-75.57
196.181	-50.95
196.399	26.32
196.618	48.02
196.836	27.04
197.055	129.09
197.273	265.79
197.491	213.11
197.71	362.7
197.928	374.19
198.146	549.33
198.365	-220.65
198.583	-188.79
198.801	-28.21
199.019	24.25
199.238	60.16
199.456	109.38
199.674	88.37
199.892	92.44
200.111	509.68
200.329	-414.58
200.547	-152.71
200.765	-314.29
200.983	-95.65
201.202	-85.23
201.42	-74.13
201.638	-51.43
201.856	-14.66
202.074	-17.18
202.292	-17.15
202.51	-84.44
202.728	-86.57
202.946	-269.09
203.165	-37.7
203.383	-166.94
203.601	-42.56
203.819	-1333.33
204.037	-52.17
204.255	4.08
204.473	-0.77
204.691	545
204.909	366.67
205.127	197.98
205.345	435.96
205.562	888.89
205.78	251.32
205.998	245.91
206.216	197.73
206.434	164.63
206.652	209.85
206.87	327.06
207.088	328.11
207.306	376.12
207.523	523.03
207.741	1015.71
207.959	-400
208.177	-320.61
208.395	-192.15
208.612	-62.7
208.83	-89.9
209.048	-52.24
209.266	-29.34
209.483	-53.74
209.701	-48.5
209.919	-24.89
210.136	-56.91
210.354	-39.96
210.572	-92.6
210.79	-136.05
211.007	-145.17
211.225	-150.16
211.442	-134.6
211.66	-115.22
211.878	-265.81
212.095	-234.19
212.313	-146.79
212.53	-169.66
212.748	-160.84
212.966	-128.34
213.183	-181.37
213.401	-165.54
213.618	-132.07
213.836	-161.36
214.053	-124.35
214.271	-116.34
214.488	-134.14
214.705	48.37
214.923	65.74
215.14	58.17
215.358	48.59
215.575	5.14
215.793	14.03
216.01	27.12
216.227	30.85
216.445	21.74
216.662	38.81
216.879	23.92
217.097	-4.25
217.314	1.12
217.531	-3.37
217.749	-1.25
217.966	-1.97
218.183	-13.58
218.4	1.31
218.618	-11.65
218.835	-16.88
219.052	-11.92
219.269	-12.8
219.487	-25.32
219.704	-9.63
219.921	-11.46
220.138	-14.1
220.355	-15.41
220.572	-12.16
220.79	-17.97
221.007	-11.75
221.224	-22.39
221.441	-18.32
221.658	-19.05
221.875	-15.64
222.092	-8.82
222.309	-7.38
222.526	-1.41
222.743	6.57
222.96	4.76
223.177	1.89
223.394	-1.2
223.611	-2.4
223.828	-8.34
224.045	-2.27
224.262	0.7
224.479	1.09
224.696	1.32
224.913	1.72
225.13	3.74
225.347	0.18
225.564	1.62
225.781	1.57
225.997	3.87
226.214	5.29
226.431	7.02
226.648	7.75
226.865	6.97
227.082	6.98
227.298	6.96
227.515	7.27
227.732	7.44
227.949	7.18
228.165	7.71
228.382	7.47
228.599	8.42
228.816	8.35
229.032	8.21
229.249	7.25
229.466	7.45
229.682	10.23
229.899	9.91
230.116	10.27
230.332	10.15
230.549	9.6
230.765	9.68
230.982	8.43
231.199	9.07
231.415	8.55
231.632	7.59
231.848	9.01
232.065	9.74
232.281	10.02
232.498	6.19
232.714	8.43
232.931	9.36
233.147	7.89
233.364	8.22
233.58	9.8
233.797	10.64
234.013	9.53
234.23	8.89
234.446	7.6
234.662	5.37
234.879	5.05
235.095	3.87
235.312	5.03
235.528	4.23
235.744	2.37
235.961	2.43
236.177	0.62
236.393	0.85
236.61	1.29
236.826	2.51
237.042	1.38
237.258	4.48
237.475	6.77
237.691	5.37
237.907	6.5
238.123	6.12
238.339	4.65
238.556	5.61
238.772	7.09
238.988	8.83
239.204	8.29
239.42	9.07
239.636	9.37
239.853	11.04
240.069	10.96
240.285	10.2
240.501	10.9
240.717	10.14
240.933	10
241.149	10.74
241.365	10.95
241.581	10.83
241.797	10.04
242.013	10.3
242.229	10.21
242.445	9.54
242.661	8.75
242.877	8.07
243.093	8.03
243.309	8.34
243.525	9.05
243.741	9.04
243.957	7.9
244.173	7.65
244.388	7.7
244.604	7.9
244.82	7.61
245.036	7.33
245.252	7.56
245.468	7.69
245.683	7.63
245.899	7.69
246.115	7.44
246.331	7.45
246.547	7.45
246.762	7.95
246.978	8.09
247.194	8.19
247.409	8.44
247.625	8.63
247.841	8.4
248.057	8.92
248.272	8.85
248.488	8.9
248.703	8.99
248.919	8.27
249.135	8.29
249.35	8
249.566	7.42
249.782	7.12
249.997	6.59
250.213	6.29
250.428	6
250.644	6.98
250.859	6.21
251.075	6.36
251.29	6.13
251.506	5.56
251.721	6.26
251.937	5.49
252.152	5.82
252.368	6.03
252.583	5.74
252.798	5.98
253.014	6.44
253.229	6.55
253.445	6.32
253.66	5.77
253.875	5.35
254.091	5.9
254.306	6.62
254.521	6.47
254.737	7.04
254.952	7.6
255.167	6.94
255.383	6.92
255.598	6.67
255.813	6.52
256.028	6.33
256.244	6.19
256.459	6.09
256.674	6.6
256.889	6.51
257.104	6.59
257.32	6.49
257.535	6.45
257.75	6.05
257.965	6.13
258.18	6.33
258.395	6.2
258.61	6.2
258.826	6.42
259.041	6.42
259.256	6.37
259.471	6.41
259.686	6.38
259.901	6.24
260.116	6.28
260.331	6.36
260.546	6.56
260.761	6.87
260.976	6.7
261.191	6.58
261.406	5.65
261.621	5.27
261.836	4.85
262.05	5
262.265	4.87
262.48	4.5
262.695	4.27
262.91	4.42
263.125	4.82
263.34	3.99
263.555	3.82
263.769	3.29
263.984	3.98
264.199	5.62
264.414	5.59
264.629	5.61
264.843	6.35
265.058	5.93
265.273	5.82
265.488	5.84
265.702	5.75
265.917	5.65
266.132	6.06
266.346	6.27
266.561	6.65
266.776	6.75
266.99	5.94
267.205	5.97
267.42	6.31
267.634	6.04
267.849	6.39
268.063	6.83
268.278	6.66
268.492	6.98
268.707	6.52
268.922	6.28
269.136	5.3
269.351	4.96
269.565	4.63
269.78	4.78
269.994	4.99
270.209	4.62
270.423	4.32
270.637	3.63
270.852	3.68
271.066	4.32
271.281	4.27
271.495	4.44
271.709	4.6
271.924	5.5
272.138	5.79
272.353	6.22
272.567	6.26
272.781	6
272.996	6.36
273.21	6.65
273.424	7.21
273.638	7.29
273.853	7.17
274.067	6.57
274.281	6.79
274.495	7.07
274.71	6.41
274.924	6.44
275.138	6.37
275.352	6.06
275.566	5.78
275.781	6.08
275.995	6.47
276.209	6.42
276.423	5.63
276.637	5.22
276.851	5.46
277.065	5.35
277.279	5.43
277.493	5.55
277.707	5.47
277.921	4.56
278.135	5.41
278.349	5.46
278.563	5.13
278.777	4.62
278.991	4.68
279.205	5.03
279.419	4.68
279.633	5.08
279.847	4.7
280.061	4.21
280.275	4.52
280.489	4.32
280.703	4.86
280.917	4.71
281.131	5.08
281.344	4.84
281.558	4.94
281.772	5.08
281.986	5.09
282.2	5.42
282.414	5.35
282.627	5.44
282.841	5.56
283.055	5.41
283.269	5.88
283.482	6.22
283.696	5.72
283.91	5.33
284.123	5.47
284.337	5.46
284.551	5.76
284.764	5.89
284.978	6.24
285.192	6.29
285.405	6.42
285.619	6.33
285.833	6.11
286.046	5.77
286.26	5.66
286.473	6.07
286.687	6.22
286.9	5.98
287.114	5.83
287.327	5.33
287.541	5.57
287.754	5.23
287.968	4.67
288.181	4.84
288.395	5.12
288.608	5.08
288.822	5.15
289.035	5.18
289.248	5.27
289.462	5.16
289.675	5.21
289.889	5.17
290.102	5.08
290.315	4.91
290.529	4.61
290.742	4.89
290.955	4.84
291.169	5.03
291.382	5.41
291.595	5.48
291.808	5.31
292.022	5.51
292.235	5.89
292.448	5.76
292.661	5.81
292.875	6.16
293.088	6.07
293.301	6.42
293.514	6.55
293.727	6.53
293.94	6.39
294.153	6.64
294.367	6.58
294.58	6.4
294.793	6.29
295.006	6.25
295.219	6.67
295.432	6.72
295.645	6.75
295.858	7.04
296.071	7
296.284	6.79
296.497	6.73
296.71	6.62
296.923	6.39
297.136	6.7
297.349	6.77
297.562	6.7
297.775	6.67
297.988	6.62
298.201	6.61
298.414	6.62
298.626	6.37
298.839	6.45
299.052	6.53
299.265	6.46
299.478	6.41
299.691	6.19
299.903	6.1
300.116	6.58
300.329	6.74
300.542	6.86
300.755	6.84
300.967	6.9
301.18	6.86
301.393	6.85
301.605	6.84
301.818	6.78
302.031	6.9
302.243	6.53
302.456	6.38
302.669	6.32
302.881	6.27
303.094	6.06
303.307	6.05
303.519	5.87
303.732	5.61
303.944	5.46
304.157	5.33
304.37	5.07
304.582	5.43
304.795	5.4
305.007	5.91
305.22	6.47
305.432	6.49
305.645	5.79
305.857	5.63
306.069	5.39
306.282	5.41
306.494	5.81
306.707	5.48
306.919	5.62
307.132	5.51
307.344	5.1
307.556	4.95
307.769	5.09
307.981	5
308.193	5.07
308.406	5.48
308.618	5.33
308.83	5.47
309.043	5.37
309.255	5.48
309.467	5.65
309.679	5.7
309.892	5.76
310.104	5.93
310.316	5.73
310.528	5.9
310.74	5.88
310.953	5.65
311.165	5.48
311.377	5.67
311.589	5.73
311.801	6.13
312.013	5.84
312.225	5.86
312.437	5.45
312.649	5.28
312.862	5.13
313.074	5.7
313.286	4.72
313.498	4.59
313.71	4.23
313.922	4.02
314.134	3.94
314.346	3.99
314.558	3.43
314.77	3.58
314.982	3.61
315.193	4.01
315.405	4.46
315.617	4.75
315.829	4.26
316.041	4.86
316.253	5.34
316.465	5.9
316.677	6.43
316.888	6.39
317.1	5.94
317.312	6.26
317.524	6.31
317.736	6.41
317.947	6.32
318.159	6.36
318.371	6.37
318.583	6.89
318.794	6.92
319.006	6.39
319.218	5.93
319.43	5.35
319.641	5.71
319.853	6.02
320.064	5.97
320.276	6.1
320.488	6.01
320.699	6.34
320.911	6.25
321.123	6.4
321.334	6.24
321.546	6.29
321.757	6.56
321.969	7.22
322.18	7.67
322.392	7.47
322.603	7.34
322.815	7.46
323.026	7.19
323.238	6.93
323.449	7.06
323.661	7.14
323.872	6.78
324.083	6.98
324.295	6.89
324.506	6.75
324.718	6.72
324.929	6.37
325.14	6.81
325.352	7.07
325.563	6.95
325.774	6.81
325.986	6.74
326.197	6.41
326.408	5.99
326.62	6.01
326.831	5.69
327.042	5.66
327.253	5.6
327.464	5.11
327.676	5.32
327.887	5
328.098	4.83
328.309	4.78
328.52	5.15
328.732	5.55
328.943	5.6
329.154	6.13
329.365	6.32
329.576	6.4
329.787	6.71
329.998	6.58
330.209	6.72
330.42	6.48
330.631	6.02
330.842	6.15
331.053	5.87
331.264	5.67
331.475	6.03
331.686	6
331.897	5.94
332.108	5.96
332.319	5.51
332.53	5.43
332.741	5.37
332.952	5.24
333.163	5.3
333.374	5.47
333.585	5.42
333.795	5.57
334.006	5.77
334.217	5.38
334.428	5.07
334.639	4.88
334.849	4.98
335.06	5.43
335.271	5.09
335.482	5.31
335.692	5.47
335.903	5.36
336.114	5.58
336.325	5.35
336.535	5.35
336.746	5.27
336.957	5.27
337.167	5.07
337.378	5.2
337.589	5.12
337.799	4.86
338.01	4.91
338.22	4.76
338.431	4.41
338.642	4.21
338.852	3.99
339.063	3.99
339.273	4.26
339.484	4.29
339.694	3.93
339.905	4.37
340.115	4.33
340.326	4.46
340.536	4.59
340.746	4.61
340.957	4.61
341.167	4.82
341.378	5.29
341.588	5.41
341.799	5.46
342.009	5.06
342.219	4.74
342.43	4.91
342.64	4.84
342.85	4.7
343.061	4.64
343.271	4.99
343.481	5.26
343.691	5.37
343.902	5.43
344.112	5.01
344.322	5.13
344.532	5.07
344.743	5.28
344.953	4.92
345.163	5
345.373	5.11
345.583	5.51
345.793	5.11
346.004	4.81
346.214	4.35
346.424	4.46
346.634	4.31
346.844	4.52
347.054	3.91
347.264	3.97
347.474	3.82
347.684	4.33
347.894	4.39
348.104	4.38
348.314	4.29
348.524	4.15
348.734	4.2
348.944	4.47
349.154	4.12
349.364	4.23
349.574	4.14
349.784	4.53
349.994	4.49
350.204	4.28
350.413	4.26
350.623	3.96
350.833	3.93
351.043	3.68
351.253	4.19
351.463	4.19
351.672	4.27
351.882	4.42
352.092	4.5
352.302	4.59
352.511	4.52
352.721	4.32
352.931	4.27
353.141	4.13
353.35	4.24
353.56	4.25
353.77	4.32
353.979	4.25
354.189	4.24
354.399	4.24
354.608	4.38
354.818	4.35
355.027	4.16
355.237	4.52
355.447	4.71
355.656	4.9
355.866	4.97
356.075	5.03
356.285	4.99
356.494	4.82
356.704	4.63
356.913	4.51
357.123	4.48
357.332	4.34
357.542	4.39
357.751	4.59
357.96	4.17
358.17	4.06
358.379	4.21
358.589	4.15
358.798	4.2
359.007	4.28
359.217	4.18
359.426	4.21
359.635	4.32
359.845	4.25
360.054	4.33
360.263	4.1
360.472	4.07
360.682	4.16
360.891	4.26
361.1	4.14
361.309	4.05
361.519	3.88
361.728	3.93
361.937	3.94
362.146	3.95
362.355	3.86
362.564	4.02
362.774	4.02
362.983	4.26
363.192	4.43
363.401	4.57
363.61	4.31
363.819	4.34
364.028	4.36
364.237	4.4
364.446	4.16
364.655	4.41
364.864	4.58
365.073	4.76
365.282	4.4
365.491	4.32
365.7	4.19
365.909	4.05
366.118	3.69
366.327	3.84
366.536	3.75
366.745	3.91
366.954	3.88
367.162	3.88
367.371	3.76
367.58	3.8
367.789	3.5
367.998	3.81
368.207	3.9
368.415	3.92
368.624	3.71
368.833	4.11
369.042	4.27
369.25	4.36
369.459	4.3
369.668	4.42
369.877	4.32
370.085	4.35
370.294	4.25
370.503	4.33
370.711	4.15
370.92	3.91
371.129	3.87
371.337	3.91
371.546	3.69
371.754	3.54
371.963	3.73
372.171	3.69
372.38	3.62
372.589	3.74
372.797	3.82
373.006	3.61
373.214	3.43
373.423	3.35
373.631	3.42
373.84	3.44
374.048	3.47
374.256	3.38
374.465	3.57
374.673	3.39
374.882	3.42
375.09	3.44
375.298	3.51
375.507	3.37
375.715	3.37
375.923	3.64
376.132	3.69
376.34	3.8
376.548	3.95
376.757	4.02
376.965	3.99
377.173	3.68
377.381	3.71
377.59	3.72
377.798	3.62
378.006	3.61
378.214	3.54
378.423	3.66
378.631	3.27
378.839	3.34
379.047	3.28
379.255	3.11
379.463	2.87
379.671	3.05
379.879	3.22
380.088	3.08
380.296	2.98
380.504	2.84
380.712	2.56
380.92	2.76
381.128	2.61
381.336	2.78
381.544	2.65
381.752	2.62
381.96	2.62
382.168	2.76
382.376	2.63
382.584	2.66
382.791	2.65
382.999	2.94
383.207	3.18
383.415	3.27
383.623	3.15
383.831	3.3
384.039	3.36
384.247	3.54
384.454	3.42
384.662	3.37
384.87	3.17
385.078	3.21
385.285	3.22
385.493	3.35
385.701	3.2
385.909	3.18
386.116	3.22
386.324	3.19
386.532	2.87
386.739	2.7
386.947	2.6
387.155	2.7
387.362	2.62
387.57	2.91
387.778	3.03
387.985	2.95
388.193	3.09
388.4	2.92
388.608	2.8
388.816	2.83
389.023	3.03
389.231	3.26
389.438	3.48
389.646	3.41
389.853	3.33
390.061	3.44
390.268	3.44
390.475	3.31
390.683	3.11
390.89	2.97
391.098	3.2
391.305	3.29
391.512	3.28
391.72	3.06
391.927	2.91
392.135	2.76
392.342	2.72
392.549	2.73
392.756	2.71
392.964	2.57
393.171	2.43
393.378	2.75
393.586	2.8
393.793	2.6
394	2.41
394.207	2.31
394.414	2.42
394.622	2.51
394.829	2.51
395.036	2.66
395.243	2.72
395.45	2.64
395.657	2.48
395.864	2.7
396.072	2.5
396.279	2.29
396.486	2.24
396.693	2.57
396.9	2.63
397.107	2.59
397.314	2.62
397.521	2.72
397.728	2.62
397.935	2.42
398.142	2.28
398.349	2.42
398.556	2.56
398.763	2.62
398.97	2.74
399.177	2.82
399.383	2.57
399.59	2.54
399.797	2.6
400.004	2.61
400.211	2.61
400.418	2.47
400.625	2.63
400.831	2.77
401.038	2.8
401.245	2.46
401.452	2.44
401.658	2.45
401.865	2.26
402.072	2.21
402.279	2.19
402.485	2.06
402.692	2.01
402.899	2.03
403.105	2.11
403.312	2.18
403.519	2.24
403.725	2.18
403.932	2.22
404.138	2.21
404.345	2.17
404.552	2.46
404.758	2.59
404.965	2.6
405.171	2.65
405.378	2.68
405.584	2.53
405.791	2.7
405.997	2.77
406.204	2.7
406.41	2.61
406.617	2.77
406.823	2.9
407.029	2.93
407.236	2.76
407.442	2.79
407.649	2.88
407.855	2.8
408.061	2.7
408.268	2.76
408.474	2.49
408.68	2.33
408.887	2.32
409.093	2.58
409.299	2.56
409.505	2.45
409.712	2.35
409.918	2.44
410.124	2.41
410.33	2.32
410.537	2.27
410.743	2.28
410.949	2.2
411.155	2.41
411.361	2.31
411.567	2.32
411.773	2.13
411.98	2.12
412.186	2.15
412.392	2.24
412.598	2.02
412.804	1.9
413.01	1.97
413.216	2.01
413.422	2.12
413.628	2.12
413.834	2.04
414.04	2.04
414.246	2.08
414.452	2.2
414.658	2.17
414.864	2.04
415.07	2.03
415.275	2.07
415.481	2.19
415.687	2.08
415.893	2.2
416.099	2.16
416.305	2.22
416.511	2.18
416.716	2.22
416.922	2.2
417.128	2.14
417.334	2.2
417.539	2.29
417.745	2.29
417.951	2.33
418.157	2.28
418.362	2.29
418.568	2.19
418.774	2.2
418.979	2.19
419.185	2.2
419.391	2.15
419.596	2.21
419.802	2.22
420.008	2.75
420.213	2.71
420.419	2.7
420.624	2.65
420.83	2.6
421.035	2.57
421.241	2.59
421.446	2.6
421.652	2.58
421.857	2.63
422.063	2.7
422.268	2.68
422.474	2.67
422.679	2.05
422.885	2.07
423.09	2.08
423.295	2.16
423.501	2.21
423.706	2.28
423.911	2.3
424.117	2.34
424.322	2.33
424.527	2.31
424.733	2.23
424.938	2.21
425.143	2.21
425.349	2.23
425.554	2.17
425.759	2.12
425.964	2.12
426.169	2.01
426.375	1.94
426.58	1.92
426.785	1.79
426.99	1.8
427.195	1.72
427.4	1.78
427.605	1.6
427.811	1.6
428.016	1.65
428.221	1.72
428.426	1.7
428.631	1.68
428.836	1.7
429.041	1.74
429.246	1.63
429.451	1.66
429.656	1.63
429.861	1.65
430.066	1.64
430.271	1.82
430.476	1.82
430.681	1.81
430.886	1.85
431.09	1.89
431.295	1.79
431.5	1.92
431.705	1.86
431.91	1.94
432.115	1.99
432.32	2.01
432.524	1.9
432.729	1.96
432.934	1.92
433.139	1.83
433.343	1.82
433.548	1.69
433.753	1.7
433.958	1.69
434.162	1.64
434.367	1.73
434.572	1.75
434.776	1.69
434.981	1.72
435.186	1.76
435.39	1.57
435.595	1.57
435.799	1.57
436.004	1.59
436.209	1.64
436.413	1.63
436.618	1.72
436.822	1.76
437.027	1.68
437.231	1.64
437.436	1.59
437.64	1.52
437.845	1.53
438.049	1.73
438.253	1.69
438.458	1.75
438.662	1.7
438.867	1.66
439.071	1.53
439.275	1.48
439.48	1.46
439.684	1.45
439.888	1.46
440.093	1.53
440.297	1.55
440.501	1.58
440.706	1.37
440.91	1.36
441.114	1.32
441.318	1.37
441.523	1.37
441.727	1.46
441.931	1.49
442.135	1.37
442.339	1.43
442.543	1.42
442.748	1.43
442.952	1.48
443.156	1.52
443.36	1.59
443.564	1.57
443.768	1.61
443.972	1.63
444.176	1.64
444.38	1.67
444.584	1.65
444.788	1.77
444.992	1.81
445.196	1.8
445.4	1.76
445.604	1.78
445.808	1.74
446.012	1.72
446.216	1.77
446.42	1.78
446.624	1.73
446.828	1.72
447.032	1.7
447.235	1.68
447.439	1.66
447.643	1.62
447.847	1.66
448.051	1.67
448.254	1.68
448.458	1.76
448.662	1.8
448.866	1.83
449.069	1.76
449.273	1.78
449.477	1.81
449.681	1.75
449.884	1.85
450.088	1.82
450.292	1.76
450.495	1.7
450.699	1.66
450.902	1.56
451.106	1.44
451.31	1.47
451.513	1.43
451.717	1.46
451.92	1.39
452.124	1.4
452.327	1.39
452.531	1.34
452.734	1.36
452.938	1.37
453.141	1.39
453.345	1.42
453.548	1.45
453.752	1.49
453.955	1.47
454.158	1.45
454.362	1.47
454.565	1.6
454.769	1.63
454.972	1.7
455.175	1.68
455.379	1.66
455.582	1.66
455.785	1.58
455.988	1.53
456.192	1.5
456.395	1.51
456.598	1.48
456.801	1.52
457.005	1.47
457.208	1.34
457.411	1.35
457.614	1.32
457.817	1.32
458.021	1.34
458.224	1.39
458.427	1.44
458.63	1.41
458.833	1.45
459.036	1.45
459.239	1.39
459.442	1.35
459.645	1.41
459.848	1.46
460.051	1.41
460.254	1.47
460.457	1.49
460.66	1.39
460.863	1.37
461.066	1.36
461.269	1.35
461.472	1.3
461.675	1.28
461.878	1.45
462.081	1.51
462.284	1.44
462.486	1.42
462.689	1.48
462.892	1.43
463.095	1.37
463.298	1.38
463.5	1.43
463.703	1.41
463.906	1.42
464.109	1.44
464.311	1.38
464.514	1.31
464.717	1.3
464.92	1.33
465.122	1.33
465.325	1.38
465.528	1.43
465.73	1.49
465.933	1.53
466.135	1.53
466.338	1.6
466.541	1.71
466.743	1.68
466.946	1.79
467.148	1.83
467.351	1.89
467.553	1.83
467.756	1.86
467.958	1.82
468.161	1.79
468.363	1.71
468.566	1.69
468.768	1.63
468.971	1.56
469.173	1.48
469.375	1.51
469.578	1.52
469.78	1.54
469.983	1.39
470.185	1.5
470.387	1.53
470.59	1.53
470.792	1.48
470.994	1.54
471.196	1.61
471.399	1.52
471.601	1.51
471.803	1.56
472.005	1.59
472.208	1.54
472.41	1.46
472.612	1.52
472.814	1.44
473.016	1.39
473.218	1.32
473.421	1.32
473.623	1.35
473.825	1.28
474.027	1.28
474.229	1.35
474.431	1.31
474.633	1.28
474.835	1.25
475.037	1.4
475.239	1.36
475.441	1.38
475.643	1.32
475.845	1.38
476.047	1.43
476.249	1.34
476.451	1.33
476.653	1.33
476.855	1.27
477.057	1.26
477.258	1.18
477.46	1.22
477.662	1.12
477.864	1.09
478.066	1.07
478.268	1.2
478.469	1.22
478.671	1.17
478.873	1.22
479.075	1.24
479.276	1.28
479.478	1.21
479.68	1.24
479.882	1.28
480.083	1.28
480.285	1.27
480.487	1.31
480.688	1.33
480.89	1.31
481.091	1.3
481.293	1.31
481.495	1.34
481.696	1.36
481.898	1.38
482.099	1.44
482.301	1.44
482.502	1.45
482.704	1.46
482.905	1.48
483.107	1.49
483.308	1.47
483.51	1.48
483.711	1.48
483.913	1.49
484.114	1.47
484.315	1.46
484.517	1.44
484.718	1.42
484.92	1.43
485.121	1.44
485.322	1.43
485.524	1.42
485.725	1.43
485.926	1.45
486.127	1.46
486.329	1.47
486.53	1.47
486.731	1.49
486.932	1.49
487.134	1.51
487.335	1.51
487.536	1.55
487.737	1.53
487.938	1.52
488.139	1.52
488.341	1.48
488.542	1.48
488.743	1.45
488.944	1.45
489.145	1.46
489.346	1.47
489.547	1.45
489.748	1.49
489.949	1.49
490.15	1.45
490.351	1.46
490.552	1.49
490.753	1.51
490.954	1.54
491.155	1.53
491.356	1.51
491.557	1.49
491.758	1.48
491.959	1.48
492.159	1.53
492.36	1.48
492.561	1.49
492.762	1.49
492.963	1.53
493.164	1.46
493.364	1.47
493.565	1.44
493.766	1.4
493.967	1.48
494.167	1.55
494.368	1.57
494.569	1.54
494.769	1.55
494.97	1.52
495.171	1.48
495.371	1.5
495.572	1.43
495.773	1.49
495.973	1.44
496.174	1.48
496.375	1.55
496.575	1.52
496.776	1.47
496.976	1.44
497.177	1.5
497.377	1.44
497.578	1.5
497.778	1.54
497.979	1.52
498.179	1.57
498.38	1.61
498.58	1.66
498.78	1.61
498.981	1.67
499.181	1.7
499.382	1.67
499.582	1.67
499.782	1.54
499.983	1.58
500.183	1.55
500.383	1.5
500.584	1.53
500.784	1.51
500.984	1.43
501.184	1.38
501.385	1.38
501.585	1.32
501.785	1.32
501.985	1.29
502.185	1.28
502.386	1.35
502.586	1.44
502.786	1.47
502.986	1.49
503.186	1.48
503.386	1.48
503.586	1.51
503.786	1.52
503.987	1.57
504.187	1.58
504.387	1.62
504.587	1.67
504.787	1.68
504.987	1.64
505.187	1.6
505.387	1.54
505.587	1.62
505.786	1.65
505.986	1.7
506.186	1.76
506.386	1.79
506.586	1.76
506.786	1.81
506.986	1.8
507.186	1.83
507.386	1.86
507.585	1.92
507.785	1.96
507.985	2.05
508.185	2.01
508.384	2
508.584	1.97
508.784	1.94
508.984	1.99
509.183	2.03
509.383	2.04
509.583	2.04
509.782	2.08
509.982	2.13
510.182	2.1
510.381	2.05
510.581	2.08
510.781	2.07
510.98	2.07
511.18	2.05
511.379	2.08
511.579	2.03
511.778	2.03
511.978	1.95
512.177	1.91
512.377	1.83
512.576	1.79
512.776	1.9
512.975	1.9
513.175	1.83
513.374	1.9
513.573	1.96
513.773	2.04
513.972	2.01
514.172	2.03
514.371	2.04
514.57	2.06
514.77	2.08
514.969	2.14
515.168	2.11
515.367	2
515.567	2.01
515.766	2.03
515.965	2
516.164	1.93
516.364	1.92
516.563	1.92
516.762	1.94
516.961	1.94
517.16	1.99
517.359	2.06
517.559	2.03
517.758	2.03
517.957	2.09
518.156	2.07
518.355	2.09
518.554	2.07
518.753	2.12
518.952	2.12
519.151	2.15
519.35	2.15
519.549	2.21
519.748	2.22
519.947	2.25
520.146	2.31
520.345	2.33
520.544	2.33
520.743	2.39
520.942	2.46
521.141	2.5
521.339	2.55
521.538	2.48
521.737	2.52
521.936	2.61
522.135	2.56
522.333	2.63
522.532	2.6
522.731	2.61
522.93	2.65
523.129	2.69
523.327	2.68
523.526	2.62
523.725	2.66
523.923	2.65
524.122	2.72
524.321	2.67
524.519	2.62
524.718	2.69
524.917	2.66
525.115	2.66
525.314	2.7
525.512	2.67
525.711	2.67
525.909	2.66
526.108	2.68
526.306	2.69
526.505	2.66
526.703	2.67
526.902	2.69
527.1	2.69
527.299	2.65
527.497	2.68
527.696	2.67
527.894	2.65
528.092	2.7
528.291	2.7
528.489	2.75
528.688	2.74
528.886	2.74
529.084	2.79
529.283	2.83
529.481	2.85
529.679	2.9
529.877	2.94
530.076	2.91
530.274	2.93
530.472	2.97
530.67	2.97
530.869	3
531.067	2.98
531.265	3.02
531.463	3.06
531.661	3.09
531.859	3.07
532.057	3.11
532.255	3.07
532.454	3.06
532.652	3.09
532.85	3.12
533.048	3.15
533.246	3.15
533.444	3.16
533.642	3.17
533.84	3.23
534.038	3.16
534.236	3.12
534.434	3.16
534.632	3.13
534.83	3.23
535.027	3.24
535.225	3.21
535.423	3.14
535.621	3.16
535.819	3.21
536.017	3.26
536.215	3.32
536.412	3.25
536.61	3.38
536.808	3.41
537.006	3.44
537.203	3.45
537.401	3.47
537.599	3.56
537.797	3.68
537.994	3.82
538.192	3.8
538.39	3.75
538.587	3.71
538.785	3.72
538.983	3.77
539.18	3.76
539.378	3.78
539.575	3.8
539.773	3.84
539.97	3.81
540.168	3.82
540.366	3.84
540.563	3.8
540.761	3.84
540.958	3.85
541.155	3.9
541.353	3.9
541.55	3.92
541.748	3.92
541.945	3.94
542.143	3.95
542.34	3.99
542.537	4.05
542.735	4.06
542.932	4.04
543.129	4.13
543.327	4.13
543.524	4.19
543.721	4.23
543.919	4.29
544.116	4.35
544.313	4.41
544.51	4.45
544.708	4.48
544.905	4.49
545.102	4.52
545.299	4.48
545.496	4.51
545.693	4.48
545.891	4.5
546.088	4.51
546.285	4.46
546.482	4.49
546.679	4.47
546.876	4.43
547.073	4.42
547.27	4.38
547.467	4.35
547.664	4.29
547.861	4.48
548.058	4.51
548.255	4.62
548.452	4.75
548.649	4.83
548.846	4.9
549.043	4.98
549.24	5.01
549.437	5.04
549.633	5.07
549.83	5.01
550.027	5.21
550.224	5.25
550.421	5.24
550.618	5.4
550.814	5.45
551.011	5.53
551.208	5.55
551.405	5.6
551.601	5.63
551.798	5.73
551.995	5.84
552.191	5.94
552.388	6.12
552.585	6.04
552.781	6.23
552.978	6.28
553.175	6.25
553.371	6.25
553.568	6.18
553.764	6.26
553.961	6.34
554.157	6.31
554.354	6.4
554.55	6.47
554.747	6.48
554.943	6.52
555.14	6.58
555.336	6.55
555.533	6.61
555.729	6.68
555.926	6.75
556.122	6.86
556.318	6.93
556.515	6.98
556.711	7.12
556.907	7.1
557.104	7.06
557.3	7.08
557.496	7.15
557.693	7.31
557.889	7.43
558.085	7.43
558.281	7.51
558.478	7.52
558.674	7.49
558.87	7.57
559.066	7.56
559.262	7.56
559.459	7.62
559.655	7.73
559.851	7.9
560.047	8.02
560.243	8.02
560.439	8
560.635	8.14
560.831	8.2
561.027	8.32
561.223	8.4
561.419	8.57
561.615	8.75
561.811	8.88
562.007	8.96
562.203	9.1
562.399	9.04
562.595	9.15
562.791	9.19
562.987	9.21
563.183	9.37
563.379	9.37
563.575	9.43
563.771	9.49
563.966	9.46
564.162	9.47
564.358	9.46
564.554	9.53
564.75	9.6
564.945	9.71
565.141	9.67
565.337	9.8
565.533	9.92
565.728	9.97
565.924	10.02
566.12	10.03
566.315	10.08
566.511	10.15
566.707	10.23
566.902	10.35
567.098	10.41
567.293	10.41
567.489	10.5
567.684	10.55
567.88	10.62
568.076	10.56
568.271	10.45
568.467	10.51
568.662	10.55
568.858	10.6
569.053	10.7
569.248	10.76
569.444	10.73
569.639	10.89
569.835	10.86
570.03	10.89
570.225	10.93
570.421	11.06
570.616	11.22
570.812	11.39
571.007	11.49
571.202	11.58
571.397	11.71
571.593	11.67
571.788	11.75
571.983	11.81
572.178	11.72
572.374	11.78
572.569	11.89
572.764	11.94
572.959	11.93
573.154	12.01
573.35	11.97
573.545	12
573.74	12.13
573.935	12.19
574.13	12.14
574.325	12.17
574.52	12.24
574.715	12.33
574.91	12.47
575.105	12.45
575.3	12.49
575.495	12.46
575.69	12.48
575.885	12.49
576.08	12.5
576.275	12.44
576.47	12.51
576.665	12.75
576.86	12.8
577.055	12.91
577.25	13.09
577.444	13.03
577.639	13.09
577.834	13.21
578.029	13.32
578.224	13.41
578.418	13.52
578.613	13.67
578.808	13.76
579.003	13.78
579.197	13.79
579.392	13.82
579.587	13.84
579.781	13.72
579.976	13.88
580.171	13.96
580.365	14.14
580.56	14.24
580.755	14.23
580.949	14.23
581.144	14.14
581.338	14.15
581.533	14.25
581.727	14.13
581.922	14.19
582.116	14.34
582.311	14.42
582.505	14.33
582.7	14.39
582.894	14.29
583.089	14.2
583.283	14.3
583.478	14.31
583.672	14.41
583.866	14.46
584.061	14.25
584.255	14.38
584.449	14.42
584.644	14.29
584.838	14.36
585.032	14.44
585.226	14.49
585.421	14.5
585.615	14.56
585.809	14.55
586.003	14.66
586.198	14.72
586.392	14.64
586.586	14.84
586.78	14.93
586.974	14.87
587.168	14.98
587.363	14.93
587.557	15.08
587.751	15.16
587.945	15.19
588.139	15.38
588.333	15.41
588.527	15.38
588.721	15.44
588.915	15.59
589.109	15.55
589.303	15.53
589.497	15.52
589.691	15.52
589.885	15.6
590.079	15.61
590.273	15.55
590.466	15.57
590.66	15.46
590.854	15.59
591.048	15.68
591.242	15.55
591.436	15.55
591.629	15.69
591.823	15.71
592.017	15.78
592.211	15.86
592.404	15.87
592.598	15.89
592.792	15.97
592.986	16.1
593.179	16.16
593.373	16.11
593.567	16.17
593.76	16.3
593.954	16.32
594.147	16.34
594.341	16.4
594.535	16.48
594.728	16.63
594.922	16.65
595.115	16.64
595.309	16.72
595.502	16.62
595.696	16.62
595.889	16.63
596.083	16.73
596.276	16.72
596.47	16.69
596.663	16.67
596.856	16.65
597.05	16.71
597.243	16.59
597.437	16.64
597.63	16.69
597.823	16.53
598.017	16.67
598.21	16.75
598.403	16.91
598.596	16.8
598.79	16.79
598.983	16.92
599.176	16.95
599.369	17.16
599.563	17.23
599.756	17.36
599.949	17.34
600.142	17.36
600.335	17.48
600.528	17.44
600.722	17.51
600.915	17.34
601.108	17.42
601.301	17.57
601.494	17.7
601.687	17.73
601.88	17.7
602.073	17.66
602.266	17.63
602.459	17.68
602.652	17.68
602.845	17.71
603.038	17.7
603.231	17.58
603.424	17.63
603.617	17.57
603.809	17.53
604.002	17.44
604.195	17.41
604.388	17.39
604.581	17.46
604.774	17.43
604.966	17.34
605.159	17.38
605.352	17.3
605.545	17.35
605.737	17.44
605.93	17.38
606.123	17.51
606.316	17.65
606.508	17.73
606.701	17.81
606.894	17.84
607.086	17.71
607.279	17.78
607.471	17.94
607.664	17.81
607.857	17.93
608.049	18.02
608.242	18.11
608.434	18.22
608.627	18.24
608.819	18.08
609.012	18.12
609.204	18.06
609.397	18
609.589	18.09
609.782	18.13
609.974	18.18
610.166	18.3
610.359	18.4
610.551	18.26
610.743	18.17
610.936	18.13
611.128	18.18
611.32	18.39
611.513	18.27
611.705	18.38
611.897	18.61
612.09	18.68
612.282	18.58
612.474	18.29
612.666	18.4
612.858	18.4
613.051	18.53
613.243	18.59
613.435	18.64
613.627	18.47
613.819	18.32
614.011	18.34
614.203	18.46
614.395	18.13
614.588	17.95
614.78	18.1
614.972	18.32
615.164	18.16
615.356	18.06
615.548	18.1
615.74	17.97
615.932	17.89
616.124	17.97
616.315	17.96
616.507	18.01
616.699	17.87
616.891	18.02
617.083	18.11
617.275	18.08
617.467	18.1
617.659	18.32
617.85	18.34
618.042	18.27
618.234	18.38
618.426	18.51
618.618	18.34
618.809	18.34
619.001	18.31
619.193	18.4
619.384	18.47
619.576	18.49
619.768	18.62
619.959	18.59
620.151	18.37
620.343	18.31
620.534	18.32
620.726	18.31
620.917	18.19
621.109	18.4
621.301	18.47
621.492	18.54
621.684	18.41
621.875	18.29
622.067	18.34
622.258	18.29
622.45	18.37
622.641	18.43
622.832	18.51
623.024	18.52
623.215	18.55
623.407	18.68
623.598	18.72
623.789	18.87
623.981	18.81
624.172	18.92
624.363	19.07
624.555	19.12
624.746	19.17
624.937	19.09
625.129	19.17
625.32	19.22
625.511	19.2
625.702	19.2
625.893	19.22
626.085	19.22
626.276	19.3
626.467	19.33
626.658	19.33
626.849	19.29
627.04	19.42
627.231	19.2
627.422	19.3
627.614	19.3
627.805	19.34
627.996	19.45
628.187	19.6
628.378	19.58
628.569	19.5
628.76	19.45
628.951	19.46
629.142	19.59
629.332	19.7
629.523	19.45
629.714	19.69
629.905	19.7
630.096	19.82
630.287	19.73
630.478	19.76
630.669	19.61
630.859	19.66
631.05	19.79
631.241	19.65
631.432	19.56
631.623	19.45
631.813	19.35
632.004	19.43
632.195	19.4
632.385	19.37
632.576	19.37
632.767	19.28
632.957	19.37
633.148	19.33
633.339	19.33
633.529	19.35
633.72	19.52
633.91	19.74
634.101	19.77
634.292	19.9
634.482	19.86
634.673	19.93
634.863	19.9
635.054	19.91
635.244	20.1
635.435	19.99
635.625	19.99
635.815	20.06
636.006	20.1
636.196	19.99
636.387	20.12
636.577	20.19
636.767	20.1
636.958	20.3
637.148	20.28
637.338	20.24
637.529	20.16
637.719	20.04
637.909	20.15
638.099	20.49
638.29	20.3
638.48	20.18
638.67	20.41
638.86	20.24
639.05	20.07
639.241	19.97
639.431	19.8
639.621	19.75
639.811	19.89
640.001	19.97
640.191	20.03
640.381	19.9
640.571	19.5
640.761	19.52
640.951	19.58
641.141	19.33
641.331	19.36
641.521	19.48
641.711	19.61
641.901	19.81
642.091	19.72
642.281	19.83
642.471	19.65
642.661	19.68
642.851	19.78
643.041	20.13
643.231	20.27
643.42	20.23
643.61	20.32
643.8	20.41
643.99	20.49
644.18	20.54
644.369	20.49
644.559	20.62
644.749	20.4
644.939	20.36
645.128	20.53
645.318	20.54
645.508	20.46
645.697	20.42
645.887	20.42
646.076	20.37
646.266	20.4
646.456	20.23
646.645	20.15
646.835	20.07
647.024	20.01
647.214	20.23
647.403	20.36
647.593	20.26
647.782	20.07
647.972	20.2
648.161	20.27
648.351	20.33
648.54	20.38
648.73	20.19
648.919	20.32
649.108	20.25
649.298	20.5
649.487	20.51
649.677	20.3
649.866	20.37
650.055	20.48
650.244	20.59
650.434	20.63
650.623	20.72
650.812	20.73
651.002	20.78
651.191	20.92
651.38	21.15
651.569	21.35
651.758	21.19
651.947	21.18
652.137	21.36
652.326	21.28
652.515	21.17
652.704	21.23
652.893	20.98
653.082	20.91
653.271	21.01
653.46	20.86
653.649	20.76
653.838	20.69
654.027	20.6
654.216	20.45
654.405	20.57
654.594	20.6
654.783	20.69
654.972	20.9
655.161	20.92
655.35	21.01
655.539	21.14
655.728	21.05
655.916	21.31
656.105	21.21
656.294	21.01
656.483	21.1
656.672	21.07
656.86	21.08
657.049	21.03
657.238	21.1
657.427	20.94
657.615	20.98
657.804	21
657.993	20.86
658.181	20.87
658.37	20.67
658.559	20.9
658.747	20.82
658.936	20.7
659.125	20.87
659.313	20.83
659.502	20.82
659.69	20.62
659.879	20.65
660.067	20.61
660.256	20.62
660.444	20.48
660.633	20.36
660.821	20.71
661.01	20.61
661.198	20.78
661.387	21.01
661.575	21.2
661.763	21.43
661.952	21.46
662.14	21.43
662.328	21.47
662.517	21.44
662.705	21.58
662.893	21.86
663.082	21.95
663.27	21.7
663.458	21.55
663.646	21.5
663.834	21.42
664.023	21.12
664.211	21.05
664.399	21.17
664.587	21.36
664.775	21.37
664.963	21.44
665.152	21.17
665.34	20.98
665.528	21.12
665.716	20.99
665.904	21.22
666.092	21.02
666.28	21.15
666.468	21.27
666.656	21.26
666.844	21.23
667.032	21.28
667.22	21.06
667.408	21.13
667.596	21.4
667.784	21.48
667.971	21.53
668.159	21.71
668.347	21.56
668.535	21.89
668.723	21.51
668.911	21.59
669.098	21.7
669.286	21.68
669.474	21.56
669.662	21.89
669.849	21.73
670.037	21.71
670.225	21.72
670.413	21.46
670.6	21.35
670.788	21.49
670.976	21.52
671.163	21.76
671.351	21.58
671.538	21.4
671.726	21.26
671.913	21.24
672.101	21.11
672.289	21.16
672.476	20.75
672.664	20.83
672.851	21.09
673.039	21.13
673.226	21.05
673.413	21
673.601	21.02
673.788	21.25
673.976	21.09
674.163	21.33
674.35	21.5
674.538	21.27
674.725	21.35
674.912	21.77
675.1	21.85
675.287	21.75
675.474	21.86
675.662	21.96
675.849	22.02
676.036	22.16
676.223	22.18
676.411	22.01
676.598	22.08
676.785	22.07
676.972	22.08
677.159	22.01
677.346	21.81
677.533	21.72
677.721	21.7
677.908	21.71
678.095	21.69
678.282	21.71
678.469	21.66
678.656	21.46
678.843	21.71
679.03	21.45
679.217	21.47
679.404	21.64
679.591	21.78
679.778	21.83
679.964	21.92
680.151	21.86
680.338	21.85
680.525	21.87
680.712	21.75
680.899	21.76
681.086	21.89
681.272	21.94
681.459	22.21
681.646	22.34
681.833	22.37
682.02	22.36
682.206	22.41
682.393	22.13
682.58	22.3
682.766	22.2
682.953	22.12
683.14	22.16
683.326	22.2
683.513	22.23
683.7	22.41
683.886	22.35
684.073	22.24
684.259	22.21
684.446	22.04
684.632	22.13
684.819	22.5
685.005	22.58
685.192	22.65
685.378	22.64
685.565	22.91
685.751	23.14
685.938	23.2
686.124	22.83
686.31	22.67
686.497	22.65
686.683	22.89
686.87	22.69
687.056	22.71
687.242	22.56
687.429	22.34
687.615	22.48
687.801	22.43
687.987	22.22
688.174	21.88
688.36	21.75
688.546	21.85
688.732	21.9
688.918	21.95
689.105	21.72
689.291	21.92
689.477	21.7
689.663	21.93
689.849	21.97
690.035	22.12
690.221	22.25
690.407	22.31
690.593	22.5
690.779	22.44
690.965	22.4
691.151	22.51
691.337	22.48
691.523	22.43
691.709	22.5
691.895	22.71
692.081	22.46
692.267	22.49
692.453	22.08
692.639	22.32
692.825	22.14
693.011	22.06
693.196	22.11
693.382	22.18
693.568	22.12
693.754	22.18
693.94	22.39
694.125	22.79
694.311	22.76
694.497	22.88
694.682	22.9
694.868	23.05
695.054	22.67
695.239	22.97
695.425	23.08
695.611	23
695.796	23.12
695.982	23.32
696.168	23.33
696.353	23.32
696.539	22.95
696.724	22.63
696.91	22.85
697.095	22.81
697.281	22.74
697.466	22.9
697.652	22.75
697.837	22.56
698.023	22.74
698.208	22.66
698.393	22.63
698.579	22.61
698.764	22.66
698.949	22.69
699.135	22.85
699.32	22.7
699.505	22.76
699.691	22.71
699.876	22.66
700.061	22.55
700.246	22.74
700.432	22.61
700.617	22.68
700.802	22.56
700.987	22.7
701.172	22.32
701.358	22.57
701.543	22.4
701.728	22.16
701.913	22
702.098	22.53
702.283	22.77
702.468	23
702.653	22.86
702.838	22.92
703.023	23.16
703.208	23
703.393	22.76
703.578	22.77
703.763	22.48
703.948	22.76
704.133	23.19
704.318	23.37
704.503	22.81
704.688	22.36
704.873	22.62
705.057	23.01
705.242	22.96
705.427	22.7
705.612	22.83
705.797	22.93
705.981	23.34
706.166	23.32
706.351	23.67
706.536	23.59
706.72	23.91
706.905	24.02
707.09	24.3
707.274	23.91
707.459	23.78
707.644	23.96
707.828	24.53
708.013	24.74
708.197	24.75
708.382	24.58
708.567	24.62
708.751	24.41
708.936	24.06
709.12	23.57
709.305	23.69
709.489	23.66
709.673	24
709.858	23.68
710.042	23.63
710.227	23.02
710.411	22.85
710.596	22.82
710.78	23.06
710.964	22.81
711.149	23.04
711.333	23.53
711.517	23.67
711.702	23.67
711.886	23.67
712.07	23.57
712.254	23.74
712.438	23.52
712.623	23.65
712.807	23.64
712.991	23.59
713.175	23.47
713.359	24.01
713.544	23.49
713.728	23.2
713.912	23.31
714.096	23.26
714.28	23.42
714.464	23.36
714.648	23.21
714.832	23.15
715.016	23.05
715.2	22.91
715.384	22.89
715.568	22.58
715.752	22.16
715.936	22.4
716.12	22.44
716.304	22.44
716.488	22.4
716.671	22.55
716.855	22.56
717.039	22.81
717.223	22.95
717.407	23.28
717.59	23.51
717.774	23.52
717.958	23.94
718.142	24.11
718.325	23.97
718.509	23.55
718.693	23.5
718.877	23.31
719.06	22.94
719.244	22.85
719.428	23.09
719.611	23.27
719.795	23.06
719.978	23.23
720.162	23.4
720.345	23.31
720.529	23.48
720.713	23.59
720.896	23.89
721.08	23.89
721.263	24.12
721.446	24.11
721.63	23.94
721.813	23.48
721.997	23.11
722.18	23.21
722.364	23.12
722.547	22.93
722.73	23.13
722.914	23.34
723.097	23.32
723.28	23.52
723.464	23.3
723.647	22.88
723.83	22.73
724.013	22.52
724.197	22.32
724.38	22.5
724.563	22.34
724.746	22.53
724.929	22.69
725.112	22.39
725.296	22.09
725.479	21.97
725.662	21.9
725.845	22.33
726.028	22.43
726.211	22.49
726.394	22.7
726.577	23.05
726.76	23.49
726.943	23.37
727.126	23.16
727.309	22.96
727.492	23.19
727.675	23.35
727.858	23.55
728.041	23.8
728.224	23.48
728.407	23.93
728.589	23.92
728.772	24.28
728.955	24.55
729.138	24.62
729.321	24.79
729.503	24.91
729.686	25.1
729.869	24.61
730.052	24.78
730.234	24.74
730.417	24.4
730.6	24.55
730.782	24.66
730.965	24.89
731.148	24.93
731.33	24.84
731.513	24.42
731.695	24.29
731.878	24.28
732.061	24.26
732.243	24.44
732.426	24.2
732.608	24.22
732.791	24.03
732.973	23.91
733.156	23.61
733.338	23.58
733.52	23.41
733.703	23.39
733.885	23.77
734.068	24.03
734.25	23.89
734.432	24.06
734.615	24.18
734.797	24.02
734.979	24.55
735.162	25.24
735.344	25.58
735.526	25.56
735.708	25.42
735.891	25.71
736.073	25.31
736.255	24.75
736.437	24.72
736.619	24.71
736.802	24.42
736.984	24.57
737.166	24.69
737.348	23.64
737.53	23.1
737.712	22.79
737.894	22.84
738.076	22.83
738.258	22.21
738.44	22.49
738.622	22.47
738.804	21.88
738.986	21.8
739.168	22.05
739.35	22.03
739.532	21.59
739.714	22.04
739.896	22.61
740.078	22.49
740.259	22.59
740.441	22.85
740.623	23.28
740.805	23.17
740.987	23.66
741.168	24.84
741.35	24.97
741.532	24.53
741.714	24.08
741.895	24.5
742.077	24.8
742.259	24.61
742.44	24.51
742.622	24.65
742.804	24
742.985	23.63
743.167	23.64
743.348	23.45
743.53	22.83
743.711	23.11
743.893	23.66
744.075	23.94
744.256	23.79
744.438	23.24
744.619	23.23
744.8	23.56
744.982	23.19
745.163	23.08
745.345	22.79
745.526	22.92
745.707	22.4
745.889	22.2
746.07	22.12
746.252	21.55
746.433	21.49
746.614	21.56
746.795	21.51
746.977	21.25
747.158	21.34
747.339	21.73
747.52	22.16
747.702	22.61
747.883	22.37
748.064	22.73
748.245	22.78
748.426	22.36
748.607	22.8
748.788	23.32
748.97	23.28
749.151	23.64
749.332	23.61
749.513	23.1
749.694	22.47
749.875	23.17
750.056	23.14
750.237	23.22
750.418	22.94
750.599	23.05
750.78	23.29
750.96	23.08
751.141	23.11
751.322	23.98
751.503	23.8
751.684	23.74
751.865	23.42
752.046	23.7
752.226	23.39
752.407	23.18
752.588	23.74
752.769	24.31
752.949	24.52
753.13	24.73
753.311	24.1
753.492	23.75
753.672	22.95
753.853	23.18
754.034	23.36
754.214	23.7
754.395	23.68
754.575	23.07
754.756	23.51
754.937	23.34
755.117	23.37
755.298	23.14
755.478	23.07
755.659	23.2
755.839	22.71
756.02	22.42
756.2	22.67
756.381	22.07
756.561	22.21
756.741	22.73
756.922	23.03
757.102	22.85
757.283	22.62
757.463	22.19
757.643	22.44
757.823	22.22
758.004	22.69
758.184	23
758.364	23.38
758.545	23.15
758.725	23.38
758.905	24.12
759.085	23.39
759.265	23.33
759.446	23.46
759.626	23.3
759.806	23.58
759.986	22.54
760.166	22.33
760.346	22.29
760.526	22.44
760.706	22.23
760.886	22.44
761.066	22.87
761.246	22.11
761.426	22.72
761.606	22.78
761.786	22.96
761.966	23.58
762.146	23.62
762.326	24.53
762.506	24.99
762.686	25.19
762.866	25.02
763.046	25.49
763.225	25.21
763.405	25.04
763.585	25.54
763.765	25.38
763.945	25.56
764.124	25.48
764.304	25.21
764.484	25.01
764.664	24.81
764.843	24.52
765.023	24.19
765.203	24.66
765.382	24.72
765.562	24.97
765.741	25.17
765.921	24.85
766.101	24.88
766.28	24.9
766.46	24.56
766.639	24.09
766.819	24.08
766.998	24.51
767.178	24.65
767.357	24.68
767.537	24.25
767.716	23.47
767.896	23.73
768.075	23.75
768.254	23.6
768.434	23.77
768.613	23.84
768.792	24.63
768.972	24.71
769.151	24.54
769.33	24.21
769.51	24.01
769.689	24.09
769.868	24.12
770.047	24.51
770.226	24.17
770.406	24.29
770.585	23.64
770.764	23.18
770.943	22.06
771.122	21.07
771.301	21.2
771.48	21.12
771.66	20.4
771.839	20.53
772.018	20.36
772.197	20.29
772.376	20.35
772.555	20.52
772.734	19.94
772.913	20.37
773.092	20.4
773.271	21.6
773.449	22.26
773.628	21.83
773.807	21.7
773.986	22.18
774.165	22.52
774.344	23.16
774.523	23.33
774.701	23.64
774.88	22.93
775.059	23.37
775.238	23.36
775.417	23.87
775.595	23.11
775.774	23.16
775.953	23.29
776.131	24.34
776.31	24.39
776.489	24.68
776.667	24.43
776.846	24.92
777.025	24.33
777.203	24.2
777.382	23.49
777.56	23.93
777.739	23.22
777.917	24.22
778.096	23.31
778.274	23.08
778.453	23.01
778.631	23
778.81	21.91
778.988	21.9
779.166	20.66
779.345	20.77
779.523	21.1
779.702	22.4
779.88	22.39
780.058	23.76
780.237	22.84
780.415	23.96
780.593	25.44
780.771	24.96
780.95	25.22
781.128	25.78
781.306	26.02
781.484	26.06
781.662	25.73
781.841	25.92
782.019	25.26
782.197	24.21
782.375	23.18
782.553	23.66
782.731	22.86
782.909	21.44
783.087	21.72
783.265	20.97
783.443	20.3
783.621	20.67
783.799	20.42
783.977	20.26
784.155	20.62
784.333	20.66
784.511	21.52
784.689	22.36
784.867	22.34
785.045	22.78
785.223	23.37
785.4	23.35
785.578	24.24
785.756	24.35
785.934	23.82
786.112	24.41
786.289	24.75
786.467	24.29
786.645	24.18
786.823	25.34
787	24.61
787.178	25.09
787.356	24.75
787.533	24.88
787.711	25.29
787.889	24.38
788.066	24.49
788.244	23.79
788.421	23.68
788.599	23.58
788.776	23.76
788.954	23.73
789.131	22.09
789.309	22.3
789.486	21.87
789.664	22.2
789.841	22.03
790.019	21.26
790.196	22.35
790.373	22.64
790.551	23.81
790.728	24.07
790.906	24.14
791.083	23.96
791.26	24.87
791.437	25.96
791.615	25.67
791.792	25.71
791.969	25.39
792.146	26.25
792.324	26.2
792.501	26.26
792.678	25.53
792.855	25.15
793.032	24.35
793.209	24.39
793.387	25.04
793.564	24.33
793.741	23.9
793.918	23.82
794.095	23.74
794.272	24.1
794.449	22.71
794.626	22.54
794.803	22.22
794.98	22.84
795.157	21.91
795.334	22.44
795.511	22.85
795.688	21.89
795.864	21.21
796.041	21.58
796.218	21.18
796.395	20.24
796.572	19.95
796.749	19.93
796.925	20.3
797.102	19.8
797.279	19.54
797.456	20.26
797.632	20.92
797.809	20.41
797.986	21.13
798.162	22.21
798.339	21.74
798.516	21.39
798.692	22.62
798.869	22.17
799.046	22.29
799.222	22.1
799.399	22.29
799.575	22.14
799.752	21.3
799.928	20.89
800.105	20.45
800.281	20.52
800.458	20.37
800.634	20.69
800.811	21.8
800.987	21.12
801.163	22.07
801.34	21.89
801.516	22.55
801.692	22.54
801.869	24.29
802.045	25.23
802.221	24.42
802.398	25.12
802.574	25.09
802.75	25.96
802.926	26.42
803.103	26.05
803.279	25.78
803.455	25.13
803.631	25.39
803.807	26.01
803.983	26.69
804.16	25.31
804.336	25.16
804.512	26.04
804.688	26.14
804.864	26.29
805.04	24.23
805.216	23.87
805.392	23.62
805.568	23.6
805.744	23.21
805.92	23.22
806.096	22.21
806.272	21.21
806.448	21.41
806.623	21
806.799	20.65
806.975	20.74
807.151	20.59
807.327	20.85
807.503	20.94
807.678	22.28
807.854	22.32
808.03	23.57
808.206	24.55
808.381	23.81
808.557	23.91
808.733	24.02
808.908	23.93
809.084	24.7
809.26	24.23
809.435	23.74
809.611	23.96
809.787	24.08
809.962	22.87
810.138	22.53
810.313	22.45
810.489	21.6
810.664	22.78
810.84	23.63
811.015	23.79
811.191	24.68
811.366	24.69
811.542	24.9
811.717	25.43
811.892	26.06
812.068	25.75
812.243	25.42
812.419	26.46
812.594	26.1
812.769	25.9
812.944	26.92
813.12	26.86
813.295	25.73
813.47	24.47
813.645	24.58
813.821	24.17
813.996	23.5
814.171	22.92
814.346	22.73
814.521	23.53
814.697	23.45
814.872	24.44
815.047	24.57
815.222	23.94
815.397	23.43
815.572	24.69
815.747	25.06
815.922	23.24
816.097	24.77
816.272	25.24
816.447	25.9
816.622	26.51
816.797	25.92
816.972	25.32
817.147	25.39
817.322	25.81
817.496	25.43
817.671	25.16
817.846	24.93
818.021	24.69
818.196	26.19
818.371	24.87
818.545	23.48
818.72	23.28
818.895	23.55
819.069	24.61
819.244	25.46
819.419	24.24
819.594	24.72
819.768	24.86
819.943	24.88
820.117	25.24
820.292	25.57
820.467	25.38
820.641	26.26
820.816	27.02
820.99	27.07
821.165	27.21
821.339	27.34
821.514	27.37
821.688	27.75
821.863	27.62
822.037	27.37
822.212	27.55
822.386	27.52
822.56	27.66
822.735	27.75
822.909	27.48
823.084	27.31
823.258	27.33
823.432	27.04
823.606	26.95
823.781	26.93
823.955	26.71
824.129	26.5
824.303	26.78
824.478	26.94
824.652	26.64
824.826	26.59
825	26.48
825.174	26.18
825.348	26.4
825.523	26.52
825.697	26.75
825.871	26.7
826.045	26.36
826.219	26.5
826.393	27.02
826.567	26.96
826.741	26.63
826.915	26.62
827.089	26.97
827.263	26.92
827.437	27.27
827.611	26.98
827.784	27.12
827.958	27.2
828.132	27.44
828.306	27.57
828.48	27.45
828.654	26.58
828.827	26.26
829.001	26.4
829.175	27.31
829.349	27.17
829.522	27.62
829.696	27.87
829.87	28.05
830.044	27.53
830.217	27.7
830.391	26.84
830.565	26.89
830.738	26.63
830.912	26.54
831.085	27.34
831.259	27.61
831.432	26.99
831.606	26.1
831.779	25.27
831.953	25.21
832.126	26.08
832.3	25.73
832.473	25.69
832.647	25.4
832.82	24.96
832.994	25.33
833.167	25.93
833.34	25.01
833.514	24.67
833.687	24.36
833.86	24.45
834.034	24.67
834.207	24.68
834.38	23.82
834.553	24
834.727	23.78
834.9	24.29
835.073	24.99
835.246	24.61
835.419	25.08
835.593	26.97
835.766	26.85
835.939	27.19
836.112	27.11
836.285	26.74
836.458	26.36
836.631	26.41
836.804	26.19
836.977	26.37
837.15	25.81
837.323	24.21
837.496	23.42
837.669	22.66
837.842	21.08
838.015	20.67
838.188	19.61
838.361	19.94
838.533	20.21
838.706	20.46
838.879	20.09
839.052	20.93
839.225	20.27
839.398	21.56
839.57	23.97
839.743	25.43
839.916	26.1
840.088	25.39
840.261	26.1
840.434	26.29
840.607	26.36
840.779	26.42
840.952	25
841.124	26.71
841.297	27.35
841.47	26.09
841.642	25.25
841.815	25.35
841.987	25.03
842.16	23.56
842.332	24.12
842.505	23.14
842.677	23.15
842.85	23.26
843.022	26.05
843.194	27.5
843.367	26.52
843.539	27.12
843.712	28.37
843.884	27.3
844.056	25.35
844.229	24.29
844.401	24.15
844.573	22.37
844.745	23.84
844.918	25.43
845.09	25.38
845.262	20.37
845.434	18.72
845.606	18.58
845.779	15.98
845.951	16.42
846.123	14.41
846.295	17.01
846.467	18.3
846.639	19.11
846.811	17.88
846.983	14.23
847.155	12.21
847.327	11.84
847.499	15.49
847.671	16.17
847.843	17.77
848.015	15.73
848.187	13.16
848.359	14.88
848.531	10.62
848.703	10.96
848.875	7.04
849.047	5.82
849.218	4.54
849.39	6.97
849.562	10.02
849.734	9.26
849.905	9.43
850.077	5.38
850.249	7.61
850.421	11.43
850.592	12.56
850.764	18.63
850.936	17.96
851.107	21.17
851.279	22.98
851.451	22.49
851.622	22.55
851.794	19.55
851.965	17.81
852.137	19.48
852.308	22.81
852.48	22.63
852.651	20.22
852.823	21.43
852.994	15.19
853.166	16.29
853.337	17.63
853.509	17.72
853.68	21.64
853.851	22.46
854.023	22.44
854.194	23.69
854.365	23.64
854.537	22.38
854.708	20.07
854.879	19.97
855.05	16.33
855.222	17.52
855.393	20.85
855.564	22.37
855.735	23.69
855.906	24.73
856.078	22.08
856.249	23.98
856.42	23.54
856.591	20.05
856.762	16.38
856.933	21.34
857.104	24.35
857.275	27.82
857.446	32.83
857.617	30.07
857.788	30.1
857.959	27.85
858.13	26.72
858.301	28.79
858.472	25.55
858.643	24.18
858.814	24.68
858.985	27.61
859.155	26.42
859.326	24.78
859.497	23.45
859.668	18.99
859.839	20.14
860.009	21.05
860.18	19.3
860.351	18.76
860.522	18.96
860.692	17.99
860.863	20.31
861.034	22.6
861.204	22.72
861.375	20.38
861.546	20.02
861.716	22.63
861.887	27.15
862.057	23.4
862.228	19.77
862.398	22.84
862.569	20.56
862.739	19.21
862.91	20.88
863.08	18.54
863.251	16.27
863.421	16.86
863.592	15.77
863.762	17.06
863.932	17.65
864.103	18
864.273	16.62
864.443	20.13
864.614	16.19
864.784	18.75
864.954	13.67
865.125	15.91
865.295	19.72
865.465	20.96
865.635	18.84
865.805	21.18
865.976	22.19
866.146	22.13
866.316	18.69
866.486	23.76
866.656	17.12
866.826	20.48
866.996	18.64
867.166	21.93
867.336	16.66
867.506	12.62
867.676	15.82
867.846	18.62
868.016	19.61
868.186	14.59
868.356	11.61
868.526	13.89
868.696	11.89
868.866	22.45
869.036	19.99
869.206	20.25
869.376	23.31
869.545	24.4
869.715	25.5
869.885	24.43
870.055	24.87
870.224	24.59
870.394	27.01
870.564	23.41
870.734	23.82
870.903	22.62
871.073	19.32
871.243	22.32
871.412	23.24
871.582	22.75
871.751	25.3
871.921	24.25
872.091	26.5
872.26	23.98
872.43	20.28
872.599	21.06
872.769	29.58
872.938	27
873.108	26.34
873.277	25.07
873.446	24.87
873.616	23.93
873.785	24.2
873.955	24.75
874.124	26.45
874.293	24.53
874.463	28.57
874.632	32.48
874.801	33.54
874.971	29
875.14	29.1
875.309	28.07
875.478	24.58
875.647	22.48
875.817	22.61
875.986	21.57
876.155	16.78
876.324	13.42
876.493	14.12
876.662	13.03
876.831	11.53
877	9.71
877.17	7.94
877.339	10.73
877.508	14.66
877.677	18.79
877.846	19.31
878.015	21.49
878.184	23.42
878.352	28.01
878.521	29.19
878.69	29.69
878.859	30.73
879.028	29.71
879.197	29.02
879.366	31.85
879.534	28.5
879.703	27.09
879.872	25.42
880.041	24.97
880.21	24.97
880.378	26.12
880.547	25.1
880.716	25.6
880.884	25.46
881.053	24.93
881.222	24.74
881.39	25.17
881.559	24.51
881.727	25.26
881.896	25.73
882.065	26.95
882.233	27.21
882.402	27.53
882.57	26.6
882.739	26.63
882.907	26.73
883.076	26.83
883.244	27.17
883.412	27.71
883.581	27.85
883.749	28.16
883.918	28.58
884.086	28.36
884.254	27.1
884.423	27.6
884.591	26.22
884.759	26.44
884.927	25.84
885.096	25.26
885.264	24.81
885.432	23.85
885.6	23.74
885.769	23.57
885.937	22.81
886.105	21.61
886.273	21.13
886.441	22.27
886.609	19.62
886.777	21.6
886.945	21.67
887.113	23.36
887.281	24.46
887.449	25.25
887.617	26.12
887.785	25.05
887.953	24.17
888.121	22.96
888.289	25.58
888.457	25.63
888.625	24.03
888.793	27.57
888.961	21.48
889.129	24.47
889.296	23.27
889.464	22.07
889.632	19.54
889.8	19.35
889.967	20.16
890.135	19.9
