Data from 2938449_Reflection_1.txt Node
Date: Fri Jun 19 18:02:08 EDT 2015
User: robert
Spectrometer: USB4E03002
Autoset integration time: false
Trigger mode: 4
Integration Time (sec): 1.000000E-1
Scans to average: 10
Electric dark correction enabled: true
Nonlinearity correction enabled: false
Boxcar width: 5
Stray light correction enabled: false
XAxis mode: Wavelengths
Stop averaging: false
Number of Pixels in Spectrum: 3648
>>>>>Begin Spectral Data<<<<<
177.575	-458.23
177.794	-178.49
178.014	-247.97
178.233	-79.78
178.452	-11.7
178.672	-108.26
178.891	77.11
179.11	-422.78
179.33	-260.13
179.549	-214.85
179.768	-99.84
179.987	-95.71
180.207	-134.27
180.426	-342.27
180.645	-210.87
180.864	-387.32
181.084	931.62
181.303	463.7
181.522	292.97
181.741	386.38
181.96	231.28
182.179	228.87
182.398	178.01
182.618	200.29
182.837	221.31
183.056	219.64
183.275	221.62
183.494	175.28
183.713	196.36
183.932	203.02
184.151	195.86
184.37	288.78
184.589	525.36
184.808	498.81
185.027	500.4
185.246	398.56
185.465	786.29
185.684	607400
185.903	-330.76
186.122	-324.71
186.341	-330.65
186.56	-333.33
186.779	-352.92
186.998	-354.95
187.216	-207.69
187.435	-143.97
187.654	-154.74
187.873	-254.2
188.092	-279.14
188.311	-238.74
188.53	-277.1
188.748	-408.53
188.967	-185.07
189.186	-238.14
189.405	-418.29
189.623	-11152.38
189.842	-1532.98
190.061	-354.38
190.28	-650.65
190.498	-549.57
190.717	713.27
190.936	610.3
191.154	561.6
191.373	364.99
191.592	399.03
191.81	1166.95
192.029	1977.09
192.248	444.16
192.466	392.62
192.685	446
192.904	346.87
193.122	595.62
193.341	-1552.99
193.559	4529.51
193.778	-9768.09
193.996	-1976.14
194.215	1340.26
194.433	633.64
194.652	-1592.83
194.87	-314.77
195.089	-732.96
195.307	-414.79
195.526	-2029.17
195.744	894.09
195.963	722450
196.181	2319.8
196.399	814.95
196.618	526.59
196.836	642.36
197.055	465.19
197.273	400.2
197.491	415.83
197.71	331.09
197.928	364.08
198.146	370.9
198.365	210.89
198.583	175.56
198.801	276.86
199.019	584.83
199.238	364.62
199.456	427.42
199.674	473.45
199.892	-2481.4
200.111	-265.01
200.329	-261.48
200.547	-154.54
200.765	-97.73
200.983	-137.08
201.202	-138.58
201.42	-143.54
201.638	-176.89
201.856	-148
202.074	-155.88
202.292	-193.75
202.51	-175.41
202.728	-145.91
202.946	-824.48
203.165	-7688.16
203.383	970.12
203.601	286.31
203.819	643.09
204.037	-464.07
204.255	-316.75
204.473	-242.66
204.691	-316.63
204.909	-249.91
205.127	-165.78
205.345	-128.08
205.562	-134.67
205.78	-111.53
205.998	-96.72
206.216	-362.51
206.434	-1846.93
206.652	724.17
206.87	410.99
207.088	3661.48
207.306	609.91
207.523	225.53
207.741	197.26
207.959	196.22
208.177	179.88
208.395	178.71
208.612	194.69
208.83	169.82
209.048	184.11
209.266	167.32
209.483	132.23
209.701	119.45
209.919	134.36
210.136	143.88
210.354	178.51
210.572	165.42
210.79	218.48
211.007	178.19
211.225	216.12
211.442	209.43
211.66	142.85
211.878	104.13
212.095	115.39
212.313	123.09
212.53	116.9
212.748	110.6
212.966	108.47
213.183	92.79
213.401	100.8
213.618	98.66
213.836	95.67
214.053	94.3
214.271	181.32
214.488	122.46
214.705	90.78
214.923	76.6
215.14	-24.43
215.358	14.67
215.575	23
215.793	130.03
216.01	129.56
216.227	126.29
216.445	184.15
216.662	150.41
216.879	140.7
217.097	153.19
217.314	134.59
217.531	172.65
217.749	139.26
217.966	142.84
218.183	116.98
218.4	89.4
218.618	79.3
218.835	67.08
219.052	82.65
219.269	72.46
219.487	66.81
219.704	60.68
219.921	49.76
220.138	54.61
220.355	55.05
220.572	56.12
220.79	73.91
221.007	82.33
221.224	69.78
221.441	58.47
221.658	66.02
221.875	63.51
222.092	58.61
222.309	66.77
222.526	69.98
222.743	70.73
222.96	66.98
223.177	56.58
223.394	45.92
223.611	57.85
223.828	53.28
224.045	50.95
224.262	48.32
224.479	51.98
224.696	44.59
224.913	42.15
225.13	37.9
225.347	39
225.564	36.76
225.781	37.16
225.997	32.08
226.214	29.57
226.431	25.04
226.648	22.86
226.865	20.95
227.082	21.97
227.298	22.4
227.515	23.3
227.732	23.89
227.949	25.48
228.165	24.67
228.382	24.97
228.599	25.21
228.816	25.58
229.032	25.79
229.249	27.51
229.466	25.63
229.682	24.41
229.899	22.67
230.116	19.97
230.332	18.29
230.549	19.15
230.765	20.12
230.982	19.17
231.199	22.58
231.415	24.74
231.632	22.85
231.848	23.04
232.065	23.01
232.281	24.18
232.498	24.82
232.714	25.14
232.931	26.23
233.147	26.51
233.364	28.31
233.58	25.95
233.797	27.72
234.013	30.19
234.23	32.08
234.446	30.58
234.662	28.24
234.879	30.23
235.095	28.77
235.312	27.44
235.528	26.76
235.744	24.81
235.961	22.9
236.177	19.13
236.393	17.28
236.61	15.89
236.826	18.44
237.042	19.52
237.258	17.78
237.475	19.09
237.691	18.58
237.907	17.03
238.123	17.23
238.339	17.98
238.556	17.98
238.772	16.67
238.988	17.1
239.204	16.26
239.42	17.29
239.636	17.51
239.853	16.77
240.069	16.58
240.285	16.24
240.501	16.04
240.717	16.24
240.933	16.25
241.149	17.3
241.365	16.77
241.581	17.43
241.797	17.23
242.013	17.28
242.229	16.97
242.445	16.81
242.661	16.54
242.877	16.72
243.093	17.66
243.309	18.89
243.525	17.8
243.741	17.73
243.957	17.34
244.173	16.19
244.388	15.07
244.604	15.42
244.82	15.61
245.036	15.45
245.252	14.67
245.468	13.45
245.683	12.43
245.899	12.69
246.115	12.23
246.331	11.74
246.547	11.62
246.762	11.64
246.978	11.38
247.194	11.09
247.409	10.39
247.625	10.92
247.841	11.46
248.057	11.83
248.272	10.59
248.488	10.99
248.703	10.93
248.919	12.09
249.135	12.68
249.35	12.42
249.566	11.99
249.782	13.88
249.997	13.86
250.213	13.31
250.428	13.04
250.644	14.48
250.859	14.84
251.075	15.08
251.29	13.74
251.506	13.36
251.721	13.66
251.937	14.94
252.152	14.23
252.368	13.3
252.583	14.54
252.798	15.86
253.014	15.77
253.229	15.45
253.445	14.73
253.66	14.84
253.875	13.88
254.091	12.85
254.306	11.83
254.521	10.75
254.737	11.89
254.952	10.27
255.167	9.74
255.383	10
255.598	10.55
255.813	10.68
256.028	11.37
256.244	12.1
256.459	12.24
256.674	11.23
256.889	11.1
257.104	10.89
257.32	10.89
257.535	10.32
257.75	9.73
257.965	9.36
258.18	9.24
258.395	9.17
258.61	8.97
258.826	8.99
259.041	9.06
259.256	9.27
259.471	9.14
259.686	9.23
259.901	9.5
260.116	9.19
260.331	9.32
260.546	9.82
260.761	9.78
260.976	9.74
261.191	10.31
261.406	11.09
261.621	11.5
261.836	10.75
262.05	11.33
262.265	11.11
262.48	12.34
262.695	12.43
262.91	12.17
263.125	11.61
263.34	12.18
263.555	11.09
263.769	9.76
263.984	10.66
264.199	11.58
264.414	11.17
264.629	11.16
264.843	10.93
265.058	10.52
265.273	10.32
265.488	10.59
265.702	9.85
265.917	10.15
266.132	10.94
266.346	9.77
266.561	9.6
266.776	9.65
266.99	8.86
267.205	8.9
267.42	9.33
267.634	9.34
267.849	9.39
268.063	9.92
268.278	10.06
268.492	9.84
268.707	10.16
268.922	9.73
269.136	9.13
269.351	9.51
269.565	9.28
269.78	8.56
269.994	8.43
270.209	8.41
270.423	8.01
270.637	8.3
270.852	8.15
271.066	8.53
271.281	8.98
271.495	8.95
271.709	8.9
271.924	8.85
272.138	9.44
272.353	9.96
272.567	9.95
272.781	10.45
272.996	9.73
273.21	9.91
273.424	9.41
273.638	8.76
273.853	9.66
274.067	9.59
274.281	9.71
274.495	9.1
274.71	8.86
274.924	8.97
275.138	8.95
275.352	9.26
275.566	9.75
275.781	9.96
275.995	11.3
276.209	10.81
276.423	11.38
276.637	10.91
276.851	10.67
277.065	10.54
277.279	10.96
277.493	11.4
277.707	10.92
277.921	10.21
278.135	9.94
278.349	8.99
278.563	8.95
278.777	8.69
278.991	9.02
279.205	9.88
279.419	9.38
279.633	9.23
279.847	8.81
280.061	8.87
280.275	9.2
280.489	9.13
280.703	9.56
280.917	9.55
281.131	9.17
281.344	8.8
281.558	7.81
281.772	8.23
281.986	8.38
282.2	8.82
282.414	8.68
282.627	8.41
282.841	8.42
283.055	8.57
283.269	8.76
283.482	9.51
283.696	9.76
283.91	10.52
284.123	10.07
284.337	9.71
284.551	8.77
284.764	9.07
284.978	9.19
285.192	9.31
285.405	9.14
285.619	9
285.833	8.84
286.046	9.01
286.26	9.25
286.473	9.68
286.687	9.59
286.9	10.5
287.114	10.42
287.327	10.62
287.541	9.92
287.754	9.35
287.968	9.23
288.181	9.1
288.395	8.84
288.608	8.73
288.822	9.19
289.035	9.36
289.248	8.91
289.462	9.58
289.675	9.54
289.889	10.12
290.102	10.56
290.315	10.59
290.529	11.21
290.742	11.57
290.955	11.42
291.169	10.72
291.382	11.34
291.595	11.88
291.808	12.11
292.022	12.11
292.235	12.34
292.448	12.43
292.661	12.58
292.875	12.19
293.088	12.42
293.301	12.89
293.514	13
293.727	12.35
293.94	12.28
294.153	11.48
294.367	11.23
294.58	11.24
294.793	11.29
295.006	11.63
295.219	11.48
295.432	11.52
295.645	11.12
295.858	11.56
296.071	11.74
296.284	11.84
296.497	12.4
296.71	12.65
296.923	12.48
297.136	12.6
297.349	12.28
297.562	12.45
297.775	12.52
297.988	13.04
298.201	13.17
298.414	13.29
298.626	13.59
298.839	13.46
299.052	13.61
299.265	14.21
299.478	13.75
299.691	14.14
299.903	14.21
300.116	14.26
300.329	14.25
300.542	14.52
300.755	14.84
300.967	14.71
301.18	14.55
301.393	14.39
301.605	14
301.818	14.82
302.031	14.77
302.243	14.44
302.456	14.65
302.669	14.69
302.881	14.3
303.094	14.06
303.307	14.01
303.519	14.11
303.732	14.22
303.944	14.17
304.157	14.36
304.37	14.49
304.582	14.79
304.795	15.29
305.007	15.21
305.22	15.39
305.432	15.24
305.645	14.96
305.857	15.37
306.069	15.62
306.282	16.04
306.494	15.61
306.707	15.04
306.919	15.26
307.132	14.6
307.344	14.43
307.556	14.49
307.769	15.05
307.981	15.45
308.193	15.29
308.406	15.14
308.618	15
308.83	14.66
309.043	14.91
309.255	14.64
309.467	14.71
309.679	14.63
309.892	13.93
310.104	13.13
310.316	13.23
310.528	13.04
310.74	13.15
310.953	13.1
311.165	13.69
311.377	14.22
311.589	14.88
311.801	15.38
312.013	15.92
312.225	16.07
312.437	17.17
312.649	17.02
312.862	16.9
313.074	16.75
313.286	17.09
313.498	16.64
313.71	15.76
313.922	14.83
314.134	14.3
314.346	13.66
314.558	14.82
314.77	14.54
314.982	14.65
315.193	15.23
315.405	15.56
315.617	15.19
315.829	15.09
316.041	15.79
316.253	16.1
316.465	15.8
316.677	15.73
316.888	15.26
317.1	15.03
317.312	15.36
317.524	14.99
317.736	15.01
317.947	15.74
318.159	15.93
318.371	15.7
318.583	15.69
318.794	15.86
319.006	16.58
319.218	16.46
319.43	16.52
319.641	16.36
319.853	16.43
320.064	16.59
320.276	16.86
320.488	16.89
320.699	16.79
320.911	17.1
321.123	16.47
321.334	16.29
321.546	16.09
321.757	16.39
321.969	16.28
322.18	16.53
322.392	15.99
322.603	14.86
322.815	15.2
323.026	14.93
323.238	14.1
323.449	14.51
323.661	14.63
323.872	14.72
324.083	14.12
324.295	14.24
324.506	13.75
324.718	14.25
324.929	14.82
325.14	14.8
325.352	15.59
325.563	16.47
325.774	16.9
325.986	16.76
326.197	16.99
326.408	17.99
326.62	18.08
326.831	18.54
327.042	17.61
327.253	17.73
327.464	18.32
327.676	17.87
327.887	17.51
328.098	17.33
328.309	17.26
328.52	17.84
328.732	17.04
328.943	17.46
329.154	17.56
329.365	18.32
329.576	18.3
329.787	17.81
329.998	18.83
330.209	19.41
330.42	19.49
330.631	19.56
330.842	19.36
331.053	19.34
331.264	18.6
331.475	18.51
331.686	18.68
331.897	18.99
332.108	18.27
332.319	17.35
332.53	16.96
332.741	16.62
332.952	16.75
333.163	16.46
333.374	16.7
333.585	16.61
333.795	16.36
334.006	16.42
334.217	16.3
334.428	16.72
334.639	17.2
334.849	17.53
335.06	18.26
335.271	18.49
335.482	18.07
335.692	18.35
335.903	18.17
336.114	18.25
336.325	17.86
336.535	18.07
336.746	18.39
336.957	18.29
337.167	18.3
337.378	18.07
337.589	17.89
337.799	17.99
338.01	18.29
338.22	18.74
338.431	18.34
338.642	19.1
338.852	18.78
339.063	18.19
339.273	18.02
339.484	17.4
339.694	16.82
339.905	17
340.115	17.03
340.326	16.62
340.536	16.82
340.746	17.18
340.957	16.69
341.167	16.62
341.378	17.04
341.588	17.24
341.799	17.26
342.009	17.5
342.219	17.17
342.43	17.34
342.64	16.87
342.85	16.53
343.061	16.31
343.271	16.37
343.481	16.91
343.691	17.1
343.902	16.71
344.112	16.96
344.322	16.96
344.532	17.14
344.743	16.94
344.953	17.24
345.163	16.97
345.373	17.12
345.583	17.28
345.793	16.64
346.004	16.56
346.214	16.72
346.424	17.04
346.634	17.03
346.844	16.7
347.054	16.53
347.264	16.83
347.474	17.31
347.684	17.52
347.894	17.46
348.104	18
348.314	17.93
348.524	17.64
348.734	17.44
348.944	17.23
349.154	17.57
349.364	18.22
349.574	17.4
349.784	16.82
349.994	16.96
350.204	16.32
350.413	15.8
350.623	15.72
350.833	15.84
351.043	15.82
351.253	15.43
351.463	15.23
351.672	14.93
351.882	15.85
352.092	16.14
352.302	16.17
352.511	16.86
352.721	16.5
352.931	16.72
353.141	16.49
353.35	16.1
353.56	16.56
353.77	16.68
353.979	16.22
354.189	15.85
354.399	15.82
354.608	15.59
354.818	15.45
355.027	15.67
355.237	15.21
355.447	15.7
355.656	15.94
355.866	15.71
356.075	15.68
356.285	15.98
356.494	16.05
356.704	16.01
356.913	16.12
357.123	15.75
357.332	15.62
357.542	15.84
357.751	15.55
357.96	15.77
358.17	15.77
358.379	15.85
358.589	16.09
358.798	15.95
359.007	15.79
359.217	15.64
359.426	15.31
359.635	15.18
359.845	15.09
360.054	15.01
360.263	14.59
360.472	14.83
360.682	14.58
360.891	14.29
361.1	13.93
361.309	14.15
361.519	14.03
361.728	14.3
361.937	14.55
362.146	14.3
362.355	14.26
362.564	14.48
362.774	14.07
362.983	14.07
363.192	13.86
363.401	14.28
363.61	13.7
363.819	13.81
364.028	13.65
364.237	13.33
364.446	13.26
364.655	12.9
364.864	12.63
365.073	13.14
365.282	12.84
365.491	12.77
365.7	12.75
365.909	13
366.118	12.78
366.327	13.06
366.536	13.39
366.745	13.24
366.954	13.31
367.162	13.48
367.371	13.25
367.58	13.35
367.789	13.4
367.998	13.15
368.207	13.05
368.415	12.86
368.624	12.97
368.833	12.71
369.042	13.11
369.25	13.44
369.459	13.53
369.668	13.25
369.877	13.41
370.085	13.56
370.294	13.57
370.503	13.3
370.711	13.07
370.92	12.58
371.129	12.56
371.337	11.95
371.546	11.48
371.754	11.14
371.963	10.81
372.171	10.42
372.38	9.99
372.589	10.27
372.797	10.54
373.006	11.14
373.214	11.27
373.423	10.87
373.631	11.42
373.84	11.64
374.048	11.46
374.256	11.8
374.465	12.05
374.673	12.1
374.882	11.7
375.09	11.6
375.298	11.18
375.507	11.37
375.715	11.61
375.923	11.47
376.132	11.12
376.34	10.84
376.548	10.63
376.757	10.44
376.965	10.52
377.173	10.53
377.381	10.58
377.59	10.58
377.798	10.04
378.006	9.91
378.214	9.97
378.423	10.15
378.631	10.3
378.839	10.46
379.047	10.51
379.255	10.22
379.463	10.14
379.671	10.26
379.879	10.06
380.088	10.11
380.296	10.25
380.504	10.2
380.712	10.37
380.92	10.4
381.128	10.32
381.336	10.04
381.544	9.92
381.752	9.7
381.96	9.48
382.168	9.45
382.376	9.52
382.584	8.97
382.791	8.89
382.999	8.8
383.207	8.72
383.415	8.7
383.623	8.74
383.831	9.14
384.039	9.35
384.247	9.22
384.454	9.11
384.662	9.07
384.87	9.39
385.078	9.05
385.285	8.71
385.493	8.76
385.701	8.58
385.909	8.61
386.116	8.42
386.324	8.04
386.532	8.1
386.739	8.16
386.947	7.94
387.155	8.04
387.362	8.41
387.57	8.64
387.778	8.75
387.985	8.64
388.193	8.4
388.4	8.25
388.608	8.27
388.816	8.23
389.023	7.98
389.231	7.92
389.438	7.61
389.646	7.42
389.853	7.11
390.061	6.81
390.268	6.91
390.475	6.84
390.683	7
390.89	6.91
391.098	6.81
391.305	7.11
391.512	7.28
391.72	7.2
391.927	7.13
392.135	7.13
392.342	7.28
392.549	7.22
392.756	7.34
392.964	7.09
393.171	7.42
393.378	7.42
393.586	7.4
393.793	7.32
394	7.45
394.207	7.48
394.414	7.7
394.622	7.69
394.829	7.6
395.036	7.43
395.243	7.38
395.45	7.12
395.657	6.94
395.864	6.74
396.072	6.76
396.279	6.5
396.486	6.48
396.693	6.32
396.9	6.14
397.107	6.09
397.314	6.19
397.521	6.25
397.728	6.15
397.935	6.28
398.142	6.18
398.349	6.13
398.556	6.35
398.763	6.26
398.97	6.15
399.177	6.41
399.383	6.46
399.59	6.46
399.797	6.47
400.004	6.57
400.211	6.5
400.418	6.58
400.625	6.43
400.831	6.28
401.038	6.24
401.245	6.35
401.452	6.01
401.658	6.01
401.865	5.94
402.072	5.89
402.279	5.72
402.485	5.82
402.692	5.67
402.899	5.56
403.105	5.67
403.312	5.74
403.519	5.71
403.725	5.74
403.932	5.76
404.138	5.73
404.345	5.62
404.552	5.63
404.758	5.59
404.965	5.66
405.171	5.6
405.378	5.58
405.584	5.38
405.791	5.33
405.997	5.44
406.204	5.32
406.41	5.47
406.617	5.64
406.823	5.6
407.029	5.53
407.236	5.66
407.442	5.86
407.649	5.87
407.855	6.01
408.061	5.96
408.268	5.88
408.474	5.92
408.68	5.77
408.887	5.59
409.093	5.75
409.299	5.73
409.505	5.64
409.712	5.53
409.918	5.4
410.124	5.32
410.33	5.34
410.537	5.21
410.743	5.16
410.949	5.37
411.155	5.42
411.361	5.19
411.567	5.34
411.773	5.29
411.98	5.27
412.186	5.37
412.392	5.32
412.598	5.26
412.804	5.42
413.01	5.4
413.216	5.18
413.422	5.17
413.628	5.37
413.834	5.32
414.04	5.36
414.246	5.37
414.452	5.33
414.658	5.32
414.864	5.33
415.07	5.29
415.275	5.29
415.481	5.36
415.687	5.15
415.893	4.97
416.099	4.83
416.305	4.88
416.511	4.93
416.716	4.95
416.922	4.94
417.128	4.91
417.334	4.87
417.539	4.76
417.745	4.6
417.951	4.73
418.157	4.74
418.362	4.82
418.568	4.74
418.774	4.65
418.979	4.56
419.185	4.54
419.391	4.56
419.596	4.57
419.802	4.61
420.008	4.66
420.213	4.79
420.419	4.86
420.624	4.87
420.83	4.83
421.035	4.88
421.241	4.83
421.446	4.86
421.652	4.8
421.857	4.78
422.063	4.8
422.268	4.79
422.474	4.67
422.679	4.65
422.885	4.62
423.09	4.65
423.295	4.63
423.501	4.68
423.706	4.69
423.911	4.71
424.117	4.7
424.322	4.66
424.527	4.68
424.733	4.65
424.938	4.51
425.143	4.45
425.349	4.43
425.554	4.38
425.759	4.49
425.964	4.42
426.169	4.44
426.375	4.56
426.58	4.65
426.785	4.7
426.99	4.86
427.195	5.05
427.4	4.99
427.605	5.04
427.811	5.14
428.016	4.85
428.221	4.93
428.426	4.95
428.631	4.84
428.836	4.74
429.041	4.67
429.246	4.47
429.451	4.43
429.656	4.47
429.861	4.4
430.066	4.31
430.271	4.53
430.476	4.62
430.681	4.61
430.886	4.57
431.09	4.59
431.295	4.65
431.5	4.77
431.705	4.74
431.91	4.78
432.115	4.77
432.32	4.82
432.524	4.78
432.729	4.67
432.934	4.67
433.139	4.67
433.343	4.71
433.548	4.61
433.753	4.58
433.958	4.69
434.162	4.76
434.367	4.79
434.572	4.69
434.776	4.7
434.981	4.69
435.186	4.56
435.39	4.57
435.595	4.64
435.799	4.64
436.004	4.7
436.209	4.54
436.413	4.43
436.618	4.41
436.822	4.49
437.027	4.37
437.231	4.27
437.436	4.32
437.64	4.31
437.845	4.22
438.049	4.24
438.253	4.17
438.458	4.24
438.662	4.29
438.867	4.25
439.071	4.29
439.275	4.34
439.48	4.36
439.684	4.43
439.888	4.39
440.093	4.33
440.297	4.27
440.501	4.26
440.706	4.26
440.91	4.27
441.114	4.31
441.318	4.29
441.523	4.3
441.727	4.29
441.931	4.24
442.135	4.29
442.339	4.35
442.543	4.53
442.748	4.53
442.952	4.49
443.156	4.37
443.36	4.3
443.564	4.32
443.768	4.31
443.972	4.41
444.176	4.44
444.38	4.36
444.584	4.32
444.788	4.17
444.992	4.1
445.196	4.1
445.4	4.12
445.604	4.15
445.808	4.22
446.012	4.2
446.216	4.18
446.42	4.15
446.624	4.22
446.828	4.29
447.032	4.38
447.235	4.41
447.439	4.41
447.643	4.44
447.847	4.45
448.051	4.31
448.254	4.37
448.458	4.39
448.662	4.41
448.866	4.39
449.069	4.37
449.273	4.26
449.477	4.34
449.681	4.33
449.884	4.28
450.088	4.25
450.292	4.17
450.495	4.01
450.699	3.99
450.902	3.96
451.106	3.94
451.31	3.96
451.513	3.96
451.717	3.89
451.92	3.9
452.124	3.93
452.327	4.01
452.531	4.08
452.734	4.17
452.938	4.06
453.141	4
453.345	4.03
453.548	4.01
453.752	4.08
453.955	4.21
454.158	4.26
454.362	4.2
454.565	4.24
454.769	4.3
454.972	4.4
455.175	4.51
455.379	4.57
455.582	4.44
455.785	4.37
455.988	4.35
456.192	4.17
456.395	4.1
456.598	4.1
456.801	3.99
457.005	3.96
457.208	3.93
457.411	3.92
457.614	3.89
457.817	3.91
458.021	3.94
458.224	3.96
458.427	4.02
458.63	4.01
458.833	4.09
459.036	4.08
459.239	4.08
459.442	4.03
459.645	4.09
459.848	4.09
460.051	4.14
460.254	4.15
460.457	4.13
460.66	4.14
460.863	4.14
461.066	4.04
461.269	4.12
461.472	4.07
461.675	4.03
461.878	4
462.081	3.98
462.284	3.99
462.486	4.01
462.689	3.96
462.892	3.97
463.095	4.08
463.298	4.11
463.5	4.16
463.703	4.15
463.906	4.28
464.109	4.16
464.311	4.21
464.514	4.27
464.717	4.27
464.92	4.26
465.122	4.21
465.325	4.23
465.528	4.23
465.73	4.12
465.933	4.25
466.135	4.19
466.338	4.36
466.541	4.45
466.743	4.44
466.946	4.35
467.148	4.41
467.351	4.41
467.553	4.3
467.756	4.44
467.958	4.48
468.161	4.4
468.363	4.37
468.566	4.21
468.768	4.12
468.971	4.1
469.173	4.23
469.375	4.19
469.578	4.18
469.78	4.24
469.983	4.11
470.185	4.1
470.387	4.24
470.59	4.33
470.792	4.4
470.994	4.42
471.196	4.48
471.399	4.41
471.601	4.44
471.803	4.5
472.005	4.51
472.208	4.41
472.41	4.46
472.612	4.42
472.814	4.37
473.016	4.31
473.218	4.27
473.421	4.19
473.623	4.14
473.825	4.18
474.027	4.04
474.229	4.04
474.431	4.08
474.633	4.02
474.835	4.01
475.037	3.97
475.239	3.95
475.441	4
475.643	4
475.845	3.99
476.047	3.86
476.249	4
476.451	3.94
476.653	3.95
476.855	3.96
477.057	3.93
477.258	4.02
477.46	4.05
477.662	4
477.864	4.12
478.066	4.21
478.268	4.18
478.469	4.2
478.671	4.23
478.873	4.2
479.075	4.16
479.276	4.21
479.478	4.14
479.68	4.13
479.882	4.16
480.083	4.07
480.285	3.98
480.487	4.04
480.688	4.05
480.89	4.03
481.091	4.08
481.293	4.06
481.495	3.98
481.696	3.98
481.898	3.97
482.099	3.93
482.301	3.9
482.502	3.93
482.704	3.91
482.905	3.84
483.107	3.85
483.308	3.84
483.51	3.82
483.711	3.82
483.913	3.78
484.114	3.78
484.315	3.8
484.517	3.84
484.718	3.81
484.92	3.85
485.121	3.86
485.322	3.88
485.524	3.85
485.725	3.92
485.926	3.95
486.127	3.98
486.329	4.01
486.53	3.98
486.731	3.96
486.932	3.97
487.134	3.94
487.335	3.98
487.536	3.97
487.737	3.96
487.938	3.9
488.139	3.89
488.341	3.92
488.542	3.88
488.743	3.86
488.944	3.83
489.145	3.86
489.346	3.9
489.547	3.87
489.748	3.89
489.949	3.9
490.15	3.94
490.351	3.96
490.552	3.93
490.753	3.94
490.954	3.96
491.155	3.99
491.356	3.94
491.557	3.96
491.758	4
491.959	3.97
492.159	4
492.36	4.03
492.561	4.03
492.762	4.03
492.963	4.02
493.164	4.07
493.364	4.11
493.565	4.16
493.766	4.1
493.967	4.14
494.167	4.2
494.368	4.21
494.569	4.2
494.769	4.23
494.97	4.27
495.171	4.3
495.371	4.3
495.572	4.26
495.773	4.31
495.973	4.32
496.174	4.28
496.375	4.24
496.575	4.17
496.776	4.19
496.976	4.14
497.177	4.11
497.377	4.15
497.578	4.11
497.778	4.19
497.979	4.18
498.179	4.2
498.38	4.22
498.58	4.28
498.78	4.38
498.981	4.35
499.181	4.45
499.382	4.54
499.582	4.42
499.782	4.54
499.983	4.47
500.183	4.51
500.383	4.61
500.584	4.61
500.784	4.62
500.984	4.65
501.184	4.68
501.385	4.74
501.585	4.71
501.785	4.79
501.985	4.81
502.185	4.81
502.386	4.73
502.586	4.62
502.786	4.66
502.986	4.58
503.186	4.52
503.386	4.47
503.586	4.39
503.786	4.47
503.987	4.53
504.187	4.51
504.387	4.58
504.587	4.68
504.787	4.73
504.987	4.75
505.187	4.82
505.387	4.84
505.587	4.98
505.786	4.96
505.986	4.89
506.186	4.88
506.386	4.9
506.586	4.84
506.786	4.84
506.986	4.92
507.186	4.93
507.386	4.97
507.585	5.05
507.785	5.03
507.985	5.1
508.185	5.18
508.384	5.25
508.584	5.26
508.784	5.26
508.984	5.23
509.183	5.23
509.383	5.2
509.583	5.22
509.782	5.25
509.982	5.25
510.182	5.28
510.381	5.24
510.581	5.25
510.781	5.29
510.98	5.34
511.18	5.41
511.379	5.37
511.579	5.45
511.778	5.52
511.978	5.47
512.177	5.48
512.377	5.47
512.576	5.45
512.776	5.44
512.975	5.48
513.175	5.51
513.374	5.57
513.573	5.66
513.773	5.64
513.972	5.66
514.172	5.69
514.371	5.76
514.57	5.76
514.77	5.89
514.969	5.95
515.168	6
515.367	5.99
515.567	5.99
515.766	5.96
515.965	5.99
516.164	5.97
516.364	5.95
516.563	5.87
516.762	5.84
516.961	5.79
517.16	5.81
517.359	5.8
517.559	5.87
517.758	5.81
517.957	5.82
518.156	5.86
518.355	5.89
518.554	5.94
518.753	6.02
518.952	6.13
519.151	6.25
519.35	6.29
519.549	6.37
519.748	6.4
519.947	6.58
520.146	6.67
520.345	6.63
520.544	6.62
520.743	6.68
520.942	6.8
521.141	6.72
521.339	6.72
521.538	6.7
521.737	6.65
521.936	6.61
522.135	6.61
522.333	6.61
522.532	6.65
522.731	6.62
522.93	6.61
523.129	6.6
523.327	6.66
523.526	6.63
523.725	6.65
523.923	6.67
524.122	6.66
524.321	6.66
524.519	6.67
524.718	6.7
524.917	6.76
525.115	6.81
525.314	6.81
525.512	6.87
525.711	6.86
525.909	6.87
526.108	6.9
526.306	6.95
526.505	6.95
526.703	6.96
526.902	6.99
527.1	7.02
527.299	6.98
527.497	6.97
527.696	6.95
527.894	6.96
528.092	6.93
528.291	6.93
528.489	6.91
528.688	6.92
528.886	6.89
529.084	6.86
529.283	6.85
529.481	6.9
529.679	6.94
529.877	6.99
530.076	7.05
530.274	7.12
530.472	7.2
530.67	7.26
530.869	7.25
531.067	7.32
531.265	7.32
531.463	7.33
531.661	7.33
531.859	7.34
532.057	7.3
532.255	7.27
532.454	7.25
532.652	7.22
532.85	7.2
533.048	7.2
533.246	7.18
533.444	7.23
533.642	7.23
533.84	7.23
534.038	7.24
534.236	7.28
534.434	7.33
534.632	7.45
534.83	7.49
535.027	7.49
535.225	7.54
535.423	7.63
535.621	7.66
535.819	7.7
536.017	7.73
536.215	7.76
536.412	7.81
536.61	7.82
536.808	7.77
537.006	7.82
537.203	7.87
537.401	7.95
537.599	7.99
537.797	8.01
537.994	8.11
538.192	8.17
538.39	8.24
538.587	8.29
538.785	8.41
538.983	8.46
539.18	8.47
539.378	8.48
539.575	8.47
539.773	8.46
539.97	8.47
540.168	8.41
540.366	8.46
540.563	8.46
540.761	8.44
540.958	8.44
541.155	8.46
541.353	8.48
541.55	8.52
541.748	8.52
541.945	8.56
542.143	8.57
542.34	8.68
542.537	8.65
542.735	8.73
542.932	8.83
543.129	8.8
543.327	8.85
543.524	8.94
543.721	9.01
543.919	9.05
544.116	9.14
544.313	9.26
544.51	9.24
544.708	9.26
544.905	9.27
545.102	9.3
545.299	9.36
545.496	9.28
545.693	9.26
545.891	9.27
546.088	9.25
546.285	9.24
546.482	9.17
546.679	9.2
546.876	9.35
547.073	9.37
547.27	9.37
547.467	9.31
547.664	9.54
547.861	9.52
548.058	9.55
548.255	9.69
548.452	9.77
548.649	9.86
548.846	9.96
549.043	9.86
549.24	9.95
549.437	10.07
549.633	10.23
549.83	10.15
550.027	10.27
550.224	10.43
550.421	10.62
550.618	10.61
550.814	10.74
551.011	10.76
551.208	10.86
551.405	10.86
551.601	10.86
551.798	10.84
551.995	10.97
552.191	11
552.388	10.98
552.585	10.94
552.781	10.97
552.978	11.02
553.175	11.16
553.371	11.23
553.568	11.32
553.764	11.44
553.961	11.53
554.157	11.49
554.354	11.56
554.55	11.65
554.747	11.76
554.943	11.73
555.14	11.7
555.336	11.66
555.533	11.58
555.729	11.71
555.926	11.68
556.122	11.88
556.318	11.95
556.515	12.05
556.711	12.1
556.907	12.07
557.104	12.27
557.3	12.31
557.496	12.24
557.693	12.37
557.889	12.38
558.085	12.39
558.281	12.33
558.478	12.44
558.674	12.51
558.87	12.43
559.066	12.57
559.262	12.57
559.459	12.59
559.655	12.88
559.851	12.99
560.047	13.01
560.243	13.14
560.439	13.19
560.635	13.11
560.831	13.13
561.027	13.28
561.223	13.33
561.419	13.4
561.615	13.53
561.811	13.43
562.007	13.54
562.203	13.58
562.399	13.63
562.595	13.8
562.791	14.07
562.987	14.19
563.183	14.27
563.379	14.29
563.575	14.34
563.771	14.41
563.966	14.53
564.162	14.61
564.358	14.67
564.554	14.67
564.75	14.61
564.945	14.52
565.141	14.5
565.337	14.49
565.533	14.54
565.728	14.51
565.924	14.43
566.12	14.48
566.315	14.46
566.511	14.47
566.707	14.53
566.902	14.62
567.098	14.71
567.293	14.75
567.489	14.82
567.684	14.9
567.88	14.97
568.076	15.12
568.271	15.16
568.467	15.18
568.662	15.26
568.858	15.26
569.053	15.24
569.248	15.3
569.444	15.26
569.639	15.32
569.835	15.38
570.03	15.43
570.225	15.41
570.421	15.42
570.616	15.41
570.812	15.48
571.007	15.52
571.202	15.64
571.397	15.63
571.593	15.72
571.788	15.71
571.983	15.64
572.178	15.7
572.374	15.86
572.569	15.89
572.764	16.04
572.959	16.03
573.154	16.12
573.35	16.07
573.545	16.17
573.74	16.12
573.935	16.14
574.13	16.22
574.325	16.19
574.52	16.14
574.715	16.07
574.91	15.99
575.105	16.01
575.3	16.05
575.495	16.1
575.69	16.09
575.885	16.25
576.08	16.35
576.275	16.36
576.47	16.5
576.665	16.67
576.86	16.91
577.055	16.92
577.25	17.01
577.444	17.1
577.639	17.32
577.834	17.36
578.029	17.38
578.224	17.43
578.418	17.7
578.613	17.79
578.808	17.69
579.003	17.68
579.197	17.79
579.392	17.8
579.587	17.81
579.781	17.83
579.976	17.82
580.171	17.83
580.365	17.8
580.56	17.7
580.755	17.6
580.949	17.66
581.144	17.66
581.338	17.53
581.533	17.58
581.727	17.54
581.922	17.35
582.116	17.37
582.311	17.51
582.505	17.58
582.7	17.64
582.894	17.77
583.089	17.75
583.283	17.82
583.478	18.06
583.672	18.13
583.866	18.22
584.061	18.29
584.255	18.24
584.449	18.2
584.644	18.3
584.838	18.25
585.032	18.18
585.226	18.2
585.421	18.21
585.615	18.24
585.809	18.2
586.003	18.24
586.198	18.27
586.392	18.47
586.586	18.43
586.78	18.32
586.974	18.37
587.168	18.4
587.363	18.38
587.557	18.26
587.751	18.18
587.945	18.29
588.139	18.23
588.333	18.31
588.527	18.24
588.721	18.35
588.915	18.33
589.109	18.35
589.303	18.35
589.497	18.34
589.691	18.56
589.885	18.6
590.079	18.65
590.273	18.67
590.466	18.73
590.66	18.76
590.854	18.65
591.048	18.68
591.242	18.62
591.436	18.56
591.629	18.63
591.823	18.56
592.017	18.56
592.211	18.47
592.404	18.48
592.598	18.43
592.792	18.33
592.986	18.28
593.179	18.37
593.373	18.51
593.567	18.71
593.76	18.73
593.954	18.71
594.147	18.65
594.341	18.68
594.535	18.82
594.728	18.74
594.922	18.95
595.115	18.99
595.309	18.95
595.502	18.93
595.696	18.86
595.889	18.88
596.083	18.9
596.276	19.07
596.47	19.1
596.663	18.96
596.856	19.04
597.05	19.05
597.243	19.27
597.437	19.3
597.63	19.17
597.823	19.3
598.017	19.44
598.21	19.41
598.403	19.43
598.596	19.48
598.79	19.63
598.983	19.7
599.176	19.68
599.369	19.56
599.563	19.66
599.756	19.85
599.949	19.73
600.142	19.56
600.335	19.67
600.528	19.47
600.722	19.4
600.915	19.45
601.108	19.5
601.301	19.49
601.494	19.47
601.687	19.37
601.88	19.42
602.073	19.44
602.266	19.49
602.459	19.42
602.652	19.52
602.845	19.6
603.038	19.53
603.231	19.43
603.424	19.46
603.617	19.58
603.809	19.56
604.002	19.5
604.195	19.46
604.388	19.69
604.581	19.71
604.774	19.74
604.966	19.64
605.159	19.63
605.352	19.66
605.545	19.54
605.737	19.47
605.93	19.59
606.123	19.6
606.316	19.69
606.508	19.48
606.701	19.59
606.894	19.39
607.086	19.66
607.279	19.64
607.471	19.81
607.664	19.89
607.857	19.96
608.049	19.88
608.242	19.91
608.434	19.84
608.627	19.78
608.819	19.71
609.012	19.88
609.204	19.75
609.397	19.81
609.589	19.66
609.782	19.76
609.974	19.68
610.166	19.79
610.359	19.9
610.551	19.99
610.743	19.97
610.936	20.16
611.128	20.15
611.32	20.15
611.513	20.18
611.705	20.23
611.897	20.12
612.09	20.25
612.282	20.28
612.474	20.19
612.666	20.31
612.858	20.39
613.051	20.3
613.243	20.37
613.435	20.43
613.627	20.49
613.819	20.59
614.011	20.82
614.203	20.82
614.395	20.67
614.588	20.52
614.78	20.3
614.972	20.32
615.164	20.18
615.356	20.06
615.548	19.9
615.74	19.86
615.932	19.79
616.124	19.41
616.315	19.39
616.507	19.39
616.699	19.64
616.891	19.64
617.083	19.75
617.275	19.98
617.467	20
617.659	20.3
617.85	20.38
618.042	20.43
618.234	20.66
618.426	20.54
618.618	20.71
618.809	20.69
619.001	20.64
619.193	20.62
619.384	20.39
619.576	20.49
619.768	20.16
619.959	20.04
620.151	20.12
620.343	20.09
620.534	20.07
620.726	20.18
620.917	20.22
621.109	20.46
621.301	20.35
621.492	20.47
621.684	20.29
621.875	20.5
622.067	20.4
622.258	20.17
622.45	20.17
622.641	20.28
622.832	20.13
623.024	19.98
623.215	19.98
623.407	19.95
623.598	20.12
623.789	20.31
623.981	20.28
624.172	20.54
624.363	20.78
624.555	20.69
624.746	20.58
624.937	20.59
625.129	20.56
625.32	20.4
625.511	20.56
625.702	20.48
625.893	20.32
626.085	20.27
626.276	20.27
626.467	20.2
626.658	20.24
626.849	20.44
627.04	20.39
627.231	20.46
627.422	20.54
627.614	20.28
627.805	20.25
627.996	20.28
628.187	20.37
628.378	20.22
628.569	20.35
628.76	20.46
628.951	20.36
629.142	20.49
629.332	20.45
629.523	20.52
629.714	20.68
629.905	20.62
630.096	20.71
630.287	20.69
630.478	20.85
630.669	20.63
630.859	20.65
631.05	20.54
631.241	20.45
631.432	20.48
631.623	20.6
631.813	20.67
632.004	20.7
632.195	20.8
632.385	20.69
632.576	20.7
632.767	20.7
632.957	20.73
633.148	20.94
633.339	21.06
633.529	21.16
633.72	20.96
633.91	20.83
634.101	20.74
634.292	20.65
634.482	20.65
634.673	20.55
634.863	20.62
635.054	20.47
635.244	20.36
635.435	20.29
635.625	20.13
635.815	20.25
636.006	20.32
636.196	20.3
636.387	20.37
636.577	20.52
636.767	20.47
636.958	20.53
637.148	20.49
637.338	20.28
637.529	20.28
637.719	20.46
637.909	20.46
638.099	20.69
638.29	20.83
638.48	20.71
638.67	20.6
638.86	20.74
639.05	20.6
639.241	20.79
639.431	21
639.621	20.86
639.811	20.87
640.001	20.88
640.191	20.62
640.381	20.51
640.571	20.61
640.761	20.61
640.951	20.51
641.141	20.46
641.331	20.16
641.521	20.11
641.711	20.38
641.901	20.32
642.091	20.25
642.281	20.25
642.471	20.23
642.661	20.26
642.851	20.47
643.041	20.61
643.231	20.88
643.42	21.14
643.61	21.34
643.8	21.13
643.99	21.41
644.18	21.44
644.369	21.46
644.559	21.64
644.749	21.59
644.939	21.5
645.128	21.55
645.318	21.4
645.508	21.46
645.697	21.38
645.887	21.45
646.076	21.08
646.266	20.96
646.456	21.21
646.645	21.35
646.835	21.37
647.024	21.35
647.214	21.29
647.403	21.44
647.593	21.35
647.782	21.39
647.972	21.51
648.161	21.51
648.351	21.74
648.54	21.62
648.73	21.52
648.919	21.45
649.108	21.48
649.298	21.57
649.487	21.29
649.677	21.31
649.866	21.16
650.055	20.98
650.244	21.1
650.434	21.19
650.623	21.17
650.812	21.12
651.002	21.15
651.191	21.2
651.38	21.08
651.569	21.45
651.758	21.41
651.947	21.55
652.137	21.8
652.326	21.76
652.515	21.53
652.704	21.55
652.893	21.59
653.082	21.68
653.271	21.43
653.46	21.36
653.649	20.97
653.838	21.1
654.027	21.08
654.216	20.74
654.405	20.73
654.594	20.84
654.783	20.77
654.972	20.78
655.161	20.69
655.35	20.94
655.539	21.37
655.728	21.55
655.916	21.58
656.105	21.41
656.294	21.6
656.483	21.85
656.672	21.88
656.86	22.05
657.049	22.16
657.238	22.19
657.427	22.06
657.615	21.78
657.804	21.72
657.993	21.61
658.181	21.72
658.37	21.62
658.559	21.35
658.747	21.51
658.936	21.34
659.125	21.52
659.313	21.37
659.502	21.55
659.69	21.57
659.879	21.58
660.067	21.55
660.256	21.39
660.444	21.52
660.633	21.74
660.821	21.54
661.01	21.6
661.198	21.26
661.387	21.42
661.575	21.11
661.763	21.19
661.952	21.22
662.14	21.52
662.328	21.46
662.517	21.39
662.705	21.44
662.893	21.23
663.082	21.4
663.27	21.33
663.458	21.42
663.646	21.79
663.834	21.78
664.023	21.77
664.211	21.62
664.399	22.01
664.587	22.2
664.775	22.12
664.963	22.57
665.152	22.36
665.34	22.42
665.528	22.33
665.716	22.14
665.904	22.02
666.092	22.08
666.28	22.2
666.468	22.05
666.656	21.78
666.844	21.89
667.032	21.84
667.22	22.19
667.408	22.29
667.596	22.45
667.784	22.49
667.971	22.69
668.159	22.77
668.347	22.37
668.535	22.26
668.723	22.42
668.911	22.38
669.098	22.07
669.286	21.75
669.474	21.68
669.662	21.81
669.849	21.8
670.037	21.48
670.225	21.41
670.413	21.73
670.6	21.92
670.788	22.06
670.976	21.98
671.163	22.11
671.351	22.12
671.538	22.22
671.726	22.13
671.913	22.12
672.101	22.46
672.289	22.29
672.476	22.21
672.664	22.33
672.851	22.2
673.039	22
673.226	22.01
673.413	22.16
673.601	22.03
673.788	22.15
673.976	22.18
674.163	22.09
674.35	22.33
674.538	22.44
674.725	22.51
674.912	22.49
675.1	22.51
675.287	22.57
675.474	22.35
675.662	22.3
675.849	22.21
676.036	22.31
676.223	22.18
676.411	22.17
676.598	22.03
676.785	22.24
676.972	22.21
677.159	22.33
677.346	22.28
677.533	22.59
677.721	22.68
677.908	22.36
678.095	22.18
678.282	22.32
678.469	22.18
678.656	22.19
678.843	21.92
679.03	21.88
679.217	21.89
679.404	21.91
679.591	21.66
679.778	21.78
679.964	21.9
680.151	21.82
680.338	21.59
680.525	21.77
680.712	21.76
680.899	21.56
681.086	21.76
681.272	21.81
681.459	21.65
681.646	21.51
681.833	21.49
682.02	21.46
682.206	22.01
682.393	22.55
682.58	22.39
682.766	22.3
682.953	22.4
683.14	22.41
683.326	22.72
683.513	22.92
683.7	23.01
683.886	22.96
684.073	23.15
684.259	22.51
684.446	22.03
684.632	22.04
684.819	22.28
685.005	22.34
685.192	22.06
685.378	21.48
685.565	21.35
685.751	21.4
685.938	21.49
686.124	21.41
686.31	21.57
686.497	22.01
686.683	22.1
686.87	21.88
687.056	21.77
687.242	21.71
687.429	22.29
687.615	22.41
687.801	22.58
687.987	22.16
688.174	22.31
688.36	22.17
688.546	22.07
688.732	22.15
688.918	22.37
689.105	22.38
689.291	22.59
689.477	22.19
689.663	22.1
689.849	21.88
690.035	22.38
690.221	22.35
690.407	22.79
690.593	22.37
690.779	22.35
690.965	22.36
691.151	22.39
691.337	22.55
691.523	22.78
691.709	22.86
691.895	23.11
692.081	23.05
692.267	22.94
692.453	22.83
692.639	23.06
692.825	23.04
693.011	23.04
693.196	23.27
693.382	22.67
693.568	22.33
693.754	22.5
693.94	22.65
694.125	22.48
694.311	22.79
694.497	22.31
694.682	22.51
694.868	22.32
695.054	22.27
695.239	22.16
695.425	22.6
695.611	22.92
695.796	22.79
695.982	22.46
696.168	22.55
696.353	22.28
696.539	22.83
696.724	22.53
696.91	22.62
697.095	22.77
697.281	22.62
697.466	22.64
697.652	22.69
697.837	22.69
698.023	22.87
698.208	22.67
698.393	22.73
698.579	22.53
698.764	22.53
698.949	22.29
699.135	22.19
699.32	22.37
699.505	22.27
699.691	21.92
699.876	21.77
700.061	21.76
700.246	21.83
700.432	21.91
700.617	21.88
700.802	21.85
700.987	22.28
701.172	21.81
701.358	21.58
701.543	21.88
701.728	21.88
701.913	21.78
702.098	21.56
702.283	21.69
702.468	21.85
702.653	21.92
702.838	22.36
703.023	22.31
703.208	22.54
703.393	22.82
703.578	22.64
703.763	23.08
703.948	23.43
704.133	23.46
704.318	23.21
704.503	22.76
704.688	22.89
704.873	22.66
705.057	22.65
705.242	22.99
705.427	22.84
705.612	22.85
705.797	22.83
705.981	23
706.166	23.11
706.351	23.43
706.536	23.3
706.72	23.48
706.905	23.39
707.09	23.47
707.274	23.26
707.459	23.36
707.644	23.16
707.828	22.97
708.013	23.25
708.197	22.97
708.382	22.95
708.567	23.54
708.751	22.86
708.936	22.93
709.12	23.02
709.305	23.12
709.489	22.85
709.673	23.1
709.858	22.93
710.042	22.57
710.227	22.67
710.411	22.58
710.596	22.26
710.78	22.42
710.964	22.64
711.149	22.51
711.333	22.61
711.517	22.79
711.702	22.74
711.886	22.95
712.07	22.98
712.254	23.34
712.438	23.33
712.623	23.25
712.807	23.36
712.991	22.85
713.175	22.95
713.359	22.99
713.544	23.1
713.728	22.91
713.912	22.99
714.096	22.81
714.28	22.4
714.464	22.59
714.648	22.82
714.832	22.79
715.016	23
715.2	22.83
715.384	22.64
715.568	22.53
715.752	22.55
715.936	22.47
716.12	22.53
716.304	23.2
716.488	22.88
716.671	22.49
716.855	22.73
717.039	22.96
717.223	22.84
717.407	22.87
717.59	23.11
717.774	23.53
717.958	23.61
718.142	23.65
718.325	23.62
718.509	23.74
718.693	23.97
718.877	23.82
719.06	23.68
719.244	23.89
719.428	23.89
719.611	23.56
719.795	23.16
719.978	22.86
720.162	22.92
720.345	22.73
720.529	23.06
720.713	23.28
720.896	23.07
721.08	22.9
721.263	22.98
721.446	23.26
721.63	23.39
721.813	23.55
721.997	23.56
722.18	23.56
722.364	23.13
722.547	23.02
722.73	22.64
722.914	23.36
723.097	23.62
723.28	23.56
723.464	23.21
723.647	23.64
723.83	23.67
724.013	23.7
724.197	24.06
724.38	24.26
724.563	24.4
724.746	24.81
724.929	24
725.112	24.13
725.296	24.29
725.479	24.83
725.662	24.76
725.845	24.86
726.028	24.79
726.211	24.46
726.394	24.58
726.577	24.23
726.76	23.5
726.943	24.07
727.126	23.65
727.309	23.28
727.492	23.13
727.675	22.78
727.858	22.42
728.041	22.81
728.224	23.05
728.407	22.67
728.589	22.61
728.772	23.52
728.955	23.19
729.138	23.61
729.321	23.98
729.503	23.68
729.686	23.81
729.869	24.07
730.052	24.03
730.234	23.44
730.417	23.46
730.6	23.35
730.782	23.04
730.965	23.37
731.148	23.3
731.33	23.21
731.513	23.3
731.695	23.43
731.878	23.4
732.061	23.21
732.243	23.42
732.426	23.83
732.608	24.37
732.791	24.09
732.973	24.09
733.156	23.9
733.338	23.76
733.52	24.06
733.703	24.07
733.885	24.15
734.068	24.3
734.25	24.25
734.432	24.42
734.615	24.39
734.797	24.41
734.979	23.87
735.162	24.09
735.344	24.05
735.526	23.74
735.708	23.55
735.891	23.69
736.073	23.33
736.255	23.05
736.437	22.65
736.619	21.93
736.802	21.74
736.984	22.44
737.166	22.2
737.348	22.57
737.53	22.77
737.712	22.45
737.894	22.39
738.076	22.62
738.258	23.05
738.44	23.31
738.622	23.71
738.804	24.35
738.986	24.18
739.168	24.06
739.35	24.09
739.532	23.94
739.714	24.5
739.896	24.36
740.078	24.79
740.259	24.66
740.441	24.36
740.623	24.41
740.805	24.25
740.987	23.88
741.168	24.03
741.35	24.43
741.532	24.35
741.714	24.12
741.895	23.73
742.077	23.6
742.259	23.55
742.44	23.28
742.622	22.98
742.804	22.93
742.985	22.91
743.167	22.5
743.348	21.96
743.53	21.64
743.711	21.53
743.893	21.88
744.075	21.19
744.256	21.65
744.438	22.26
744.619	22.26
744.8	22.17
744.982	22.02
745.163	22.45
745.345	22.51
745.526	23.12
745.707	23.61
745.889	23.65
746.07	24.48
746.252	23.85
746.433	23.52
746.614	23.63
746.795	23.39
746.977	23.96
747.158	23.61
747.339	24.1
747.52	23.63
747.702	23.15
747.883	23.81
748.064	23.5
748.245	23.94
748.426	23.56
748.607	23.64
748.788	24.04
748.97	24.2
749.151	24.52
749.332	23.94
749.513	24.21
749.694	24.58
749.875	23.72
750.056	23.43
750.237	24.19
750.418	24.78
750.599	24.76
750.78	24.89
750.96	24.72
751.141	24.95
751.322	24.33
751.503	24.57
751.684	24.56
751.865	24.84
752.046	25.09
752.226	24.46
752.407	24.45
752.588	24.63
752.769	24.06
752.949	23.9
753.13	24.17
753.311	24.47
753.492	24.14
753.672	23.55
753.853	23.46
754.034	23.9
754.214	24.02
754.395	23.5
754.575	23.8
754.756	23.32
754.937	23.49
755.117	22.41
755.298	23.14
755.478	23.46
755.659	24.26
755.839	24.02
756.02	24
756.2	23.73
756.381	23.51
756.561	23.02
756.741	23.62
756.922	23.1
757.102	23.77
757.283	23.58
757.463	23.18
757.643	22.5
757.823	22.5
758.004	22.19
758.184	22.29
758.364	23.24
758.545	23.69
758.725	24.08
758.905	23.95
759.085	24.5
759.265	23.84
759.446	23.88
759.626	23.84
759.806	24.2
759.986	24.33
760.166	24.65
760.346	24.07
760.526	23.45
760.706	23.59
760.886	23.77
761.066	22.83
761.246	23.39
761.426	23.59
761.606	23.67
761.786	23.32
761.966	23.16
762.146	22.67
762.326	22.74
762.506	22.93
762.686	22.77
762.866	23.17
763.046	23.59
763.225	23.19
763.405	22.81
763.585	22.85
763.765	22.9
763.945	22.83
764.124	23.03
764.304	23.3
764.484	23.46
764.664	22.99
764.843	22.54
765.023	22.45
765.203	23.17
765.382	23.39
765.562	23.67
765.741	23.61
765.921	23.9
766.101	23.75
766.28	23.45
766.46	23.44
766.639	23.98
766.819	24.23
766.998	23.81
767.178	23.32
767.357	23.73
767.537	23.11
767.716	23.15
767.896	22.78
768.075	22.62
768.254	22.33
768.434	21.94
768.613	21.61
768.792	21.75
768.972	22.26
769.151	22.81
769.33	22.46
769.51	23.03
769.689	23.56
769.868	23.62
770.047	24.3
770.226	24.58
770.406	24.68
770.585	25.3
770.764	25.04
770.943	25.69
771.122	24.94
771.301	24.93
771.48	24.8
771.66	24.11
771.839	23.56
772.018	22.9
772.197	23.65
772.376	23.59
772.555	23.4
772.734	23.22
772.913	22.35
773.092	22.81
773.271	22.98
773.449	23.04
773.628	23.1
773.807	23.54
773.986	23.45
774.165	22.95
774.344	23.79
774.523	23.99
774.701	24.28
774.88	24.56
775.059	24.47
775.238	24.61
775.417	24.97
775.595	25.64
775.774	25.83
775.953	25.99
776.131	25.4
776.31	24.4
776.489	23.98
776.667	23.28
776.846	23.1
777.025	22.51
777.203	21.57
777.382	21.87
777.56	21.25
777.739	20.83
777.917	20.82
778.096	22.47
778.274	22.48
778.453	22.06
778.631	23.02
778.81	22.67
778.988	23.31
779.166	24.18
779.345	23.69
779.523	24.17
779.702	24.14
779.88	23.89
780.058	22.87
780.237	23.32
780.415	24.07
780.593	24
780.771	24.31
780.95	24.47
781.128	24.32
781.306	24.42
781.484	24.31
781.662	24.15
781.841	25.3
782.019	25.25
782.197	24.53
782.375	24.56
782.553	24.7
782.731	24.54
782.909	24.21
783.087	24.22
783.265	23.4
783.443	23.01
783.621	24.06
783.799	23.45
783.977	22.86
784.155	23.54
784.333	23.35
784.511	23.25
784.689	23.19
784.867	23.1
785.045	23.13
785.223	23.95
785.4	24.23
785.578	24.31
785.756	24.46
785.934	25.02
786.112	25.22
786.289	24.46
786.467	23.91
786.645	24.29
786.823	25.11
787	25.74
787.178	24.54
787.356	24.5
787.533	23.68
787.711	23.28
787.889	23.06
788.066	23.07
788.244	24.58
788.421	24.2
788.599	23.5
788.776	22.26
788.954	21.26
789.131	22.12
789.309	21.57
789.486	22.44
789.664	22
789.841	22.88
790.019	23.03
790.196	22.25
790.373	23.47
790.551	24.79
790.728	25.38
790.906	25.58
791.083	25.64
791.26	27.38
791.437	26.74
791.615	26.87
791.792	25.48
791.969	26.02
792.146	26.25
792.324	25.28
792.501	25.03
792.678	24.66
792.855	25.43
793.032	25.44
793.209	25.07
793.387	25.59
793.564	25.63
793.741	25.86
793.918	24.73
794.095	24.78
794.272	25.05
794.449	24.92
794.626	25.77
794.803	26.08
794.98	25.72
795.157	24.96
795.334	24.29
795.511	25.69
795.688	26.46
795.864	26.24
796.041	26.17
796.218	26.95
796.395	26.62
796.572	26.59
796.749	25.52
796.925	25.95
797.102	26.51
797.279	26.5
797.456	25.33
797.632	25.02
797.809	26.14
797.986	26.07
798.162	25.83
798.339	26.03
798.516	25.54
798.692	25.72
798.869	26.21
799.046	26.14
799.222	27.18
799.399	28.49
799.575	28.74
799.752	27.75
799.928	27.75
800.105	27.39
800.281	27.3
800.458	28.77
800.634	28.82
800.811	28.9
800.987	29.37
801.163	28.26
801.34	27.75
801.516	28.03
801.692	29.28
801.869	29.85
802.045	29.15
802.221	29.38
802.398	28.4
802.574	29.41
802.75	29.07
802.926	29.51
803.103	30.01
803.279	28.89
803.455	29.07
803.631	29.22
803.807	29.39
803.983	30.8
804.16	30.32
804.336	30.69
804.512	30.83
804.688	30.4
804.864	30.05
805.04	29.74
805.216	30.53
805.392	30.36
805.568	30.09
805.744	29.03
805.92	29.53
806.096	29.99
806.272	29.4
806.448	29.68
806.623	29.23
806.799	28.75
806.975	28.99
807.151	29.34
807.327	29.08
807.503	27.83
807.678	27.74
807.854	27.31
808.03	27.57
808.206	26.58
808.381	26.7
808.557	26.68
808.733	26.15
808.908	25.72
809.084	26.12
809.26	26.15
809.435	27.67
809.611	27.83
809.787	26.69
809.962	26.19
810.138	27.27
810.313	25.36
810.489	26.65
810.664	27.53
810.84	28.2
811.015	28.41
811.191	29.93
811.366	30.17
811.542	29.95
811.717	30.37
811.892	31.68
812.068	31.75
812.243	32.92
812.419	32.83
812.594	31.75
812.769	31.26
812.944	31.08
813.12	29.38
813.295	29.22
813.47	29.26
813.645	29.54
813.821	28.47
813.996	28.21
814.171	28.19
814.346	27.57
814.521	27.21
814.697	27.59
814.872	26.43
815.047	26.26
815.222	24.8
815.397	25.4
815.572	25.1
815.747	24.74
815.922	25.8
816.097	25
816.272	26.29
816.447	28.28
816.622	29.73
816.797	30.77
816.972	29.43
817.147	30.48
817.322	29.95
817.496	30.14
817.671	31.09
817.846	30.51
818.021	31.25
818.196	29.9
818.371	27.95
818.545	26.77
818.72	25.98
818.895	27.13
819.069	27.19
819.244	26.86
819.419	26.72
819.594	25.31
819.768	23.97
819.943	23.49
820.117	23.4
820.292	24.25
820.467	23.9
820.641	23.91
820.816	23.57
820.99	23.03
821.165	23.39
821.339	23.1
821.514	23.43
821.688	23.87
821.863	23.75
822.037	23.82
822.212	23.49
822.386	23.51
822.56	23.32
822.735	23.38
822.909	23.4
823.084	23.23
823.258	23.18
823.432	23.12
823.606	22.92
823.781	22.83
823.955	22.72
824.129	22.73
824.303	22.79
824.478	22.77
824.652	22.58
824.826	22.78
825	22.87
825.174	23.28
825.348	23.11
825.523	23.3
825.697	23.8
825.871	23.78
826.045	23.86
826.219	23.8
826.393	24.06
826.567	25.19
826.741	25.43
826.915	25.41
827.089	25.61
827.263	25.74
827.437	25.83
827.611	25.85
827.784	26.06
827.958	26.08
828.132	26.09
828.306	26.47
828.48	25.64
828.654	25.77
828.827	25.65
829.001	25.48
829.175	25.8
829.349	26.09
829.522	26.03
829.696	26.25
829.87	27.06
830.044	28.54
830.217	28.57
830.391	28.79
830.565	28.26
830.738	29.21
830.912	28.94
831.085	28.21
831.259	28.09
831.432	28.33
831.606	27.86
831.779	27.3
831.953	25.97
832.126	25.8
832.3	24.88
832.473	25.55
832.647	25.37
832.82	25.7
832.994	26.19
833.167	26.07
833.34	25.62
833.514	25.67
833.687	25.24
833.86	25.07
834.034	25.44
834.207	25.79
834.38	25.17
834.553	25.01
834.727	24.54
834.9	24.11
835.073	24.32
835.246	23.75
835.419	24.11
835.593	24.5
835.766	25.03
835.939	25.86
836.112	26.05
836.285	26.31
836.458	26.55
836.631	27.19
836.804	28.89
836.977	28.62
837.15	29.25
837.323	29.03
837.496	28.61
837.669	27.87
837.842	26.01
838.015	27.9
838.188	28.55
838.361	27.74
838.533	26.8
838.706	26.27
838.879	26.02
839.052	26.85
839.225	27.61
839.398	28.3
839.57	30.25
839.743	30.86
839.916	29.07
840.088	29.9
840.261	31.19
840.434	33.48
840.607	32.2
840.779	33.58
840.952	34.08
841.124	32.74
841.297	32.64
841.47	31.98
841.642	30.13
841.815	30.83
841.987	30.99
842.16	30.85
842.332	29.68
842.505	31.4
842.677	29.56
842.85	29.42
843.022	31.92
843.194	33.41
843.367	34.35
843.539	37.7
843.712	38.15
843.884	36.43
844.056	37.89
844.229	37.35
844.401	38.67
844.573	37.59
844.745	36.66
844.918	37.09
845.09	35.96
845.262	34.64
845.434	32.63
845.606	32.96
845.779	34.64
845.951	33.6
846.123	33.07
846.295	32.1
846.467	36.87
846.639	36.39
846.811	35.55
846.983	33.97
847.155	35.36
847.327	34.19
847.499	36.61
847.671	38.08
847.843	36.09
848.015	38.29
848.187	38.18
848.359	32.06
848.531	32.86
848.703	30.62
848.875	32.22
849.047	31.79
849.218	33.88
849.39	29.24
849.562	24.83
849.734	27.73
849.905	26.55
850.077	30.01
850.249	30.03
850.421	33
850.592	33.44
850.764	35.43
850.936	36.96
851.107	38.44
851.279	42.66
851.451	47.39
851.622	50.29
851.794	49.28
851.965	46.01
852.137	48.51
852.308	47.38
852.48	48.58
852.651	48.74
852.823	47.02
852.994	44.31
853.166	39.35
853.337	40.59
853.509	40.07
853.68	45.25
853.851	46.39
854.023	43.83
854.194	45.04
854.365	45.45
854.537	45.35
854.708	48.31
854.879	50
855.05	51.7
855.222	44.91
855.393	46.33
855.564	42.37
855.735	39.76
855.906	46.84
856.078	43.63
856.249	42.27
856.42	41.82
856.591	40.31
856.762	39.55
856.933	41.68
857.104	42.13
857.275	40.33
857.446	40.57
857.617	41.81
857.788	35.47
857.959	39.96
858.13	39.49
858.301	39.4
858.472	32.51
858.643	36.36
858.814	38.25
858.985	39.47
859.155	34.55
859.326	37
859.497	35.96
859.668	35.21
859.839	33.95
860.009	32.92
860.18	32.05
860.351	34.78
860.522	30.48
860.692	24.87
860.863	23.89
861.034	28.78
861.204	24.99
861.375	27.05
861.546	30.56
861.716	29.97
861.887	32.4
862.057	31.4
862.228	25.77
862.398	26.86
862.569	34.11
862.739	40.36
862.91	35.31
863.08	38.22
863.251	39.95
863.421	41.12
863.592	42.45
863.762	39.44
863.932	39.64
864.103	45.14
864.273	44.55
864.443	39.58
864.614	35.57
864.784	36.22
864.954	34.74
865.125	33.68
865.295	31.39
865.465	33.15
865.635	35.76
865.805	37.7
865.976	40.63
866.146	40.11
866.316	44.73
866.486	46.23
866.656	45.25
866.826	50.31
866.996	48.27
867.166	50.29
867.336	46.67
867.506	45.21
867.676	41.9
867.846	35.94
868.016	39.47
868.186	39.09
868.356	36.21
868.526	37.47
868.696	32.34
868.866	34.18
869.036	34.63
869.206	30.9
869.376	33.97
869.545	33.08
869.715	37.61
869.885	30.24
870.055	31.1
870.224	37.67
870.394	42.23
870.564	50.26
870.734	50.76
870.903	45
871.073	46.4
871.243	45.48
871.412	50.2
871.582	51.71
871.751	56.76
871.921	57.04
872.091	53.03
872.26	49.61
872.43	42.39
872.599	40.54
872.769	42.84
872.938	46.91
873.108	46.51
873.277	44.92
873.446	44.44
873.616	44.12
873.785	41.55
873.955	39.75
874.124	36.42
874.293	37.33
874.463	35.71
874.632	35.99
874.801	36.74
874.971	36.12
875.14	37.04
875.309	33.83
875.478	35.14
875.647	37.07
875.817	37.7
875.986	40.2
876.155	39.54
876.324	36.35
876.493	37.72
876.662	35.62
876.831	35.26
877	35.76
877.17	40.27
877.339	38.29
877.508	33.68
877.677	34.07
877.846	31.33
878.015	32.26
878.184	33.56
878.352	34.46
878.521	34.79
878.69	36.05
878.859	35.07
879.028	34.29
879.197	32.88
879.366	33.65
879.534	33.45
879.703	33.37
879.872	30.7
880.041	31.89
880.21	29.59
880.378	28.93
880.547	26.24
880.716	25.67
880.884	26.02
881.053	25.42
881.222	25.96
881.39	24.89
881.559	26.08
881.727	25.53
881.896	25.1
882.065	25.45
882.233	25.21
882.402	25.27
882.57	25.01
882.739	24.88
882.907	25.53
883.076	24.68
883.244	24.44
883.412	24
883.581	24.7
883.749	24.14
883.918	23.88
884.086	24.57
884.254	26.3
884.423	28.4
884.591	28.42
884.759	29.64
884.927	30.81
885.096	32.14
885.264	32.67
885.432	34.56
885.6	35.79
885.769	36.84
885.937	35.45
886.105	34.1
886.273	30.43
886.441	30.22
886.609	27.51
886.777	28.25
886.945	28.76
887.113	27.05
887.281	25.15
887.449	26.1
887.617	25.76
887.785	25.03
887.953	28.95
888.121	31.81
888.289	34.59
888.457	35.81
888.625	36.81
888.793	38.85
888.961	41.48
889.129	44.04
889.296	44.93
889.464	47.6
889.632	53.64
889.8	51.94
889.967	53.57
890.135	49.6
