Data from 2938555_Reflection_3.txt Node
Date: Sun Jun 14 23:46:41 EDT 2015
User: robert
Spectrometer: USB4E03002
Autoset integration time: false
Trigger mode: 4
Integration Time (sec): 1.000000E-1
Scans to average: 10
Electric dark correction enabled: true
Nonlinearity correction enabled: false
Boxcar width: 5
Stray light correction enabled: false
XAxis mode: Wavelengths
Stop averaging: false
Number of Pixels in Spectrum: 3648
>>>>>Begin Spectral Data<<<<<
177.575	322.66
177.794	-288.13
178.014	335.95
178.233	-128.96
178.452	-21.35
178.672	26.74
178.891	22.32
179.11	203.97
179.33	105.31
179.549	137.34
179.768	140.36
179.987	147.05
180.207	115.64
180.426	110.11
180.645	180.65
180.864	203.68
181.084	113.73
181.303	117.01
181.522	125.75
181.741	142.97
181.96	162.24
182.179	195.78
182.398	150.46
182.618	614.97
182.837	240.74
183.056	121.45
183.275	141.24
183.494	145.65
183.713	172.79
183.932	158.76
184.151	229.11
184.37	256.28
184.589	468.03
184.808	673.41
185.027	345.05
185.246	-682.05
185.465	-509.81
185.684	-728.58
185.903	-407.96
186.122	1543.23
186.341	532.6
186.56	316.95
186.779	415.4
186.998	224.81
187.216	172.33
187.435	255.89
187.654	216.12
187.873	242.54
188.092	318.15
188.311	739.09
188.53	865.38
188.748	-1232.58
188.967	-738.17
189.186	-3050.35
189.405	-3422.68
189.623	-2183.57
189.842	-13812.7
190.061	-2537.91
190.28	-3411.53
190.498	569.11
190.717	286.87
190.936	386.36
191.154	279.09
191.373	283.69
191.592	361.3
191.81	301.75
192.029	599.95
192.248	512.16
192.466	652.57
192.685	337.79
192.904	716.89
193.122	-1523.64
193.341	9936.59
193.559	-496.26
193.778	653.47
193.996	201.63
194.215	120.48
194.433	221.74
194.652	269.54
194.87	134.64
195.089	124.66
195.307	102.13
195.526	73.04
195.744	28.86
195.963	53.42
196.181	66.38
196.399	77.51
196.618	116.62
196.836	41.62
197.055	27.26
197.273	98.73
197.491	322.64
197.71	242.87
197.928	157.48
198.146	251.98
198.365	295.91
198.583	367.2
198.801	480.73
199.019	392.76
199.238	1113.19
199.456	359.5
199.674	365.07
199.892	278.3
200.111	278.73
200.329	673.18
200.547	426.66
200.765	312.65
200.983	236.72
201.202	220.02
201.42	224.47
201.638	246.7
201.856	362.4
202.074	282.3
202.292	212
202.51	246
202.728	192.49
202.946	312.48
203.165	311.96
203.383	408.29
203.601	2012.05
203.819	-315.11
204.037	-3123.81
204.255	-433.06
204.473	-219.02
204.691	-118.96
204.909	-227.28
205.127	-324.41
205.345	-479.02
205.562	-402.31
205.78	-1046.86
205.998	1582.25
206.216	-11845.98
206.434	-12951.72
206.652	-1008.59
206.87	-1150.47
207.088	8302.48
207.306	-8603
207.523	-332.76
207.741	-101.23
207.959	-113.69
208.177	-85.89
208.395	-122.38
208.612	-164.74
208.83	-138.44
209.048	-133.31
209.266	-107.87
209.483	-97.36
209.701	-95.99
209.919	-108.68
210.136	-153
210.354	-126.04
210.572	-241.55
210.79	-240.34
211.007	-420.06
211.225	-2197.53
211.442	427.18
211.66	244.55
211.878	244.45
212.095	-102.44
212.313	-129.73
212.53	-119.37
212.748	-132.55
212.966	-94.85
213.183	-71.84
213.401	-72.18
213.618	-69.64
213.836	-56.52
214.053	-54.15
214.271	-51.36
214.488	-213.68
214.705	-125.22
214.923	-139.84
215.14	-86.84
215.358	-114
215.575	-131.1
215.793	-96.44
216.01	-182.29
216.227	-219.66
216.445	-199.76
216.662	-201.62
216.879	-90.81
217.097	-197.71
217.314	-141.82
217.531	-143.82
217.749	-158.33
217.966	-162.9
218.183	-291.4
218.4	-106.33
218.618	-129.2
218.835	-138.41
219.052	-133.85
219.269	-119.56
219.487	-127.22
219.704	-136.32
219.921	-146.98
220.138	-97.65
220.355	-111.5
220.572	-108.99
220.79	-126.09
221.007	-88.79
221.224	-81.87
221.441	-81.68
221.658	-86.37
221.875	-75.72
222.092	-73.19
222.309	-70.78
222.526	-93.5
222.743	-65.83
222.96	-59.11
223.177	-50.51
223.394	-53.68
223.611	-45.44
223.828	-44.12
224.045	-43.9
224.262	-42.24
224.479	-29.24
224.696	-22.92
224.913	-16.74
225.13	-15.37
225.347	-12.16
225.564	-9.43
225.781	-6.6
225.997	-3.66
226.214	0.72
226.431	0.22
226.648	1.22
226.865	1.07
227.082	1.31
227.298	0.65
227.515	1.34
227.732	2.79
227.949	2.25
228.165	2.31
228.382	1.42
228.599	0.09
228.816	2.55
229.032	2.28
229.249	1.59
229.466	2.02
229.682	3.47
229.899	2.14
230.116	0.6
230.332	0.19
230.549	-0.42
230.765	-3.37
230.982	-5.99
231.199	-6.72
231.415	-7.06
231.632	-5.98
231.848	-6.15
232.065	-7.71
232.281	-7.6
232.498	-4.16
232.714	-3.59
232.931	-2.66
233.147	1.93
233.364	6.42
233.58	4.22
233.797	5.24
234.013	3.49
234.23	3.54
234.446	3.15
234.662	3.92
234.879	1.92
235.095	2.51
235.312	1.14
235.528	-0.7
235.744	-3.36
235.961	-1.22
236.177	0.02
236.393	0.16
236.61	-2.57
236.826	-2.83
237.042	-5.08
237.258	-4.92
237.475	-5.53
237.691	-4.01
237.907	-3.64
238.123	-2.49
238.339	-1.74
238.556	-3.34
238.772	-3.64
238.988	-1.55
239.204	0.44
239.42	1.63
239.636	2.31
239.853	2.34
240.069	2.16
240.285	2.97
240.501	3.74
240.717	3.12
240.933	3.33
241.149	4.11
241.365	4.61
241.581	4.15
241.797	4.86
242.013	4.43
242.229	4.2
242.445	4.16
242.661	4.21
242.877	4
243.093	4.08
243.309	4.3
243.525	4.03
243.741	2.55
243.957	2.5
244.173	2.53
244.388	3.1
244.604	3.82
244.82	4.12
245.036	3.76
245.252	3.48
245.468	3.84
245.683	3.84
245.899	3.85
246.115	4.52
246.331	4.4
246.547	4.06
246.762	4.01
246.978	3.81
247.194	4.13
247.409	4.3
247.625	4.31
247.841	3.71
248.057	3.29
248.272	3.49
248.488	2.81
248.703	2.95
248.919	2.95
249.135	2.72
249.35	2.75
249.566	1.09
249.782	0.8
249.997	0.66
250.213	1
250.428	1.63
250.644	1.63
250.859	1.6
251.075	1.35
251.29	1.74
251.506	1.7
251.721	0.52
251.937	1.44
252.152	1.84
252.368	2.07
252.583	2.2
252.798	0.69
253.014	0.66
253.229	0.15
253.445	0.13
253.66	0.11
253.875	-1.53
254.091	-0.92
254.306	-0.8
254.521	-1.85
254.737	-1.97
254.952	-2.26
255.167	-1.11
255.383	-0.67
255.598	0.31
255.813	0.99
256.028	0.6
256.244	1.84
256.459	2.44
256.674	2.31
256.889	3.01
257.104	3.24
257.32	3.51
257.535	3.64
257.75	3.29
257.965	2.99
258.18	2.48
258.395	2.36
258.61	2.39
258.826	2.24
259.041	1.82
259.256	1.71
259.471	1.46
259.686	1.28
259.901	1.54
260.116	0.98
260.331	1.22
260.546	2.15
260.761	2.76
260.976	2.71
261.191	2.92
261.406	3.27
261.621	3.02
261.836	3.18
262.05	3.75
262.265	2.9
262.48	3.66
262.695	3.67
262.91	2.45
263.125	1.02
263.34	0.67
263.555	-0.16
263.769	0.44
263.984	0.67
264.199	0.67
264.414	0.67
264.629	1.09
264.843	1.4
265.058	1.23
265.273	1.1
265.488	1.22
265.702	1.06
265.917	1.46
266.132	0.92
266.346	1.01
266.561	0.66
266.776	0.15
266.99	-0.24
267.205	-0.42
267.42	-0.27
267.634	-0.01
267.849	0.26
268.063	0.52
268.278	1.02
268.492	1.18
268.707	0.56
268.922	1.18
269.136	1.02
269.351	1.27
269.565	1.44
269.78	1.58
269.994	1.46
270.209	1.34
270.423	1.59
270.637	1.14
270.852	1.3
271.066	1.6
271.281	1.25
271.495	1.51
271.709	1.38
271.924	0.93
272.138	0.15
272.353	-0.12
272.567	0.19
272.781	-0.45
272.996	-0.13
273.21	-0.09
273.424	-0.49
273.638	-0.56
273.853	-0.81
274.067	-0.58
274.281	0.2
274.495	0.22
274.71	0.83
274.924	0.42
275.138	0.7
275.352	0.36
275.566	0.07
275.781	0.37
275.995	0.91
276.209	1.21
276.423	1.21
276.637	0.7
276.851	1.18
277.065	1.82
277.279	2.54
277.493	3.01
277.707	2.48
277.921	2.6
278.135	2.21
278.349	1.87
278.563	1.49
278.777	1.31
278.991	1.91
279.205	1.54
279.419	1.15
279.633	0.63
279.847	0.63
280.061	1.24
280.275	1.53
280.489	2.03
280.703	2.08
280.917	2.11
281.131	2.22
281.344	1.87
281.558	2.57
281.772	2.48
281.986	2.76
282.2	2.19
282.414	2.22
282.627	1.59
282.841	1.7
283.055	1.56
283.269	1.71
283.482	1.71
283.696	1.54
283.91	1.12
284.123	0.94
284.337	0.73
284.551	0.99
284.764	1.32
284.978	1.67
285.192	1.5
285.405	1.42
285.619	1.55
285.833	1.57
286.046	1.67
286.26	1.71
286.473	1.74
286.687	1.79
286.9	1.83
287.114	1.45
287.327	1.24
287.541	0.89
287.754	1.4
287.968	0.8
288.181	0.99
288.395	1.35
288.608	1.05
288.822	1
289.035	1.07
289.248	0.71
289.462	0.73
289.675	0.75
289.889	1
290.102	0.73
290.315	1.12
290.529	0.77
290.742	0.09
290.955	0.46
291.169	0.73
291.382	1.06
291.595	1.39
291.808	1.3
292.022	1.28
292.235	1.18
292.448	1.24
292.661	1.19
292.875	1.5
293.088	1.99
293.301	2.02
293.514	1.94
293.727	1.9
293.94	1.86
294.153	2.11
294.367	2.31
294.58	2.69
294.793	2.33
295.006	2.42
295.219	2.49
295.432	2.24
295.645	2.32
295.858	2.28
296.071	2.17
296.284	2.35
296.497	2.24
296.71	2.44
296.923	2.01
297.136	2.5
297.349	2.22
297.562	2.16
297.775	2.45
297.988	2.42
298.201	2.4
298.414	2.38
298.626	2.23
298.839	2.5
299.052	1.99
299.265	2.62
299.478	2.3
299.691	3.01
299.903	2.66
300.116	2.42
300.329	2.4
300.542	2.24
300.755	1.95
300.967	1.98
301.18	1.78
301.393	2.03
301.605	1.54
301.818	1.85
302.031	1.3
302.243	1.51
302.456	1.54
302.669	1.64
302.881	1.96
303.094	2.39
303.307	2.3
303.519	2.37
303.732	2.51
303.944	2.53
304.157	2.26
304.37	2.4
304.582	2.35
304.795	2.3
305.007	2.2
305.22	2.09
305.432	2.12
305.645	2.65
305.857	2.54
306.069	1.91
306.282	2.03
306.494	1.76
306.707	1.65
306.919	1.73
307.132	1.75
307.344	1.86
307.556	2
307.769	1.69
307.981	1.19
308.193	1.1
308.406	1.52
308.618	1.41
308.83	1.75
309.043	1.88
309.255	1.86
309.467	1.85
309.679	1.6
309.892	1.8
310.104	1.83
310.316	1.85
310.528	1.63
310.74	1.67
310.953	1.91
311.165	1.85
311.377	1.56
311.589	2.09
311.801	2.45
312.013	2.59
312.225	2.38
312.437	2.42
312.649	3.11
312.862	3.48
313.074	3.52
313.286	3.52
313.498	3.04
313.71	3.12
313.922	2.15
314.134	1.99
314.346	1.6
314.558	1.66
314.77	1.51
314.982	1.09
315.193	1.12
315.405	0.92
315.617	0.59
315.829	1.09
316.041	0.98
316.253	1.22
316.465	0.93
316.677	1.47
316.888	1.1
317.1	1.34
317.312	0.92
317.524	0.7
317.736	0.42
317.947	0.69
318.159	0.26
318.371	0.52
318.583	0.65
318.794	0.52
319.006	0.44
319.218	0.73
319.43	0.94
319.641	0.84
319.853	1
320.064	1.83
320.276	1.69
320.488	2.33
320.699	2.59
320.911	2.58
321.123	2.18
321.334	2.18
321.546	2.42
321.757	2.31
321.969	2.44
322.18	2.48
322.392	2.09
322.603	2
322.815	1.77
323.026	1.28
323.238	1.57
323.449	1.7
323.661	1.95
323.872	1.28
324.083	1.22
324.295	1.16
324.506	1.08
324.718	1.1
324.929	1.01
325.14	0.93
325.352	1.41
325.563	0.86
325.774	1.23
325.986	0.87
326.197	1.41
326.408	1.87
326.62	2.38
326.831	2.5
327.042	2.51
327.253	3.06
327.464	3.25
327.676	2.79
327.887	2.9
328.098	2.92
328.309	3.27
328.52	3.23
328.732	2.73
328.943	2.53
329.154	2.39
329.365	2.56
329.576	2.23
329.787	1.76
329.998	1.84
330.209	1.79
330.42	1.9
330.631	1.83
330.842	1.46
331.053	1.18
331.264	0.97
331.475	0.87
331.686	0.62
331.897	0.42
332.108	0.67
332.319	1.29
332.53	1.06
332.741	1.25
332.952	1.38
333.163	1.63
333.374	2
333.585	2
333.795	2.09
334.006	2.33
334.217	2.66
334.428	3.02
334.639	2.57
334.849	3.02
335.06	2.38
335.271	2.09
335.482	2.17
335.692	1.95
335.903	1.73
336.114	1.61
336.325	1.2
336.535	1.06
336.746	0.65
336.957	0.68
337.167	0.69
337.378	1.18
337.589	1.23
337.799	1.23
338.01	1.43
338.22	1.8
338.431	1.9
338.642	1.86
338.852	1.85
339.063	1.9
339.273	1.88
339.484	1.66
339.694	1.43
339.905	1.39
340.115	1.22
340.326	1.09
340.536	0.84
340.746	0.87
340.957	1.45
341.167	1.28
341.378	1.53
341.588	1.72
341.799	1.71
342.009	1.97
342.219	2.05
342.43	2.28
342.64	1.99
342.85	2
343.061	2.13
343.271	1.66
343.481	1.9
343.691	2.02
343.902	1.99
344.112	1.72
344.322	1.66
344.532	1.32
344.743	1.35
344.953	1.59
345.163	1.83
345.373	1.46
345.583	1.66
345.793	1.6
346.004	1.17
346.214	1.23
346.424	1.99
346.634	1.61
346.844	1.72
347.054	1.46
347.264	1.6
347.474	1.81
347.684	2.56
347.894	2.33
348.104	1.9
348.314	1.87
348.524	1.56
348.734	1.39
348.944	2
349.154	2.47
349.364	2.51
349.574	2.21
349.784	1.9
349.994	1.7
350.204	2.22
350.413	2.52
350.623	2.9
350.833	3.01
351.043	2.99
351.253	2.96
351.463	2.36
351.672	2.7
351.882	2.95
352.092	3.38
352.302	2.92
352.511	2.4
352.721	2.56
352.931	2.46
353.141	2.61
353.35	2.66
353.56	2.53
353.77	2.9
353.979	2.49
354.189	2.42
354.399	2.13
354.608	2.24
354.818	2.08
355.027	2.24
355.237	2.2
355.447	2.31
355.656	2.31
355.866	2.28
356.075	2.2
356.285	2.57
356.494	2.69
356.704	2.73
356.913	2.92
357.123	3.12
357.332	3.14
357.542	3.02
357.751	2.73
357.96	2.48
358.17	2.42
358.379	2.44
358.589	2.32
358.798	2.31
359.007	2.25
359.217	2.27
359.426	2.38
359.635	2.35
359.845	2.49
360.054	2.48
360.263	2.58
360.472	2.55
360.682	2.75
360.891	2.54
361.1	2.52
361.309	2.56
361.519	2.5
361.728	2.29
361.937	2.25
362.146	2.2
362.355	2.25
362.564	2.3
362.774	2.45
362.983	2.15
363.192	2.38
363.401	2.36
363.61	2.27
363.819	2.25
364.028	2.16
364.237	2.07
364.446	2.1
364.655	2.01
364.864	1.99
365.073	1.69
365.282	1.87
365.491	1.63
365.7	1.7
365.909	1.66
366.118	1.5
366.327	1.82
366.536	1.77
366.745	1.86
366.954	1.93
367.162	1.85
367.371	2.01
367.58	1.99
367.789	2.31
367.998	2.22
368.207	2.31
368.415	2.54
368.624	2.33
368.833	2.33
369.042	2.23
369.25	2.25
369.459	2.64
369.668	2.53
369.877	2.33
370.085	2.48
370.294	2.63
370.503	2.47
370.711	2.25
370.92	2.35
371.129	2.23
371.337	2.22
371.546	2.19
371.754	1.65
371.963	1.72
372.171	1.89
372.38	1.69
372.589	1.65
372.797	1.71
373.006	1.57
373.214	1.65
373.423	1.8
373.631	1.78
373.84	1.66
374.048	1.73
374.256	1.85
374.465	1.57
374.673	1.54
374.882	1.2
375.09	1.24
375.298	1.41
375.507	1.48
375.715	1.44
375.923	1.24
376.132	1.41
376.34	1.44
376.548	1.45
376.757	1.62
376.965	1.61
377.173	1.74
377.381	1.81
377.59	1.88
377.798	2
378.006	1.97
378.214	1.93
378.423	1.95
378.631	2.12
378.839	1.9
379.047	1.64
379.255	1.48
379.463	1.43
379.671	1.52
379.879	1.38
380.088	1.37
380.296	1.38
380.504	1.45
380.712	1.33
380.92	1.39
381.128	1.47
381.336	1.71
381.544	1.81
381.752	1.79
381.96	1.52
382.168	1.7
382.376	1.3
382.584	1.37
382.791	1.6
382.999	1.76
383.207	1.68
383.415	1.69
383.623	1.78
383.831	1.66
384.039	1.71
384.247	1.71
384.454	1.72
384.662	2.02
384.87	2.08
385.078	1.88
385.285	1.89
385.493	1.78
385.701	1.92
385.909	1.91
386.116	2.11
386.324	2.08
386.532	2.3
386.739	2.07
386.947	2
387.155	1.95
387.362	2.28
387.57	2.23
387.778	2.17
387.985	2
388.193	2.03
388.4	2.1
388.608	2.29
388.816	2.03
389.023	2.2
389.231	2.47
389.438	2.29
389.646	2.07
389.853	2.24
390.061	2.3
390.268	2.42
390.475	2.46
390.683	2.55
390.89	2.33
391.098	2.65
391.305	2.65
391.512	2.15
391.72	2.43
391.927	2.59
392.135	2.35
392.342	2.36
392.549	2.24
392.756	2.35
392.964	2.06
393.171	2.14
393.378	1.83
393.586	1.85
393.793	2.07
394	1.85
394.207	1.83
394.414	1.82
394.622	1.84
394.829	1.96
395.036	1.7
395.243	1.62
395.45	1.68
395.657	1.64
395.864	1.82
396.072	1.7
396.279	1.91
396.486	1.83
396.693	1.82
396.9	1.65
397.107	1.63
397.314	1.73
397.521	1.81
397.728	1.95
397.935	2.12
398.142	2.05
398.349	2.18
398.556	2.09
398.763	1.93
398.97	2.17
399.177	2.29
399.383	2.14
399.59	2.15
399.797	2.38
400.004	2.21
400.211	2.31
400.418	2.23
400.625	2.22
400.831	2.21
401.038	2.16
401.245	2.1
401.452	2.23
401.658	2.41
401.865	2.19
402.072	1.96
402.279	1.95
402.485	1.99
402.692	2.11
402.899	2.13
403.105	2.18
403.312	2.38
403.519	2.25
403.725	2.09
403.932	1.98
404.138	1.95
404.345	2.01
404.552	2.04
404.758	1.93
404.965	1.73
405.171	1.82
405.378	1.89
405.584	1.72
405.791	1.67
405.997	1.82
406.204	2.01
406.41	1.95
406.617	2.13
406.823	2.08
407.029	2.1
407.236	2.16
407.442	1.9
407.649	1.67
407.855	1.73
408.061	1.8
408.268	1.71
408.474	1.44
408.68	1.78
408.887	1.48
409.093	1.53
409.299	1.67
409.505	1.77
409.712	1.88
409.918	1.79
410.124	1.93
410.33	1.92
410.537	1.91
410.743	2.13
410.949	1.87
411.155	1.91
411.361	1.9
411.567	1.5
411.773	1.43
411.98	1.47
412.186	1.6
412.392	1.47
412.598	1.36
412.804	1.29
413.01	1.24
413.216	1.42
413.422	1.49
413.628	1.64
413.834	1.85
414.04	1.88
414.246	1.91
414.452	1.8
414.658	1.65
414.864	1.86
415.07	1.85
415.275	1.72
415.481	1.61
415.687	1.59
415.893	1.5
416.099	1.41
416.305	1.32
416.511	1.27
416.716	1.47
416.922	1.69
417.128	1.58
417.334	1.63
417.539	1.64
417.745	1.68
417.951	1.72
418.157	1.74
418.362	1.84
418.568	1.86
418.774	1.9
418.979	1.9
419.185	1.9
419.391	1.93
419.596	1.95
419.802	1.97
420.008	2
420.213	1.98
420.419	1.94
420.624	1.86
420.83	1.96
421.035	1.93
421.241	1.84
421.446	1.75
421.652	1.77
421.857	1.78
422.063	1.82
422.268	1.81
422.474	1.87
422.679	1.96
422.885	1.95
423.09	1.87
423.295	1.84
423.501	1.89
423.706	1.95
423.911	1.85
424.117	1.82
424.322	1.87
424.527	1.81
424.733	1.76
424.938	1.66
425.143	1.73
425.349	1.75
425.554	1.84
425.759	1.72
425.964	1.62
426.169	1.68
426.375	1.72
426.58	1.58
426.785	1.67
426.99	1.65
427.195	1.8
427.4	1.66
427.605	1.64
427.811	1.69
428.016	1.73
428.221	1.87
428.426	1.79
428.631	1.73
428.836	1.75
429.041	1.78
429.246	1.75
429.451	1.66
429.656	1.71
429.861	1.81
430.066	1.66
430.271	1.68
430.476	1.56
430.681	1.57
430.886	1.63
431.09	1.71
431.295	1.46
431.5	1.49
431.705	1.54
431.91	1.55
432.115	1.4
432.32	1.41
432.524	1.46
432.729	1.45
432.934	1.49
433.139	1.35
433.343	1.24
433.548	1.35
433.753	1.32
433.958	1.19
434.162	1.17
434.367	1.23
434.572	1.31
434.776	1.3
434.981	1.44
435.186	1.47
435.39	1.56
435.595	1.75
435.799	1.8
436.004	1.85
436.209	1.81
436.413	1.78
436.618	1.7
436.822	1.68
437.027	1.63
437.231	1.5
437.436	1.51
437.64	1.53
437.845	1.43
438.049	1.41
438.253	1.4
438.458	1.46
438.662	1.54
438.867	1.55
439.071	1.56
439.275	1.55
439.48	1.59
439.684	1.54
439.888	1.45
440.093	1.46
440.297	1.53
440.501	1.53
440.706	1.53
440.91	1.5
441.114	1.53
441.318	1.46
441.523	1.44
441.727	1.52
441.931	1.54
442.135	1.63
442.339	1.58
442.543	1.54
442.748	1.48
442.952	1.47
443.156	1.54
443.36	1.56
443.564	1.53
443.768	1.54
443.972	1.39
444.176	1.45
444.38	1.47
444.584	1.52
444.788	1.54
444.992	1.59
445.196	1.58
445.4	1.53
445.604	1.49
445.808	1.52
446.012	1.49
446.216	1.56
446.42	1.49
446.624	1.41
446.828	1.37
447.032	1.28
447.235	1.36
447.439	1.36
447.643	1.39
447.847	1.39
448.051	1.39
448.254	1.32
448.458	1.36
448.662	1.44
448.866	1.53
449.069	1.43
449.273	1.52
449.477	1.43
449.681	1.44
449.884	1.3
450.088	1.22
450.292	1.17
450.495	1.31
450.699	1.22
450.902	1.17
451.106	1.09
451.31	1.19
451.513	1.13
451.717	1.08
451.92	1.09
452.124	1.19
452.327	1.23
452.531	1.25
452.734	1.2
452.938	1.12
453.141	1.13
453.345	1.1
453.548	1.14
453.752	1.13
453.955	1.18
454.158	1.08
454.362	1.1
454.565	1.13
454.769	1.16
454.972	1.3
455.175	1.29
455.379	1.33
455.582	1.51
455.785	1.35
455.988	1.44
456.192	1.35
456.395	1.45
456.598	1.42
456.801	1.39
457.005	1.36
457.208	1.26
457.411	1.44
457.614	1.4
457.817	1.3
458.021	1.35
458.224	1.3
458.427	1.45
458.63	1.44
458.833	1.43
459.036	1.47
459.239	1.44
459.442	1.49
459.645	1.43
459.848	1.44
460.051	1.49
460.254	1.6
460.457	1.56
460.66	1.4
460.863	1.34
461.066	1.4
461.269	1.4
461.472	1.45
461.675	1.4
461.878	1.26
462.081	1.26
462.284	1.27
462.486	1.08
462.689	1.11
462.892	1.17
463.095	1.15
463.298	1.08
463.5	1.16
463.703	1.2
463.906	1.27
464.109	1.44
464.311	1.34
464.514	1.31
464.717	1.39
464.92	1.42
465.122	1.4
465.325	1.42
465.528	1.32
465.73	1.25
465.933	1.16
466.135	1.1
466.338	1.12
466.541	1.18
466.743	1.21
466.946	1.17
467.148	1.14
467.351	1.13
467.553	1.17
467.756	1.21
467.958	1.26
468.161	1.37
468.363	1.34
468.566	1.21
468.768	1.19
468.971	1.15
469.173	1.11
469.375	1.12
469.578	0.96
469.78	1.01
469.983	1.08
470.185	0.97
470.387	0.93
470.59	0.93
470.792	0.98
470.994	0.97
471.196	0.96
471.399	0.98
471.601	0.94
471.803	0.99
472.005	0.9
472.208	0.95
472.41	0.92
472.612	0.9
472.814	0.85
473.016	0.86
473.218	0.89
473.421	0.97
473.623	0.95
473.825	1.09
474.027	1.15
474.229	1.15
474.431	1.05
474.633	1.1
474.835	1.09
475.037	1.16
475.239	1.04
475.441	1
475.643	0.98
475.845	1.06
476.047	1
476.249	1.01
476.451	1.05
476.653	0.99
476.855	1.04
477.057	1.08
477.258	1.14
477.46	1.27
477.662	1.34
477.864	1.31
478.066	1.22
478.268	1.18
478.469	1.21
478.671	1.2
478.873	1.29
479.075	1.3
479.276	1.24
479.478	1.19
479.68	1.17
479.882	1.24
480.083	1.28
480.285	1.38
480.487	1.44
480.688	1.47
480.89	1.49
481.091	1.52
481.293	1.48
481.495	1.52
481.696	1.52
481.898	1.54
482.099	1.49
482.301	1.5
482.502	1.5
482.704	1.51
482.905	1.49
483.107	1.48
483.308	1.46
483.51	1.48
483.711	1.45
483.913	1.47
484.114	1.44
484.315	1.45
484.517	1.43
484.718	1.42
484.92	1.41
485.121	1.41
485.322	1.39
485.524	1.41
485.725	1.39
485.926	1.43
486.127	1.41
486.329	1.43
486.53	1.46
486.731	1.42
486.932	1.37
487.134	1.38
487.335	1.37
487.536	1.4
487.737	1.41
487.938	1.42
488.139	1.45
488.341	1.43
488.542	1.42
488.743	1.41
488.944	1.47
489.145	1.52
489.346	1.5
489.547	1.52
489.748	1.55
489.949	1.59
490.15	1.62
490.351	1.55
490.552	1.57
490.753	1.58
490.954	1.58
491.155	1.55
491.356	1.53
491.557	1.55
491.758	1.51
491.959	1.45
492.159	1.35
492.36	1.28
492.561	1.29
492.762	1.24
492.963	1.25
493.164	1.18
493.364	1.21
493.565	1.18
493.766	1.11
493.967	1.17
494.167	1.15
494.368	1.19
494.569	1.17
494.769	1.22
494.97	1.23
495.171	1.16
495.371	1.14
495.572	1.11
495.773	1.16
495.973	1.24
496.174	1.21
496.375	1.21
496.575	1.23
496.776	1.23
496.976	1.2
497.177	1.23
497.377	1.28
497.578	1.34
497.778	1.32
497.979	1.38
498.179	1.31
498.38	1.32
498.58	1.32
498.78	1.29
498.981	1.31
499.181	1.37
499.382	1.37
499.582	1.33
499.782	1.28
499.983	1.31
500.183	1.29
500.383	1.24
500.584	1.35
500.784	1.39
500.984	1.37
501.184	1.42
501.385	1.37
501.585	1.29
501.785	1.35
501.985	1.44
502.185	1.47
502.386	1.48
502.586	1.51
502.786	1.44
502.986	1.45
503.186	1.51
503.386	1.48
503.586	1.55
503.786	1.62
503.987	1.57
504.187	1.57
504.387	1.6
504.587	1.56
504.787	1.64
504.987	1.58
505.187	1.46
505.387	1.41
505.587	1.39
505.786	1.37
505.986	1.35
506.186	1.36
506.386	1.32
506.586	1.26
506.786	1.14
506.986	1.16
507.186	1.16
507.386	1.22
507.585	1.26
507.785	1.34
507.985	1.29
508.185	1.29
508.384	1.37
508.584	1.33
508.784	1.35
508.984	1.51
509.183	1.44
509.383	1.5
509.583	1.52
509.782	1.52
509.982	1.41
510.182	1.45
510.381	1.49
510.581	1.48
510.781	1.58
510.98	1.66
511.18	1.54
511.379	1.56
511.579	1.58
511.778	1.55
511.978	1.6
512.177	1.69
512.377	1.67
512.576	1.73
512.776	1.61
512.975	1.55
513.175	1.57
513.374	1.57
513.573	1.49
513.773	1.47
513.972	1.54
514.172	1.5
514.371	1.45
514.57	1.48
514.77	1.34
514.969	1.47
515.168	1.46
515.367	1.47
515.567	1.5
515.766	1.61
515.965	1.72
516.164	1.75
516.364	1.75
516.563	1.8
516.762	1.81
516.961	1.9
517.16	1.86
517.359	1.92
517.559	1.88
517.758	1.92
517.957	1.91
518.156	1.87
518.355	1.84
518.554	1.84
518.753	1.84
518.952	1.82
519.151	1.77
519.35	1.77
519.549	1.72
519.748	1.69
519.947	1.75
520.146	1.71
520.345	1.64
520.544	1.65
520.743	1.67
520.942	1.62
521.141	1.69
521.339	1.78
521.538	1.78
521.737	1.82
521.936	1.84
522.135	1.82
522.333	1.81
522.532	1.84
522.731	1.86
522.93	1.92
523.129	1.96
523.327	1.95
523.526	1.94
523.725	1.96
523.923	1.96
524.122	2.02
524.321	1.97
524.519	2
524.718	2.09
524.917	2.1
525.115	2.06
525.314	2.1
525.512	2.13
525.711	2.15
525.909	2.17
526.108	2.19
526.306	2.18
526.505	2.17
526.703	2.21
526.902	2.2
527.1	2.19
527.299	2.22
527.497	2.23
527.696	2.22
527.894	2.21
528.092	2.19
528.291	2.2
528.489	2.21
528.688	2.23
528.886	2.24
529.084	2.25
529.283	2.29
529.481	2.3
529.679	2.27
529.877	2.3
530.076	2.36
530.274	2.41
530.472	2.43
530.67	2.43
530.869	2.48
531.067	2.47
531.265	2.48
531.463	2.48
531.661	2.47
531.859	2.49
532.057	2.49
532.255	2.46
532.454	2.46
532.652	2.48
532.85	2.55
533.048	2.57
533.246	2.57
533.444	2.6
533.642	2.59
533.84	2.61
534.038	2.6
534.236	2.63
534.434	2.61
534.632	2.68
534.83	2.66
535.027	2.64
535.225	2.63
535.423	2.63
535.621	2.61
535.819	2.62
536.017	2.63
536.215	2.68
536.412	2.65
536.61	2.7
536.808	2.6
537.006	2.63
537.203	2.66
537.401	2.69
537.599	2.74
537.797	2.79
537.994	2.83
538.192	2.82
538.39	2.88
538.587	2.9
538.785	2.9
538.983	2.95
539.18	2.95
539.378	2.94
539.575	2.95
539.773	2.99
539.97	3.01
540.168	3.03
540.366	3.09
540.563	3.1
540.761	3.12
540.958	3.16
541.155	3.24
541.353	3.25
541.55	3.29
541.748	3.29
541.945	3.32
542.143	3.34
542.34	3.36
542.537	3.36
542.735	3.36
542.932	3.46
543.129	3.47
543.327	3.46
543.524	3.51
543.721	3.55
543.919	3.57
544.116	3.57
544.313	3.6
544.51	3.62
544.708	3.68
544.905	3.74
545.102	3.72
545.299	3.76
545.496	3.78
545.693	3.77
545.891	3.78
546.088	3.86
546.285	3.92
546.482	3.97
546.679	4.07
546.876	4.11
547.073	4.11
547.27	4.17
547.467	4.17
547.664	4.19
547.861	4.26
548.058	4.26
548.255	4.27
548.452	4.18
548.649	4.08
548.846	4.08
549.043	4.03
549.24	4.04
549.437	4.08
549.633	4.2
549.83	4.35
550.027	4.42
550.224	4.51
550.421	4.51
550.618	4.72
550.814	4.83
551.011	4.9
551.208	4.95
551.405	5.08
551.601	5.05
551.798	5.03
551.995	4.95
552.191	5.02
552.388	4.98
552.585	5
552.781	4.98
552.978	5.09
553.175	5.06
553.371	5.2
553.568	5.21
553.764	5.31
553.961	5.33
554.157	5.45
554.354	5.49
554.55	5.58
554.747	5.68
554.943	5.68
555.14	5.71
555.336	5.59
555.533	5.47
555.729	5.44
555.926	5.44
556.122	5.53
556.318	5.62
556.515	5.64
556.711	5.61
556.907	5.62
557.104	5.73
557.3	5.75
557.496	5.95
557.693	6.17
557.889	6.24
558.085	6.23
558.281	6.28
558.478	6.33
558.674	6.34
558.87	6.49
559.066	6.65
559.262	6.65
559.459	6.67
559.655	6.74
559.851	6.73
560.047	6.94
560.243	7.04
560.439	7.14
560.635	7.13
560.831	7.17
561.027	7.27
561.223	7.32
561.419	7.47
561.615	7.59
561.811	7.61
562.007	7.65
562.203	7.55
562.399	7.57
562.595	7.6
562.791	7.74
562.987	7.7
563.183	7.77
563.379	7.83
563.575	7.8
563.771	7.79
563.966	7.95
564.162	8.14
564.358	8.2
564.554	8.28
564.75	8.32
564.945	8.42
565.141	8.65
565.337	8.69
565.533	8.73
565.728	8.73
565.924	8.87
566.12	8.89
566.315	8.87
566.511	8.89
566.707	9.02
566.902	9.05
567.098	9.06
567.293	8.98
567.489	9
567.684	9
567.88	9.17
568.076	9.22
568.271	9.32
568.467	9.21
568.662	9.44
568.858	9.46
569.053	9.66
569.248	9.64
569.444	9.78
569.639	9.89
569.835	10.03
570.03	10.14
570.225	10.1
570.421	10.08
570.616	10.26
570.812	10.18
571.007	10.22
571.202	10.14
571.397	10.18
571.593	10.17
571.788	10.14
571.983	10.11
572.178	10.09
572.374	10.25
572.569	10.24
572.764	10.21
572.959	10.29
573.154	10.32
573.35	10.45
573.545	10.5
573.74	10.53
573.935	10.64
574.13	10.68
574.325	10.81
574.52	10.77
574.715	10.85
574.91	10.86
575.105	10.87
575.3	10.84
575.495	10.81
575.69	10.81
575.885	10.9
576.08	10.76
576.275	10.88
576.47	10.77
576.665	10.78
576.86	10.88
577.055	10.86
577.25	10.92
577.444	10.97
577.639	11.04
577.834	11.16
578.029	11.15
578.224	11.36
578.418	11.32
578.613	11.26
578.808	11.33
579.003	11.26
579.197	11.33
579.392	11.42
579.587	11.46
579.781	11.45
579.976	11.31
580.171	11.42
580.365	11.31
580.56	11.39
580.755	11.33
580.949	11.39
581.144	11.41
581.338	11.43
581.533	11.41
581.727	11.41
581.922	11.43
582.116	11.56
582.311	11.63
582.505	11.59
582.7	11.59
582.894	11.88
583.089	11.8
583.283	11.87
583.478	11.99
583.672	11.92
583.866	12.03
584.061	12.1
584.255	12.19
584.449	12.07
584.644	12.22
584.838	12.21
585.032	11.98
585.226	12.04
585.421	12
585.615	12.08
585.809	12.2
586.003	12.17
586.198	12.1
586.392	12.04
586.586	12.21
586.78	12.28
586.974	12.27
587.168	12.47
587.363	12.64
587.557	12.76
587.751	12.67
587.945	12.57
588.139	12.69
588.333	12.84
588.527	12.84
588.721	12.83
588.915	12.87
589.109	12.9
589.303	12.78
589.497	12.74
589.691	12.72
589.885	12.75
590.079	12.78
590.273	12.8
590.466	12.79
590.66	12.82
590.854	12.69
591.048	12.67
591.242	12.7
591.436	12.91
591.629	12.91
591.823	12.95
592.017	13.01
592.211	13.11
592.404	12.97
592.598	12.95
592.792	13.02
592.986	13.22
593.179	13.24
593.373	13.3
593.567	13.25
593.76	13.21
593.954	13.14
594.147	13.07
594.341	13.04
594.535	13.11
594.728	13.18
594.922	13.22
595.115	13.22
595.309	13.19
595.502	13.22
595.696	13.35
595.889	13.38
596.083	13.38
596.276	13.45
596.47	13.4
596.663	13.41
596.856	13.33
597.05	13.3
597.243	13.11
597.437	13.11
597.63	12.99
597.823	12.86
598.017	12.77
598.21	12.7
598.403	12.69
598.596	12.72
598.79	12.72
598.983	12.6
599.176	12.65
599.369	12.76
599.563	12.73
599.756	12.81
599.949	12.7
600.142	12.83
600.335	13.14
600.528	13.17
600.722	13.22
600.915	13.19
601.108	13.45
601.301	13.47
601.494	13.52
601.687	13.55
601.88	13.58
602.073	13.78
602.266	13.85
602.459	13.85
602.652	13.92
602.845	13.98
603.038	14.19
603.231	14.08
603.424	14.06
603.617	14.02
603.809	13.99
604.002	13.89
604.195	13.8
604.388	13.72
604.581	13.66
604.774	13.68
604.966	13.71
605.159	13.63
605.352	13.59
605.545	13.61
605.737	13.66
605.93	13.75
606.123	13.85
606.316	13.94
606.508	13.89
606.701	13.85
606.894	13.74
607.086	13.76
607.279	13.67
607.471	13.73
607.664	13.69
607.857	13.6
608.049	13.62
608.242	13.63
608.434	13.73
608.627	13.73
608.819	13.71
609.012	13.76
609.204	13.79
609.397	13.77
609.589	13.77
609.782	13.74
609.974	13.9
610.166	13.88
610.359	13.96
610.551	13.83
610.743	13.76
610.936	13.81
611.128	13.84
611.32	13.9
611.513	13.94
611.705	14.11
611.897	14.06
612.09	13.96
612.282	13.97
612.474	13.82
612.666	13.84
612.858	13.98
613.051	14.02
613.243	14.02
613.435	13.69
613.627	13.77
613.819	13.68
614.011	13.78
614.203	13.94
614.395	13.86
614.588	13.88
614.78	14.03
614.972	14.11
615.164	14
615.356	13.9
615.548	14.1
615.74	14.04
615.932	14
616.124	14.11
616.315	14.12
616.507	14.12
616.699	14.12
616.891	13.86
617.083	13.94
617.275	13.92
617.467	14.07
617.659	14.1
617.85	14.25
618.042	14.15
618.234	14.07
618.426	14
618.618	14.05
618.809	14.23
619.001	14.33
619.193	14.31
619.384	14.4
619.576	14.26
619.768	14.13
619.959	13.95
620.151	13.88
620.343	13.9
620.534	14.02
620.726	14.03
620.917	13.96
621.109	13.97
621.301	13.89
621.492	13.92
621.684	14
621.875	13.86
622.067	13.86
622.258	14.17
622.45	14.08
622.641	14.01
622.832	13.93
623.024	13.84
623.215	13.74
623.407	13.53
623.598	13.46
623.789	13.44
623.981	13.62
624.172	13.68
624.363	13.53
624.555	13.65
624.746	13.81
624.937	14.06
625.129	14.23
625.32	14.39
625.511	14.56
625.702	14.41
625.893	14.46
626.085	14.4
626.276	14.47
626.467	14.57
626.658	14.53
626.849	14.38
627.04	14.19
627.231	14.05
627.422	13.93
627.614	13.86
627.805	14
627.996	13.92
628.187	14.09
628.378	13.99
628.569	13.96
628.76	14.01
628.951	14.11
629.142	14.18
629.332	14.31
629.523	14.56
629.714	14.71
629.905	14.9
630.096	15.12
630.287	15.03
630.478	15.07
630.669	15.07
630.859	15.1
631.05	15
631.241	15.01
631.432	14.96
631.623	14.84
631.813	14.82
632.004	14.77
632.195	14.79
632.385	14.92
632.576	14.85
632.767	14.78
632.957	14.76
633.148	14.9
633.339	14.87
633.529	14.82
633.72	14.86
633.91	14.73
634.101	14.64
634.292	14.44
634.482	14.38
634.673	14.45
634.863	14.47
635.054	14.36
635.244	14.33
635.435	14.35
635.625	14.42
635.815	14.39
636.006	14.38
636.196	14.44
636.387	14.42
636.577	14.19
636.767	14.07
636.958	14.13
637.148	14.21
637.338	14.01
637.529	14.11
637.719	14.01
637.909	13.96
638.099	14.13
638.29	14.32
638.48	14.46
638.67	14.74
638.86	14.76
639.05	14.83
639.241	14.77
639.431	15
639.621	14.9
639.811	14.9
640.001	15.11
640.191	15.05
640.381	14.76
640.571	14.69
640.761	14.41
640.951	14.48
641.141	14.28
641.331	14.29
641.521	14.09
641.711	14.12
641.901	14.3
642.091	14.25
642.281	14.17
642.471	14.25
642.661	14.25
642.851	14.29
643.041	14.29
643.231	14.34
643.42	14.55
643.61	14.63
643.8	14.47
643.99	14.36
644.18	14.28
644.369	14.35
644.559	14.37
644.749	14.35
644.939	14.48
645.128	14.91
645.318	14.94
645.508	14.91
645.697	14.78
645.887	14.93
646.076	14.99
646.266	14.88
646.456	14.65
646.645	14.67
646.835	14.85
647.024	14.9
647.214	14.51
647.403	14.6
647.593	14.57
647.782	14.7
647.972	14.71
648.161	14.69
648.351	14.85
648.54	15.24
648.73	15.05
648.919	14.98
649.108	15.08
649.298	15.12
649.487	15.06
649.677	15.03
649.866	14.97
650.055	15.04
650.244	15.16
650.434	15.16
650.623	14.89
650.812	14.98
651.002	14.91
651.191	14.69
651.38	14.73
651.569	14.76
651.758	14.74
651.947	14.8
652.137	14.63
652.326	14.6
652.515	14.44
652.704	14.49
652.893	14.7
653.082	14.68
653.271	14.7
653.46	14.91
653.649	15.05
653.838	14.93
654.027	14.89
654.216	14.94
654.405	14.67
654.594	14.75
654.783	14.74
654.972	14.58
655.161	14.65
655.35	14.73
655.539	14.48
655.728	14.47
655.916	14.74
656.105	14.81
656.294	14.79
656.483	15.26
656.672	15.26
656.86	15.26
657.049	15.39
657.238	15.49
657.427	15.51
657.615	15.53
657.804	15.52
657.993	15.43
658.181	15.29
658.37	15.38
658.559	15.26
658.747	15.35
658.936	15.6
659.125	15.47
659.313	15.42
659.502	15.31
659.69	15.3
659.879	15.25
660.067	15.12
660.256	15.1
660.444	15.07
660.633	14.95
660.821	14.68
661.01	14.51
661.198	14.45
661.387	14.43
661.575	14.73
661.763	14.73
661.952	14.75
662.14	15.17
662.328	15.41
662.517	15.36
662.705	15.26
662.893	15.32
663.082	15.4
663.27	15.39
663.458	15.29
663.646	14.95
663.834	14.8
664.023	14.84
664.211	14.66
664.399	14.54
664.587	14.5
664.775	14.45
664.963	14.38
665.152	13.97
665.34	13.9
665.528	14.03
665.716	14.23
665.904	14.4
666.092	14.31
666.28	14.17
666.468	14.43
666.656	14.63
666.844	14.55
667.032	14.57
667.22	14.85
667.408	15.13
667.596	15.21
667.784	15.06
667.971	15.16
668.159	15.28
668.347	15.49
668.535	15.4
668.723	15.16
668.911	15.45
669.098	15.72
669.286	15.64
669.474	15.63
669.662	15.38
669.849	15.54
670.037	15.48
670.225	15.32
670.413	15.12
670.6	15.02
670.788	15.07
670.976	14.89
671.163	14.88
671.351	15.1
671.538	15.1
671.726	15.19
671.913	15.13
672.101	15.14
672.289	15.19
672.476	15.16
672.664	15.25
672.851	15.49
673.039	15.57
673.226	15.39
673.413	15.26
673.601	15.22
673.788	15.23
673.976	15.14
674.163	14.93
674.35	14.91
674.538	15.18
674.725	14.93
674.912	14.97
675.1	14.9
675.287	15.05
675.474	15.13
675.662	15.12
675.849	14.95
676.036	15.28
676.223	15.55
676.411	15.64
676.598	15.48
676.785	15.7
676.972	15.61
677.159	15.95
677.346	15.69
677.533	15.75
677.721	15.64
677.908	15.9
678.095	15.92
678.282	15.77
678.469	15.81
678.656	15.52
678.843	15.45
679.03	15.51
679.217	15.19
679.404	15.59
679.591	15.53
679.778	15.56
679.964	15.51
680.151	15.35
680.338	15.39
680.525	15.2
680.712	15.63
680.899	15.44
681.086	15.36
681.272	15.68
681.459	15.27
681.646	15.2
681.833	15.43
682.02	15.4
682.206	15.37
682.393	15.55
682.58	15.77
682.766	15.69
682.953	15.71
683.14	15.76
683.326	15.57
683.513	15.7
683.7	15.78
683.886	15.43
684.073	15.69
684.259	15.68
684.446	15.59
684.632	15.55
684.819	15.45
685.005	15.7
685.192	15.53
685.378	15.76
685.565	15.71
685.751	15.61
685.938	15.67
686.124	15.6
686.31	15.78
686.497	15.85
686.683	15.86
686.87	15.77
687.056	15.59
687.242	15.69
687.429	15.48
687.615	15.27
687.801	15.14
687.987	15.29
688.174	15.25
688.36	14.86
688.546	14.62
688.732	14.48
688.918	14.69
689.105	14.76
689.291	14.47
689.477	14.31
689.663	14.49
689.849	14.7
690.035	14.64
690.221	14.48
690.407	14.71
690.593	15.08
690.779	15.14
690.965	15.03
691.151	15.22
691.337	15.36
691.523	15.34
691.709	15.3
691.895	15.09
692.081	15.11
692.267	15.23
692.453	15
692.639	14.71
692.825	14.61
693.011	14.64
693.196	14.72
693.382	14.74
693.568	14.96
693.754	15.03
693.94	15.26
694.125	15.23
694.311	14.76
694.497	14.95
694.682	14.86
694.868	15.11
695.054	15.02
695.239	14.81
695.425	15.24
695.611	15.3
695.796	15.41
695.982	15.49
696.168	15.58
696.353	16
696.539	16
696.724	16.11
696.91	16.2
697.095	16.16
697.281	16.39
697.466	16.16
697.652	16.03
697.837	16.17
698.023	16.11
698.208	16.03
698.393	15.83
698.579	15.71
698.764	15.68
698.949	15.79
699.135	15.76
699.32	15.58
699.505	15.39
699.691	15.47
699.876	15.12
700.061	15.25
700.246	15.01
700.432	15.4
700.617	15.75
700.802	15.48
700.987	15.13
701.172	14.48
701.358	14.05
701.543	14.3
701.728	14.42
701.913	14.57
702.098	14.07
702.283	14.06
702.468	13.89
702.653	13.62
702.838	13.88
703.023	13.64
703.208	14.41
703.393	14.7
703.578	14.74
703.763	14.5
703.948	14.11
704.133	14.2
704.318	14.76
704.503	14.54
704.688	14.92
704.873	14.85
705.057	14.73
705.242	14.77
705.427	14.88
705.612	15.09
705.797	14.79
705.981	15.23
706.166	15.66
706.351	15.35
706.536	15.38
706.72	15.19
706.905	15.27
707.09	15.6
707.274	15.58
707.459	16.09
707.644	15.71
707.828	15.94
708.013	16.11
708.197	16.14
708.382	16.39
708.567	16.62
708.751	16.64
708.936	16.82
709.12	16.61
709.305	16.56
709.489	15.79
709.673	16.05
709.858	16.04
710.042	15.95
710.227	15.61
710.411	15.47
710.596	15.32
710.78	15.22
710.964	14.87
711.149	14.97
711.333	14.84
711.517	15.21
711.702	15.3
711.886	15.41
712.07	15.16
712.254	15.28
712.438	15.08
712.623	15.29
712.807	15.41
712.991	15.59
713.175	15.73
713.359	15.99
713.544	15.42
713.728	15.5
713.912	15.39
714.096	15.81
714.28	15.6
714.464	15.81
714.648	15.79
714.832	15.31
715.016	15.1
715.2	14.9
715.384	15.11
715.568	15.52
715.752	15.2
715.936	15.36
716.12	15.11
716.304	15.47
716.488	15.3
716.671	15.07
716.855	15.5
717.039	15.32
717.223	15.64
717.407	14.95
717.59	15.22
717.774	15.54
717.958	15.61
718.142	15.74
718.325	15.07
718.509	15.14
718.693	15.11
718.877	15.31
719.06	15.96
719.244	15.55
719.428	16.03
719.611	16.19
719.795	15.93
719.978	15.52
720.162	15.26
720.345	16.03
720.529	16.11
720.713	16.14
720.896	16.04
721.08	15.67
721.263	15.84
721.446	15.81
721.63	15.52
721.813	15.82
721.997	15.79
722.18	16.42
722.364	16.19
722.547	16.57
722.73	16.82
722.914	17.1
723.097	16.82
723.28	16.69
723.464	16.32
723.647	16.32
723.83	16.27
724.013	16.76
724.197	15.86
724.38	16.19
724.563	15.97
724.746	15.75
724.929	14.98
725.112	15.74
725.296	15.86
725.479	16.28
725.662	16.27
725.845	15.86
726.028	15.34
726.211	15.26
726.394	14.68
726.577	14.74
726.76	14.8
726.943	15.01
727.126	14.43
727.309	14.55
727.492	14.68
727.675	14.8
727.858	14.91
728.041	15.69
728.224	16.29
728.407	16.73
728.589	16.48
728.772	16.45
728.955	16.34
729.138	16.66
729.321	16.93
729.503	16.33
729.686	15.56
729.869	15.25
730.052	14.53
730.234	13.82
730.417	13.44
730.6	13.72
730.782	13.42
730.965	13.55
731.148	13.66
731.33	13.54
731.513	14.11
731.695	14.75
731.878	15.33
732.061	15.47
732.243	15.95
732.426	15.84
732.608	15.38
732.791	15.54
732.973	15.28
733.156	14.93
733.338	14.38
733.52	14.09
733.703	13.65
733.885	13.25
734.068	13.28
734.25	13.19
734.432	13.42
734.615	13.79
734.797	14
734.979	14.25
735.162	14.88
735.344	15.45
735.526	15.33
735.708	15.18
735.891	15.16
736.073	15.85
736.255	16.14
736.437	16.16
736.619	15.88
736.802	15.7
736.984	16.14
737.166	15.24
737.348	15.25
737.53	15.72
737.712	16.33
737.894	16.33
738.076	15.43
738.258	14.63
738.44	14.65
738.622	14.46
738.804	14.84
738.986	14.07
739.168	14.03
739.35	13.71
739.532	13.65
739.714	13.46
739.896	13.33
740.078	13.4
740.259	14.12
740.441	13.67
740.623	13.97
740.805	13.64
740.987	13.34
741.168	14.26
741.35	13.47
741.532	13.25
741.714	12.69
741.895	12.77
742.077	12.87
742.259	12.67
742.44	12.9
742.622	13.17
742.804	12.97
742.985	13.76
743.167	13.19
743.348	14.34
743.53	14.18
743.711	14.59
743.893	14.7
744.075	14.58
744.256	14.19
744.438	14.4
744.619	14.21
744.8	13.48
744.982	13.54
745.163	13.41
745.345	12.52
745.526	12.33
745.707	12.45
745.889	12.68
746.07	13.18
746.252	14.33
746.433	14.17
746.614	14.2
746.795	15.32
746.977	15.85
747.158	16.38
747.339	17.13
747.52	17.18
747.702	16.46
747.883	15.5
748.064	15.87
748.245	15.11
748.426	15.22
748.607	15.16
748.788	14.48
748.97	13.94
749.151	13.47
749.332	13.41
749.513	14.03
749.694	14.86
749.875	15.56
750.056	15.37
750.237	14.97
750.418	14.66
750.599	14.42
750.78	14.37
750.96	13.87
751.141	14.58
751.322	14.24
751.503	13.87
751.684	13.27
751.865	13.23
752.046	12.42
752.226	12.39
752.407	12.31
752.588	11.79
752.769	12.03
752.949	12.48
753.13	11.51
753.311	11.24
753.492	11.2
753.672	11.68
753.853	11.33
754.034	11.94
754.214	12.64
754.395	13.09
754.575	13.17
754.756	13.36
754.937	12.95
755.117	13.18
755.298	13.46
755.478	14.1
755.659	14.26
755.839	14.96
756.02	14.95
756.2	15.04
756.381	15.13
756.561	15.92
756.741	15.69
756.922	16.13
757.102	16.2
757.283	17.13
757.463	16.26
757.643	15.74
757.823	15.53
758.004	15.39
758.184	14.97
758.364	15.73
758.545	15.47
758.725	15.96
758.905	16.6
759.085	16.44
759.265	15.16
759.446	15.18
759.626	15.62
759.806	15.81
759.986	15.48
760.166	15.69
760.346	14.75
760.526	15.12
760.706	14.82
760.886	14.14
761.066	14.77
761.246	15.56
761.426	16
761.606	15.87
761.786	16.03
761.966	16.21
762.146	16.02
762.326	16.05
762.506	15.93
762.686	16.23
762.866	16.42
763.046	16.22
763.225	16.21
763.405	15.9
763.585	16.02
763.765	15.66
763.945	15.75
764.124	15.77
764.304	15.8
764.484	15.76
764.664	15.74
764.843	15.63
765.023	15.41
765.203	14.97
765.382	15.07
765.562	15.05
765.741	15.18
765.921	15.08
766.101	15.1
766.28	15.24
766.46	14.96
766.639	15.29
766.819	14.8
766.998	14.41
767.178	14.79
767.357	14.88
767.537	14.34
767.716	13.8
767.896	13.33
768.075	14.07
768.254	14.21
768.434	14.19
768.613	13.28
768.792	13.69
768.972	13.95
769.151	14.1
769.33	14.3
769.51	14.33
769.689	15.06
769.868	14.69
770.047	14.57
770.226	13.83
770.406	13.37
770.585	13.35
770.764	13.24
770.943	13.04
771.122	11.62
771.301	11.65
771.48	12.47
771.66	12.17
771.839	13.64
772.018	13.17
772.197	13.35
772.376	14.96
772.555	14.9
772.734	15.04
772.913	15.23
773.092	15.92
773.271	15.32
773.449	16
773.628	15.27
773.807	14.59
773.986	14.51
774.165	15.18
774.344	14.39
774.523	14.31
774.701	14.47
774.88	15.44
775.059	15.46
775.238	15.66
775.417	14.35
775.595	15.35
775.774	14.53
775.953	14.32
776.131	14.3
776.31	14.66
776.489	14.75
776.667	14.69
776.846	14.11
777.025	14.64
777.203	14.88
777.382	14.78
777.56	14.65
777.739	15.32
777.917	14.89
778.096	14.68
778.274	14.33
778.453	13.86
778.631	13.77
778.81	13.89
778.988	13.43
779.166	13.7
779.345	13.44
779.523	13.89
779.702	13.9
779.88	14.36
780.058	14.96
780.237	14.83
780.415	14.6
780.593	14.01
780.771	13.76
780.95	12.9
781.128	13.26
781.306	13.88
781.484	13.08
781.662	12.72
781.841	12.91
782.019	11.38
782.197	11.28
782.375	11.72
782.553	11.69
782.731	11.03
782.909	12.43
783.087	11.13
783.265	10.66
783.443	11.05
783.621	10.76
783.799	10.54
783.977	11.66
784.155	11.75
784.333	12.58
784.511	13.71
784.689	13.73
784.867	13.42
785.045	13.05
785.223	14.12
785.4	14.17
785.578	15.62
785.756	16.55
785.934	15.56
786.112	14.95
786.289	14.7
786.467	14.1
786.645	14.51
786.823	14.78
787	15.36
787.178	14.68
787.356	15.12
787.533	14.28
787.711	14.02
787.889	15.17
788.066	16.16
788.244	14.98
788.421	15
788.599	15.49
788.776	14.71
788.954	14.61
789.131	15.04
789.309	14.28
789.486	14.81
789.664	13.62
789.841	13.47
790.019	12.49
790.196	14.23
790.373	13.68
790.551	13.68
790.728	14.26
790.906	14.4
791.083	14.41
791.26	13.35
791.437	13.09
791.615	14.28
791.792	13.45
791.969	13.63
792.146	13.45
792.324	14.58
792.501	14.29
792.678	13.49
792.855	13.78
793.032	13.36
793.209	14.1
793.387	14.22
793.564	14.94
793.741	15.7
793.918	15.92
794.095	16.67
794.272	15.36
794.449	15.47
794.626	17.35
794.803	17.49
794.98	17.88
795.157	18.5
795.334	18.9
795.511	17.28
795.688	15.87
795.864	15.4
796.041	13.9
796.218	14.2
796.395	13.38
796.572	11.35
796.749	11.57
796.925	10.95
797.102	10.65
797.279	10.2
797.456	10.07
797.632	11.85
797.809	12.26
797.986	12.47
798.162	13.04
798.339	13.42
798.516	13.07
798.692	11.37
798.869	11.88
799.046	11.73
799.222	10.85
799.399	11.28
799.575	10.16
799.752	10.71
799.928	10.62
800.105	10.94
800.281	10.18
800.458	11.24
800.634	13
800.811	12.36
800.987	12.25
801.163	12.43
801.34	13.24
801.516	13.2
801.692	12.36
801.869	12.02
802.045	11.25
802.221	11.58
802.398	12.71
802.574	12.65
802.75	13.59
802.926	14.8
803.103	14.56
803.279	13.68
803.455	13.85
803.631	15.12
803.807	16.23
803.983	15.74
804.16	16.83
804.336	15.73
804.512	16.25
804.688	15.1
804.864	14.04
805.04	14.34
805.216	14.59
805.392	15.07
805.568	13.94
805.744	12.31
805.92	13.43
806.096	12.92
806.272	13.3
806.448	13.5
806.623	13.93
806.799	13.51
806.975	12.23
807.151	11.6
807.327	10.39
807.503	10.27
807.678	11.11
807.854	10.82
808.03	11.3
808.206	11.1
808.381	9.84
808.557	11.65
808.733	11.84
808.908	13.12
809.084	13.57
809.26	13.75
809.435	13.67
809.611	13.7
809.787	13.02
809.962	11.92
810.138	11.65
810.313	11.94
810.489	9.86
810.664	10.74
810.84	10.87
811.015	11.25
811.191	13
811.366	12.6
811.542	13.22
811.717	14.46
811.892	12.64
812.068	13.61
812.243	14.55
812.419	13.88
812.594	12.93
812.769	13.62
812.944	12.18
813.12	10.83
813.295	12.77
813.47	11.62
813.645	10.17
813.821	12.54
813.996	11.53
814.171	8.23
814.346	10.19
814.521	9.66
814.697	8.49
814.872	7.82
815.047	6.69
815.222	7.17
815.397	7.31
815.572	7.3
815.747	7.5
815.922	7.96
816.097	7.53
816.272	7.05
816.447	8.03
816.622	8.89
816.797	9.91
816.972	9.59
817.147	7.67
817.322	9.03
817.496	7.53
817.671	8.45
817.846	8.62
818.021	11.44
818.196	10.56
818.371	10.92
818.545	11.23
818.72	12.2
818.895	13.83
819.069	13.69
819.244	14.19
819.419	16.34
819.594	16.86
819.768	17
819.943	16.9
820.117	17.57
820.292	17.63
820.467	17.83
820.641	17.95
820.816	18.43
820.99	18.39
821.165	18.25
821.339	18.58
821.514	18.28
821.688	18.13
821.863	18.18
822.037	18.11
822.212	18.15
822.386	18.21
822.56	18.1
822.735	17.91
822.909	17.98
823.084	17.9
823.258	17.4
823.432	17.44
823.606	17.5
823.781	17.46
823.955	17.14
824.129	17.07
824.303	16.7
824.478	16.97
824.652	16.9
824.826	17
825	17.25
825.174	17.86
825.348	17.78
825.523	17.61
825.697	17.39
825.871	17.94
826.045	17.69
826.219	17.96
826.393	17.24
826.567	16.88
826.741	16.9
826.915	16.54
827.089	15.95
827.263	15.83
827.437	15.83
827.611	15.92
827.784	15.45
827.958	16.1
828.132	16.03
828.306	16.36
828.48	17.15
828.654	17.14
828.827	16.92
829.001	17.47
829.175	17.98
829.349	18.11
829.522	18.22
829.696	18.45
829.87	17.33
830.044	17.23
830.217	15.41
830.391	14.31
830.565	14.37
830.738	14.91
830.912	13.78
831.085	12.3
831.259	13.43
831.432	13.24
831.606	13.4
831.779	13.38
831.953	12.55
832.126	13.95
832.3	13.55
832.473	13.18
832.647	12.4
832.82	12.99
832.994	13.32
833.167	12.99
833.34	12.76
833.514	12.41
833.687	12.98
833.86	13.37
834.034	13.97
834.207	14.36
834.38	14.7
834.553	15
834.727	14.65
834.9	14.15
835.073	14.3
835.246	14.99
835.419	15.01
835.593	14.58
835.766	15.13
835.939	15.16
836.112	14.71
836.285	14.91
836.458	14.47
836.631	14.65
836.804	16.44
836.977	15.19
837.15	14.5
837.323	14.23
837.496	13.01
837.669	11.14
837.842	8.85
838.015	9.61
838.188	7.52
838.361	8.2
838.533	9.08
838.706	8.73
838.879	8.94
839.052	8.44
839.225	8.48
839.398	9.6
839.57	11.75
839.743	12.72
839.916	12.28
840.088	12.94
840.261	11.93
840.434	10.88
840.607	11.2
840.779	12.26
840.952	12.58
841.124	13.94
841.297	11.26
841.47	10.3
841.642	9.6
841.815	8.7
841.987	7.23
842.16	7.43
842.332	7.17
842.505	6.1
842.677	3.39
842.85	2.03
843.022	1.41
843.194	5.45
843.367	0.88
843.539	3.45
843.712	4.53
843.884	6.65
844.056	7.61
844.229	5.63
844.401	3
844.573	1.81
844.745	2.52
844.918	2.2
845.09	0.96
845.262	1.34
845.434	1.21
845.606	-1.67
845.779	-4.72
845.951	-4.2
846.123	-2.11
846.295	-1.6
846.467	-0.99
846.639	-3.01
846.811	-5.97
846.983	-3.56
847.155	-0.82
847.327	-6.88
847.499	-6.18
847.671	-6.23
847.843	-5.04
848.015	-3.38
848.187	-2.38
848.359	-1.72
848.531	-1.23
848.703	1.85
848.875	-2.41
849.047	-3.59
849.218	-0.29
849.39	3.45
849.562	7.6
849.734	5.39
849.905	4.39
850.077	6.24
850.249	7.65
850.421	7.36
850.592	10.08
850.764	11.66
850.936	15.24
851.107	17.94
851.279	16.76
851.451	15.34
851.622	16.61
851.794	8.88
851.965	2.95
852.137	-1.16
852.308	0.31
852.48	-6.24
852.651	-7.96
852.823	-7.88
852.994	-11.99
853.166	-9.94
853.337	-5.43
853.509	-5.77
853.68	3.69
853.851	8.43
854.023	11.45
854.194	10.57
854.365	13.15
854.537	13.43
854.708	9.3
854.879	10.12
855.05	8.62
855.222	1.18
855.393	-1.44
855.564	-6.39
855.735	-11.92
855.906	-9.83
856.078	-8.81
856.249	-7.71
856.42	-10.04
856.591	-8.49
856.762	-10.18
856.933	-12.98
857.104	-12.62
857.275	-13.14
857.446	-10.68
857.617	-3.32
857.788	-4.68
857.959	-4.96
858.13	-4.61
858.301	-2.43
858.472	-2.65
858.643	-2.29
858.814	-2.23
858.985	-3.48
859.155	-1.97
859.326	-1.11
859.497	-3.12
859.668	-5
859.839	-6.79
860.009	-8.4
860.18	-3.8
860.351	-2.01
860.522	3
860.692	3.7
860.863	1.27
861.034	-3.95
861.204	-6.19
861.375	-13.86
861.546	-14.57
861.716	-14.66
861.887	-12.94
862.057	-17.55
862.228	-17.31
862.398	-21.5
862.569	-24.43
862.739	-21.21
862.91	-18.22
863.08	-18.96
863.251	-9.71
863.421	-7.16
863.592	-9.11
863.762	-11.02
863.932	-8.31
864.103	-9.14
864.273	-10.85
864.443	-5.34
864.614	-5.07
864.784	-4.46
864.954	-2.67
865.125	-5.71
865.295	-4.34
865.465	-5.25
865.635	-8.65
865.805	-5.44
865.976	-9.34
866.146	-9
866.316	-16.62
866.486	-16.61
866.656	-22.2
866.826	-21.34
866.996	-22.62
867.166	-18.86
867.336	-19.47
867.506	-21.43
867.676	-26.48
867.846	-25.7
868.016	-26.4
868.186	-27.56
868.356	-24.59
868.526	-19.91
868.696	-18.53
868.866	-17.74
869.036	-22.17
869.206	-13.58
869.376	-4.82
869.545	1.49
869.715	2.07
869.885	0.72
870.055	7.76
870.224	6.65
870.394	6.91
870.564	2.52
870.734	4.04
870.903	1.79
871.073	-7.32
871.243	-6.28
871.412	-13.21
871.582	-14.38
871.751	-7.02
871.921	-8.33
872.091	-9.77
872.26	-7.32
872.43	-3.98
872.599	-3.88
872.769	1.75
872.938	11.71
873.108	5.7
873.277	5.93
873.446	6.59
873.616	4.21
873.785	-1.95
873.955	-1.67
874.124	-4.66
874.293	-2.85
874.463	-5.71
874.632	-12.35
874.801	-13.55
874.971	-14.08
875.14	-17.52
875.309	-18.61
875.478	-19.52
875.647	-7.32
875.817	-8.14
875.986	-9.36
876.155	-12.68
876.324	-16.68
876.493	-15.44
876.662	-21.84
876.831	-19.06
877	-13.13
877.17	-9.92
877.339	-10.12
877.508	-16.06
877.677	-11.48
877.846	-7.39
878.015	-9.48
878.184	-6.16
878.352	-5.47
878.521	-4.54
878.69	-1.18
878.859	-4.79
879.028	-7.24
879.197	-3.76
879.366	-0.02
879.534	0.29
879.703	2.05
879.872	7.04
880.041	7.95
880.21	10.72
880.378	12.22
880.547	12.43
880.716	15.15
880.884	16.53
881.053	15.41
881.222	15.78
881.39	16.3
881.559	16.16
881.727	15.71
881.896	16.34
882.065	15.83
882.233	15.87
882.402	15.73
882.57	15.64
882.739	15.54
882.907	16.62
883.076	16.94
883.244	16.27
883.412	16.88
883.581	16.7
883.749	17.3
883.918	16.58
884.086	16.64
884.254	16.79
884.423	16.5
884.591	15.16
884.759	13.66
884.927	12.07
885.096	13.03
885.264	11.85
885.432	10.51
885.6	8.59
885.769	9.45
885.937	8.6
886.105	6.19
886.273	2.53
886.441	2.84
886.609	3.65
886.777	2.59
886.945	1.28
887.113	-2.68
887.281	2.08
887.449	3.13
887.617	2.58
887.785	-0.23
887.953	-0.04
888.121	6.07
888.289	11.44
888.457	7.76
888.625	7.39
888.793	6.49
888.961	14.02
889.129	8.13
889.296	0.34
889.464	-1.12
889.632	0.84
889.8	5.43
889.967	-2.14
890.135	-15.03
