Data from 2938554_Reflection_3.txt Node
Date: Sun Jun 14 23:52:05 EDT 2015
User: robert
Spectrometer: USB4E03002
Autoset integration time: false
Trigger mode: 4
Integration Time (sec): 1.000000E-1
Scans to average: 10
Electric dark correction enabled: true
Nonlinearity correction enabled: false
Boxcar width: 5
Stray light correction enabled: false
XAxis mode: Wavelengths
Stop averaging: false
Number of Pixels in Spectrum: 3648
>>>>>Begin Spectral Data<<<<<
177.575	382.93
177.794	-27
178.014	257.85
178.233	-207.74
178.452	-6.23
178.672	159.82
178.891	122.41
179.11	7.37
179.33	37.09
179.549	107.42
179.768	145.8
179.987	168.88
180.207	137.71
180.426	134.51
180.645	218.23
180.864	181.33
181.084	140.69
181.303	137.63
181.522	164.28
181.741	263.19
181.96	456.64
182.179	359.19
182.398	359.94
182.618	815.89
182.837	346.07
183.056	166.41
183.275	220.66
183.494	202.52
183.713	220.03
183.932	199.84
184.151	202.65
184.37	214.57
184.589	293.93
184.808	440.04
185.027	244.35
185.246	-368.45
185.465	-249.09
185.684	-364.41
185.903	-18.58
186.122	451.39
186.341	270.04
186.56	237.79
186.779	321.72
186.998	222.62
187.216	135.79
187.435	180.56
187.654	195.24
187.873	207.96
188.092	272.88
188.311	640.02
188.53	733.16
188.748	-883.22
188.967	-414.06
189.186	-1505.99
189.405	-1636.67
189.623	-1251.33
189.842	-8707.94
190.061	-1193.21
190.28	-1973.17
190.498	369.46
190.717	183.81
190.936	224.42
191.154	145.53
191.373	153.33
191.592	203.33
191.81	173.71
192.029	330.71
192.248	328.31
192.466	395.89
192.685	189.77
192.904	245.43
193.122	-644.96
193.341	1759.76
193.559	-56.74
193.778	206.71
193.996	16.63
194.215	46.95
194.433	121.52
194.652	104.21
194.87	55.02
195.089	101.89
195.307	143.09
195.526	122.12
195.744	85.72
195.963	86.35
196.181	101.5
196.399	103.77
196.618	141
196.836	40.61
197.055	72.87
197.273	130.07
197.491	211.76
197.71	231.59
197.928	150.85
198.146	244.78
198.365	403.84
198.583	518.67
198.801	563.27
199.019	378.78
199.238	1052.05
199.456	326.06
199.674	368.45
199.892	262.12
200.111	210.7
200.329	527.52
200.547	391.6
200.765	256.54
200.983	178.13
201.202	160.56
201.42	188.52
201.638	186.91
201.856	311.87
202.074	229.75
202.292	192.66
202.51	261.68
202.728	157.42
202.946	201.48
203.165	175.36
203.383	270.65
203.601	1297.39
203.819	-49.32
204.037	-1888.1
204.255	-158.22
204.473	-15.14
204.691	44.05
204.909	18.37
205.127	-87.63
205.345	-203.07
205.562	-234.4
205.78	-471.01
205.998	759.16
206.216	-8143.68
206.434	-7291.95
206.652	-382.72
206.87	-584.54
207.088	5436.36
207.306	-4628
207.523	-161.51
207.741	-42.65
207.959	-29.3
208.177	-34.96
208.395	-70.7
208.612	-119.95
208.83	-98.81
209.048	-99.89
209.266	-84.2
209.483	-80.32
209.701	-97.44
209.919	-115.86
210.136	-177.06
210.354	-203.94
210.572	-385.03
210.79	-476.55
211.007	-778.47
211.225	-3921.4
211.442	891.34
211.66	361.77
211.878	339.09
212.095	-126.38
212.313	-163.51
212.53	-110.85
212.748	-89.15
212.966	-46
213.183	-17.22
213.401	-23.42
213.618	-27.19
213.836	-7.17
214.053	-11.46
214.271	-4.99
214.488	-79.21
214.705	-20.88
214.923	-15.21
215.14	20.85
215.358	-11.41
215.575	-29.95
215.793	-37.05
216.01	-127.85
216.227	-170.95
216.445	-187.13
216.662	-301.4
216.879	-199.57
217.097	-362.9
217.314	-279.79
217.531	-271.11
217.749	-248.43
217.966	-244.99
218.183	-339.95
218.4	-124.3
218.618	-143.17
218.835	-113.37
219.052	-101.42
219.269	-74.41
219.487	-54.95
219.704	-67.19
219.921	-77.91
220.138	-52.9
220.355	-36.21
220.572	-34.44
220.79	-33.55
221.007	-16.87
221.224	-24.31
221.441	-19.54
221.658	-27.51
221.875	-25.76
222.092	-19.48
222.309	-21.23
222.526	-27.55
222.743	-33.06
222.96	-36
223.177	-36.41
223.394	-41.49
223.611	-32.59
223.828	-38.3
224.045	-30.36
224.262	-28.08
224.479	-23.38
224.696	-19.6
224.913	-19.27
225.13	-20.7
225.347	-15.3
225.564	-14.3
225.781	-11.11
225.997	-8.45
226.214	-3.1
226.431	-3.74
226.648	-2.31
226.865	-1.3
227.082	-1.01
227.298	0.22
227.515	1.73
227.732	2.83
227.949	3.42
228.165	3.6
228.382	2.36
228.599	-0.17
228.816	1.49
229.032	0.89
229.249	0
229.466	0.79
229.682	0.16
229.899	-0.84
230.116	-2.11
230.332	-4.04
230.549	-5.97
230.765	-7.4
230.982	-7.38
231.199	-10.54
231.415	-11.83
231.632	-11.48
231.848	-12.71
232.065	-12.82
232.281	-13.66
232.498	-12.28
232.714	-9.51
232.931	-7.57
233.147	-3.35
233.364	-0.22
233.58	1.48
233.797	3.14
234.013	3.79
234.23	4.59
234.446	3.98
234.662	6.4
234.879	6.89
235.095	6.31
235.312	5.39
235.528	3.63
235.744	1.46
235.961	2.61
236.177	1.68
236.393	0.16
236.61	-0.26
236.826	-0.1
237.042	-2.81
237.258	-3.66
237.475	-4.76
237.691	-2.71
237.907	-3.03
238.123	-0.29
238.339	-0.41
238.556	-0.32
238.772	-0.39
238.988	0.7
239.204	2.01
239.42	1.86
239.636	2.42
239.853	3.47
240.069	3.19
240.285	3.52
240.501	2.97
240.717	2.97
240.933	3.04
241.149	3.81
241.365	3.8
241.581	3.14
241.797	3.81
242.013	3.36
242.229	2.96
242.445	2.78
242.661	2.81
242.877	3.39
243.093	2.83
243.309	3.22
243.525	3.24
243.741	2.9
243.957	2.89
244.173	3.36
244.388	3.8
244.604	3.83
244.82	4.05
245.036	4.21
245.252	3.57
245.468	3.8
245.683	3.51
245.899	3.4
246.115	3.61
246.331	3.83
246.547	3.24
246.762	3.42
246.978	3.83
247.194	3.98
247.409	3.79
247.625	3.96
247.841	3.66
248.057	3.42
248.272	3.59
248.488	3.47
248.703	3.02
248.919	3.44
249.135	2.82
249.35	2.32
249.566	1.23
249.782	0.96
249.997	1.63
250.213	2.15
250.428	3.24
250.644	2.73
250.859	2.53
251.075	2.71
251.29	3.19
251.506	3.63
251.721	2.55
251.937	2.6
252.152	3.5
252.368	3.44
252.583	2.93
252.798	1.48
253.014	0.9
253.229	0.52
253.445	0.41
253.66	1.18
253.875	-0.67
254.091	-0.09
254.306	0.73
254.521	-0.29
254.737	0.27
254.952	0.01
255.167	-0.37
255.383	1.01
255.598	1.4
255.813	2.2
256.028	1.11
256.244	1.89
256.459	2.5
256.674	2.26
256.889	2.53
257.104	2.53
257.32	2.79
257.535	3.61
257.75	3.24
257.965	3.3
258.18	2.88
258.395	2.79
258.61	2.74
258.826	2.6
259.041	2.42
259.256	2.45
259.471	1.96
259.686	1.81
259.901	1.56
260.116	1.33
260.331	0.92
260.546	1.14
260.761	1.18
260.976	1.02
261.191	0.82
261.406	1.09
261.621	0.83
261.836	1.31
262.05	1.9
262.265	1.63
262.48	1.87
262.695	1.5
262.91	0.55
263.125	-0.03
263.34	-0.06
263.555	-0.13
263.769	-0.59
263.984	-0.57
264.199	-0.43
264.414	-0.43
264.629	-0.61
264.843	-0.24
265.058	-0.03
265.273	0.58
265.488	0.84
265.702	0.68
265.917	0.74
266.132	0.64
266.346	1.02
266.561	0.59
266.776	0.22
266.99	0.6
267.205	0.61
267.42	1.13
267.634	1.61
267.849	1.68
268.063	2.13
268.278	2.35
268.492	3.12
268.707	2.78
268.922	2.92
269.136	2.99
269.351	2.86
269.565	2.8
269.78	2.55
269.994	1.9
270.209	1.75
270.423	1.75
270.637	1.56
270.852	1.22
271.066	1.05
271.281	0.79
271.495	0.77
271.709	0.9
271.924	0.73
272.138	0.57
272.353	0.42
272.567	0.91
272.781	0.57
272.996	0.59
273.21	0.46
273.424	0.76
273.638	0.86
273.853	0.96
274.067	1
274.281	1.39
274.495	1.34
274.71	2.12
274.924	1.88
275.138	2.1
275.352	2
275.566	2.03
275.781	1.71
275.995	2.38
276.209	2.35
276.423	2.61
276.637	1.9
276.851	1.96
277.065	1.9
277.279	2.27
277.493	2.15
277.707	1.77
277.921	1.85
278.135	1.79
278.349	1.22
278.563	0.61
278.777	0.54
278.991	0.93
279.205	0.95
279.419	1.02
279.633	0.44
279.847	1.06
280.061	1.57
280.275	1.7
280.489	1.88
280.703	2.2
280.917	2.34
281.131	2.07
281.344	1.83
281.558	2.12
281.772	1.87
281.986	1.93
282.2	1.41
282.414	1.56
282.627	1.31
282.841	1.43
283.055	1.14
283.269	1.3
283.482	1.28
283.696	1.34
283.91	1.11
284.123	1.09
284.337	1.42
284.551	1.8
284.764	2.1
284.978	2.12
285.192	1.99
285.405	2.02
285.619	2.48
285.833	2.65
286.046	2.91
286.26	2.87
286.473	2.85
286.687	2.45
286.9	2.53
287.114	1.94
287.327	2.18
287.541	2.25
287.754	2.64
287.968	2.32
288.181	2.58
288.395	2.29
288.608	2.5
288.822	2.55
289.035	2.6
289.248	1.91
289.462	2.08
289.675	1.99
289.889	1.88
290.102	1.64
290.315	1.37
290.529	0.97
290.742	0.86
290.955	0.89
291.169	1.01
291.382	1.58
291.595	2.05
291.808	1.95
292.022	2.01
292.235	2.25
292.448	2.46
292.661	2.73
292.875	2.9
293.088	3.39
293.301	3.3
293.514	3.25
293.727	3.08
293.94	3.06
294.153	3.37
294.367	3.57
294.58	3.7
294.793	3.71
295.006	3.56
295.219	3.45
295.432	3.26
295.645	3.18
295.858	3.18
296.071	3.19
296.284	3.41
296.497	3.32
296.71	3.36
296.923	2.97
297.136	3
297.349	3.17
297.562	3.12
297.775	3.39
297.988	3.58
298.201	3.66
298.414	3.53
298.626	3.47
298.839	3.58
299.052	3.39
299.265	4.17
299.478	4.38
299.691	4.66
299.903	4.89
300.116	4.83
300.329	5
300.542	4.94
300.755	4.64
300.967	4.26
301.18	3.97
301.393	4.21
301.605	3.76
301.818	3.31
302.031	3.25
302.243	3.12
302.456	3.11
302.669	2.95
302.881	3.34
303.094	3.99
303.307	4.17
303.519	4.44
303.732	4.56
303.944	4.37
304.157	4.48
304.37	4.47
304.582	4.49
304.795	4.39
305.007	4.76
305.22	4.75
305.432	4.6
305.645	5.01
305.857	4.89
306.069	4.22
306.282	4.59
306.494	4.41
306.707	4
306.919	4.5
307.132	4.67
307.344	4.34
307.556	4.28
307.769	4.32
307.981	4.14
308.193	4.41
308.406	4.74
308.618	4.67
308.83	5.1
309.043	5.37
309.255	5.11
309.467	5.13
309.679	5.14
309.892	5.12
310.104	5.25
310.316	5.2
310.528	5.31
310.74	5.41
310.953	5.59
311.165	5.32
311.377	5.05
311.589	5.5
311.801	5.82
312.013	5.88
312.225	5.78
312.437	5.59
312.649	6.01
312.862	5.93
313.074	5.73
313.286	5.66
313.498	5.7
313.71	5.88
313.922	5.49
314.134	5.27
314.346	4.9
314.558	4.93
314.77	5.01
314.982	5.01
315.193	4.94
315.405	5.34
315.617	5.34
315.829	5.73
316.041	5.62
316.253	5.7
316.465	5.48
316.677	5.79
316.888	5.57
317.1	5.95
317.312	5.96
317.524	5.94
317.736	5.87
317.947	5.94
318.159	5.68
318.371	5.73
318.583	5.76
318.794	5.76
319.006	6.04
319.218	6.63
319.43	6.47
319.641	5.92
319.853	6.19
320.064	6.41
320.276	6.92
320.488	7.58
320.699	8.05
320.911	7.87
321.123	7.64
321.334	8.12
321.546	8.6
321.757	8.13
321.969	8.41
322.18	8.2
322.392	8.13
322.603	8.1
322.815	8
323.026	8.22
323.238	8.99
323.449	9.16
323.661	9.61
323.872	9.55
324.083	10.12
324.295	10.39
324.506	10.52
324.718	11.09
324.929	10.88
325.14	11.11
325.352	11.31
325.563	11.24
325.774	11.78
325.986	11.42
326.197	11.5
326.408	12.25
326.62	12.78
326.831	13.2
327.042	13.38
327.253	13.99
327.464	14.34
327.676	14.35
327.887	14.56
328.098	14.84
328.309	15.59
328.52	15.95
328.732	15.71
328.943	15.64
329.154	15.88
329.365	15.91
329.576	16.08
329.787	15.81
329.998	16.31
330.209	16.3
330.42	16.7
330.631	17.19
330.842	17.4
331.053	17.97
331.264	18.44
331.475	18.98
331.686	19.38
331.897	19.65
332.108	19.82
332.319	20.36
332.53	20.72
332.741	20.84
332.952	20.77
333.163	20.73
333.374	20.82
333.585	20.91
333.795	20.81
334.006	21.05
334.217	21.07
334.428	21.85
334.639	21.65
334.849	21.82
335.06	22.3
335.271	22.36
335.482	22.62
335.692	22.64
335.903	22.47
336.114	22.52
336.325	22.56
336.535	22.71
336.746	22.56
336.957	22.58
337.167	22.98
337.378	22.89
337.589	22.82
337.799	23.14
338.01	23.3
338.22	23.6
338.431	23.81
338.642	23.31
338.852	23.44
339.063	23.4
339.273	23.39
339.484	22.89
339.694	22.41
339.905	22.53
340.115	22.13
340.326	21.99
340.536	21.85
340.746	21.89
340.957	22.35
341.167	22.46
341.378	22.36
341.588	22.81
341.799	22.93
342.009	23.27
342.219	22.65
342.43	22.89
342.64	22.65
342.85	22.91
343.061	23
343.271	22.85
343.481	22.69
343.691	22.87
343.902	22.67
344.112	22.77
344.322	22.79
344.532	22.81
344.743	22.74
344.953	22.78
345.163	22.61
345.373	22.31
345.583	22.03
345.793	21.84
346.004	21.44
346.214	21.37
346.424	21.35
346.634	21.21
346.844	21.26
347.054	21.04
347.264	21.19
347.474	21.14
347.684	21.42
347.894	21.64
348.104	21.57
348.314	21.72
348.524	21.69
348.734	21.91
348.944	22.18
349.154	22.81
349.364	23.02
349.574	22.82
349.784	23.11
349.994	23.21
350.204	23.39
350.413	23.68
350.623	24.02
350.833	24.03
351.043	24.05
351.253	24
351.463	23.68
351.672	23.33
351.882	23.59
352.092	23.29
352.302	23.05
352.511	22.73
352.721	22.48
352.931	22.33
353.141	22.21
353.35	22.01
353.56	22.08
353.77	22.37
353.979	22.48
354.189	22.67
354.399	22.88
354.608	22.98
354.818	23.15
355.027	23.44
355.237	23.27
355.447	23.51
355.656	23.48
355.866	23.24
356.075	23.14
356.285	23.32
356.494	23.09
356.704	22.83
356.913	22.79
357.123	22.67
357.332	22.65
357.542	22.62
357.751	22.36
357.96	21.99
358.17	22.04
358.379	21.98
358.589	21.84
358.798	21.87
359.007	21.97
359.217	21.82
359.426	21.79
359.635	21.66
359.845	21.88
360.054	21.85
360.263	22.12
360.472	22.17
360.682	22.16
360.891	22.35
361.1	22.3
361.309	22.22
361.519	22.3
361.728	22.39
361.937	22.41
362.146	22.11
362.355	22.13
362.564	22.22
362.774	22.01
362.983	22.09
363.192	21.74
363.401	21.65
363.61	21.56
363.819	21.35
364.028	21.36
364.237	21.17
364.446	21.32
364.655	21.28
364.864	21.11
365.073	21.15
365.282	20.86
365.491	20.75
365.7	20.6
365.909	20.39
366.118	20.37
366.327	20.15
366.536	20.1
366.745	20.06
366.954	19.96
367.162	19.66
367.371	19.44
367.58	19.71
367.789	20.16
367.998	20.23
368.207	20.49
368.415	20.57
368.624	20.44
368.833	20.41
369.042	20.45
369.25	20.17
369.459	20.44
369.668	20.39
369.877	19.97
370.085	19.9
370.294	20.18
370.503	19.92
370.711	19.88
370.92	19.89
371.129	19.78
371.337	19.52
371.546	19.64
371.754	19.32
371.963	19.57
372.171	19.53
372.38	19.47
372.589	19.21
372.797	19.27
373.006	19.01
373.214	19.06
373.423	19.09
373.631	19.36
373.84	19.27
374.048	19.34
374.256	18.95
374.465	18.87
374.673	18.6
374.882	18.34
375.09	18.5
375.298	18.72
375.507	18.68
375.715	18.66
375.923	18.23
376.132	18.5
376.34	18.16
376.548	18.37
376.757	18.36
376.965	18.36
377.173	18.27
377.381	18.15
377.59	17.99
377.798	17.84
378.006	17.82
378.214	17.72
378.423	17.36
378.631	17.74
378.839	17.3
379.047	17.26
379.255	16.95
379.463	17.07
379.671	17
379.879	16.78
380.088	16.8
380.296	16.65
380.504	16.62
380.712	16.72
380.92	16.71
381.128	17.12
381.336	17.18
381.544	17.46
381.752	17.42
381.96	17.3
382.168	17.25
382.376	16.99
382.584	16.89
382.791	16.92
382.999	16.67
383.207	16.65
383.415	16.3
383.623	16.12
383.831	15.89
384.039	15.79
384.247	15.8
384.454	15.93
384.662	15.98
384.87	15.93
385.078	15.84
385.285	15.86
385.493	15.53
385.701	15.77
385.909	15.75
386.116	15.82
386.324	15.9
386.532	15.62
386.739	15.48
386.947	15.51
387.155	15.69
387.362	15.8
387.57	15.97
387.778	15.96
387.985	15.43
388.193	15.47
388.4	15.33
388.608	15.31
388.816	15.17
389.023	15.06
389.231	15.11
389.438	14.82
389.646	14.87
389.853	14.86
390.061	14.9
390.268	15.24
390.475	15.15
390.683	15.29
390.89	15.02
391.098	15.19
391.305	15.28
391.512	15.03
391.72	15.31
391.927	15.26
392.135	15
392.342	15.01
392.549	14.67
392.756	14.69
392.964	14.29
393.171	14.28
393.378	14.17
393.586	13.97
393.793	14
394	13.64
394.207	13.44
394.414	13.42
394.622	13.19
394.829	13.37
395.036	13.14
395.243	13.34
395.45	13.43
395.657	13.35
395.864	13.45
396.072	13.51
396.279	13.61
396.486	13.64
396.693	13.49
396.9	13.41
397.107	13.35
397.314	13.22
397.521	13.17
397.728	13.12
397.935	13.16
398.142	13.21
398.349	13.06
398.556	13.11
398.763	12.94
398.97	13.15
399.177	13.2
399.383	13.23
399.59	13.47
399.797	13.49
400.004	13.4
400.211	13.36
400.418	13.11
400.625	13.03
400.831	12.82
401.038	12.85
401.245	12.68
401.452	12.79
401.658	12.7
401.865	12.36
402.072	12.14
402.279	12.17
402.485	12.31
402.692	12.51
402.899	12.66
403.105	12.82
403.312	12.76
403.519	12.71
403.725	12.38
403.932	12.31
404.138	12.34
404.345	12.47
404.552	12.5
404.758	12.32
404.965	12.04
405.171	11.9
405.378	11.86
405.584	11.9
405.791	11.96
405.997	12.17
406.204	12.23
406.41	12.34
406.617	12.37
406.823	12.23
407.029	12.24
407.236	12.38
407.442	12.45
407.649	12.24
407.855	12.35
408.061	12.29
408.268	12.24
408.474	12.03
408.68	12.15
408.887	12.03
409.093	12.07
409.299	12.12
409.505	12.12
409.712	12.05
409.918	11.87
410.124	11.7
410.33	11.66
410.537	11.7
410.743	11.91
410.949	11.84
411.155	11.71
411.361	11.69
411.567	11.46
411.773	11.28
411.98	11.29
412.186	11.51
412.392	11.38
412.598	11.37
412.804	11.27
413.01	11.25
413.216	11.2
413.422	11.27
413.628	11.28
413.834	11.38
414.04	11.48
414.246	11.48
414.452	11.36
414.658	11.35
414.864	11.53
415.07	11.43
415.275	11.22
415.481	11.19
415.687	11.22
415.893	11.14
416.099	11.07
416.305	10.98
416.511	10.94
416.716	11.03
416.922	11.04
417.128	10.85
417.334	10.86
417.539	10.84
417.745	10.76
417.951	10.71
418.157	10.76
418.362	10.71
418.568	10.67
418.774	10.61
418.979	10.49
419.185	10.5
419.391	10.55
419.596	10.64
419.802	10.69
420.008	10.71
420.213	10.7
420.419	10.57
420.624	10.56
420.83	10.61
421.035	10.58
421.241	10.59
421.446	10.56
421.652	10.56
421.857	10.49
422.063	10.43
422.268	10.35
422.474	10.3
422.679	10.3
422.885	10.22
423.09	10.16
423.295	10.22
423.501	10.22
423.706	10.13
423.911	10.03
424.117	9.89
424.322	9.86
424.527	9.9
424.733	9.85
424.938	9.78
425.143	9.88
425.349	9.83
425.554	9.74
425.759	9.64
425.964	9.66
426.169	9.66
426.375	9.72
426.58	9.71
426.785	9.6
426.99	9.61
427.195	9.67
427.4	9.58
427.605	9.61
427.811	9.6
428.016	9.61
428.221	9.65
428.426	9.61
428.631	9.6
428.836	9.66
429.041	9.77
429.246	9.74
429.451	9.81
429.656	9.77
429.861	9.84
430.066	9.85
430.271	9.87
430.476	9.83
430.681	9.82
430.886	9.87
431.09	9.81
431.295	9.66
431.5	9.72
431.705	9.64
431.91	9.67
432.115	9.52
432.32	9.5
432.524	9.52
432.729	9.5
432.934	9.48
433.139	9.4
433.343	9.38
433.548	9.35
433.753	9.24
433.958	9.18
434.162	9.17
434.367	9.22
434.572	9.25
434.776	9.26
434.981	9.25
435.186	9.35
435.39	9.41
435.595	9.49
435.799	9.54
436.004	9.55
436.209	9.56
436.413	9.52
436.618	9.53
436.822	9.47
437.027	9.42
437.231	9.44
437.436	9.42
437.64	9.44
437.845	9.42
438.049	9.38
438.253	9.41
438.458	9.4
438.662	9.43
438.867	9.39
439.071	9.44
439.275	9.45
439.48	9.42
439.684	9.43
439.888	9.39
440.093	9.34
440.297	9.4
440.501	9.45
440.706	9.56
440.91	9.57
441.114	9.65
441.318	9.61
441.523	9.71
441.727	9.75
441.931	9.72
442.135	9.72
442.339	9.75
442.543	9.75
442.748	9.68
442.952	9.63
443.156	9.69
443.36	9.71
443.564	9.65
443.768	9.56
443.972	9.56
444.176	9.54
444.38	9.49
444.584	9.45
444.788	9.45
444.992	9.45
445.196	9.38
445.4	9.32
445.604	9.25
445.808	9.29
446.012	9.27
446.216	9.2
446.42	9.16
446.624	9.11
446.828	9.09
447.032	9
447.235	9
447.439	9.05
447.643	9.02
447.847	8.91
448.051	8.8
448.254	8.68
448.458	8.76
448.662	8.78
448.866	8.9
449.069	8.76
449.273	8.77
449.477	8.81
449.681	8.72
449.884	8.6
450.088	8.72
450.292	8.66
450.495	8.79
450.699	8.69
450.902	8.67
451.106	8.61
451.31	8.71
451.513	8.76
451.717	8.72
451.92	8.68
452.124	8.84
452.327	8.75
452.531	8.67
452.734	8.56
452.938	8.51
453.141	8.51
453.345	8.48
453.548	8.59
453.752	8.48
453.955	8.41
454.158	8.32
454.362	8.21
454.565	8.27
454.769	8.41
454.972	8.51
455.175	8.62
455.379	8.57
455.582	8.57
455.785	8.48
455.988	8.63
456.192	8.6
456.395	8.87
456.598	8.84
456.801	8.92
457.005	8.89
457.208	8.8
457.411	8.74
457.614	8.71
457.817	8.72
458.021	8.72
458.224	8.66
458.427	8.73
458.63	8.61
458.833	8.64
459.036	8.58
459.239	8.6
459.442	8.63
459.645	8.61
459.848	8.62
460.051	8.65
460.254	8.7
460.457	8.72
460.66	8.65
460.863	8.67
461.066	8.74
461.269	8.75
461.472	8.73
461.675	8.78
461.878	8.75
462.081	8.81
462.284	8.84
462.486	8.8
462.689	8.75
462.892	8.83
463.095	8.83
463.298	8.75
463.5	8.87
463.703	8.84
463.906	8.85
464.109	9.03
464.311	8.98
464.514	8.95
464.717	8.98
464.92	9.02
465.122	8.99
465.325	9.04
465.528	8.99
465.73	9.01
465.933	9.06
466.135	9.07
466.338	9.02
466.541	9.05
466.743	9.04
466.946	9.1
467.148	9.1
467.351	9.11
467.553	9.16
467.756	9.17
467.958	9.26
468.161	9.35
468.363	9.33
468.566	9.29
468.768	9.32
468.971	9.36
469.173	9.35
469.375	9.36
469.578	9.23
469.78	9.23
469.983	9.27
470.185	9.19
470.387	9.19
470.59	9.24
470.792	9.28
470.994	9.28
471.196	9.32
471.399	9.33
471.601	9.35
471.803	9.5
472.005	9.39
472.208	9.5
472.41	9.47
472.612	9.42
472.814	9.41
473.016	9.39
473.218	9.39
473.421	9.44
473.623	9.51
473.825	9.63
474.027	9.59
474.229	9.67
474.431	9.64
474.633	9.63
474.835	9.6
475.037	9.63
475.239	9.56
475.441	9.62
475.643	9.59
475.845	9.53
476.047	9.5
476.249	9.61
476.451	9.59
476.653	9.61
476.855	9.72
477.057	9.82
477.258	9.73
477.46	9.8
477.662	9.79
477.864	9.77
478.066	9.73
478.268	9.72
478.469	9.73
478.671	9.72
478.873	9.69
479.075	9.58
479.276	9.45
479.478	9.47
479.68	9.44
479.882	9.48
480.083	9.45
480.285	9.53
480.487	9.56
480.688	9.58
480.89	9.6
481.091	9.6
481.293	9.62
481.495	9.6
481.696	9.59
481.898	9.64
482.099	9.6
482.301	9.61
482.502	9.59
482.704	9.58
482.905	9.53
483.107	9.54
483.308	9.51
483.51	9.5
483.711	9.5
483.913	9.52
484.114	9.48
484.315	9.49
484.517	9.49
484.718	9.51
484.92	9.48
485.121	9.49
485.322	9.49
485.524	9.53
485.725	9.53
485.926	9.57
486.127	9.57
486.329	9.6
486.53	9.6
486.731	9.58
486.932	9.52
487.134	9.56
487.335	9.57
487.536	9.57
487.737	9.58
487.938	9.53
488.139	9.56
488.341	9.57
488.542	9.56
488.743	9.56
488.944	9.6
489.145	9.65
489.346	9.67
489.547	9.7
489.748	9.72
489.949	9.78
490.15	9.85
490.351	9.82
490.552	9.9
490.753	9.92
490.954	9.96
491.155	10
491.356	10.01
491.557	10.02
491.758	10
491.959	10.02
492.159	10
492.36	10.02
492.561	10.03
492.762	9.95
492.963	9.95
493.164	10
493.364	9.99
493.565	10.02
493.766	10.04
493.967	10.15
494.167	10.19
494.368	10.23
494.569	10.21
494.769	10.42
494.97	10.52
495.171	10.49
495.371	10.5
495.572	10.58
495.773	10.69
495.973	10.76
496.174	10.75
496.375	10.8
496.575	10.83
496.776	11.02
496.976	10.98
497.177	11.01
497.377	11.15
497.578	11.19
497.778	11.16
497.979	11.21
498.179	11.22
498.38	11.28
498.58	11.3
498.78	11.33
498.981	11.3
499.181	11.44
499.382	11.45
499.582	11.55
499.782	11.59
499.983	11.74
500.183	11.82
500.383	11.91
500.584	12.02
500.784	12.11
500.984	12.24
501.184	12.31
501.385	12.29
501.585	12.39
501.785	12.48
501.985	12.56
502.185	12.52
502.386	12.58
502.586	12.65
502.786	12.73
502.986	12.84
503.186	12.89
503.386	12.93
503.586	13.03
503.786	13.22
503.987	13.2
504.187	13.36
504.387	13.6
504.587	13.66
504.787	13.81
504.987	13.88
505.187	13.9
505.387	14.02
505.587	14.19
505.786	14.22
505.986	14.31
506.186	14.39
506.386	14.55
506.586	14.5
506.786	14.58
506.986	14.56
507.186	14.6
507.386	14.74
507.585	14.86
507.785	14.92
507.985	15.01
508.185	15.05
508.384	15.2
508.584	15.16
508.784	15.35
508.984	15.5
509.183	15.69
509.383	15.86
509.583	16.03
509.782	16.1
509.982	16.13
510.182	16.28
510.381	16.35
510.581	16.48
510.781	16.71
510.98	16.78
511.18	16.79
511.379	16.85
511.579	16.99
511.778	17.07
511.978	17.27
512.177	17.47
512.377	17.48
512.576	17.7
512.776	17.72
512.975	17.82
513.175	18.01
513.374	18.17
513.573	18.33
513.773	18.34
513.972	18.42
514.172	18.44
514.371	18.47
514.57	18.66
514.77	18.7
514.969	18.98
515.168	18.99
515.367	19.07
515.567	19.24
515.766	19.4
515.965	19.65
516.164	19.83
516.364	19.96
516.563	20.07
516.762	20.19
516.961	20.35
517.16	20.37
517.359	20.53
517.559	20.62
517.758	20.66
517.957	20.65
518.156	20.72
518.355	20.71
518.554	20.69
518.753	20.85
518.952	20.92
519.151	20.96
519.35	21.06
519.549	21.1
519.748	21.17
519.947	21.3
520.146	21.4
520.345	21.43
520.544	21.6
520.743	21.83
520.942	21.94
521.141	22.11
521.339	22.2
521.538	22.25
521.737	22.32
521.936	22.39
522.135	22.54
522.333	22.72
522.532	22.85
522.731	22.94
522.93	22.95
523.129	23.03
523.327	23.08
523.526	23.15
523.725	23.22
523.923	23.38
524.122	23.46
524.321	23.52
524.519	23.56
524.718	23.7
524.917	23.81
525.115	23.99
525.314	24.1
525.512	24.28
525.711	24.37
525.909	24.48
526.108	24.52
526.306	24.62
526.505	24.67
526.703	24.77
526.902	24.8
527.1	24.85
527.299	24.88
527.497	24.96
527.696	24.94
527.894	24.99
528.092	25.02
528.291	25.11
528.489	25.13
528.688	25.16
528.886	25.19
529.084	25.25
529.283	25.31
529.481	25.39
529.679	25.38
529.877	25.46
530.076	25.61
530.274	25.68
530.472	25.72
530.67	25.84
530.869	25.95
531.067	26.04
531.265	26.03
531.463	26.03
531.661	26.06
531.859	26.12
532.057	26.19
532.255	26.2
532.454	26.25
532.652	26.27
532.85	26.3
533.048	26.34
533.246	26.38
533.444	26.45
533.642	26.58
533.84	26.67
534.038	26.69
534.236	26.77
534.434	26.82
534.632	26.88
534.83	26.97
535.027	27.05
535.225	27.18
535.423	27.21
535.621	27.24
535.819	27.22
536.017	27.24
536.215	27.32
536.412	27.31
536.61	27.32
536.808	27.37
537.006	27.46
537.203	27.49
537.401	27.47
537.599	27.55
537.797	27.58
537.994	27.72
538.192	27.77
538.39	27.88
538.587	27.9
538.785	27.89
538.983	27.95
539.18	27.89
539.378	27.95
539.575	27.98
539.773	28.03
539.97	28.12
540.168	28.09
540.366	28.12
540.563	28.18
540.761	28.22
540.958	28.36
541.155	28.43
541.353	28.5
541.55	28.54
541.748	28.62
541.945	28.67
542.143	28.73
542.34	28.78
542.537	28.86
542.735	28.87
542.932	28.99
543.129	28.93
543.327	28.97
543.524	29.09
543.721	29.19
543.919	29.16
544.116	29.2
544.313	29.24
544.51	29.32
544.708	29.32
544.905	29.32
545.102	29.35
545.299	29.44
545.496	29.45
545.693	29.47
545.891	29.4
546.088	29.44
546.285	29.53
546.482	29.57
546.679	29.62
546.876	29.73
547.073	29.78
547.27	29.75
547.467	29.8
547.664	29.77
547.861	29.85
548.058	30
548.255	30.12
548.452	30.04
548.649	30.02
548.846	30.1
549.043	30
549.24	30.05
549.437	30.14
549.633	30.14
549.83	30.26
550.027	30.36
550.224	30.42
550.421	30.41
550.618	30.48
550.814	30.59
551.011	30.72
551.208	30.84
551.405	30.92
551.601	30.86
551.798	30.94
551.995	31.03
552.191	30.9
552.388	30.94
552.585	31.03
552.781	31.09
552.978	31.04
553.175	30.95
553.371	31.05
553.568	31.14
553.764	31.38
553.961	31.44
554.157	31.39
554.354	31.61
554.55	31.56
554.747	31.46
554.943	31.49
555.14	31.52
555.336	31.47
555.533	31.44
555.729	31.36
555.926	31.21
556.122	31.18
556.318	31.31
556.515	31.17
556.711	31.19
556.907	31.28
557.104	31.32
557.3	31.37
557.496	31.51
557.693	31.6
557.889	31.66
558.085	31.65
558.281	31.84
558.478	31.88
558.674	31.99
558.87	32.06
559.066	32.25
559.262	32.24
559.459	32.23
559.655	32.24
559.851	32.23
560.047	32.4
560.243	32.56
560.439	32.54
560.635	32.43
560.831	32.45
561.027	32.59
561.223	32.59
561.419	32.75
561.615	32.98
561.811	32.99
562.007	32.97
562.203	32.91
562.399	32.99
562.595	33.08
562.791	33.15
562.987	33.28
563.183	33.32
563.379	33.39
563.575	33.4
563.771	33.24
563.966	33.34
564.162	33.47
564.358	33.48
564.554	33.55
564.75	33.6
564.945	33.71
565.141	33.71
565.337	33.67
565.533	33.7
565.728	33.69
565.924	33.75
566.12	33.81
566.315	33.8
566.511	33.82
566.707	33.86
566.902	33.83
567.098	33.79
567.293	33.85
567.489	33.89
567.684	33.73
567.88	33.84
568.076	33.89
568.271	33.98
568.467	34.05
568.662	34.18
568.858	34.14
569.053	34.28
569.248	34.39
569.444	34.36
569.639	34.46
569.835	34.6
570.03	34.6
570.225	34.69
570.421	34.67
570.616	34.67
570.812	34.69
571.007	34.74
571.202	34.7
571.397	34.66
571.593	34.68
571.788	34.63
571.983	34.69
572.178	34.72
572.374	34.77
572.569	34.87
572.764	34.98
572.959	35.05
573.154	35.14
573.35	35.12
573.545	35.16
573.74	35.21
573.935	35.31
574.13	35.33
574.325	35.51
574.52	35.52
574.715	35.47
574.91	35.39
575.105	35.39
575.3	35.28
575.495	35.49
575.69	35.61
575.885	35.73
576.08	35.63
576.275	35.67
576.47	35.53
576.665	35.49
576.86	35.65
577.055	35.57
577.25	35.55
577.444	35.67
577.639	35.59
577.834	35.57
578.029	35.58
578.224	35.77
578.418	35.73
578.613	35.82
578.808	36
579.003	35.94
579.197	36.14
579.392	36.31
579.587	36.31
579.781	36.21
579.976	36.2
580.171	36.26
580.365	36.25
580.56	36.37
580.755	36.37
580.949	36.26
581.144	36.29
581.338	36.38
581.533	36.4
581.727	36.48
581.922	36.52
582.116	36.68
582.311	36.72
582.505	36.69
582.7	36.69
582.894	36.67
583.089	36.78
583.283	36.83
583.478	36.75
583.672	36.7
583.866	36.77
584.061	36.95
584.255	36.84
584.449	36.63
584.644	36.76
584.838	36.7
585.032	36.65
585.226	36.65
585.421	36.63
585.615	36.78
585.809	36.75
586.003	36.82
586.198	37.02
586.392	37.17
586.586	37.3
586.78	37.39
586.974	37.46
587.168	37.54
587.363	37.61
587.557	37.76
587.751	37.6
587.945	37.66
588.139	37.54
588.333	37.33
588.527	37.33
588.721	37.41
588.915	37.46
589.109	37.5
589.303	37.5
589.497	37.5
589.691	37.37
589.885	37.56
590.079	37.58
590.273	37.56
590.466	37.64
590.66	37.61
590.854	37.53
591.048	37.57
591.242	37.65
591.436	37.84
591.629	37.77
591.823	37.99
592.017	38.03
592.211	38.06
592.404	38.1
592.598	38.02
592.792	38.14
592.986	38.25
593.179	38.09
593.373	38.03
593.567	37.9
593.76	37.98
593.954	37.91
594.147	37.89
594.341	37.82
594.535	37.83
594.728	37.87
594.922	37.88
595.115	37.95
595.309	38.02
595.502	38.03
595.696	38.18
595.889	38.22
596.083	38.09
596.276	38.07
596.47	38.23
596.663	38.29
596.856	38.33
597.05	38.3
597.243	38.29
597.437	38.34
597.63	38.35
597.823	38.18
598.017	38.21
598.21	38.34
598.403	38.39
598.596	38.33
598.79	38.38
598.983	38.23
599.176	38.27
599.369	38.21
599.563	38.12
599.756	38.16
599.949	38.31
600.142	38.33
600.335	38.46
600.528	38.55
600.722	38.53
600.915	38.63
601.108	38.71
601.301	38.67
601.494	38.65
601.687	38.78
601.88	38.86
602.073	38.97
602.266	39.06
602.459	39.05
602.652	39.17
602.845	39.21
603.038	39.25
603.231	39.31
603.424	39.35
603.617	39.34
603.809	39.37
604.002	39.33
604.195	39.3
604.388	39.16
604.581	39.13
604.774	39.08
604.966	39.12
605.159	39.04
605.352	39.08
605.545	39.11
605.737	39.13
605.93	39.13
606.123	39.24
606.316	39.34
606.508	39.37
606.701	39.41
606.894	39.32
607.086	39.34
607.279	39.49
607.471	39.42
607.664	39.49
607.857	39.54
608.049	39.56
608.242	39.59
608.434	39.55
608.627	39.44
608.819	39.61
609.012	39.7
609.204	39.68
609.397	39.55
609.589	39.7
609.782	39.54
609.974	39.56
610.166	39.48
610.359	39.51
610.551	39.43
610.743	39.62
610.936	39.45
611.128	39.33
611.32	39.35
611.513	39.33
611.705	39.3
611.897	39.38
612.09	39.42
612.282	39.5
612.474	39.43
612.666	39.54
612.858	39.6
613.051	39.81
613.243	39.92
613.435	39.91
613.627	40.09
613.819	40.07
614.011	40.02
614.203	40.14
614.395	40.15
614.588	40.06
614.78	40.16
614.972	40.34
615.164	40.3
615.356	40.18
615.548	40.14
615.74	39.99
615.932	40.16
616.124	40.34
616.315	40.33
616.507	40.45
616.699	40.54
616.891	40.24
617.083	40.1
617.275	39.98
617.467	40.19
617.659	40.23
617.85	40.34
618.042	40.18
618.234	40.14
618.426	40.22
618.618	40.11
618.809	40.19
619.001	40.46
619.193	40.41
619.384	40.48
619.576	40.4
619.768	40.35
619.959	40.44
620.151	40.48
620.343	40.6
620.534	40.51
620.726	40.57
620.917	40.51
621.109	40.42
621.301	40.5
621.492	40.38
621.684	40.51
621.875	40.59
622.067	40.42
622.258	40.47
622.45	40.44
622.641	40.42
622.832	40.36
623.024	40.39
623.215	40.41
623.407	40.26
623.598	40.4
623.789	40.22
623.981	40.34
624.172	40.44
624.363	40.32
624.555	40.44
624.746	40.5
624.937	40.62
625.129	40.57
625.32	40.71
625.511	40.68
625.702	40.47
625.893	40.57
626.085	40.48
626.276	40.4
626.467	40.53
626.658	40.36
626.849	40.23
627.04	40.45
627.231	40.45
627.422	40.19
627.614	40.42
627.805	40.51
627.996	40.47
628.187	40.39
628.378	40.38
628.569	40.34
628.76	40.33
628.951	40.46
629.142	40.11
629.332	40.25
629.523	40.35
629.714	40.41
629.905	40.46
630.096	40.61
630.287	40.58
630.478	40.7
630.669	40.76
630.859	40.76
631.05	40.95
631.241	41.12
631.432	41.07
631.623	41.2
631.813	40.99
632.004	41
632.195	40.97
632.385	41.07
632.576	41.15
632.767	41.08
632.957	41.09
633.148	41.01
633.339	40.83
633.529	40.89
633.72	40.9
633.91	41.08
634.101	41.06
634.292	41.03
634.482	41.27
634.673	41.2
634.863	41.19
635.054	41.24
635.244	41.22
635.435	41.43
635.625	41.55
635.815	41.49
636.006	41.37
636.196	41.45
636.387	41.22
636.577	40.98
636.767	40.93
636.958	40.99
637.148	41.02
637.338	40.89
637.529	40.93
637.719	40.81
637.909	40.86
638.099	40.89
638.29	40.92
638.48	41.11
638.67	41.08
638.86	41.13
639.05	41.25
639.241	41.18
639.431	41.36
639.621	41.18
639.811	41.17
640.001	41.22
640.191	41.21
640.381	41.23
640.571	41.13
640.761	41.25
640.951	41.22
641.141	41.07
641.331	41.38
641.521	41.35
641.711	41.45
641.901	41.6
642.091	41.5
642.281	41.37
642.471	41.33
642.661	41.5
642.851	41.31
643.041	41.59
643.231	41.67
643.42	41.61
643.61	41.93
643.8	41.91
643.99	41.9
644.18	42.05
644.369	42.42
644.559	42.48
644.749	42.41
644.939	42.68
645.128	42.72
645.318	42.61
645.508	42.53
645.697	42.25
645.887	42.25
646.076	42.18
646.266	42.1
646.456	41.87
646.645	41.92
646.835	42.17
647.024	42.04
647.214	41.72
647.403	41.95
647.593	41.94
647.782	41.96
647.972	41.9
648.161	41.92
648.351	41.79
648.54	41.82
648.73	41.83
648.919	41.73
649.108	41.83
649.298	41.86
649.487	41.83
649.677	41.74
649.866	41.7
650.055	41.8
650.244	41.8
650.434	41.72
650.623	41.73
650.812	41.72
651.002	41.6
651.191	41.63
651.38	41.72
651.569	41.55
651.758	41.8
651.947	41.98
652.137	41.89
652.326	42.06
652.515	42.28
652.704	42.47
652.893	42.34
653.082	42.29
653.271	42.24
653.46	42.36
653.649	42.27
653.838	42.24
654.027	42.06
654.216	41.94
654.405	41.72
654.594	41.51
654.783	41.26
654.972	41.12
655.161	41.35
655.35	41.53
655.539	41.38
655.728	41.54
655.916	41.35
656.105	41.12
656.294	41.28
656.483	41.4
656.672	41.76
656.86	41.88
657.049	41.99
657.238	42.04
657.427	41.89
657.615	42.03
657.804	42.2
657.993	42.29
658.181	42.54
658.37	42.63
658.559	42.64
658.747	42.64
658.936	42.65
659.125	42.58
659.313	42.45
659.502	42.42
659.69	42.26
659.879	42.1
660.067	42.09
660.256	42.13
660.444	41.91
660.633	41.61
660.821	41.44
661.01	41.26
661.198	41.38
661.387	41.61
661.575	41.77
661.763	41.67
661.952	41.84
662.14	42.02
662.328	41.91
662.517	42.05
662.705	42.06
662.893	42
663.082	42.23
663.27	42.4
663.458	42.22
663.646	42.01
663.834	42.15
664.023	42.06
664.211	41.85
664.399	41.93
664.587	41.92
664.775	42.27
664.963	42.39
665.152	42.46
665.34	42.15
665.528	42.23
665.716	42.34
665.904	42.42
666.092	42.6
666.28	42.62
666.468	42.53
666.656	42.7
666.844	42.68
667.032	42.65
667.22	42.6
667.408	42.87
667.596	42.64
667.784	42.53
667.971	42.58
668.159	42.47
668.347	42.35
668.535	42.29
668.723	42.1
668.911	42.13
669.098	42.17
669.286	42.21
669.474	42.11
669.662	42.35
669.849	42.57
670.037	42.35
670.225	42
670.413	42.17
670.6	42.22
670.788	42.34
670.976	42.14
671.163	42.12
671.351	42.06
671.538	41.99
671.726	42.03
671.913	42.07
672.101	42.29
672.289	42.43
672.476	42.38
672.664	42.7
672.851	42.48
673.039	42.4
673.226	42.12
673.413	42.26
673.601	42.25
673.788	42.27
673.976	42.17
674.163	41.95
674.35	41.96
674.538	42.06
674.725	41.91
674.912	42.11
675.1	42.25
675.287	42.59
675.474	42.48
675.662	42.64
675.849	42.61
676.036	42.87
676.223	43.04
676.411	43.21
676.598	43.1
676.785	42.93
676.972	42.96
677.159	43.13
677.346	42.97
677.533	42.73
677.721	42.7
677.908	42.44
678.095	42.41
678.282	42.26
678.469	42.21
678.656	42.04
678.843	42.06
679.03	42.04
679.217	42.05
679.404	42.1
679.591	42.38
679.778	42.11
679.964	42.42
680.151	42.3
680.338	42.31
680.525	42.33
680.712	42.43
680.899	42.2
681.086	42.24
681.272	42.06
681.459	42.03
681.646	41.79
681.833	42.13
682.02	41.97
682.206	41.78
682.393	41.94
682.58	41.94
682.766	42.01
682.953	42.07
683.14	42.01
683.326	42.49
683.513	42.48
683.7	42.59
683.886	42.59
684.073	42.55
684.259	42.51
684.446	42.51
684.632	42.68
684.819	42.69
685.005	43.1
685.192	43.08
685.378	42.61
685.565	42.67
685.751	42.58
685.938	42.88
686.124	42.92
686.31	43.24
686.497	43.17
686.683	43.02
686.87	42.88
687.056	42.61
687.242	42.6
687.429	42.63
687.615	42.68
687.801	42.82
687.987	42.38
688.174	42.45
688.36	42.49
688.546	42.41
688.732	42.2
688.918	42.52
689.105	42.73
689.291	42.84
689.477	42.77
689.663	42.66
689.849	42.64
690.035	42.96
690.221	42.73
690.407	42.5
690.593	42.56
690.779	42.82
690.965	42.42
691.151	42.25
691.337	42.14
691.523	42.33
691.709	42.24
691.895	42.02
692.081	41.85
692.267	41.99
692.453	41.75
692.639	41.86
692.825	41.69
693.011	41.8
693.196	42.06
693.382	41.91
693.568	42.02
693.754	42.1
693.94	42.3
694.125	42.25
694.311	42.07
694.497	42.29
694.682	42.39
694.868	42.29
695.054	42.06
695.239	42.05
695.425	42.31
695.611	42.23
695.796	42.13
695.982	42.06
696.168	41.92
696.353	42.29
696.539	42.29
696.724	42.39
696.91	42.54
697.095	42.75
697.281	42.72
697.466	42.7
697.652	42.56
697.837	42.9
698.023	42.9
698.208	42.96
698.393	42.72
698.579	42.9
698.764	42.68
698.949	42.68
699.135	42.76
699.32	42.79
699.505	42.56
699.691	42.77
699.876	42.37
700.061	42.49
700.246	42.53
700.432	42.81
700.617	42.73
700.802	42.67
700.987	42.59
701.172	42.49
701.358	42.27
701.543	42.29
701.728	42.08
701.913	42.34
702.098	42.08
702.283	41.58
702.468	41.14
702.653	41.16
702.838	41.34
703.023	41.39
703.208	41.65
703.393	41.98
703.578	42.46
703.763	42.47
703.948	42.4
704.133	42.39
704.318	42.65
704.503	42.7
704.688	42.89
704.873	42.73
705.057	42.92
705.242	42.48
705.427	42.25
705.612	41.93
705.797	42
705.981	41.91
706.166	41.79
706.351	42.21
706.536	42.48
706.72	42.34
706.905	42.53
707.09	42.08
707.274	42.21
707.459	42.42
707.644	42.53
707.828	42.71
708.013	42.67
708.197	43.01
708.382	42.96
708.567	43.15
708.751	43.06
708.936	43.17
709.12	43.57
709.305	43.93
709.489	43.83
709.673	43.82
709.858	43.38
710.042	43.43
710.227	43.44
710.411	43.16
710.596	42.86
710.78	42.74
710.964	42.58
711.149	42.5
711.333	42.16
711.517	42.11
711.702	42.23
711.886	42.13
712.07	42.22
712.254	42.1
712.438	42.23
712.623	41.91
712.807	42.18
712.991	42.21
713.175	42.31
713.359	42.37
713.544	42.28
713.728	42.18
713.912	42.15
714.096	41.9
714.28	41.87
714.464	41.59
714.648	42.02
714.832	41.61
715.016	42.05
715.2	42.15
715.384	42.3
715.568	42.39
715.752	42.57
715.936	42.81
716.12	42.62
716.304	42.8
716.488	43.28
716.671	43.14
716.855	44.01
717.039	43.32
717.223	43.14
717.407	42.77
717.59	42.6
717.774	42.73
717.958	42.51
718.142	43.17
718.325	42.45
718.509	42.04
718.693	41.92
718.877	41.12
719.06	41.24
719.244	40.72
719.428	41.08
719.611	41.27
719.795	40.73
719.978	40.65
720.162	40.5
720.345	41.34
720.529	41.39
720.713	41.69
720.896	41.73
721.08	41.73
721.263	42.41
721.446	42.28
721.63	42.12
721.813	42.31
721.997	42.38
722.18	42.23
722.364	42.18
722.547	42.3
722.73	42.33
722.914	42.42
723.097	42.45
723.28	42.38
723.464	42.47
723.647	42.31
723.83	42.24
724.013	42.3
724.197	42.68
724.38	42.81
724.563	42.76
724.746	42.86
724.929	42.87
725.112	42.88
725.296	42.57
725.479	42.54
725.662	42.86
725.845	42.31
726.028	42.13
726.211	41.45
726.394	40.86
726.577	41.07
726.76	41.13
726.943	40.82
727.126	40.86
727.309	40.6
727.492	40.47
727.675	40.58
727.858	41.13
728.041	42.11
728.224	42.65
728.407	43.11
728.589	42.67
728.772	42.45
728.955	42.69
729.138	42.45
729.321	43
729.503	43.03
729.686	42.74
729.869	42.58
730.052	42.09
730.234	41.71
730.417	41.61
730.6	41.93
730.782	41.38
730.965	41.51
731.148	41.94
731.33	41.88
731.513	41.54
731.695	41.8
731.878	41.97
732.061	42.03
732.243	42.44
732.426	42.2
732.608	42.14
732.791	42.57
732.973	42.3
733.156	41.7
733.338	41.56
733.52	42.08
733.703	41.69
733.885	41.68
734.068	41.47
734.25	41.13
734.432	41.7
734.615	41.29
734.797	40.8
734.979	41.29
735.162	41.9
735.344	42.12
735.526	41.65
735.708	41.58
735.891	41.58
736.073	41.71
736.255	41.9
736.437	41.83
736.619	42.36
736.802	42.39
736.984	42.36
737.166	42.18
737.348	42.57
737.53	42.79
737.712	43.12
737.894	42.55
738.076	42.59
738.258	42.48
738.44	42
738.622	42.26
738.804	42.76
738.986	42.74
739.168	42.48
739.35	42.18
739.532	42.85
739.714	42.45
739.896	42.85
740.078	42.51
740.259	42.74
740.441	43.07
740.623	42.74
740.805	42.56
740.987	42.32
741.168	42.95
741.35	42.08
741.532	41.34
741.714	41.07
741.895	40.54
742.077	40.34
742.259	40.02
742.44	40.08
742.622	40.17
742.804	39.78
742.985	39.91
743.167	39.38
743.348	40.2
743.53	40.16
743.711	41
743.893	41.96
744.075	42.37
744.256	42.31
744.438	42.16
744.619	41.95
744.8	41.65
744.982	41.53
745.163	41.29
745.345	40.49
745.526	40.45
745.707	40.3
745.889	40.31
746.07	40.5
746.252	40.91
746.433	41.12
746.614	41.16
746.795	41.97
746.977	41.65
747.158	41.92
747.339	42.49
747.52	42.7
747.702	42.69
747.883	41.82
748.064	41.65
748.245	41.49
748.426	41.33
748.607	41.82
748.788	41.69
748.97	42.08
749.151	42.25
749.332	41.95
749.513	41.49
749.694	41.9
749.875	42.09
750.056	42.19
750.237	42
750.418	41.65
750.599	40.28
750.78	40.25
750.96	40.17
751.141	39.91
751.322	39.6
751.503	40.13
751.684	39.33
751.865	39.57
752.046	39.64
752.226	39.7
752.407	39.69
752.588	40.49
752.769	40.36
752.949	40.86
753.13	40.55
753.311	40.85
753.492	40.89
753.672	41.76
753.853	41.83
754.034	41.48
754.214	41.86
754.395	42.26
754.575	41.83
754.756	41.56
754.937	40.36
755.117	40.8
755.298	40.96
755.478	41.03
755.659	40.28
755.839	40.59
756.02	40.74
756.2	40.29
756.381	40.46
756.561	41.32
756.741	41.69
756.922	41.83
757.102	41.62
757.283	42.36
757.463	41.78
757.643	41.28
757.823	41.2
758.004	40.9
758.184	41.55
758.364	41.52
758.545	41.26
758.725	41.68
758.905	42.24
759.085	42.35
759.265	41.71
759.446	42.11
759.626	42.7
759.806	42.54
759.986	42.87
760.166	41.54
760.346	40.87
760.526	41.15
760.706	41.46
760.886	41.45
761.066	41.42
761.246	41.42
761.426	41.32
761.606	41.69
761.786	41.73
761.966	42.13
762.146	42.81
762.326	43.05
762.506	42.85
762.686	42.11
762.866	41.91
763.046	42.35
763.225	42
763.405	42.15
763.585	42.05
763.765	41.83
763.945	41.66
764.124	41.73
764.304	41.94
764.484	41.64
764.664	41.84
764.843	42.15
765.023	41.55
765.203	41.89
765.382	41.77
765.562	41.5
765.741	41.89
765.921	40.97
766.101	40.4
766.28	40.01
766.46	40.2
766.639	40.51
766.819	39.81
766.998	39.81
767.178	40.01
767.357	39.45
767.537	39.11
767.716	38.64
767.896	39.23
768.075	39.19
768.254	38.81
768.434	38.63
768.613	38.29
768.792	38.55
768.972	38.43
769.151	38.43
769.33	38.96
769.51	39.08
769.689	39.67
769.868	39.62
770.047	40.58
770.226	41.22
770.406	41.17
770.585	41.12
770.764	40.75
770.943	40.02
771.122	39.3
771.301	38.97
771.48	39.4
771.66	38.5
771.839	38.97
772.018	38.3
772.197	37.63
772.376	38.17
772.555	38.2
772.734	38.15
772.913	39.33
773.092	39.62
773.271	39.4
773.449	39.4
773.628	39.8
773.807	39.92
773.986	40.07
774.165	39.94
774.344	39.66
774.523	39.58
774.701	40.61
774.88	41.34
775.059	40.54
775.238	40.86
775.417	39.84
775.595	39.68
775.774	39.79
775.953	39.14
776.131	39.82
776.31	40.48
776.489	40.38
776.667	40.07
776.846	38.87
777.025	39.52
777.203	39.81
777.382	40.63
777.56	40.88
777.739	40.65
777.917	41.5
778.096	40.91
778.274	39.82
778.453	39.49
778.631	39.17
778.81	39.74
778.988	39.53
779.166	38.79
779.345	39.04
779.523	39.32
779.702	38.42
779.88	37.64
780.058	38.52
780.237	38.71
780.415	39.63
780.593	39.73
780.771	38.89
780.95	38.48
781.128	39.5
781.306	39.29
781.484	38.12
781.662	39.18
781.841	39.08
782.019	38.65
782.197	37.77
782.375	36.75
782.553	36.22
782.731	36.35
782.909	36.84
783.087	35.74
783.265	35.25
783.443	35.82
783.621	35.46
783.799	35.82
783.977	36.14
784.155	36.98
784.333	38.16
784.511	38.74
784.689	39.08
784.867	39.18
785.045	39.16
785.223	39.16
785.4	39.3
785.578	38.65
785.756	39.32
785.934	38.89
786.112	38.61
786.289	38.51
786.467	38.99
786.645	39.25
786.823	39.29
787	39.51
787.178	39.99
787.356	41.04
787.533	41.5
787.711	41.22
787.889	41.96
788.066	42.61
788.244	41.8
788.421	41.15
788.599	40.9
788.776	41.61
788.954	41.49
789.131	41.12
789.309	40
789.486	40.1
789.664	39.93
789.841	39.6
790.019	39.46
790.196	40.74
790.373	40.85
790.551	41.26
790.728	40.09
790.906	40.3
791.083	41.76
791.26	40.93
791.437	40.13
791.615	40.26
791.792	38.48
791.969	37.99
792.146	36.85
792.324	37.19
792.501	36.64
792.678	37.32
792.855	37.66
793.032	36.3
793.209	37.42
793.387	37.87
793.564	37.99
793.741	39.4
793.918	39.88
794.095	40.73
794.272	40.05
794.449	40.09
794.626	40.79
794.803	40.41
794.98	41.17
795.157	39.78
795.334	40.06
795.511	39.59
795.688	38.83
795.864	38.09
796.041	37.43
796.218	37.25
796.395	36.97
796.572	35.8
796.749	36.69
796.925	36.3
797.102	37.39
797.279	37.41
797.456	37.8
797.632	39.3
797.809	39.02
797.986	38.4
798.162	38.65
798.339	38.71
798.516	38.75
798.692	38.28
798.869	37.11
799.046	37.02
799.222	36.53
799.399	37.1
799.575	36.11
799.752	36.85
799.928	36.92
800.105	36.67
800.281	36.64
800.458	36.65
800.634	36.23
800.811	36.95
800.987	37.26
801.163	37.26
801.34	36.36
801.516	36.59
801.692	37.38
801.869	38.05
802.045	38.52
802.221	38.6
802.398	39.28
802.574	40.06
802.75	40.58
802.926	41.13
803.103	41.52
803.279	42.14
803.455	42.51
803.631	41.53
803.807	40.33
803.983	39.5
804.16	39.16
804.336	37.66
804.512	37.29
804.688	37.19
804.864	37.13
805.04	36.46
805.216	36.09
805.392	35.54
805.568	35.98
805.744	36.54
805.92	36.85
806.096	36.91
806.272	36.71
806.448	36.88
806.623	36.02
806.799	35.16
806.975	35.14
807.151	34.82
807.327	35.29
807.503	34.58
807.678	34.09
807.854	35.31
808.03	36.15
808.206	38.43
808.381	36.96
808.557	38.1
808.733	38.23
808.908	38.82
809.084	39.82
809.26	38.81
809.435	38.42
809.611	39.25
809.787	38.06
809.962	36.35
810.138	34.77
810.313	35.79
810.489	35.62
810.664	35.79
810.84	35.47
811.015	34.02
811.191	35.04
811.366	35.22
811.542	34.95
811.717	36.3
811.892	36.63
812.068	37.63
812.243	38.08
812.419	37.14
812.594	36.51
812.769	36.62
812.944	36.83
813.12	35.11
813.295	34.68
813.47	33.78
813.645	33.48
813.821	34.51
813.996	33.04
814.171	31.21
814.346	31.68
814.521	31.06
814.697	31.45
814.872	32.34
815.047	33.4
815.222	34.85
815.397	36.18
815.572	35.86
815.747	35.97
815.922	36.7
816.097	37.51
816.272	38.54
816.447	38.42
816.622	38.86
816.797	37.51
816.972	36.61
817.147	35.88
817.322	35.95
817.496	34.6
817.671	33.89
817.846	33.14
818.021	34.46
818.196	32.62
818.371	33.6
818.545	33.6
818.72	34.87
818.895	35.06
819.069	35.44
819.244	35.42
819.419	36.97
819.594	36.92
819.768	37.8
819.943	37.82
820.117	38.79
820.292	39.15
820.467	39.55
820.641	39.53
820.816	40.4
820.99	40.52
821.165	40.71
821.339	40.89
821.514	41.08
821.688	41.03
821.863	41.22
822.037	41.29
822.212	41.44
822.386	41.31
822.56	41.3
822.735	41.13
822.909	41.07
823.084	41.03
823.258	40.63
823.432	40.84
823.606	40.89
823.781	40.39
823.955	39.89
824.129	39.76
824.303	39.79
824.478	40.04
824.652	40.13
824.826	39.75
825	39.7
825.174	39.89
825.348	39.56
825.523	39.3
825.697	40
825.871	40.67
826.045	40.3
826.219	40.37
826.393	39.87
826.567	39.27
826.741	39.31
826.915	38.82
827.089	38.76
827.263	38.85
827.437	38.96
827.611	38.36
827.784	37.97
827.958	37.87
828.132	37.87
828.306	38.09
828.48	38.44
828.654	39.42
828.827	39.67
829.001	40.23
829.175	40.1
829.349	40.47
829.522	40.5
829.696	40.73
829.87	40.29
830.044	39.78
830.217	38.63
830.391	38.56
830.565	36.51
830.738	36.89
830.912	35.37
831.085	34.78
831.259	34.29
831.432	35.02
831.606	35
831.779	35.88
831.953	34.95
832.126	35.17
832.3	35
832.473	36.36
832.647	36
832.82	36.81
832.994	36.91
833.167	37.21
833.34	36.5
833.514	36.3
833.687	35.97
833.86	35.92
834.034	36.66
834.207	37.02
834.38	36.29
834.553	36.29
834.727	35.87
834.9	35.25
835.073	34.97
835.246	35.01
835.419	34.72
835.593	34.74
835.766	35.13
835.939	35.43
836.112	34.55
836.285	35.12
836.458	35.89
836.631	34.98
836.804	35.98
836.977	34.27
837.15	34.24
837.323	33.62
837.496	32.56
837.669	33.33
837.842	30.05
838.015	29.73
838.188	28.47
838.361	27.18
838.533	28.93
838.706	30
838.879	32.11
839.052	32.68
839.225	34.22
839.398	34.84
839.57	33.65
839.743	35
839.916	37.11
840.088	37.56
840.261	37.33
840.434	36.57
840.607	37.49
840.779	37.23
840.952	36.35
841.124	36.63
841.297	36.12
841.47	37.27
841.642	37.39
841.815	34.99
841.987	34.29
842.16	34.14
842.332	34.81
842.505	30.46
842.677	30.31
842.85	32.05
843.022	31.71
843.194	31.22
843.367	26.83
843.539	26.99
843.712	28.66
843.884	30.6
844.056	30.55
844.229	31.13
844.401	31.91
844.573	31.46
844.745	28.23
844.918	22.43
845.09	25.77
845.262	28.14
845.434	28.16
845.606	22.34
845.779	19.39
845.951	20.05
846.123	18.91
846.295	19.86
846.467	20.79
846.639	23.32
846.811	28.11
846.983	27.68
847.155	27.63
847.327	25.62
847.499	30.67
847.671	32.25
847.843	35.85
848.015	36.31
848.187	35.87
848.359	34.66
848.531	36.74
848.703	39.12
848.875	39.32
849.047	38.28
849.218	37.08
849.39	38.48
849.562	38.09
849.734	35.18
849.905	35.5
850.077	32.43
850.249	29.52
850.421	25.29
850.592	25.68
850.764	24.92
850.936	29.38
851.107	33.34
851.279	33.09
851.451	36.45
851.622	37.28
851.794	34.47
851.965	35.8
852.137	37.06
852.308	38.3
852.48	36.15
852.651	36.99
852.823	34.09
852.994	31.89
853.166	31.07
853.337	26.36
853.509	26.81
853.68	24.21
853.851	27.88
854.023	28.06
854.194	25.87
854.365	26.74
854.537	22.33
854.708	23.16
854.879	21.23
855.05	21.24
855.222	20.17
855.393	17.25
855.564	21.66
855.735	17.3
855.906	13.91
856.078	11.73
856.249	6.87
856.42	11.08
856.591	8.92
856.762	10.35
856.933	9.89
857.104	13.35
857.275	12.71
857.446	11.31
857.617	19.54
857.788	20.76
857.959	23.6
858.13	25.21
858.301	26.41
858.472	27.01
858.643	24.76
858.814	25.76
858.985	24.48
859.155	21.29
859.326	23.7
859.497	17.1
859.668	21.87
859.839	23.51
860.009	22.13
860.18	25.56
860.351	22.34
860.522	26.69
860.692	24.13
860.863	20.41
861.034	20.25
861.204	17.8
861.375	17.23
861.546	14.43
861.716	13.05
861.887	15.65
862.057	12.55
862.228	9.48
862.398	10.63
862.569	5.66
862.739	7.98
862.91	12.01
863.08	10.42
863.251	12.99
863.421	12.87
863.592	12.47
863.762	5.7
863.932	7.09
864.103	13.42
864.273	11.82
864.443	17.59
864.614	17.64
864.784	14.05
864.954	17.09
865.125	15.18
865.295	12.1
865.465	10.21
865.635	11.78
865.805	12.23
865.976	9.65
866.146	8.74
866.316	5.44
866.486	8.16
866.656	5.71
866.826	4.64
866.996	11.27
867.166	16.35
867.336	14.13
867.506	16.26
867.676	12.89
867.846	10.37
868.016	10.51
868.186	7.56
868.356	9.01
868.526	16.66
868.696	19.87
868.866	14.84
869.036	15.16
869.206	24.1
869.376	33.62
869.545	34.46
869.715	35.22
869.885	29.99
870.055	40.43
870.224	36.65
870.394	33.83
870.564	28.59
870.734	25.13
870.903	20.8
871.073	16.02
871.243	10.06
871.412	10.13
871.582	11.22
871.751	17.64
871.921	7.41
872.091	8.85
872.26	9.39
872.43	12.64
872.599	17.19
872.769	22.36
872.938	25.46
873.108	23.31
873.277	21.6
873.446	20.28
873.616	19.77
873.785	20.08
873.955	21.12
874.124	21
874.293	16.75
874.463	12.18
874.632	6
874.801	4.83
874.971	9
875.14	2.5
875.309	3.16
875.478	3.71
875.647	2.77
875.817	5.65
875.986	0.81
876.155	3.32
876.324	-0.37
876.493	3.87
876.662	0.66
876.831	0.75
877	7.69
877.17	11.62
877.339	10.79
877.508	10.86
877.677	12.32
877.846	16.44
878.015	18.92
878.184	23.33
878.352	22.57
878.521	21.86
878.69	22.04
878.859	21.35
879.028	19.5
879.197	19.36
879.366	24.74
879.534	24.49
879.703	28.05
879.872	28.81
880.041	28.26
880.21	29.97
880.378	31.33
880.547	32.38
880.716	32.86
880.884	33.08
881.053	33.72
881.222	33.71
881.39	35
881.559	33.86
881.727	33.51
881.896	34.33
882.065	33.85
882.233	34.41
882.402	34.19
882.57	34.62
882.739	34.85
882.907	35.05
883.076	35.79
883.244	34.69
883.412	35.77
883.581	36.14
883.749	36.29
883.918	36.25
884.086	35.59
884.254	34.95
884.423	35.26
884.591	33.62
884.759	33.95
884.927	32.98
885.096	32.09
885.264	30.72
885.432	29.37
885.6	28.16
885.769	27.69
885.937	27.02
886.105	28.28
886.273	24.84
886.441	26.58
886.609	24.97
886.777	23.99
886.945	26.56
887.113	24.27
887.281	26.1
887.449	27.43
887.617	25.29
887.785	24.42
887.953	24.61
888.121	27.38
888.289	29.57
888.457	30.67
888.625	25.01
888.793	22.56
888.961	24.89
889.129	22.54
889.296	18.35
889.464	22.39
889.632	23.62
889.8	20.65
889.967	17.61
890.135	12.12
