Data from 2938471_Reflection_3.txt Node
Date: Wed Jun 17 13:34:21 EDT 2015
User: robert
Spectrometer: USB4E03002
Autoset integration time: false
Trigger mode: 4
Integration Time (sec): 1.000000E-1
Scans to average: 10
Electric dark correction enabled: true
Nonlinearity correction enabled: false
Boxcar width: 5
Stray light correction enabled: false
XAxis mode: Wavelengths
Stop averaging: false
Number of Pixels in Spectrum: 3648
>>>>>Begin Spectral Data<<<<<
177.575	-17.65
177.794	9.8
178.014	-9.45
178.233	-7.82
178.452	30.4
178.672	21.75
178.891	52.46
179.11	-4.82
179.33	3.92
179.549	16.53
179.768	11.79
179.987	8.55
180.207	-5.87
180.426	-29.86
180.645	-49.79
180.864	-30.88
181.084	-39.87
181.303	-273.48
181.522	280.26
181.741	157.63
181.96	148.91
182.179	131.46
182.398	117.79
182.618	107.35
182.837	82.8
183.056	44.09
183.275	31.19
183.494	20.64
183.713	15.68
183.932	50.16
184.151	1.13
184.37	-22.05
184.589	26.59
184.808	59.16
185.027	82.27
185.246	139
185.465	100.79
185.684	103.42
185.903	136.97
186.122	202.8
186.341	676.87
186.56	1489.38
186.779	366.89
186.998	1207.8
187.216	-98.4
187.435	-235.81
187.654	2700
187.873	-921.81
188.092	259.18
188.311	614.27
188.53	785.78
188.748	746.04
188.967	2216.58
189.186	-156.32
189.405	-17932.26
189.623	519.55
189.842	285.71
190.061	224.29
190.28	229.69
190.498	-119.35
190.717	-903.46
190.936	1490.53
191.154	280.16
191.373	182.82
191.592	194.19
191.81	323.44
192.029	312.34
192.248	473.38
192.466	-505.43
192.685	-791.15
192.904	161.28
193.122	183.5
193.341	90.89
193.559	245.96
193.778	254.57
193.996	353.5
194.215	1091.59
194.433	367.24
194.652	163.41
194.87	41.86
195.089	95.79
195.307	344.58
195.526	390.14
195.744	481.84
195.963	241.25
196.181	159.09
196.399	161.8
196.618	177.99
196.836	191.03
197.055	314.6
197.273	604.18
197.491	289.79
197.71	231.69
197.928	299.39
198.146	379.82
198.365	413.75
198.583	4748.8
198.801	-138.84
199.019	-181.56
199.238	-257.93
199.456	2.48
199.674	40.51
199.892	-145.14
200.111	-372.37
200.329	341.57
200.547	2201.37
200.765	-131.08
200.983	-155.02
201.202	282.48
201.42	288.69
201.638	193.55
201.856	102.78
202.074	83.89
202.292	67.12
202.51	84.13
202.728	67.18
202.946	59.19
203.165	63.02
203.383	80.91
203.601	28.82
203.819	13.23
204.037	9.99
204.255	-36.18
204.473	-502.9
204.691	93.04
204.909	-5.68
205.127	44.57
205.345	-115.36
205.562	-72.38
205.78	-102.76
205.998	331.77
206.216	345.58
206.434	302.9
206.652	40.91
206.87	59.1
207.088	67.39
207.306	46.59
207.523	0.37
207.741	26.03
207.959	59.8
208.177	28.33
208.395	29.23
208.612	28.19
208.83	53.02
209.048	34.86
209.266	24.76
209.483	26.02
209.701	10.01
209.919	81.8
210.136	42.81
210.354	37.8
210.572	48.28
210.79	40.58
211.007	40.2
211.225	28.46
211.442	20.04
211.66	13.37
211.878	-6.92
212.095	-71.59
212.313	-63.05
212.53	-50.85
212.748	-59.98
212.966	-56.03
213.183	-56.66
213.401	-64.74
213.618	-66.15
213.836	-58.87
214.053	-92.27
214.271	-120.98
214.488	36.17
214.705	15.45
214.923	-18.18
215.14	-25.16
215.358	8.27
215.575	17.68
215.793	71.46
216.01	57.85
216.227	70.42
216.445	61.79
216.662	48.25
216.879	42.64
217.097	42.34
217.314	54.29
217.531	60.1
217.749	55.51
217.966	55.28
218.183	58.52
218.4	44.96
218.618	31.43
218.835	32.03
219.052	43.13
219.269	38.23
219.487	36.16
219.704	27.46
219.921	13.92
220.138	15.54
220.355	19.4
220.572	14.45
220.79	31.49
221.007	28.47
221.224	31.5
221.441	24.57
221.658	30.62
221.875	29.14
222.092	29.47
222.309	34.88
222.526	27.04
222.743	17.65
222.96	20.27
223.177	14.39
223.394	8.74
223.611	9.73
223.828	11.19
224.045	11.96
224.262	14.24
224.479	12.22
224.696	9.85
224.913	8.69
225.13	7.73
225.347	5.23
225.564	5.62
225.781	6.97
225.997	4.92
226.214	4.86
226.431	2.79
226.648	1.71
226.865	1.82
227.082	2.62
227.298	4.45
227.515	4.22
227.732	4.03
227.949	2.37
228.165	2.25
228.382	3.97
228.599	4.17
228.816	4.32
229.032	3.7
229.249	3.47
229.466	2.56
229.682	-0.04
229.899	-0.52
230.116	-1.41
230.332	-0.79
230.549	-2.09
230.765	-5.18
230.982	-6.71
231.199	-6.69
231.415	-5.57
231.632	-4.21
231.848	-1.22
232.065	-0.71
232.281	-1.23
232.498	-1.35
232.714	0.65
232.931	2.28
233.147	3.77
233.364	3.26
233.58	3.36
233.797	5.81
234.013	4.29
234.23	3.03
234.446	2.99
234.662	4.79
234.879	5.57
235.095	5.11
235.312	3.41
235.528	2.87
235.744	2.43
235.961	3.84
236.177	2.13
236.393	3.43
236.61	2.02
236.826	2.19
237.042	0.95
237.258	0.84
237.475	0.13
237.691	3.01
237.907	2.24
238.123	3.37
238.339	3.53
238.556	2.93
238.772	2.01
238.988	1.73
239.204	1.35
239.42	1.81
239.636	2.29
239.853	1.55
240.069	0.55
240.285	0.14
240.501	-0.14
240.717	0.16
240.933	-0.62
241.149	-0.62
241.365	0.02
241.581	0.43
241.797	-0.29
242.013	-0.81
242.229	-0.12
242.445	-0.21
242.661	0.54
242.877	1.09
243.093	0.58
243.309	0.6
243.525	0.83
243.741	1.24
243.957	1.31
244.173	2.04
244.388	1.53
244.604	1.15
244.82	1.39
245.036	1.03
245.252	0.76
245.468	0.29
245.683	0.85
245.899	0.38
246.115	0.22
246.331	0.04
246.547	0.03
246.762	0.13
246.978	0.21
247.194	-0.17
247.409	-0.21
247.625	-0.5
247.841	0.23
248.057	-0.19
248.272	0.18
248.488	-0.08
248.703	-0.31
248.919	-0.24
249.135	-0.74
249.35	-0.79
249.566	-0.14
249.782	-0.89
249.997	-0.98
250.213	-1.22
250.428	-0.57
250.644	-0.32
250.859	0.07
251.075	0.7
251.29	0.14
251.506	0.44
251.721	0.35
251.937	0
252.152	0.24
252.368	0.99
252.583	0.19
252.798	0.11
253.014	0.36
253.229	-0.61
253.445	-0.93
253.66	-0.54
253.875	0.54
254.091	-0.68
254.306	-0.32
254.521	0.95
254.737	0.03
254.952	0.3
255.167	-0.35
255.383	0.07
255.598	0.78
255.813	0.39
256.028	0.82
256.244	0.37
256.459	1.33
256.674	1.02
256.889	0.24
257.104	0.03
257.32	0.53
257.535	0.59
257.75	-0.06
257.965	-0.38
258.18	-0.47
258.395	-0.52
258.61	-0.49
258.826	-0.91
259.041	-0.94
259.256	-0.81
259.471	-0.46
259.686	-1.06
259.901	-1.38
260.116	-1.06
260.331	-0.83
260.546	-0.81
260.761	-1.02
260.976	-1.05
261.191	-0.46
261.406	-0.45
261.621	-0.73
261.836	-1.14
262.05	-0.75
262.265	-0.24
262.48	-0.11
262.695	-0.33
262.91	-0.45
263.125	-0.62
263.34	-0.27
263.555	-0.77
263.769	-0.71
263.984	-0.42
264.199	0.48
264.414	-0.01
264.629	0.9
264.843	1.32
265.058	0.62
265.273	1.04
265.488	1.04
265.702	0.81
265.917	0.87
266.132	0.59
266.346	0.56
266.561	0.32
266.776	0.94
266.99	0.24
267.205	-0.43
267.42	0.63
267.634	0.64
267.849	0.42
268.063	-0.01
268.278	0.25
268.492	1.18
268.707	1.13
268.922	0.71
269.136	0.24
269.351	0.04
269.565	-0.02
269.78	-0.61
269.994	-0.79
270.209	-0.32
270.423	0.03
270.637	-0.18
270.852	-0.61
271.066	-0.72
271.281	-0.22
271.495	0.15
271.709	0.51
271.924	0.61
272.138	1
272.353	1.66
272.567	1.12
272.781	0.86
272.996	0.95
273.21	1.2
273.424	1.51
273.638	1.57
273.853	1.87
274.067	1.58
274.281	1.52
274.495	1.34
274.71	0.63
274.924	0.97
275.138	1.01
275.352	1.06
275.566	1.18
275.781	1.24
275.995	-0.05
276.209	-0.09
276.423	-0.34
276.637	-0.03
276.851	-0.5
277.065	-0.74
277.279	-0.26
277.493	0.1
277.707	-0.03
277.921	-0.7
278.135	-0.58
278.349	0.13
278.563	-0.46
278.777	-0.53
278.991	-0.86
279.205	-0.21
279.419	-0.19
279.633	-0.82
279.847	-0.52
280.061	-0.27
280.275	-0.01
280.489	-0.12
280.703	0.14
280.917	0.46
281.131	0.7
281.344	0.62
281.558	0.45
281.772	0.73
281.986	0.91
282.2	0.42
282.414	0.17
282.627	-0.17
282.841	-0.33
283.055	-0.24
283.269	-0.22
283.482	-0.16
283.696	-0.02
283.91	0.07
284.123	0.31
284.337	0.43
284.551	0.56
284.764	0.57
284.978	0.94
285.192	0.98
285.405	0.97
285.619	0.82
285.833	1.14
286.046	1.2
286.26	1.22
286.473	1.29
286.687	1.1
286.9	1.25
287.114	1.41
287.327	1.42
287.541	1.94
287.754	1.98
287.968	1.88
288.181	1.37
288.395	1.21
288.608	1.3
288.822	1.15
289.035	1.59
289.248	1.41
289.462	1.88
289.675	1.91
289.889	1.7
290.102	1.46
290.315	1.63
290.529	2.09
290.742	2.55
290.955	2.46
291.169	2.39
291.382	2.35
291.595	2.75
291.808	2.58
292.022	2.79
292.235	2.76
292.448	2.68
292.661	2.43
292.875	1.88
293.088	1.62
293.301	1.85
293.514	1.91
293.727	1.55
293.94	1.19
294.153	1.13
294.367	1.36
294.58	1.27
294.793	1.49
295.006	2
295.219	2.1
295.432	2.11
295.645	1.96
295.858	1.89
296.071	2.09
296.284	2.42
296.497	2.4
296.71	2.06
296.923	1.97
297.136	2.08
297.349	2.01
297.562	2.2
297.775	2.67
297.988	2.81
298.201	2.99
298.414	2.78
298.626	2.61
298.839	2.44
299.052	2.44
299.265	2.68
299.478	2.44
299.691	2.39
299.903	2.43
300.116	2.03
300.329	1.85
300.542	1.64
300.755	2.28
300.967	1.98
301.18	2.73
301.393	2.89
301.605	2.98
301.818	2.97
302.031	3.18
302.243	2.98
302.456	3.02
302.669	2.97
302.881	3.62
303.094	3.18
303.307	3.45
303.519	2.77
303.732	2.83
303.944	2.74
304.157	2.66
304.37	2.92
304.582	3.04
304.795	2.83
305.007	3.05
305.22	2.67
305.432	2.64
305.645	2.65
305.857	3.24
306.069	3.67
306.282	3.71
306.494	4.04
306.707	3.74
306.919	4.01
307.132	4.07
307.344	4.47
307.556	4.2
307.769	4.42
307.981	4.54
308.193	4.03
308.406	3.58
308.618	3.61
308.83	3.5
309.043	3.36
309.255	3.37
309.467	3.5
309.679	3.44
309.892	3.28
310.104	3.15
310.316	3.02
310.528	3.51
310.74	3.52
310.953	3.69
311.165	3.78
311.377	3.91
311.589	3.64
311.801	3.93
312.013	3.55
312.225	3.72
312.437	3.68
312.649	3.82
312.862	3.45
313.074	3.57
313.286	3.11
313.498	3.02
313.71	2.92
313.922	3.01
314.134	2.64
314.346	2.77
314.558	3.26
314.77	3.19
314.982	2.76
315.193	2.45
315.405	1.94
315.617	2.13
315.829	1.88
316.041	1.82
316.253	2.07
316.465	2.57
316.677	2.5
316.888	2.36
317.1	2.61
317.312	3.05
317.524	3.47
317.736	3.71
317.947	4.29
318.159	4.36
318.371	4.31
318.583	3.87
318.794	3.26
319.006	3.25
319.218	2.82
319.43	2.84
319.641	3.32
319.853	2.67
320.064	3.16
320.276	2.91
320.488	3.41
320.699	3.4
320.911	4.26
321.123	4.4
321.334	4.81
321.546	5.21
321.757	5.06
321.969	4.73
322.18	5.34
322.392	5.11
322.603	5.39
322.815	4.88
323.026	5.07
323.238	4.63
323.449	4.56
323.661	4.37
323.872	4.39
324.083	4.69
324.295	4.8
324.506	4.72
324.718	4.83
324.929	4.64
325.14	4.86
325.352	4.89
325.563	5.15
325.774	5.33
325.986	5.11
326.197	5.02
326.408	4.57
326.62	4.13
326.831	4.13
327.042	4.26
327.253	4.01
327.464	3.98
327.676	3.97
327.887	3.27
328.098	3.39
328.309	3.51
328.52	3.61
328.732	3.71
328.943	4.04
329.154	4.28
329.365	4.25
329.576	4.06
329.787	4.59
329.998	4.32
330.209	5.06
330.42	4.91
330.631	4.89
330.842	4.84
331.053	5.26
331.264	5.06
331.475	4.81
331.686	4.37
331.897	4.53
332.108	4.31
332.319	4.4
332.53	4.11
332.741	4
332.952	3.84
333.163	4.13
333.374	4.2
333.585	4.61
333.795	4.92
334.006	5.67
334.217	5.8
334.428	5.86
334.639	5.94
334.849	6.49
335.06	6.62
335.271	6.74
335.482	6.86
335.692	6.6
335.903	6.4
336.114	6.3
336.325	5.93
336.535	6.32
336.746	6.07
336.957	6.34
337.167	5.97
337.378	5.84
337.589	6.07
337.799	5.62
338.01	5.88
338.22	6
338.431	5.56
338.642	5.33
338.852	5.08
339.063	5.4
339.273	5.34
339.484	5.25
339.694	5.73
339.905	5.51
340.115	5.52
340.326	5.34
340.536	5.52
340.746	5.87
340.957	6.23
341.167	5.9
341.378	5.91
341.588	5.9
341.799	6.27
342.009	5.87
342.219	5.74
342.43	5.82
342.64	5.94
342.85	5.48
343.061	5.59
343.271	5.43
343.481	5.8
343.691	6.11
343.902	6.11
344.112	5.73
344.322	5.9
344.532	6.02
344.743	6.37
344.953	6.27
345.163	6.74
345.373	6.59
345.583	6.38
345.793	6.37
346.004	6.08
346.214	5.73
346.424	5.77
346.634	5.78
346.844	5.96
347.054	5.61
347.264	5.84
347.474	5.61
347.684	5.9
347.894	6.16
348.104	6
348.314	6.18
348.524	6.44
348.734	6.68
348.944	6.74
349.154	6.66
349.364	6.55
349.574	6.35
349.784	6.7
349.994	6.75
350.204	7.11
350.413	7.5
350.623	7.75
350.833	7.68
351.043	7.86
351.253	8.11
351.463	7.94
351.672	8.3
351.882	8.56
352.092	8.23
352.302	8.12
352.511	7.75
352.721	7.69
352.931	7.36
353.141	7.6
353.35	7.33
353.56	7.39
353.77	7.66
353.979	7.44
354.189	7.42
354.399	7.47
354.608	7.55
354.818	7.7
355.027	7.88
355.237	7.64
355.447	7.4
355.656	7.38
355.866	7.08
356.075	7.07
356.285	7.09
356.494	7
356.704	7
356.913	6.74
357.123	6.72
357.332	6.48
357.542	6.75
357.751	7.12
357.96	7.29
358.17	7.74
358.379	8.02
358.589	8.05
358.798	8.26
359.007	8.17
359.217	8.57
359.426	8.55
359.635	8.68
359.845	8.75
360.054	8.63
360.263	8.58
360.472	8.29
360.682	8.42
360.891	8.65
361.1	8.72
361.309	8.95
361.519	8.82
361.728	8.92
361.937	8.94
362.146	8.99
362.355	9.03
362.564	9.16
362.774	9.42
362.983	9.2
363.192	8.82
363.401	8.73
363.61	8.63
363.819	8.83
364.028	8.82
364.237	8.93
364.446	8.83
364.655	8.7
364.864	8.91
365.073	8.64
365.282	8.75
365.491	9.49
365.7	9.62
365.909	9.81
366.118	9.64
366.327	9.73
366.536	9.69
366.745	9.6
366.954	10
367.162	9.85
367.371	10
367.58	10.14
367.789	9.87
367.998	9.65
368.207	9.71
368.415	9.65
368.624	9.86
368.833	10.04
369.042	10.37
369.25	10.41
369.459	10.68
369.668	10.82
369.877	10.71
370.085	10.77
370.294	10.95
370.503	10.79
370.711	11.15
370.92	11.21
371.129	10.87
371.337	10.68
371.546	10.57
371.754	10.36
371.963	10.28
372.171	10.59
372.38	10.51
372.589	10.48
372.797	10.88
373.006	10.74
373.214	10.84
373.423	10.98
373.631	11.24
373.84	11.36
374.048	11.69
374.256	11.96
374.465	11.93
374.673	11.87
374.882	12.17
375.09	12.27
375.298	12.5
375.507	12.57
375.715	12.83
375.923	12.96
376.132	12.97
376.34	13.07
376.548	13.35
376.757	13.34
376.965	13.47
377.173	13.37
377.381	13.31
377.59	13.25
377.798	13.31
378.006	13.35
378.214	13.35
378.423	13.67
378.631	13.39
378.839	13.34
379.047	13.5
379.255	13.71
379.463	13.97
379.671	14.25
379.879	14.57
380.088	14.6
380.296	14.76
380.504	14.87
380.712	14.92
380.92	15.15
381.128	15.09
381.336	15.27
381.544	15.25
381.752	15.2
381.96	15.19
382.168	15.02
382.376	14.97
382.584	14.85
382.791	14.91
382.999	14.86
383.207	15.08
383.415	15.3
383.623	15.65
383.831	15.64
384.039	15.78
384.247	15.66
384.454	15.8
384.662	16.17
384.87	16.53
385.078	16.69
385.285	16.94
385.493	16.89
385.701	17.04
385.909	16.77
386.116	17.14
386.324	17.19
386.532	17.57
386.739	17.82
386.947	17.76
387.155	17.83
387.362	18.14
387.57	18.38
387.778	18.7
387.985	18.76
388.193	19.15
388.4	19.36
388.608	19.8
388.816	19.95
389.023	20.28
389.231	20.52
389.438	20.8
389.646	20.87
389.853	20.95
390.061	21.01
390.268	21.14
390.475	21.37
390.683	21.56
390.89	21.62
391.098	21.83
391.305	21.84
391.512	22.03
391.72	21.94
391.927	22.08
392.135	22.25
392.342	22.4
392.549	22.63
392.756	22.56
392.964	22.76
393.171	22.85
393.378	22.95
393.586	23.2
393.793	23.36
394	23.64
394.207	23.79
394.414	23.98
394.622	24.3
394.829	24.53
395.036	24.73
395.243	24.81
395.45	24.9
395.657	25.05
395.864	25.14
396.072	25.43
396.279	25.71
396.486	25.97
396.693	26.08
396.9	25.99
397.107	26.18
397.314	26.25
397.521	26.4
397.728	26.79
397.935	26.95
398.142	27.13
398.349	27.16
398.556	27.39
398.763	27.46
398.97	27.62
399.177	27.85
399.383	27.84
399.59	28.12
399.797	28.36
400.004	28.35
400.211	28.44
400.418	28.47
400.625	28.66
400.831	28.58
401.038	28.65
401.245	28.68
401.452	28.83
401.658	28.94
401.865	29
402.072	28.96
402.279	28.99
402.485	28.95
402.692	29.07
402.899	29.16
403.105	29.18
403.312	29.25
403.519	29.33
403.725	29.42
403.932	29.58
404.138	29.53
404.345	29.64
404.552	29.71
404.758	29.94
404.965	29.98
405.171	30.01
405.378	30.02
405.584	30.02
405.791	30.06
405.997	29.95
406.204	30.06
406.41	30.17
406.617	30.28
406.823	30.33
407.029	30.17
407.236	30.01
407.442	30.04
407.649	30.25
407.855	30.33
408.061	30.23
408.268	30.23
408.474	30.27
408.68	30.25
408.887	30.26
409.093	30.19
409.299	30.37
409.505	30.48
409.712	30.29
409.918	30.14
410.124	30.01
410.33	30.07
410.537	30.26
410.743	30.04
410.949	30.17
411.155	30.09
411.361	30.18
411.567	30.03
411.773	30.02
411.98	30.14
412.186	30.49
412.392	30.53
412.598	30.61
412.804	30.4
413.01	30.31
413.216	30.17
413.422	30.17
413.628	30.28
413.834	30.4
414.04	30.32
414.246	30.15
414.452	29.97
414.658	29.98
414.864	30.01
415.07	30.19
415.275	30.31
415.481	30.22
415.687	30.27
415.893	30.22
416.099	30.14
416.305	30.25
416.511	30.39
416.716	30.37
416.922	30.37
417.128	30.39
417.334	30.4
417.539	30.26
417.745	30.27
417.951	30.17
418.157	30.1
418.362	30.1
418.568	30.07
418.774	29.99
418.979	29.92
419.185	29.92
419.391	29.79
419.596	29.67
419.802	29.68
420.008	29.62
420.213	29.03
420.419	28.97
420.624	28.98
420.83	28.91
421.035	28.9
421.241	29.03
421.446	28.89
421.652	28.87
421.857	28.82
422.063	28.82
422.268	28.85
422.474	29.4
422.679	29.47
422.885	29.37
423.09	29.43
423.295	29.37
423.501	29.28
423.706	29.4
423.911	29.38
424.117	29.32
424.322	29.25
424.527	29.24
424.733	29.24
424.938	29.18
425.143	29.27
425.349	29.15
425.554	29.27
425.759	29.22
425.964	29.05
426.169	29.03
426.375	29.14
426.58	29.14
426.785	29.24
426.99	29.23
427.195	29.19
427.4	29.07
427.605	29.15
427.811	29
428.016	28.83
428.221	29.01
428.426	29.12
428.631	29.15
428.836	29.22
429.041	29.24
429.246	29.15
429.451	29.1
429.656	29.19
429.861	29.17
430.066	29.17
430.271	29.29
430.476	29.27
430.681	29.29
430.886	29.28
431.09	29.3
431.295	29.25
431.5	29.28
431.705	29.21
431.91	29.18
432.115	29.16
432.32	29.11
432.524	28.91
432.729	28.87
432.934	28.76
433.139	28.75
433.343	28.71
433.548	28.57
433.753	28.6
433.958	28.71
434.162	28.69
434.367	28.67
434.572	28.76
434.776	28.95
434.981	28.94
435.186	29.03
435.39	29.08
435.595	29.01
435.799	29.04
436.004	29.02
436.209	29.06
436.413	29.14
436.618	29.16
436.822	29.18
437.027	29.25
437.231	29.2
437.436	29.19
437.64	29.14
437.845	29.13
438.049	29.18
438.253	29.28
438.458	29.37
438.662	29.35
438.867	29.36
439.071	29.33
439.275	29.25
439.48	29.25
439.684	29.23
439.888	29.23
440.093	29.24
440.297	29.22
440.501	29.1
440.706	28.98
440.91	28.96
441.114	28.87
441.318	28.84
441.523	28.8
441.727	28.87
441.931	28.87
442.135	28.82
442.339	28.78
442.543	28.76
442.748	28.82
442.952	28.85
443.156	28.74
443.36	28.87
443.564	28.89
443.768	28.96
443.972	28.92
444.176	28.92
444.38	28.92
444.584	29.01
444.788	29
444.992	28.93
445.196	28.8
445.4	28.85
445.604	28.72
445.808	28.64
446.012	28.58
446.216	28.56
446.42	28.4
446.624	28.45
446.828	28.33
447.032	28.3
447.235	28.29
447.439	28.4
447.643	28.27
447.847	28.27
448.051	28.37
448.254	28.41
448.458	28.38
448.662	28.54
448.866	28.46
449.069	28.39
449.273	28.45
449.477	28.49
449.681	28.44
449.884	28.6
450.088	28.62
450.292	28.52
450.495	28.46
450.699	28.58
450.902	28.52
451.106	28.43
451.31	28.5
451.513	28.44
451.717	28.31
451.92	28.28
452.124	28.21
452.327	28.17
452.531	28.17
452.734	28.24
452.938	28.05
453.141	28.14
453.345	28.17
453.548	28.19
453.752	28.26
453.955	28.33
454.158	28.29
454.362	28.33
454.565	28.38
454.769	28.34
454.972	28.31
455.175	28.37
455.379	28.28
455.582	28.33
455.785	28.3
455.988	28.15
456.192	28.14
456.395	28.17
456.598	28.17
456.801	28.21
457.005	28.28
457.208	28.29
457.411	28.37
457.614	28.33
457.817	28.4
458.021	28.42
458.224	28.54
458.427	28.51
458.63	28.59
458.833	28.59
459.036	28.52
459.239	28.5
459.442	28.44
459.645	28.36
459.848	28.46
460.051	28.4
460.254	28.54
460.457	28.51
460.66	28.63
460.863	28.49
461.066	28.52
461.269	28.73
461.472	28.75
461.675	28.71
461.878	28.77
462.081	28.81
462.284	28.94
462.486	28.9
462.689	28.89
462.892	28.86
463.095	28.91
463.298	28.86
463.5	28.81
463.703	28.93
463.906	29.06
464.109	29.18
464.311	29.27
464.514	29.26
464.717	29.15
464.92	29.26
465.122	29.32
465.325	29.41
465.528	29.55
465.73	29.61
465.933	29.52
466.135	29.57
466.338	29.54
466.541	29.45
466.743	29.44
466.946	29.6
467.148	29.48
467.351	29.49
467.553	29.42
467.756	29.33
467.958	29.23
468.161	29.3
468.363	29.32
468.566	29.28
468.768	29.33
468.971	29.32
469.173	29.27
469.375	29.33
469.578	29.29
469.78	29.38
469.983	29.4
470.185	29.48
470.387	29.43
470.59	29.36
470.792	29.44
470.994	29.47
471.196	29.42
471.399	29.43
471.601	29.39
471.803	29.31
472.005	29.26
472.208	29.22
472.41	29.21
472.612	29.31
472.814	29.29
473.016	29.29
473.218	29.21
473.421	29.38
473.623	29.32
473.825	29.4
474.027	29.53
474.229	29.63
474.431	29.69
474.633	29.69
474.835	29.64
475.037	29.79
475.239	29.77
475.441	29.72
475.643	29.63
475.845	29.64
476.047	29.7
476.249	29.63
476.451	29.63
476.653	29.68
476.855	29.7
477.057	29.68
477.258	29.65
477.46	29.64
477.662	29.61
477.864	29.57
478.066	29.55
478.268	29.59
478.469	29.65
478.671	29.62
478.873	29.6
479.075	29.64
479.276	29.71
479.478	29.64
479.68	29.64
479.882	29.72
480.083	29.74
480.285	29.79
480.487	29.74
480.688	29.73
480.89	29.77
481.091	29.73
481.293	29.72
481.495	29.66
481.696	29.67
481.898	29.7
482.099	29.67
482.301	29.63
482.502	29.62
482.704	29.57
482.905	29.55
483.107	29.51
483.308	29.45
483.51	29.39
483.711	29.39
483.913	29.41
484.114	29.34
484.315	29.35
484.517	29.39
484.718	29.34
484.92	29.39
485.121	29.43
485.322	29.43
485.524	29.5
485.725	29.51
485.926	29.48
486.127	29.42
486.329	29.39
486.53	29.41
486.731	29.38
486.932	29.39
487.134	29.39
487.335	29.34
487.536	29.34
487.737	29.3
487.938	29.32
488.139	29.36
488.341	29.39
488.542	29.46
488.743	29.39
488.944	29.4
489.145	29.39
489.346	29.4
489.547	29.39
489.748	29.43
489.949	29.47
490.15	29.43
490.351	29.41
490.552	29.41
490.753	29.38
490.954	29.38
491.155	29.36
491.356	29.38
491.557	29.42
491.758	29.43
491.959	29.38
492.159	29.39
492.36	29.39
492.561	29.38
492.762	29.37
492.963	29.45
493.164	29.54
493.364	29.68
493.565	29.64
493.766	29.51
493.967	29.58
494.167	29.64
494.368	29.66
494.569	29.77
494.769	29.83
494.97	29.82
495.171	29.75
495.371	29.72
495.572	29.63
495.773	29.68
495.973	29.73
496.174	29.68
496.375	29.62
496.575	29.6
496.776	29.57
496.976	29.58
497.177	29.6
497.377	29.6
497.578	29.51
497.778	29.5
497.979	29.48
498.179	29.49
498.38	29.52
498.58	29.53
498.78	29.51
498.981	29.47
499.181	29.42
499.382	29.46
499.582	29.45
499.782	29.54
499.983	29.5
500.183	29.61
500.383	29.59
500.584	29.56
500.784	29.64
500.984	29.68
501.184	29.64
501.385	29.66
501.585	29.7
501.785	29.74
501.985	29.75
502.185	29.75
502.386	29.63
502.586	29.66
502.786	29.74
502.986	29.66
503.186	29.65
503.386	29.67
503.586	29.69
503.786	29.7
503.987	29.61
504.187	29.65
504.387	29.71
504.587	29.79
504.787	29.73
504.987	29.64
505.187	29.69
505.387	29.68
505.587	29.77
505.786	29.75
505.986	29.61
506.186	29.8
506.386	29.81
506.586	29.81
506.786	29.75
506.986	29.78
507.186	29.89
507.386	29.86
507.585	29.86
507.785	29.82
507.985	29.88
508.185	29.97
508.384	29.85
508.584	29.68
508.784	29.68
508.984	29.7
509.183	29.77
509.383	29.69
509.583	29.67
509.782	29.72
509.982	29.74
510.182	29.66
510.381	29.57
510.581	29.63
510.781	29.7
510.98	29.66
511.18	29.65
511.379	29.63
511.579	29.7
511.778	29.76
511.978	29.66
512.177	29.72
512.377	29.77
512.576	29.85
512.776	29.94
512.975	29.94
513.175	29.97
513.374	29.96
513.573	29.95
513.773	29.85
513.972	29.85
514.172	29.89
514.371	29.87
514.57	29.86
514.77	29.84
514.969	29.83
515.168	29.93
515.367	29.95
515.567	30.02
515.766	30.01
515.965	30.07
516.164	30.07
516.364	30.13
516.563	30.12
516.762	30.14
516.961	30.23
517.16	30.19
517.359	30.15
517.559	30.17
517.758	30.13
517.957	30.09
518.156	30.14
518.355	30.12
518.554	30.1
518.753	30.04
518.952	30.07
519.151	30.02
519.35	30.08
519.549	30.13
519.748	30.15
519.947	30.23
520.146	30.36
520.345	30.33
520.544	30.36
520.743	30.38
520.942	30.39
521.141	30.47
521.339	30.47
521.538	30.45
521.737	30.56
521.936	30.59
522.135	30.55
522.333	30.45
522.532	30.41
522.731	30.48
522.93	30.52
523.129	30.57
523.327	30.49
523.526	30.5
523.725	30.46
523.923	30.41
524.122	30.4
524.321	30.39
524.519	30.49
524.718	30.51
524.917	30.49
525.115	30.47
525.314	30.46
525.512	30.39
525.711	30.37
525.909	30.35
526.108	30.33
526.306	30.34
526.505	30.34
526.703	30.26
526.902	30.25
527.1	30.23
527.299	30.19
527.497	30.18
527.696	30.22
527.894	30.19
528.092	30.24
528.291	30.24
528.489	30.26
528.688	30.29
528.886	30.34
529.084	30.38
529.283	30.39
529.481	30.45
529.679	30.49
529.877	30.53
530.076	30.59
530.274	30.59
530.472	30.6
530.67	30.57
530.869	30.56
531.067	30.56
531.265	30.56
531.463	30.61
531.661	30.6
531.859	30.6
532.057	30.58
532.255	30.56
532.454	30.56
532.652	30.58
532.85	30.58
533.048	30.51
533.246	30.49
533.444	30.46
533.642	30.48
533.84	30.44
534.038	30.42
534.236	30.47
534.434	30.56
534.632	30.59
534.83	30.63
535.027	30.63
535.225	30.66
535.423	30.69
535.621	30.67
535.819	30.63
536.017	30.71
536.215	30.71
536.412	30.65
536.61	30.51
536.808	30.37
537.006	30.34
537.203	30.36
537.401	30.43
537.599	30.42
537.797	30.46
537.994	30.45
538.192	30.47
538.39	30.54
538.587	30.61
538.785	30.74
538.983	30.81
539.18	30.8
539.378	30.73
539.575	30.67
539.773	30.67
539.97	30.69
540.168	30.66
540.366	30.64
540.563	30.63
540.761	30.61
540.958	30.57
541.155	30.57
541.353	30.5
541.55	30.53
541.748	30.57
541.945	30.56
542.143	30.51
542.34	30.5
542.537	30.53
542.735	30.43
542.932	30.44
543.129	30.39
543.327	30.32
543.524	30.4
543.721	30.4
543.919	30.41
544.116	30.45
544.313	30.51
544.51	30.56
544.708	30.58
544.905	30.64
545.102	30.56
545.299	30.65
545.496	30.62
545.693	30.55
545.891	30.54
546.088	30.51
546.285	30.49
546.482	30.55
546.679	30.47
546.876	30.31
547.073	30.23
547.27	30.26
547.467	30.29
547.664	30.35
547.861	30.4
548.058	30.42
548.255	30.41
548.452	30.34
548.649	30.21
548.846	30.33
549.043	30.42
549.24	30.48
549.437	30.53
549.633	30.43
549.83	30.39
550.027	30.38
550.224	30.37
550.421	30.46
550.618	30.5
550.814	30.52
551.011	30.47
551.208	30.47
551.405	30.42
551.601	30.39
551.798	30.37
551.995	30.45
552.191	30.42
552.388	30.41
552.585	30.37
552.781	30.38
552.978	30.31
553.175	30.36
553.371	30.38
553.568	30.44
553.764	30.48
553.961	30.53
554.157	30.52
554.354	30.56
554.55	30.54
554.747	30.51
554.943	30.6
555.14	30.67
555.336	30.68
555.533	30.7
555.729	30.72
555.926	30.69
556.122	30.63
556.318	30.63
556.515	30.66
556.711	30.76
556.907	30.8
557.104	30.76
557.3	30.78
557.496	30.83
557.693	30.77
557.889	30.91
558.085	30.9
558.281	30.97
558.478	30.91
558.674	30.88
558.87	30.87
559.066	30.8
559.262	30.78
559.459	30.75
559.655	30.73
559.851	30.89
560.047	30.75
560.243	30.84
560.439	30.84
560.635	30.86
560.831	30.92
561.027	30.91
561.223	30.97
561.419	30.93
561.615	30.87
561.811	30.73
562.007	30.72
562.203	30.74
562.399	30.66
562.595	30.78
562.791	30.87
562.987	31.02
563.183	31
563.379	30.98
563.575	30.99
563.771	31.13
563.966	31.3
564.162	31.33
564.358	31.34
564.554	31.35
564.75	31.21
564.945	31.11
565.141	30.94
565.337	31
565.533	31.03
565.728	31.05
565.924	30.91
566.12	30.82
566.315	30.73
566.511	30.78
566.707	30.78
566.902	30.76
567.098	30.93
567.293	31
567.489	30.94
567.684	30.89
567.88	30.89
568.076	31.02
568.271	31.11
568.467	31.13
568.662	31.12
568.858	31.12
569.053	31.25
569.248	31.13
569.444	31.08
569.639	31.11
569.835	31.04
570.03	31.02
570.225	30.99
570.421	30.93
570.616	30.96
570.812	31.02
571.007	30.96
571.202	30.9
571.397	30.97
571.593	30.91
571.788	30.88
571.983	30.92
572.178	30.89
572.374	30.8
572.569	30.84
572.764	30.8
572.959	30.61
573.154	30.71
573.35	30.67
573.545	30.66
573.74	30.77
573.935	30.75
574.13	30.83
574.325	30.92
574.52	31.03
574.715	30.95
574.91	30.96
575.105	31.15
575.3	30.99
575.495	31.02
575.69	30.93
575.885	30.85
576.08	30.82
576.275	30.86
576.47	30.81
576.665	30.79
576.86	30.8
577.055	30.86
577.25	30.65
577.444	30.85
577.639	30.94
577.834	31.08
578.029	31.26
578.224	31.3
578.418	31.2
578.613	31.15
578.808	31.3
579.003	31.36
579.197	31.21
579.392	31.37
579.587	31.29
579.781	31.33
579.976	31.39
580.171	31.38
580.365	31.52
580.56	31.57
580.755	31.56
580.949	31.44
581.144	31.4
581.338	31.45
581.533	31.61
581.727	31.54
581.922	31.45
582.116	31.3
582.311	31.2
582.505	31.12
582.7	31.08
582.894	31.27
583.089	31.34
583.283	31.29
583.478	31.43
583.672	31.32
583.866	31.38
584.061	31.26
584.255	31.2
584.449	31.23
584.644	31.31
584.838	31.27
585.032	31.22
585.226	31.08
585.421	31.26
585.615	31.26
585.809	31.23
586.003	31.31
586.198	31.57
586.392	31.7
586.586	31.62
586.78	31.66
586.974	31.65
587.168	31.64
587.363	31.85
587.557	31.79
587.751	31.75
587.945	31.8
588.139	31.82
588.333	31.69
588.527	31.63
588.721	31.74
588.915	31.69
589.109	31.85
589.303	31.94
589.497	31.9
589.691	31.89
589.885	32.03
590.079	32.15
590.273	32.14
590.466	32.03
590.66	31.98
590.854	31.84
591.048	31.83
591.242	31.76
591.436	31.56
591.629	31.62
591.823	31.7
592.017	31.58
592.211	31.46
592.404	31.45
592.598	31.54
592.792	31.57
592.986	31.76
593.179	31.73
593.373	31.69
593.567	31.98
593.76	31.82
593.954	31.76
594.147	31.72
594.341	31.78
594.535	31.82
594.728	31.99
594.922	32.12
595.115	32.1
595.309	32.25
595.502	32.33
595.696	32.23
595.889	32.18
596.083	32.2
596.276	32.19
596.47	32.15
596.663	32.08
596.856	31.98
597.05	31.95
597.243	31.95
597.437	31.92
597.63	31.89
597.823	31.94
598.017	32.08
598.21	32.09
598.403	32.15
598.596	32.18
598.79	32.24
598.983	32.19
599.176	32.16
599.369	32.13
599.563	32.05
599.756	31.9
599.949	31.76
600.142	31.79
600.335	31.72
600.528	31.79
600.722	31.71
600.915	31.69
601.108	31.78
601.301	31.81
601.494	31.94
601.687	31.83
601.88	32.01
602.073	32.06
602.266	31.91
602.459	31.97
602.652	31.98
602.845	32.02
603.038	32.13
603.231	32.13
603.424	32.14
603.617	31.93
603.809	32.16
604.002	32.12
604.195	32.12
604.388	32.24
604.581	32.21
604.774	32.24
604.966	32.23
605.159	32.11
605.352	31.99
605.545	31.97
605.737	32.18
605.93	31.99
606.123	32.05
606.316	32.04
606.508	32.03
606.701	32.13
606.894	32.1
607.086	32.11
607.279	32.06
607.471	32.25
607.664	32.24
607.857	32.12
608.049	32.03
608.242	32.18
608.434	32.23
608.627	32.18
608.819	32.19
609.012	32.13
609.204	32.08
609.397	32.27
609.589	32.29
609.782	32.36
609.974	32.34
610.166	32.53
610.359	32.43
610.551	32.36
610.743	32.31
610.936	32.33
611.128	32.26
611.32	32.3
611.513	32.3
611.705	32.29
611.897	32.23
612.09	32.35
612.282	32.24
612.474	32.1
612.666	32.16
612.858	32.37
613.051	32.3
613.243	32.5
613.435	32.48
613.627	32.41
613.819	32.24
614.011	32.41
614.203	32.51
614.395	32.6
614.588	32.49
614.78	32.5
614.972	32.41
615.164	32.57
615.356	32.52
615.548	32.66
615.74	32.65
615.932	32.78
616.124	32.62
616.315	32.62
616.507	32.76
616.699	32.79
616.891	32.85
617.083	32.82
617.275	32.67
617.467	32.68
617.659	32.62
617.85	32.65
618.042	32.68
618.234	32.68
618.426	32.64
618.618	32.42
618.809	32.51
619.001	32.53
619.193	32.54
619.384	32.47
619.576	32.5
619.768	32.48
619.959	32.46
620.151	32.35
620.343	32.34
620.534	32.17
620.726	32.16
620.917	32.24
621.109	32.26
621.301	32.41
621.492	32.53
621.684	32.58
621.875	32.63
622.067	32.58
622.258	32.65
622.45	32.8
622.641	32.92
622.832	33.03
623.024	32.92
623.215	32.87
623.407	32.75
623.598	32.87
623.789	32.75
623.981	32.68
624.172	32.61
624.363	32.72
624.555	32.62
624.746	32.63
624.937	32.81
625.129	32.94
625.32	32.97
625.511	33.13
625.702	32.97
625.893	33.08
626.085	33.03
626.276	33.12
626.467	33.08
626.658	33.11
626.849	33.11
627.04	32.93
627.231	32.87
627.422	32.71
627.614	32.67
627.805	32.68
627.996	32.65
628.187	32.78
628.378	32.77
628.569	32.57
628.76	32.48
628.951	32.31
629.142	32.25
629.332	32.35
629.523	32.35
629.714	32.39
629.905	32.47
630.096	32.47
630.287	32.44
630.478	32.48
630.669	32.64
630.859	32.81
631.05	32.78
631.241	32.85
631.432	32.66
631.623	32.71
631.813	32.62
632.004	32.7
632.195	32.59
632.385	32.52
632.576	32.54
632.767	32.52
632.957	32.42
633.148	32.55
633.339	32.55
633.529	32.41
633.72	32.43
633.91	32.3
634.101	32.31
634.292	32.35
634.482	32.2
634.673	32.1
634.863	32.03
635.054	32.14
635.244	32.23
635.435	32.19
635.625	32.38
635.815	32.29
636.006	32.19
636.196	31.98
636.387	32.09
636.577	32.33
636.767	32.43
636.958	32.64
637.148	32.66
637.338	32.57
637.529	32.62
637.719	32.68
637.909	32.9
638.099	33.28
638.29	33.43
638.48	33.33
638.67	33.29
638.86	33.14
639.05	32.98
639.241	32.83
639.431	32.78
639.621	32.8
639.811	32.72
640.001	32.46
640.191	32.13
640.381	32.1
640.571	32.12
640.761	32.21
640.951	32.56
641.141	32.52
641.331	32.55
641.521	32.66
641.711	32.53
641.901	32.34
642.091	32.6
642.281	32.61
642.471	32.65
642.661	32.56
642.851	32.33
643.041	32.33
643.231	32.28
643.42	32.32
643.61	32.43
643.8	32.58
643.99	32.9
644.18	32.66
644.369	32.9
644.559	32.88
644.749	32.87
644.939	33
645.128	32.59
645.318	32.67
645.508	32.66
645.697	32.55
645.887	32.36
646.076	32.4
646.266	32.38
646.456	32.27
646.645	32.44
646.835	32.48
647.024	32.57
647.214	32.71
647.403	32.74
647.593	32.67
647.782	32.71
647.972	32.91
648.161	32.9
648.351	33.07
648.54	33.06
648.73	32.8
648.919	32.67
649.108	32.36
649.298	32.51
649.487	32.78
649.677	32.94
649.866	32.99
650.055	32.98
650.244	32.9
650.434	33.04
650.623	33.02
650.812	33.08
651.002	33.21
651.191	33.44
651.38	33.24
651.569	33.06
651.758	32.94
651.947	32.83
652.137	32.71
652.326	32.57
652.515	32.55
652.704	32.61
652.893	32.72
653.082	32.77
653.271	32.89
653.46	32.96
653.649	32.74
653.838	32.78
654.027	32.82
654.216	33.16
654.405	33.4
654.594	33.28
654.783	33.3
654.972	33.21
655.161	33.11
655.35	32.79
655.539	32.76
655.728	32.79
655.916	32.77
656.105	32.81
656.294	32.79
656.483	32.81
656.672	32.74
656.86	32.55
657.049	32.55
657.238	32.73
657.427	32.94
657.615	33.08
657.804	33.18
657.993	33.22
658.181	33.24
658.37	33.12
658.559	32.98
658.747	33.06
658.936	33.2
659.125	33.5
659.313	33.46
659.502	33.56
659.69	33.66
659.879	33.71
660.067	33.74
660.256	33.66
660.444	33.61
660.633	33.72
660.821	33.71
661.01	33.76
661.198	33.4
661.387	33.35
661.575	33.17
661.763	33.01
661.952	33
662.14	32.79
662.328	32.76
662.517	32.88
662.705	32.88
662.893	32.81
663.082	32.93
663.27	32.78
663.458	32.79
663.646	32.65
663.834	32.58
664.023	32.36
664.211	32.46
664.399	32.59
664.587	32.4
664.775	32.22
664.963	32.14
665.152	31.79
665.34	32.08
665.528	31.85
665.716	32
665.904	31.96
666.092	32.08
666.28	32.19
666.468	32.17
666.656	32.35
666.844	32.6
667.032	32.88
667.22	33.03
667.408	32.88
667.596	33.11
667.784	33.13
667.971	33.4
668.159	33.37
668.347	33.17
668.535	33.01
668.723	32.81
668.911	32.71
669.098	32.69
669.286	32.77
669.474	32.88
669.662	32.88
669.849	32.92
670.037	32.72
670.225	32.69
670.413	32.97
670.6	32.98
670.788	33.03
670.976	32.93
671.163	32.82
671.351	32.57
671.538	32.45
671.726	32.3
671.913	32.06
672.101	31.96
672.289	32.04
672.476	31.65
672.664	31.91
672.851	31.91
673.039	31.95
673.226	31.83
673.413	31.93
673.601	31.91
673.788	32.09
673.976	32.13
674.163	32.35
674.35	32.39
674.538	32.69
674.725	32.81
674.912	32.72
675.1	32.9
675.287	33.08
675.474	32.96
675.662	33
675.849	32.96
676.036	33.03
676.223	32.87
676.411	32.88
676.598	32.76
676.785	32.72
676.972	32.9
677.159	32.87
677.346	32.84
677.533	32.95
677.721	32.86
677.908	32.85
678.095	32.97
678.282	33.12
678.469	33.2
678.656	33.2
678.843	33.17
679.03	33.16
679.217	33.35
679.404	33.3
679.591	33.38
679.778	33.33
679.964	33.47
680.151	32.93
680.338	32.93
680.525	32.82
680.712	32.69
680.899	32.45
681.086	32.49
681.272	32.18
681.459	32.32
681.646	32.38
681.833	32.36
682.02	32.19
682.206	32.67
682.393	32.72
682.58	32.8
682.766	32.93
682.953	32.9
683.14	32.78
683.326	33.12
683.513	32.99
683.7	32.89
683.886	32.95
684.073	33.11
684.259	33.24
684.446	33.01
684.632	32.95
684.819	33
685.005	33.14
685.192	33.12
685.378	32.97
685.565	33.02
685.751	33.29
685.938	33.28
686.124	33.15
686.31	33.22
686.497	33.21
686.683	33.26
686.87	33.71
687.056	33.62
687.242	33.33
687.429	33.24
687.615	33.05
687.801	32.98
687.987	33.09
688.174	32.89
688.36	32.92
688.546	32.81
688.732	32.82
688.918	32.28
689.105	32.44
689.291	32.77
689.477	32.73
689.663	32.89
689.849	32.64
690.035	32.69
690.221	32.87
690.407	32.66
690.593	32.7
690.779	32.83
690.965	32.98
691.151	32.72
691.337	32.93
691.523	33.25
691.709	33.43
691.895	33.69
692.081	33.32
692.267	33.42
692.453	33.68
692.639	33.77
692.825	33.59
693.011	33.41
693.196	33.56
693.382	33.38
693.568	33
693.754	32.68
693.94	32.44
694.125	32.53
694.311	32.51
694.497	32.61
694.682	32.7
694.868	32.45
695.054	32.51
695.239	32.74
695.425	32.8
695.611	32.84
695.796	32.97
695.982	33.18
696.168	33.44
696.353	33.28
696.539	32.95
696.724	32.83
696.91	32.92
697.095	32.92
697.281	32.97
697.466	32.95
697.652	33.08
697.837	32.92
698.023	32.7
698.208	32.61
698.393	32.76
698.579	32.95
698.764	32.84
698.949	32.75
699.135	32.75
699.32	32.42
699.505	32.43
699.691	32.23
699.876	32.46
700.061	32.37
700.246	32.52
700.432	32.34
700.617	31.79
700.802	32.13
700.987	32.14
701.172	32.22
701.358	32.23
701.543	32.13
701.728	32.3
701.913	32.2
702.098	32.59
702.283	32.77
702.468	32.9
702.653	33.5
702.838	33.31
703.023	33.85
703.208	33.81
703.393	33.85
703.578	33.93
703.763	33.58
703.948	33.75
704.133	33.56
704.318	33.3
704.503	32.97
704.688	33.11
704.873	32.96
705.057	32.8
705.242	32.9
705.427	33.28
705.612	33.28
705.797	33.39
705.981	33.24
706.166	33.32
706.351	33.22
706.536	33.19
706.72	32.98
706.905	33.66
707.09	33.4
707.274	33.52
707.459	33.28
707.644	33.08
707.828	33.28
708.013	33.28
708.197	32.97
708.382	33.09
708.567	33.37
708.751	33.42
708.936	32.86
709.12	33
709.305	32.88
709.489	32.93
709.673	33.13
709.858	33.05
710.042	33.12
710.227	33.35
710.411	33.42
710.596	33.49
710.78	33.07
710.964	33.25
711.149	33.25
711.333	33.38
711.517	33.43
711.702	33.47
711.886	33.22
712.07	33.18
712.254	33.07
712.438	32.85
712.623	32.82
712.807	33.24
712.991	33.39
713.175	33.32
713.359	33.17
713.544	33.05
713.728	32.8
713.912	32.84
714.096	32.68
714.28	32.6
714.464	32.62
714.648	32.97
714.832	32.97
715.016	32.68
715.2	32.91
715.384	32.81
715.568	33.09
715.752	33.49
715.936	33.44
716.12	33.48
716.304	33.89
716.488	34.05
716.671	33.6
716.855	33.88
717.039	33.86
717.223	33.56
717.407	33.63
717.59	33.5
717.774	33.38
717.958	33.62
718.142	33.53
718.325	33.48
718.509	33.25
718.693	33.21
718.877	32.5
719.06	32.74
719.244	32.64
719.428	32.84
719.611	32.55
719.795	32.62
719.978	32.26
720.162	32.55
720.345	32.26
720.529	32.19
720.713	32.32
720.896	32.57
721.08	32.59
721.263	32.62
721.446	32.24
721.63	32.81
721.813	32.4
721.997	32.6
722.18	32.09
722.364	32.81
722.547	32.65
722.73	32.43
722.914	32.37
723.097	32.32
723.28	32.55
723.464	33
723.647	32.29
723.83	32.46
724.013	32.5
724.197	32.87
724.38	32.57
724.563	33.16
724.746	33.52
724.929	33.73
725.112	33.29
725.296	33.38
725.479	33.21
725.662	33.3
725.845	32.98
726.028	32.96
726.211	33.04
726.394	32.45
726.577	31.96
726.76	31.93
726.943	31.41
727.126	32
727.309	31.75
727.492	31.58
727.675	31.84
727.858	32.14
728.041	32.22
728.224	31.88
728.407	32.04
728.589	32.23
728.772	32.07
728.955	32.3
729.138	31.84
729.321	31.88
729.503	31.98
729.686	31.78
729.869	31.61
730.052	31.46
730.234	32.18
730.417	32.39
730.6	32.37
730.782	32.19
730.965	32.3
731.148	32.92
731.33	32.8
731.513	32.76
731.695	32.91
731.878	33.27
732.061	33.49
732.243	32.92
732.426	33.03
732.608	33.41
732.791	33.71
732.973	33.42
733.156	32.95
733.338	33.11
733.52	33.13
733.703	33.05
733.885	32.83
734.068	32.48
734.25	32.57
734.432	32.34
734.615	32.2
734.797	32.28
734.979	32.98
735.162	33
735.344	33.1
735.526	32.66
735.708	32.52
735.891	32.82
736.073	33.24
736.255	32.78
736.437	32.8
736.619	32.27
736.802	31.74
736.984	31.26
737.166	31.14
737.348	31.21
737.53	31.19
737.712	31.57
737.894	31.15
738.076	31.12
738.258	31.58
738.44	31.48
738.622	31.6
738.804	31.85
738.986	31.85
739.168	32.66
739.35	32.39
739.532	32.46
739.714	32.01
739.896	31.96
740.078	31.81
740.259	32.2
740.441	32.41
740.623	31.95
740.805	32.12
740.987	32.47
741.168	32.01
741.35	32.2
741.532	32.29
741.714	32.82
741.895	32.78
742.077	33.1
742.259	32.7
742.44	32.76
742.622	33.03
742.804	32.87
742.985	32.22
743.167	32.1
743.348	31.9
743.53	32.22
743.711	31.91
743.893	32.33
744.075	32.36
744.256	32.12
744.438	32.21
744.619	32.81
744.8	32.77
744.982	32.96
745.163	32.37
745.345	32.71
745.526	32.68
745.707	32.59
745.889	31.59
746.07	31.1
746.252	31.8
746.433	31.88
746.614	32.01
746.795	31.14
746.977	31.6
747.158	32.5
747.339	32.82
747.52	32.93
747.702	32.76
747.883	33.7
748.064	33.7
748.245	33.47
748.426	33
748.607	33.39
748.788	34.11
748.97	33.44
749.151	32.97
749.332	32.32
749.513	32.41
749.694	32.67
749.875	32.73
750.056	32.74
750.237	32.39
750.418	32.33
750.599	31.29
750.78	31.24
750.96	31.41
751.141	31.36
751.322	31.75
751.503	31.52
751.684	31.24
751.865	31.22
752.046	31.42
752.226	31.65
752.407	31.62
752.588	31.78
752.769	32.11
752.949	32.45
753.13	32.95
753.311	33.22
753.492	33.15
753.672	34.2
753.853	33.8
754.034	33.83
754.214	33.77
754.395	33.87
754.575	34.1
754.756	33.62
754.937	33.46
755.117	32.25
755.298	32.03
755.478	31.99
755.659	31.75
755.839	32.4
756.02	31.92
756.2	32.05
756.381	32.26
756.561	32.49
756.741	32.61
756.922	32.58
757.102	33.28
757.283	32.84
757.463	33.18
757.643	32.26
757.823	31.63
758.004	32.62
758.184	32.71
758.364	32.75
758.545	32.34
758.725	32.73
758.905	32.43
759.085	32.28
759.265	32.09
759.446	31.51
759.626	31.94
759.806	32.31
759.986	31.87
760.166	30.93
760.346	30.59
760.526	30.61
760.706	30.73
760.886	31.05
761.066	31.48
761.246	32.17
761.426	32.78
761.606	32.91
761.786	32.9
761.966	32.8
762.146	33
762.326	33.04
762.506	33.04
762.686	32.56
762.866	32.46
763.046	32.17
763.225	31.77
763.405	31.17
763.585	30.69
763.765	30.47
763.945	30.19
764.124	30.25
764.304	30.27
764.484	29.83
764.664	29.91
764.843	30.42
765.023	29.99
765.203	29.98
765.382	30.38
765.562	31.11
765.741	31.24
765.921	31.91
766.101	32.12
766.28	32.27
766.46	32.72
766.639	33.09
766.819	32.69
766.998	33.81
767.178	34.24
767.357	34.45
767.537	34.54
767.716	33.92
767.896	33.81
768.075	33.78
768.254	33.63
768.434	33.49
768.613	32.63
768.792	32.34
768.972	32.22
769.151	32.06
769.33	31.14
769.51	30.59
769.689	31.07
769.868	31.35
770.047	31.46
770.226	31.87
770.406	31.58
770.585	32.67
770.764	32.63
770.943	31.88
771.122	31.09
771.301	32.45
771.48	32.16
771.66	32.32
771.839	30.98
772.018	30.56
772.197	29.13
772.376	28.93
772.555	29.08
772.734	28.98
772.913	29.21
773.092	30.11
773.271	29.36
773.449	29.47
773.628	29.19
773.807	30.21
773.986	29.91
774.165	30.6
774.344	31.41
774.523	30.74
774.701	30.51
774.88	30.51
775.059	30.65
775.238	30.84
775.417	31.06
775.595	31.1
775.774	30.53
775.953	30.93
776.131	31.35
776.31	31.37
776.489	31.79
776.667	32.39
776.846	32.91
777.025	32.11
777.203	31.25
777.382	30.96
777.56	31.07
777.739	31.3
777.917	32.06
778.096	32.04
778.274	31.95
778.453	31.38
778.631	31.59
778.81	31.34
778.988	31.68
779.166	32.26
779.345	32.46
779.523	32.9
779.702	32.49
779.88	31.43
780.058	30.89
780.237	30.83
780.415	31.43
780.593	31.19
780.771	31.24
780.95	30.97
781.128	31.31
781.306	31.39
781.484	30.49
781.662	31.03
781.841	31.08
782.019	30.5
782.197	29.95
782.375	30.27
782.553	29.91
782.731	29.93
782.909	30.21
783.087	30.49
783.265	31.09
783.443	30.9
783.621	30.37
783.799	30.41
783.977	32.12
784.155	32.77
784.333	32.19
784.511	32.67
784.689	31.76
784.867	31.54
785.045	31.1
785.223	30.24
785.4	31.16
785.578	31.73
785.756	31.49
785.934	30.5
786.112	30.62
786.289	30.33
786.467	30.68
786.645	31.61
786.823	31.9
787	32
787.178	32.09
787.356	32.15
787.533	30.86
787.711	32.26
787.889	32.26
788.066	32.06
788.244	31.89
788.421	31.3
788.599	31.47
788.776	30.68
788.954	30.33
789.131	30.97
789.309	30.36
789.486	31.6
789.664	30.9
789.841	31.99
790.019	31.4
790.196	31.78
790.373	31.13
790.551	30.3
790.728	31.4
790.906	31.96
791.083	31.13
791.26	30.99
791.437	31.44
791.615	31.86
791.792	31.2
791.969	31.15
792.146	31.22
792.324	32.94
792.501	33.78
792.678	33.23
792.855	32.88
793.032	32.39
793.209	33.16
793.387	32.71
793.564	32.25
793.741	31.26
793.918	31.25
794.095	31.9
794.272	31.26
794.449	31.2
794.626	31.68
794.803	32.08
794.98	32.82
795.157	32.08
795.334	33.04
795.511	32.82
795.688	34.34
795.864	35.21
796.041	34.38
796.218	34.59
796.395	33.78
796.572	33.7
796.749	32.42
796.925	31.2
797.102	32.05
797.279	30.71
797.456	31.13
797.632	30.64
797.809	29.79
797.986	29.54
798.162	28.22
798.339	29.44
798.516	30.14
798.692	31.1
798.869	33.09
799.046	32.17
799.222	32.22
799.399	32.11
799.575	31.88
799.752	32.86
799.928	33.4
800.105	34.27
800.281	33.19
800.458	32.99
800.634	33.39
800.811	33.32
800.987	32.97
801.163	32.77
801.34	33.48
801.516	34.3
801.692	34.16
801.869	34.63
802.045	34.34
802.221	34.96
802.398	33.7
802.574	33.46
802.75	31.79
802.926	33.32
803.103	33.82
803.279	32.5
803.455	30.19
803.631	30.38
803.807	30.31
803.983	30.83
804.16	31.55
804.336	32.65
804.512	32.24
804.688	34.18
804.864	33.62
805.04	33.99
805.216	34.79
805.392	36.4
805.568	35.73
805.744	34.9
805.92	35.3
806.096	33.62
806.272	32.58
806.448	33.74
806.623	33.42
806.799	33.01
806.975	31.49
807.151	31.3
807.327	32.42
807.503	32.77
807.678	33.4
807.854	33.06
808.03	33.62
808.206	33.77
808.381	31.85
808.557	31.52
808.733	31.66
808.908	31.77
809.084	32.68
809.26	31.97
809.435	31.64
809.611	31.01
809.787	30.25
809.962	30.09
810.138	31.26
810.313	33.15
810.489	32.08
810.664	32.79
810.84	33.9
811.015	33.46
811.191	32.81
811.366	34.02
811.542	34.05
811.717	35.53
811.892	34.86
812.068	34.33
812.243	33.47
812.419	33.74
812.594	32.64
812.769	32.05
812.944	31.23
813.12	29.8
813.295	28.18
813.47	29.09
813.645	29.43
813.821	28.93
813.996	28.66
814.171	27.99
814.346	28.93
814.521	30.03
814.697	30.65
814.872	30.03
815.047	31.85
815.222	34.56
815.397	32.8
815.572	30.87
815.747	31.94
815.922	32.72
816.097	32.65
816.272	32.83
816.447	33.67
816.622	33.31
816.797	34.9
816.972	34.54
817.147	33.13
817.322	35.22
817.496	34.88
817.671	35.18
817.846	34.6
818.021	34.37
818.196	33.78
818.371	33
818.545	32.76
818.72	33.41
818.895	32.85
819.069	32.59
819.244	30.91
819.419	31.36
819.594	32.76
819.768	32.52
819.943	33.25
820.117	32.28
820.292	32.03
820.467	32.72
820.641	32.06
820.816	32.25
820.99	32.22
821.165	32.39
821.339	32.33
821.514	31.89
821.688	31.94
821.863	31.64
822.037	31.98
822.212	31.9
822.386	31.56
822.56	31.39
822.735	31.32
822.909	31.31
823.084	31.3
823.258	31.36
823.432	31.15
823.606	31.03
823.781	31.21
823.955	31.43
824.129	31.53
824.303	31.59
824.478	31.78
824.652	31.42
824.826	31.35
825	31.41
825.174	31.02
825.348	30.92
825.523	31.08
825.697	31.11
825.871	30.48
826.045	30.33
826.219	30.58
826.393	30.8
826.567	31.31
826.741	31.5
826.915	31.19
827.089	31.77
827.263	31.98
827.437	32.18
827.611	32.17
827.784	32.58
827.958	33.18
828.132	32.78
828.306	32.61
828.48	32.99
828.654	32.88
828.827	33.32
829.001	32.02
829.175	32.04
829.349	31.31
829.522	31.09
829.696	31.03
829.87	29.85
830.044	30.16
830.217	30.16
830.391	28.82
830.565	27.55
830.738	28.26
830.912	29.08
831.085	28.84
831.259	28.38
831.432	28.82
831.606	27.88
831.779	27.95
831.953	28.02
832.126	27.73
832.3	28.12
832.473	29.45
832.647	28.73
832.82	29.52
832.994	29.42
833.167	30.35
833.34	30.49
833.514	30.37
833.687	30.91
833.86	31.67
834.034	31.59
834.207	31.1
834.38	30.82
834.553	31.1
834.727	31.68
834.9	32.19
835.073	32.02
835.246	31.76
835.419	31.97
835.593	31.66
835.766	30.62
835.939	30.66
836.112	31.04
836.285	30.69
836.458	31.25
836.631	30.02
836.804	31.25
836.977	30.94
837.15	32.5
837.323	33.5
837.496	33.73
837.669	34.72
837.842	34.73
838.015	34.94
838.188	35.81
838.361	34.4
838.533	36.11
838.706	34.81
838.879	35
839.052	34.28
839.225	34.96
839.398	34.58
839.57	32.6
839.743	32.48
839.916	33.79
840.088	34.39
840.261	34.86
840.434	33.53
840.607	33.23
840.779	32.78
840.952	30.64
841.124	29.51
841.297	29.13
841.47	31.12
841.642	30.41
841.815	30.06
841.987	28.24
842.16	28.21
842.332	27.64
842.505	30.39
842.677	31.03
842.85	31.46
843.022	32.56
843.194	33.63
843.367	32.05
843.539	32.23
843.712	31.66
843.884	34.08
844.056	36.57
844.229	37.3
844.401	31.22
844.573	29.61
844.745	28.26
844.918	27.05
845.09	28.93
845.262	33.18
845.434	34.04
845.606	32.69
845.779	31.88
845.951	29.67
846.123	27.99
846.295	29.15
846.467	32.77
846.639	36.67
846.811	38.84
846.983	39.97
847.155	39.57
847.327	40.92
847.499	41.9
847.671	35.88
847.843	33.92
848.015	37.6
848.187	40.52
848.359	39.97
848.531	36.64
848.703	35.96
848.875	30.63
849.047	27.35
849.218	28.68
849.39	28.13
849.562	32.56
849.734	34.13
849.905	35.34
850.077	34.3
850.249	31.35
850.421	32.43
850.592	29.17
850.764	29.91
850.936	31.76
851.107	30.43
851.279	32.18
851.451	33.99
851.622	34.4
851.794	29.66
851.965	26.98
852.137	30.25
852.308	29.82
852.48	30.54
852.651	31.06
852.823	33.53
852.994	30.46
853.166	30.19
853.337	30.17
853.509	28.83
853.68	31.3
853.851	31.38
854.023	28.88
854.194	29.66
854.365	29
854.537	27.15
854.708	26.47
854.879	29.6
855.05	31.14
855.222	30.95
855.393	34.16
855.564	32.84
855.735	28.84
855.906	31.4
856.078	31.22
856.249	30.75
856.42	29.73
856.591	28.79
856.762	25.73
856.933	19.73
857.104	19.41
857.275	18.18
857.446	16.37
857.617	22.51
857.788	21.68
857.959	22.11
858.13	27.89
858.301	30.52
858.472	31.59
858.643	35.25
858.814	35.09
858.985	35.57
859.155	36.31
859.326	39.58
859.497	37.46
859.668	37.43
859.839	35.99
860.009	26.87
860.18	26.51
860.351	22.49
860.522	21.67
860.692	25.66
860.863	27.73
861.034	31.17
861.204	27.49
861.375	26.2
861.546	25.97
861.716	23.95
861.887	29.37
862.057	35.06
862.228	38.47
862.398	39.04
862.569	40.54
862.739	42.47
862.91	38.76
863.08	38.93
863.251	43.39
863.421	38.63
863.592	44.6
863.762	43.76
863.932	38.51
864.103	35.09
864.273	34.08
864.443	31.65
864.614	25.22
864.784	25.43
864.954	29.79
865.125	31.61
865.295	36.01
865.465	35.2
865.635	34.69
865.805	39.24
865.976	40.71
866.146	40.85
866.316	38.94
866.486	39.52
866.656	37.82
866.826	34.4
866.996	32.97
867.166	34.09
867.336	34.29
867.506	35.03
867.676	30.59
867.846	31.94
868.016	30.31
868.186	28.43
868.356	31.15
868.526	32.41
868.696	31.62
868.866	23.29
869.036	21.57
869.206	19.27
869.376	20.22
869.545	29.96
869.715	29.74
869.885	32.42
870.055	37.5
870.224	33.21
870.394	34.35
870.564	36.23
870.734	44.97
870.903	43.29
871.073	40.45
871.243	39.66
871.412	35.94
871.582	34.16
871.751	33.55
871.921	33.77
872.091	38.73
872.26	41.25
872.43	39.57
872.599	40.08
872.769	43.08
872.938	45.06
873.108	47.52
873.277	44.89
873.446	43.84
873.616	43.94
873.785	40.74
873.955	40.42
874.124	32.83
874.293	32.82
874.463	25.93
874.632	26.63
874.801	23.66
874.971	20.8
875.14	24.74
875.309	27.31
875.478	28.44
875.647	31.97
875.817	33.28
875.986	35.91
876.155	39.62
876.324	43.1
876.493	39.64
876.662	44.73
876.831	47.81
877	47.19
877.17	44.73
877.339	45.3
877.508	42.48
877.677	42.81
877.846	40.9
878.015	35.73
878.184	34.83
878.352	34.82
878.521	30.05
878.69	29.22
878.859	29.21
879.028	25.28
879.197	25.16
879.366	24.69
879.534	21.49
879.703	23.92
879.872	26.91
880.041	26.03
880.21	26.61
880.378	28.13
880.547	27.46
880.716	28.17
880.884	30.17
881.053	29.39
881.222	30.24
881.39	31.18
881.559	30.46
881.727	29.48
881.896	30.11
882.065	29.85
882.233	30.01
882.402	30.36
882.57	30.09
882.739	30.3
882.907	30.73
883.076	30.67
883.244	30.73
883.412	30.62
883.581	30.38
883.749	30.58
883.918	30.9
884.086	29.93
884.254	30.2
884.423	30.89
884.591	30.11
884.759	28.68
884.927	28.25
885.096	27.16
885.264	28.12
885.432	30.33
885.6	30.59
885.769	31.17
885.937	33.61
886.105	33.63
886.273	35.29
886.441	35.98
886.609	36.37
886.777	36.99
886.945	39.42
887.113	42.48
887.281	38.23
887.449	34.79
887.617	34.17
887.785	33.34
887.953	33.99
888.121	29.69
888.289	28.39
888.457	32.13
888.625	30.93
888.793	29.25
888.961	22.76
889.129	29.96
889.296	31.71
889.464	31.81
889.632	30.16
889.8	27.12
889.967	27.79
890.135	32.69
