Data from 2938544_Reflection_2.txt Node
Date: Mon Jun 15 00:29:15 EDT 2015
User: robert
Spectrometer: USB4E03002
Autoset integration time: false
Trigger mode: 4
Integration Time (sec): 1.000000E-1
Scans to average: 10
Electric dark correction enabled: true
Nonlinearity correction enabled: false
Boxcar width: 5
Stray light correction enabled: false
XAxis mode: Wavelengths
Stop averaging: false
Number of Pixels in Spectrum: 3648
>>>>>Begin Spectral Data<<<<<
177.575	78.88
177.794	51.21
178.014	38.87
178.233	471.05
178.452	807.32
178.672	28.75
178.891	50.94
179.11	54.37
179.33	63.52
179.549	98.98
179.768	98.19
179.987	137.68
180.207	327.24
180.426	292.75
180.645	171.73
180.864	59.24
181.084	42.12
181.303	11.57
181.522	8.82
181.741	-19.28
181.96	-84.68
182.179	-58.18
182.398	-37.15
182.618	-24.26
182.837	-20.71
183.056	11.13
183.275	-2.45
183.494	2.97
183.713	10.18
183.932	19.42
184.151	14.42
184.37	39.49
184.589	27.38
184.808	33.67
185.027	35.25
185.246	28.6
185.465	37.81
185.684	79.92
185.903	70.36
186.122	59.14
186.341	57
186.56	65.35
186.779	52.44
186.998	48.32
187.216	40.09
187.435	43.21
187.654	49.9
187.873	30.36
188.092	6.41
188.311	16.59
188.53	30.68
188.748	45.81
188.967	22.31
189.186	18.76
189.405	31.76
189.623	42.18
189.842	30.13
190.061	19.02
190.28	11.95
190.498	30.55
190.717	18.83
190.936	1.76
191.154	-34.95
191.373	-13.78
191.592	-16.11
191.81	-19.1
192.029	-7.26
192.248	-9.08
192.466	22.49
192.685	54.5
192.904	40.3
193.122	35.74
193.341	24.37
193.559	47
193.778	5.04
193.996	9.48
194.215	25.03
194.433	12.77
194.652	17.56
194.87	-1.59
195.089	-0.99
195.307	9.88
195.526	28.94
195.744	72.92
195.963	78.32
196.181	112.83
196.399	157.81
196.618	151.2
196.836	102.82
197.055	146.48
197.273	153.97
197.491	449.84
197.71	118.25
197.928	120.78
198.146	69.41
198.365	57.75
198.583	3.5
198.801	22.05
199.019	-0.68
199.238	42.57
199.456	57.98
199.674	35.43
199.892	13
200.111	5.62
200.329	2.49
200.547	2.31
200.765	7.61
200.983	43.35
201.202	38.42
201.42	45.53
201.638	26.68
201.856	22.35
202.074	12
202.292	29.36
202.51	31.52
202.728	27.59
202.946	36.16
203.165	31.78
203.383	8.14
203.601	6.32
203.819	2.03
204.037	13.93
204.255	19.52
204.473	32.49
204.691	16.12
204.909	23.09
205.127	13.67
205.345	-8.14
205.562	-8.04
205.78	15.63
205.998	17.21
206.216	7.51
206.434	2.24
206.652	4.46
206.87	-7.66
207.088	6.61
207.306	15.63
207.523	22.18
207.741	25.57
207.959	23.89
208.177	16.47
208.395	23
208.612	34.43
208.83	28.35
209.048	14.81
209.266	35.91
209.483	40.72
209.701	23.64
209.919	22.44
210.136	16.64
210.354	14.28
210.572	9.48
210.79	1.83
211.007	2.48
211.225	9.35
211.442	20.01
211.66	3.06
211.878	8.18
212.095	6.17
212.313	22.93
212.53	36.93
212.748	49.45
212.966	47.77
213.183	38.38
213.401	51.72
213.618	59.51
213.836	54.27
214.053	50.96
214.271	32.36
214.488	42.94
214.705	31.83
214.923	27.29
215.14	16.24
215.358	16.45
215.575	37.7
215.793	40.69
216.01	22.38
216.227	20.78
216.445	23.54
216.662	31.98
216.879	31.69
217.097	25.46
217.314	27.32
217.531	34.01
217.749	29.46
217.966	20.07
218.183	23.91
218.4	16.65
218.618	11.69
218.835	20.65
219.052	19.86
219.269	27.07
219.487	35.76
219.704	35.75
219.921	32.4
220.138	35.47
220.355	39
220.572	31.77
220.79	35.13
221.007	38.91
221.224	37.25
221.441	26.93
221.658	21.75
221.875	20.99
222.092	14.76
222.309	9.27
222.526	8.3
222.743	5.19
222.96	6.22
223.177	6.71
223.394	2.89
223.611	3.15
223.828	5.27
224.045	3.82
224.262	1.13
224.479	5.41
224.696	7.03
224.913	5.58
225.13	3.34
225.347	2.6
225.564	4.07
225.781	5.73
225.997	4.17
226.214	5.8
226.431	7.15
226.648	7.48
226.865	7.2
227.082	6.48
227.298	6.48
227.515	6.81
227.732	6.62
227.949	7.06
228.165	7.9
228.382	8.37
228.599	8.61
228.816	8.66
229.032	8.46
229.249	9.2
229.466	9.78
229.682	10.89
229.899	11.38
230.116	11.92
230.332	10.89
230.549	9.7
230.765	10.91
230.982	10
231.199	8.07
231.415	10.16
231.632	8.44
231.848	8.24
232.065	8.08
232.281	10.27
232.498	10.13
232.714	11.06
232.931	10.91
233.147	8.43
233.364	8.71
233.58	9.05
233.797	8.74
234.013	8.82
234.23	9.89
234.446	10.01
234.662	8.6
234.879	9.54
235.095	8.23
235.312	9.96
235.528	10.1
235.744	9.57
235.961	10.15
236.177	9.76
236.393	9.48
236.61	7.94
236.826	6.14
237.042	5.43
237.258	3.03
237.475	3.1
237.691	3.08
237.907	5.22
238.123	5.79
238.339	5.3
238.556	4.59
238.772	5.36
238.988	5.57
239.204	6.86
239.42	6.34
239.636	6.33
239.853	6.81
240.069	5.95
240.285	6.54
240.501	6.44
240.717	5.71
240.933	5.72
241.149	5.86
241.365	5.84
241.581	5.52
241.797	5.41
242.013	6.35
242.229	6.01
242.445	7.4
242.661	6.97
242.877	7.26
243.093	8
243.309	7.86
243.525	7.28
243.741	7.46
243.957	7.59
244.173	8.2
244.388	7.39
244.604	7.53
244.82	6.95
245.036	6.24
245.252	5.94
245.468	5.9
245.683	6.21
245.899	6.67
246.115	6.75
246.331	6.58
246.547	6.72
246.762	6.89
246.978	7.02
247.194	6.71
247.409	7.18
247.625	7.75
247.841	7.99
248.057	7.96
248.272	7.43
248.488	7.54
248.703	8.07
248.919	7.77
249.135	7.46
249.35	6.89
249.566	7.16
249.782	6.51
249.997	6.17
250.213	6.01
250.428	5.82
250.644	6.13
250.859	5.84
251.075	5.2
251.29	5.33
251.506	5.32
251.721	5.47
251.937	5.08
252.152	6.03
252.368	6.52
252.583	6.64
252.798	6.46
253.014	6.45
253.229	6.09
253.445	5.85
253.66	6.44
253.875	6.24
254.091	5.37
254.306	6.43
254.521	5.99
254.737	5.79
254.952	6.67
255.167	7.07
255.383	8.16
255.598	8.35
255.813	8.49
256.028	7.42
256.244	7.16
256.459	7.7
256.674	7.41
256.889	6.82
257.104	5.91
257.32	5.28
257.535	4.68
257.75	4.2
257.965	4.06
258.18	4.12
258.395	4.01
258.61	4.21
258.826	3.93
259.041	3.5
259.256	3.76
259.471	3.96
259.686	4.21
259.901	4.45
260.116	4.5
260.331	4.75
260.546	4.38
260.761	4.93
260.976	4.99
261.191	5.21
261.406	5.16
261.621	5.4
261.836	5.5
262.05	5.23
262.265	5.25
262.48	4.68
262.695	4.35
262.91	5.12
263.125	4.42
263.34	4.24
263.555	3.79
263.769	4.55
263.984	4.06
264.199	3.89
264.414	3.55
264.629	3.73
264.843	4.35
265.058	4.81
265.273	4.47
265.488	4.75
265.702	5.56
265.917	6.23
266.132	6.1
266.346	5.69
266.561	5.54
266.776	5.66
266.99	5.34
267.205	4.44
267.42	4.17
267.634	4.69
267.849	4.27
268.063	3.98
268.278	3.6
268.492	3.42
268.707	3.59
268.922	4.05
269.136	4.55
269.351	4.77
269.565	5.01
269.78	4.87
269.994	4.77
270.209	4.99
270.423	4.29
270.637	4.17
270.852	4.65
271.066	4.59
271.281	4.74
271.495	4.36
271.709	4.57
271.924	4.55
272.138	4.95
272.353	4.32
272.567	3.96
272.781	4.36
272.996	4.34
273.21	3.85
273.424	3.42
273.638	3.1
273.853	2.99
274.067	2.74
274.281	3.3
274.495	2.85
274.71	3.01
274.924	3.3
275.138	3
275.352	2.99
275.566	2.83
275.781	3.66
275.995	3.42
276.209	3.64
276.423	3.59
276.637	3.08
276.851	2.73
277.065	2.71
277.279	2.27
277.493	1.87
277.707	2.4
277.921	2.62
278.135	2.45
278.349	2.38
278.563	2.4
278.777	2.51
278.991	2.92
279.205	2.97
279.419	3.05
279.633	4.01
279.847	4.49
280.061	4.51
280.275	4.03
280.489	3.93
280.703	4.04
280.917	4.08
281.131	4.13
281.344	3.74
281.558	4.17
281.772	4.19
281.986	3.56
282.2	3.56
282.414	2.95
282.627	3.19
282.841	3.21
283.055	3.25
283.269	3.47
283.482	3.84
283.696	4.12
283.91	3.85
284.123	3.73
284.337	3.81
284.551	3.54
284.764	3.56
284.978	3.94
285.192	4.22
285.405	3.9
285.619	3.71
285.833	3.41
286.046	3.16
286.26	3.3
286.473	3.5
286.687	3.48
286.9	3.99
287.114	4.41
287.327	4.07
287.541	4.01
287.754	4.51
287.968	4.41
288.181	4.29
288.395	4.35
288.608	4.08
288.822	4.13
289.035	4.26
289.248	3.61
289.462	3.45
289.675	3.67
289.889	3.94
290.102	3.81
290.315	3.76
290.529	3.72
290.742	4.02
290.955	4.03
291.169	3.92
291.382	3.66
291.595	4.5
291.808	4.5
292.022	4.36
292.235	3.7
292.448	3.72
292.661	3.77
292.875	3.76
293.088	3.65
293.301	3.83
293.514	4.03
293.727	4.54
293.94	4.47
294.153	4.14
294.367	4.14
294.58	4.11
294.793	4.17
295.006	4.4
295.219	4.63
295.432	4.8
295.645	4.91
295.858	4.87
296.071	4.56
296.284	4.56
296.497	4.91
296.71	4.65
296.923	5.03
297.136	5.05
297.349	5.22
297.562	5.12
297.775	4.89
297.988	4.85
298.201	5.16
298.414	5.45
298.626	5.3
298.839	5.25
299.052	5.89
299.265	5.47
299.478	5.57
299.691	5.09
299.903	5.03
300.116	5.17
300.329	5.1
300.542	4.88
300.755	4.61
300.967	4.62
301.18	4.49
301.393	4.29
301.605	4.64
301.818	4.78
302.031	4.86
302.243	4.79
302.456	4.67
302.669	4.93
302.881	4.98
303.094	5.51
303.307	5.5
303.519	5.76
303.732	5.84
303.944	5.52
304.157	5.09
304.37	5.03
304.582	5.09
304.795	5.26
305.007	4.93
305.22	4.38
305.432	4.45
305.645	4.4
305.857	4.46
306.069	4.63
306.282	4.78
306.494	4.99
306.707	5.34
306.919	5.42
307.132	5.39
307.344	5.64
307.556	5.91
307.769	5.18
307.981	5.53
308.193	5.39
308.406	5.21
308.618	5.43
308.83	5.56
309.043	5.5
309.255	5.48
309.467	5.27
309.679	4.78
309.892	5
310.104	5.35
310.316	4.97
310.528	4.81
310.74	4.86
310.953	4.32
311.165	4.13
311.377	3.87
311.589	4.15
311.801	4.35
312.013	4.93
312.225	4.85
312.437	4.82
312.649	5.14
312.862	5.58
313.074	5.41
313.286	6.49
313.498	6.94
313.71	7.28
313.922	6.85
314.134	6.89
314.346	7.01
314.558	6.68
314.77	6.88
314.982	6.78
315.193	6.84
315.405	6.79
315.617	6.18
315.829	5.78
316.041	5.87
316.253	6.05
316.465	5.88
316.677	5.55
316.888	5.82
317.1	5.83
317.312	5.85
317.524	5.65
317.736	5.81
317.947	5.77
318.159	5.75
318.371	5.27
318.583	5.02
318.794	5.32
319.006	5.96
319.218	6.39
319.43	6.63
319.641	6.59
319.853	6.84
320.064	6.44
320.276	6.79
320.488	7.33
320.699	7.92
320.911	8.29
321.123	8.32
321.334	7.52
321.546	7.67
321.757	7.4
321.969	7.24
322.18	7.15
322.392	8.13
322.603	8.05
322.815	7.79
323.026	7.72
323.238	7.34
323.449	7.14
323.661	7.32
323.872	7.23
324.083	7.35
324.295	7.85
324.506	7.81
324.718	7.38
324.929	7.76
325.14	7.93
325.352	8.24
325.563	8.66
325.774	8.67
325.986	8.96
326.197	8.53
326.408	8.63
326.62	8.55
326.831	8.34
327.042	8.63
327.253	8.51
327.464	8.65
327.676	8.17
327.887	8.46
328.098	9.34
328.309	9.47
328.52	9.97
328.732	9.81
328.943	9.96
329.154	10.4
329.365	10.74
329.576	10.86
329.787	10.65
329.998	11.08
330.209	10.92
330.42	10.3
330.631	9.96
330.842	9.92
331.053	9.97
331.264	10.06
331.475	9.91
331.686	9.32
331.897	8.85
332.108	8.7
332.319	8.68
332.53	9.2
332.741	9.44
332.952	9.78
333.163	9.91
333.374	9.93
333.585	9.83
333.795	9.72
334.006	10.1
334.217	10.17
334.428	10.84
334.639	10.71
334.849	10
335.06	9.75
335.271	9.35
335.482	9.1
335.692	8.87
335.903	9.06
336.114	9.18
336.325	8.93
336.535	8.9
336.746	8.44
336.957	8.31
337.167	8.89
337.378	8.58
337.589	8.52
337.799	8.53
338.01	8.35
338.22	7.86
338.431	8.08
338.642	7.97
338.852	8.26
339.063	8.24
339.273	8.29
339.484	7.71
339.694	7.84
339.905	8.1
340.115	8.38
340.326	8.92
340.536	9.09
340.746	8.98
340.957	9.06
341.167	9.01
341.378	9.28
341.588	9.32
341.799	9.64
342.009	9.78
342.219	9.5
342.43	9.42
342.64	9.22
342.85	8.81
343.061	8.59
343.271	8.81
343.481	8.74
343.691	8.45
343.902	8.42
344.112	8.2
344.322	8.14
344.532	8.46
344.743	8.24
344.953	8.21
345.163	8.24
345.373	8.48
345.583	8.39
345.793	8.36
346.004	8.56
346.214	8.52
346.424	8.46
346.634	8.49
346.844	8.78
347.054	8.77
347.264	8.76
347.474	9.04
347.684	8.88
347.894	8.94
348.104	9.12
348.314	8.9
348.524	8.64
348.734	8.84
348.944	8.94
349.154	8.59
349.364	8.65
349.574	8.81
349.784	8.89
349.994	9
350.204	8.8
350.413	8.07
350.623	7.84
350.833	8.15
351.043	7.95
351.253	8.01
351.463	8.06
351.672	8.03
351.882	7.95
352.092	7.87
352.302	7.79
352.511	7.57
352.721	8
352.931	8.14
353.141	7.79
353.35	7.78
353.56	7.7
353.77	7.34
353.979	7.39
354.189	7.52
354.399	7.57
354.608	7.71
354.818	7.98
355.027	8.01
355.237	7.99
355.447	8.19
355.656	8.19
355.866	7.91
356.075	8.12
356.285	8.25
356.494	8.13
356.704	7.91
356.913	7.51
357.123	7.42
357.332	7.32
357.542	7.46
357.751	7.41
357.96	7.3
358.17	7.43
358.379	7.44
358.589	7.26
358.798	7
359.007	7.28
359.217	7.69
359.426	7.64
359.635	7.68
359.845	7.68
360.054	7.74
360.263	8.03
360.472	8
360.682	7.86
360.891	7.82
361.1	8
361.309	8.05
361.519	7.65
361.728	7.51
361.937	7.44
362.146	7.33
362.355	7.52
362.564	7.35
362.774	7.3
362.983	7.18
363.192	7.03
363.401	6.87
363.61	7.04
363.819	7.31
364.028	7.37
364.237	7.37
364.446	7.21
364.655	6.8
364.864	6.76
365.073	6.96
365.282	7.34
365.491	7.31
365.7	7.38
365.909	6.95
366.118	6.95
366.327	6.84
366.536	6.82
366.745	6.98
366.954	7.1
367.162	6.72
367.371	6.79
367.58	6.84
367.789	6.97
367.998	6.88
368.207	6.96
368.415	6.75
368.624	6.85
368.833	6.81
369.042	6.75
369.25	6.65
369.459	6.88
369.668	6.64
369.877	6.3
370.085	6.23
370.294	6.23
370.503	6.08
370.711	6.14
370.92	6.17
371.129	6.2
371.337	6.11
371.546	6.34
371.754	6.73
371.963	7
372.171	7.46
372.38	7.61
372.589	7.71
372.797	7.67
373.006	7.36
373.214	7.23
373.423	7.31
373.631	7.38
373.84	7.07
374.048	6.59
374.256	6.25
374.465	5.94
374.673	5.65
374.882	5.53
375.09	5.6
375.298	5.87
375.507	5.96
375.715	5.89
375.923	5.87
376.132	6.11
376.34	6.03
376.548	6.1
376.757	6.13
376.965	6.27
377.173	6.09
377.381	6.08
377.59	5.96
377.798	6.04
378.006	5.98
378.214	5.74
378.423	5.58
378.631	5.78
378.839	5.7
379.047	5.47
379.255	5.44
379.463	5.76
379.671	5.84
379.879	5.81
380.088	5.7
380.296	5.71
380.504	5.86
380.712	5.99
380.92	5.86
381.128	6.03
381.336	6.05
381.544	5.97
381.752	5.9
381.96	5.84
382.168	6.15
382.376	6.3
382.584	6.18
382.791	6.31
382.999	6.19
383.207	6.13
383.415	5.95
383.623	6.09
383.831	6.12
384.039	5.97
384.247	5.92
384.454	5.81
384.662	5.69
384.87	5.78
385.078	5.65
385.285	5.56
385.493	5.6
385.701	5.65
385.909	5.71
386.116	5.77
386.324	6.06
386.532	6.17
386.739	5.98
386.947	5.87
387.155	5.89
387.362	5.66
387.57	5.67
387.778	5.78
387.985	5.79
388.193	5.62
388.4	5.35
388.608	4.87
388.816	4.87
389.023	4.94
389.231	5.01
389.438	4.9
389.646	5.25
389.853	5.25
390.061	5.05
390.268	5.2
390.475	5.08
390.683	5.25
390.89	5.64
391.098	5.51
391.305	5.4
391.512	5.44
391.72	5.45
391.927	5.33
392.135	5.24
392.342	5.3
392.549	5.12
392.756	5.37
392.964	5.33
393.171	5.19
393.378	5.25
393.586	5.36
393.793	5.31
394	5.3
394.207	5.16
394.414	5.02
394.622	4.86
394.829	4.95
395.036	4.69
395.243	4.78
395.45	4.64
395.657	4.57
395.864	4.54
396.072	4.46
396.279	4.63
396.486	4.66
396.693	4.96
396.9	5.09
397.107	5.12
397.314	5.05
397.521	4.82
397.728	4.89
397.935	4.86
398.142	4.92
398.349	4.93
398.556	4.72
398.763	4.71
398.97	4.72
399.177	4.78
399.383	4.77
399.59	4.98
399.797	5.02
400.004	4.98
400.211	4.94
400.418	4.83
400.625	4.94
400.831	4.98
401.038	5.21
401.245	5
401.452	4.85
401.658	4.72
401.865	4.6
402.072	4.7
402.279	4.68
402.485	4.61
402.692	4.62
402.899	4.49
403.105	4.48
403.312	4.3
403.519	4.27
403.725	4.27
403.932	4.3
404.138	4.26
404.345	4.2
404.552	4.2
404.758	4.36
404.965	4.31
405.171	4.18
405.378	4.14
405.584	4.04
405.791	4.13
405.997	4.2
406.204	4.12
406.41	4.2
406.617	4.14
406.823	4.27
407.029	4.17
407.236	4.21
407.442	4.32
407.649	4.42
407.855	4.42
408.061	4.44
408.268	4.42
408.474	4.36
408.68	4.37
408.887	4.41
409.093	4.2
409.299	4.09
409.505	4.03
409.712	4.16
409.918	4.08
410.124	4.14
410.33	4.14
410.537	4.08
410.743	3.96
410.949	3.9
411.155	4.02
411.361	4.01
411.567	4.19
411.773	4.23
411.98	4.03
412.186	3.98
412.392	4.08
412.598	4.03
412.804	4
413.01	4.07
413.216	4.1
413.422	3.92
413.628	4.06
413.834	4.06
414.04	4.23
414.246	4.07
414.452	4.01
414.658	3.95
414.864	3.98
415.07	4.01
415.275	3.96
415.481	3.89
415.687	4.02
415.893	4.05
416.099	3.92
416.305	3.79
416.511	3.82
416.716	3.88
416.922	3.83
417.128	3.75
417.334	3.79
417.539	3.89
417.745	3.94
417.951	3.88
418.157	3.76
418.362	3.81
418.568	3.78
418.774	3.81
418.979	3.78
419.185	3.83
419.391	3.87
419.596	3.85
419.802	3.8
420.008	3.75
420.213	2.94
420.419	3.05
420.624	3.06
420.83	3.12
421.035	3.17
421.241	3.18
421.446	3.11
421.652	3.04
421.857	2.98
422.063	3
422.268	3.01
422.474	3.83
422.679	3.68
422.885	3.65
423.09	3.6
423.295	3.54
423.501	3.54
423.706	3.56
423.911	3.64
424.117	3.65
424.322	3.69
424.527	3.72
424.733	3.61
424.938	3.67
425.143	3.73
425.349	3.73
425.554	3.76
425.759	3.77
425.964	3.78
426.169	3.63
426.375	3.61
426.58	3.56
426.785	3.44
426.99	3.4
427.195	3.43
427.4	3.35
427.605	3.28
427.811	3.24
428.016	3.22
428.221	3.22
428.426	3.24
428.631	3.33
428.836	3.32
429.041	3.37
429.246	3.53
429.451	3.51
429.656	3.49
429.861	3.58
430.066	3.72
430.271	3.64
430.476	3.57
430.681	3.68
430.886	3.74
431.09	3.75
431.295	3.81
431.5	3.84
431.705	3.75
431.91	3.72
432.115	3.61
432.32	3.46
432.524	3.57
432.729	3.53
432.934	3.44
433.139	3.34
433.343	3.33
433.548	3.28
433.753	3.22
433.958	3.25
434.162	3.22
434.367	3.29
434.572	3.41
434.776	3.37
434.981	3.6
435.186	3.65
435.39	3.6
435.595	3.64
435.799	3.57
436.004	3.59
436.209	3.56
436.413	3.65
436.618	3.69
436.822	3.6
437.027	3.48
437.231	3.34
437.436	3.34
437.64	3.37
437.845	3.39
438.049	3.38
438.253	3.33
438.458	3.38
438.662	3.32
438.867	3.27
439.071	3.29
439.275	3.34
439.48	3.43
439.684	3.39
439.888	3.39
440.093	3.3
440.297	3.34
440.501	3.52
440.706	3.54
440.91	3.55
441.114	3.47
441.318	3.42
441.523	3.47
441.727	3.32
441.931	3.34
442.135	3.41
442.339	3.43
442.543	3.48
442.748	3.33
442.952	3.3
443.156	3.27
443.36	3.36
443.564	3.44
443.768	3.44
443.972	3.48
444.176	3.38
444.38	3.39
444.584	3.36
444.788	3.37
444.992	3.29
445.196	3.3
445.4	3.27
445.604	3.24
445.808	3.28
446.012	3.27
446.216	3.23
446.42	3.28
446.624	3.19
446.828	3.18
447.032	3.13
447.235	3.21
447.439	3.23
447.643	3.26
447.847	3.31
448.051	3.23
448.254	3.23
448.458	3.14
448.662	3.14
448.866	3.23
449.069	3.28
449.273	3.22
449.477	3.2
449.681	3.2
449.884	3.14
450.088	3.05
450.292	2.96
450.495	2.94
450.699	3.15
450.902	3.19
451.106	3.17
451.31	3.2
451.513	3.18
451.717	3.27
451.92	3.22
452.124	3.3
452.327	3.3
452.531	3.35
452.734	3.33
452.938	3.18
453.141	3.09
453.345	2.97
453.548	2.93
453.752	2.96
453.955	2.92
454.158	2.99
454.362	2.84
454.565	2.87
454.769	2.88
454.972	2.86
455.175	2.91
455.379	2.98
455.582	3.08
455.785	3.13
455.988	3.06
456.192	2.99
456.395	3.01
456.598	3.16
456.801	3.23
457.005	3.17
457.208	3.24
457.411	3.3
457.614	3.31
457.817	3.27
458.021	3.23
458.224	3.24
458.427	3.29
458.63	3.23
458.833	3.18
459.036	3.15
459.239	3.12
459.442	3.13
459.645	3.03
459.848	2.99
460.051	2.98
460.254	3.01
460.457	3.08
460.66	3.04
460.863	3.09
461.066	3.04
461.269	3.04
461.472	3.13
461.675	2.96
461.878	3.04
462.081	3.03
462.284	3.02
462.486	2.94
462.689	2.92
462.892	2.99
463.095	2.9
463.298	2.93
463.5	2.91
463.703	2.84
463.906	2.96
464.109	3.08
464.311	3.13
464.514	3.12
464.717	3.12
464.92	3
465.122	2.88
465.325	2.98
465.528	3.06
465.73	3.06
465.933	3.11
466.135	3.12
466.338	3.07
466.541	3.03
466.743	3.09
466.946	3.18
467.148	3.29
467.351	3.28
467.553	3.28
467.756	3.21
467.958	3.15
468.161	3.33
468.363	3.3
468.566	3.28
468.768	3.27
468.971	3.25
469.173	3.18
469.375	3.15
469.578	3.3
469.78	3.31
469.983	3.4
470.185	3.6
470.387	3.49
470.59	3.51
470.792	3.41
470.994	3.52
471.196	3.46
471.399	3.51
471.601	3.56
471.803	3.52
472.005	3.52
472.208	3.53
472.41	3.38
472.612	3.37
472.814	3.43
473.016	3.47
473.218	3.46
473.421	3.61
473.623	3.49
473.825	3.4
474.027	3.39
474.229	3.34
474.431	3.34
474.633	3.34
474.835	3.37
475.037	3.44
475.239	3.42
475.441	3.42
475.643	3.31
475.845	3.32
476.047	3.28
476.249	3.29
476.451	3.3
476.653	3.23
476.855	3.26
477.057	3.24
477.258	3.08
477.46	3.15
477.662	3.14
477.864	3.2
478.066	3.25
478.268	3.33
478.469	3.37
478.671	3.36
478.873	3.26
479.075	3.28
479.276	3.26
479.478	3.26
479.68	3.26
479.882	3.33
480.083	3.23
480.285	3.27
480.487	3.23
480.688	3.18
480.89	3.16
481.091	3.27
481.293	3.23
481.495	3.21
481.696	3.26
481.898	3.27
482.099	3.23
482.301	3.25
482.502	3.21
482.704	3.23
482.905	3.22
483.107	3.23
483.308	3.18
483.51	3.2
483.711	3.2
483.913	3.18
484.114	3.18
484.315	3.18
484.517	3.19
484.718	3.23
484.92	3.23
485.121	3.22
485.322	3.2
485.524	3.23
485.725	3.22
485.926	3.22
486.127	3.22
486.329	3.24
486.53	3.22
486.731	3.22
486.932	3.24
487.134	3.24
487.335	3.28
487.536	3.32
487.737	3.35
487.938	3.37
488.139	3.37
488.341	3.35
488.542	3.35
488.743	3.37
488.944	3.33
489.145	3.34
489.346	3.39
489.547	3.39
489.748	3.42
489.949	3.41
490.15	3.4
490.351	3.41
490.552	3.4
490.753	3.42
490.954	3.46
491.155	3.52
491.356	3.48
491.557	3.43
491.758	3.43
491.959	3.47
492.159	3.49
492.36	3.5
492.561	3.55
492.762	3.57
492.963	3.53
493.164	3.48
493.364	3.45
493.565	3.49
493.766	3.59
493.967	3.64
494.167	3.56
494.368	3.59
494.569	3.66
494.769	3.66
494.97	3.69
495.171	3.71
495.371	3.74
495.572	3.76
495.773	3.76
495.973	3.75
496.174	3.7
496.375	3.78
496.575	3.8
496.776	3.79
496.976	3.92
497.177	4.02
497.377	4.04
497.578	4.05
497.778	4.08
497.979	4.14
498.179	4.12
498.38	4.23
498.58	4.13
498.78	4.16
498.981	4.13
499.181	4.15
499.382	4.09
499.582	4.16
499.782	4.21
499.983	4.23
500.183	4.27
500.383	4.32
500.584	4.33
500.784	4.45
500.984	4.43
501.184	4.53
501.385	4.47
501.585	4.55
501.785	4.58
501.985	4.66
502.185	4.69
502.386	4.59
502.586	4.62
502.786	4.58
502.986	4.5
503.186	4.56
503.386	4.52
503.586	4.59
503.786	4.58
503.987	4.62
504.187	4.68
504.387	4.74
504.587	4.9
504.787	4.95
504.987	4.96
505.187	5.11
505.387	5.17
505.587	5.29
505.786	5.23
505.986	5.28
506.186	5.31
506.386	5.3
506.586	5.2
506.786	5.25
506.986	5.28
507.186	5.35
507.386	5.37
507.585	5.39
507.785	5.38
507.985	5.43
508.185	5.54
508.384	5.56
508.584	5.65
508.784	5.75
508.984	5.7
509.183	5.73
509.383	5.73
509.583	5.72
509.782	5.77
509.982	5.84
510.182	5.94
510.381	5.88
510.581	5.94
510.781	5.92
510.98	5.96
511.18	6.08
511.379	6.18
511.579	6.3
511.778	6.34
511.978	6.39
512.177	6.47
512.377	6.44
512.576	6.51
512.776	6.54
512.975	6.52
513.175	6.59
513.374	6.54
513.573	6.53
513.773	6.58
513.972	6.7
514.172	6.76
514.371	6.73
514.57	6.76
514.77	6.83
514.969	6.88
515.168	7.04
515.367	7.05
515.567	7.1
515.766	7.13
515.965	7.21
516.164	7.2
516.364	7.29
516.563	7.32
516.762	7.4
516.961	7.41
517.16	7.39
517.359	7.36
517.559	7.41
517.758	7.46
517.957	7.55
518.156	7.52
518.355	7.61
518.554	7.64
518.753	7.74
518.952	7.82
519.151	7.83
519.35	7.92
519.549	7.95
519.748	8.01
519.947	8.09
520.146	8.1
520.345	8.14
520.544	8.19
520.743	8.12
520.942	8.14
521.141	8.19
521.339	8.23
521.538	8.26
521.737	8.38
521.936	8.42
522.135	8.49
522.333	8.53
522.532	8.58
522.731	8.62
522.93	8.73
523.129	8.73
523.327	8.81
523.526	8.95
523.725	9.08
523.923	9.07
524.122	9.13
524.321	9.19
524.519	9.2
524.718	9.29
524.917	9.34
525.115	9.33
525.314	9.39
525.512	9.4
525.711	9.42
525.909	9.43
526.108	9.51
526.306	9.55
526.505	9.55
526.703	9.61
526.902	9.63
527.1	9.64
527.299	9.67
527.497	9.7
527.696	9.69
527.894	9.66
528.092	9.68
528.291	9.7
528.489	9.66
528.688	9.67
528.886	9.69
529.084	9.71
529.283	9.72
529.481	9.75
529.679	9.76
529.877	9.85
530.076	9.94
530.274	10.02
530.472	10.07
530.67	10.23
530.869	10.32
531.067	10.35
531.265	10.37
531.463	10.46
531.661	10.51
531.859	10.57
532.057	10.54
532.255	10.53
532.454	10.49
532.652	10.46
532.85	10.42
533.048	10.37
533.246	10.39
533.444	10.38
533.642	10.32
533.84	10.39
534.038	10.38
534.236	10.43
534.434	10.51
534.632	10.61
534.83	10.66
535.027	10.76
535.225	10.85
535.423	10.91
535.621	10.96
535.819	11.04
536.017	10.96
536.215	11.01
536.412	11.03
536.61	11.07
536.808	11.03
537.006	11.12
537.203	11.14
537.401	11.19
537.599	11.24
537.797	11.28
537.994	11.29
538.192	11.42
538.39	11.42
538.587	11.5
538.785	11.57
538.983	11.62
539.18	11.64
539.378	11.66
539.575	11.65
539.773	11.66
539.97	11.7
540.168	11.74
540.366	11.75
540.563	11.76
540.761	11.75
540.958	11.74
541.155	11.77
541.353	11.7
541.55	11.67
541.748	11.67
541.945	11.67
542.143	11.67
542.34	11.68
542.537	11.7
542.735	11.7
542.932	11.73
543.129	11.72
543.327	11.73
543.524	11.83
543.721	11.94
543.919	12.05
544.116	12.07
544.313	12.15
544.51	12.21
544.708	12.2
544.905	12.29
545.102	12.32
545.299	12.34
545.496	12.41
545.693	12.42
545.891	12.44
546.088	12.44
546.285	12.52
546.482	12.49
546.679	12.44
546.876	12.44
547.073	12.46
547.27	12.53
547.467	12.55
547.664	12.6
547.861	12.61
548.058	12.57
548.255	12.54
548.452	12.58
548.649	12.6
548.846	12.66
549.043	12.72
549.24	12.79
549.437	12.78
549.633	12.81
549.83	12.81
550.027	12.85
550.224	12.89
550.421	12.98
550.618	12.95
550.814	13.07
551.011	13.11
551.208	13.24
551.405	13.34
551.601	13.42
551.798	13.6
551.995	13.66
552.191	13.79
552.388	13.86
552.585	13.94
552.781	14.08
552.978	14.07
553.175	14.09
553.371	14.17
553.568	14.13
553.764	14.03
553.961	14.01
554.157	14.04
554.354	14.1
554.55	14.05
554.747	13.96
554.943	14.02
555.14	14.03
555.336	14.08
555.533	14
555.729	14.06
555.926	14.21
556.122	14.17
556.318	14.11
556.515	14.08
556.711	14.24
556.907	14.38
557.104	14.25
557.3	14.26
557.496	14.31
557.693	14.5
557.889	14.6
558.085	14.57
558.281	14.63
558.478	14.85
558.674	14.93
558.87	14.98
559.066	15.05
559.262	15.2
559.459	15.37
559.655	15.48
559.851	15.42
560.047	15.36
560.243	15.5
560.439	15.62
560.635	15.55
560.831	15.5
561.027	15.51
561.223	15.43
561.419	15.43
561.615	15.42
561.811	15.43
562.007	15.49
562.203	15.59
562.399	15.59
562.595	15.61
562.791	15.7
562.987	15.74
563.183	15.84
563.379	15.98
563.575	16.13
563.771	16.21
563.966	16.23
564.162	16.3
564.358	16.33
564.554	16.38
564.75	16.44
564.945	16.49
565.141	16.55
565.337	16.56
565.533	16.57
565.728	16.45
565.924	16.42
566.12	16.49
566.315	16.49
566.511	16.49
566.707	16.64
566.902	16.72
567.098	16.69
567.293	16.78
567.489	16.69
567.684	16.82
567.88	16.93
568.076	17.05
568.271	17.16
568.467	17.25
568.662	17.38
568.858	17.34
569.053	17.29
569.248	17.48
569.444	17.47
569.639	17.72
569.835	17.68
570.03	17.67
570.225	17.69
570.421	17.75
570.616	17.72
570.812	17.74
571.007	17.8
571.202	17.83
571.397	17.84
571.593	17.9
571.788	17.79
571.983	17.84
572.178	18
572.374	18.07
572.569	18.11
572.764	18.17
572.959	18.2
573.154	18.2
573.35	18.38
573.545	18.39
573.74	18.46
573.935	18.65
574.13	18.74
574.325	18.71
574.52	18.71
574.715	18.52
574.91	18.52
575.105	18.55
575.3	18.63
575.495	18.44
575.69	18.36
575.885	18.28
576.08	18.24
576.275	18.13
576.47	18.15
576.665	18.11
576.86	18.16
577.055	18.25
577.25	18.18
577.444	18.09
577.639	18.2
577.834	18.38
578.029	18.41
578.224	18.57
578.418	18.48
578.613	18.5
578.808	18.5
579.003	18.64
579.197	18.75
579.392	18.86
579.587	18.92
579.781	18.93
579.976	18.89
580.171	19
580.365	18.84
580.56	19.11
580.755	19.08
580.949	19.19
581.144	19.14
581.338	19.08
581.533	19.12
581.727	19.19
581.922	19.29
582.116	19.31
582.311	19.39
582.505	19.47
582.7	19.45
582.894	19.49
583.089	19.45
583.283	19.53
583.478	19.48
583.672	19.61
583.866	19.67
584.061	19.56
584.255	19.61
584.449	19.57
584.644	19.43
584.838	19.46
585.032	19.52
585.226	19.6
585.421	19.54
585.615	19.67
585.809	19.59
586.003	19.55
586.198	19.54
586.392	19.54
586.586	19.5
586.78	19.62
586.974	19.58
587.168	19.67
587.363	19.78
587.557	19.98
587.751	19.87
587.945	19.94
588.139	20.14
588.333	20.33
588.527	20.36
588.721	20.43
588.915	20.52
589.109	20.52
589.303	20.41
589.497	20.46
589.691	20.45
589.885	20.52
590.079	20.64
590.273	20.41
590.466	20.44
590.66	20.51
590.854	20.4
591.048	20.46
591.242	20.53
591.436	20.64
591.629	20.4
591.823	20.41
592.017	20.49
592.211	20.41
592.404	20.64
592.598	20.77
592.792	20.84
592.986	20.88
593.179	20.9
593.373	21
593.567	21.05
593.76	21.22
593.954	21.27
594.147	21.32
594.341	21.43
594.535	21.36
594.728	21.34
594.922	21.42
595.115	21.42
595.309	21.44
595.502	21.45
595.696	21.46
595.889	21.53
596.083	21.52
596.276	21.51
596.47	21.45
596.663	21.47
596.856	21.42
597.05	21.25
597.243	21.46
597.437	21.35
597.63	21.37
597.823	21.5
598.017	21.53
598.21	21.55
598.403	21.57
598.596	21.65
598.79	21.65
598.983	21.65
599.176	21.72
599.369	21.67
599.563	21.84
599.756	21.88
599.949	21.75
600.142	21.7
600.335	21.68
600.528	21.63
600.722	21.67
600.915	21.81
601.108	21.83
601.301	21.8
601.494	21.75
601.687	21.86
601.88	21.81
602.073	21.8
602.266	21.73
602.459	21.79
602.652	21.83
602.845	21.91
603.038	21.86
603.231	21.92
603.424	22.11
603.617	22.16
603.809	22.1
604.002	22.09
604.195	22.28
604.388	22.5
604.581	22.46
604.774	22.55
604.966	22.43
605.159	22.51
605.352	22.58
605.545	22.43
605.737	22.43
605.93	22.42
606.123	22.46
606.316	22.41
606.508	22.26
606.701	22.42
606.894	22.39
607.086	22.47
607.279	22.54
607.471	22.35
607.664	22.55
607.857	22.72
608.049	22.79
608.242	22.95
608.434	23.01
608.627	22.93
608.819	22.92
609.012	22.95
609.204	22.94
609.397	22.93
609.589	23.11
609.782	23.06
609.974	22.93
610.166	22.75
610.359	22.58
610.551	22.45
610.743	22.58
610.936	22.48
611.128	22.66
611.32	22.65
611.513	22.51
611.705	22.44
611.897	22.38
612.09	22.4
612.282	22.58
612.474	22.69
612.666	22.81
612.858	22.81
613.051	22.95
613.243	22.78
613.435	22.81
613.627	22.81
613.819	22.74
614.011	22.82
614.203	22.84
614.395	23.04
614.588	23.04
614.78	22.89
614.972	22.96
615.164	23.03
615.356	22.97
615.548	22.91
615.74	23.14
615.932	23.52
616.124	23.49
616.315	23.6
616.507	23.56
616.699	23.64
616.891	23.65
617.083	23.49
617.275	23.33
617.467	23.39
617.659	23.44
617.85	23.35
618.042	22.98
618.234	23.07
618.426	22.89
618.618	22.59
618.809	22.54
619.001	22.75
619.193	23
619.384	23.13
619.576	23.2
619.768	23.24
619.959	23.09
620.151	23.22
620.343	23.38
620.534	23.45
620.726	23.84
620.917	24.06
621.109	23.92
621.301	23.73
621.492	23.56
621.684	23.74
621.875	23.82
622.067	23.83
622.258	23.92
622.45	23.76
622.641	23.93
622.832	23.75
623.024	23.48
623.215	23.61
623.407	23.75
623.598	23.91
623.789	23.79
623.981	23.71
624.172	23.82
624.363	23.79
624.555	23.79
624.746	23.83
624.937	23.89
625.129	23.94
625.32	24.03
625.511	23.88
625.702	24.01
625.893	23.94
626.085	23.99
626.276	23.96
626.467	23.84
626.658	23.85
626.849	23.81
627.04	23.83
627.231	23.85
627.422	23.7
627.614	23.99
627.805	23.79
627.996	23.82
628.187	23.9
628.378	23.79
628.569	23.96
628.76	24
628.951	24.05
629.142	24.09
629.332	24.04
629.523	24.12
629.714	24
629.905	23.96
630.096	24.03
630.287	23.95
630.478	24.16
630.669	24.12
630.859	24.16
631.05	23.97
631.241	23.97
631.432	24.24
631.623	24.27
631.813	24.39
632.004	24.66
632.195	24.58
632.385	24.58
632.576	24.66
632.767	24.8
632.957	24.84
633.148	24.88
633.339	24.81
633.529	24.74
633.72	24.66
633.91	24.4
634.101	24.14
634.292	24.33
634.482	24.37
634.673	24.38
634.863	24.14
635.054	24.12
635.244	24.15
635.435	24.25
635.625	24.24
635.815	24.31
636.006	24.3
636.196	24.56
636.387	24.45
636.577	24.71
636.767	24.79
636.958	24.9
637.148	24.85
637.338	25.02
637.529	24.92
637.719	24.84
637.909	24.79
638.099	24.99
638.29	24.99
638.48	25.04
638.67	24.78
638.86	24.66
639.05	24.79
639.241	24.83
639.431	24.82
639.621	24.83
639.811	24.93
640.001	25.16
640.191	25.15
640.381	25.08
640.571	25.01
640.761	25.07
640.951	25
641.141	24.98
641.331	25.3
641.521	25.33
641.711	25.33
641.901	25.48
642.091	25.27
642.281	25.38
642.471	25.44
642.661	25.53
642.851	25.64
643.041	25.64
643.231	25.47
643.42	25.39
643.61	25.48
643.8	25.62
643.99	25.36
644.18	25.66
644.369	25.62
644.559	25.62
644.749	25.5
644.939	25.35
645.128	25.38
645.318	25.62
645.508	25.43
645.697	25.13
645.887	25.1
646.076	25.16
646.266	25.01
646.456	25.18
646.645	25.19
646.835	25.1
647.024	25.05
647.214	24.95
647.403	25.1
647.593	25.12
647.782	25.06
647.972	25.12
648.161	25.25
648.351	25.21
648.54	24.96
648.73	25.04
648.919	25.46
649.108	25.65
649.298	25.89
649.487	25.72
649.677	25.56
649.866	25.77
650.055	25.71
650.244	25.47
650.434	25.5
650.623	25.71
650.812	25.68
651.002	25.68
651.191	25.62
651.38	25.74
651.569	25.79
651.758	26.02
651.947	26.01
652.137	26.14
652.326	26.14
652.515	26.12
652.704	26.06
652.893	26.04
653.082	25.96
653.271	25.98
653.46	25.86
653.649	25.81
653.838	25.7
654.027	25.68
654.216	25.61
654.405	25.82
654.594	25.72
654.783	25.48
654.972	25.5
655.161	25.38
655.35	25.35
655.539	25.54
655.728	25.48
655.916	25.61
656.105	25.75
656.294	25.8
656.483	25.79
656.672	25.94
656.86	26.14
657.049	26.07
657.238	26.24
657.427	26.35
657.615	26.23
657.804	26.22
657.993	26.18
658.181	26.14
658.37	26.13
658.559	26.32
658.747	26.32
658.936	26.4
659.125	26.46
659.313	26.31
659.502	26.27
659.69	26.22
659.879	26.16
660.067	26.17
660.256	26.18
660.444	26.27
660.633	26.24
660.821	26.19
661.01	26.07
661.198	26.12
661.387	25.98
661.575	26.05
661.763	25.85
661.952	26.09
662.14	26.12
662.328	26.27
662.517	26.04
662.705	25.84
662.893	25.92
663.082	26.08
663.27	26.12
663.458	26.36
663.646	26.34
663.834	26.85
664.023	26.97
664.211	26.99
664.399	26.92
664.587	27.16
664.775	27.11
664.963	27.21
665.152	27.13
665.34	27.18
665.528	27.25
665.716	27.41
665.904	27.17
666.092	27.11
666.28	27.14
666.468	27.17
666.656	27.11
666.844	27.2
667.032	27.2
667.22	27.14
667.408	27.15
667.596	27.27
667.784	27.18
667.971	27.08
668.159	27.02
668.347	27.16
668.535	27.24
668.723	27.23
668.911	27.46
669.098	27.56
669.286	27.71
669.474	27.55
669.662	27.47
669.849	27.56
670.037	27.48
670.225	27.64
670.413	27.21
670.6	27.05
670.788	27.2
670.976	27
671.163	27.01
671.351	27.14
671.538	27.12
671.726	26.95
671.913	26.74
672.101	26.82
672.289	26.71
672.476	27.09
672.664	27.3
672.851	27.13
673.039	27.27
673.226	27.18
673.413	27.04
673.601	27.25
673.788	27.34
673.976	27.57
674.163	27.78
674.35	27.68
674.538	27.44
674.725	27.3
674.912	27.33
675.1	27.13
675.287	27.26
675.474	27.18
675.662	27.14
675.849	27.26
676.036	27.04
676.223	27.21
676.411	27.28
676.598	27.33
676.785	27.38
676.972	27.27
677.159	27.45
677.346	27.46
677.533	27.65
677.721	27.87
677.908	27.62
678.095	27.73
678.282	27.69
678.469	27.64
678.656	27.72
678.843	27.62
679.03	27.9
679.217	27.91
679.404	27.93
679.591	27.66
679.778	27.57
679.964	27.65
680.151	27.71
680.338	27.62
680.525	27.64
680.712	27.54
680.899	27.58
681.086	27.69
681.272	27.65
681.459	27.46
681.646	27.57
681.833	27.39
682.02	27.66
682.206	27.74
682.393	27.66
682.58	27.62
682.766	27.81
682.953	28.08
683.14	27.87
683.326	27.95
683.513	27.93
683.7	28.3
683.886	28.35
684.073	28.07
684.259	28.07
684.446	28.14
684.632	28.24
684.819	28.37
685.005	27.81
685.192	27.83
685.378	27.57
685.565	27.45
685.751	27.21
685.938	27.31
686.124	27.41
686.31	27.11
686.497	27.29
686.683	27.41
686.87	27.33
687.056	27.62
687.242	27.72
687.429	27.78
687.615	27.9
687.801	27.98
687.987	27.91
688.174	28.08
688.36	28.2
688.546	27.89
688.732	27.88
688.918	28.04
689.105	28.05
689.291	27.96
689.477	28.05
689.663	28
689.849	27.82
690.035	27.75
690.221	27.66
690.407	27.9
690.593	27.92
690.779	27.76
690.965	27.81
691.151	27.87
691.337	27.7
691.523	27.76
691.709	28.09
691.895	28.47
692.081	28.71
692.267	28.74
692.453	28.72
692.639	29.1
692.825	29.23
693.011	29.11
693.196	29.47
693.382	29.68
693.568	29.9
693.754	29.8
693.94	29.8
694.125	29.81
694.311	29.95
694.497	29.96
694.682	29.8
694.868	29.86
695.054	29.78
695.239	29.71
695.425	29.68
695.611	29.63
695.796	29.59
695.982	29.4
696.168	29.39
696.353	29.37
696.539	29.43
696.724	29.28
696.91	29.32
697.095	29.33
697.281	29.15
697.466	29.11
697.652	28.95
697.837	29.01
698.023	29.05
698.208	28.88
698.393	28.97
698.579	28.98
698.764	29.22
698.949	29.15
699.135	29.18
699.32	29.12
699.505	28.98
699.691	29.1
699.876	29.12
700.061	29
700.246	29.4
700.432	29.22
700.617	29.04
700.802	28.75
700.987	28.77
701.172	28.29
701.358	28.45
701.543	28.63
701.728	28.74
701.913	28.33
702.098	28.29
702.283	27.9
702.468	28.08
702.653	28.13
702.838	28.14
703.023	28.4
703.208	29.07
703.393	28.95
703.578	28.82
703.763	28.75
703.948	29.27
704.133	29.11
704.318	29.47
704.503	28.9
704.688	28.89
704.873	29.24
705.057	29.11
705.242	28.86
705.427	29.18
705.612	29.23
705.797	29.27
705.981	29.21
706.166	29.44
706.351	29.13
706.536	29.53
706.72	29.07
706.905	28.98
707.09	28.79
707.274	28.65
707.459	28.46
707.644	28.17
707.828	28.33
708.013	28.21
708.197	28.2
708.382	28.43
708.567	28.38
708.751	28.79
708.936	28.75
709.12	28.85
709.305	28.85
709.489	28.66
709.673	28.98
709.858	28.68
710.042	28.4
710.227	28.63
710.411	28.47
710.596	28.36
710.78	28.26
710.964	28.13
711.149	28.32
711.333	28.31
711.517	28.65
711.702	28.67
711.886	28.61
712.07	29.02
712.254	29.03
712.438	28.95
712.623	29.21
712.807	29.16
712.991	29.28
713.175	29.08
713.359	29.38
713.544	29.15
713.728	29.23
713.912	29.47
714.096	29.32
714.28	29.17
714.464	29.12
714.648	29.14
714.832	29
715.016	28.88
715.2	28.99
715.384	28.92
715.568	29.06
715.752	29.09
715.936	28.64
716.12	28.34
716.304	28.64
716.488	28.79
716.671	28.95
716.855	29.59
717.039	29.43
717.223	29.12
717.407	29.15
717.59	28.81
717.774	28.67
717.958	29.14
718.142	29.59
718.325	29.17
718.509	28.88
718.693	28.74
718.877	28.46
719.06	29.22
719.244	29.5
719.428	29.48
719.611	29.9
719.795	29.69
719.978	29.26
720.162	29.2
720.345	29.54
720.529	29.99
720.713	29.31
720.896	29.07
721.08	28.34
721.263	27.79
721.446	28.16
721.63	28.23
721.813	28.28
721.997	28.44
722.18	28.46
722.364	27.96
722.547	27.8
722.73	28.27
722.914	28.24
723.097	28.62
723.28	29.09
723.464	28.94
723.647	28.8
723.83	29.29
724.013	29.38
724.197	29.61
724.38	29.82
724.563	30.11
724.746	30.43
724.929	30.49
725.112	30.22
725.296	30.27
725.479	29.86
725.662	29.7
725.845	29.52
726.028	29.55
726.211	29.27
726.394	29.22
726.577	29.11
726.76	29.26
726.943	29.22
727.126	29.54
727.309	29.72
727.492	29.88
727.675	29.85
727.858	29.33
728.041	29.49
728.224	29.37
728.407	29.48
728.589	29.54
728.772	28.97
728.955	29.13
729.138	28.83
729.321	28.48
729.503	28.11
729.686	28.12
729.869	28.65
730.052	28.45
730.234	28.31
730.417	28.28
730.6	27.88
730.782	27.87
730.965	28.11
731.148	28.61
731.33	28.64
731.513	29.24
731.695	29.38
731.878	29.64
732.061	29.86
732.243	30.14
732.426	30.11
732.608	30.41
732.791	30.71
732.973	30.41
733.156	30.17
733.338	30.33
733.52	30.06
733.703	30.06
733.885	29.44
734.068	29.25
734.25	29.3
734.432	29.28
734.615	29.1
734.797	29.21
734.979	29.02
735.162	29.25
735.344	29.38
735.526	29.86
735.708	29.6
735.891	29.73
736.073	29.87
736.255	30.18
736.437	30.24
736.619	30.56
736.802	30.23
736.984	29.94
737.166	30.04
737.348	30.13
737.53	29.29
737.712	29.64
737.894	29.74
738.076	29.51
738.258	28.51
738.44	28.76
738.622	28.41
738.804	28.52
738.986	29.22
739.168	28.6
739.35	28.5
739.532	28.72
739.714	28.67
739.896	29.32
740.078	29.84
740.259	30.86
740.441	30.24
740.623	30.69
740.805	30.22
740.987	29.72
741.168	29.99
741.35	30.09
741.532	30.28
741.714	30.57
741.895	30.41
742.077	30.52
742.259	30.12
742.44	30.68
742.622	30.35
742.804	31.04
742.985	31.15
743.167	31.83
743.348	31.22
743.53	31.06
743.711	30.81
743.893	30.68
744.075	30.74
744.256	30.53
744.438	30.38
744.619	30.31
744.8	30.42
744.982	30.93
745.163	30.51
745.345	31.23
745.526	31.88
745.707	31.68
745.889	31.29
746.07	30.97
746.252	30.83
746.433	30.94
746.614	31.35
746.795	31.48
746.977	30.82
747.158	30.32
747.339	30.31
747.52	30.26
747.702	30.12
747.883	30.37
748.064	30.18
748.245	30.52
748.426	30.36
748.607	30.23
748.788	29.98
748.97	30.33
749.151	30.49
749.332	30.22
749.513	29.21
749.694	29.54
749.875	29.64
750.056	30.07
750.237	30.01
750.418	29.98
750.599	29.72
750.78	28.99
750.96	29.5
751.141	29.63
751.322	29.68
751.503	30.29
751.684	30.55
751.865	30.21
752.046	30.1
752.226	30.06
752.407	30.1
752.588	30.33
752.769	31.16
752.949	31.28
753.13	31.66
753.311	31.76
753.492	31.76
753.672	31.3
753.853	31.75
754.034	31.29
754.214	30.95
754.395	31.34
754.575	31.24
754.756	30.31
754.937	30.09
755.117	30
755.298	30.4
755.478	30.32
755.659	30.5
755.839	29.83
756.02	30.52
756.2	30.79
756.381	30.38
756.561	30.22
756.741	31.02
756.922	31.06
757.102	30.34
757.283	29.77
757.463	30.22
757.643	30.28
757.823	30.68
758.004	30.27
758.184	30.52
758.364	31.16
758.545	31.72
758.725	31.73
758.905	31.24
759.085	32.04
759.265	32.45
759.446	31.99
759.626	31.66
759.806	31.61
759.986	31.85
760.166	31.93
760.346	32.01
760.526	32
760.706	31.54
760.886	32.01
761.066	31.29
761.246	30.86
761.426	31.06
761.606	31.16
761.786	31.31
761.966	30.76
762.146	30.52
762.326	30.17
762.506	29.81
762.686	30.08
762.866	30.28
763.046	30.49
763.225	30.52
763.405	30.48
763.585	30.6
763.765	30.6
763.945	31.09
764.124	31.26
764.304	31.38
764.484	31.45
764.664	31.35
764.843	30.66
765.023	30.44
765.203	30.51
765.382	30.69
765.562	30.48
765.741	30.42
765.921	30.69
766.101	30.1
766.28	29.93
766.46	30.21
766.639	30.38
766.819	31.07
766.998	30.89
767.178	31.06
767.357	31.31
767.537	31.54
767.716	31.2
767.896	30.47
768.075	31.25
768.254	31.22
768.434	30.94
768.613	30.81
768.792	31.27
768.972	31.67
769.151	31.82
769.33	31.38
769.51	31.03
769.689	31.34
769.868	31.29
770.047	31.28
770.226	31.5
770.406	31.52
770.585	31.83
770.764	30.79
770.943	30.71
771.122	30.73
771.301	30.61
771.48	30.66
771.66	30.44
771.839	30.18
772.018	30.26
772.197	29.27
772.376	28.88
772.555	29.19
772.734	29.14
772.913	29.74
773.092	29.03
773.271	29.04
773.449	30.06
773.628	30.74
773.807	31.81
773.986	31.78
774.165	32.38
774.344	33.36
774.523	32.6
774.701	32.72
774.88	32.79
775.059	32.71
775.238	32.35
775.417	30.54
775.595	29.65
775.774	29.25
775.953	28.82
776.131	28.99
776.31	29
776.489	28.66
776.667	28.46
776.846	27.77
777.025	28.77
777.203	29.08
777.382	29.9
777.56	30.39
777.739	29.37
777.917	29.09
778.096	29.78
778.274	29.32
778.453	29.92
778.631	30.07
778.81	30.59
778.988	30.32
779.166	30.41
779.345	30.23
779.523	29.92
779.702	31.01
779.88	31.75
780.058	31.11
780.237	31.19
780.415	31.6
780.593	31.75
780.771	31.93
780.95	31.66
781.128	32.94
781.306	33.85
781.484	34.2
781.662	34.55
781.841	34.26
782.019	34.84
782.197	35.06
782.375	35.55
782.553	35.75
782.731	35.35
782.909	35.86
783.087	34.72
783.265	34.34
783.443	33.51
783.621	33.38
783.799	33.45
783.977	33.8
784.155	33.4
784.333	31.85
784.511	31.75
784.689	32.01
784.867	31.25
785.045	30.34
785.223	29.98
785.4	30.67
785.578	30.03
785.756	30.74
785.934	30.08
786.112	30.07
786.289	30.24
786.467	30.02
786.645	29.69
786.823	29.86
787	29.93
787.178	30.36
787.356	30.35
787.533	30.49
787.711	30.11
787.889	29.31
788.066	29.43
788.244	30.17
788.421	29.58
788.599	29.07
788.776	28.76
788.954	29.69
789.131	29.34
789.309	28.91
789.486	28.8
789.664	29.4
789.841	30.44
790.019	30.5
790.196	29.78
790.373	30.28
790.551	31.32
790.728	31.33
790.906	29.93
791.083	30.58
791.26	31.06
791.437	31.89
791.615	30.45
791.792	29.64
791.969	29.7
792.146	29.73
792.324	29.76
792.501	29.48
792.678	29.62
792.855	31.01
793.032	30.35
793.209	29.4
793.387	28.54
793.564	28.76
793.741	29.22
793.918	29.55
794.095	30.33
794.272	31.12
794.449	31.42
794.626	32.26
794.803	32.16
794.98	32.97
795.157	33.93
795.334	33.59
795.511	35.4
795.688	35.1
795.864	34.56
796.041	34.64
796.218	33.78
796.395	33.06
796.572	32.94
796.749	31.85
796.925	31.7
797.102	31.1
797.279	31.19
797.456	30.17
797.632	30.8
797.809	31.14
797.986	30.95
798.162	32
798.339	32.19
798.516	30.84
798.692	31.34
798.869	32.02
799.046	31.96
799.222	31.86
799.399	31.82
799.575	31.43
799.752	31.58
799.928	30.35
800.105	29.76
800.281	30.77
800.458	32.09
800.634	32.31
800.811	30.45
800.987	31.28
801.163	32.11
801.34	31.55
801.516	31.13
801.692	31.08
801.869	32.28
802.045	31.6
802.221	30.3
802.398	30.27
802.574	30.27
802.75	30.68
802.926	30.5
803.103	30.65
803.279	31.01
803.455	31.46
803.631	30.63
803.807	30.08
803.983	30.55
804.16	30.64
804.336	30.31
804.512	30.32
804.688	30.36
804.864	29.55
805.04	28.97
805.216	28.6
805.392	28.35
805.568	29.08
805.744	28.68
805.92	29.09
806.096	29.01
806.272	29.32
806.448	30.16
806.623	31.23
806.799	32.41
806.975	32.82
807.151	32.93
807.327	32.74
807.503	31.68
807.678	32.99
807.854	32.12
808.03	32.74
808.206	33.25
808.381	33.23
808.557	32.94
808.733	33.17
808.908	33.5
809.084	33.25
809.26	33.25
809.435	33.68
809.611	33.44
809.787	34.64
809.962	34.11
810.138	33.29
810.313	32.79
810.489	32.71
810.664	31.04
810.84	29.12
811.015	28.31
811.191	28.18
811.366	28.95
811.542	28.46
811.717	28.61
811.892	28.95
812.068	29.89
812.243	28.47
812.419	27.55
812.594	27.83
812.769	29.01
812.944	28.8
813.12	28.94
813.295	27.99
813.47	28.81
813.645	27.83
813.821	26.85
813.996	26.22
814.171	27.54
814.346	26.66
814.521	27.34
814.697	28.42
814.872	29.65
815.047	30.58
815.222	29.78
815.397	29.77
815.572	29.42
815.747	30.99
815.922	30.72
816.097	31.8
816.272	32.86
816.447	33.97
816.622	33.8
816.797	34.29
816.972	33.88
817.147	35.97
817.322	35.38
817.496	36.5
817.671	36.54
817.846	36.53
818.021	35
818.196	34.69
818.371	33.24
818.545	32.59
818.72	32.49
818.895	32.92
819.069	31.78
819.244	32.09
819.419	31.69
819.594	30.42
819.768	30.42
819.943	30.85
820.117	31.23
820.292	30.99
820.467	30.91
820.641	30.85
820.816	30.37
820.99	30.42
821.165	30.43
821.339	30.51
821.514	30.66
821.688	30.46
821.863	30.17
822.037	30.15
822.212	30.2
822.386	30.33
822.56	30.27
822.735	30.12
822.909	30.22
823.084	30.01
823.258	30
823.432	29.63
823.606	29.76
823.781	29.91
823.955	29.95
824.129	30.09
824.303	30.13
824.478	29.78
824.652	30.37
824.826	30.33
825	29.85
825.174	29.62
825.348	30.26
825.523	30.47
825.697	31
825.871	30.87
826.045	31.17
826.219	31.01
826.393	31.64
826.567	31.5
826.741	31.49
826.915	32.16
827.089	32.14
827.263	31.85
827.437	31.44
827.611	31.21
827.784	31.27
827.958	31.52
828.132	31.62
828.306	31.28
828.48	30.9
828.654	31.38
828.827	31.19
829.001	30.8
829.175	30.75
829.349	30.55
829.522	30.58
829.696	30.48
829.87	29.87
830.044	29.19
830.217	29.66
830.391	30.41
830.565	30.02
830.738	30.02
830.912	30.29
831.085	31.16
831.259	31.9
831.432	30.19
831.606	29.94
831.779	29.39
831.953	29.76
832.126	28.8
832.3	28.75
832.473	28.32
832.647	29.1
832.82	29.4
832.994	29.36
833.167	29.08
833.34	29.69
833.514	29.46
833.687	30.23
833.86	30.23
834.034	30.85
834.207	30.44
834.38	30.39
834.553	29.71
834.727	30.44
834.9	30.46
835.073	31.2
835.246	31.66
835.419	31.62
835.593	30.15
835.766	30.8
835.939	30.82
836.112	31.59
836.285	31.51
836.458	33.06
836.631	31.64
836.804	32.18
836.977	32.28
837.15	31.69
837.323	32.94
837.496	33.6
837.669	33.44
837.842	32.53
838.015	32.82
838.188	33.99
838.361	33.33
838.533	34.29
838.706	34.33
838.879	33.21
839.052	34.93
839.225	33.47
839.398	33.18
839.57	32.38
839.743	33.45
839.916	32.54
840.088	31.4
840.261	30.92
840.434	31.38
840.607	30.72
840.779	31.11
840.952	29.8
841.124	31.72
841.297	33.72
841.47	33.47
841.642	33.7
841.815	34.8
841.987	37.01
842.16	38.72
842.332	36.1
842.505	37.82
842.677	39.19
842.85	40.97
843.022	39.23
843.194	36.88
843.367	37.36
843.539	34.99
843.712	32.2
843.884	30.56
844.056	28.75
844.229	32.56
844.401	29.14
844.573	27.45
844.745	26.04
844.918	24.8
845.09	24.72
845.262	23.33
845.434	23.88
845.606	26.55
845.779	27.8
845.951	30.82
846.123	30.36
846.295	32.28
846.467	32.75
846.639	32.18
846.811	34.03
846.983	37.59
847.155	38.28
847.327	39.15
847.499	39.19
847.671	37.18
847.843	35.21
848.015	35.83
848.187	35.42
848.359	33.51
848.531	33.31
848.703	34.08
848.875	30.74
849.047	29.91
849.218	29.05
849.39	29.47
849.562	26.96
849.734	27.21
849.905	22.16
850.077	25.31
850.249	28.42
850.421	25.36
850.592	21.58
850.764	20.05
850.936	20.85
851.107	23.25
851.279	22.24
851.451	25
851.622	24.25
851.794	28.99
851.965	25.94
852.137	27.44
852.308	31.21
852.48	35.12
852.651	36.22
852.823	35.98
852.994	36.78
853.166	37.23
853.337	37.12
853.509	38.78
853.68	39.78
853.851	40.29
854.023	38.49
854.194	36.95
854.365	37.85
854.537	39.92
854.708	44.91
854.879	43.93
855.05	43.06
855.222	42.11
855.393	39.44
855.564	38.01
855.735	39.33
855.906	37.37
856.078	38.17
856.249	36.68
856.42	37.27
856.591	34.75
856.762	33.09
856.933	34.62
857.104	33.8
857.275	34.05
857.446	30.67
857.617	22.75
857.788	26.87
857.959	29.71
858.13	28.4
858.301	27.4
858.472	25.96
858.643	27.81
858.814	27.39
858.985	29.1
859.155	32.38
859.326	35.68
859.497	42.75
859.668	39.57
859.839	36.48
860.009	39.14
860.18	41.73
860.351	40.82
860.522	39.12
860.692	38.23
860.863	37.25
861.034	34.52
861.204	33.38
861.375	32.5
861.546	31.09
861.716	29.11
861.887	28.86
862.057	28.2
862.228	29.26
862.398	30.06
862.569	27.81
862.739	29.96
862.91	32.63
863.08	32.29
863.251	30.62
863.421	33.39
863.592	36.21
863.762	34.1
863.932	35.97
864.103	35.06
864.273	37.4
864.443	37.4
864.614	36.33
864.784	29.71
864.954	30.48
865.125	32.28
865.295	29.17
865.465	28.71
865.635	30.62
865.805	25.02
865.976	28.36
866.146	24.06
866.316	27.82
866.486	30.43
866.656	31.54
866.826	29.6
866.996	27.25
867.166	32.01
867.336	33.6
867.506	35.63
867.676	37.58
867.846	36.05
868.016	35.42
868.186	37.3
868.356	36.07
868.526	38.12
868.696	39.13
868.866	41.17
869.036	35.04
869.206	32.57
869.376	32.86
869.545	30.88
869.715	29.04
869.885	28.88
870.055	22.88
870.224	22.47
870.394	20.38
870.564	22.06
870.734	25.06
870.903	28.65
871.073	30.48
871.243	27.33
871.412	30
871.582	31.09
871.751	29.47
871.921	33.16
872.091	32.06
872.26	35.41
872.43	32.15
872.599	27.98
872.769	29.9
872.938	30.41
873.108	28.88
873.277	25.98
873.446	26
873.616	28.05
873.785	28.08
873.955	27.93
874.124	26.05
874.293	32.22
874.463	37.21
874.632	34.07
874.801	33.94
874.971	36.81
875.14	37.47
875.309	37.31
875.478	37.39
875.647	36.99
875.817	39.8
875.986	39.89
876.155	37.01
876.324	37.47
876.493	38.87
876.662	39.35
876.831	38.87
877	39.58
877.17	40.9
877.339	42.88
877.508	42.98
877.677	40.51
877.846	40.09
878.015	40.11
878.184	35.23
878.352	35.1
878.521	33.31
878.69	34.31
878.859	34.47
879.028	33.08
879.197	30.47
879.366	31.22
879.534	30.21
879.703	30.05
879.872	30.48
880.041	31.15
880.21	30.19
880.378	30.24
880.547	29.38
880.716	30.53
880.884	31.22
881.053	31.45
881.222	30.44
881.39	30.6
881.559	30.84
881.727	31.74
881.896	30.85
882.065	31.34
882.233	31.74
882.402	31.51
882.57	31.04
882.739	30.79
882.907	30.82
883.076	31.11
883.244	31.79
883.412	32.05
883.581	30.92
883.749	31.7
883.918	31.79
884.086	30.86
884.254	31.45
884.423	31.99
884.591	33.15
884.759	33.28
884.927	32.6
885.096	32.17
885.264	31.77
885.432	32.33
885.6	32.44
885.769	32.08
885.937	34.55
886.105	35.06
886.273	33.73
886.441	31.29
886.609	32.75
886.777	34.38
886.945	33.57
887.113	32.43
887.281	33.51
887.449	34.76
887.617	35.96
887.785	36.97
887.953	34.27
888.121	34.45
888.289	36.8
888.457	34.38
888.625	34.19
888.793	33.85
888.961	37.12
889.129	36.52
889.296	34.28
889.464	33.93
889.632	29.35
889.8	33.49
889.967	34.67
890.135	31.81
