Data from 2938450_Reflection_2.txt Node
Date: Fri Jun 19 18:00:33 EDT 2015
User: robert
Spectrometer: USB4E03002
Autoset integration time: false
Trigger mode: 4
Integration Time (sec): 1.000000E-1
Scans to average: 10
Electric dark correction enabled: true
Nonlinearity correction enabled: false
Boxcar width: 5
Stray light correction enabled: false
XAxis mode: Wavelengths
Stop averaging: false
Number of Pixels in Spectrum: 3648
>>>>>Begin Spectral Data<<<<<
177.575	-289.72
177.794	-14.47
178.014	19.9
178.233	48.46
178.452	84.85
178.672	41.91
178.891	145.54
179.11	-437.45
179.33	-514.79
179.549	-175.2
179.768	-40.82
179.987	-11.88
180.207	56.71
180.426	191.86
180.645	214.85
180.864	339.29
181.084	-314.75
181.303	-93.1
181.522	-1.43
181.741	3.8
181.96	7.63
182.179	27.9
182.398	37.52
182.618	65.44
182.837	82.64
183.056	92.59
183.275	69
183.494	78.34
183.713	78.7
183.932	77.39
184.151	74.11
184.37	154.11
184.589	271.14
184.808	223.69
185.027	133.98
185.246	139.31
185.465	321.3
185.684	234200
185.903	-100.63
186.122	-72.48
186.341	-64.25
186.56	-85.59
186.779	-19.27
186.998	-48.25
187.216	-1.11
187.435	9.93
187.654	10.78
187.873	20.54
188.092	7.41
188.311	40.23
188.53	12.94
188.748	-10.92
188.967	41.35
189.186	-46.09
189.405	-52.92
189.623	-4009.52
189.842	-588.65
190.061	-41.65
190.28	-248.11
190.498	-280.7
190.717	483.58
190.936	332.44
191.154	346.54
191.373	243.51
191.592	258
191.81	564.23
192.029	1068.62
192.248	304.98
192.466	303.91
192.685	353.84
192.904	229.89
193.122	455.24
193.341	-1425
193.559	3702.78
193.778	-7682.98
193.996	-1544.74
194.215	1260.73
194.433	643.6
194.652	-1281.19
194.87	-287.78
195.089	-528.04
195.307	-271.43
195.526	-909.41
195.744	404.24
195.963	288150
196.181	818.27
196.399	321.33
196.618	142.27
196.836	164.68
197.055	147.08
197.273	109.12
197.491	74.71
197.71	96.12
197.928	99.13
198.146	89.68
198.365	58.94
198.583	68.65
198.801	84.82
199.019	357.02
199.238	275.53
199.456	340.33
199.674	425.13
199.892	-3170.93
200.111	-279.23
200.329	-223.78
200.547	-132.2
200.765	-79.37
200.983	-124.89
201.202	-102.5
201.42	-94.5
201.638	-118.77
201.856	-103.31
202.074	-108.59
202.292	-84.92
202.51	-93.13
202.728	-106.35
202.946	-507.86
203.165	-7873.68
203.383	616.42
203.601	220.53
203.819	548.08
204.037	-296.1
204.255	-164.73
204.473	-91.64
204.691	-203.6
204.909	-121.39
205.127	-50.27
205.345	-35.75
205.562	-6.58
205.78	-23.74
205.998	-35.55
206.216	-92.98
206.434	-595.45
206.652	355.74
206.87	244.66
207.088	1448.55
207.306	233.48
207.523	96.68
207.741	84.45
207.959	109.83
208.177	82.68
208.395	70.91
208.612	90.53
208.83	96.59
209.048	90.59
209.266	75.92
209.483	70.74
209.701	64.47
209.919	86.98
210.136	99.68
210.354	78.77
210.572	107.97
210.79	145.12
211.007	131.59
211.225	101.92
211.442	114.11
211.66	73.57
211.878	58.27
212.095	83.02
212.313	79.97
212.53	77.76
212.748	72.05
212.966	67.49
213.183	51.25
213.401	46.23
213.618	55.78
213.836	57.32
214.053	65.86
214.271	83.27
214.488	4.38
214.705	22.6
214.923	15.27
215.14	-42.17
215.358	-7.16
215.575	3.05
215.793	56.1
216.01	68.56
216.227	64.69
216.445	80.25
216.662	66.17
216.879	85.72
217.097	74.99
217.314	73.55
217.531	92.54
217.749	71.05
217.966	65.05
218.183	53.15
218.4	44.54
218.618	45.8
218.835	48.79
219.052	74.94
219.269	83.96
219.487	78.74
219.704	76.76
219.921	64.82
220.138	68.06
220.355	69.9
220.572	68.25
220.79	65.88
221.007	61.14
221.224	53.23
221.441	40.2
221.658	26.42
221.875	18.2
222.092	10.16
222.309	10.32
222.526	8.78
222.743	6.15
222.96	14.51
223.177	14.48
223.394	7.58
223.611	9.55
223.828	15.85
224.045	22.35
224.262	28.18
224.479	30.19
224.696	29.44
224.913	34.21
225.13	31.55
225.347	27.8
225.564	26.94
225.781	26.75
225.997	26.68
226.214	25.55
226.431	23.37
226.648	20.28
226.865	20.2
227.082	20.98
227.298	17.05
227.515	18.08
227.732	18.09
227.949	17.32
228.165	17.4
228.382	16.25
228.599	15.02
228.816	13.99
229.032	12.8
229.249	12.77
229.466	10.85
229.682	11.98
229.899	8.49
230.116	6.53
230.332	6.76
230.549	6.48
230.765	6.46
230.982	5.54
231.199	6.81
231.415	10.56
231.632	9.58
231.848	13.25
232.065	13.92
232.281	16.18
232.498	16.91
232.714	16.18
232.931	15.36
233.147	15.48
233.364	17.21
233.58	16.46
233.797	18.23
234.013	19.9
234.23	18.39
234.446	19.22
234.662	19.16
234.879	20.2
235.095	20.3
235.312	20.47
235.528	21.1
235.744	18.44
235.961	17.93
236.177	14.22
236.393	13.57
236.61	15.4
236.826	16.82
237.042	17.82
237.258	17.21
237.475	17.96
237.691	16.51
237.907	16.82
238.123	18.58
238.339	18.01
238.556	17.65
238.772	16.7
238.988	15.23
239.204	13.64
239.42	14.62
239.636	14.78
239.853	13.92
240.069	14.18
240.285	12.82
240.501	12.3
240.717	12.22
240.933	12.09
241.149	12.35
241.365	12.18
241.581	12.56
241.797	11.97
242.013	11.97
242.229	11.77
242.445	12.53
242.661	12.7
242.877	12.55
243.093	12.39
243.309	11.97
243.525	11.6
243.741	11.69
243.957	11.69
244.173	10.65
244.388	9.49
244.604	9.49
244.82	9.29
245.036	9.34
245.252	9.27
245.468	9.13
245.683	9.33
245.899	9.23
246.115	8.98
246.331	8.55
246.547	8.97
246.762	9.06
246.978	9.15
247.194	9.17
247.409	9.29
247.625	9.65
247.841	9.74
248.057	10.27
248.272	9.24
248.488	8.94
248.703	8.92
248.919	9.43
249.135	10.16
249.35	10.47
249.566	8.86
249.782	9.36
249.997	9.11
250.213	9.48
250.428	8.33
250.644	9.98
250.859	9.83
251.075	10.32
251.29	9.57
251.506	9.29
251.721	9.24
251.937	11.31
252.152	10.78
252.368	9.72
252.583	11.07
252.798	12.96
253.014	12.85
253.229	13.63
253.445	12.27
253.66	11.18
253.875	10.13
254.091	9.07
254.306	7.14
254.521	7.45
254.737	8.55
254.952	7.55
255.167	6.59
255.383	6.5
255.598	7.19
255.813	7.98
256.028	8.71
256.244	9.24
256.459	8.75
256.674	8.77
256.889	7.68
257.104	6.51
257.32	5.8
257.535	5.92
257.75	5.59
257.965	5.69
258.18	5.31
258.395	5.44
258.61	5.72
258.826	6.03
259.041	5.94
259.256	6.43
259.471	6.94
259.686	7.27
259.901	7.17
260.116	7.11
260.331	6.95
260.546	7.66
260.761	7.64
260.976	7.39
261.191	7.36
261.406	7.97
261.621	7.39
261.836	6.66
262.05	6.58
262.265	6.75
262.48	8
262.695	7.79
262.91	7.5
263.125	6.96
263.34	7.47
263.555	7.39
263.769	6.3
263.984	7.35
264.199	8.47
264.414	8.65
264.629	8.32
264.843	7.64
265.058	7.41
265.273	7.19
265.488	7.6
265.702	6.76
265.917	7.22
266.132	7.46
266.346	7.03
266.561	7.14
266.776	6.98
266.99	6.25
267.205	6.32
267.42	6.63
267.634	7.04
267.849	7.05
268.063	7.53
268.278	7.15
268.492	7.3
268.707	7.52
268.922	6.98
269.136	6.71
269.351	7.63
269.565	7.78
269.78	7.59
269.994	7.35
270.209	7.77
270.423	7.53
270.637	7.83
270.852	7.86
271.066	7.69
271.281	8
271.495	7.92
271.709	7.49
271.924	7.49
272.138	7.95
272.353	8.22
272.567	7.71
272.781	8.06
272.996	7.92
273.21	7.79
273.424	7.81
273.638	7.3
273.853	7.96
274.067	7.82
274.281	7.6
274.495	6.23
274.71	6.05
274.924	5.92
275.138	6.18
275.352	5.99
275.566	6.56
275.781	6.66
275.995	7.55
276.209	7.29
276.423	7.45
276.637	7.69
276.851	8.73
277.065	9.01
277.279	9.62
277.493	9.43
277.707	8.93
277.921	8.23
278.135	8.34
278.349	7.54
278.563	7.42
278.777	7.66
278.991	7.24
279.205	7.04
279.419	6.69
279.633	6.79
279.847	6.51
280.061	6.59
280.275	6.79
280.489	6.35
280.703	6.6
280.917	6.32
281.131	5.89
281.344	6.07
281.558	5.52
281.772	5.46
281.986	5.2
282.2	5.58
282.414	5.69
282.627	5.49
282.841	6.29
283.055	6.93
283.269	7.28
283.482	8.05
283.696	7.91
283.91	8.6
284.123	8.56
284.337	8.45
284.551	8.13
284.764	8.18
284.978	8.46
285.192	8.02
285.405	7.77
285.619	8.05
285.833	7.81
286.046	8.26
286.26	8.21
286.473	8.63
286.687	8.91
286.9	9.3
287.114	9.26
287.327	9.29
287.541	8.91
287.754	8.54
287.968	8.45
288.181	8.21
288.395	8.11
288.608	7.93
288.822	7.82
289.035	7.72
289.248	7.27
289.462	7.29
289.675	6.93
289.889	7.38
290.102	7.15
290.315	6.67
290.529	6.84
290.742	7.1
290.955	7.31
291.169	7.04
291.382	7.29
291.595	7.65
291.808	7.96
292.022	8.06
292.235	8.01
292.448	8.49
292.661	8.67
292.875	8.49
293.088	8.18
293.301	8.7
293.514	8.49
293.727	8.13
293.94	8.23
294.153	8.09
294.367	8.15
294.58	8.32
294.793	7.77
295.006	8.16
295.219	8.23
295.432	8.32
295.645	8.05
295.858	8.7
296.071	8.78
296.284	9.08
296.497	9.35
296.71	9.58
296.923	9.68
297.136	10.19
297.349	9.5
297.562	9.53
297.775	9.04
297.988	9.45
298.201	9.23
298.414	9.15
298.626	8.82
298.839	8.21
299.052	8.44
299.265	8.14
299.478	7.47
299.691	7.56
299.903	8.29
300.116	8.68
300.329	8.22
300.542	8
300.755	8
300.967	8.02
301.18	8.38
301.393	8.17
301.605	8.36
301.818	9.01
302.031	9.25
302.243	8.59
302.456	8.82
302.669	8.51
302.881	8.58
303.094	8.83
303.307	8.56
303.519	9.21
303.732	9.39
303.944	9.31
304.157	9.89
304.37	10.28
304.582	10.43
304.795	10.58
305.007	11.27
305.22	11.49
305.432	10.69
305.645	10.95
305.857	10.62
306.069	10.4
306.282	10.34
306.494	9.65
306.707	9.7
306.919	10.06
307.132	10.06
307.344	9.95
307.556	10.19
307.769	11.13
307.981	11.17
308.193	11.11
308.406	10.59
308.618	10.39
308.83	10.52
309.043	10.36
309.255	10.15
309.467	9.87
309.679	9.62
309.892	8.92
310.104	8.76
310.316	9.02
310.528	9
310.74	9.33
310.953	9.16
311.165	9.54
311.377	9.75
311.589	9.91
311.801	10.39
312.013	10.88
312.225	11.13
312.437	11.61
312.649	11.4
312.862	11.49
313.074	11.35
313.286	12.34
313.498	12.17
313.71	12.24
313.922	11.88
314.134	11.98
314.346	11.18
314.558	11.49
314.77	10.49
314.982	10.34
315.193	10.27
315.405	10.5
315.617	10.14
315.829	10.28
316.041	10.28
316.253	10.5
316.465	9.49
316.677	9.72
316.888	9.73
317.1	10.21
317.312	10.16
317.524	9.14
317.736	9.59
317.947	10.74
318.159	10.51
318.371	10.5
318.583	10.51
318.794	11.09
319.006	10.98
319.218	10.57
319.43	10.79
319.641	10.94
319.853	11.93
320.064	12.31
320.276	10.97
320.488	10.8
320.699	10.4
320.911	10.08
321.123	9.34
321.334	10.07
321.546	10.08
321.757	9.86
321.969	9.7
322.18	10.02
322.392	8.87
322.603	8.64
322.815	8.35
323.026	8.38
323.238	7.89
323.449	8.37
323.661	7.7
323.872	8.04
324.083	7.61
324.295	8.11
324.506	7.55
324.718	7.87
324.929	8.03
325.14	8.59
325.352	8.76
325.563	9.59
325.774	9.97
325.986	10.4
326.197	11.16
326.408	11.64
326.62	11.38
326.831	11.67
327.042	11.33
327.253	11.18
327.464	11.22
327.676	11.14
327.887	10.57
328.098	10.23
328.309	10.45
328.52	10.32
328.732	9.91
328.943	10.46
329.154	10.57
329.365	10.87
329.576	11.28
329.787	11.26
329.998	11.51
330.209	12.4
330.42	13
330.631	12.62
330.842	12.24
331.053	11.99
331.264	11.37
331.475	11.63
331.686	11.97
331.897	12.04
332.108	11.74
332.319	11.45
332.53	11.36
332.741	11.22
332.952	11.83
333.163	11.85
333.374	12.25
333.585	12.18
333.795	12.23
334.006	12.26
334.217	12.65
334.428	12.76
334.639	13.16
334.849	12.89
335.06	12.27
335.271	11.77
335.482	10.85
335.692	10.82
335.903	10.36
336.114	9.69
336.325	9.73
336.535	9.39
336.746	9.27
336.957	8.97
337.167	9.05
337.378	9.79
337.589	10.16
337.799	10.57
338.01	10.64
338.22	11.56
338.431	12.26
338.642	12.46
338.852	12.54
339.063	12.57
339.273	12.16
339.484	11.72
339.694	11.04
339.905	10.73
340.115	10.78
340.326	10.81
340.536	10.46
340.746	10.28
340.957	9.79
341.167	9.66
341.378	9.8
341.588	10.24
341.799	10.12
342.009	10.48
342.219	10.2
342.43	10.11
342.64	9.67
342.85	9.44
343.061	8.86
343.271	8.73
343.481	8.63
343.691	8.32
343.902	8.15
344.112	8.63
344.322	8.6
344.532	8.88
344.743	8.92
344.953	9.48
345.163	9.38
345.373	9.98
345.583	9.98
345.793	9.91
346.004	9.94
346.214	10.38
346.424	10.42
346.634	10.04
346.844	9.75
347.054	9.61
347.264	9.72
347.474	10.04
347.684	9.83
347.894	9.72
348.104	9.92
348.314	10.08
348.524	9.24
348.734	8.85
348.944	9.09
349.154	9.37
349.364	9.65
349.574	8.85
349.784	8.88
349.994	8.99
350.204	8.98
350.413	8.84
350.623	8.67
350.833	8.43
351.043	8.69
351.253	8.22
351.463	8.09
351.672	8.1
351.882	9.04
352.092	8.7
352.302	8.77
352.511	9.06
352.721	8.66
352.931	9.22
353.141	9.83
353.35	9.61
353.56	9.76
353.77	9.73
353.979	9.6
354.189	9.24
354.399	9.19
354.608	8.86
354.818	9
355.027	9.37
355.237	9.09
355.447	9.27
355.656	9.16
355.866	9.18
356.075	9.16
356.285	9.35
356.494	9.48
356.704	9.4
356.913	9.25
357.123	8.77
357.332	8.57
357.542	8.47
357.751	8.45
357.96	8.89
358.17	9.09
358.379	9.33
358.589	9.45
358.798	9.25
359.007	9.46
359.217	9.58
359.426	9.63
359.635	9.76
359.845	9.64
360.054	9.43
360.263	9.47
360.472	9.1
360.682	9.01
360.891	8.63
361.1	8.63
361.309	8.75
361.519	8.69
361.728	8.92
361.937	8.88
362.146	8.66
362.355	8.49
362.564	8.23
362.774	8.56
362.983	8.45
363.192	8.39
363.401	8.34
363.61	8.3
363.819	8.46
364.028	8.58
364.237	7.99
364.446	8.32
364.655	8.15
364.864	8.24
365.073	8.57
365.282	8.17
365.491	8.29
365.7	8.75
365.909	8.71
366.118	8.42
366.327	8.38
366.536	8.79
366.745	8.96
366.954	9.13
367.162	8.93
367.371	8.61
367.58	9.11
367.789	8.77
367.998	7.81
368.207	7.55
368.415	7.57
368.624	7.64
368.833	7.48
369.042	7.14
369.25	7.61
369.459	7.43
369.668	7.33
369.877	6.97
370.085	7.32
370.294	7.57
370.503	7.33
370.711	7.2
370.92	6.86
371.129	7.1
371.337	6.81
371.546	6.48
371.754	6.58
371.963	6.31
372.171	6.3
372.38	6.57
372.589	6.78
372.797	6.98
373.006	7.14
373.214	7.27
373.423	6.93
373.631	7.4
373.84	7.32
374.048	7.23
374.256	7.5
374.465	7.65
374.673	7.31
374.882	7.05
375.09	7.11
375.298	7.06
375.507	7.16
375.715	7.32
375.923	7.08
376.132	6.97
376.34	6.77
376.548	6.39
376.757	6.3
376.965	6.09
377.173	6.02
377.381	6.14
377.59	6.04
377.798	5.78
378.006	5.6
378.214	5.91
378.423	6.01
378.631	6.19
378.839	6.3
379.047	6.49
379.255	6.49
379.463	6.52
379.671	6.22
379.879	6.25
380.088	6.3
380.296	6.5
380.504	6.17
380.712	5.93
380.92	6.12
381.128	6.01
381.336	5.37
381.544	5.35
381.752	5.46
381.96	5.41
382.168	5.49
382.376	5.5
382.584	5.25
382.791	5.49
382.999	5.69
383.207	5.37
383.415	5.25
383.623	5.51
383.831	5.58
384.039	5.66
384.247	5.82
384.454	5.75
384.662	5.59
384.87	5.77
385.078	5.46
385.285	5.23
385.493	5.35
385.701	5.44
385.909	5.48
386.116	5.55
386.324	5.36
386.532	5.3
386.739	5.49
386.947	5.4
387.155	5.42
387.362	5.5
387.57	5.92
387.778	5.87
387.985	5.9
388.193	5.77
388.4	5.64
388.608	5.57
388.816	5.56
389.023	5.23
389.231	5.2
389.438	4.9
389.646	5.08
389.853	4.81
390.061	4.54
390.268	4.81
390.475	4.89
390.683	4.94
390.89	5.02
391.098	4.99
391.305	5.15
391.512	5.1
391.72	5.24
391.927	4.96
392.135	4.92
392.342	5.06
392.549	4.93
392.756	5.13
392.964	4.87
393.171	4.94
393.378	4.99
393.586	4.83
393.793	4.93
394	4.81
394.207	4.76
394.414	4.89
394.622	5.07
394.829	4.83
395.036	4.57
395.243	4.7
395.45	4.53
395.657	4.5
395.864	4.44
396.072	4.52
396.279	4.34
396.486	4.41
396.693	4.25
396.9	3.98
397.107	4.06
397.314	4.05
397.521	4.08
397.728	3.94
397.935	3.97
398.142	3.99
398.349	3.88
398.556	4.08
398.763	4.12
398.97	4.01
399.177	4.22
399.383	4.21
399.59	4.21
399.797	4.1
400.004	4.25
400.211	4.06
400.418	4.05
400.625	3.82
400.831	3.79
401.038	3.86
401.245	3.98
401.452	3.79
401.658	3.92
401.865	3.79
402.072	3.87
402.279	3.88
402.485	3.82
402.692	3.82
402.899	3.99
403.105	4.05
403.312	4.07
403.519	4.02
403.725	4.07
403.932	4.12
404.138	4.17
404.345	4.01
404.552	3.98
404.758	4.09
404.965	3.96
405.171	3.8
405.378	3.84
405.584	3.63
405.791	3.6
405.997	3.68
406.204	3.48
406.41	3.51
406.617	3.69
406.823	3.57
407.029	3.48
407.236	3.64
407.442	3.86
407.649	3.82
407.855	3.96
408.061	3.89
408.268	3.7
408.474	3.66
408.68	3.71
408.887	3.7
409.093	3.84
409.299	3.87
409.505	3.95
409.712	3.69
409.918	3.55
410.124	3.37
410.33	3.38
410.537	3.42
410.743	3.42
410.949	3.48
411.155	3.44
411.361	3.35
411.567	3.43
411.773	3.39
411.98	3.56
412.186	3.67
412.392	3.64
412.598	3.78
412.804	3.77
413.01	3.76
413.216	3.56
413.422	3.49
413.628	3.58
413.834	3.46
414.04	3.38
414.246	3.39
414.452	3.31
414.658	3.24
414.864	3.06
415.07	3.14
415.275	3.19
415.481	3.2
415.687	3.09
415.893	3.01
416.099	3.03
416.305	3
416.511	3.03
416.716	3.03
416.922	3.1
417.128	3.17
417.334	3.18
417.539	3.12
417.745	3.11
417.951	3.18
418.157	3.15
418.362	3.13
418.568	3.09
418.774	3.01
418.979	2.93
419.185	2.97
419.391	2.96
419.596	2.92
419.802	2.91
420.008	2.96
420.213	3.09
420.419	3.17
420.624	3.18
420.83	3.17
421.035	3.19
421.241	3.24
421.446	3.2
421.652	3.15
421.857	3.12
422.063	3.14
422.268	3.09
422.474	2.96
422.679	2.93
422.885	2.95
423.09	2.9
423.295	2.96
423.501	2.91
423.706	2.89
423.911	2.88
424.117	2.91
424.322	2.89
424.527	2.88
424.733	2.86
424.938	2.75
425.143	2.71
425.349	2.85
425.554	2.69
425.759	2.9
425.964	2.9
426.169	3
426.375	2.97
426.58	3.02
426.785	3.21
426.99	3.29
427.195	3.47
427.4	3.46
427.605	3.4
427.811	3.53
428.016	3.24
428.221	3.25
428.426	3.23
428.631	3.28
428.836	3.17
429.041	2.98
429.246	2.82
429.451	2.73
429.656	2.71
429.861	2.69
430.066	2.59
430.271	2.73
430.476	2.83
430.681	2.89
430.886	2.84
431.09	2.85
431.295	2.92
431.5	3.02
431.705	3.04
431.91	3.15
432.115	3.13
432.32	3.25
432.524	3.2
432.729	3.13
432.934	3.03
433.139	3.01
433.343	3.04
433.548	2.93
433.753	2.95
433.958	2.97
434.162	2.91
434.367	2.9
434.572	2.83
434.776	2.89
434.981	2.86
435.186	2.79
435.39	2.83
435.595	2.76
435.799	2.7
436.004	2.68
436.209	2.53
436.413	2.44
436.618	2.39
436.822	2.38
437.027	2.33
437.231	2.36
437.436	2.45
437.64	2.43
437.845	2.47
438.049	2.53
438.253	2.51
438.458	2.64
438.662	2.72
438.867	2.72
439.071	2.8
439.275	2.72
439.48	2.7
439.684	2.7
439.888	2.65
440.093	2.63
440.297	2.64
440.501	2.61
440.706	2.63
440.91	2.62
441.114	2.59
441.318	2.56
441.523	2.63
441.727	2.57
441.931	2.44
442.135	2.54
442.339	2.63
442.543	2.7
442.748	2.64
442.952	2.53
443.156	2.53
443.36	2.62
443.564	2.52
443.768	2.52
443.972	2.51
444.176	2.75
444.38	2.7
444.584	2.57
444.788	2.51
444.992	2.55
445.196	2.58
445.4	2.54
445.604	2.52
445.808	2.66
446.012	2.63
446.216	2.67
446.42	2.48
446.624	2.48
446.828	2.57
447.032	2.58
447.235	2.59
447.439	2.52
447.643	2.41
447.847	2.36
448.051	2.2
448.254	2.3
448.458	2.32
448.662	2.35
448.866	2.31
449.069	2.28
449.273	2.24
449.477	2.25
449.681	2.31
449.884	2.47
450.088	2.43
450.292	2.41
450.495	2.22
450.699	2.26
450.902	2.32
451.106	2.31
451.31	2.31
451.513	2.29
451.717	2.32
451.92	2.36
452.124	2.33
452.327	2.37
452.531	2.39
452.734	2.47
452.938	2.37
453.141	2.36
453.345	2.43
453.548	2.53
453.752	2.56
453.955	2.62
454.158	2.63
454.362	2.68
454.565	2.8
454.769	2.74
454.972	2.77
455.175	2.84
455.379	2.75
455.582	2.66
455.785	2.55
455.988	2.57
456.192	2.36
456.395	2.27
456.598	2.23
456.801	2.17
457.005	2.3
457.208	2.37
457.411	2.43
457.614	2.41
457.817	2.4
458.021	2.42
458.224	2.39
458.427	2.5
458.63	2.49
458.833	2.55
459.036	2.52
459.239	2.46
459.442	2.43
459.645	2.41
459.848	2.43
460.051	2.47
460.254	2.45
460.457	2.53
460.66	2.57
460.863	2.62
461.066	2.5
461.269	2.53
461.472	2.5
461.675	2.46
461.878	2.38
462.081	2.42
462.284	2.35
462.486	2.31
462.689	2.18
462.892	2.09
463.095	2.13
463.298	2.09
463.5	2.08
463.703	2.02
463.906	2.09
464.109	2.09
464.311	2.08
464.514	2.2
464.717	2.35
464.92	2.32
465.122	2.16
465.325	2.19
465.528	2.27
465.73	2.29
465.933	2.33
466.135	2.2
466.338	2.28
466.541	2.41
466.743	2.35
466.946	2.22
467.148	2.38
467.351	2.51
467.553	2.44
467.756	2.52
467.958	2.56
468.161	2.62
468.363	2.64
468.566	2.54
468.768	2.37
468.971	2.45
469.173	2.49
469.375	2.29
469.578	2.25
469.78	2.32
469.983	2.2
470.185	2.13
470.387	2.18
470.59	2.22
470.792	2.24
470.994	2.33
471.196	2.33
471.399	2.31
471.601	2.4
471.803	2.43
472.005	2.35
472.208	2.34
472.41	2.37
472.612	2.35
472.814	2.37
473.016	2.4
473.218	2.36
473.421	2.3
473.623	2.23
473.825	2.28
474.027	2.15
474.229	2.13
474.431	2.18
474.633	2.2
474.835	2.21
475.037	2.2
475.239	2.21
475.441	2.21
475.643	2.25
475.845	2.34
476.047	2.29
476.249	2.39
476.451	2.38
476.653	2.33
476.855	2.3
477.057	2.35
477.258	2.36
477.46	2.35
477.662	2.26
477.864	2.3
478.066	2.31
478.268	2.28
478.469	2.31
478.671	2.32
478.873	2.35
479.075	2.33
479.276	2.32
479.478	2.28
479.68	2.28
479.882	2.34
480.083	2.26
480.285	2.22
480.487	2.28
480.688	2.34
480.89	2.34
481.091	2.36
481.293	2.37
481.495	2.35
481.696	2.38
481.898	2.4
482.099	2.38
482.301	2.4
482.502	2.44
482.704	2.43
482.905	2.37
483.107	2.36
483.308	2.38
483.51	2.36
483.711	2.37
483.913	2.34
484.114	2.31
484.315	2.33
484.517	2.36
484.718	2.33
484.92	2.34
485.121	2.35
485.322	2.4
485.524	2.38
485.725	2.43
485.926	2.42
486.127	2.4
486.329	2.44
486.53	2.41
486.731	2.39
486.932	2.39
487.134	2.39
487.335	2.43
487.536	2.42
487.737	2.39
487.938	2.32
488.139	2.28
488.341	2.35
488.542	2.33
488.743	2.32
488.944	2.26
489.145	2.26
489.346	2.26
489.547	2.23
489.748	2.24
489.949	2.27
490.15	2.33
490.351	2.36
490.552	2.33
490.753	2.33
490.954	2.35
491.155	2.4
491.356	2.37
491.557	2.38
491.758	2.4
491.959	2.39
492.159	2.39
492.36	2.42
492.561	2.45
492.762	2.39
492.963	2.41
493.164	2.48
493.364	2.51
493.565	2.53
493.766	2.47
493.967	2.48
494.167	2.48
494.368	2.49
494.569	2.39
494.769	2.37
494.97	2.47
495.171	2.49
495.371	2.39
495.572	2.3
495.773	2.36
495.973	2.39
496.174	2.38
496.375	2.39
496.575	2.41
496.776	2.46
496.976	2.45
497.177	2.43
497.377	2.4
497.578	2.45
497.778	2.54
497.979	2.52
498.179	2.51
498.38	2.51
498.58	2.58
498.78	2.61
498.981	2.6
499.181	2.61
499.382	2.59
499.582	2.55
499.782	2.63
499.983	2.58
500.183	2.54
500.383	2.62
500.584	2.63
500.784	2.53
500.984	2.45
501.184	2.49
501.385	2.58
501.585	2.6
501.785	2.63
501.985	2.59
502.185	2.66
502.386	2.72
502.586	2.68
502.786	2.69
502.986	2.69
503.186	2.77
503.386	2.73
503.586	2.69
503.786	2.72
503.987	2.84
504.187	2.83
504.387	2.8
504.587	2.88
504.787	2.87
504.987	2.87
505.187	2.82
505.387	2.8
505.587	2.88
505.786	2.85
505.986	2.88
506.186	2.79
506.386	2.7
506.586	2.71
506.786	2.62
506.986	2.72
507.186	2.73
507.386	2.79
507.585	2.79
507.785	2.8
507.985	2.81
508.185	2.81
508.384	2.88
508.584	2.97
508.784	2.97
508.984	2.98
509.183	2.92
509.383	2.9
509.583	2.96
509.782	2.96
509.982	2.91
510.182	2.94
510.381	2.98
510.581	2.93
510.781	2.96
510.98	2.95
511.18	2.98
511.379	3.03
511.579	3.04
511.778	3.04
511.978	3.03
512.177	3.06
512.377	3.14
512.576	3.08
512.776	3.08
512.975	3.12
513.175	3.22
513.374	3.27
513.573	3.31
513.773	3.34
513.972	3.38
514.172	3.43
514.371	3.48
514.57	3.37
514.77	3.46
514.969	3.48
515.168	3.45
515.367	3.44
515.567	3.38
515.766	3.31
515.965	3.33
516.164	3.31
516.364	3.3
516.563	3.23
516.762	3.22
516.961	3.17
517.16	3.19
517.359	3.14
517.559	3.13
517.758	3.14
517.957	3.15
518.156	3.19
518.355	3.18
518.554	3.18
518.753	3.24
518.952	3.35
519.151	3.4
519.35	3.41
519.549	3.5
519.748	3.52
519.947	3.61
520.146	3.63
520.345	3.6
520.544	3.63
520.743	3.65
520.942	3.7
521.141	3.65
521.339	3.7
521.538	3.71
521.737	3.71
521.936	3.81
522.135	3.77
522.333	3.82
522.532	3.76
522.731	3.75
522.93	3.8
523.129	3.8
523.327	3.87
523.526	3.83
523.725	3.8
523.923	3.73
524.122	3.63
524.321	3.62
524.519	3.63
524.718	3.72
524.917	3.78
525.115	3.8
525.314	3.82
525.512	3.83
525.711	3.81
525.909	3.88
526.108	3.92
526.306	4.01
526.505	4.02
526.703	3.99
526.902	3.98
527.1	3.97
527.299	3.96
527.497	3.94
527.696	3.94
527.894	3.93
528.092	3.9
528.291	3.91
528.489	3.88
528.688	3.88
528.886	3.9
529.084	3.9
529.283	3.88
529.481	3.9
529.679	3.93
529.877	3.88
530.076	3.92
530.274	3.96
530.472	3.98
530.67	4
530.869	4.01
531.067	4.04
531.265	4.04
531.463	4.06
531.661	4.04
531.859	4
532.057	4.04
532.255	4.07
532.454	4.04
532.652	4.05
532.85	4.05
533.048	4.08
533.246	4.1
533.444	4.12
533.642	4.16
533.84	4.19
534.038	4.29
534.236	4.35
534.434	4.31
534.632	4.39
534.83	4.45
535.027	4.49
535.225	4.49
535.423	4.5
535.621	4.54
535.819	4.53
536.017	4.5
536.215	4.47
536.412	4.51
536.61	4.52
536.808	4.45
537.006	4.45
537.203	4.4
537.401	4.47
537.599	4.5
537.797	4.53
537.994	4.63
538.192	4.73
538.39	4.72
538.587	4.71
538.785	4.85
538.983	4.94
539.18	4.99
539.378	5.02
539.575	5.01
539.773	4.97
539.97	5.02
540.168	5
540.366	5.03
540.563	5.08
540.761	5.06
540.958	5.02
541.155	5.03
541.353	5.03
541.55	5.09
541.748	5.05
541.945	5.1
542.143	5.09
542.34	5.13
542.537	5.09
542.735	5.14
542.932	5.2
543.129	5.23
543.327	5.24
543.524	5.27
543.721	5.29
543.919	5.42
544.116	5.5
544.313	5.6
544.51	5.61
544.708	5.67
544.905	5.67
545.102	5.74
545.299	5.83
545.496	5.85
545.693	5.82
545.891	5.89
546.088	5.81
546.285	5.77
546.482	5.71
546.679	5.72
546.876	5.76
547.073	5.72
547.27	5.8
547.467	5.76
547.664	5.84
547.861	5.85
548.058	5.87
548.255	6.01
548.452	6.19
548.649	6.25
548.846	6.38
549.043	6.36
549.24	6.47
549.437	6.45
549.633	6.53
549.83	6.6
550.027	6.86
550.224	6.9
550.421	7.07
550.618	6.95
550.814	7.03
551.011	7.02
551.208	7.11
551.405	7.14
551.601	7.22
551.798	7.25
551.995	7.23
552.191	7.16
552.388	7.15
552.585	7.03
552.781	7.16
552.978	7.21
553.175	7.26
553.371	7.33
553.568	7.38
553.764	7.36
553.961	7.43
554.157	7.45
554.354	7.51
554.55	7.66
554.747	7.78
554.943	7.7
555.14	7.66
555.336	7.7
555.533	7.63
555.729	7.8
555.926	7.83
556.122	7.84
556.318	7.94
556.515	7.93
556.711	7.87
556.907	7.85
557.104	8.03
557.3	8.16
557.496	8.21
557.693	8.32
557.889	8.4
558.085	8.49
558.281	8.69
558.478	8.76
558.674	8.88
558.87	8.94
559.066	9.09
559.262	9.03
559.459	8.94
559.655	9.04
559.851	9.09
560.047	9.06
560.243	9.06
560.439	9.06
560.635	9.09
560.831	9.1
561.027	9.24
561.223	9.19
561.419	9.4
561.615	9.5
561.811	9.51
562.007	9.6
562.203	9.66
562.399	9.71
562.595	9.69
562.791	9.84
562.987	9.96
563.183	10.06
563.379	10.08
563.575	10.13
563.771	10.24
563.966	10.35
564.162	10.43
564.358	10.43
564.554	10.5
564.75	10.49
564.945	10.42
565.141	10.45
565.337	10.46
565.533	10.62
565.728	10.58
565.924	10.52
566.12	10.59
566.315	10.67
566.511	10.73
566.707	10.85
566.902	10.95
567.098	11.05
567.293	11.05
567.489	11.06
567.684	11.04
567.88	11.1
568.076	11.28
568.271	11.25
568.467	11.31
568.662	11.42
568.858	11.36
569.053	11.5
569.248	11.42
569.444	11.5
569.639	11.53
569.835	11.66
570.03	11.72
570.225	11.72
570.421	11.75
570.616	11.72
570.812	11.77
571.007	11.91
571.202	11.93
571.397	12.05
571.593	12.07
571.788	12.12
571.983	12.13
572.178	12.18
572.374	12.33
572.569	12.45
572.764	12.53
572.959	12.49
573.154	12.44
573.35	12.47
573.545	12.59
573.74	12.65
573.935	12.68
574.13	12.63
574.325	12.6
574.52	12.65
574.715	12.61
574.91	12.67
575.105	12.78
575.3	12.76
575.495	12.82
575.69	12.79
575.885	12.87
576.08	12.93
576.275	13.09
576.47	13.26
576.665	13.21
576.86	13.3
577.055	13.17
577.25	13.26
577.444	13.45
577.639	13.56
577.834	13.61
578.029	13.72
578.224	13.75
578.418	13.83
578.613	13.9
578.808	13.87
579.003	13.92
579.197	14.1
579.392	14.09
579.587	14.16
579.781	14.12
579.976	14.18
580.171	14.16
580.365	14.09
580.56	14.05
580.755	14
580.949	14.13
581.144	14.03
581.338	13.95
581.533	13.8
581.727	13.7
581.922	13.69
582.116	13.66
582.311	13.53
582.505	13.7
582.7	13.76
582.894	13.83
583.089	13.8
583.283	14
583.478	14.19
583.672	14.38
583.866	14.48
584.061	14.51
584.255	14.48
584.449	14.56
584.644	14.6
584.838	14.66
585.032	14.69
585.226	14.82
585.421	14.81
585.615	14.87
585.809	14.83
586.003	14.79
586.198	14.89
586.392	15.04
586.586	15.15
586.78	15.08
586.974	15.01
587.168	14.95
587.363	14.85
587.557	14.82
587.751	14.76
587.945	14.87
588.139	14.92
588.333	14.85
588.527	14.79
588.721	14.77
588.915	14.65
589.109	14.8
589.303	14.87
589.497	14.96
589.691	15.05
589.885	15.13
590.079	15.21
590.273	15.23
590.466	15.29
590.66	15.3
590.854	15.3
591.048	15.46
591.242	15.38
591.436	15.3
591.629	15.17
591.823	15.14
592.017	15.16
592.211	14.97
592.404	14.86
592.598	14.92
592.792	15.02
592.986	15.05
593.179	15.19
593.373	15.19
593.567	15.29
593.76	15.44
593.954	15.5
594.147	15.45
594.341	15.58
594.535	15.77
594.728	15.75
594.922	15.88
595.115	15.72
595.309	15.57
595.502	15.66
595.696	15.71
595.889	15.75
596.083	15.72
596.276	15.69
596.47	15.69
596.663	15.58
596.856	15.6
597.05	15.54
597.243	15.76
597.437	15.94
597.63	15.81
597.823	15.81
598.017	15.79
598.21	15.81
598.403	15.99
598.596	16.02
598.79	16.05
598.983	16.02
599.176	15.99
599.369	15.98
599.563	15.98
599.756	16.11
599.949	16.19
600.142	16.16
600.335	16.23
600.528	16.16
600.722	16.08
600.915	16.04
601.108	16.18
601.301	16.22
601.494	16.23
601.687	16.18
601.88	16.24
602.073	16.15
602.266	16.19
602.459	16.13
602.652	16.07
602.845	16.2
603.038	16.26
603.231	16.24
603.424	16.32
603.617	16.37
603.809	16.31
604.002	16.33
604.195	16.44
604.388	16.5
604.581	16.61
604.774	16.75
604.966	16.64
605.159	16.65
605.352	16.6
605.545	16.47
605.737	16.42
605.93	16.45
606.123	16.45
606.316	16.34
606.508	16.23
606.701	16.17
606.894	16.01
607.086	16.19
607.279	16.16
607.471	16.33
607.664	16.36
607.857	16.47
608.049	16.54
608.242	16.52
608.434	16.43
608.627	16.54
608.819	16.45
609.012	16.52
609.204	16.52
609.397	16.6
609.589	16.45
609.782	16.61
609.974	16.52
610.166	16.5
610.359	16.55
610.551	16.69
610.743	16.55
610.936	16.82
611.128	16.86
611.32	16.94
611.513	17.05
611.705	17.13
611.897	17.02
612.09	17.05
612.282	17.08
612.474	16.94
612.666	17.03
612.858	17.11
613.051	16.86
613.243	16.82
613.435	16.77
613.627	16.85
613.819	16.81
614.011	16.97
614.203	17.13
614.395	17.11
614.588	17.27
614.78	17.04
614.972	16.99
615.164	16.98
615.356	17.03
615.548	16.9
615.74	16.76
615.932	16.73
616.124	16.39
616.315	16.37
616.507	16.39
616.699	16.32
616.891	16.3
617.083	16.36
617.275	16.51
617.467	16.47
617.659	16.33
617.85	16.19
618.042	16.32
618.234	16.53
618.426	16.32
618.618	16.25
618.809	16.16
619.001	16.43
619.193	16.58
619.384	16.48
619.576	16.59
619.768	16.7
619.959	16.64
620.151	16.79
620.343	16.65
620.534	16.74
620.726	17.01
620.917	17.14
621.109	16.9
621.301	16.81
621.492	16.91
621.684	16.8
621.875	16.97
622.067	17.25
622.258	17.04
622.45	17.15
622.641	17.21
622.832	17
623.024	17
623.215	17.14
623.407	17
623.598	17.08
623.789	17.17
623.981	17.11
624.172	17.02
624.363	17.14
624.555	17.14
624.746	17.11
624.937	17.22
625.129	17.12
625.32	17.05
625.511	17.12
625.702	17.04
625.893	16.83
626.085	16.72
626.276	16.71
626.467	16.65
626.658	16.5
626.849	16.47
627.04	16.35
627.231	16.38
627.422	16.37
627.614	16.36
627.805	16.28
627.996	16.31
628.187	16.35
628.378	16.27
628.569	16.45
628.76	16.65
628.951	16.49
629.142	16.53
629.332	16.52
629.523	16.58
629.714	16.58
629.905	16.77
630.096	16.94
630.287	17.01
630.478	17.06
630.669	16.83
630.859	16.81
631.05	16.83
631.241	16.79
631.432	16.66
631.623	16.76
631.813	16.78
632.004	16.58
632.195	16.59
632.385	16.62
632.576	16.68
632.767	16.71
632.957	16.64
633.148	16.82
633.339	16.93
633.529	17.11
633.72	16.99
633.91	17
634.101	17.09
634.292	17.14
634.482	17.09
634.673	17.15
634.863	17.07
635.054	17.08
635.244	17.02
635.435	16.99
635.625	17.04
635.815	17.08
636.006	17.04
636.196	16.93
636.387	16.8
636.577	16.89
636.767	16.69
636.958	16.66
637.148	16.74
637.338	16.59
637.529	16.71
637.719	16.67
637.909	16.63
638.099	16.61
638.29	16.81
638.48	16.76
638.67	16.62
638.86	16.82
639.05	16.9
639.241	16.93
639.431	17.09
639.621	16.95
639.811	16.88
640.001	16.97
640.191	17.02
640.381	16.79
640.571	16.91
640.761	17.11
640.951	17.18
641.141	17.13
641.331	16.83
641.521	16.82
641.711	16.8
641.901	16.89
642.091	16.82
642.281	16.83
642.471	16.78
642.661	16.83
642.851	16.76
643.041	16.7
643.231	16.82
643.42	17.18
643.61	17.25
643.8	17.15
643.99	17.38
644.18	17.36
644.369	17.23
644.559	17.37
644.749	17.3
644.939	17.35
645.128	17.26
645.318	17.16
645.508	17
645.697	17.03
645.887	17.13
646.076	16.67
646.266	16.5
646.456	16.69
646.645	16.81
646.835	16.8
647.024	16.74
647.214	16.87
647.403	16.94
647.593	17.08
647.782	17.12
647.972	17.05
648.161	17.14
648.351	17.31
648.54	17.23
648.73	17.36
648.919	17.36
649.108	17.13
649.298	17.29
649.487	17.23
649.677	17.3
649.866	17.14
650.055	17.18
650.244	17.26
650.434	17.32
650.623	17.45
650.812	17.24
651.002	17.32
651.191	17.55
651.38	17.29
651.569	17.29
651.758	17.15
651.947	17.44
652.137	17.45
652.326	17.46
652.515	17.33
652.704	17.31
652.893	17.52
653.082	17.52
653.271	17.39
653.46	17.5
653.649	17.73
653.838	17.69
654.027	17.45
654.216	17.38
654.405	17.38
654.594	17.45
654.783	17.42
654.972	17.15
655.161	17.36
655.35	17.38
655.539	17.33
655.728	17.24
655.916	17.44
656.105	17.42
656.294	17.48
656.483	17.46
656.672	17.43
656.86	17.32
657.049	17.26
657.238	17.19
657.427	17.3
657.615	17.2
657.804	17.06
657.993	16.92
658.181	16.86
658.37	16.98
658.559	16.96
658.747	17.03
658.936	17.06
659.125	17.37
659.313	17.11
659.502	17.16
659.69	17.2
659.879	17.27
660.067	17.25
660.256	17.2
660.444	17.12
660.633	17.29
660.821	17.4
661.01	17.38
661.198	17.24
661.387	17.53
661.575	17.45
661.763	17.5
661.952	17.36
662.14	17.6
662.328	17.7
662.517	17.72
662.705	17.54
662.893	17.26
663.082	17.38
663.27	17.26
663.458	17.3
663.646	17.32
663.834	17.25
664.023	17.52
664.211	17.34
664.399	17.41
664.587	17.5
664.775	17.57
664.963	17.88
665.152	17.8
665.34	17.94
665.528	17.73
665.716	17.72
665.904	17.86
666.092	17.87
666.28	17.89
666.468	17.69
666.656	17.55
666.844	17.64
667.032	17.72
667.22	17.98
667.408	17.83
667.596	18.07
667.784	17.89
667.971	18.11
668.159	18.03
668.347	17.85
668.535	17.99
668.723	18.02
668.911	18.09
669.098	17.7
669.286	17.56
669.474	17.47
669.662	17.36
669.849	17.74
670.037	17.5
670.225	17.45
670.413	17.65
670.6	17.67
670.788	17.87
670.976	17.78
671.163	17.91
671.351	17.92
671.538	18.1
671.726	18.17
671.913	17.97
672.101	17.97
672.289	17.78
672.476	17.71
672.664	17.73
672.851	17.62
673.039	17.62
673.226	17.84
673.413	17.73
673.601	17.73
673.788	18.03
673.976	17.99
674.163	18.16
674.35	18.42
674.538	18.46
674.725	18.56
674.912	18.49
675.1	18.34
675.287	18.1
675.474	18.02
675.662	18.03
675.849	17.95
676.036	18.07
676.223	17.66
676.411	17.56
676.598	17.58
676.785	17.71
676.972	17.82
677.159	18
677.346	17.96
677.533	18.05
677.721	18.06
677.908	17.54
678.095	17.54
678.282	17.73
678.469	17.9
678.656	17.76
678.843	17.68
679.03	17.53
679.217	17.62
679.404	17.7
679.591	17.57
679.778	17.63
679.964	18
680.151	17.79
680.338	17.8
680.525	17.77
680.712	17.93
680.899	17.77
681.086	18.07
681.272	17.98
681.459	17.89
681.646	17.98
681.833	18.02
682.02	17.9
682.206	18.33
682.393	18.46
682.58	18.38
682.766	18.17
682.953	18.38
683.14	18.13
683.326	18.45
683.513	18.48
683.7	18.34
683.886	18.33
684.073	18.17
684.259	17.73
684.446	17.64
684.632	17.61
684.819	17.72
685.005	17.52
685.192	17.59
685.378	16.95
685.565	17.25
685.751	17.51
685.938	17.35
686.124	17.29
686.31	17.46
686.497	17.49
686.683	17.7
686.87	17.73
687.056	17.89
687.242	17.48
687.429	17.95
687.615	17.76
687.801	17.76
687.987	17.66
688.174	17.94
688.36	17.76
688.546	17.92
688.732	17.84
688.918	17.99
689.105	17.8
689.291	18.36
689.477	17.99
689.663	17.93
689.849	17.6
690.035	17.76
690.221	17.64
690.407	17.97
690.593	17.33
690.779	17.36
690.965	17.29
691.151	17.33
691.337	17.33
691.523	17.81
691.709	17.65
691.895	18.09
692.081	18.31
692.267	18.23
692.453	18.06
692.639	18.14
692.825	17.96
693.011	18.06
693.196	18.11
693.382	17.46
693.568	16.95
693.754	17.31
693.94	17.13
694.125	16.75
694.311	16.86
694.497	16.75
694.682	17.24
694.868	17.46
695.054	17.08
695.239	17.28
695.425	17.9
695.611	18.38
695.796	17.96
695.982	17.86
696.168	18.07
696.353	18.23
696.539	18.22
696.724	18.02
696.91	17.79
697.095	17.8
697.281	17.59
697.466	17.45
697.652	17.29
697.837	17.41
698.023	17.59
698.208	17.32
698.393	17.16
698.579	17.19
698.764	17.13
698.949	17
699.135	17.21
699.32	17.21
699.505	16.97
699.691	16.49
699.876	16.55
700.061	16.33
700.246	16.53
700.432	16.84
700.617	17.03
700.802	17.02
700.987	17.43
701.172	17.63
701.358	17.57
701.543	17.89
701.728	18.49
701.913	18.15
702.098	18.3
702.283	18.43
702.468	18.35
702.653	18.25
702.838	18.81
703.023	18.69
703.208	17.81
703.393	18.16
703.578	18.1
703.763	18.37
703.948	18.92
704.133	19.2
704.318	19.08
704.503	19.04
704.688	18.94
704.873	18.48
705.057	18.69
705.242	19.09
705.427	18.92
705.612	18.98
705.797	18.79
705.981	19.24
706.166	19.12
706.351	18.87
706.536	18.85
706.72	18.73
706.905	18.8
707.09	18.65
707.274	18.9
707.459	19.07
707.644	19.22
707.828	18.91
708.013	18.21
708.197	18.22
708.382	18.49
708.567	18.63
708.751	18.45
708.936	18.45
709.12	18.66
709.305	18.34
709.489	18.26
709.673	18.03
709.858	18.17
710.042	18.46
710.227	18.24
710.411	18.24
710.596	17.95
710.78	18.16
710.964	18.07
711.149	18.31
711.333	18.54
711.517	18.36
711.702	18.4
711.886	18.69
712.07	18.67
712.254	18.59
712.438	18.41
712.623	18.36
712.807	18.4
712.991	18.6
713.175	18.57
713.359	18.39
713.544	18.71
713.728	18.35
713.912	18.12
714.096	17.76
714.28	17.76
714.464	17.96
714.648	18.05
714.832	17.72
715.016	17.67
715.2	17.11
715.384	17.32
715.568	17.34
715.752	17.82
715.936	17.74
716.12	18.03
716.304	18.56
716.488	18.17
716.671	17.98
716.855	18.54
717.039	18.56
717.223	18.41
717.407	18.57
717.59	18.31
717.774	18.24
717.958	18.46
718.142	18.01
718.325	17.46
718.509	17.25
718.693	17.4
718.877	17.01
719.06	16.87
719.244	17.24
719.428	16.57
719.611	16.78
719.795	16.22
719.978	15.92
720.162	16.77
720.345	17.24
720.529	17.95
720.713	17.96
720.896	18.36
721.08	17.98
721.263	18.18
721.446	18.8
721.63	18.8
721.813	19.16
721.997	19.38
722.18	19.19
722.364	18.82
722.547	18.82
722.73	18.51
722.914	18.54
723.097	19.16
723.28	18.89
723.464	18.45
723.647	18.59
723.83	18.87
724.013	18.67
724.197	18.58
724.38	18.74
724.563	18.51
724.746	18.93
724.929	18.59
725.112	18.85
725.296	19.38
725.479	19.74
725.662	19.55
725.845	19.26
726.028	19.22
726.211	19.18
726.394	19.25
726.577	19.18
726.76	18.72
726.943	18.87
727.126	18.41
727.309	17.89
727.492	17.39
727.675	16.99
727.858	16.78
728.041	17.03
728.224	17.23
728.407	17.05
728.589	17.47
728.772	17.81
728.955	17.66
729.138	17.65
729.321	17.94
729.503	18.11
729.686	18.67
729.869	18.86
730.052	18.67
730.234	18.66
730.417	18.92
730.6	18.69
730.782	18.41
730.965	18.37
731.148	18.29
731.33	18.36
731.513	18.64
731.695	18.48
731.878	18.46
732.061	18.07
732.243	17.92
732.426	17.77
732.608	18.05
732.791	18.49
732.973	18.41
733.156	18.54
733.338	18.06
733.52	18.54
733.703	18.41
733.885	18.83
734.068	19.51
734.25	19.63
734.432	19.77
734.615	19.22
734.797	18.95
734.979	19.06
735.162	19.35
735.344	19.74
735.526	19.03
735.708	19.03
735.891	18.93
736.073	18.35
736.255	18.01
736.437	17.39
736.619	17.57
736.802	17.43
736.984	17.67
737.166	17.72
737.348	17.7
737.53	18.03
737.712	18.18
737.894	18.34
738.076	18.85
738.258	18.76
738.44	19.75
738.622	19.74
738.804	20.21
738.986	20.3
739.168	19.7
739.35	19.88
739.532	19.87
739.714	19.79
739.896	19.48
740.078	19.48
740.259	19.3
740.441	18.66
740.623	18.86
740.805	18.86
740.987	18.84
741.168	19.32
741.35	19.47
741.532	19.52
741.714	19.71
741.895	19.43
742.077	20.17
742.259	20.19
742.44	20.36
742.622	19.88
742.804	19.94
742.985	19.6
743.167	19.79
743.348	19.26
743.53	18.97
743.711	19.07
743.893	19.75
744.075	19.22
744.256	19.52
744.438	19.8
744.619	20.12
744.8	20.02
744.982	19.98
745.163	20.18
745.345	20.28
745.526	21.03
745.707	20.8
745.889	20.31
746.07	20.91
746.252	21.38
746.433	21.11
746.614	21.23
746.795	20.16
746.977	20.75
747.158	19.94
747.339	20.1
747.52	19.95
747.702	19.03
747.883	19.63
748.064	19.18
748.245	19.36
748.426	19.38
748.607	19.02
748.788	20.06
748.97	19.84
749.151	20.23
749.332	20.09
749.513	19.45
749.694	20.61
749.875	20.28
750.056	19.89
750.237	19.69
750.418	20.08
750.599	20.8
750.78	21.03
750.96	21.61
751.141	21.6
751.322	21.02
751.503	21.23
751.684	21.35
751.865	21.29
752.046	21.24
752.226	21.13
752.407	20.29
752.588	20.02
752.769	19.76
752.949	18.64
753.13	18.87
753.311	18.89
753.492	18.96
753.672	18.88
753.853	19.28
754.034	19.17
754.214	19.39
754.395	19.74
754.575	19.96
754.756	19.2
754.937	19.62
755.117	19.69
755.298	20.4
755.478	20.78
755.659	20.1
755.839	19.24
756.02	19.82
756.2	19.72
756.381	19.26
756.561	18.9
756.741	19.4
756.922	19.89
757.102	20.1
757.283	19.9
757.463	19.14
757.643	19.56
757.823	19.81
758.004	19.45
758.184	19.34
758.364	19.64
758.545	19.99
758.725	19.72
758.905	19.43
759.085	19.36
759.265	19.07
759.446	18.58
759.626	18.56
759.806	19.13
759.986	19.41
760.166	18.71
760.346	18.3
760.526	18.17
760.706	18.09
760.886	18.07
761.066	17.58
761.246	17.94
761.426	18.8
761.606	18.75
761.786	18.31
761.966	17.91
762.146	18.32
762.326	18.56
762.506	18.92
762.686	19.76
762.866	19.95
763.046	20.34
763.225	20.38
763.405	20.04
763.585	19.87
763.765	19.75
763.945	19.45
764.124	19.86
764.304	20.04
764.484	20.06
764.664	19.36
764.843	18.8
765.023	18.79
765.203	18.47
765.382	18.61
765.562	19.29
765.741	19.61
765.921	20.59
766.101	19.96
766.28	20.07
766.46	19.9
766.639	19.94
766.819	20.34
766.998	19.69
767.178	20.12
767.357	20.26
767.537	19.87
767.716	19.77
767.896	19.62
768.075	20.42
768.254	19.82
768.434	19.66
768.613	19.88
768.792	20.31
768.972	20.86
769.151	20.94
769.33	21.54
769.51	21.42
769.689	21.68
769.868	22.16
770.047	21.58
770.226	22.15
770.406	21.95
770.585	22.27
770.764	22.52
770.943	22.69
771.122	22.53
771.301	21.92
771.48	21.83
771.66	21.56
771.839	21.44
772.018	21.5
772.197	21.55
772.376	21.82
772.555	21.54
772.734	21.19
772.913	20.59
773.092	20.23
773.271	20.09
773.449	20.24
773.628	20.06
773.807	19.03
773.986	19.24
774.165	18.93
774.344	19.29
774.523	19.46
774.701	18.9
774.88	19.54
775.059	20.35
775.238	20.78
775.417	21.52
775.595	21.41
775.774	21.86
775.953	21.68
776.131	22.18
776.31	21.95
776.489	21.99
776.667	22.58
776.846	22.48
777.025	21.46
777.203	21.21
777.382	21.9
777.56	22.11
777.739	23.38
777.917	24.29
778.096	24.67
778.274	24.76
778.453	24.33
778.631	24.11
778.81	23.85
778.988	24.36
779.166	24.32
779.345	23.55
779.523	23.35
779.702	22.56
779.88	21.53
780.058	21.26
780.237	21.31
780.415	21.24
780.593	21.83
780.771	21.26
780.95	22.53
781.128	22.14
781.306	21.66
781.484	22.72
781.662	21.82
781.841	22.17
782.019	22.02
782.197	21.09
782.375	21.53
782.553	21.44
782.731	21.15
782.909	20.89
783.087	21.85
783.265	21.43
783.443	20.58
783.621	20.92
783.799	20.93
783.977	20.34
784.155	21.12
784.333	22.3
784.511	21.07
784.689	21.53
784.867	20.47
785.045	20.11
785.223	20.88
785.4	20.96
785.578	20.76
785.756	19.97
785.934	20.6
786.112	20.41
786.289	19.02
786.467	19.64
786.645	20.06
786.823	20.72
787	20.6
787.178	19.05
787.356	19.4
787.533	19.6
787.711	20.26
787.889	20.59
788.066	20.02
788.244	20.3
788.421	20
788.599	20.01
788.776	20
788.954	19.37
789.131	19.83
789.309	19.3
789.486	20.05
789.664	19.84
789.841	18.95
790.019	19.74
790.196	19.42
790.373	19.32
790.551	20.14
790.728	19.24
790.906	20.43
791.083	21.14
791.26	22.82
791.437	22.89
791.615	23.03
791.792	23.5
791.969	24.2
792.146	24.81
792.324	25.28
792.501	24.41
792.678	25.1
792.855	25.68
793.032	25.02
793.209	23.34
793.387	23.3
793.564	23.1
793.741	23.35
793.918	22.2
794.095	21.82
794.272	21.48
794.449	21.66
794.626	21.76
794.803	20.87
794.98	20.96
795.157	21.3
795.334	20.32
795.511	21.04
795.688	20.57
795.864	20.65
796.041	20.79
796.218	20.97
796.395	20.24
796.572	19.56
796.749	19.96
796.925	20.67
797.102	21.2
797.279	21.63
797.456	21.53
797.632	21.2
797.809	21.26
797.986	20.92
798.162	20.47
798.339	19.99
798.516	20.49
798.692	19.05
798.869	19.63
799.046	19.87
799.222	20.14
799.399	19.42
799.575	19.94
799.752	20.16
799.928	20.85
800.105	21.04
800.281	22.71
800.458	22.87
800.634	24.53
800.811	24.02
800.987	23.5
801.163	21.91
801.34	21.46
801.516	22.11
801.692	23.31
801.869	22.48
802.045	22.27
802.221	21.79
802.398	22.1
802.574	21.28
802.75	22.13
802.926	22.97
803.103	24.38
803.279	24.68
803.455	23.67
803.631	22.79
803.807	23.07
803.983	24.25
804.16	24.09
804.336	23.92
804.512	24.61
804.688	23.88
804.864	23.65
805.04	24.26
805.216	25.24
805.392	25.6
805.568	25.9
805.744	25.12
805.92	24.81
806.096	24.81
806.272	24.29
806.448	25.17
806.623	25.7
806.799	25.35
806.975	23.18
807.151	23.26
807.327	22.93
807.503	21.9
807.678	24.16
807.854	23.75
808.03	24.22
808.206	23.75
808.381	22.88
808.557	22.3
808.733	22.15
808.908	22.91
809.084	22.81
809.26	23.6
809.435	24.15
809.611	22.8
809.787	22.12
809.962	20.84
810.138	21.55
810.313	20.64
810.489	20.98
810.664	20.25
810.84	20.89
811.015	22.1
811.191	23.3
811.366	23.81
811.542	24.28
811.717	25.23
811.892	26.55
812.068	25.82
812.243	25.41
812.419	25.39
812.594	26.38
812.769	25.18
812.944	23.17
813.12	21.28
813.295	21.67
813.47	20.89
813.645	20.98
813.821	20.01
813.996	21.02
814.171	22.78
814.346	21.91
814.521	21.66
814.697	22.81
814.872	23.72
815.047	22.54
815.222	21.27
815.397	20.56
815.572	20.78
815.747	20.53
815.922	20.68
816.097	18.84
816.272	20.05
816.447	19.89
816.622	19.31
816.797	19.56
816.972	20.82
817.147	20.36
817.322	22.22
817.496	21.66
817.671	22.77
817.846	22.52
818.021	22.99
818.196	22.8
818.371	22.88
818.545	24.1
818.72	23.24
818.895	23.76
819.069	23.58
819.244	23.2
819.419	22.84
819.594	22.11
819.768	21.51
819.943	21.43
820.117	21.21
820.292	21.37
820.467	20.75
820.641	20.1
820.816	19.58
820.99	19.45
821.165	19.36
821.339	19.82
821.514	19.92
821.688	19.73
821.863	19.48
822.037	19.35
822.212	19.03
822.386	18.91
822.56	18.94
822.735	19.02
822.909	19.14
823.084	18.97
823.258	18.64
823.432	18.45
823.606	18.57
823.781	18.79
823.955	18.65
824.129	18.61
824.303	18.96
824.478	19.24
824.652	19
824.826	19.14
825	19.44
825.174	19.53
825.348	19.15
825.523	19.18
825.697	19.32
825.871	19.48
826.045	19.97
826.219	19.38
826.393	19.45
826.567	20.39
826.741	20.06
826.915	20.1
827.089	20.19
827.263	20.67
827.437	21.09
827.611	20.84
827.784	20.73
827.958	20.4
828.132	20.61
828.306	20.66
828.48	19.94
828.654	20.7
828.827	20.19
829.001	20.03
829.175	20.89
829.349	20.61
829.522	21.13
829.696	20.93
829.87	20.91
830.044	21.74
830.217	21.84
830.391	22.06
830.565	21.27
830.738	21.96
830.912	22.31
831.085	21.03
831.259	22.47
831.432	21.87
831.606	22.67
831.779	23.06
831.953	23.11
832.126	23.16
832.3	23.09
832.473	23.09
832.647	22.91
832.82	22.27
832.994	22.73
833.167	21.83
833.34	22.24
833.514	22.19
833.687	21.99
833.86	21.47
834.034	21.77
834.207	22.11
834.38	21.95
834.553	21.79
834.727	21.65
834.9	20.87
835.073	20.67
835.246	20.49
835.419	19.98
835.593	20.52
835.766	20.61
835.939	20.54
836.112	20.43
836.285	20.63
836.458	21.12
836.631	22.03
836.804	23.32
836.977	23.21
837.15	23.38
837.323	24.99
837.496	23.78
837.669	24.82
837.842	24.55
838.015	25.07
838.188	25.9
838.361	24.47
838.533	25.06
838.706	24.7
838.879	25.6
839.052	25.95
839.225	25.63
839.398	26.67
839.57	27.04
839.743	27.55
839.916	25.46
840.088	25.35
840.261	28.72
840.434	29.11
840.607	28.81
840.779	28.9
840.952	28.86
841.124	29.06
841.297	27.85
841.47	27.94
841.642	26.08
841.815	28.16
841.987	27.98
842.16	25.13
842.332	25.86
842.505	26.22
842.677	26.74
842.85	26.44
843.022	25.71
843.194	26.34
843.367	27.65
843.539	30.87
843.712	31.81
843.884	30.79
844.056	33.09
844.229	31.8
844.401	33.69
844.573	31.56
844.745	29.37
844.918	31.44
845.09	30.51
845.262	27.81
845.434	27.9
845.606	24.87
845.779	24.89
845.951	23.69
846.123	23.26
846.295	21.37
846.467	23.53
846.639	24.93
846.811	25.29
846.983	25.21
847.155	22.9
847.327	23.06
847.499	25.17
847.671	25.93
847.843	25.73
848.015	27.35
848.187	29.6
848.359	27.08
848.531	27.9
848.703	21.74
848.875	24.58
849.047	24.65
849.218	24.58
849.39	23.81
849.562	19.21
849.734	17.47
849.905	15.79
850.077	17.09
850.249	18.16
850.421	23.16
850.592	24.13
850.764	25.18
850.936	26.25
851.107	24.09
851.279	26.29
851.451	30.93
851.622	34.1
851.794	33.22
851.965	31.66
852.137	31.04
852.308	24.35
852.48	28.67
852.651	28.5
852.823	28.86
852.994	29.05
853.166	25.77
853.337	25.8
853.509	23.69
853.68	29.1
853.851	29.54
854.023	27.66
854.194	30.13
854.365	30.19
854.537	28.47
854.708	31.66
854.879	29.02
855.05	29.29
855.222	28.42
855.393	29.64
855.564	23.9
855.735	20.14
855.906	25.21
856.078	25.31
856.249	23.66
856.42	25.35
856.591	25.91
856.762	28.5
856.933	31.85
857.104	30.99
857.275	33.92
857.446	39.67
857.617	42
857.788	37.16
857.959	36.76
858.13	38.16
858.301	37.49
858.472	31.38
858.643	33.6
858.814	33.28
858.985	37.73
859.155	31.97
859.326	29.84
859.497	29.73
859.668	30.87
859.839	33.28
860.009	32.61
860.18	30.25
860.351	32.95
860.522	31
860.692	23.45
860.863	19.02
861.034	24.18
861.204	22.75
861.375	26.35
861.546	27.8
861.716	25.03
861.887	23.16
862.057	21.63
862.228	16.85
862.398	15.02
862.569	18.42
862.739	21.02
862.91	13.1
863.08	11.44
863.251	9.2
863.421	10.71
863.592	14.3
863.762	13.89
863.932	12.79
864.103	18.43
864.273	18.94
864.443	21.53
864.614	23.85
864.784	29.3
864.954	35.84
865.125	37.13
865.295	32.56
865.465	30.55
865.635	27.54
865.805	33.95
865.976	34.09
866.146	30.08
866.316	32.21
866.486	30.32
866.656	29.66
866.826	23.27
866.996	20.18
867.166	24.71
867.336	25.69
867.506	29.22
867.676	27.73
867.846	25.94
868.016	25.88
868.186	23.18
868.356	21.47
868.526	21.09
868.696	20.32
868.866	24.4
869.036	27.24
869.206	24.75
869.376	22.6
869.545	19.21
869.715	21.95
869.885	23.37
870.055	25.2
870.224	29.32
870.394	29.96
870.564	37.53
870.734	35.39
870.903	25.3
871.073	20.16
871.243	22.63
871.412	27.88
871.582	31.51
871.751	34.06
871.921	32.94
872.091	27.08
872.26	25.33
872.43	18.87
872.599	19.48
872.769	20.63
872.938	24.01
873.108	21.65
873.277	23.83
873.446	17.29
873.616	17.31
873.785	16.75
873.955	16.94
874.124	17.84
874.293	19.51
874.463	18.51
874.632	22.03
874.801	23.8
874.971	28.44
875.14	24.44
875.309	24.63
875.478	25.63
875.647	26.5
875.817	30.72
875.986	29.42
876.155	29
876.324	26.32
876.493	27.32
876.662	30.03
876.831	26.78
877	25.97
877.17	26.98
877.339	24.25
877.508	24.25
877.677	19.03
877.846	18.79
878.015	18.44
878.184	19.25
878.352	22.03
878.521	17.74
878.69	17.17
878.859	18.3
879.028	20.73
879.197	21.82
879.366	23.95
879.534	27.76
879.703	27.89
879.872	27.65
880.041	29.68
880.21	26.15
880.378	27.45
880.547	27.82
880.716	26.58
880.884	26
881.053	24.61
881.222	24.4
881.39	23.57
881.559	23.51
881.727	23.32
881.896	21.9
882.065	22.69
882.233	22.56
882.402	21.72
882.57	21.74
882.739	20.81
882.907	21.8
883.076	21.8
883.244	20.59
883.412	20.75
883.581	20.78
883.749	20.74
883.918	20.1
884.086	20.29
884.254	21.92
884.423	23.07
884.591	23.62
884.759	23.66
884.927	22.22
885.096	23.96
885.264	24.53
885.432	25.31
885.6	25.65
885.769	26.32
885.937	24.66
886.105	21.83
886.273	21.08
886.441	20.95
886.609	17.62
886.777	18.85
886.945	20.07
887.113	19.16
887.281	17.47
887.449	20.64
887.617	20
887.785	22.05
887.953	26.39
888.121	22.9
888.289	24.76
888.457	30.06
888.625	31.27
888.793	29.42
888.961	30.03
889.129	33.54
889.296	30.46
889.464	32.44
889.632	33.42
889.8	31.2
889.967	36.32
890.135	34.65
