Data from 2938537_Reflection_2.txt Node
Date: Mon Jun 15 23:44:51 EDT 2015
User: robert
Spectrometer: USB4E03002
Autoset integration time: false
Trigger mode: 4
Integration Time (sec): 1.000000E-1
Scans to average: 10
Electric dark correction enabled: true
Nonlinearity correction enabled: false
Boxcar width: 6
Stray light correction enabled: false
XAxis mode: Wavelengths
Stop averaging: false
Number of Pixels in Spectrum: 3648
>>>>>Begin Spectral Data<<<<<
177.575	-51.1
177.794	-64.38
178.014	-95.65
178.233	-114.52
178.452	-375.19
178.672	246.59
178.891	280
179.11	-146.77
179.33	-133.33
179.549	-186.78
179.768	-183.27
179.987	-333.17
180.207	-108.11
180.426	-100.92
180.645	-94.74
180.864	-44.69
181.084	-68.42
181.303	-52.54
181.522	-46.2
181.741	-57.35
181.96	-33.82
182.179	-34.4
182.398	-45.57
182.618	-80.85
182.837	-36.48
183.056	-84.24
183.275	-41.24
183.494	-41.68
183.713	-91.38
183.932	-59.23
184.151	-192.25
184.37	-141.57
184.589	-76.49
184.808	-300.53
185.027	-461.54
185.246	-198.48
185.465	-141.02
185.684	-263.16
185.903	-264.07
186.122	-1736.17
186.341	4575
186.56	1229.63
186.779	2666.67
186.998	-366.2
187.216	2765.38
187.435	347.91
187.654	734.95
187.873	3404.76
188.092	637.5
188.311	554.76
188.53	3275
188.748	-3830
188.967	-532.73
189.186	-1700
189.405	-912.99
189.623	1346.15
189.842	612.42
190.061	7581.82
190.28	-605.41
190.498	-1231.58
190.717	-994.59
190.936	-5285.71
191.154	-1378.38
191.373	4855.56
191.592	2062.96
191.81	1737.84
192.029	874.19
192.248	969.84
192.466	-2920.83
192.685	-449.32
192.904	-541.32
193.122	1583.67
193.341	2559.26
193.559	315.54
193.778	452.6
193.996	267.53
194.215	293.65
194.433	278.01
194.652	355.63
194.87	534.66
195.089	280.29
195.307	246.8
195.526	185.71
195.744	220.29
195.963	565.57
196.181	541.62
196.399	2596.97
196.618	629.77
196.836	-398.4
197.055	-275
197.273	-580
197.491	-164.8
197.71	-379.27
197.928	-110.75
198.146	-105.39
198.365	-108.09
198.583	-196.76
198.801	13875
199.019	766.32
199.238	1231.03
199.456	2250
199.674	394.42
199.892	549.36
200.111	2560.71
200.329	240.58
200.547	336.59
200.765	370.14
200.983	502.14
201.202	451.95
201.42	778.62
201.638	564.84
201.856	1630
202.074	900
202.292	687.15
202.51	558.93
202.728	503.53
202.946	315.05
203.165	304.3
203.383	242.86
203.601	195.87
203.819	122.31
204.037	132.66
204.255	103.02
204.473	153.65
204.691	112.81
204.909	83.62
205.127	55.76
205.345	16.14
205.562	-0
205.78	25.81
205.998	-7.07
206.216	23.56
206.434	33.5
206.652	45.74
206.87	88.52
207.088	94.59
207.306	111.86
207.523	108.64
207.741	144.44
207.959	128.92
208.177	195.18
208.395	178.43
208.612	164.65
208.83	246.24
209.048	266.74
209.266	281.09
209.483	259.51
209.701	354.76
209.919	801.54
210.136	344.86
210.354	372.31
210.572	330.41
210.79	398.82
211.007	241.24
211.225	258.08
211.442	193.42
211.66	168.75
211.878	75.89
212.095	65.61
212.313	69.33
212.53	58.17
212.748	42.45
212.966	20.54
213.183	21.97
213.401	17.99
213.618	20.43
213.836	23.22
214.053	18.8
214.271	18.06
214.488	-10.61
214.705	125.31
214.923	119.02
215.14	129.85
215.358	90.08
215.575	100.69
215.793	93.89
216.01	83.15
216.227	91.08
216.445	90.88
216.662	88.51
216.879	88.94
217.097	73.62
217.314	72.61
217.531	73.36
217.749	81.97
217.966	66.69
218.183	72.93
218.4	87.79
218.618	79.63
218.835	73.01
219.052	76.27
219.269	51.08
219.487	56.4
219.704	54.94
219.921	54.63
220.138	47.17
220.355	48.45
220.572	44.27
220.79	43.42
221.007	39.73
221.224	32.62
221.441	43.46
221.658	50.63
221.875	32.97
222.092	34.93
222.309	35.03
222.526	36.86
222.743	34.91
222.96	30.73
223.177	29.51
223.394	31.5
223.611	27.9
223.828	30.34
224.045	28.04
224.262	20.94
224.479	13.41
224.696	18.82
224.913	19.52
225.13	17.51
225.347	16.35
225.564	14.69
225.781	14.84
225.997	14.16
226.214	11.13
226.431	11.24
226.648	9.82
226.865	9.75
227.082	10.72
227.298	11.24
227.515	11.49
227.732	11.43
227.949	11.34
228.165	11.39
228.382	11.67
228.599	10.86
228.816	10.67
229.032	12.56
229.249	12.54
229.466	13.33
229.682	13.09
229.899	11.93
230.116	12.09
230.332	10.22
230.549	8.98
230.765	10.04
230.982	9.29
231.199	10
231.415	10.43
231.632	9.84
231.848	7.76
232.065	7.79
232.281	6.78
232.498	7.48
232.714	7.09
232.931	7.49
233.147	8.83
233.364	8.72
233.58	8.9
233.797	9.44
234.013	9.59
234.23	10.81
234.446	10.71
234.662	11.16
234.879	10.85
235.095	10.91
235.312	12.79
235.528	13.14
235.744	13.2
235.961	12.51
236.177	15.98
236.393	15.09
236.61	15.18
236.826	14.8
237.042	15.2
237.258	16.81
237.475	17.19
237.691	17.47
237.907	16.91
238.123	15.29
238.339	17
238.556	17.81
238.772	17.6
238.988	14.97
239.204	15.13
239.42	14.32
239.636	13.63
239.853	13.7
240.069	13.22
240.285	12.81
240.501	12.36
240.717	12.65
240.933	12.9
241.149	12
241.365	12.03
241.581	11.76
241.797	11.14
242.013	10.6
242.229	10.37
242.445	10.63
242.661	9.77
242.877	9.52
243.093	9.19
243.309	9.21
243.525	8.47
243.741	7.14
243.957	7.32
244.173	6.75
244.388	7.5
244.604	8.45
244.82	8.44
245.036	8.33
245.252	8.2
245.468	8.21
245.683	7.87
245.899	7.91
246.115	7.88
246.331	7.86
246.547	8.16
246.762	8.29
246.978	8
247.194	7.82
247.409	7.67
247.625	7.6
247.841	8.36
248.057	7.9
248.272	7.82
248.488	8.17
248.703	8.45
248.919	8.46
249.135	8.57
249.35	8.71
249.566	8.65
249.782	8.97
249.997	8.85
250.213	8.15
250.428	8.51
250.644	7.93
250.859	8.29
251.075	8.3
251.29	8.03
251.506	8.14
251.721	7.91
251.937	8.08
252.152	7.99
252.368	7.84
252.583	8.03
252.798	8.01
253.014	8.69
253.229	7.79
253.445	8.37
253.66	8.66
253.875	9.26
254.091	9.79
254.306	8.58
254.521	9.26
254.737	8.76
254.952	7.96
255.167	7.05
255.383	6.45
255.598	6.92
255.813	6.26
256.028	6.94
256.244	6.47
256.459	6.09
256.674	6.02
256.889	5.5
257.104	5.42
257.32	5.41
257.535	5.52
257.75	5.37
257.965	5.34
258.18	5.37
258.395	5.01
258.61	5.07
258.826	5.07
259.041	4.82
259.256	5.01
259.471	4.79
259.686	5.04
259.901	5.26
260.116	4.83
260.331	4.73
260.546	4.89
260.761	5.37
260.976	5.3
261.191	5.87
261.406	5.85
261.621	5.81
261.836	6.09
262.05	5.84
262.265	5.78
262.48	5.59
262.695	5.43
262.91	5.96
263.125	6.34
263.34	6.37
263.555	5.59
263.769	5.51
263.984	5.56
264.199	5.78
264.414	5.57
264.629	5.53
264.843	5.99
265.058	5.91
265.273	5.76
265.488	6.38
265.702	6.31
265.917	6.3
266.132	6.68
266.346	7.3
266.561	7.84
266.776	7.6
266.99	7.62
267.205	7.46
267.42	7.21
267.634	7.01
267.849	7.59
268.063	7.8
268.278	7.25
268.492	7.34
268.707	7.17
268.922	6.96
269.136	6.84
269.351	6.6
269.565	6.09
269.78	6.49
269.994	6.52
270.209	6.26
270.423	6.21
270.637	5.85
270.852	5.9
271.066	6.3
271.281	6.22
271.495	6.32
271.709	6.4
271.924	6.15
272.138	6.26
272.353	6.46
272.567	6.39
272.781	6.2
272.996	6.87
273.21	6.54
273.424	6.78
273.638	6.86
273.853	6.55
274.067	6.82
274.281	6.34
274.495	5.93
274.71	5.93
274.924	5.61
275.138	5.65
275.352	5.24
275.566	5.45
275.781	5.05
275.995	5.44
276.209	5.57
276.423	5.18
276.637	4.41
276.851	4.27
277.065	4.67
277.279	5.06
277.493	5.48
277.707	5.57
277.921	5.41
278.135	5.75
278.349	5.74
278.563	5.7
278.777	5.82
278.991	5.36
279.205	5.5
279.419	6.06
279.633	6.14
279.847	6.05
280.061	6.18
280.275	6
280.489	6.03
280.703	6.13
280.917	6.11
281.131	6.44
281.344	6.6
281.558	6.35
281.772	6.34
281.986	6.28
282.2	6.36
282.414	6.15
282.627	5.81
282.841	5.82
283.055	5.65
283.269	5.53
283.482	5.16
283.696	5
283.91	4.31
284.123	4.39
284.337	4.56
284.551	4.55
284.764	4.49
284.978	4.1
285.192	3.97
285.405	4.45
285.619	4.31
285.833	4.56
286.046	4.65
286.26	4.93
286.473	5.2
286.687	5.8
286.9	5.84
287.114	5.86
287.327	6.12
287.541	6.17
287.754	6.84
287.968	6.74
288.181	6.34
288.395	6.56
288.608	6.6
288.822	6.44
289.035	6.76
289.248	6.47
289.462	6.14
289.675	6.24
289.889	5.91
290.102	5.82
290.315	5.65
290.529	5.3
290.742	5.57
290.955	5.97
291.169	5.83
291.382	5.81
291.595	6.1
291.808	5.71
292.022	5.74
292.235	6.01
292.448	5.71
292.661	6.14
292.875	6.14
293.088	6.61
293.301	6.55
293.514	6.22
293.727	5.85
293.94	5.81
294.153	5.6
294.367	5.37
294.58	5.28
294.793	5.58
295.006	5.63
295.219	5.65
295.432	5.57
295.645	5.35
295.858	4.96
296.071	4.79
296.284	5.14
296.497	5.27
296.71	5.17
296.923	5.15
297.136	5.41
297.349	5.69
297.562	5.51
297.775	5.5
297.988	5.68
298.201	5.38
298.414	5.58
298.626	5.74
298.839	5.77
299.052	5.75
299.265	5.68
299.478	5.57
299.691	5.4
299.903	5.59
300.116	5.8
300.329	5.39
300.542	5.25
300.755	5.45
300.967	5.71
301.18	5.58
301.393	5.78
301.605	6.37
301.818	6.44
302.031	6.58
302.243	6.59
302.456	6.75
302.669	6.81
302.881	6.73
303.094	7.18
303.307	7.05
303.519	6.65
303.732	6.59
303.944	6.71
304.157	6.65
304.37	6.21
304.582	6.32
304.795	6.38
305.007	6.39
305.22	6.32
305.432	5.77
305.645	5.55
305.857	5.71
306.069	5.88
306.282	6.16
306.494	6.49
306.707	6.71
306.919	6.48
307.132	6.69
307.344	6.39
307.556	6.44
307.769	6.29
307.981	6.4
308.193	6.47
308.406	6.5
308.618	6.13
308.83	5.95
309.043	5.72
309.255	5.7
309.467	5.63
309.679	5.89
309.892	5.78
310.104	6.01
310.316	5.71
310.528	6.13
310.74	6.17
310.953	6.33
311.165	6.35
311.377	6.54
311.589	6.97
311.801	6.97
312.013	7.12
312.225	7.23
312.437	7.25
312.649	7.32
312.862	7.54
313.074	7.98
313.286	7.71
313.498	7.41
313.71	7.19
313.922	7.13
314.134	7.08
314.346	7.09
314.558	7.25
314.77	6.93
314.982	6.68
315.193	6.39
315.405	6.24
315.617	5.87
315.829	5.62
316.041	5.53
316.253	5.85
316.465	5.75
316.677	5.73
316.888	5.77
317.1	5.6
317.312	5.55
317.524	5.66
317.736	5.75
317.947	6.14
318.159	6.3
318.371	6.58
318.583	6.43
318.794	6.84
319.006	7.19
319.218	7.22
319.43	7.56
319.641	7.81
319.853	7.87
320.064	7.92
320.276	7.73
320.488	8.15
320.699	8.32
320.911	8.41
321.123	8.57
321.334	8.89
321.546	8.7
321.757	8.12
321.969	8.66
322.18	8.17
322.392	8.02
322.603	8.16
322.815	8.14
323.026	7.73
323.238	7.58
323.449	7.52
323.661	7.55
323.872	7.16
324.083	7.26
324.295	7.18
324.506	7.47
324.718	6.97
324.929	6.97
325.14	7.04
325.352	6.89
325.563	7.14
325.774	7.78
325.986	7.66
326.197	7.71
326.408	7.71
326.62	7.99
326.831	8.01
327.042	8.22
327.253	8.54
327.464	8.81
327.676	9.46
327.887	9.37
328.098	9.54
328.309	9.1
328.52	8.77
328.732	8.85
328.943	8.86
329.154	8.88
329.365	8.58
329.576	8.7
329.787	8.37
329.998	7.94
330.209	7.94
330.42	7.33
330.631	7.25
330.842	7.11
331.053	7.38
331.264	7.59
331.475	7.81
331.686	7.91
331.897	7.63
332.108	8
332.319	7.65
332.53	7.74
332.741	8.04
332.952	7.78
333.163	7.82
333.374	7.82
333.585	7.69
333.795	7.44
334.006	7.66
334.217	7.44
334.428	7.41
334.639	7.53
334.849	7.03
335.06	6.99
335.271	6.92
335.482	6.51
335.692	6.71
335.903	6.74
336.114	7.02
336.325	7.31
336.535	7.93
336.746	7.56
336.957	7.71
337.167	7.56
337.378	8.15
337.589	8.12
337.799	8.5
338.01	8.7
338.22	8.75
338.431	8.67
338.642	8.95
338.852	8.64
339.063	8.35
339.273	8.15
339.484	8.47
339.694	8.42
339.905	8.28
340.115	7.55
340.326	7.88
340.536	7.31
340.746	7.09
340.957	7.42
341.167	7.35
341.378	7.55
341.588	7.58
341.799	7.57
342.009	7.41
342.219	7.24
342.43	6.88
342.64	6.97
342.85	7.12
343.061	7.06
343.271	7.18
343.481	7.28
343.691	7.02
343.902	7.23
344.112	6.86
344.322	6.9
344.532	7.19
344.743	6.83
344.953	6.67
345.163	6.74
345.373	6.47
345.583	6.66
345.793	6.65
346.004	6.96
346.214	7.46
346.424	7.26
346.634	7.38
346.844	7.3
347.054	7.54
347.264	7.59
347.474	7.98
347.684	8.14
347.894	8.14
348.104	8.27
348.314	8.03
348.524	7.83
348.734	7.8
348.944	7.71
349.154	8.01
349.364	7.8
349.574	7.99
349.784	7.74
349.994	7.14
350.204	7.18
350.413	6.83
350.623	6.97
350.833	6.88
351.043	6.95
351.253	6.95
351.463	6.82
351.672	6.36
351.882	6.28
352.092	6.07
352.302	6.05
352.511	5.93
352.721	6.14
352.931	6.2
353.141	6.83
353.35	6.86
353.56	7.01
353.77	7.14
353.979	7.08
354.189	6.92
354.399	7.02
354.608	7.21
354.818	7.41
355.027	7.43
355.237	7.48
355.447	7.63
355.656	7.25
355.866	6.89
356.075	6.93
356.285	6.93
356.494	6.69
356.704	6.86
356.913	7.1
357.123	7.01
357.332	6.75
357.542	6.48
357.751	6.33
357.96	6.46
358.17	6.4
358.379	6.53
358.589	6.5
358.798	6.32
359.007	6.16
359.217	6.05
359.426	6.06
359.635	6.03
359.845	6.18
360.054	6.14
360.263	6.17
360.472	6.1
360.682	6.1
360.891	5.95
361.1	6.02
361.309	6.09
361.519	6.17
361.728	6.2
361.937	6.28
362.146	6.24
362.355	6.12
362.564	5.9
362.774	6.01
362.983	6.05
363.192	6.14
363.401	5.96
363.61	6.36
363.819	6.26
364.028	5.91
364.237	5.87
364.446	5.97
364.655	6.09
364.864	6.23
365.073	6.18
365.282	6.11
365.491	6.14
365.7	6.29
365.909	6.3
366.118	6.37
366.327	6.09
366.536	6.21
366.745	6.41
366.954	6.46
367.162	6.46
367.371	6.59
367.58	6.15
367.789	6.27
367.998	6.38
368.207	6.41
368.415	6.35
368.624	6.38
368.833	6.48
369.042	6.47
369.25	6.38
369.459	6.56
369.668	6.29
369.877	6.14
370.085	5.84
370.294	6.08
370.503	6.03
370.711	6.02
370.92	6.07
371.129	5.8
371.337	5.63
371.546	5.6
371.754	5.52
371.963	5.4
372.171	5.36
372.38	5.41
372.589	5.35
372.797	5.23
373.006	5.15
373.214	5.21
373.423	5.21
373.631	4.9
373.84	5.17
374.048	5.2
374.256	5.25
374.465	5.3
374.673	5.2
374.882	5.17
375.09	5.32
375.298	5.41
375.507	5.45
375.715	5.33
375.923	5.28
376.132	5.23
376.34	5.4
376.548	5.51
376.757	5.57
376.965	5.36
377.173	5.4
377.381	5.63
377.59	5.61
377.798	5.37
378.006	5.16
378.214	5.28
378.423	5.37
378.631	5.14
378.839	5.22
379.047	5.21
379.255	5.02
379.463	5.02
379.671	5.11
379.879	5.09
380.088	5.01
380.296	5.05
380.504	5.33
380.712	5.45
380.92	5.45
381.128	5.28
381.336	5.32
381.544	5.18
381.752	5.21
381.96	5.12
382.168	5.08
382.376	5.1
382.584	5.02
382.791	5.11
382.999	4.99
383.207	4.92
383.415	5.21
383.623	5.14
383.831	5.39
384.039	5.45
384.247	5.47
384.454	5.28
384.662	5.25
384.87	5.13
385.078	4.99
385.285	5.02
385.493	4.82
385.701	4.84
385.909	4.85
386.116	4.47
386.324	4.56
386.532	4.43
386.739	4.64
386.947	4.74
387.155	4.7
387.362	4.84
387.57	4.83
387.778	4.86
387.985	4.71
388.193	4.86
388.4	4.97
388.608	4.93
388.816	5.07
389.023	5.07
389.231	5.08
389.438	4.84
389.646	4.77
389.853	4.84
390.061	4.65
390.268	4.65
390.475	4.58
390.683	4.54
390.89	4.44
391.098	4.31
391.305	4.16
391.512	4.15
391.72	4.03
391.927	4.04
392.135	3.95
392.342	4.09
392.549	4.03
392.756	3.94
392.964	3.98
393.171	3.98
393.378	4.09
393.586	4.03
393.793	3.87
394	4.06
394.207	4.04
394.414	4.06
394.622	3.94
394.829	3.97
395.036	3.9
395.243	3.96
395.45	4.06
395.657	3.94
395.864	3.96
396.072	3.98
396.279	3.9
396.486	3.98
396.693	3.9
396.9	3.95
397.107	4.14
397.314	4.16
397.521	4.24
397.728	4.13
397.935	4.03
398.142	3.97
398.349	3.98
398.556	4.02
398.763	4.04
398.97	4.1
399.177	4.15
399.383	4.24
399.59	4.08
399.797	4
400.004	4.18
400.211	4.15
400.418	4.19
400.625	4.31
400.831	4.28
401.038	4.32
401.245	4.32
401.452	4.17
401.658	4.31
401.865	4.24
402.072	4.08
402.279	4.01
402.485	3.77
402.692	3.61
402.899	3.56
403.105	3.36
403.312	3.34
403.519	3.45
403.725	3.45
403.932	3.39
404.138	3.46
404.345	3.32
404.552	3.43
404.758	3.45
404.965	3.52
405.171	3.63
405.378	3.57
405.584	3.46
405.791	3.46
405.997	3.42
406.204	3.42
406.41	3.45
406.617	3.46
406.823	3.24
407.029	3.33
407.236	3.2
407.442	3.25
407.649	3.13
407.855	3.17
408.061	3.26
408.268	3.41
408.474	3.56
408.68	3.68
408.887	3.63
409.093	3.61
409.299	3.51
409.505	3.62
409.712	3.48
409.918	3.42
410.124	3.34
410.33	3.33
410.537	3.29
410.743	3.19
410.949	3.19
411.155	3.15
411.361	2.89
411.567	2.78
411.773	2.72
411.98	2.86
412.186	2.95
412.392	2.95
412.598	3.08
412.804	3.19
413.01	3.33
413.216	3.45
413.422	3.46
413.628	3.41
413.834	3.38
414.04	3.47
414.246	3.55
414.452	3.55
414.658	3.44
414.864	3.39
415.07	3.63
415.275	3.49
415.481	3.41
415.687	3.34
415.893	3.2
416.099	3.27
416.305	3.31
416.511	3.25
416.716	3.28
416.922	3.28
417.128	3.31
417.334	3.35
417.539	3.3
417.745	3.18
417.951	3.23
418.157	3.17
418.362	3.2
418.568	3.17
418.774	3.05
418.979	2.9
419.185	2.85
419.391	2.85
419.596	2.81
419.802	2.79
420.008	2.93
420.213	2.96
420.419	2.96
420.624	2.9
420.83	2.93
421.035	2.92
421.241	2.95
421.446	2.99
421.652	3.05
421.857	3.06
422.063	3
422.268	2.96
422.474	2.85
422.679	2.73
422.885	2.66
423.09	2.58
423.295	2.62
423.501	2.6
423.706	2.54
423.911	2.54
424.117	2.46
424.322	2.49
424.527	2.54
424.733	2.45
424.938	2.47
425.143	2.57
425.349	2.54
425.554	2.55
425.759	2.61
425.964	2.62
426.169	2.65
426.375	2.68
426.58	2.57
426.785	2.78
426.99	2.83
427.195	2.78
427.4	2.96
427.605	3.03
427.811	3.02
428.016	2.96
428.221	2.93
428.426	2.86
428.631	2.85
428.836	2.79
429.041	2.76
429.246	2.81
429.451	2.71
429.656	2.63
429.861	2.72
430.066	2.74
430.271	2.66
430.476	2.61
430.681	2.66
430.886	2.75
431.09	2.81
431.295	2.79
431.5	2.75
431.705	2.83
431.91	2.86
432.115	2.83
432.32	2.83
432.524	2.79
432.729	2.72
432.934	2.76
433.139	2.82
433.343	2.75
433.548	2.63
433.753	2.69
433.958	2.69
434.162	2.68
434.367	2.76
434.572	2.71
434.776	2.73
434.981	2.7
435.186	2.72
435.39	2.7
435.595	2.57
435.799	2.53
436.004	2.48
436.209	2.49
436.413	2.38
436.618	2.27
436.822	2.38
437.027	2.27
437.231	2.16
437.436	2.16
437.64	2.2
437.845	2.24
438.049	2.25
438.253	2.36
438.458	2.34
438.662	2.44
438.867	2.57
439.071	2.51
439.275	2.55
439.48	2.42
439.684	2.41
439.888	2.52
440.093	2.47
440.297	2.48
440.501	2.42
440.706	2.49
440.91	2.52
441.114	2.56
441.318	2.52
441.523	2.52
441.727	2.58
441.931	2.61
442.135	2.65
442.339	2.7
442.543	2.77
442.748	2.78
442.952	2.71
443.156	2.67
443.36	2.63
443.564	2.56
443.768	2.49
443.972	2.57
444.176	2.52
444.38	2.53
444.584	2.52
444.788	2.53
444.992	2.55
445.196	2.51
445.4	2.47
445.604	2.5
445.808	2.49
446.012	2.44
446.216	2.45
446.42	2.48
446.624	2.35
446.828	2.32
447.032	2.27
447.235	2.26
447.439	2.2
447.643	2.14
447.847	2.11
448.051	2.15
448.254	2.16
448.458	2.17
448.662	2.16
448.866	2.12
449.069	2.12
449.273	2.17
449.477	2.12
449.681	2.21
449.884	2.2
450.088	2.23
450.292	2.29
450.495	2.36
450.699	2.43
450.902	2.35
451.106	2.34
451.31	2.4
451.513	2.43
451.717	2.44
451.92	2.52
452.124	2.5
452.327	2.42
452.531	2.52
452.734	2.55
452.938	2.53
453.141	2.49
453.345	2.37
453.548	2.41
453.752	2.46
453.955	2.32
454.158	2.33
454.362	2.32
454.565	2.33
454.769	2.45
454.972	2.46
455.175	2.41
455.379	2.43
455.582	2.4
455.785	2.43
455.988	2.54
456.192	2.49
456.395	2.46
456.598	2.5
456.801	2.5
457.005	2.46
457.208	2.38
457.411	2.31
457.614	2.36
457.817	2.26
458.021	2.24
458.224	2.26
458.427	2.21
458.63	2.18
458.833	2.22
459.036	2.22
459.239	2.21
459.442	2.22
459.645	2.21
459.848	2.24
460.051	2.28
460.254	2.23
460.457	2.31
460.66	2.39
460.863	2.34
461.066	2.28
461.269	2.31
461.472	2.31
461.675	2.23
461.878	2.29
462.081	2.37
462.284	2.32
462.486	2.3
462.689	2.35
462.892	2.4
463.095	2.53
463.298	2.46
463.5	2.51
463.703	2.54
463.906	2.55
464.109	2.51
464.311	2.62
464.514	2.64
464.717	2.58
464.92	2.67
465.122	2.75
465.325	2.71
465.528	2.69
465.73	2.55
465.933	2.48
466.135	2.43
466.338	2.41
466.541	2.32
466.743	2.24
466.946	2.14
467.148	2.17
467.351	2.12
467.553	2.15
467.756	2.07
467.958	2.03
468.161	2.06
468.363	2.11
468.566	2.13
468.768	2.15
468.971	2.13
469.173	2.17
469.375	2.27
469.578	2.3
469.78	2.32
469.983	2.3
470.185	2.28
470.387	2.39
470.59	2.41
470.792	2.41
470.994	2.3
471.196	2.38
471.399	2.34
471.601	2.4
471.803	2.35
472.005	2.42
472.208	2.4
472.41	2.37
472.612	2.37
472.814	2.39
473.016	2.34
473.218	2.31
473.421	2.32
473.623	2.43
473.825	2.39
474.027	2.39
474.229	2.42
474.431	2.51
474.633	2.46
474.835	2.5
475.037	2.54
475.239	2.64
475.441	2.64
475.643	2.59
475.845	2.6
476.047	2.59
476.249	2.61
476.451	2.61
476.653	2.7
476.855	2.66
477.057	2.56
477.258	2.54
477.46	2.55
477.662	2.47
477.864	2.36
478.066	2.26
478.268	2.31
478.469	2.31
478.671	2.25
478.873	2.23
479.075	2.25
479.276	2.14
479.478	2.16
479.68	2.26
479.882	2.24
480.083	2.25
480.285	2.25
480.487	2.27
480.688	2.36
480.89	2.3
481.091	2.29
481.293	2.28
481.495	2.21
481.696	2.18
481.898	2.17
482.099	2.14
482.301	2.11
482.502	2.1
482.704	2.12
482.905	2.1
483.107	2.09
483.308	2.03
483.51	2.02
483.711	2.03
483.913	2.03
484.114	2.05
484.315	2.08
484.517	2.13
484.718	2.14
484.92	2.15
485.121	2.19
485.322	2.19
485.524	2.22
485.725	2.22
485.926	2.24
486.127	2.25
486.329	2.23
486.53	2.21
486.731	2.22
486.932	2.21
487.134	2.17
487.335	2.17
487.536	2.18
487.737	2.17
487.938	2.12
488.139	2.12
488.341	2.13
488.542	2.12
488.743	2.14
488.944	2.14
489.145	2.19
489.346	2.21
489.547	2.22
489.748	2.3
489.949	2.33
490.15	2.3
490.351	2.31
490.552	2.33
490.753	2.31
490.954	2.31
491.155	2.32
491.356	2.3
491.557	2.28
491.758	2.24
491.959	2.23
492.159	2.23
492.36	2.15
492.561	2.15
492.762	2.14
492.963	2.13
493.164	2.16
493.364	2.19
493.565	2.29
493.766	2.31
493.967	2.27
494.167	2.3
494.368	2.33
494.569	2.31
494.769	2.33
494.97	2.33
495.171	2.28
495.371	2.37
495.572	2.36
495.773	2.35
495.973	2.41
496.174	2.33
496.375	2.36
496.575	2.5
496.776	2.52
496.976	2.51
497.177	2.55
497.377	2.61
497.578	2.59
497.778	2.59
497.979	2.64
498.179	2.67
498.38	2.71
498.58	2.73
498.78	2.82
498.981	2.86
499.181	2.85
499.382	2.91
499.582	2.98
499.782	2.91
499.983	2.87
500.183	2.9
500.383	2.86
500.584	2.8
500.784	2.84
500.984	2.82
501.184	2.79
501.385	2.75
501.585	2.68
501.785	2.68
501.985	2.66
502.185	2.58
502.386	2.63
502.586	2.67
502.786	2.71
502.986	2.9
503.186	2.85
503.386	2.79
503.586	2.86
503.786	2.84
503.987	2.88
504.187	2.86
504.387	2.89
504.587	2.88
504.787	2.98
504.987	3.05
505.187	3.07
505.387	3.06
505.587	3.07
505.786	3.07
505.986	3.14
506.186	3.12
506.386	3.16
506.586	3.13
506.786	3.18
506.986	3.16
507.186	3.17
507.386	3.11
507.585	3.03
507.785	3.02
507.985	3.05
508.185	2.99
508.384	3
508.584	2.98
508.784	2.93
508.984	2.92
509.183	2.91
509.383	2.96
509.583	3.02
509.782	3.09
509.982	3.19
510.182	3.23
510.381	3.19
510.581	3.22
510.781	3.22
510.98	3.29
511.18	3.32
511.379	3.39
511.579	3.47
511.778	3.54
511.978	3.51
512.177	3.49
512.377	3.46
512.576	3.38
512.776	3.42
512.975	3.51
513.175	3.51
513.374	3.62
513.573	3.64
513.773	3.72
513.972	3.75
514.172	3.74
514.371	3.82
514.57	3.89
514.77	3.91
514.969	3.95
515.168	4.03
515.367	4.04
515.567	4
515.766	4.01
515.965	4.04
516.164	4
516.364	3.91
516.563	3.99
516.762	3.99
516.961	3.98
517.16	3.98
517.359	3.97
517.559	3.97
517.758	3.97
517.957	4.05
518.156	4.09
518.355	4.12
518.554	4.06
518.753	4.11
518.952	4.23
519.151	4.18
519.35	4.16
519.549	4.21
519.748	4.28
519.947	4.3
520.146	4.29
520.345	4.35
520.544	4.37
520.743	4.41
520.942	4.47
521.141	4.58
521.339	4.6
521.538	4.52
521.737	4.58
521.936	4.66
522.135	4.62
522.333	4.56
522.532	4.63
522.731	4.73
522.93	4.73
523.129	4.71
523.327	4.66
523.526	4.65
523.725	4.65
523.923	4.67
524.122	4.72
524.321	4.74
524.519	4.78
524.718	4.81
524.917	4.79
525.115	4.76
525.314	4.77
525.512	4.77
525.711	4.8
525.909	4.83
526.108	4.87
526.306	4.88
526.505	4.89
526.703	4.89
526.902	4.89
527.1	4.89
527.299	4.86
527.497	4.9
527.696	4.91
527.894	4.87
528.092	4.88
528.291	4.84
528.489	4.86
528.688	4.79
528.886	4.78
529.084	4.77
529.283	4.78
529.481	4.79
529.679	4.78
529.877	4.81
530.076	4.86
530.274	4.92
530.472	5.01
530.67	5.09
530.869	5.22
531.067	5.27
531.265	5.37
531.463	5.44
531.661	5.47
531.859	5.49
532.057	5.49
532.255	5.48
532.454	5.49
532.652	5.48
532.85	5.49
533.048	5.52
533.246	5.48
533.444	5.45
533.642	5.5
533.84	5.51
534.038	5.5
534.236	5.56
534.434	5.56
534.632	5.57
534.83	5.64
535.027	5.71
535.225	5.75
535.423	5.73
535.621	5.75
535.819	5.8
536.017	5.81
536.215	5.79
536.412	5.78
536.61	5.79
536.808	5.74
537.006	5.87
537.203	5.98
537.401	5.99
537.599	6.04
537.797	6.05
537.994	6.16
538.192	6.17
538.39	6.23
538.587	6.27
538.785	6.32
538.983	6.39
539.18	6.37
539.378	6.44
539.575	6.35
539.773	6.34
539.97	6.34
540.168	6.34
540.366	6.32
540.563	6.36
540.761	6.36
540.958	6.4
541.155	6.4
541.353	6.42
541.55	6.38
541.748	6.43
541.945	6.41
542.143	6.5
542.34	6.53
542.537	6.64
542.735	6.69
542.932	6.77
543.129	6.77
543.327	6.88
543.524	6.87
543.721	6.94
543.919	6.99
544.116	7.16
544.313	7.22
544.51	7.31
544.708	7.29
544.905	7.32
545.102	7.26
545.299	7.34
545.496	7.36
545.693	7.36
545.891	7.33
546.088	7.34
546.285	7.39
546.482	7.39
546.679	7.36
546.876	7.37
547.073	7.41
547.27	7.53
547.467	7.57
547.664	7.65
547.861	7.74
548.058	7.81
548.255	7.88
548.452	8.04
548.649	8.19
548.846	8.11
549.043	8.16
549.24	8.21
549.437	8.16
549.633	8.29
549.83	8.26
550.027	8.34
550.224	8.35
550.421	8.26
550.618	8.34
550.814	8.39
551.011	8.34
551.208	8.4
551.405	8.53
551.601	8.61
551.798	8.6
551.995	8.77
552.191	8.68
552.388	8.71
552.585	8.73
552.781	8.8
552.978	8.92
553.175	9.05
553.371	9.1
553.568	9.22
553.764	9.23
553.961	9.24
554.157	9.27
554.354	9.43
554.55	9.43
554.747	9.57
554.943	9.7
555.14	9.74
555.336	9.74
555.533	9.72
555.729	9.83
555.926	9.87
556.122	9.79
556.318	9.86
556.515	9.93
556.711	10.08
556.907	10.14
557.104	10.35
557.3	10.4
557.496	10.44
557.693	10.58
557.889	10.7
558.085	10.9
558.281	10.75
558.478	10.87
558.674	11.03
558.87	11.02
559.066	11.1
559.262	11.06
559.459	11.05
559.655	11.09
559.851	11.17
560.047	11.22
560.243	11.21
560.439	11.27
560.635	11.34
560.831	11.43
561.027	11.41
561.223	11.39
561.419	11.56
561.615	11.68
561.811	11.76
562.007	11.84
562.203	11.85
562.399	11.83
562.595	12.01
562.791	12.17
562.987	12.21
563.183	12.21
563.379	12.4
563.575	12.47
563.771	12.62
563.966	12.64
564.162	12.72
564.358	12.82
564.554	12.84
564.75	12.84
564.945	12.92
565.141	12.96
565.337	12.95
565.533	13.07
565.728	13.09
565.924	13.16
566.12	13.27
566.315	13.35
566.511	13.45
566.707	13.42
566.902	13.49
567.098	13.71
567.293	13.8
567.489	13.84
567.684	13.84
567.88	13.93
568.076	14.02
568.271	14.1
568.467	14.11
568.662	14.18
568.858	14.21
569.053	14.18
569.248	14.22
569.444	14.28
569.639	14.28
569.835	14.36
570.03	14.46
570.225	14.59
570.421	14.6
570.616	14.69
570.812	14.69
571.007	14.83
571.202	14.92
571.397	15.03
571.593	15.22
571.788	15.31
571.983	15.36
572.178	15.42
572.374	15.47
572.569	15.57
572.764	15.5
572.959	15.59
573.154	15.6
573.35	15.74
573.545	15.66
573.74	15.66
573.935	15.67
574.13	15.61
574.325	15.67
574.52	15.82
574.715	15.75
574.91	15.82
575.105	15.79
575.3	15.86
575.495	15.9
575.69	15.93
575.885	15.94
576.08	16.01
576.275	16.08
576.47	16.06
576.665	16.24
576.86	16.34
577.055	16.39
577.25	16.51
577.444	16.57
577.639	16.56
577.834	16.73
578.029	16.75
578.224	16.77
578.418	16.95
578.613	17.06
578.808	17.02
579.003	17.17
579.197	17.09
579.392	17.06
579.587	16.96
579.781	17.1
579.976	17.03
580.171	17.15
580.365	17.19
580.56	17.22
580.755	17.15
580.949	17.07
581.144	17.08
581.338	17.12
581.533	17.17
581.727	17.22
581.922	17.38
582.116	17.44
582.311	17.51
582.505	17.66
582.7	17.83
582.894	17.91
583.089	17.95
583.283	18.05
583.478	18.13
583.672	18.13
583.866	18.23
584.061	18.27
584.255	18.29
584.449	18.23
584.644	18.26
584.838	18.17
585.032	18.12
585.226	18.11
585.421	18.1
585.615	18.11
585.809	18.07
586.003	18.12
586.198	18.23
586.392	18.28
586.586	18.24
586.78	18.38
586.974	18.46
587.168	18.55
587.363	18.66
587.557	18.76
587.751	18.75
587.945	18.76
588.139	18.94
588.333	19.07
588.527	19.09
588.721	19.08
588.915	19.02
589.109	19.16
589.303	19.1
589.497	19.2
589.691	19.16
589.885	19.16
590.079	19.16
590.273	19.08
590.466	19.01
590.66	18.97
590.854	18.95
591.048	18.94
591.242	18.96
591.436	19.06
591.629	19
591.823	19.03
592.017	18.93
592.211	18.93
592.404	18.87
592.598	18.9
592.792	18.98
592.986	19.09
593.179	19.03
593.373	19.16
593.567	19.24
593.76	19.22
593.954	19.2
594.147	19.23
594.341	19.3
594.535	19.37
594.728	19.41
594.922	19.44
595.115	19.44
595.309	19.58
595.502	19.61
595.696	19.7
595.889	19.58
596.083	19.54
596.276	19.54
596.47	19.48
596.663	19.46
596.856	19.49
597.05	19.41
597.243	19.33
597.437	19.33
597.63	19.45
597.823	19.47
598.017	19.41
598.21	19.46
598.403	19.6
598.596	19.61
598.79	19.79
598.983	19.87
599.176	19.95
599.369	19.89
599.563	20.04
599.756	20.31
599.949	20.41
600.142	20.33
600.335	20.17
600.528	20.2
600.722	20.1
600.915	20.2
601.108	20.31
601.301	20.29
601.494	20.42
601.687	20.44
601.88	20.47
602.073	20.33
602.266	20.34
602.459	20.36
602.652	20.35
602.845	20.45
603.038	20.53
603.231	20.55
603.424	20.51
603.617	20.58
603.809	20.52
604.002	20.5
604.195	20.41
604.388	20.34
604.581	20.39
604.774	20.25
604.966	20.12
605.159	20.06
605.352	20.13
605.545	20.12
605.737	20.19
605.93	20.17
606.123	20.01
606.316	20.16
606.508	20.19
606.701	20.24
606.894	20.45
607.086	20.53
607.279	20.64
607.471	20.73
607.664	20.87
607.857	20.72
608.049	20.68
608.242	20.6
608.434	20.6
608.627	20.55
608.819	20.49
609.012	20.5
609.204	20.59
609.397	20.5
609.589	20.51
609.782	20.58
609.974	20.67
610.166	20.6
610.359	20.67
610.551	20.83
610.743	20.86
610.936	20.83
611.128	21
611.32	20.88
611.513	20.85
611.705	20.75
611.897	20.92
612.09	20.95
612.282	20.99
612.474	21.04
612.666	21.23
612.858	21.3
613.051	21.06
613.243	21.06
613.435	21.12
613.627	21.11
613.819	21.43
614.011	21.48
614.203	21.59
614.395	21.32
614.588	21.38
614.78	21.29
614.972	21.2
615.164	21.02
615.356	21.06
615.548	21.11
615.74	21.24
615.932	21.37
616.124	21.54
616.315	21.39
616.507	21.4
616.699	21.37
616.891	21.65
617.083	21.61
617.275	21.55
617.467	21.66
617.659	21.83
617.85	21.76
618.042	21.84
618.234	21.81
618.426	21.71
618.618	21.64
618.809	21.56
619.001	21.55
619.193	21.58
619.384	21.42
619.576	21.29
619.768	21.36
619.959	21.28
620.151	21.25
620.343	21.31
620.534	21.39
620.726	21.52
620.917	21.48
621.109	21.49
621.301	21.52
621.492	21.67
621.684	21.6
621.875	21.53
622.067	21.61
622.258	21.75
622.45	21.8
622.641	21.82
622.832	21.86
623.024	21.9
623.215	21.85
623.407	21.94
623.598	21.76
623.789	21.81
623.981	21.74
624.172	21.77
624.363	21.9
624.555	21.92
624.746	21.82
624.937	21.77
625.129	21.7
625.32	21.56
625.511	21.45
625.702	21.49
625.893	21.49
626.085	21.58
626.276	21.53
626.467	21.47
626.658	21.5
626.849	21.64
627.04	21.62
627.231	21.53
627.422	21.57
627.614	21.57
627.805	21.67
627.996	21.69
628.187	21.58
628.378	21.59
628.569	21.64
628.76	21.66
628.951	21.71
629.142	21.82
629.332	21.65
629.523	21.55
629.714	21.6
629.905	21.54
630.096	21.47
630.287	21.47
630.478	21.54
630.669	21.53
630.859	21.45
631.05	21.34
631.241	21.37
631.432	21.38
631.623	21.35
631.813	21.28
632.004	21.36
632.195	21.43
632.385	21.46
632.576	21.55
632.767	21.51
632.957	21.42
633.148	21.46
633.339	21.5
633.529	21.61
633.72	21.61
633.91	21.5
634.101	21.37
634.292	21.43
634.482	21.52
634.673	21.45
634.863	21.5
635.054	21.44
635.244	21.45
635.435	21.47
635.625	21.45
635.815	21.45
636.006	21.33
636.196	21.44
636.387	21.62
636.577	21.79
636.767	21.82
636.958	21.87
637.148	21.89
637.338	21.85
637.529	21.85
637.719	21.94
637.909	22.05
638.099	22.18
638.29	22.25
638.48	22.46
638.67	22.35
638.86	22.27
639.05	22.21
639.241	22.28
639.431	22.11
639.621	22.34
639.811	22.35
640.001	22.48
640.191	22.62
640.381	22.52
640.571	22.34
640.761	22.14
640.951	22.06
641.141	22.02
641.331	22.14
641.521	22.11
641.711	22.11
641.901	22.3
642.091	21.97
642.281	22.12
642.471	22.09
642.661	21.91
642.851	21.92
643.041	22.12
643.231	22.35
643.42	22.43
643.61	22.55
643.8	22.49
643.99	22.45
644.18	22.35
644.369	22.3
644.559	22.35
644.749	22.26
644.939	22.23
645.128	22.21
645.318	22.18
645.508	22.15
645.697	22.18
645.887	22.13
646.076	22.21
646.266	22.23
646.456	22.48
646.645	22.53
646.835	22.6
647.024	22.91
647.214	22.92
647.403	22.99
647.593	23.04
647.782	23.04
647.972	23.06
648.161	22.82
648.351	22.86
648.54	22.78
648.73	22.66
648.919	22.39
649.108	22.47
649.298	22.41
649.487	22.21
649.677	22.19
649.866	22.18
650.055	22.11
650.244	22.2
650.434	22.18
650.623	22.28
650.812	22.38
651.002	22.24
651.191	22.39
651.38	22.52
651.569	22.55
651.758	22.54
651.947	22.56
652.137	22.53
652.326	22.44
652.515	22.52
652.704	22.64
652.893	22.46
653.082	22.55
653.271	22.51
653.46	22.68
653.649	22.6
653.838	22.61
654.027	22.69
654.216	22.75
654.405	22.71
654.594	22.69
654.783	22.76
654.972	23.01
655.161	22.77
655.35	22.83
655.539	22.83
655.728	22.85
655.916	22.89
656.105	22.91
656.294	22.85
656.483	22.86
656.672	22.93
656.86	22.91
657.049	22.99
657.238	22.99
657.427	22.75
657.615	22.87
657.804	22.96
657.993	23
658.181	22.96
658.37	22.78
658.559	22.71
658.747	22.76
658.936	22.52
659.125	22.37
659.313	22.41
659.502	22.36
659.69	22.38
659.879	22.47
660.067	22.42
660.256	22.49
660.444	22.46
660.633	22.41
660.821	22.46
661.01	22.52
661.198	22.43
661.387	22.44
661.575	22.62
661.763	22.59
661.952	22.78
662.14	22.63
662.328	22.64
662.517	22.74
662.705	22.64
662.893	22.89
663.082	22.8
663.27	22.94
663.458	22.95
663.646	23.07
663.834	23.31
664.023	23.15
664.211	23.14
664.399	22.88
664.587	23.08
664.775	22.9
664.963	23.15
665.152	23.48
665.34	23.23
665.528	23.16
665.716	23.21
665.904	23.34
666.092	23.36
666.28	23.28
666.468	23.3
666.656	23.48
666.844	23.64
667.032	23.54
667.22	23.7
667.408	23.33
667.596	23.06
667.784	23.35
667.971	23.54
668.159	23.54
668.347	23.49
668.535	23.68
668.723	23.73
668.911	23.87
669.098	23.79
669.286	23.74
669.474	23.88
669.662	23.97
669.849	24.26
670.037	24.37
670.225	23.99
670.413	24.13
670.6	24.08
670.788	23.9
670.976	23.56
671.163	23.49
671.351	23.45
671.538	23.24
671.726	23.07
671.913	23.1
672.101	22.82
672.289	22.69
672.476	22.72
672.664	22.98
672.851	22.85
673.039	22.88
673.226	23
673.413	23.09
673.601	23.08
673.788	23
673.976	23.27
674.163	23.47
674.35	23.39
674.538	23.45
674.725	23.47
674.912	23.37
675.1	23.13
675.287	23.03
675.474	23.06
675.662	23.23
675.849	23.35
676.036	23.35
676.223	23.27
676.411	23.3
676.598	23.44
676.785	23.51
676.972	23.54
677.159	23.49
677.346	23.36
677.533	23.24
677.721	23.48
677.908	23.58
678.095	23.66
678.282	23.54
678.469	23.61
678.656	23.83
678.843	23.95
679.03	23.67
679.217	23.61
679.404	23.73
679.591	23.74
679.778	23.74
679.964	23.91
680.151	23.8
680.338	23.67
680.525	23.51
680.712	23.73
680.899	23.78
681.086	23.48
681.272	23.52
681.459	23.84
681.646	23.81
681.833	23.79
682.02	23.77
682.206	23.76
682.393	23.66
682.58	23.66
682.766	23.63
682.953	23.75
683.14	24.05
683.326	23.93
683.513	24.23
683.7	24.11
683.886	23.88
684.073	24.04
684.259	24.09
684.446	24.12
684.632	24.26
684.819	24.52
685.005	24.64
685.192	24.83
685.378	25
685.565	24.51
685.751	24.72
685.938	24.66
686.124	24.49
686.31	24.61
686.497	24.55
686.683	24.31
686.87	24.23
687.056	24.39
687.242	24.15
687.429	24.1
687.615	24.21
687.801	23.8
687.987	23.94
688.174	24.04
688.36	24.06
688.546	24.17
688.732	24
688.918	24.06
689.105	24.2
689.291	24.45
689.477	24.6
689.663	24.47
689.849	24.43
690.035	24.11
690.221	24.41
690.407	24.17
690.593	23.97
690.779	23.8
690.965	24.04
691.151	24.23
691.337	24.24
691.523	24.55
691.709	24.42
691.895	24.24
692.081	24.25
692.267	24.45
692.453	24.45
692.639	24.13
692.825	24.11
693.011	24.06
693.196	24.28
693.382	24.02
693.568	23.89
693.754	23.69
693.94	23.48
694.125	23.32
694.311	23.11
694.497	23.47
694.682	23.3
694.868	23.31
695.054	23.38
695.239	23.39
695.425	23.41
695.611	23.42
695.796	23.5
695.982	23.68
696.168	23.78
696.353	23.7
696.539	23.97
696.724	24.06
696.91	24.07
697.095	23.96
697.281	23.92
697.466	24.08
697.652	24.27
697.837	24.2
698.023	24.25
698.208	24.06
698.393	24.01
698.579	23.82
698.764	23.79
698.949	23.58
699.135	23.65
699.32	23.58
699.505	23.45
699.691	23.45
699.876	23.34
700.061	23.13
700.246	23.38
700.432	23.24
700.617	23.05
700.802	22.98
700.987	23.9
701.172	23.84
701.358	24.17
701.543	23.98
701.728	23.79
701.913	24.23
702.098	24.35
702.283	24.37
702.468	24.39
702.653	24.4
702.838	24.44
703.023	24.77
703.208	25.02
703.393	24.75
703.578	25.01
703.763	24.77
703.948	24.65
704.133	24.84
704.318	24.65
704.503	24.74
704.688	24.86
704.873	24.96
705.057	24.62
705.242	24.42
705.427	24.5
705.612	24.29
705.797	23.83
705.981	24.02
706.166	23.97
706.351	24.15
706.536	24.28
706.72	24.17
706.905	24.16
707.09	23.98
707.274	24.01
707.459	24.19
707.644	24.74
707.828	24.59
708.013	24.53
708.197	24.73
708.382	24.35
708.567	24.13
708.751	24.08
708.936	23.91
709.12	24.23
709.305	24.11
709.489	24.57
709.673	24.4
709.858	24.56
710.042	24.14
710.227	24.24
710.411	24.35
710.596	24.29
710.78	24.59
710.964	25.1
711.149	25.03
711.333	24.67
711.517	24.76
711.702	24.83
711.886	24.39
712.07	24.55
712.254	24.24
712.438	24.52
712.623	24.49
712.807	24.56
712.991	24.49
713.175	24.48
713.359	24.36
713.544	24.66
713.728	25.3
713.912	25.44
714.096	25.36
714.28	25.39
714.464	25.21
714.648	25.2
714.832	24.78
715.016	24.92
715.2	24.78
715.384	24.64
715.568	24.58
715.752	24.55
715.936	24.32
716.12	24.19
716.304	23.77
716.488	23.77
716.671	23.92
716.855	24.19
717.039	24.27
717.223	24.37
717.407	24.15
717.59	24.33
717.774	24.4
717.958	24.17
718.142	23.88
718.325	23.95
718.509	23.49
718.693	23.56
718.877	23.56
719.06	23.37
719.244	22.94
719.428	22.98
719.611	23
719.795	23.24
719.978	23.35
720.162	23.57
720.345	23.45
720.529	23.94
720.713	23.61
720.896	23.88
721.08	24.18
721.263	24.25
721.446	24.41
721.63	24.63
721.813	24.69
721.997	24.64
722.18	24.6
722.364	24.66
722.547	24.65
722.73	24.5
722.914	23.92
723.097	24.32
723.28	24.58
723.464	24.15
723.647	24.32
723.83	24.34
724.013	24.58
724.197	24.38
724.38	25.03
724.563	25.42
724.746	25.47
724.929	25.41
725.112	25.76
725.296	26.04
725.479	26
725.662	25.96
725.845	25.9
726.028	25.81
726.211	25.56
726.394	25.81
726.577	26.18
726.76	26.09
726.943	25.98
727.126	25.64
727.309	25.64
727.492	25.62
727.675	25.46
727.858	25.8
728.041	25.68
728.224	25.87
728.407	25.99
728.589	26.28
728.772	26.16
728.955	25.78
729.138	25.68
729.321	26.14
729.503	26.31
729.686	26.15
729.869	26.33
730.052	26.54
730.234	26.24
730.417	26.03
730.6	25.82
730.782	25.65
730.965	25.65
731.148	25.5
731.33	25.65
731.513	25.05
731.695	24.32
731.878	24.36
732.061	24.57
732.243	24.65
732.426	24.83
732.608	24.57
732.791	24.91
732.973	25.04
733.156	25.27
733.338	25.16
733.52	25.23
733.703	25.11
733.885	25.79
734.068	25.82
734.25	25.44
734.432	25.28
734.615	24.94
734.797	24.31
734.979	24.27
735.162	23.95
735.344	24.15
735.526	24.16
735.708	24.41
735.891	23.4
736.073	23.22
736.255	22.84
736.437	22.83
736.619	23.03
736.802	22.78
736.984	22.74
737.166	23.29
737.348	23.53
737.53	23.97
737.712	23.5
737.894	22.95
738.076	22.35
738.258	23.16
738.44	23.48
738.622	23.36
738.804	23.48
738.986	23.38
739.168	23.74
739.35	24.08
739.532	24.34
739.714	24.64
739.896	24.82
740.078	24.77
740.259	25.38
740.441	25.61
740.623	25.82
740.805	26.09
740.987	25.87
741.168	26.48
741.35	26.59
741.532	26.43
741.714	26.15
741.895	25.76
742.077	25.44
742.259	25.12
742.44	25.43
742.622	24.99
742.804	24.57
742.985	24.45
743.167	24.12
743.348	24.84
743.53	23.81
743.711	24.74
743.893	24.81
744.075	24.94
744.256	25.15
744.438	25.53
744.619	25.23
744.8	25.13
744.982	25.06
745.163	25.88
745.345	26.08
745.526	26.35
745.707	26.57
745.889	27.09
746.07	26.21
746.252	26.08
746.433	25.53
746.614	25.34
746.795	24.76
746.977	25.34
747.158	25.54
747.339	25.65
747.52	25.38
747.702	25.42
747.883	25.65
748.064	25.35
748.245	25.26
748.426	25.42
748.607	25.92
748.788	26.01
748.97	25.59
749.151	26.14
749.332	26.15
749.513	26.24
749.694	26.33
749.875	26.16
750.056	25.25
750.237	25.26
750.418	24.68
750.599	24.67
750.78	24.25
750.96	24.25
751.141	24.61
751.322	25.01
751.503	24.96
751.684	24.49
751.865	24.59
752.046	24.46
752.226	24.79
752.407	25.63
752.588	25.06
752.769	25.04
752.949	25.36
753.13	25.98
753.311	25.47
753.492	25.89
753.672	26.01
753.853	25.89
754.034	25.82
754.214	25.57
754.395	25.51
754.575	25.16
754.756	25.07
754.937	25
755.117	26.05
755.298	25.73
755.478	25
755.659	24.65
755.839	23.97
756.02	23.94
756.2	24.14
756.381	24.7
756.561	25.07
756.741	25.41
756.922	25.84
757.102	25.98
757.283	26.26
757.463	25.8
757.643	25.83
757.823	26.32
758.004	26.93
758.184	27.53
758.364	27.14
758.545	26.84
758.725	26.65
758.905	26.92
759.085	26.07
759.265	26.01
759.446	25.58
759.626	25.5
759.806	25.02
759.986	25.04
760.166	24.62
760.346	24.6
760.526	24.61
760.706	24.69
760.886	25.11
761.066	24.86
761.246	24.39
761.426	24.5
761.606	24
761.786	23.55
761.966	23.65
762.146	23.77
762.326	23.96
762.506	24.12
762.686	24.47
762.866	24.29
763.046	24.47
763.225	23.83
763.405	23.56
763.585	23.67
763.765	24.17
763.945	24.34
764.124	24.98
764.304	25.49
764.484	25.64
764.664	25.51
764.843	25.21
765.023	24.56
765.203	24.44
765.382	24.46
765.562	24.81
765.741	25.48
765.921	25.56
766.101	25.68
766.28	26.19
766.46	26.09
766.639	25.79
766.819	26.34
766.998	26.35
767.178	27.16
767.357	27.78
767.537	27.98
767.716	27.95
767.896	28.35
768.075	26.89
768.254	27
768.434	27.17
768.613	26.67
768.792	26.24
768.972	25.6
769.151	25.18
769.33	25.52
769.51	25.65
769.689	25.45
769.868	25.8
770.047	26.39
770.226	26.48
770.406	27.84
770.585	27.18
770.764	26.7
770.943	26.89
771.122	27.81
771.301	28.13
771.48	27.93
771.66	27.47
771.839	26.61
772.018	26.66
772.197	26.67
772.376	25.66
772.555	25.47
772.734	24.33
772.913	24.72
773.092	24.69
773.271	24.77
773.449	24
773.628	23.96
773.807	24.5
773.986	23.78
774.165	24.65
774.344	23.69
774.523	23.5
774.701	24.43
774.88	24.31
775.059	25.2
775.238	25.03
775.417	25.25
775.595	25.01
775.774	25.39
775.953	25.05
776.131	24.4
776.31	25.62
776.489	25.39
776.667	26.19
776.846	25.29
777.025	24.52
777.203	24.3
777.382	24.5
777.56	24.31
777.739	23.87
777.917	24.51
778.096	24.66
778.274	25.22
778.453	26.23
778.631	25.27
778.81	25.56
778.988	25.58
779.166	26.28
779.345	27.03
779.523	27.95
779.702	28
779.88	27.76
780.058	27.93
780.237	28.44
780.415	28.26
780.593	27.93
780.771	28.61
780.95	30.12
781.128	29.39
781.306	30.21
781.484	30.28
781.662	30.55
781.841	29.5
782.019	29.18
782.197	29.07
782.375	29.4
782.553	27.67
782.731	27.41
782.909	28.1
783.087	27.26
783.265	27.04
783.443	27.41
783.621	27.31
783.799	27.11
783.977	26.26
784.155	27.02
784.333	27.38
784.511	27.67
784.689	28.4
784.867	29.11
785.045	29.76
785.223	29.07
785.4	28.27
785.578	28.05
785.756	27.44
785.934	27.29
786.112	26.91
786.289	26.29
786.467	25.5
786.645	25.56
786.823	26.39
787	25.37
787.178	25.85
787.356	25.48
787.533	25.37
787.711	25.61
787.889	24.67
788.066	24.57
788.244	24.37
788.421	23.92
788.599	24.7
788.776	24.84
788.954	25.24
789.131	25.46
789.309	25.52
789.486	25.43
789.664	26.46
789.841	26.26
790.019	26.56
790.196	27.08
790.373	28.62
790.551	28.56
790.728	30.38
790.906	30.52
791.083	30.87
791.26	30.38
791.437	28.82
791.615	29.22
791.792	29.73
791.969	29.01
792.146	30.12
792.324	31.04
792.501	31.48
792.678	29.18
792.855	28.51
793.032	27.36
793.209	27.86
793.387	26.52
793.564	26.45
793.741	27.69
793.918	27.76
794.095	27.91
794.272	27.98
794.449	28.23
794.626	27.16
794.803	27.64
794.98	28.76
795.157	30.11
795.334	30.84
795.511	30.24
795.688	31.01
795.864	31.57
796.041	31.79
796.218	31.73
796.395	31.16
796.572	31.01
796.749	29.4
796.925	30.49
797.102	29.5
797.279	29.6
797.456	28.07
797.632	27.77
797.809	28.2
797.986	28.01
798.162	27.3
798.339	26.9
798.516	26.01
798.692	26.58
798.869	26.79
799.046	28.31
799.222	26.24
799.399	26.2
799.575	26.67
799.752	28.03
799.928	28.14
800.105	28.56
800.281	29.38
800.458	29.38
800.634	29.54
800.811	30.83
800.987	30.28
801.163	30.28
801.34	29.98
801.516	31.83
801.692	32.02
801.869	31.43
802.045	31.18
802.221	30.65
802.398	29.88
802.574	30.21
802.75	30.33
802.926	29.97
803.103	29.48
803.279	28.78
803.455	27.93
803.631	27.64
803.807	27.13
803.983	26.25
804.16	25.61
804.336	25.29
804.512	26.47
804.688	26
804.864	26.43
805.04	26.86
805.216	27.35
805.392	28.23
805.568	28.37
805.744	29.3
805.92	29.5
806.096	29.35
806.272	30.63
806.448	32.09
806.623	31
806.799	30.54
806.975	31.06
807.151	30.13
807.327	29.85
807.503	29.26
807.678	29.19
807.854	29.38
808.03	29.53
808.206	28.96
808.381	28.56
808.557	27.48
808.733	26.33
808.908	27.2
809.084	26.33
809.26	25.74
809.435	25.85
809.611	25.75
809.787	26.64
809.962	26.01
810.138	26.64
810.313	26.85
810.489	27.25
810.664	27.19
810.84	27.53
811.015	28.48
811.191	30.07
811.366	30.24
811.542	30.15
811.717	32.08
811.892	33.18
812.068	33.51
812.243	34.11
812.419	33.64
812.594	33.17
812.769	33.3
812.944	32.16
813.12	32.72
813.295	31.79
813.47	31.51
813.645	31.33
813.821	32.85
813.996	31.33
814.171	31.11
814.346	30.62
814.521	30.41
814.697	29.59
814.872	29.66
815.047	30.71
815.222	31.76
815.397	31.81
815.572	32.44
815.747	31.37
815.922	32.13
816.097	30.87
816.272	29.9
816.447	30.84
816.622	30.45
816.797	29.34
816.972	29.95
817.147	28.9
817.322	27.61
817.496	28.66
817.671	28.35
817.846	28.85
818.021	28.46
818.196	28.73
818.371	29.58
818.545	29.88
818.72	28.64
818.895	28.52
819.069	28.67
819.244	28.29
819.419	28.46
819.594	28.37
819.768	27.21
819.943	27.18
820.117	26.68
820.292	26.46
820.467	26.25
820.641	25.59
820.816	25.39
820.99	25.49
821.165	25.48
821.339	25.6
821.514	25.77
821.688	25.51
821.863	25.37
822.037	25.71
822.212	25.72
822.386	25.68
822.56	25.72
822.735	25.77
822.909	25.74
823.084	25.81
823.258	25.72
823.432	25.66
823.606	25.65
823.781	25.54
823.955	25.7
824.129	25.93
824.303	25.92
824.478	25.72
824.652	25.74
824.826	25.59
825	25.63
825.174	25.52
825.348	25.49
825.523	25.5
825.697	25.89
825.871	25.55
826.045	25.74
826.219	26.12
826.393	25.77
826.567	25.74
826.741	25.76
826.915	25.78
827.089	25.76
827.263	25.93
827.437	26.3
827.611	26.82
827.784	26.51
827.958	25.69
828.132	26
828.306	25.96
828.48	25.34
828.654	25.48
828.827	24.96
829.001	25.52
829.175	26.19
829.349	26.42
829.522	25.73
829.696	25.65
829.87	26.01
830.044	27.74
830.217	28.76
830.391	28.63
830.565	27.86
830.738	28.87
830.912	29.39
831.085	30.55
831.259	29.97
831.432	29.79
831.606	30.33
831.779	30.63
831.953	31.01
832.126	29.41
832.3	28.33
832.473	28.07
832.647	27.99
832.82	29.27
832.994	28.88
833.167	29.03
833.34	29.2
833.514	29.05
833.687	28.68
833.86	28.67
834.034	28.24
834.207	28.44
834.38	28.55
834.553	28.78
834.727	28.36
834.9	28.4
835.073	28.11
835.246	27.72
835.419	28.2
835.593	27.16
835.766	27.95
835.939	28.07
836.112	27.84
836.285	28.47
836.458	28.07
836.631	29.45
836.804	29.72
836.977	31.16
837.15	31.56
837.323	31.06
837.496	31.26
837.669	30.16
837.842	31.85
838.015	31.11
838.188	29.72
838.361	30.84
838.533	30.4
838.706	31.2
838.879	28.81
839.052	28.91
839.225	29.17
839.398	29.25
839.57	30.71
839.743	32.51
839.916	32.6
840.088	30.64
840.261	32.13
840.434	32.6
840.607	32.91
840.779	33.04
840.952	32.48
841.124	33.83
841.297	33.68
841.47	34.79
841.642	35.84
841.815	34.59
841.987	32.46
842.16	32.89
842.332	33.99
842.505	32.49
842.677	33.25
842.85	33.06
843.022	35.91
843.194	37.4
843.367	38.34
843.539	38.39
843.712	36.32
843.884	37
844.056	37.37
844.229	42.46
844.401	41.31
844.573	42.8
844.745	41.81
844.918	42.18
845.09	43.61
845.262	40.86
845.434	35.93
845.606	35.73
845.779	33.5
845.951	38.56
846.123	36.15
846.295	36.4
846.467	35.52
846.639	35.3
846.811	32.52
846.983	32.29
847.155	34.1
847.327	32.04
847.499	31.56
847.671	36.89
847.843	36.69
848.015	38.59
848.187	35.76
848.359	37.39
848.531	36.96
848.703	33.33
848.875	35.43
849.047	39.22
849.218	42.36
849.39	39.02
849.562	37.58
849.734	40.65
849.905	40.38
850.077	39.2
850.249	43.03
850.421	39.92
850.592	38.06
850.764	37.95
850.936	39.22
851.107	37.01
851.279	37.16
851.451	31.97
851.622	33.94
851.794	36.69
851.965	34.4
852.137	34.41
852.308	31.46
852.48	27.19
852.651	29.14
852.823	28.49
852.994	28.36
853.166	30.3
853.337	32.04
853.509	29.95
853.68	33.1
853.851	35.42
854.023	33.36
854.194	31.25
854.365	29.66
854.537	32.44
854.708	36.64
854.879	36.56
855.05	37.18
855.222	37.83
855.393	35.8
855.564	36.76
855.735	39.31
855.906	39.25
856.078	36.58
856.249	34.77
856.42	40.1
856.591	44.02
856.762	42.88
856.933	41.6
857.104	44.79
857.275	45.8
857.446	45.94
857.617	44.56
857.788	43.07
857.959	42
858.13	48.11
858.301	47.03
858.472	49.43
858.643	47.51
858.814	44.84
858.985	45.43
859.155	44.44
859.326	39.42
859.497	39.88
859.668	42.4
859.839	41.18
860.009	43.85
860.18	42.32
860.351	39.23
860.522	38.51
860.692	39.95
860.863	42.31
861.034	40.86
861.204	38.85
861.375	39.15
861.546	40.93
861.716	40.46
861.887	37.66
862.057	41.14
862.228	36.48
862.398	35.88
862.569	33.64
862.739	32.96
862.91	30.64
863.08	26.61
863.251	28.27
863.421	31.93
863.592	32.96
863.762	28.42
863.932	31.25
864.103	33.02
864.273	30.37
864.443	32.37
864.614	30.23
864.784	31.41
864.954	35.98
865.125	34.36
865.295	38.44
865.465	37.91
865.635	35.49
865.805	35.17
865.976	39.58
866.146	40.14
866.316	41.58
866.486	45.23
866.656	43.62
866.826	47.65
866.996	50.06
867.166	48.9
867.336	53
867.506	49.48
867.676	51.4
867.846	49.7
868.016	46.48
868.186	42.41
868.356	40.56
868.526	37.74
868.696	34.65
868.866	37.27
869.036	35.57
869.206	34.28
869.376	32.28
869.545	32.48
869.715	37.16
869.885	37.83
870.055	40.12
870.224	42.52
870.394	47.49
870.564	48.49
870.734	48.92
870.903	46.63
871.073	49.1
871.243	50.98
871.412	50
871.582	53.06
871.751	49.54
871.921	45.26
872.091	40.08
872.26	39.39
872.43	35.85
872.599	36.12
872.769	37.2
872.938	43.32
873.108	44.1
873.277	43.37
873.446	43.27
873.616	44.74
873.785	47.57
873.955	46.36
874.124	46.96
874.293	50.55
874.463	50.51
874.632	57.4
874.801	56.43
874.971	53.09
875.14	44.27
875.309	46.26
875.478	45.72
875.647	44.1
875.817	43.21
875.986	42.8
876.155	41.25
876.324	40.03
876.493	33.91
876.662	33.85
876.831	29.94
877	27.95
877.17	25.35
877.339	29.27
877.508	34.49
877.677	36.36
877.846	39.9
878.015	37.37
878.184	32.74
878.352	35.9
878.521	36.79
878.69	45.17
878.859	46.37
879.028	44.26
879.197	43.32
879.366	43.49
879.534	39.83
879.703	38.57
879.872	34.78
880.041	33.64
880.21	33.27
880.378	32.83
880.547	32.79
880.716	32.62
880.884	31.33
881.053	31.09
881.222	30.51
881.39	30.32
881.559	29.42
881.727	29.26
881.896	28.94
882.065	29.6
882.233	29.12
882.402	29.15
882.57	29.09
882.739	29.05
882.907	28.43
883.076	27.47
883.244	27.52
883.412	28.2
883.581	28.48
883.749	28.91
883.918	28.63
884.086	27.92
884.254	28.36
884.423	28.68
884.591	29.17
884.759	30.16
884.927	28.47
885.096	30.14
885.264	32.55
885.432	32.9
885.6	31.98
885.769	31.97
885.937	33.18
886.105	36.83
886.273	39.09
886.441	39.82
886.609	38.61
886.777	39.77
886.945	39.19
887.113	44.29
887.281	42.67
887.449	38.34
887.617	37.81
887.785	41.23
887.953	41.35
888.121	38.27
888.289	37.07
888.457	33.45
888.625	31.34
888.793	34.02
888.961	31.23
889.129	33.65
889.296	31.07
889.464	31.37
889.632	34.82
889.8	34.69
889.967	32.71
890.135	33.22
