Data from 2938570_Reflection_1.txt Node
Date: Sun Jun 14 22:09:41 EDT 2015
User: robert
Spectrometer: USB4E03002
Autoset integration time: false
Trigger mode: 4
Integration Time (sec): 1.000000E-1
Scans to average: 10
Electric dark correction enabled: true
Nonlinearity correction enabled: false
Boxcar width: 5
Stray light correction enabled: false
XAxis mode: Wavelengths
Stop averaging: false
Number of Pixels in Spectrum: 3648
>>>>>Begin Spectral Data<<<<<
177.575	110.33
177.794	-77.89
178.014	-54.44
178.233	-29.99
178.452	-330.23
178.672	-68000
178.891	81.75
179.11	139.42
179.33	143.3
179.549	169.07
179.768	282.37
179.987	178.85
180.207	-110.44
180.426	-54.98
180.645	-13.66
180.864	-51.7
181.084	-44.26
181.303	-98.89
181.522	-725.59
181.741	-89.96
181.96	-11450
182.179	824.64
182.398	341.85
182.618	-24.92
182.837	11.1
183.056	62.58
183.275	72.32
183.494	84.95
183.713	41.06
183.932	-5.9
184.151	15.73
184.37	20.29
184.589	16.79
184.808	6.85
185.027	7.06
185.246	5.41
185.465	-41.49
185.684	-88.74
185.903	-357.01
186.122	420.09
186.341	1985.93
186.56	381.62
186.779	927.62
186.998	-8049.28
187.216	-2610
187.435	-250.48
187.654	-11.68
187.873	25.29
188.092	61.37
188.311	58
188.53	49.06
188.748	71.98
188.967	92.4
189.186	73.84
189.405	92.41
189.623	73.19
189.842	68.31
190.061	77.26
190.28	91.22
190.498	66.2
190.717	-672.25
190.936	120.11
191.154	42.46
191.373	38.54
191.592	25.14
191.81	29.21
192.029	-4.52
192.248	-79.01
192.466	-112.24
192.685	-81.31
192.904	-168.22
193.122	-76.6
193.341	-35.04
193.559	-23.43
193.778	-13.25
193.996	27.9
194.215	38.38
194.433	67.9
194.652	103.73
194.87	79.37
195.089	54.91
195.307	47.04
195.526	58.16
195.744	82.62
195.963	84.21
196.181	52.6
196.399	44.3
196.618	18.43
196.836	-208.56
197.055	-157.9
197.273	420.49
197.491	578.82
197.71	10.68
197.928	-1517.8
198.146	1415.82
198.365	655.46
198.583	328.68
198.801	-252.25
199.019	-3.64
199.238	59.24
199.456	25.21
199.674	6.79
199.892	2.2
200.111	-23.65
200.329	30.38
200.547	27.85
200.765	48.67
200.983	-4.04
201.202	-13.48
201.42	-20.8
201.638	-54.14
201.856	7.74
202.074	9.25
202.292	-96.04
202.51	-5.7
202.728	15.23
202.946	-96.67
203.165	-51.94
203.383	20.64
203.601	-34.33
203.819	-400
204.037	-243.31
204.255	-64.45
204.473	542.12
204.691	10.12
204.909	9.8
205.127	18.4
205.345	39.61
205.562	3.61
205.78	-15.69
205.998	-7.23
206.216	5.61
206.434	17.46
206.652	-16.13
206.87	-4.35
207.088	-13.5
207.306	-44.15
207.523	-21
207.741	-27.96
207.959	7.55
208.177	6.17
208.395	-41.9
208.612	-95.67
208.83	-55.02
209.048	-36.5
209.266	-20.75
209.483	-72.42
209.701	-63.14
209.919	-93.34
210.136	-123.66
210.354	-81.25
210.572	-88.02
210.79	-38.75
211.007	-8.77
211.225	-59.9
211.442	-70.54
211.66	-57.24
211.878	-58.76
212.095	57.84
212.313	71.76
212.53	88.85
212.748	90.25
212.966	89.46
213.183	100.97
213.401	103.9
213.618	125.43
213.836	121.35
214.053	99.03
214.271	86.89
214.488	34.82
214.705	30.52
214.923	-133.58
215.14	-69.75
215.358	-34.61
215.575	-19.36
215.793	-20.38
216.01	1.92
216.227	5.28
216.445	2.85
216.662	23.07
216.879	25.54
217.097	16.56
217.314	28.01
217.531	28.79
217.749	44.03
217.966	45.31
218.183	38.91
218.4	41.23
218.618	39.6
218.835	33.84
219.052	22.59
219.269	18.02
219.487	13.89
219.704	17.04
219.921	24.08
220.138	12.53
220.355	6.98
220.572	10.05
220.79	7.71
221.007	4.38
221.224	1.58
221.441	2.74
221.658	-0.32
221.875	2.8
222.092	4.37
222.309	6.02
222.526	10.46
222.743	16.7
222.96	10.92
223.177	7.64
223.394	5.28
223.611	10.69
223.828	11.5
224.045	11.94
224.262	15.5
224.479	14.82
224.696	12.78
224.913	11.11
225.13	9.76
225.347	10.13
225.564	9.21
225.781	8.13
225.997	5.46
226.214	5.35
226.431	5.57
226.648	4.92
226.865	5.28
227.082	4.74
227.298	4.84
227.515	4.93
227.732	5.72
227.949	7.67
228.165	7.94
228.382	9.16
228.599	9.73
228.816	10.53
229.032	10.64
229.249	10.33
229.466	10.66
229.682	11.03
229.899	10.82
230.116	11.56
230.332	9.03
230.549	9.72
230.765	9.84
230.982	9.25
231.199	7
231.415	7.36
231.632	6.84
231.848	7.12
232.065	5.96
232.281	8.63
232.498	7.28
232.714	7.55
232.931	7.68
233.147	7.48
233.364	8.02
233.58	8.48
233.797	8.66
234.013	7.66
234.23	6.93
234.446	7.41
234.662	5.9
234.879	6.27
235.095	8.45
235.312	7.65
235.528	8.39
235.744	8.05
235.961	9.12
236.177	9.88
236.393	12.04
236.61	13.44
236.826	13.11
237.042	12.48
237.258	12.54
237.475	11.96
237.691	12.16
237.907	11.82
238.123	13
238.339	12.83
238.556	11.47
238.772	11.27
238.988	10.92
239.204	10.89
239.42	10.24
239.636	10.03
239.853	10.35
240.069	9.97
240.285	9.54
240.501	8.78
240.717	9.07
240.933	8.94
241.149	8.08
241.365	7.79
241.581	8.4
241.797	8.85
242.013	8.55
242.229	7.75
242.445	8.36
242.661	7.95
242.877	8.62
243.093	8.63
243.309	9.02
243.525	9.85
243.741	10.22
243.957	9.14
244.173	8.44
244.388	8.8
244.604	9.12
244.82	8.68
245.036	8.62
245.252	8.27
245.468	8.11
245.683	7.9
245.899	7.67
246.115	7.87
246.331	7.92
246.547	8.23
246.762	7.91
246.978	7.37
247.194	7.29
247.409	7.52
247.625	7.48
247.841	7.76
248.057	7.81
248.272	8.23
248.488	7.96
248.703	7.5
248.919	7.56
249.135	7.69
249.35	8.04
249.566	7.59
249.782	7.18
249.997	7.2
250.213	6.41
250.428	6.99
250.644	6.58
250.859	6.16
251.075	6.52
251.29	6.18
251.506	6.84
251.721	7.59
251.937	7.93
252.152	8.03
252.368	7.64
252.583	6.5
252.798	5.84
253.014	5.84
253.229	5.45
253.445	5.8
253.66	5.9
253.875	4.07
254.091	3.27
254.306	2.71
254.521	3.71
254.737	3.4
254.952	4.47
255.167	4.34
255.383	4.69
255.598	5.47
255.813	5.89
256.028	4.67
256.244	5.75
256.459	6.43
256.674	6.64
256.889	6.23
257.104	6.82
257.32	7.18
257.535	6.64
257.75	6.6
257.965	6.64
258.18	6.33
258.395	6.83
258.61	6.67
258.826	6.02
259.041	6.26
259.256	6.25
259.471	5.89
259.686	5.78
259.901	6.23
260.116	6.35
260.331	6.09
260.546	6.26
260.761	6.02
260.976	5.72
261.191	5.98
261.406	5.58
261.621	5.83
261.836	5.59
262.05	5.32
262.265	5.03
262.48	4.44
262.695	4.38
262.91	4.64
263.125	4.51
263.34	4.93
263.555	5.41
263.769	5.87
263.984	5.05
264.199	5.93
264.414	5.81
264.629	5.8
264.843	6.61
265.058	6.52
265.273	6.37
265.488	6.44
265.702	6.01
265.917	5.45
266.132	5.24
266.346	5.47
266.561	4.98
266.776	4.26
266.99	4.16
267.205	3.69
267.42	4.05
267.634	3.65
267.849	3.76
268.063	3.8
268.278	4.39
268.492	4.62
268.707	4.64
268.922	5.16
269.136	5.9
269.351	6.06
269.565	6.14
269.78	6.4
269.994	6.02
270.209	6.13
270.423	6.12
270.637	6.15
270.852	5.94
271.066	6.17
271.281	5.89
271.495	5.72
271.709	5.93
271.924	5.45
272.138	5.01
272.353	5.27
272.567	5.01
272.781	4.93
272.996	4.4
273.21	4.15
273.424	3.67
273.638	3.56
273.853	3.27
274.067	2.31
274.281	3.2
274.495	3.27
274.71	3.16
274.924	3.7
275.138	4.11
275.352	4.61
275.566	4.79
275.781	4.85
275.995	4.68
276.209	5.03
276.423	5.54
276.637	4.89
276.851	5.21
277.065	5.64
277.279	5.23
277.493	4.81
277.707	4.3
277.921	4.3
278.135	4.76
278.349	4.65
278.563	4.2
278.777	3.9
278.991	3.84
279.205	3.78
279.419	3.81
279.633	4.01
279.847	4.51
280.061	4.8
280.275	4.66
280.489	4.22
280.703	4.26
280.917	4.29
281.131	4.69
281.344	5.29
281.558	5.61
281.772	5.36
281.986	4.64
282.2	4.42
282.414	4.75
282.627	4.57
282.841	4.65
283.055	5.09
283.269	5.6
283.482	5.3
283.696	4.88
283.91	4.08
284.123	4.33
284.337	4.83
284.551	4.84
284.764	4.4
284.978	4.75
285.192	4.81
285.405	4.49
285.619	4.09
285.833	4.51
286.046	4.65
286.26	4.84
286.473	4.73
286.687	4.65
286.9	4.39
287.114	5.06
287.327	4.85
287.541	4.87
287.754	4.95
287.968	5.22
288.181	4.99
288.395	5.11
288.608	5.18
288.822	5.3
289.035	5.29
289.248	5.33
289.462	5.21
289.675	5.15
289.889	5.12
290.102	4.97
290.315	4.82
290.529	4.93
290.742	5.05
290.955	5.12
291.169	4.89
291.382	5.19
291.595	5.24
291.808	5.11
292.022	5.44
292.235	5.29
292.448	5.59
292.661	5.79
292.875	5.75
293.088	5.31
293.301	5.44
293.514	5.73
293.727	5.37
293.94	5.58
294.153	5.16
294.367	4.96
294.58	5.13
294.793	4.85
295.006	4.84
295.219	4.77
295.432	5.2
295.645	5.12
295.858	4.77
296.071	4.47
296.284	4.44
296.497	4.44
296.71	4.45
296.923	4.22
297.136	4.27
297.349	4.05
297.562	4.3
297.775	4.15
297.988	4.31
298.201	4.77
298.414	5.39
298.626	5.56
298.839	5.77
299.052	5.92
299.265	6.41
299.478	6.43
299.691	6.4
299.903	6.04
300.116	5.91
300.329	5.85
300.542	5.61
300.755	5.41
300.967	5.39
301.18	5.41
301.393	5.54
301.605	5.3
301.818	5.57
302.031	5.58
302.243	5.48
302.456	5.74
302.669	5.75
302.881	5.78
303.094	5.83
303.307	5.76
303.519	5.49
303.732	5.32
303.944	5.43
304.157	5.31
304.37	5.6
304.582	5.98
304.795	5.67
305.007	5.1
305.22	4.63
305.432	4.3
305.645	4.17
305.857	4.49
306.069	4.5
306.282	4.51
306.494	4.71
306.707	4.45
306.919	4.04
307.132	3.89
307.344	4.1
307.556	4.35
307.769	4.73
307.981	4.73
308.193	4.49
308.406	4.43
308.618	4.14
308.83	3.93
309.043	3.98
309.255	3.96
309.467	4.39
309.679	4.71
309.892	5
310.104	4.77
310.316	4.66
310.528	5.23
310.74	5.33
310.953	5.43
311.165	5.45
311.377	5.7
311.589	5.84
311.801	5.64
312.013	5.39
312.225	5.39
312.437	5.76
312.649	5.95
312.862	5.52
313.074	5.68
313.286	6.41
313.498	6.36
313.71	6.49
313.922	6.56
314.134	6.41
314.346	6.66
314.558	6.46
314.77	6.43
314.982	5.8
315.193	5.83
315.405	5.45
315.617	4.81
315.829	4.95
316.041	4.78
316.253	5
316.465	4.71
316.677	4.28
316.888	4.01
317.1	3.86
317.312	4.75
317.524	4.9
317.736	5.19
317.947	5.05
318.159	5.8
318.371	5.58
318.583	5.57
318.794	5.83
319.006	5.96
319.218	6.49
319.43	6.6
319.641	6.73
319.853	6.43
320.064	6.31
320.276	6.86
320.488	6.15
320.699	6.06
320.911	6.16
321.123	5.81
321.334	5.39
321.546	5.15
321.757	4.83
321.969	4.79
322.18	4.83
322.392	4.75
322.603	4.53
322.815	4.88
323.026	5.38
323.238	5.26
323.449	5.62
323.661	5.67
323.872	5.47
324.083	5.98
324.295	5.92
324.506	6.16
324.718	6.15
324.929	5.79
325.14	5.5
325.352	5.09
325.563	4.89
325.774	5.07
325.986	5.81
326.197	5.86
326.408	5.61
326.62	5.37
326.831	5.37
327.042	5.44
327.253	5.78
327.464	5.81
327.676	6.22
327.887	5.96
328.098	5.81
328.309	5.45
328.52	5.79
328.732	6.04
328.943	6.33
329.154	6.42
329.365	6.46
329.576	6.28
329.787	5.96
329.998	5.63
330.209	5.79
330.42	5.6
330.631	5.89
330.842	5.47
331.053	5.18
331.264	5.09
331.475	5.52
331.686	5.36
331.897	5.62
332.108	6.05
332.319	6.04
332.53	6.05
332.741	6.25
332.952	5.95
333.163	6.13
333.374	6.1
333.585	5.66
333.795	4.95
334.006	4.83
334.217	4.73
334.428	4.55
334.639	5.22
334.849	5.53
335.06	5.56
335.271	5.58
335.482	5.28
335.692	5.39
335.903	5.78
336.114	5.77
336.325	5.83
336.535	6.38
336.746	6.49
336.957	5.52
337.167	5.15
337.378	5.07
337.589	4.95
337.799	5.13
338.01	5.06
338.22	4.9
338.431	5.05
338.642	5.24
338.852	4.43
339.063	4.12
339.273	4.46
339.484	5.09
339.694	4.99
339.905	5.17
340.115	5.28
340.326	5.12
340.536	5.48
340.746	5.63
340.957	5.97
341.167	6.57
341.378	6.66
341.588	6.71
341.799	6.62
342.009	6.5
342.219	6.57
342.43	6.54
342.64	6.39
342.85	5.92
343.061	5.48
343.271	4.84
343.481	4.31
343.691	4.57
343.902	4.47
344.112	4.09
344.322	3.98
344.532	4.02
344.743	4.13
344.953	4.27
345.163	4.54
345.373	4.98
345.583	5.35
345.793	5.59
346.004	5.3
346.214	5.48
346.424	5.49
346.634	5.94
346.844	5.5
347.054	5.56
347.264	5.62
347.474	5.8
347.684	5.36
347.894	5.04
348.104	4.81
348.314	4.93
348.524	4.58
348.734	4.92
348.944	4.58
349.154	4.68
349.364	4.27
349.574	4.56
349.784	4.31
349.994	4.47
350.204	4.85
350.413	4.96
350.623	4.8
350.833	4.76
351.043	4.41
351.253	4.49
351.463	4.41
351.672	4.74
351.882	4.58
352.092	4.43
352.302	4.56
352.511	4.49
352.721	4.75
352.931	4.87
353.141	5.09
353.35	5.11
353.56	4.96
353.77	4.7
353.979	4.69
354.189	4.53
354.399	4.42
354.608	4.41
354.818	3.97
355.027	3.84
355.237	3.83
355.447	4
355.656	4.23
355.866	4.38
356.075	4.63
356.285	4.47
356.494	4.82
356.704	5.1
356.913	5.2
357.123	5.43
357.332	5.29
357.542	5.31
357.751	4.89
357.96	4.57
358.17	4.52
358.379	4.62
358.589	4.68
358.798	4.82
359.007	4.51
359.217	4.45
359.426	4.6
359.635	4.75
359.845	4.76
360.054	5.05
360.263	5.19
360.472	5.28
360.682	5.37
360.891	5.37
361.1	4.96
361.309	5.22
361.519	5.22
361.728	5.25
361.937	5.26
362.146	5.07
362.355	4.92
362.564	4.76
362.774	4.79
362.983	4.72
363.192	4.82
363.401	4.87
363.61	4.8
363.819	4.87
364.028	4.71
364.237	4.64
364.446	4.85
364.655	4.59
364.864	4.73
365.073	4.77
365.282	4.62
365.491	4.41
365.7	4.44
365.909	4.3
366.118	4.08
366.327	4.09
366.536	4.11
366.745	4.12
366.954	4.38
367.162	4.54
367.371	4.34
367.58	4.36
367.789	4.22
367.998	4.36
368.207	4.51
368.415	4.41
368.624	4.22
368.833	4.09
369.042	3.99
369.25	4
369.459	3.74
369.668	3.61
369.877	3.74
370.085	3.94
370.294	3.74
370.503	3.77
370.711	4.02
370.92	4.21
371.129	4.35
371.337	4.39
371.546	4.28
371.754	4.26
371.963	4.33
372.171	4.31
372.38	4.25
372.589	4.39
372.797	4.24
373.006	4.14
373.214	4.12
373.423	3.85
373.631	3.66
373.84	3.69
374.048	3.9
374.256	3.93
374.465	3.89
374.673	4.07
374.882	3.84
375.09	3.97
375.298	3.76
375.507	3.68
375.715	3.9
375.923	4.1
376.132	4.21
376.34	4.16
376.548	4.24
376.757	4.49
376.965	4.36
377.173	4.46
377.381	4.29
377.59	4.58
377.798	4.55
378.006	4.34
378.214	4.04
378.423	3.9
378.631	3.87
378.839	4.04
379.047	3.82
379.255	3.66
379.463	3.57
379.671	3.63
379.879	3.4
380.088	3.47
380.296	3.55
380.504	3.83
380.712	3.73
380.92	3.59
381.128	3.21
381.336	3.02
381.544	2.88
381.752	2.78
381.96	2.89
382.168	3.04
382.376	3.17
382.584	3.34
382.791	3.37
382.999	3.38
383.207	3.21
383.415	3.38
383.623	3.4
383.831	3.52
384.039	3.91
384.247	3.71
384.454	3.68
384.662	3.45
384.87	3.33
385.078	3.12
385.285	3.25
385.493	3.43
385.701	3.54
385.909	3.53
386.116	3.77
386.324	3.65
386.532	3.66
386.739	3.63
386.947	3.86
387.155	3.95
387.362	4.04
387.57	4.04
387.778	4.15
387.985	4.19
388.193	4.4
388.4	4.37
388.608	4.46
388.816	4.43
389.023	4.45
389.231	4.12
389.438	4.02
389.646	4.11
389.853	4.04
390.061	4.02
390.268	3.94
390.475	3.74
390.683	3.74
390.89	3.62
391.098	3.64
391.305	3.51
391.512	3.72
391.72	3.69
391.927	3.56
392.135	3.56
392.342	3.5
392.549	3.44
392.756	3.54
392.964	3.34
393.171	3.25
393.378	3.41
393.586	3.49
393.793	3.46
394	3.53
394.207	3.76
394.414	3.8
394.622	3.73
394.829	3.59
395.036	3.43
395.243	3.48
395.45	3.6
395.657	3.52
395.864	3.24
396.072	3.24
396.279	3.11
396.486	2.92
396.693	2.9
396.9	3.12
397.107	3.28
397.314	3.45
397.521	3.61
397.728	3.62
397.935	3.5
398.142	3.76
398.349	3.67
398.556	3.61
398.763	3.72
398.97	3.67
399.177	3.63
399.383	3.34
399.59	3.3
399.797	2.95
400.004	2.98
400.211	3.07
400.418	3.1
400.625	3.16
400.831	3.15
401.038	2.86
401.245	2.74
401.452	2.65
401.658	2.78
401.865	2.78
402.072	2.86
402.279	2.7
402.485	2.72
402.692	2.72
402.899	2.69
403.105	2.71
403.312	2.91
403.519	3.07
403.725	3.16
403.932	3.11
404.138	3.05
404.345	2.98
404.552	3.03
404.758	3.07
404.965	3.07
405.171	3.07
405.378	3.14
405.584	3.06
405.791	2.96
405.997	2.85
406.204	3
406.41	3.07
406.617	3.23
406.823	3.35
407.029	3.26
407.236	3.12
407.442	3.19
407.649	3.29
407.855	3.48
408.061	3.61
408.268	3.51
408.474	3.38
408.68	3.32
408.887	3.55
409.093	3.5
409.299	3.38
409.505	3.38
409.712	3.22
409.918	3.11
410.124	2.95
410.33	2.98
410.537	2.96
410.743	3
410.949	2.99
411.155	2.67
411.361	2.61
411.567	2.82
411.773	2.86
411.98	2.87
412.186	2.71
412.392	2.66
412.598	2.52
412.804	2.69
413.01	2.68
413.216	2.61
413.422	2.77
413.628	2.66
413.834	2.43
414.04	2.58
414.246	2.58
414.452	2.61
414.658	2.66
414.864	2.64
415.07	2.58
415.275	2.64
415.481	2.65
415.687	2.63
415.893	2.8
416.099	2.95
416.305	2.73
416.511	2.76
416.716	2.69
416.922	2.69
417.128	2.83
417.334	2.84
417.539	2.64
417.745	2.65
417.951	2.63
418.157	2.58
418.362	2.52
418.568	2.64
418.774	2.67
418.979	2.74
419.185	2.79
419.391	2.74
419.596	2.68
419.802	2.77
420.008	2.78
420.213	3.43
420.419	3.49
420.624	3.53
420.83	3.52
421.035	3.51
421.241	3.54
421.446	3.46
421.652	3.42
421.857	3.5
422.063	3.52
422.268	3.53
422.474	2.87
422.679	2.81
422.885	2.82
423.09	2.78
423.295	2.77
423.501	2.81
423.706	2.88
423.911	2.85
424.117	2.79
424.322	2.8
424.527	2.79
424.733	2.7
424.938	2.67
425.143	2.6
425.349	2.59
425.554	2.53
425.759	2.51
425.964	2.38
426.169	2.42
426.375	2.46
426.58	2.44
426.785	2.55
426.99	2.54
427.195	2.59
427.4	2.58
427.605	2.55
427.811	2.55
428.016	2.42
428.221	2.4
428.426	2.48
428.631	2.45
428.836	2.55
429.041	2.41
429.246	2.45
429.451	2.44
429.656	2.45
429.861	2.47
430.066	2.48
430.271	2.54
430.476	2.54
430.681	2.45
430.886	2.47
431.09	2.46
431.295	2.47
431.5	2.53
431.705	2.45
431.91	2.46
432.115	2.47
432.32	2.56
432.524	2.51
432.729	2.53
432.934	2.48
433.139	2.44
433.343	2.43
433.548	2.39
433.753	2.45
433.958	2.53
434.162	2.57
434.367	2.69
434.572	2.65
434.776	2.64
434.981	2.7
435.186	2.81
435.39	2.8
435.595	2.82
435.799	2.97
436.004	2.86
436.209	2.81
436.413	2.71
436.618	2.6
436.822	2.59
437.027	2.69
437.231	2.71
437.436	2.73
437.64	2.75
437.845	2.71
438.049	2.62
438.253	2.55
438.458	2.62
438.662	2.74
438.867	2.78
439.071	2.82
439.275	2.76
439.48	2.66
439.684	2.64
439.888	2.63
440.093	2.6
440.297	2.57
440.501	2.69
440.706	2.63
440.91	2.57
441.114	2.54
441.318	2.47
441.523	2.38
441.727	2.44
441.931	2.34
442.135	2.37
442.339	2.45
442.543	2.48
442.748	2.47
442.952	2.49
443.156	2.5
443.36	2.44
443.564	2.48
443.768	2.52
443.972	2.48
444.176	2.58
444.38	2.58
444.584	2.53
444.788	2.53
444.992	2.5
445.196	2.53
445.4	2.56
445.604	2.65
445.808	2.64
446.012	2.56
446.216	2.56
446.42	2.52
446.624	2.5
446.828	2.48
447.032	2.41
447.235	2.47
447.439	2.4
447.643	2.27
447.847	2.31
448.051	2.24
448.254	2.32
448.458	2.28
448.662	2.22
448.866	2.14
449.069	2.12
449.273	2.21
449.477	2.08
449.681	2.16
449.884	2.33
450.088	2.19
450.292	2.12
450.495	2.26
450.699	2.4
450.902	2.43
451.106	2.52
451.31	2.6
451.513	2.56
451.717	2.62
451.92	2.6
452.124	2.54
452.327	2.48
452.531	2.69
452.734	2.54
452.938	2.52
453.141	2.47
453.345	2.44
453.548	2.36
453.752	2.28
453.955	2.41
454.158	2.26
454.362	2.35
454.565	2.44
454.769	2.39
454.972	2.43
455.175	2.42
455.379	2.47
455.582	2.39
455.785	2.47
455.988	2.6
456.192	2.48
456.395	2.53
456.598	2.49
456.801	2.51
457.005	2.48
457.208	2.49
457.411	2.42
457.614	2.42
457.817	2.45
458.021	2.38
458.224	2.34
458.427	2.33
458.63	2.4
458.833	2.28
459.036	2.27
459.239	2.28
459.442	2.28
459.645	2.25
459.848	2.25
460.051	2.24
460.254	2.24
460.457	2.25
460.66	2.26
460.863	2.1
461.066	2.19
461.269	2.22
461.472	2.09
461.675	2.12
461.878	2.24
462.081	2.28
462.284	2.29
462.486	2.42
462.689	2.36
462.892	2.36
463.095	2.39
463.298	2.42
463.5	2.28
463.703	2.4
463.906	2.28
464.109	2.23
464.311	2.22
464.514	2.29
464.717	2.19
464.92	2.28
465.122	2.31
465.325	2.42
465.528	2.37
465.73	2.42
465.933	2.38
466.135	2.46
466.338	2.47
466.541	2.34
466.743	2.32
466.946	2.41
467.148	2.4
467.351	2.42
467.553	2.38
467.756	2.37
467.958	2.41
468.161	2.4
468.363	2.46
468.566	2.4
468.768	2.57
468.971	2.57
469.173	2.6
469.375	2.56
469.578	2.55
469.78	2.59
469.983	2.58
470.185	2.57
470.387	2.58
470.59	2.58
470.792	2.67
470.994	2.57
471.196	2.6
471.399	2.46
471.601	2.37
471.803	2.37
472.005	2.43
472.208	2.44
472.41	2.38
472.612	2.39
472.814	2.43
473.016	2.46
473.218	2.39
473.421	2.38
473.623	2.39
473.825	2.46
474.027	2.4
474.229	2.4
474.431	2.44
474.633	2.55
474.835	2.58
475.037	2.52
475.239	2.46
475.441	2.57
475.643	2.6
475.845	2.52
476.047	2.49
476.249	2.5
476.451	2.41
476.653	2.4
476.855	2.33
477.057	2.25
477.258	2.22
477.46	2.22
477.662	2.22
477.864	2.09
478.066	2.29
478.268	2.36
478.469	2.36
478.671	2.3
478.873	2.4
479.075	2.34
479.276	2.33
479.478	2.36
479.68	2.38
479.882	2.4
480.083	2.47
480.285	2.42
480.487	2.41
480.688	2.44
480.89	2.46
481.091	2.42
481.293	2.45
481.495	2.49
481.696	2.45
481.898	2.44
482.099	2.47
482.301	2.47
482.502	2.47
482.704	2.44
482.905	2.44
483.107	2.46
483.308	2.45
483.51	2.47
483.711	2.48
483.913	2.53
484.114	2.54
484.315	2.53
484.517	2.54
484.718	2.55
484.92	2.57
485.121	2.56
485.322	2.54
485.524	2.51
485.725	2.5
485.926	2.48
486.127	2.46
486.329	2.44
486.53	2.43
486.731	2.41
486.932	2.39
487.134	2.39
487.335	2.4
487.536	2.44
487.737	2.47
487.938	2.46
488.139	2.48
488.341	2.49
488.542	2.54
488.743	2.52
488.944	2.55
489.145	2.53
489.346	2.56
489.547	2.56
489.748	2.5
489.949	2.47
490.15	2.45
490.351	2.46
490.552	2.44
490.753	2.43
490.954	2.42
491.155	2.37
491.356	2.38
491.557	2.37
491.758	2.34
491.959	2.46
492.159	2.51
492.36	2.48
492.561	2.42
492.762	2.43
492.963	2.48
493.164	2.51
493.364	2.56
493.565	2.59
493.766	2.53
493.967	2.53
494.167	2.5
494.368	2.47
494.569	2.53
494.769	2.54
494.97	2.57
495.171	2.55
495.371	2.52
495.572	2.53
495.773	2.59
495.973	2.61
496.174	2.67
496.375	2.66
496.575	2.66
496.776	2.66
496.976	2.65
497.177	2.7
497.377	2.61
497.578	2.68
497.778	2.63
497.979	2.64
498.179	2.72
498.38	2.69
498.58	2.7
498.78	2.72
498.981	2.74
499.181	2.69
499.382	2.65
499.582	2.63
499.782	2.63
499.983	2.7
500.183	2.62
500.383	2.59
500.584	2.53
500.784	2.5
500.984	2.48
501.184	2.5
501.385	2.67
501.585	2.69
501.785	2.69
501.985	2.63
502.185	2.57
502.386	2.59
502.586	2.56
502.786	2.64
502.986	2.65
503.186	2.68
503.386	2.69
503.586	2.64
503.786	2.66
503.987	2.74
504.187	2.72
504.387	2.86
504.587	2.89
504.787	2.91
504.987	2.87
505.187	2.92
505.387	2.86
505.587	2.94
505.786	2.86
505.986	2.75
506.186	2.86
506.386	2.92
506.586	2.93
506.786	2.95
506.986	2.98
507.186	3.05
507.386	3.03
507.585	3.13
507.785	3.12
507.985	3.19
508.185	3.28
508.384	3.23
508.584	3.22
508.784	3.2
508.984	3.17
509.183	3.12
509.383	3.06
509.583	3.05
509.782	3.05
509.982	3.06
510.182	3.03
510.381	3.02
510.581	3
510.781	3.06
510.98	3.03
511.18	3.05
511.379	3.06
511.579	3.1
511.778	3.08
511.978	3.05
512.177	3
512.377	3.11
512.576	3.12
512.776	3.13
512.975	3.1
513.175	3.11
513.374	3.12
513.573	3.27
513.773	3.27
513.972	3.26
514.172	3.29
514.371	3.36
514.57	3.36
514.77	3.33
514.969	3.38
515.168	3.37
515.367	3.36
515.567	3.39
515.766	3.4
515.965	3.44
516.164	3.46
516.364	3.41
516.563	3.39
516.762	3.34
516.961	3.4
517.16	3.38
517.359	3.46
517.559	3.51
517.758	3.49
517.957	3.49
518.156	3.46
518.355	3.53
518.554	3.65
518.753	3.67
518.952	3.73
519.151	3.72
519.35	3.75
519.549	3.68
519.748	3.63
519.947	3.69
520.146	3.61
520.345	3.65
520.544	3.61
520.743	3.58
520.942	3.53
521.141	3.46
521.339	3.45
521.538	3.49
521.737	3.51
521.936	3.6
522.135	3.57
522.333	3.62
522.532	3.58
522.731	3.63
522.93	3.61
523.129	3.7
523.327	3.75
523.526	3.86
523.725	3.85
523.923	3.84
524.122	3.89
524.321	3.91
524.519	3.95
524.718	4
524.917	3.93
525.115	3.98
525.314	3.96
525.512	3.96
525.711	3.93
525.909	3.98
526.108	4.04
526.306	4
526.505	4.02
526.703	4.01
526.902	4.02
527.1	4.07
527.299	4.05
527.497	4.03
527.696	4.02
527.894	4.02
528.092	4
528.291	4
528.489	4.01
528.688	4
528.886	4
529.084	4.02
529.283	4.01
529.481	4
529.679	4.07
529.877	4.12
530.076	4.16
530.274	4.17
530.472	4.22
530.67	4.27
530.869	4.25
531.067	4.25
531.265	4.28
531.463	4.31
531.661	4.35
531.859	4.32
532.057	4.36
532.255	4.39
532.454	4.4
532.652	4.39
532.85	4.35
533.048	4.42
533.246	4.49
533.444	4.49
533.642	4.47
533.84	4.49
534.038	4.49
534.236	4.44
534.434	4.44
534.632	4.49
534.83	4.51
535.027	4.57
535.225	4.56
535.423	4.56
535.621	4.62
535.819	4.63
536.017	4.65
536.215	4.68
536.412	4.8
536.61	4.78
536.808	4.75
537.006	4.78
537.203	4.76
537.401	4.8
537.599	4.8
537.797	4.79
537.994	4.89
538.192	4.95
538.39	5.03
538.587	4.99
538.785	5.06
538.983	5.13
539.18	5.15
539.378	5.13
539.575	5.14
539.773	5.14
539.97	5.12
540.168	5.12
540.366	5.12
540.563	5.15
540.761	5.15
540.958	5.15
541.155	5.13
541.353	5.15
541.55	5.2
541.748	5.21
541.945	5.18
542.143	5.26
542.34	5.3
542.537	5.32
542.735	5.36
542.932	5.39
543.129	5.44
543.327	5.5
543.524	5.56
543.721	5.58
543.919	5.65
544.116	5.79
544.313	5.72
544.51	5.71
544.708	5.73
544.905	5.78
545.102	5.9
545.299	5.94
545.496	5.93
545.693	5.93
545.891	6.01
546.088	6.08
546.285	6.13
546.482	6.27
546.679	6.4
546.876	6.46
547.073	6.44
547.27	6.44
547.467	6.45
547.664	6.52
547.861	6.53
548.058	6.54
548.255	6.47
548.452	6.45
548.649	6.49
548.846	6.44
549.043	6.48
549.24	6.51
549.437	6.54
549.633	6.58
549.83	6.74
550.027	6.78
550.224	6.82
550.421	6.9
550.618	6.99
550.814	7.09
551.011	7.18
551.208	7.22
551.405	7.25
551.601	7.32
551.798	7.31
551.995	7.29
552.191	7.26
552.388	7.35
552.585	7.46
552.781	7.51
552.978	7.46
553.175	7.48
553.371	7.51
553.568	7.59
553.764	7.61
553.961	7.68
554.157	7.72
554.354	7.77
554.55	7.77
554.747	7.76
554.943	7.77
555.14	7.8
555.336	7.74
555.533	7.8
555.729	7.9
555.926	7.98
556.122	8.16
556.318	8.1
556.515	8.32
556.711	8.29
556.907	8.34
557.104	8.36
557.3	8.38
557.496	8.59
557.693	8.73
557.889	8.85
558.085	8.75
558.281	8.77
558.478	8.97
558.674	9.05
558.87	9.21
559.066	9.3
559.262	9.26
559.459	9.41
559.655	9.52
559.851	9.6
560.047	9.5
560.243	9.52
560.439	9.53
560.635	9.56
560.831	9.55
561.027	9.72
561.223	9.83
561.419	9.97
561.615	9.94
561.811	9.97
562.007	9.93
562.203	9.96
562.399	10.24
562.595	10.32
562.791	10.5
562.987	10.54
563.183	10.5
563.379	10.53
563.575	10.6
563.771	10.71
563.966	10.67
564.162	10.75
564.358	10.88
564.554	10.92
564.75	10.91
564.945	10.91
565.141	10.95
565.337	11
565.533	11.04
565.728	11.17
565.924	11.25
566.12	11.37
566.315	11.36
566.511	11.41
566.707	11.38
566.902	11.55
567.098	11.54
567.293	11.64
567.489	11.68
567.684	11.81
567.88	11.74
568.076	11.77
568.271	11.76
568.467	11.83
568.662	12
568.858	12.1
569.053	12.11
569.248	12.24
569.444	12.34
569.639	12.46
569.835	12.4
570.03	12.42
570.225	12.48
570.421	12.52
570.616	12.65
570.812	12.58
571.007	12.63
571.202	12.63
571.397	12.67
571.593	12.65
571.788	12.64
571.983	12.75
572.178	12.91
572.374	12.96
572.569	13.08
572.764	13.07
572.959	13.09
573.154	13.1
573.35	13.21
573.545	13.2
573.74	13.19
573.935	13.24
574.13	13.35
574.325	13.37
574.52	13.37
574.715	13.3
574.91	13.4
575.105	13.44
575.3	13.65
575.495	13.71
575.69	13.89
575.885	14.09
576.08	14.11
576.275	14
576.47	14.02
576.665	14.01
576.86	14.13
577.055	14.13
577.25	14.18
577.444	13.93
577.639	13.96
577.834	13.91
578.029	13.79
578.224	13.8
578.418	13.93
578.613	13.95
578.808	14.03
579.003	14.1
579.197	14.22
579.392	14.23
579.587	14.5
579.781	14.49
579.976	14.42
580.171	14.6
580.365	14.73
580.56	14.74
580.755	14.85
580.949	15.02
581.144	15.15
581.338	15.14
581.533	15.32
581.727	15.26
581.922	15.31
582.116	15.38
582.311	15.38
582.505	15.36
582.7	15.41
582.894	15.44
583.089	15.26
583.283	15.16
583.478	15.28
583.672	15.19
583.866	15.14
584.061	15.35
584.255	15.41
584.449	15.41
584.644	15.5
584.838	15.48
585.032	15.45
585.226	15.75
585.421	15.74
585.615	15.71
585.809	15.77
586.003	15.96
586.198	15.88
586.392	16.04
586.586	16.11
586.78	16.19
586.974	16.28
587.168	16.24
587.363	16.18
587.557	16.22
587.751	16.3
587.945	16.28
588.139	16.39
588.333	16.39
588.527	16.29
588.721	16.3
588.915	16.32
589.109	16.44
589.303	16.59
589.497	16.51
589.691	16.66
589.885	16.66
590.079	16.73
590.273	16.66
590.466	16.63
590.66	16.65
590.854	16.62
591.048	16.62
591.242	16.51
591.436	16.44
591.629	16.59
591.823	16.5
592.017	16.54
592.211	16.68
592.404	16.88
592.598	17.09
592.792	17.3
592.986	17.54
593.179	17.44
593.373	17.51
593.567	17.59
593.76	17.56
593.954	17.65
594.147	17.63
594.341	17.62
594.535	17.62
594.728	17.55
594.922	17.52
595.115	17.41
595.309	17.59
595.502	17.57
595.696	17.59
595.889	17.64
596.083	17.6
596.276	17.52
596.47	17.42
596.663	17.41
596.856	17.44
597.05	17.47
597.243	17.51
597.437	17.31
597.63	17.44
597.823	17.51
598.017	17.54
598.21	17.67
598.403	17.9
598.596	18.05
598.79	17.91
598.983	17.88
599.176	17.61
599.369	17.67
599.563	17.86
599.756	17.86
599.949	17.96
600.142	18.09
600.335	18.2
600.528	18.13
600.722	18.23
600.915	18.4
601.108	18.32
601.301	18.46
601.494	18.48
601.687	18.38
601.88	18.25
602.073	18.25
602.266	18.12
602.459	17.98
602.652	18.03
602.845	17.96
603.038	17.95
603.231	18.05
603.424	18.02
603.617	17.99
603.809	17.98
604.002	18.03
604.195	17.93
604.388	18.04
604.581	18.16
604.774	18.24
604.966	18.16
605.159	18.22
605.352	18.2
605.545	18.44
605.737	18.57
605.93	18.85
606.123	18.9
606.316	19.05
606.508	19.13
606.701	19.02
606.894	18.94
607.086	19.16
607.279	19.12
607.471	19.29
607.664	19.17
607.857	19.14
608.049	19
608.242	19.03
608.434	18.95
608.627	18.98
608.819	18.94
609.012	18.96
609.204	18.84
609.397	18.87
609.589	18.68
609.782	18.65
609.974	18.47
610.166	18.62
610.359	18.57
610.551	18.68
610.743	18.64
610.936	18.65
611.128	18.65
611.32	18.7
611.513	18.63
611.705	18.78
611.897	18.63
612.09	18.83
612.282	18.64
612.474	18.77
612.666	18.77
612.858	18.72
613.051	18.93
613.243	18.95
613.435	18.99
613.627	19.04
613.819	19.04
614.011	19.26
614.203	19.16
614.395	19.49
614.588	19.56
614.78	19.53
614.972	19.48
615.164	19.48
615.356	19.58
615.548	19.66
615.74	19.78
615.932	19.76
616.124	19.72
616.315	19.9
616.507	19.74
616.699	19.56
616.891	19.46
617.083	19.37
617.275	19.29
617.467	19.28
617.659	19.28
617.85	19.3
618.042	19.19
618.234	19.4
618.426	19.29
618.618	19.44
618.809	19.38
619.001	19.46
619.193	19.54
619.384	19.54
619.576	19.52
619.768	19.47
619.959	19.22
620.151	19.44
620.343	19.3
620.534	19.17
620.726	18.93
620.917	19.24
621.109	19.25
621.301	19.38
621.492	19.25
621.684	19.25
621.875	19.24
622.067	19.48
622.258	19.3
622.45	19.36
622.641	19.5
622.832	19.51
623.024	19.33
623.215	19.41
623.407	19.28
623.598	19.38
623.789	19.41
623.981	19.59
624.172	19.62
624.363	19.58
624.555	19.52
624.746	19.51
624.937	19.53
625.129	19.62
625.32	19.66
625.511	19.67
625.702	19.75
625.893	19.79
626.085	19.67
626.276	19.59
626.467	19.73
626.658	19.72
626.849	19.68
627.04	19.69
627.231	19.55
627.422	19.47
627.614	19.57
627.805	19.48
627.996	19.58
628.187	19.49
628.378	19.52
628.569	19.49
628.76	19.54
628.951	19.61
629.142	19.63
629.332	19.75
629.523	19.83
629.714	20
629.905	20.2
630.096	20.21
630.287	20.34
630.478	20.35
630.669	20.42
630.859	20.41
631.05	20.54
631.241	20.65
631.432	20.59
631.623	20.62
631.813	20.41
632.004	20.43
632.195	20.36
632.385	20.38
632.576	20.39
632.767	20.39
632.957	20.47
633.148	20.42
633.339	20.37
633.529	20.48
633.72	20.35
633.91	20.42
634.101	20.33
634.292	20.21
634.482	20.3
634.673	20.35
634.863	20.26
635.054	20.25
635.244	20.2
635.435	20.32
635.625	20.26
635.815	20.35
636.006	20.47
636.196	20.32
636.387	20.5
636.577	20.41
636.767	20.34
636.958	20.5
637.148	20.49
637.338	20.41
637.529	20.3
637.719	20.44
637.909	20.48
638.099	20.64
638.29	20.94
638.48	20.9
638.67	20.89
638.86	21.06
639.05	21.06
639.241	21.09
639.431	21.36
639.621	21.4
639.811	21.32
640.001	21.23
640.191	20.83
640.381	20.59
640.571	20.4
640.761	20.35
640.951	20.35
641.141	20.39
641.331	20.25
641.521	20.1
641.711	20.28
641.901	20.24
642.091	20.23
642.281	20.3
642.471	20.39
642.661	20.55
642.851	20.45
643.041	20.28
643.231	20.11
643.42	20.06
643.61	20.04
643.8	20.04
643.99	20.11
644.18	20.21
644.369	20.15
644.559	20.23
644.749	20.11
644.939	20.21
645.128	20.21
645.318	20.16
645.508	20.23
645.697	20.29
645.887	19.98
646.076	19.97
646.266	19.9
646.456	20.06
646.645	19.93
646.835	20.2
647.024	20.27
647.214	20.36
647.403	20.47
647.593	20.57
647.782	20.65
647.972	20.9
648.161	20.8
648.351	20.93
648.54	20.74
648.73	20.83
648.919	20.71
649.108	20.64
649.298	20.51
649.487	20.51
649.677	20.38
649.866	20.45
650.055	20.48
650.244	20.59
650.434	20.44
650.623	20.66
650.812	20.57
651.002	20.62
651.191	20.69
651.38	20.69
651.569	20.9
651.758	21.14
651.947	21.1
652.137	21.04
652.326	20.94
652.515	21.11
652.704	20.88
652.893	21.04
653.082	21.13
653.271	21.25
653.46	21.43
653.649	21.42
653.838	21.64
654.027	21.55
654.216	21.35
654.405	21.56
654.594	21.71
654.783	21.81
654.972	21.69
655.161	21.38
655.35	21.14
655.539	21.3
655.728	21.16
655.916	21.02
656.105	21.08
656.294	21.25
656.483	21.32
656.672	21.07
656.86	21.16
657.049	21.16
657.238	21.24
657.427	21.22
657.615	21.2
657.804	21.18
657.993	21.12
658.181	21.12
658.37	21.07
658.559	20.94
658.747	21.13
658.936	21.28
659.125	21.38
659.313	21.52
659.502	21.77
659.69	21.7
659.879	21.89
660.067	21.83
660.256	21.8
660.444	21.82
660.633	22.02
660.821	21.84
661.01	22.04
661.198	22.11
661.387	21.9
661.575	21.68
661.763	21.75
661.952	21.68
662.14	21.61
662.328	21.52
662.517	21.72
662.705	21.64
662.893	21.58
663.082	21.47
663.27	21.04
663.458	21.17
663.646	21.35
663.834	21.21
664.023	21.19
664.211	21.15
664.399	21.3
664.587	21.07
664.775	20.9
664.963	20.99
665.152	20.86
665.34	21.27
665.528	21.34
665.716	21.64
665.904	21.42
666.092	21.63
666.28	21.93
666.468	21.95
666.656	22.04
666.844	22.37
667.032	22.49
667.22	22.24
667.408	22.41
667.596	22.22
667.784	21.9
667.971	22.22
668.159	22.1
668.347	21.95
668.535	22.15
668.723	22.16
668.911	21.83
669.098	21.8
669.286	21.79
669.474	21.5
669.662	21.53
669.849	21.71
670.037	21.7
670.225	21.8
670.413	21.83
670.6	21.64
670.788	21.73
670.976	21.88
671.163	21.82
671.351	22.03
671.538	21.82
671.726	21.88
671.913	21.75
672.101	21.7
672.289	21.48
672.476	21.45
672.664	21.4
672.851	21.29
673.039	21.28
673.226	21.26
673.413	21.28
673.601	21.65
673.788	21.69
673.976	21.65
674.163	21.63
674.35	21.57
674.538	22.03
674.725	22.03
674.912	21.93
675.1	22.03
675.287	22.22
675.474	22.24
675.662	22.35
675.849	22.39
676.036	22.5
676.223	22.58
676.411	22.65
676.598	22.05
676.785	21.98
676.972	21.8
677.159	21.7
677.346	21.54
677.533	21.56
677.721	21.34
677.908	21.71
678.095	21.81
678.282	21.66
678.469	21.92
678.656	22.15
678.843	22.16
679.03	22.49
679.217	22.56
679.404	22.75
679.591	22.57
679.778	22.36
679.964	22.23
680.151	21.95
680.338	21.74
680.525	21.45
680.712	21.47
680.899	21.59
681.086	21.54
681.272	21.42
681.459	21.16
681.646	21.29
681.833	21.49
682.02	21.45
682.206	21.62
682.393	21.67
682.58	21.56
682.766	21.51
682.953	21.53
683.14	21.39
683.326	21.5
683.513	21.52
683.7	21.53
683.886	21.62
684.073	21.49
684.259	21.65
684.446	22.22
684.632	22.42
684.819	22.62
685.005	22.65
685.192	22.76
685.378	22.4
685.565	22.43
685.751	22.64
685.938	22.84
686.124	23
686.31	22.69
686.497	22.56
686.683	22.54
686.87	22.42
687.056	22.26
687.242	22.4
687.429	22.48
687.615	22.48
687.801	22.16
687.987	22.05
688.174	21.72
688.36	21.92
688.546	21.66
688.732	21.7
688.918	21.54
689.105	21.64
689.291	21.72
689.477	22.01
689.663	22.28
689.849	22.25
690.035	22.44
690.221	22.63
690.407	22.73
690.593	23.08
690.779	23.16
690.965	23.1
691.151	23.17
691.337	22.84
691.523	22.59
691.709	22.67
691.895	22.73
692.081	22.22
692.267	22.09
692.453	22.05
692.639	21.74
692.825	21.63
693.011	22.09
693.196	21.92
693.382	22.05
693.568	22.3
693.754	22.03
693.94	22.15
694.125	22.57
694.311	22.63
694.497	22.85
694.682	23.34
694.868	23.32
695.054	22.98
695.239	23.43
695.425	23.6
695.611	23.46
695.796	23.28
695.982	23.19
696.168	22.96
696.353	22.86
696.539	22.67
696.724	22.28
696.91	22.05
697.095	22.32
697.281	22.11
697.466	22.1
697.652	22.19
697.837	22.38
698.023	22.49
698.208	22.61
698.393	22.67
698.579	22.56
698.764	22.86
698.949	23.27
699.135	23.32
699.32	23.54
699.505	23.67
699.691	23.84
699.876	23.77
700.061	23.66
700.246	23.6
700.432	23.58
700.617	23.86
700.802	23.86
700.987	23.66
701.172	23.3
701.358	22.93
701.543	22.37
701.728	22.55
701.913	22.97
702.098	23.07
702.283	23.23
702.468	23.1
702.653	22.75
702.838	22.32
703.023	22.42
703.208	22.57
703.393	22.59
703.578	22.89
703.763	22.25
703.948	21.86
704.133	21.81
704.318	21.58
704.503	22.09
704.688	22.16
704.873	22.22
705.057	22.32
705.242	22.29
705.427	22.16
705.612	22.33
705.797	22.54
705.981	22.42
706.166	22.51
706.351	22.7
706.536	22.51
706.72	22.6
706.905	22.55
707.09	22.53
707.274	22.09
707.459	22.28
707.644	22.39
707.828	22.66
708.013	22.64
708.197	22.64
708.382	22.75
708.567	22.86
708.751	22.79
708.936	22.66
709.12	22.55
709.305	22.89
709.489	22.9
709.673	22.63
709.858	22.3
710.042	22.37
710.227	22.1
710.411	21.94
710.596	22.12
710.78	22.43
710.964	22.82
711.149	22.75
711.333	22.71
711.517	22.84
711.702	22.82
711.886	22.97
712.07	23.15
712.254	23.06
712.438	23.31
712.623	23.31
712.807	23.15
712.991	23.23
713.175	23.16
713.359	23.62
713.544	23.69
713.728	23.53
713.912	23.44
714.096	23.48
714.28	23.55
714.464	23.45
714.648	23.03
714.832	22.94
715.016	22.8
715.2	22.98
715.384	22.5
715.568	22.44
715.752	22.81
715.936	22.49
716.12	22.34
716.304	22.68
716.488	22.71
716.671	22.59
716.855	22.68
717.039	22.38
717.223	22.16
717.407	22.39
717.59	22.57
717.774	22.43
717.958	23.01
718.142	22.96
718.325	22.88
718.509	22.89
718.693	23.37
718.877	23.21
719.06	23.41
719.244	23.44
719.428	23.17
719.611	22.8
719.795	22.68
719.978	22.8
720.162	22.86
720.345	22.72
720.529	22.6
720.713	22.58
720.896	22.3
721.08	22.54
721.263	22.63
721.446	22.76
721.63	22.82
721.813	22.52
721.997	22.3
722.18	22.18
722.364	21.98
722.547	21.87
722.73	21.65
722.914	21.87
723.097	21.37
723.28	21.7
723.464	21.58
723.647	21.72
723.83	21.87
724.013	21.65
724.197	21.56
724.38	21.77
724.563	21.88
724.746	22.05
724.929	22.29
725.112	22.67
725.296	21.92
725.479	22.02
725.662	22
725.845	22.08
726.028	22.18
726.211	22.29
726.394	22.75
726.577	22.38
726.76	22.37
726.943	22.12
727.126	22.04
727.309	22.64
727.492	22.91
727.675	22.71
727.858	23.16
728.041	23.36
728.224	23.54
728.407	23.18
728.589	23.31
728.772	23.12
728.955	23.4
729.138	23.47
729.321	23.28
729.503	23.11
729.686	23.33
729.869	23.14
730.052	22.64
730.234	22.72
730.417	22.73
730.6	22.93
730.782	23
730.965	22.76
731.148	22.41
731.33	22.22
731.513	22.1
731.695	22
731.878	22.26
732.061	23.04
732.243	22.5
732.426	22.63
732.608	22.58
732.791	22.77
732.973	23.07
733.156	23.16
733.338	23.77
733.52	23.89
733.703	23.5
733.885	22.88
734.068	22.62
734.25	23.04
734.432	22.73
734.615	22.8
734.797	22.47
734.979	22.16
735.162	22.76
735.344	22.25
735.526	22
735.708	22.17
735.891	22.73
736.073	22.65
736.255	22.75
736.437	22.9
736.619	23.28
736.802	23.39
736.984	23.59
737.166	23.06
737.348	23.44
737.53	24.14
737.712	24.14
737.894	23.98
738.076	23.6
738.258	23.72
738.44	23.79
738.622	23.51
738.804	23.55
738.986	23.38
739.168	23.32
739.35	23.03
739.532	22.66
739.714	22.68
739.896	22.72
740.078	23.11
740.259	23.18
740.441	23.12
740.623	23.1
740.805	22.55
740.987	22.1
741.168	22.85
741.35	23.3
741.532	22.9
741.714	23.23
741.895	22.95
742.077	22.6
742.259	22.53
742.44	22.8
742.622	22.69
742.804	22.96
742.985	23.55
743.167	23.68
743.348	23.5
743.53	24.05
743.711	24.33
743.893	24.82
744.075	24.99
744.256	24.57
744.438	24.84
744.619	24.24
744.8	24.75
744.982	24.62
745.163	24.03
745.345	23.41
745.526	22.98
745.707	23.11
745.889	22.37
746.07	22.54
746.252	22.68
746.433	22.14
746.614	22.76
746.795	22.71
746.977	23.12
747.158	22.74
747.339	23.26
747.52	23.04
747.702	22.87
747.883	23.89
748.064	24.04
748.245	24.49
748.426	23.95
748.607	24.07
748.788	23.84
748.97	22.88
749.151	22.92
749.332	22.61
749.513	23.66
749.694	23.37
749.875	23.07
750.056	23.43
750.237	22.68
750.418	23.06
750.599	23.35
750.78	23.15
750.96	23.61
751.141	23.88
751.322	23.88
751.503	23.44
751.684	23.3
751.865	22.69
752.046	22.4
752.226	23.18
752.407	23.35
752.588	22.79
752.769	23.63
752.949	23.82
753.13	23.58
753.311	23.85
753.492	23.63
753.672	23.19
753.853	23.58
754.034	23.42
754.214	22.34
754.395	21.89
754.575	21.92
754.756	21.14
754.937	20.91
755.117	21.17
755.298	20.99
755.478	21.09
755.659	21.43
755.839	21.25
756.02	20.9
756.2	21.87
756.381	22.71
756.561	23.05
756.741	23.33
756.922	24.02
757.102	23.65
757.283	23.83
757.463	23.78
757.643	23.92
757.823	23.95
758.004	23.85
758.184	23.34
758.364	22.85
758.545	22.74
758.725	22.71
758.905	21.96
759.085	22.86
759.265	23.62
759.446	23.01
759.626	23.41
759.806	23.44
759.986	23.89
760.166	24.54
760.346	24.65
760.526	24.85
760.706	24.94
760.886	25.2
761.066	24.8
761.246	23.93
761.426	24.01
761.606	24.03
761.786	23.95
761.966	24.07
762.146	23.81
762.326	24.14
762.506	24
762.686	23.89
762.866	23.78
763.046	23.34
763.225	23.55
763.405	23.43
763.585	23.19
763.765	23.36
763.945	22.91
764.124	22.59
764.304	22.13
764.484	22.14
764.664	21.79
764.843	21.71
765.023	20.9
765.203	20.51
765.382	21.26
765.562	21.35
765.741	20.85
765.921	21.31
766.101	21.25
766.28	21.22
766.46	21.1
766.639	21.37
766.819	21.83
766.998	23.1
767.178	23
767.357	22.74
767.537	22.67
767.716	22.94
767.896	22.52
768.075	22.77
768.254	22.83
768.434	22.77
768.613	23.33
768.792	23.1
768.972	23.06
769.151	23.79
769.33	23.44
769.51	22.99
769.689	22.96
769.868	23.53
770.047	23.71
770.226	23.5
770.406	23.2
770.585	22.82
770.764	22.67
770.943	22.9
771.122	23.13
771.301	23.67
771.48	24.25
771.66	24.62
771.839	24.09
772.018	24.19
772.197	24.81
772.376	25.51
772.555	25.82
772.734	26.2
772.913	25.96
773.092	25.53
773.271	24.43
773.449	24.15
773.628	24.53
773.807	23.69
773.986	23.78
774.165	22.71
774.344	21.66
774.523	20.93
774.701	20.44
774.88	20.92
775.059	19.67
775.238	20.56
775.417	20.63
775.595	20.27
775.774	21.22
775.953	21.23
776.131	22.26
776.31	23
776.489	23.67
776.667	23.37
776.846	23.57
777.025	24.52
777.203	24.22
777.382	24.32
777.56	23.49
777.739	23.4
777.917	23.58
778.096	23.38
778.274	23.31
778.453	22.31
778.631	23.14
778.81	22.54
778.988	22.7
779.166	23.15
779.345	22.14
779.523	22.21
779.702	22.43
779.88	22.09
780.058	21.96
780.237	21.19
780.415	22.48
780.593	22.19
780.771	23.28
780.95	23.88
781.128	23.92
781.306	24.92
781.484	25.88
781.662	26
781.841	25.96
782.019	25.53
782.197	25.02
782.375	24.7
782.553	24.61
782.731	24.05
782.909	22.83
783.087	22.16
783.265	22.98
783.443	22.4
783.621	22.49
783.799	22.71
783.977	24.1
784.155	26.02
784.333	25.38
784.511	25.69
784.689	25.86
784.867	25.81
785.045	26.67
785.223	25.38
785.4	25.99
785.578	25.46
785.756	24.81
785.934	24.57
786.112	24.41
786.289	25.63
786.467	25.05
786.645	24.82
786.823	25.15
787	25.2
787.178	25.33
787.356	25.13
787.533	25.42
787.711	25.7
787.889	25.01
788.066	24.93
788.244	25.01
788.421	25.25
788.599	25.06
788.776	24.75
788.954	24.79
789.131	25.48
789.309	25.5
789.486	24.32
789.664	24.59
789.841	23.77
790.019	23.1
790.196	22.5
790.373	22.29
790.551	21.69
790.728	22.56
790.906	22.1
791.083	21.86
791.26	21.6
791.437	22.67
791.615	22.56
791.792	23.83
791.969	24.57
792.146	24.84
792.324	24.72
792.501	25.09
792.678	24.32
792.855	24.66
793.032	24.51
793.209	24.11
793.387	25.08
793.564	24.83
793.741	24.42
793.918	23.66
794.095	23.4
794.272	23.46
794.449	23.89
794.626	24.51
794.803	23.51
794.98	23.77
795.157	23.88
795.334	23.44
795.511	23.76
795.688	24.11
795.864	24.37
796.041	23.82
796.218	24.2
796.395	24.41
796.572	24.02
796.749	24.59
796.925	24.24
797.102	24.73
797.279	24.87
797.456	24.32
797.632	24.68
797.809	24.66
797.986	25.02
798.162	25.08
798.339	25.5
798.516	26.24
798.692	26.2
798.869	26.29
799.046	25.17
799.222	25.12
799.399	25.87
799.575	25.97
799.752	25.47
799.928	25.21
800.105	25.36
800.281	24.81
800.458	24.76
800.634	25.03
800.811	25.91
800.987	26.62
801.163	26.53
801.34	25.41
801.516	25.72
801.692	26.47
801.869	26.65
802.045	26.69
802.221	26.9
802.398	25.77
802.574	25.17
802.75	23.39
802.926	22.99
803.103	21.79
803.279	22.21
803.455	21.47
803.631	21.05
803.807	20.8
803.983	20
804.16	19.06
804.336	19.71
804.512	19.6
804.688	20.67
804.864	21.79
805.04	21.96
805.216	22.32
805.392	22.6
805.568	22.46
805.744	22.36
805.92	22.88
806.096	22.59
806.272	22.29
806.448	23.31
806.623	21.98
806.799	20.95
806.975	21.67
807.151	21.2
807.327	21.39
807.503	22.49
807.678	23.19
807.854	23.56
808.03	24.27
808.206	24.36
808.381	23.93
808.557	24.8
808.733	26.79
808.908	25.85
809.084	27.61
809.26	27.55
809.435	27.62
809.611	26.78
809.787	26.51
809.962	27.05
810.138	27.76
810.313	27.91
810.489	27.13
810.664	25.29
810.84	25.88
811.015	25.27
811.191	24.2
811.366	24.47
811.542	25.01
811.717	25.29
811.892	24.69
812.068	23.68
812.243	23.28
812.419	24.3
812.594	24.66
812.769	25.55
812.944	24.76
813.12	25.62
813.295	25.55
813.47	25.84
813.645	24.92
813.821	24.66
813.996	25.79
814.171	25.63
814.346	26.62
814.521	26.98
814.697	26.37
814.872	26.5
815.047	26.44
815.222	25.07
815.397	24.94
815.572	25.33
815.747	26.66
815.922	25.75
816.097	25.68
816.272	24.51
816.447	23.58
816.622	24.88
816.797	24.81
816.972	23.36
817.147	24.62
817.322	24.57
817.496	25.38
817.671	23.95
817.846	24.05
818.021	24.31
818.196	25.33
818.371	26.67
818.545	25.55
818.72	25.09
818.895	25.42
819.069	25.35
819.244	25.95
819.419	25.96
819.594	26.08
819.768	27
819.943	27.3
820.117	26.41
820.292	26.36
820.467	26.44
820.641	26.67
820.816	26.74
820.99	26.04
821.165	25.46
821.339	24.74
821.514	24.48
821.688	24.44
821.863	24.31
822.037	24.06
822.212	23.84
822.386	23.71
822.56	23.66
822.735	23.58
822.909	23.72
823.084	24.13
823.258	24.34
823.432	24.43
823.606	24.07
823.781	23.95
823.955	24.17
824.129	23.95
824.303	23.88
824.478	23.73
824.652	23.71
824.826	23.88
825	23.63
825.174	23.81
825.348	23.96
825.523	23.73
825.697	23.84
825.871	23.99
826.045	24.24
826.219	24.33
826.393	24.34
826.567	24.72
826.741	24.37
826.915	24.01
827.089	23.81
827.263	24.06
827.437	24.42
827.611	24.24
827.784	24.28
827.958	24.11
828.132	24
828.306	24.21
828.48	24.01
828.654	24.32
828.827	24.35
829.001	24.48
829.175	23.77
829.349	23.72
829.522	23.44
829.696	22.88
829.87	22.75
830.044	22.66
830.217	21.78
830.391	21.31
830.565	20.58
830.738	20.67
830.912	21.27
831.085	21.28
831.259	22.05
831.432	22.93
831.606	23.55
831.779	24.17
831.953	25.34
832.126	26.92
832.3	26.89
832.473	27.07
832.647	27.11
832.82	26.5
832.994	26.97
833.167	26.55
833.34	26.87
833.514	26.73
833.687	26.37
833.86	25.61
834.034	24.94
834.207	25.16
834.38	25.36
834.553	25.19
834.727	24.95
834.9	24.82
835.073	25.13
835.246	24.48
835.419	24.82
835.593	24.44
835.766	24.48
835.939	24.55
836.112	24.4
836.285	24.69
836.458	25.13
836.631	25.38
836.804	26.05
836.977	26.64
837.15	27
837.323	26.17
837.496	26.88
837.669	29.05
837.842	28.79
838.015	28.12
838.188	27.03
838.361	26.17
838.533	27.32
838.706	26.42
838.879	25.35
839.052	24.41
839.225	25.99
839.398	27.7
839.57	26.78
839.743	27.39
839.916	26.1
840.088	25.99
840.261	26.58
840.434	27.4
840.607	27.22
840.779	26.36
840.952	26.05
841.124	24.62
841.297	23.3
841.47	23.96
841.642	23.02
841.815	25.98
841.987	26.53
842.16	26.97
842.332	25.67
842.505	26.29
842.677	26.97
842.85	29.68
843.022	30.21
843.194	32.46
843.367	29.69
843.539	29.32
843.712	29.29
843.884	29.08
844.056	27.63
844.229	27.03
844.401	25.91
844.573	23.95
844.745	21.65
844.918	23.56
845.09	19.93
845.262	21.93
845.434	20.4
845.606	16.58
845.779	19.12
845.951	21.27
846.123	21.18
846.295	23.12
846.467	26.38
846.639	28.68
846.811	24.33
846.983	28.18
847.155	24.66
847.327	28.68
847.499	27.94
847.671	23.6
847.843	18.13
848.015	17.95
848.187	14.51
848.359	13.3
848.531	10.22
848.703	13.05
848.875	8.53
849.047	10.5
849.218	7.82
849.39	12.91
849.562	15.35
849.734	20.39
849.905	21.9
850.077	22.68
850.249	20.7
850.421	25.27
850.592	24.68
850.764	24.61
850.936	24.04
851.107	22.57
851.279	21.01
851.451	22.23
851.622	18.55
851.794	13.2
851.965	16.47
852.137	20.27
852.308	20.6
852.48	22.71
852.651	28.71
852.823	29.74
852.994	32
853.166	28.97
853.337	29.71
853.509	31.49
853.68	33.95
853.851	33.18
854.023	29.89
854.194	30.27
854.365	29.09
854.537	24.23
854.708	26.59
854.879	26.03
855.05	31.01
855.222	28.73
855.393	28.64
855.564	30.72
855.735	31.04
855.906	35.88
856.078	28.03
856.249	31.29
856.42	29.95
856.591	27.05
856.762	27.09
856.933	28.31
857.104	29.96
857.275	28.22
857.446	27.66
857.617	26.64
857.788	26.37
857.959	27.5
858.13	24.43
858.301	28.64
858.472	26.05
858.643	26.05
858.814	22
858.985	20.56
859.155	25.28
859.326	26.25
859.497	28.39
859.668	19.6
859.839	19.73
860.009	17.75
860.18	15.02
860.351	19.39
860.522	17.79
860.692	16.83
860.863	19.21
861.034	14.58
861.204	14.12
861.375	15.93
861.546	23.48
861.716	27.75
861.887	27.24
862.057	27.78
862.228	25.36
862.398	23.28
862.569	24.55
862.739	25.49
862.91	27.4
863.08	24.68
863.251	21.55
863.421	15.62
863.592	13.26
863.762	15.34
863.932	12.06
864.103	14.77
864.273	22.18
864.443	25.75
864.614	24.58
864.784	26.28
864.954	26.55
865.125	28.49
865.295	33.22
865.465	37.03
865.635	34.09
865.805	40.12
865.976	41.17
866.146	41.56
866.316	40.62
866.486	41.42
866.656	43.19
866.826	42.74
866.996	39.97
867.166	35.64
867.336	32.52
867.506	31.93
867.676	21.92
867.846	13.72
868.016	10.08
868.186	9.56
868.356	1.86
868.526	-2.87
868.696	-5.75
868.866	-6.5
869.036	-1.02
869.206	-4.83
869.376	4.79
869.545	8.99
869.715	14.89
869.885	16.06
870.055	16.17
870.224	23.07
870.394	18.97
870.564	22.23
870.734	21.38
870.903	20.57
871.073	19.23
871.243	15.64
871.412	14.6
871.582	11.41
871.751	14.15
871.921	16.12
872.091	14.5
872.26	22.87
872.43	21.47
872.599	20.75
872.769	22.79
872.938	27.37
873.108	27.71
873.277	30.15
873.446	30.72
873.616	28.14
873.785	27.18
873.955	27.11
874.124	26.35
874.293	29.56
874.463	29.9
874.632	30.37
874.801	30.07
874.971	31.62
875.14	28.99
875.309	32.8
875.478	33.66
875.647	33.98
875.817	33.01
875.986	33.62
876.155	31.65
876.324	36.77
876.493	35.15
876.662	31.64
876.831	29.19
877	30.15
877.17	27.45
877.339	22.64
877.508	25.67
877.677	24.93
877.846	23.59
878.015	21.12
878.184	20.36
878.352	20.47
878.521	23.87
878.69	22.14
878.859	24.09
879.028	25.21
879.197	25.56
879.366	25.55
879.534	24.32
879.703	24.92
879.872	25.77
880.041	24.5
880.21	25.38
880.378	25.64
880.547	26.88
880.716	26.66
880.884	26.36
881.053	28.18
881.222	28.24
881.39	28.92
881.559	28.13
881.727	28.08
881.896	27.81
882.065	27.53
882.233	26.35
882.402	26.65
882.57	26.74
882.739	27.08
882.907	26.08
883.076	25.54
883.244	25.05
883.412	25.22
883.581	25.2
883.749	25.93
883.918	26.16
884.086	27.17
884.254	26.77
884.423	26.15
884.591	25.18
884.759	26.45
884.927	26.57
885.096	27.5
885.264	27.79
885.432	28.14
885.6	26.12
885.769	26.27
885.937	24.37
886.105	23.39
886.273	25.04
886.441	25.49
886.609	23.68
886.777	22.26
886.945	22.05
887.113	23.61
887.281	22.79
887.449	25.36
887.617	24.76
887.785	29.71
887.953	29.85
888.121	28.47
888.289	30.89
888.457	30.51
888.625	31.26
888.793	30.76
888.961	28.07
889.129	30.72
889.296	31.29
889.464	31.46
889.632	29.22
889.8	30.46
889.967	31.48
890.135	29.07
