Data from 2938479_Reflection_3.txt Node
Date: Wed Jun 17 01:18:58 EDT 2015
User: robert
Spectrometer: USB4E03002
Autoset integration time: false
Trigger mode: 4
Integration Time (sec): 1.000000E-1
Scans to average: 10
Electric dark correction enabled: true
Nonlinearity correction enabled: false
Boxcar width: 5
Stray light correction enabled: false
XAxis mode: Wavelengths
Stop averaging: false
Number of Pixels in Spectrum: 3648
>>>>>Begin Spectral Data<<<<<
177.575	-119.29
177.794	-177.31
178.014	-79.18
178.233	-40.4
178.452	-20.14
178.672	6.94
178.891	176.53
179.11	-108.94
179.33	-153.88
179.549	-191.53
179.768	-114.6
179.987	-74.25
180.207	-108.74
180.426	-17.47
180.645	20.26
180.864	13.01
181.084	44.43
181.303	82.59
181.522	64.16
181.741	77.53
181.96	108.59
182.179	99.73
182.398	113.42
182.618	157.35
182.837	1237.32
183.056	-12450
183.275	-28.55
183.494	48.93
183.713	52.7
183.932	58.34
184.151	84.37
184.37	124.91
184.589	90.7
184.808	96.22
185.027	140.76
185.246	92.11
185.465	114.93
185.684	249.8
185.903	-949.19
186.122	460.81
186.341	369.79
186.56	-332.14
186.779	2834.85
186.998	196.9
187.216	197.55
187.435	260.51
187.654	127.56
187.873	346.96
188.092	408.5
188.311	1620.43
188.53	187.08
188.748	652.84
188.967	868.04
189.186	-252.57
189.405	-304.58
189.623	-29.9
189.842	-153.31
190.061	31.63
190.28	119.3
190.498	99.42
190.717	120.48
190.936	-28.02
191.154	-41.21
191.373	-159.85
191.592	1257.96
191.81	1002.17
192.029	344.57
192.248	-923.17
192.466	-317.38
192.685	-46.75
192.904	-2.94
193.122	9.7
193.341	38.9
193.559	53.94
193.778	18.92
193.996	36.72
194.215	56.32
194.433	66.14
194.652	51.99
194.87	35.64
195.089	26.91
195.307	35.24
195.526	34.39
195.744	22.02
195.963	31.64
196.181	51.79
196.399	33.82
196.618	13.91
196.836	10.14
197.055	11.04
197.273	-83.89
197.491	-94.49
197.71	-66.66
197.928	-240.78
198.146	-68.4
198.365	-7557.89
198.583	-886.94
198.801	1903.28
199.019	-842.55
199.238	-378.26
199.456	-89.64
199.674	-23.71
199.892	-8.37
200.111	5.82
200.329	53.71
200.547	-22.47
200.765	14.47
200.983	56.22
201.202	87.43
201.42	205.43
201.638	143.56
201.856	41.43
202.074	-11.64
202.292	-29.84
202.51	14.69
202.728	16.04
202.946	-0.17
203.165	-2.73
203.383	-74.33
203.601	-82.82
203.819	-81.36
204.037	-290.1
204.255	-426.77
204.473	-3959.79
204.691	765.61
204.909	219.6
205.127	183.14
205.345	152.87
205.562	145.7
205.78	143.93
205.998	282.89
206.216	327.63
206.434	210.41
206.652	114.31
206.87	142.14
207.088	105.2
207.306	128.25
207.523	144.02
207.741	163.63
207.959	227.71
208.177	369.96
208.395	483.39
208.612	328.89
208.83	5958.49
209.048	-230
209.266	-99.3
209.483	-8
209.701	-84.37
209.919	-71.86
210.136	-80.88
210.354	2002.73
210.572	-209.08
210.79	149.02
211.007	164.85
211.225	195.35
211.442	215.58
211.66	42.4
211.878	24.24
212.095	1436.22
212.313	-517.84
212.53	-746.4
212.748	-444.12
212.966	-788.66
213.183	-1124.35
213.401	-3258.73
213.618	-1463.88
213.836	-766.77
214.053	-1070.97
214.271	-2420.82
214.488	-531.55
214.705	-473.53
214.923	-294.83
215.14	-275.72
215.358	-232.29
215.575	-233.37
215.793	-78.25
216.01	-92.44
216.227	-248.93
216.445	-234.17
216.662	-72.66
216.879	-68.61
217.097	-46.05
217.314	-3.93
217.531	-6.6
217.749	1.11
217.966	7.8
218.183	-15.16
218.4	-0.26
218.618	15.83
218.835	42.66
219.052	22.75
219.269	31.22
219.487	26.87
219.704	12.18
219.921	16.61
220.138	8.48
220.355	27.42
220.572	12.48
220.79	4.84
221.007	8.39
221.224	16.52
221.441	16.39
221.658	12.82
221.875	14.61
222.092	12.87
222.309	17.36
222.526	27.71
222.743	31.13
222.96	37.34
223.177	38.28
223.394	35.99
223.611	28.65
223.828	29.53
224.045	21.5
224.262	23.21
224.479	20.59
224.696	15.41
224.913	13.65
225.13	8.31
225.347	5.14
225.564	4.28
225.781	2.29
225.997	2.39
226.214	2.12
226.431	5.07
226.648	3.82
226.865	5.14
227.082	4.35
227.298	3.97
227.515	3.27
227.732	2.99
227.949	4.25
228.165	2.88
228.382	2.3
228.599	1.05
228.816	0.57
229.032	1.23
229.249	0.28
229.466	2.02
229.682	1.89
229.899	3.99
230.116	7.5
230.332	8.32
230.549	11.96
230.765	12.9
230.982	16.16
231.199	16.67
231.415	15.86
231.632	17.25
231.848	17.57
232.065	17.96
232.281	16.9
232.498	13.29
232.714	11.98
232.931	8.79
233.147	8.27
233.364	7.16
233.58	6.18
233.797	8.13
234.013	7.8
234.23	5.69
234.446	5.56
234.662	6.06
234.879	6.54
235.095	4.46
235.312	5.91
235.528	8.09
235.744	6.81
235.961	8.85
236.177	9.06
236.393	10.78
236.61	14.34
236.826	13.66
237.042	12.24
237.258	13.58
237.475	15.76
237.691	15.89
237.907	14.84
238.123	13.17
238.339	12.52
238.556	11.04
238.772	10.32
238.988	8.06
239.204	7.26
239.42	7.34
239.636	6.8
239.853	6.43
240.069	6.9
240.285	7.07
240.501	7.71
240.717	8.21
240.933	7.47
241.149	7.38
241.365	7.84
241.581	9.19
241.797	9.08
242.013	9.14
242.229	9.67
242.445	8.92
242.661	8.28
242.877	9.22
243.093	9.02
243.309	9.16
243.525	8.68
243.741	8.55
243.957	6.98
244.173	7.31
244.388	7.25
244.604	6.92
244.82	7.53
245.036	7.64
245.252	7.28
245.468	6.94
245.683	6.82
245.899	6.81
246.115	6.47
246.331	6.63
246.547	6.46
246.762	6.66
246.978	6.65
247.194	6.63
247.409	6.85
247.625	6.39
247.841	6.46
248.057	6.52
248.272	6.25
248.488	5.57
248.703	4.81
248.919	5.02
249.135	4.49
249.35	3.22
249.566	2.71
249.782	2.73
249.997	2.83
250.213	2.44
250.428	2.92
250.644	2.66
250.859	2.91
251.075	3.86
251.29	3.89
251.506	3.18
251.721	4.97
251.937	5.16
252.152	4.22
252.368	4.13
252.583	4.38
252.798	5.04
253.014	5.88
253.229	6.59
253.445	5.99
253.66	5.51
253.875	6.49
254.091	5.02
254.306	5.06
254.521	6.53
254.737	6.31
254.952	5.95
255.167	4.3
255.383	4.64
255.598	5.44
255.813	5.41
256.028	5.13
256.244	5.05
256.459	4.86
256.674	4.66
256.889	4.18
257.104	4.54
257.32	4.82
257.535	4.86
257.75	4.91
257.965	4.82
258.18	4.82
258.395	4.84
258.61	4.84
258.826	4.72
259.041	4.84
259.256	4.95
259.471	4.94
259.686	4.86
259.901	5.03
260.116	4.49
260.331	4.09
260.546	4.24
260.761	4.46
260.976	4.42
261.191	4.4
261.406	3.65
261.621	3.37
261.836	2.77
262.05	2.31
262.265	2.24
262.48	2.49
262.695	2.43
262.91	1.77
263.125	0.89
263.34	1.29
263.555	2
263.769	3.21
263.984	3.54
264.199	4.28
264.414	4.17
264.629	4.19
264.843	4.68
265.058	5.16
265.273	4.82
265.488	4.96
265.702	4.73
265.917	3.94
266.132	3.28
266.346	3.68
266.561	3.53
266.776	3.74
266.99	4.1
267.205	3.95
267.42	3.52
267.634	4.28
267.849	4.35
268.063	4.19
268.278	4.44
268.492	4.58
268.707	3.57
268.922	3.13
269.136	3
269.351	2.89
269.565	3.99
269.78	4.38
269.994	3.97
270.209	3.83
270.423	3.97
270.637	4.25
270.852	3.58
271.066	3.76
271.281	3.99
271.495	4.29
271.709	4.06
271.924	2.86
272.138	2.75
272.353	3.01
272.567	3.39
272.781	3.22
272.996	2.3
273.21	2.9
273.424	2.84
273.638	3
273.853	2.66
274.067	3.07
274.281	3.38
274.495	3.35
274.71	3.13
274.924	2.84
275.138	2.81
275.352	3.9
275.566	3.84
275.781	3.85
275.995	4.04
276.209	4.14
276.423	3.55
276.637	3.58
276.851	3.77
277.065	4
277.279	3.49
277.493	3.89
277.707	3.73
277.921	3.14
278.135	3.32
278.349	3.36
278.563	3.25
278.777	3.28
278.991	3
279.205	2.28
279.419	2.43
279.633	3.25
279.847	2.56
280.061	2.52
280.275	3.34
280.489	3.18
280.703	2.98
280.917	3.27
281.131	2.96
281.344	3.19
281.558	3.61
281.772	3.64
281.986	3.86
282.2	4.3
282.414	4.4
282.627	4.47
282.841	4.83
283.055	4.5
283.269	4.43
283.482	4.92
283.696	4.82
283.91	4.64
284.123	4.66
284.337	3.95
284.551	3.74
284.764	3.49
284.978	3
285.192	2.69
285.405	2.67
285.619	2.34
285.833	2.02
286.046	2.05
286.26	2.16
286.473	2.1
286.687	2.67
286.9	2.95
287.114	3.47
287.327	3.68
287.541	3.92
287.754	4.47
287.968	4.07
288.181	4.35
288.395	4.44
288.608	4.23
288.822	4.29
289.035	4.18
289.248	4.16
289.462	3.66
289.675	3.91
289.889	3.86
290.102	3.62
290.315	4.57
290.529	4.31
290.742	3.87
290.955	4.11
291.169	4.16
291.382	3.77
291.595	3.92
291.808	4.33
292.022	4.18
292.235	4.03
292.448	4.34
292.661	3.75
292.875	4.03
293.088	4.38
293.301	4.08
293.514	3.65
293.727	4.42
293.94	4.49
294.153	4.29
294.367	4.54
294.58	4.91
294.793	5.04
295.006	5.2
295.219	5.26
295.432	5.21
295.645	5.43
295.858	5.7
296.071	5.38
296.284	5.12
296.497	5.04
296.71	4.7
296.923	4.7
297.136	4.11
297.349	4.23
297.562	4
297.775	3.88
297.988	3.92
298.201	3.71
298.414	4.12
298.626	4.25
298.839	4.14
299.052	4.5
299.265	4.53
299.478	5.53
299.691	5.47
299.903	5.5
300.116	5.5
300.329	5.49
300.542	5.88
300.755	5.34
300.967	5.24
301.18	5.77
301.393	5.73
301.605	5.18
301.818	4.49
302.031	4.45
302.243	3.94
302.456	4.01
302.669	4.15
302.881	3.66
303.094	3.9
303.307	3.9
303.519	3.4
303.732	3.33
303.944	3.16
304.157	3.09
304.37	3.4
304.582	4
304.795	4.5
305.007	4.32
305.22	4.8
305.432	4.55
305.645	4.59
305.857	4.87
306.069	5.14
306.282	5.68
306.494	5.74
306.707	5.64
306.919	5.54
307.132	5.6
307.344	5.31
307.556	4.86
307.769	4.81
307.981	4.94
308.193	4.82
308.406	5.03
308.618	4.96
308.83	4.78
309.043	4.41
309.255	4.46
309.467	4.3
309.679	4.52
309.892	4.64
310.104	4.68
310.316	4.65
310.528	4.4
310.74	4.34
310.953	3.95
311.165	4.31
311.377	4.76
311.589	4.82
311.801	5.06
312.013	5.01
312.225	5.11
312.437	5.17
312.649	4.67
312.862	4.99
313.074	4.84
313.286	5.47
313.498	5.03
313.71	4.47
313.922	4.64
314.134	4.16
314.346	4.45
314.558	4.8
314.77	5.09
314.982	5.41
315.193	5.83
315.405	5.41
315.617	5.04
315.829	5.37
316.041	5.46
316.253	5.12
316.465	5.03
316.677	4.7
316.888	4.71
317.1	4.06
317.312	4.14
317.524	3.59
317.736	3.69
317.947	3.6
318.159	3.38
318.371	3.12
318.583	3.6
318.794	3.74
319.006	4.31
319.218	3.93
319.43	4.55
319.641	4.74
319.853	5.29
320.064	5.75
320.276	6.01
320.488	6.36
320.699	7.05
320.911	6.47
321.123	6.72
321.334	6.11
321.546	6.18
321.757	5.72
321.969	5.46
322.18	5.14
322.392	5
322.603	4.59
322.815	4.39
323.026	4.64
323.238	5.21
323.449	5.57
323.661	5.9
323.872	5.47
324.083	5.55
324.295	5.94
324.506	5.69
324.718	5.61
324.929	6.22
325.14	6.04
325.352	5.68
325.563	5.37
325.774	5.25
325.986	5.2
326.197	5.3
326.408	5.47
326.62	5.28
326.831	5.62
327.042	5.74
327.253	5.25
327.464	5.69
327.676	5.64
327.887	5.99
328.098	5.99
328.309	6.31
328.52	6.73
328.732	6.74
328.943	6.97
329.154	6.73
329.365	6.63
329.576	7.19
329.787	6.89
329.998	6.91
330.209	6.42
330.42	6.25
330.631	5.93
330.842	5.96
331.053	6.11
331.264	5.59
331.475	5.63
331.686	5.91
331.897	5.25
332.108	5.52
332.319	5.93
332.53	6.24
332.741	6.03
332.952	5.93
333.163	5.48
333.374	5.18
333.585	5.37
333.795	5.62
334.006	5.58
334.217	6
334.428	5.83
334.639	5.54
334.849	5.31
335.06	5.64
335.271	5.71
335.482	6.13
335.692	6.18
335.903	5.8
336.114	5.9
336.325	5.38
336.535	5.47
336.746	5.48
336.957	4.94
337.167	4.97
337.378	4.79
337.589	4.69
337.799	4.73
338.01	4.95
338.22	5.6
338.431	5.6
338.642	5.77
338.852	5.54
339.063	6.04
339.273	6.63
339.484	7.02
339.694	6.86
339.905	7.05
340.115	6.73
340.326	6.57
340.536	6.45
340.746	6.28
340.957	6.36
341.167	6.59
341.378	6.22
341.588	5.81
341.799	5.3
342.009	4.95
342.219	4.7
342.43	4.88
342.64	4.97
342.85	4.53
343.061	4.5
343.271	4.48
343.481	4.35
343.691	4.3
343.902	4.97
344.112	5.05
344.322	5.34
344.532	5.37
344.743	5.37
344.953	5.11
345.163	5.2
345.373	5.25
345.583	4.94
345.793	4.55
346.004	4.62
346.214	4.54
346.424	4.72
346.634	4.62
346.844	4.59
347.054	4.93
347.264	5.11
347.474	5.12
347.684	5.13
347.894	5.78
348.104	6.3
348.314	6.04
348.524	4.91
348.734	4.74
348.944	4.71
349.154	4.8
349.364	4.46
349.574	4.51
349.784	4.77
349.994	4.71
350.204	4.88
350.413	4.65
350.623	4.94
350.833	5.77
351.043	5.81
351.253	5.53
351.463	5.66
351.672	5.49
351.882	5.73
352.092	5.87
352.302	6.12
352.511	5.52
352.721	5.58
352.931	5.53
353.141	5.33
353.35	5.23
353.56	5.38
353.77	5.06
353.979	5.2
354.189	5.34
354.399	5.47
354.608	5.14
354.818	5.19
355.027	5.25
355.237	5.19
355.447	5.11
355.656	5.24
355.866	5.43
356.075	5.7
356.285	5.76
356.494	5.32
356.704	5.16
356.913	5.05
357.123	5.15
357.332	5.19
357.542	5.17
357.751	5.13
357.96	4.9
358.17	4.86
358.379	4.75
358.589	4.8
358.798	5.1
359.007	4.86
359.217	4.88
359.426	4.65
359.635	4.65
359.845	4.34
360.054	4.47
360.263	4.58
360.472	4.6
360.682	4.76
360.891	4.49
361.1	4.5
361.309	4.68
361.519	5.12
361.728	5.31
361.937	5.1
362.146	5.33
362.355	5.26
362.564	5.55
362.774	5.47
362.983	5.54
363.192	5.58
363.401	5.47
363.61	5.34
363.819	4.77
364.028	4.61
364.237	4.63
364.446	4.62
364.655	4.66
364.864	4.73
365.073	4.94
365.282	4.74
365.491	4.88
365.7	4.59
365.909	4.49
366.118	4.8
366.327	4.75
366.536	4.36
366.745	4.61
366.954	4.56
367.162	4.01
367.371	4.01
367.58	3.95
367.789	3.98
367.998	4.06
368.207	4.23
368.415	4
368.624	4.09
368.833	4.76
369.042	4.59
369.25	4.59
369.459	4.76
369.668	4.47
369.877	4.48
370.085	4.24
370.294	4.3
370.503	4.31
370.711	4.25
370.92	4.31
371.129	4.22
371.337	4.02
371.546	4.27
371.754	4.34
371.963	4.49
372.171	4.54
372.38	4.51
372.589	4.49
372.797	4.51
373.006	4.79
373.214	4.75
373.423	4.62
373.631	5.04
373.84	4.91
374.048	4.89
374.256	5
374.465	4.92
374.673	5.13
374.882	5.03
375.09	4.83
375.298	4.65
375.507	4.74
375.715	4.61
375.923	4.41
376.132	4.27
376.34	3.99
376.548	3.83
376.757	3.79
376.965	3.88
377.173	4.05
377.381	4.06
377.59	4.1
377.798	3.91
378.006	3.95
378.214	3.85
378.423	3.85
378.631	4.01
378.839	3.95
379.047	3.94
379.255	3.54
379.463	3.4
379.671	3.5
379.879	3.5
380.088	3.66
380.296	3.8
380.504	3.63
380.712	3.59
380.92	3.69
381.128	3.53
381.336	3.58
381.544	3.67
381.752	3.57
381.96	3.29
382.168	3.2
382.376	3.13
382.584	3.03
382.791	3.19
382.999	3.51
383.207	3.42
383.415	3.62
383.623	3.54
383.831	3.75
384.039	3.83
384.247	4.02
384.454	3.93
384.662	4.11
384.87	3.99
385.078	3.89
385.285	3.6
385.493	3.54
385.701	3.4
385.909	3.39
386.116	3.37
386.324	3.61
386.532	3.54
386.739	3.57
386.947	3.44
387.155	3.37
387.362	3.43
387.57	3.36
387.778	3.33
387.985	3.27
388.193	3.3
388.4	3.19
388.608	2.82
388.816	2.68
389.023	3.01
389.231	3.16
389.438	3.32
389.646	3.35
389.853	3.57
390.061	3.45
390.268	3.69
390.475	3.77
390.683	3.74
390.89	3.75
391.098	3.93
391.305	3.73
391.512	3.64
391.72	3.83
391.927	3.77
392.135	3.65
392.342	3.7
392.549	3.55
392.756	3.45
392.964	3.56
393.171	3.68
393.378	3.72
393.586	3.63
393.793	3.51
394	3.26
394.207	3.25
394.414	3.29
394.622	3.41
394.829	3.49
395.036	3.46
395.243	3.31
395.45	3.17
395.657	3.22
395.864	3.15
396.072	3.2
396.279	3.42
396.486	3.45
396.693	3.5
396.9	3.5
397.107	3.49
397.314	3.3
397.521	3.52
397.728	3.77
397.935	3.73
398.142	3.74
398.349	3.46
398.556	3.19
398.763	3.15
398.97	2.94
399.177	2.9
399.383	2.96
399.59	3.2
399.797	3.11
400.004	2.85
400.211	2.78
400.418	2.88
400.625	3.03
400.831	3.15
401.038	3.29
401.245	3.45
401.452	3.23
401.658	3.06
401.865	3.05
402.072	2.87
402.279	2.84
402.485	2.89
402.692	2.84
402.899	2.91
403.105	2.86
403.312	2.84
403.519	2.9
403.725	3.03
403.932	3.16
404.138	3.12
404.345	3.31
404.552	3.32
404.758	3.34
404.965	3.38
405.171	3.46
405.378	3.42
405.584	3.25
405.791	3.2
405.997	3.16
406.204	3.11
406.41	2.98
406.617	2.76
406.823	2.84
407.029	2.96
407.236	3
407.442	2.92
407.649	3.04
407.855	3.11
408.061	3.07
408.268	3.03
408.474	3.06
408.68	3.07
408.887	3.16
409.093	3.06
409.299	2.84
409.505	2.85
409.712	2.84
409.918	2.81
410.124	2.73
410.33	2.69
410.537	2.87
410.743	2.76
410.949	2.82
411.155	2.88
411.361	3.03
411.567	2.97
411.773	3.05
411.98	3.07
412.186	3.01
412.392	3.25
412.598	3.12
412.804	3.13
413.01	3.11
413.216	3.18
413.422	3.18
413.628	3.17
413.834	3.12
414.04	3.04
414.246	2.97
414.452	3.04
414.658	2.89
414.864	2.95
415.07	2.92
415.275	2.85
415.481	2.8
415.687	2.76
415.893	2.7
416.099	2.79
416.305	2.72
416.511	2.84
416.716	2.84
416.922	2.93
417.128	2.98
417.334	2.98
417.539	2.98
417.745	2.97
417.951	2.95
418.157	3
418.362	3
418.568	2.97
418.774	2.94
418.979	2.92
419.185	2.89
419.391	2.88
419.596	2.83
419.802	2.92
420.008	2.97
420.213	3.71
420.419	3.69
420.624	3.7
420.83	3.72
421.035	3.71
421.241	3.75
421.446	3.7
421.652	3.66
421.857	3.66
422.063	3.69
422.268	3.7
422.474	2.99
422.679	2.94
422.885	2.94
423.09	2.9
423.295	2.85
423.501	2.86
423.706	2.87
423.911	2.91
424.117	3.06
424.322	3
424.527	2.93
424.733	2.93
424.938	2.96
425.143	3.05
425.349	3.09
425.554	3.07
425.759	3.07
425.964	3.07
426.169	3.1
426.375	2.88
426.58	2.84
426.785	2.92
426.99	2.88
427.195	2.92
427.4	2.86
427.605	2.88
427.811	3.02
428.016	2.86
428.221	2.93
428.426	2.86
428.631	2.95
428.836	3.04
429.041	3.03
429.246	3.01
429.451	2.96
429.656	2.82
429.861	2.99
430.066	2.9
430.271	2.99
430.476	2.97
430.681	3.05
430.886	3.04
431.09	2.96
431.295	2.88
431.5	2.85
431.705	2.87
431.91	2.91
432.115	2.75
432.32	2.7
432.524	2.68
432.729	2.62
432.934	2.59
433.139	2.62
433.343	2.61
433.548	2.62
433.753	2.71
433.958	2.71
434.162	2.88
434.367	2.95
434.572	3.03
434.776	3.05
434.981	3.04
435.186	3.01
435.39	2.89
435.595	2.89
435.799	3
436.004	2.96
436.209	2.95
436.413	2.8
436.618	2.78
436.822	2.89
437.027	2.85
437.231	2.86
437.436	2.81
437.64	2.83
437.845	2.81
438.049	2.8
438.253	2.67
438.458	2.63
438.662	2.57
438.867	2.62
439.071	2.64
439.275	2.66
439.48	2.64
439.684	2.67
439.888	2.71
440.093	2.7
440.297	2.66
440.501	2.84
440.706	2.92
440.91	3
441.114	2.98
441.318	2.91
441.523	2.83
441.727	2.88
441.931	2.88
442.135	2.88
442.339	2.9
442.543	2.87
442.748	2.81
442.952	2.75
443.156	2.76
443.36	2.66
443.564	2.73
443.768	2.79
443.972	2.8
444.176	2.86
444.38	2.88
444.584	2.94
444.788	2.87
444.992	2.86
445.196	2.92
445.4	2.92
445.604	3.01
445.808	2.92
446.012	3
446.216	3.01
446.42	2.98
446.624	2.95
446.828	2.89
447.032	2.93
447.235	2.9
447.439	2.79
447.643	2.76
447.847	2.78
448.051	2.77
448.254	2.57
448.458	2.43
448.662	2.41
448.866	2.46
449.069	2.49
449.273	2.57
449.477	2.59
449.681	2.66
449.884	2.6
450.088	2.49
450.292	2.5
450.495	2.63
450.699	2.76
450.902	2.71
451.106	2.66
451.31	2.6
451.513	2.52
451.717	2.5
451.92	2.49
452.124	2.44
452.327	2.6
452.531	2.54
452.734	2.47
452.938	2.53
453.141	2.54
453.345	2.56
453.548	2.58
453.752	2.69
453.955	2.7
454.158	2.69
454.362	2.75
454.565	2.56
454.769	2.52
454.972	2.62
455.175	2.63
455.379	2.71
455.582	2.72
455.785	2.72
455.988	2.75
456.192	2.8
456.395	2.77
456.598	2.77
456.801	2.81
457.005	2.81
457.208	2.76
457.411	2.76
457.614	2.67
457.817	2.68
458.021	2.72
458.224	2.7
458.427	2.69
458.63	2.73
458.833	2.73
459.036	2.75
459.239	2.83
459.442	2.91
459.645	2.91
459.848	3.02
460.051	2.97
460.254	3.01
460.457	3.06
460.66	3.09
460.863	3.11
461.066	3.07
461.269	3.02
461.472	2.98
461.675	2.88
461.878	2.84
462.081	2.74
462.284	2.76
462.486	2.54
462.689	2.45
462.892	2.43
463.095	2.31
463.298	2.51
463.5	2.59
463.703	2.59
463.906	2.5
464.109	2.41
464.311	2.43
464.514	2.5
464.717	2.6
464.92	2.67
465.122	2.64
465.325	2.74
465.528	2.66
465.73	2.64
465.933	2.63
466.135	2.73
466.338	2.87
466.541	2.86
466.743	2.86
466.946	2.87
467.148	2.73
467.351	2.73
467.553	2.72
467.756	2.81
467.958	2.88
468.161	2.95
468.363	2.94
468.566	2.82
468.768	2.79
468.971	2.72
469.173	2.75
469.375	2.93
469.578	2.88
469.78	2.91
469.983	2.78
470.185	2.75
470.387	2.65
470.59	2.66
470.792	2.75
470.994	2.82
471.196	2.87
471.399	2.8
471.601	2.83
471.803	2.76
472.005	2.78
472.208	2.93
472.41	2.92
472.612	3.07
472.814	3.09
473.016	3.02
473.218	2.97
473.421	2.97
473.623	3.04
473.825	2.88
474.027	3
474.229	2.96
474.431	2.89
474.633	2.75
474.835	2.62
475.037	2.68
475.239	2.67
475.441	2.71
475.643	2.68
475.845	2.7
476.047	2.81
476.249	2.83
476.451	2.82
476.653	2.8
476.855	2.96
477.057	2.98
477.258	2.92
477.46	2.95
477.662	2.97
477.864	2.91
478.066	2.87
478.268	2.82
478.469	2.87
478.671	2.86
478.873	2.88
479.075	2.83
479.276	2.84
479.478	2.84
479.68	2.83
479.882	2.78
480.083	2.8
480.285	2.79
480.487	2.78
480.688	2.69
480.89	2.7
481.091	2.64
481.293	2.64
481.495	2.63
481.696	2.64
481.898	2.63
482.099	2.65
482.301	2.67
482.502	2.67
482.704	2.68
482.905	2.68
483.107	2.71
483.308	2.72
483.51	2.75
483.711	2.76
483.913	2.78
484.114	2.8
484.315	2.79
484.517	2.78
484.718	2.8
484.92	2.8
485.121	2.82
485.322	2.79
485.524	2.81
485.725	2.78
485.926	2.78
486.127	2.77
486.329	2.77
486.53	2.8
486.731	2.8
486.932	2.81
487.134	2.81
487.335	2.78
487.536	2.78
487.737	2.79
487.938	2.81
488.139	2.85
488.341	2.85
488.542	2.85
488.743	2.83
488.944	2.83
489.145	2.81
489.346	2.84
489.547	2.89
489.748	2.96
489.949	2.94
490.15	2.95
490.351	2.92
490.552	2.89
490.753	2.87
490.954	2.88
491.155	2.9
491.356	2.96
491.557	2.9
491.758	2.92
491.959	2.85
492.159	2.84
492.36	2.79
492.561	2.84
492.762	2.87
492.963	2.9
493.164	2.92
493.364	2.85
493.565	2.75
493.766	2.76
493.967	2.63
494.167	2.68
494.368	2.68
494.569	2.73
494.769	2.7
494.97	2.64
495.171	2.69
495.371	2.62
495.572	2.67
495.773	2.78
495.973	2.85
496.174	2.9
496.375	2.9
496.575	2.87
496.776	2.85
496.976	2.81
497.177	2.86
497.377	2.82
497.578	2.91
497.778	3.01
497.979	3.04
498.179	3.07
498.38	3.13
498.58	3.1
498.78	3.19
498.981	3.22
499.181	3.28
499.382	3.35
499.582	3.38
499.782	3.34
499.983	3.25
500.183	3.13
500.383	3.12
500.584	3.07
500.784	3.09
500.984	3.05
501.184	3.09
501.385	3.08
501.585	3.05
501.785	3.08
501.985	3.08
502.185	3.1
502.386	3.14
502.586	3.1
502.786	3.13
502.986	3.15
503.186	3.13
503.386	3.09
503.586	3.11
503.786	3.04
503.987	3.03
504.187	3.04
504.387	3.09
504.587	3.11
504.787	3.16
504.987	3.18
505.187	3.2
505.387	3.24
505.587	3.3
505.786	3.24
505.986	3.41
506.186	3.45
506.386	3.51
506.586	3.42
506.786	3.47
506.986	3.42
507.186	3.45
507.386	3.49
507.585	3.57
507.785	3.56
507.985	3.63
508.185	3.53
508.384	3.54
508.584	3.53
508.784	3.62
508.984	3.61
509.183	3.65
509.383	3.72
509.583	3.76
509.782	3.72
509.982	3.72
510.182	3.72
510.381	3.84
510.581	3.84
510.781	3.88
510.98	3.91
511.18	3.86
511.379	3.93
511.579	3.91
511.778	3.88
511.978	3.88
512.177	3.87
512.377	3.89
512.576	3.87
512.776	3.86
512.975	3.88
513.175	3.96
513.374	4.1
513.573	4.08
513.773	4.07
513.972	4.12
514.172	4.17
514.371	4.25
514.57	4.25
514.77	4.25
514.969	4.28
515.168	4.33
515.367	4.22
515.567	4.19
515.766	4.18
515.965	4.21
516.164	4.18
516.364	4.18
516.563	4.19
516.762	4.18
516.961	4.17
517.16	4.24
517.359	4.25
517.559	4.24
517.758	4.23
517.957	4.26
518.156	4.3
518.355	4.33
518.554	4.37
518.753	4.36
518.952	4.41
519.151	4.45
519.35	4.35
519.549	4.35
519.748	4.45
519.947	4.49
520.146	4.44
520.345	4.45
520.544	4.51
520.743	4.47
520.942	4.48
521.141	4.47
521.339	4.55
521.538	4.6
521.737	4.57
521.936	4.53
522.135	4.54
522.333	4.58
522.532	4.56
522.731	4.52
522.93	4.57
523.129	4.57
523.327	4.58
523.526	4.57
523.725	4.65
523.923	4.67
524.122	4.74
524.321	4.71
524.519	4.72
524.718	4.73
524.917	4.77
525.115	4.79
525.314	4.79
525.512	4.83
525.711	4.8
525.909	4.81
526.108	4.84
526.306	4.81
526.505	4.86
526.703	4.93
526.902	4.94
527.1	5
527.299	5
527.497	5.05
527.696	5.06
527.894	5.08
528.092	5.12
528.291	5.16
528.489	5.21
528.688	5.23
528.886	5.26
529.084	5.28
529.283	5.24
529.481	5.24
529.679	5.24
529.877	5.26
530.076	5.3
530.274	5.27
530.472	5.26
530.67	5.26
530.869	5.24
531.067	5.2
531.265	5.27
531.463	5.31
531.661	5.38
531.859	5.41
532.057	5.41
532.255	5.36
532.454	5.36
532.652	5.36
532.85	5.4
533.048	5.4
533.246	5.43
533.444	5.43
533.642	5.43
533.84	5.41
534.038	5.41
534.236	5.49
534.434	5.64
534.632	5.69
534.83	5.74
535.027	5.79
535.225	5.89
535.423	5.95
535.621	5.98
535.819	5.99
536.017	5.99
536.215	6.03
536.412	6.01
536.61	5.97
536.808	6.01
537.006	5.99
537.203	5.87
537.401	5.74
537.599	5.71
537.797	5.77
537.994	5.83
538.192	5.93
538.39	5.9
538.587	5.89
538.785	5.89
538.983	5.84
539.18	5.85
539.378	5.93
539.575	6.05
539.773	6.06
539.97	6.04
540.168	6.06
540.366	6.05
540.563	6.11
540.761	6.13
540.958	6.2
541.155	6.24
541.353	6.32
541.55	6.36
541.748	6.37
541.945	6.42
542.143	6.44
542.34	6.53
542.537	6.6
542.735	6.65
542.932	6.71
543.129	6.76
543.327	6.89
543.524	6.93
543.721	6.91
543.919	6.92
544.116	6.94
544.313	6.98
544.51	6.97
544.708	6.92
544.905	6.91
545.102	7
545.299	6.97
545.496	6.9
545.693	6.9
545.891	6.91
546.088	6.97
546.285	7.01
546.482	6.99
546.679	7.01
546.876	7
547.073	7.08
547.27	7.02
547.467	6.97
547.664	6.95
547.861	7.05
548.058	7.18
548.255	7.25
548.452	7.4
548.649	7.43
548.846	7.54
549.043	7.67
549.24	7.63
549.437	7.73
549.633	7.9
549.83	7.98
550.027	7.97
550.224	8.02
550.421	7.97
550.618	7.88
550.814	8.1
551.011	8.04
551.208	8.08
551.405	8.16
551.601	8.2
551.798	8.21
551.995	8.29
552.191	8.38
552.388	8.43
552.585	8.39
552.781	8.41
552.978	8.38
553.175	8.37
553.371	8.33
553.568	8.34
553.764	8.39
553.961	8.49
554.157	8.53
554.354	8.56
554.55	8.54
554.747	8.72
554.943	8.9
555.14	8.93
555.336	8.95
555.533	9.02
555.729	9.1
555.926	8.93
556.122	8.87
556.318	8.85
556.515	8.88
556.711	9.04
556.907	9.11
557.104	9.08
557.3	9.11
557.496	9.16
557.693	9.32
557.889	9.38
558.085	9.66
558.281	9.73
558.478	9.78
558.674	9.91
558.87	9.94
559.066	10.06
559.262	10.12
559.459	10.24
559.655	10.48
559.851	10.57
560.047	10.62
560.243	10.58
560.439	10.7
560.635	10.82
560.831	10.67
561.027	10.63
561.223	10.61
561.419	10.65
561.615	10.63
561.811	10.58
562.007	10.6
562.203	10.69
562.399	10.81
562.595	10.85
562.791	10.95
562.987	11.08
563.183	11.12
563.379	11.24
563.575	11.31
563.771	11.41
563.966	11.55
564.162	11.69
564.358	11.66
564.554	11.78
564.75	11.87
564.945	11.93
565.141	12
565.337	12.17
565.533	12.15
565.728	12.17
565.924	12.18
566.12	12.21
566.315	12.17
566.511	12.26
566.707	12.29
566.902	12.36
567.098	12.38
567.293	12.39
567.489	12.42
567.684	12.51
567.88	12.56
568.076	12.59
568.271	12.68
568.467	12.7
568.662	12.92
568.858	13.03
569.053	13.01
569.248	13.1
569.444	13.2
569.639	13.31
569.835	13.29
570.03	13.46
570.225	13.67
570.421	13.77
570.616	13.89
570.812	13.89
571.007	13.87
571.202	14.05
571.397	14.06
571.593	14.16
571.788	14.13
571.983	14.28
572.178	14.3
572.374	14.31
572.569	14.33
572.764	14.42
572.959	14.41
573.154	14.46
573.35	14.48
573.545	14.68
573.74	14.67
573.935	14.79
574.13	14.75
574.325	14.76
574.52	14.83
574.715	14.84
574.91	14.93
575.105	15.03
575.3	15.03
575.495	15.04
575.69	14.94
575.885	15.02
576.08	15.12
576.275	15.27
576.47	15.41
576.665	15.41
576.86	15.47
577.055	15.44
577.25	15.46
577.444	15.62
577.639	15.71
577.834	15.75
578.029	15.81
578.224	15.73
578.418	15.72
578.613	15.74
578.808	15.78
579.003	15.72
579.197	15.82
579.392	15.89
579.587	15.89
579.781	15.88
579.976	15.92
580.171	15.98
580.365	16.02
580.56	16.17
580.755	16.14
580.949	16.24
581.144	16.41
581.338	16.33
581.533	16.34
581.727	16.58
581.922	16.65
582.116	16.68
582.311	16.77
582.505	16.98
582.7	16.98
582.894	17.14
583.089	17.18
583.283	17.1
583.478	17.15
583.672	17.16
583.866	16.98
584.061	17.03
584.255	17.19
584.449	17.15
584.644	17.02
584.838	17.07
585.032	17.07
585.226	17.05
585.421	17.15
585.615	17.28
585.809	17.34
586.003	17.47
586.198	17.49
586.392	17.51
586.586	17.57
586.78	17.71
586.974	17.7
587.168	17.76
587.363	17.92
587.557	18.06
587.751	18.02
587.945	18.12
588.139	18.17
588.333	18.33
588.527	18.39
588.721	18.44
588.915	18.53
589.109	18.52
589.303	18.51
589.497	18.55
589.691	18.45
589.885	18.67
590.079	18.51
590.273	18.66
590.466	18.57
590.66	18.6
590.854	18.56
591.048	18.48
591.242	18.57
591.436	18.7
591.629	18.68
591.823	18.84
592.017	18.61
592.211	18.74
592.404	18.7
592.598	18.74
592.792	18.75
592.986	18.74
593.179	18.82
593.373	18.84
593.567	18.83
593.76	18.82
593.954	18.82
594.147	18.9
594.341	19.05
594.535	19.22
594.728	19.26
594.922	19.31
595.115	19.44
595.309	19.44
595.502	19.5
595.696	19.53
595.889	19.67
596.083	19.67
596.276	19.74
596.47	19.76
596.663	19.63
596.856	19.58
597.05	19.59
597.243	19.62
597.437	19.66
597.63	19.64
597.823	19.54
598.017	19.48
598.21	19.6
598.403	19.64
598.596	19.68
598.79	19.69
598.983	19.82
599.176	19.81
599.369	19.67
599.563	19.74
599.756	19.85
599.949	19.96
600.142	19.95
600.335	19.89
600.528	19.85
600.722	19.75
600.915	19.81
601.108	19.92
601.301	20.02
601.494	20.12
601.687	20.19
601.88	20.31
602.073	20.31
602.266	20.36
602.459	20.29
602.652	20.33
602.845	20.4
603.038	20.29
603.231	20.32
603.424	20.45
603.617	20.56
603.809	20.46
604.002	20.4
604.195	20.46
604.388	20.46
604.581	20.55
604.774	20.54
604.966	20.62
605.159	20.74
605.352	20.8
605.545	20.69
605.737	20.68
605.93	20.82
606.123	20.76
606.316	20.74
606.508	20.64
606.701	20.86
606.894	21.04
607.086	20.95
607.279	20.91
607.471	20.8
607.664	20.78
607.857	20.81
608.049	20.78
608.242	20.88
608.434	20.93
608.627	21.14
608.819	21.01
609.012	20.86
609.204	20.82
609.397	20.88
609.589	20.91
609.782	21.04
609.974	21.13
610.166	20.99
610.359	21.1
610.551	21.08
610.743	21.14
610.936	21.23
611.128	21.38
611.32	21.51
611.513	21.66
611.705	21.73
611.897	21.69
612.09	21.65
612.282	21.87
612.474	21.68
612.666	21.74
612.858	21.62
613.051	21.7
613.243	21.86
613.435	21.88
613.627	21.85
613.819	21.79
614.011	21.93
614.203	21.85
614.395	21.83
614.588	21.91
614.78	22.02
614.972	21.98
615.164	21.97
615.356	21.8
615.548	21.91
615.74	21.93
615.932	21.91
616.124	21.88
616.315	21.99
616.507	22.04
616.699	22.12
616.891	22.06
617.083	22.18
617.275	22.15
617.467	22.2
617.659	22.19
617.85	22.16
618.042	22.21
618.234	22.27
618.426	22.31
618.618	22.28
618.809	22.2
619.001	22.19
619.193	22.04
619.384	21.95
619.576	21.69
619.768	21.63
619.959	21.62
620.151	21.72
620.343	21.5
620.534	21.36
620.726	21.49
620.917	21.77
621.109	21.74
621.301	21.84
621.492	21.82
621.684	22.11
621.875	22.03
622.067	22.15
622.258	22.16
622.45	22.32
622.641	22.36
622.832	22.53
623.024	22.39
623.215	22.54
623.407	22.67
623.598	22.84
623.789	23
623.981	23.05
624.172	23.02
624.363	22.86
624.555	22.8
624.746	22.88
624.937	22.63
625.129	22.51
625.32	22.43
625.511	22.41
625.702	22.44
625.893	22.22
626.085	22.29
626.276	22.22
626.467	22.26
626.658	22.45
626.849	22.32
627.04	22.43
627.231	22.51
627.422	22.48
627.614	22.39
627.805	22.29
627.996	22.38
628.187	22.4
628.378	22.42
628.569	22.58
628.76	22.46
628.951	22.54
629.142	22.33
629.332	22.26
629.523	22.58
629.714	22.62
629.905	22.66
630.096	22.73
630.287	22.71
630.478	22.86
630.669	22.78
630.859	22.75
631.05	22.86
631.241	23.05
631.432	23.08
631.623	22.84
631.813	22.85
632.004	22.84
632.195	22.94
632.385	22.95
632.576	22.81
632.767	22.83
632.957	22.85
633.148	23
633.339	23.08
633.529	23.14
633.72	23.25
633.91	23.25
634.101	23.39
634.292	23.24
634.482	23.33
634.673	23.39
634.863	23.5
635.054	23.5
635.244	23.39
635.435	23.28
635.625	23.2
635.815	23.22
636.006	23.12
636.196	22.97
636.387	23.13
636.577	23.02
636.767	23.11
636.958	23.13
637.148	22.98
637.338	22.96
637.529	22.92
637.719	23.15
637.909	23.09
638.099	23.3
638.29	23.31
638.48	23.2
638.67	23.16
638.86	23.09
639.05	23.04
639.241	23.22
639.431	23.25
639.621	23.36
639.811	23.2
640.001	23.29
640.191	23.32
640.381	23.43
640.571	23.63
640.761	23.82
640.951	23.77
641.141	23.71
641.331	23.59
641.521	23.6
641.711	23.59
641.901	23.55
642.091	23.46
642.281	23.18
642.471	23.08
642.661	23.04
642.851	23.03
643.041	23.13
643.231	23.26
643.42	23.48
643.61	23.41
643.8	23.39
643.99	23.48
644.18	23.56
644.369	23.79
644.559	23.75
644.749	23.58
644.939	23.43
645.128	23.29
645.318	23.25
645.508	23.12
645.697	23.42
645.887	23.41
646.076	23.43
646.266	23.44
646.456	23.5
646.645	23.53
646.835	23.67
647.024	23.75
647.214	24.12
647.403	24.3
647.593	24.28
647.782	24.03
647.972	24.09
648.161	24.2
648.351	24
648.54	24.01
648.73	24.01
648.919	24.1
649.108	23.93
649.298	23.8
649.487	23.73
649.677	24.07
649.866	24.17
650.055	24.32
650.244	24.28
650.434	24.48
650.623	24.51
650.812	24.52
651.002	24.42
651.191	24.57
651.38	24.58
651.569	24.59
651.758	24.35
651.947	24.24
652.137	24.18
652.326	24.25
652.515	24.21
652.704	24.16
652.893	24.49
653.082	24.42
653.271	24.61
653.46	24.45
653.649	24.34
653.838	24.67
654.027	24.76
654.216	24.74
654.405	24.55
654.594	24.62
654.783	24.74
654.972	24.5
655.161	24.76
655.35	24.62
655.539	24.96
655.728	25.01
655.916	24.69
656.105	24.65
656.294	24.62
656.483	24.54
656.672	24.69
656.86	24.53
657.049	24.58
657.238	24.38
657.427	24.48
657.615	24.23
657.804	24.31
657.993	24.34
658.181	24.46
658.37	24.57
658.559	24.76
658.747	24.61
658.936	24.61
659.125	24.21
659.313	24.22
659.502	24.17
659.69	24.24
659.879	24.25
660.067	24.25
660.256	24.16
660.444	24.09
660.633	24.18
660.821	24.15
661.01	24.44
661.198	24.84
661.387	24.92
661.575	24.88
661.763	24.75
661.952	24.6
662.14	24.6
662.328	24.62
662.517	24.57
662.705	24.16
662.893	24.1
663.082	23.97
663.27	24.12
663.458	24.17
663.646	24.05
663.834	24.48
664.023	24.85
664.211	24.85
664.399	24.88
664.587	24.91
664.775	25.34
664.963	25.62
665.152	25.6
665.34	25.6
665.528	25.51
665.716	25.83
665.904	25.48
666.092	25.13
666.28	25.02
666.468	25.08
666.656	25.41
666.844	25.42
667.032	25.34
667.22	25.21
667.408	25.28
667.596	25.23
667.784	25.04
667.971	25.2
668.159	25.3
668.347	25.37
668.535	25.48
668.723	25.09
668.911	25.08
669.098	25.17
669.286	25.25
669.474	24.96
669.662	25.32
669.849	25.57
670.037	25.22
670.225	24.99
670.413	25.12
670.6	25.18
670.788	25.45
670.976	25.45
671.163	25.27
671.351	25.19
671.538	25.65
671.726	25.52
671.913	25.59
672.101	26.12
672.289	26.26
672.476	26.36
672.664	26.39
672.851	26.28
673.039	26.09
673.226	26.3
673.413	26.41
673.601	26.19
673.788	26.42
673.976	26.25
674.163	26.11
674.35	26.12
674.538	25.99
674.725	25.76
674.912	25.93
675.1	26.19
675.287	26.2
675.474	26.15
675.662	26.03
675.849	25.71
676.036	25.71
676.223	26.08
676.411	26.17
676.598	26.4
676.785	26.33
676.972	26.09
677.159	25.9
677.346	25.88
677.533	26.18
677.721	26.16
677.908	26.16
678.095	26.04
678.282	25.81
678.469	25.91
678.656	25.7
678.843	25.71
679.03	25.88
679.217	26.1
679.404	26.04
679.591	25.7
679.778	25.81
679.964	25.87
680.151	25.88
680.338	25.76
680.525	25.52
680.712	25.73
680.899	25.8
681.086	25.76
681.272	25.61
681.459	25.72
681.646	25.79
681.833	25.98
682.02	26
682.206	26.2
682.393	26.14
682.58	26.32
682.766	26.03
682.953	26.41
683.14	26.34
683.326	26.63
683.513	26.56
683.7	26.76
683.886	26.72
684.073	26.88
684.259	26.74
684.446	26.75
684.632	26.71
684.819	26.82
685.005	26.4
685.192	26.41
685.378	26.19
685.565	26.19
685.751	26.04
685.938	25.85
686.124	25.44
686.31	25.24
686.497	25.49
686.683	25.59
686.87	25.66
687.056	25.85
687.242	25.85
687.429	25.8
687.615	25.57
687.801	25.37
687.987	25.55
688.174	25.87
688.36	26.03
688.546	26.3
688.732	26.12
688.918	26.17
689.105	25.97
689.291	26.06
689.477	26.07
689.663	26.56
689.849	26.93
690.035	27.07
690.221	27.03
690.407	27.29
690.593	26.83
690.779	26.9
690.965	26.84
691.151	26.96
691.337	26.98
691.523	26.86
691.709	26.66
691.895	26.41
692.081	25.9
692.267	26.08
692.453	25.85
692.639	25.7
692.825	25.69
693.011	25.9
693.196	25.87
693.382	25.89
693.568	26.13
693.754	26.07
693.94	26.12
694.125	26.45
694.311	26.43
694.497	26.61
694.682	26.88
694.868	27.09
695.054	26.94
695.239	26.68
695.425	26.87
695.611	26.67
695.796	26.76
695.982	26.84
696.168	26.85
696.353	26.71
696.539	26.45
696.724	26.5
696.91	26.37
697.095	26.49
697.281	26.83
697.466	26.69
697.652	26.88
697.837	26.83
698.023	26.82
698.208	26.78
698.393	26.75
698.579	27.1
698.764	26.91
698.949	26.99
699.135	26.99
699.32	27.01
699.505	27.12
699.691	27.02
699.876	27.18
700.061	27.22
700.246	27.24
700.432	27.32
700.617	27.05
700.802	27.48
700.987	27.31
701.172	27.17
701.358	26.83
701.543	26.59
701.728	26.74
701.913	26.86
702.098	26.87
702.283	26.71
702.468	26.61
702.653	26.82
702.838	26.42
703.023	26.23
703.208	26.12
703.393	26.12
703.578	26.35
703.763	26.28
703.948	26.2
704.133	25.86
704.318	26.24
704.503	26.06
704.688	25.83
704.873	25.98
705.057	26.32
705.242	26.77
705.427	27
705.612	26.82
705.797	26.99
705.981	26.88
706.166	27.21
706.351	27.13
706.536	27.48
706.72	27.6
706.905	27.49
707.09	27.86
707.274	27.66
707.459	27.72
707.644	27.49
707.828	27.35
708.013	26.99
708.197	26.77
708.382	26.63
708.567	26.6
708.751	26.69
708.936	26.98
709.12	26.34
709.305	25.96
709.489	25.99
709.673	26.33
709.858	26.12
710.042	26.42
710.227	26.78
710.411	27.19
710.596	26.9
710.78	26.75
710.964	26.77
711.149	27.13
711.333	27.54
711.517	27.53
711.702	27.28
711.886	27.17
712.07	27.09
712.254	27.23
712.438	26.91
712.623	27.29
712.807	27.44
712.991	27.1
713.175	27.15
713.359	26.96
713.544	26.68
713.728	27.06
713.912	27.38
714.096	27.25
714.28	26.94
714.464	26.68
714.648	26.62
714.832	26.78
715.016	27.04
715.2	26.85
715.384	27.16
715.568	26.98
715.752	26.94
715.936	27.11
716.12	27.05
716.304	27.25
716.488	27.5
716.671	27.45
716.855	27.01
717.039	27.09
717.223	27.16
717.407	26.76
717.59	26.84
717.774	26.55
717.958	26.59
718.142	26.93
718.325	26.79
718.509	26.59
718.693	26.8
718.877	26.68
719.06	26.44
719.244	26.63
719.428	26.85
719.611	27.26
719.795	27.43
719.978	27.13
720.162	27.19
720.345	27.79
720.529	28.21
720.713	28.28
720.896	28.73
721.08	28.65
721.263	28.33
721.446	28.15
721.63	28.21
721.813	28.11
721.997	28.12
722.18	28.24
722.364	27.94
722.547	27.51
722.73	27.09
722.914	26.53
723.097	26.23
723.28	26.27
723.464	26.5
723.647	26.65
723.83	26.82
724.013	26.82
724.197	26.67
724.38	26.26
724.563	26.5
724.746	26.65
724.929	26.71
725.112	27.17
725.296	27.13
725.479	27.01
725.662	27.06
725.845	26.61
726.028	26.82
726.211	26.81
726.394	27.19
726.577	27.22
726.76	27.14
726.943	27.58
727.126	27.37
727.309	27.52
727.492	27.49
727.675	27.51
727.858	27.93
728.041	27.71
728.224	27.73
728.407	27.39
728.589	27.42
728.772	27.34
728.955	27.29
729.138	27.57
729.321	27.43
729.503	27.75
729.686	27.74
729.869	27.9
730.052	27.38
730.234	27.45
730.417	27.95
730.6	27.97
730.782	28.24
730.965	28.31
731.148	27.96
731.33	28.1
731.513	28.07
731.695	27.41
731.878	27.32
732.061	27.89
732.243	27.71
732.426	27.89
732.608	27.93
732.791	28.06
732.973	28.02
733.156	28.27
733.338	28.68
733.52	28.41
733.703	28.67
733.885	28.35
734.068	28.09
734.25	28.09
734.432	27.59
734.615	27.76
734.797	27.65
734.979	27.52
735.162	27.52
735.344	27.39
735.526	27.75
735.708	28.14
735.891	28.7
736.073	28.56
736.255	28.29
736.437	28.2
736.619	28.29
736.802	28.24
736.984	28.49
737.166	28.32
737.348	27.66
737.53	26.91
737.712	26.31
737.894	25.76
738.076	26.39
738.258	26.79
738.44	26.38
738.622	26.13
738.804	25.88
738.986	25.5
739.168	25.94
739.35	25.99
739.532	26.19
739.714	26.15
739.896	26.28
740.078	26.2
740.259	26.06
740.441	26.5
740.623	26.75
740.805	26.48
740.987	26.97
741.168	26.83
741.35	27.16
741.532	27.77
741.714	28.14
741.895	28.07
742.077	28.14
742.259	28.18
742.44	27.91
742.622	27.78
742.804	28.41
742.985	28.33
743.167	28.15
743.348	28.42
743.53	27.74
743.711	27.48
743.893	27.34
744.075	26.42
744.256	26.48
744.438	27.07
744.619	26.61
744.8	26.66
744.982	25.76
745.163	26.37
745.345	26.37
745.526	26.63
745.707	26.7
745.889	27.17
746.07	27.74
746.252	27.99
746.433	28.57
746.614	28.89
746.795	28.27
746.977	28.87
747.158	28.25
747.339	27.74
747.52	27.84
747.702	28.33
747.883	27.92
748.064	27.95
748.245	28.23
748.426	27.91
748.607	27.8
748.788	27.97
748.97	28.19
749.151	27.96
749.332	27.89
749.513	27.47
749.694	27.65
749.875	27.57
750.056	27.66
750.237	26.78
750.418	25.42
750.599	24.64
750.78	24.58
750.96	24.56
751.141	25.04
751.322	25.49
751.503	25.9
751.684	25.49
751.865	26.25
752.046	26.11
752.226	26.51
752.407	26.72
752.588	27.38
752.769	27.64
752.949	27.17
753.13	26.83
753.311	26.61
753.492	26.67
753.672	26.51
753.853	26.56
754.034	26.43
754.214	26.43
754.395	26.88
754.575	26.68
754.756	26.68
754.937	27.07
755.117	27.27
755.298	27.86
755.478	27.04
755.659	27.53
755.839	26.75
756.02	26.6
756.2	26.36
756.381	26.23
756.561	26.5
756.741	26.37
756.922	27.18
757.102	26.97
757.283	25.98
757.463	26.03
757.643	25.92
757.823	26.77
758.004	27.16
758.184	27.3
758.364	27.4
758.545	27.31
758.725	27.43
758.905	26.95
759.085	27.47
759.265	27.72
759.446	28.76
759.626	28.84
759.806	28.44
759.986	28.81
760.166	28.55
760.346	28.55
760.526	28.3
760.706	28.33
760.886	27.87
761.066	27.95
761.246	28.15
761.426	27.33
761.606	27.06
761.786	26.59
761.966	25.97
762.146	26.17
762.326	26.49
762.506	26.83
762.686	26.79
762.866	27.3
763.046	26.8
763.225	26.76
763.405	27.38
763.585	27.36
763.765	27.8
763.945	28.13
764.124	28.34
764.304	28.25
764.484	28.53
764.664	28.13
764.843	27.91
765.023	28.29
765.203	28.43
765.382	28.14
765.562	27.98
765.741	27.85
765.921	27.66
766.101	27.32
766.28	27.37
766.46	27.33
766.639	27.95
766.819	27.78
766.998	28.35
767.178	28.08
767.357	28.35
767.537	29.04
767.716	28.64
767.896	28.58
768.075	28.64
768.254	28.21
768.434	27.98
768.613	27.39
768.792	27.1
768.972	25.88
769.151	25.81
769.33	25.16
769.51	24.4
769.689	24.55
769.868	25.07
770.047	24.98
770.226	25.54
770.406	24.51
770.585	24.74
770.764	25.08
770.943	25.53
771.122	25.41
771.301	25.67
771.48	25.62
771.66	26.2
771.839	26.25
772.018	26.62
772.197	26.08
772.376	27.75
772.555	28.14
772.734	27.74
772.913	27.37
773.092	27.95
773.271	28.31
773.449	28.85
773.628	28.75
773.807	27.25
773.986	26.48
774.165	27.03
774.344	26.44
774.523	26.22
774.701	25.64
774.88	25.86
775.059	25.64
775.238	24.95
775.417	25.08
775.595	25.2
775.774	25.65
775.953	26.17
776.131	25.9
776.31	24.97
776.489	25.35
776.667	26.52
776.846	27.16
777.025	27.14
777.203	26.78
777.382	26.76
777.56	26.14
777.739	27.05
777.917	27.41
778.096	27.91
778.274	28.19
778.453	28.03
778.631	27.78
778.81	26.69
778.988	26.67
779.166	27.37
779.345	27.14
779.523	26.94
779.702	26.1
779.88	25.98
780.058	25.8
780.237	25.22
780.415	25.6
780.593	24.96
780.771	25.84
780.95	26.1
781.128	26.35
781.306	26.61
781.484	26.86
781.662	28.6
781.841	28.52
782.019	28.68
782.197	29.52
782.375	28.93
782.553	29.65
782.731	29.65
782.909	29.45
783.087	29.06
783.265	27.8
783.443	28
783.621	27.31
783.799	26.95
783.977	25.71
784.155	25.47
784.333	25.69
784.511	25.58
784.689	25.37
784.867	25.74
785.045	25.77
785.223	26.4
785.4	26.83
785.578	25.89
785.756	25.93
785.934	25.38
786.112	25.57
786.289	25.11
786.467	24.96
786.645	24.6
786.823	24.1
787	24.03
787.178	24.45
787.356	24.76
787.533	25.22
787.711	25.83
787.889	26.43
788.066	26.62
788.244	26.84
788.421	27
788.599	27.63
788.776	28.07
788.954	28.3
789.131	29.18
789.309	28.48
789.486	29.05
789.664	28.32
789.841	28.78
790.019	28.27
790.196	28.17
790.373	28.35
790.551	28.31
790.728	28.99
790.906	29.86
791.083	29.13
791.26	29.03
791.437	27.67
791.615	27.39
791.792	27.44
791.969	27.88
792.146	27.92
792.324	28.17
792.501	27.94
792.678	26.72
792.855	26.55
793.032	27.23
793.209	26.59
793.387	27.34
793.564	28.52
793.741	28.67
793.918	29.08
794.095	29.82
794.272	29.62
794.449	29.64
794.626	29.37
794.803	28.68
794.98	27.21
795.157	28.42
795.334	27.94
795.511	27.15
795.688	27.96
795.864	27.84
796.041	27.56
796.218	27.27
796.395	27.12
796.572	27.09
796.749	26.21
796.925	27
797.102	26.99
797.279	26.51
797.456	26.64
797.632	25.6
797.809	25.75
797.986	25.33
798.162	25.14
798.339	24.92
798.516	25.42
798.692	27.38
798.869	26.9
799.046	26.66
799.222	28.05
799.399	27.71
799.575	28.11
799.752	28.08
799.928	28.87
800.105	29.29
800.281	29.31
800.458	28.81
800.634	26.76
800.811	26.6
800.987	27.21
801.163	26.73
801.34	26.14
801.516	25.81
801.692	25.84
801.869	24.7
802.045	25.12
802.221	26.51
802.398	26.93
802.574	27.41
802.75	27.03
802.926	26.72
803.103	26.55
803.279	27.93
803.455	28.55
803.631	28.7
803.807	29.3
803.983	29.07
804.16	28.3
804.336	27.14
804.512	27.35
804.688	29.24
804.864	28.37
805.04	28.59
805.216	29.19
805.392	28.82
805.568	27.98
805.744	27.97
805.92	27.79
806.096	28.03
806.272	30.08
806.448	30.07
806.623	29.95
806.799	29.87
806.975	29.72
807.151	28.9
807.327	27.28
807.503	27.02
807.678	28.13
807.854	27.37
808.03	26.53
808.206	26.71
808.381	26.76
808.557	26.13
808.733	27.27
808.908	27.69
809.084	27.19
809.26	28.59
809.435	29.04
809.611	27.55
809.787	27.91
809.962	28.51
810.138	27.93
810.313	27.84
810.489	26.29
810.664	25.39
810.84	24.79
811.015	26.41
811.191	25.83
811.366	26.55
811.542	26.77
811.717	26.18
811.892	26.44
812.068	26.15
812.243	25.23
812.419	27.2
812.594	27.43
812.769	28.45
812.944	27.52
813.12	28.51
813.295	29.16
813.47	29.84
813.645	29.93
813.821	28.66
813.996	29.07
814.171	29.37
814.346	28.67
814.521	28.19
814.697	27.15
814.872	26.88
815.047	25.25
815.222	23.86
815.397	23.06
815.572	23.51
815.747	23.91
815.922	24.5
816.097	25.53
816.272	26.3
816.447	26.39
816.622	26.45
816.797	26.63
816.972	27.66
817.147	28.04
817.322	28.09
817.496	29.44
817.671	30.4
817.846	29.22
818.021	29.48
818.196	29.52
818.371	30.37
818.545	30.53
818.72	29.89
818.895	29.62
819.069	29.37
819.244	29.43
819.419	28.37
819.594	26.9
819.768	26.7
819.943	27.03
820.117	26.95
820.292	26.55
820.467	26.69
820.641	27.42
820.816	27.61
820.99	27.63
821.165	27.68
821.339	27.61
821.514	28
821.688	28.39
821.863	28.18
822.037	28.09
822.212	28.15
822.386	28.14
822.56	27.81
822.735	27.85
822.909	27.67
823.084	27.91
823.258	28.05
823.432	28.24
823.606	27.68
823.781	27.68
823.955	27.74
824.129	27.72
824.303	27.68
824.478	27.94
824.652	27.58
824.826	28
825	27.52
825.174	27.37
825.348	27.43
825.523	27.79
825.697	27.45
825.871	27.12
826.045	26.66
826.219	26.68
826.393	26.73
826.567	27.09
826.741	27.12
826.915	26.95
827.089	26.64
827.263	26.14
827.437	26.69
827.611	27.17
827.784	27.34
827.958	27.99
828.132	28.16
828.306	28.15
828.48	28.32
828.654	28.21
828.827	28.69
829.001	29.41
829.175	29.59
829.349	28.69
829.522	28.29
829.696	28.52
829.87	28.26
830.044	27.7
830.217	27.64
830.391	28.18
830.565	28.29
830.738	28.92
830.912	28.79
831.085	28.4
831.259	28.86
831.432	28.47
831.606	28.93
831.779	28.47
831.953	28.45
832.126	27.47
832.3	25.96
832.473	25.83
832.647	25.48
832.82	24.65
832.994	24.9
833.167	25.16
833.34	25.98
833.514	25.36
833.687	25.62
833.86	26.17
834.034	26.6
834.207	26.6
834.38	26.01
834.553	25.19
834.727	25.7
834.9	25.5
835.073	25.21
835.246	25.15
835.419	25.87
835.593	26.43
835.766	26.11
835.939	26.06
836.112	26.11
836.285	27.6
836.458	29.4
836.631	29.5
836.804	29.85
836.977	30.03
837.15	29.31
837.323	28.1
837.496	27.04
837.669	26.18
837.842	26.45
838.015	28.12
838.188	27.74
838.361	26.82
838.533	27.75
838.706	27.1
838.879	27.04
839.052	28.17
839.225	27.16
839.398	27.86
839.57	30.21
839.743	30.51
839.916	28.98
840.088	29.28
840.261	27.98
840.434	27.18
840.607	27.41
840.779	27.86
840.952	26.24
841.124	27.71
841.297	27.52
841.47	26.34
841.642	27.09
841.815	28.69
841.987	26.17
842.16	26.51
842.332	27.29
842.505	27.16
842.677	26.71
842.85	26.59
843.022	29.08
843.194	28.92
843.367	29.42
843.539	27.83
843.712	27.68
843.884	29.17
844.056	29.56
844.229	29.11
844.401	32.81
844.573	29.76
844.745	34.49
844.918	30.66
845.09	27.82
845.262	24.18
845.434	23.97
845.606	23.06
845.779	24.49
845.951	23.97
846.123	21.75
846.295	17
846.467	19.23
846.639	16.27
846.811	15.26
846.983	16.37
847.155	19.45
847.327	21.31
847.499	20.97
847.671	19.61
847.843	21.12
848.015	21.12
848.187	22.93
848.359	23.02
848.531	23.8
848.703	24.53
848.875	26.84
849.047	25.8
849.218	23.79
849.39	24.44
849.562	24.19
849.734	24.37
849.905	25.27
850.077	23.32
850.249	22.17
850.421	20.43
850.592	18.27
850.764	18.35
850.936	21.17
851.107	18.63
851.279	18.59
851.451	18.35
851.622	12.36
851.794	13.64
851.965	18.91
852.137	21.97
852.308	25.41
852.48	28.96
852.651	31.01
852.823	29.31
852.994	31.29
853.166	26.26
853.337	31.08
853.509	36.59
853.68	39.56
853.851	35.87
854.023	36.26
854.194	30.86
854.365	30.84
854.537	26.71
854.708	25.81
854.879	26.27
855.05	29.29
855.222	25.79
855.393	22.75
855.564	20.16
855.735	22.64
855.906	19.46
856.078	19.35
856.249	16.14
856.42	13.28
856.591	16.45
856.762	15.32
856.933	14.13
857.104	9.94
857.275	12.27
857.446	11.42
857.617	9.33
857.788	14.08
857.959	17.87
858.13	19.09
858.301	25.68
858.472	21.12
858.643	23.08
858.814	25.06
858.985	28.43
859.155	32.89
859.326	33.72
859.497	32.41
859.668	31.11
859.839	31.5
860.009	29.27
860.18	24.32
860.351	26.96
860.522	23.73
860.692	23.14
860.863	24.69
861.034	20.42
861.204	19.83
861.375	23.03
861.546	24.39
861.716	27.04
861.887	33.26
862.057	33.71
862.228	32.88
862.398	35.31
862.569	37.51
862.739	33.57
862.91	34.09
863.08	34.47
863.251	34.63
863.421	33
863.592	33.01
863.762	30.35
863.932	35.03
864.103	34.44
864.273	30.06
864.443	30.1
864.614	31.7
864.784	28.89
864.954	30.04
865.125	29.3
865.295	29.07
865.465	25.45
865.635	26.73
865.805	22.8
865.976	24.81
866.146	30.92
866.316	25.65
866.486	25.9
866.656	30.67
866.826	30.46
866.996	30.02
867.166	30.61
867.336	30.98
867.506	27.52
867.676	29.79
867.846	28.53
868.016	25.27
868.186	27.13
868.356	28.67
868.526	22.57
868.696	20.15
868.866	21.05
869.036	17.06
869.206	13.57
869.376	14.11
869.545	13.46
869.715	14.36
869.885	17.16
870.055	16.96
870.224	14.15
870.394	12.52
870.564	13.1
870.734	17.24
870.903	21.88
871.073	25.01
871.243	28.37
871.412	29.3
871.582	31.7
871.751	28.65
871.921	28.57
872.091	27.9
872.26	29.6
872.43	31.4
872.599	29.22
872.769	26.49
872.938	28.66
873.108	27.26
873.277	25.21
873.446	22.75
873.616	24.63
873.785	26.56
873.955	28.93
874.124	32.98
874.293	31.97
874.463	30.78
874.632	30.35
874.801	26.3
874.971	29.16
875.14	27.5
875.309	26.4
875.478	27.45
875.647	26.5
875.817	25.77
875.986	22.62
876.155	21.79
876.324	21.36
876.493	21.72
876.662	23.54
876.831	22.82
877	27.37
877.17	26.62
877.339	24.77
877.508	23.8
877.677	23.6
877.846	25.43
878.015	26.68
878.184	29.07
878.352	29.68
878.521	30.73
878.69	30.13
878.859	29.71
879.028	30.95
879.197	31.12
879.366	32.4
879.534	30.86
879.703	33.94
879.872	32.97
880.041	30.14
880.21	30.55
880.378	30.04
880.547	29.77
880.716	27.73
880.884	27.8
881.053	27.56
881.222	28.63
881.39	29.05
881.559	27.82
881.727	28.74
881.896	29.34
882.065	30.1
882.233	30.49
882.402	30.58
882.57	31.46
882.739	31.83
882.907	32.09
883.076	31.03
883.244	31.22
883.412	30.56
883.581	30.05
883.749	29.99
883.918	29.14
884.086	28.72
884.254	28.21
884.423	28.29
884.591	28.92
884.759	29.26
884.927	30.11
885.096	30.16
885.264	31.92
885.432	30.2
885.6	30.99
885.769	31.88
885.937	31.74
886.105	31.13
886.273	30.04
886.441	27.34
886.609	27.15
886.777	24.85
886.945	24.14
887.113	24.52
887.281	26.89
887.449	24.38
887.617	21.99
887.785	20.88
887.953	22.4
888.121	23.3
888.289	24.7
888.457	24.68
888.625	28.19
888.793	28.91
888.961	26.81
889.129	29.3
889.296	28.46
889.464	30.13
889.632	30.92
889.8	30.79
889.967	30.3
890.135	29.66
