Data from 2938493_Reflection_2.txt Node
Date: Wed Jun 17 00:41:43 EDT 2015
User: robert
Spectrometer: USB4E03002
Autoset integration time: false
Trigger mode: 4
Integration Time (sec): 1.000000E-1
Scans to average: 10
Electric dark correction enabled: true
Nonlinearity correction enabled: false
Boxcar width: 5
Stray light correction enabled: false
XAxis mode: Wavelengths
Stop averaging: false
Number of Pixels in Spectrum: 3648
>>>>>Begin Spectral Data<<<<<
177.575	218.17
177.794	787.58
178.014	-491.7
178.233	-211.52
178.452	-179.7
178.672	663.41
178.891	156.9
179.11	421.57
179.33	104.39
179.549	6142.11
179.768	55.47
179.987	111.07
180.207	268.77
180.426	187.15
180.645	148.83
180.864	140.46
181.084	61.94
181.303	99.83
181.522	84.7
181.741	130.01
181.96	199.53
182.179	417.49
182.398	754.85
182.618	238.24
182.837	315.19
183.056	338.04
183.275	346.96
183.494	657.27
183.713	244.1
183.932	-35526.32
184.151	-1972.92
184.37	207.73
184.589	146.18
184.808	154.6
185.027	154.07
185.246	300.79
185.465	-343.12
185.684	-221.79
185.903	-305.55
186.122	-297.42
186.341	711.49
186.56	481.52
186.779	396.19
186.998	424.04
187.216	205.11
187.435	308.04
187.654	144.63
187.873	88.83
188.092	86.78
188.311	86.79
188.53	110.02
188.748	127.12
188.967	138.76
189.186	124.47
189.405	122.28
189.623	146.66
189.842	140.35
190.061	136.74
190.28	367.18
190.498	153.67
190.717	191.74
190.936	240.76
191.154	139.86
191.373	109.23
191.592	1475.33
191.81	507.33
192.029	1277.08
192.248	-730.23
192.466	2926.96
192.685	284.93
192.904	641.62
193.122	480.59
193.341	415.78
193.559	813.99
193.778	431.02
193.996	238.08
194.215	190.57
194.433	209.51
194.652	216.96
194.87	261.61
195.089	254.5
195.307	207.31
195.526	144.54
195.744	118.19
195.963	111.91
196.181	127.59
196.399	99.06
196.618	86.45
196.836	25.92
197.055	-19.76
197.273	17.66
197.491	25.46
197.71	36.39
197.928	20.43
198.146	49.32
198.365	59.18
198.583	9.59
198.801	22.38
199.019	68.24
199.238	76.11
199.456	110.44
199.674	432.47
199.892	401.68
200.111	4675.68
200.329	2800.79
200.547	1246.91
200.765	827.35
200.983	2375.61
201.202	877.33
201.42	-715.39
201.638	20580.43
201.856	-2596.72
202.074	317.88
202.292	379.34
202.51	253.12
202.728	479.36
202.946	-855.25
203.165	-1203.89
203.383	703.91
203.601	392.37
203.819	213.12
204.037	166.21
204.255	153.63
204.473	152.88
204.691	99.55
204.909	114.59
205.127	119.73
205.345	128.11
205.562	143.59
205.78	118.09
205.998	152.74
206.216	232.54
206.434	607.59
206.652	-128.23
206.87	272.51
207.088	417.84
207.306	315.76
207.523	252.67
207.741	-289.93
207.959	23.54
208.177	-13.62
208.395	217.29
208.612	147
208.83	328.12
209.048	172.52
209.266	495.54
209.483	-1988.55
209.701	-349.11
209.919	410.31
210.136	332.72
210.354	240.92
210.572	454.65
210.79	377.65
211.007	491.46
211.225	268.1
211.442	7778.26
211.66	-90.57
211.878	-1128.72
212.095	-453.39
212.313	1342.5
212.53	556.13
212.748	-142.26
212.966	-193.37
213.183	963.04
213.401	305.4
213.618	195.2
213.836	213.92
214.053	843.27
214.271	1090.67
214.488	-176.05
214.705	-339.07
214.923	-1354.94
215.14	-286.56
215.358	-173.97
215.575	-165.99
215.793	-958.17
216.01	-958.42
216.227	-643.7
216.445	-983.64
216.662	-464.99
216.879	-394.12
217.097	-121.13
217.314	-128.75
217.531	-80.83
217.749	-37.87
217.966	-49.28
218.183	-34.46
218.4	-49.68
218.618	-15.89
218.835	-17.8
219.052	-4.65
219.269	4.81
219.487	21.91
219.704	44.35
219.921	44.09
220.138	22.93
220.355	-3.07
220.572	17.24
220.79	8.8
221.007	-6.02
221.224	5.36
221.441	-12.78
221.658	-13.1
221.875	-41.65
222.092	-59.42
222.309	-77.94
222.526	-71.96
222.743	-49.52
222.96	-47.08
223.177	-54.15
223.394	-38.91
223.611	-42.75
223.828	-33.39
224.045	-19.56
224.262	-16.56
224.479	-14.03
224.696	6.2
224.913	3.84
225.13	11.68
225.347	5.17
225.564	8.22
225.781	7.63
225.997	9.52
226.214	11.28
226.431	8.32
226.648	9.2
226.865	9.81
227.082	6.22
227.298	4.12
227.515	3.55
227.732	6.39
227.949	4.98
228.165	6.51
228.382	6.19
228.599	4.04
228.816	3.24
229.032	3
229.249	1.32
229.466	2.47
229.682	4.14
229.899	1.3
230.116	-0.39
230.332	0.23
230.549	-0.54
230.765	-3.12
230.982	-0.88
231.199	1.66
231.415	3.08
231.632	5.65
231.848	4.71
232.065	4.27
232.281	6.76
232.498	8.98
232.714	7.5
232.931	7.59
233.147	11.07
233.364	12.38
233.58	8.31
233.797	6.88
234.013	5.4
234.23	4.56
234.446	7.34
234.662	5.34
234.879	2.54
235.095	3.94
235.312	2.84
235.528	1.58
235.744	-0.41
235.961	3.05
236.177	4.48
236.393	5.69
236.61	4.89
236.826	1.95
237.042	3.02
237.258	3.22
237.475	1
237.691	2.38
237.907	3.02
238.123	3.42
238.339	3.8
238.556	3.93
238.772	6.61
238.988	7.6
239.204	9.23
239.42	10.92
239.636	11.42
239.853	11.98
240.069	10.86
240.285	10.18
240.501	10.57
240.717	10.08
240.933	9.37
241.149	7.7
241.365	7.61
241.581	7.57
241.797	6.71
242.013	6.51
242.229	6.94
242.445	7.34
242.661	7.58
242.877	6.89
243.093	7.2
243.309	8.3
243.525	9.88
243.741	10.58
243.957	10.26
244.173	10.37
244.388	10.77
244.604	10.73
244.82	10.47
245.036	10.22
245.252	10.57
245.468	10.72
245.683	10.44
245.899	9.53
246.115	9.37
246.331	9.61
246.547	9.25
246.762	8.82
246.978	8.43
247.194	8.21
247.409	8.74
247.625	8.41
247.841	7.92
248.057	7.11
248.272	7.52
248.488	7.17
248.703	6.3
248.919	6.92
249.135	6.91
249.35	6.31
249.566	6.59
249.782	6.22
249.997	7.41
250.213	7.31
250.428	7.47
250.644	7.86
250.859	8.42
251.075	9.13
251.29	9.02
251.506	9.18
251.721	10.61
251.937	10.61
252.152	9.98
252.368	8.97
252.583	9.75
252.798	9.66
253.014	9.65
253.229	7.51
253.445	5.96
253.66	4.89
253.875	4.19
254.091	3.14
254.306	3.17
254.521	2.35
254.737	3.21
254.952	3.05
255.167	3.93
255.383	3.47
255.598	5.11
255.813	6.37
256.028	6.4
256.244	6.67
256.459	6.68
256.674	6.47
256.889	6.36
257.104	5.71
257.32	5.35
257.535	5.45
257.75	5.93
257.965	6.09
258.18	6.13
258.395	6.52
258.61	6.46
258.826	6.16
259.041	6.35
259.256	6.34
259.471	6.52
259.686	7.07
259.901	6.93
260.116	6.67
260.331	6.76
260.546	6.31
260.761	5.65
260.976	5.67
261.191	6.04
261.406	5.66
261.621	6.51
261.836	7.02
262.05	7.19
262.265	7.16
262.48	7.48
262.695	7.02
262.91	7.51
263.125	8.03
263.34	7.19
263.555	7.77
263.769	7.35
263.984	7.23
264.199	7.5
264.414	6.58
264.629	5.71
264.843	5.23
265.058	5.17
265.273	5.06
265.488	5.54
265.702	5.97
265.917	5.23
266.132	6.07
266.346	5.65
266.561	5.01
266.776	4.22
266.99	5.13
267.205	5.58
267.42	5.15
267.634	5
267.849	4.08
268.063	3.87
268.278	3.62
268.492	3.28
268.707	3.15
268.922	3.46
269.136	4.74
269.351	5.11
269.565	4.85
269.78	5.81
269.994	5.2
270.209	5.63
270.423	5.93
270.637	6.06
270.852	6.49
271.066	6.78
271.281	6.22
271.495	6.13
271.709	5.21
271.924	5.27
272.138	4.55
272.353	5.29
272.567	5.31
272.781	5.23
272.996	5.5
273.21	5.35
273.424	5.83
273.638	5.91
273.853	5.75
274.067	6.19
274.281	6.66
274.495	7.06
274.71	6.44
274.924	5.8
275.138	5.75
275.352	6.27
275.566	5.77
275.781	5.43
275.995	5.87
276.209	6.07
276.423	6.33
276.637	5.86
276.851	5.45
277.065	5.98
277.279	6.49
277.493	6.59
277.707	6.06
277.921	6.52
278.135	6.08
278.349	5.81
278.563	6.05
278.777	5.97
278.991	5.8
279.205	5.96
279.419	6.13
279.633	6.18
279.847	6.23
280.061	5.99
280.275	6
280.489	6.48
280.703	6.68
280.917	6.75
281.131	7.18
281.344	6.86
281.558	6.45
281.772	6.44
281.986	6.19
282.2	5.83
282.414	6.07
282.627	5.8
282.841	5.97
283.055	5.53
283.269	5.21
283.482	4.55
283.696	5.19
283.91	5.43
284.123	5.67
284.337	5.8
284.551	5.82
284.764	5.52
284.978	5.58
285.192	5.42
285.405	5.77
285.619	5.83
285.833	5.75
286.046	5.66
286.26	5.81
286.473	5.22
286.687	5.44
286.9	5.88
287.114	5.93
287.327	5.69
287.541	5.39
287.754	5.65
287.968	5.46
288.181	5.98
288.395	6.02
288.608	5.86
288.822	6.34
289.035	6.2
289.248	5.58
289.462	5.44
289.675	5.47
289.889	5.53
290.102	4.99
290.315	4.85
290.529	4.41
290.742	4.54
290.955	4.39
291.169	4.02
291.382	4.01
291.595	4.84
291.808	5.69
292.022	5.5
292.235	5.35
292.448	5.5
292.661	5.44
292.875	5.82
293.088	5.33
293.301	6.11
293.514	6.41
293.727	6.43
293.94	6.4
294.153	5.99
294.367	6.41
294.58	6.56
294.793	6.77
295.006	6.75
295.219	6.5
295.432	6.82
295.645	6.36
295.858	6.46
296.071	6.21
296.284	6.16
296.497	6
296.71	6.01
296.923	6.34
297.136	6.01
297.349	6.47
297.562	6.58
297.775	6.37
297.988	6.19
298.201	5.92
298.414	6.39
298.626	6.25
298.839	6.62
299.052	6.42
299.265	6.15
299.478	6.57
299.691	6.51
299.903	6.6
300.116	6.57
300.329	7.39
300.542	7.17
300.755	6.82
300.967	6.57
301.18	6.77
301.393	6.44
301.605	6.31
301.818	6.41
302.031	5.98
302.243	6.05
302.456	5.62
302.669	5.46
302.881	5.34
303.094	5.99
303.307	6.18
303.519	5.59
303.732	5.99
303.944	6
304.157	5.79
304.37	5.93
304.582	6.11
304.795	6.65
305.007	6.11
305.22	6.05
305.432	5.35
305.645	5.4
305.857	5.56
306.069	5.21
306.282	5
306.494	5.19
306.707	5.28
306.919	5.55
307.132	5.35
307.344	5.55
307.556	5.86
307.769	5.79
307.981	5.83
308.193	5.79
308.406	6.13
308.618	6.28
308.83	6.3
309.043	6.15
309.255	5.79
309.467	5.88
309.679	6.16
309.892	6.08
310.104	6.34
310.316	6.54
310.528	7.05
310.74	6.8
310.953	6.65
311.165	6.44
311.377	6.56
311.589	6.28
311.801	6.37
312.013	5.7
312.225	5.79
312.437	5.78
312.649	5.56
312.862	5.33
313.074	5.44
313.286	5.3
313.498	5.17
313.71	5
313.922	4.88
314.134	5.19
314.346	4.8
314.558	4.83
314.77	4.49
314.982	4.47
315.193	4.01
315.405	4.2
315.617	4.46
315.829	4.48
316.041	4.45
316.253	4.91
316.465	4.33
316.677	4.79
316.888	4.47
317.1	4.83
317.312	4.83
317.524	5.03
317.736	5.37
317.947	5.45
318.159	5.66
318.371	5.73
318.583	5.84
318.794	5.74
319.006	5.8
319.218	6.79
319.43	6.93
319.641	6.61
319.853	6.38
320.064	6.01
320.276	5.97
320.488	5.67
320.699	5.71
320.911	5.76
321.123	5.93
321.334	5.73
321.546	5.01
321.757	4.39
321.969	4.97
322.18	5.07
322.392	4.79
322.603	4.69
322.815	4.6
323.026	4.8
323.238	4.21
323.449	4.48
323.661	4.59
323.872	4.84
324.083	5.34
324.295	4.67
324.506	4.71
324.718	5.17
324.929	5.28
325.14	5.37
325.352	4.94
325.563	5.31
325.774	5.47
325.986	5.58
326.197	5.7
326.408	5.51
326.62	5.65
326.831	5.82
327.042	5.53
327.253	4.8
327.464	5.52
327.676	5.39
327.887	5.29
328.098	4.97
328.309	5.2
328.52	4.6
328.732	4.8
328.943	5.5
329.154	5.12
329.365	4.71
329.576	4.92
329.787	4
329.998	4.66
330.209	4.91
330.42	5.26
330.631	4.98
330.842	5.24
331.053	5.47
331.264	4.89
331.475	5.39
331.686	5.97
331.897	6.61
332.108	7.32
332.319	6.86
332.53	6.67
332.741	6.36
332.952	6.46
333.163	6.55
333.374	6.08
333.585	6.49
333.795	6.4
334.006	6.48
334.217	6.29
334.428	5.87
334.639	6.42
334.849	6.81
335.06	6.93
335.271	7.19
335.482	6.97
335.692	6.95
335.903	6.54
336.114	6.31
336.325	6.38
336.535	6.44
336.746	6.71
336.957	6.51
337.167	6.79
337.378	6.52
337.589	6.58
337.799	6.59
338.01	6.88
338.22	7.03
338.431	6.53
338.642	6.61
338.852	6.8
339.063	6.62
339.273	6.35
339.484	5.79
339.694	6.08
339.905	5.87
340.115	6.18
340.326	5.68
340.536	6.02
340.746	6.45
340.957	6.21
341.167	5.6
341.378	5.2
341.588	5.43
341.799	5.3
342.009	5.38
342.219	5.38
342.43	5.19
342.64	5.28
342.85	5.43
343.061	5.64
343.271	5.57
343.481	6.33
343.691	6.69
343.902	6.56
344.112	6.74
344.322	6.56
344.532	6.6
344.743	6.95
344.953	7.16
345.163	6.7
345.373	6.71
345.583	6.97
345.793	6.21
346.004	6.45
346.214	6.69
346.424	6.83
346.634	7.36
346.844	7.44
347.054	7.31
347.264	6.96
347.474	6.87
347.684	6.41
347.894	6.41
348.104	6.91
348.314	6.46
348.524	6.2
348.734	6.22
348.944	5.25
349.154	4.99
349.364	4.71
349.574	4.71
349.784	4.97
349.994	4.97
350.204	4.77
350.413	4.94
350.623	5.12
350.833	5.45
351.043	5.08
351.253	5.37
351.463	5.28
351.672	5.33
351.882	5.87
352.092	5.67
352.302	6.2
352.511	6.07
352.721	6.22
352.931	6.14
353.141	5.71
353.35	5.73
353.56	6.01
353.77	6.4
353.979	6.56
354.189	5.92
354.399	5.89
354.608	5.81
354.818	5.87
355.027	5.53
355.237	5.48
355.447	5.86
355.656	5.7
355.866	5.53
356.075	5.3
356.285	4.78
356.494	5.07
356.704	5.08
356.913	4.83
357.123	4.57
357.332	4.63
357.542	4.52
357.751	4.4
357.96	4.66
358.17	4.7
358.379	4.67
358.589	5.13
358.798	5.22
359.007	5.07
359.217	5.37
359.426	5.69
359.635	5.7
359.845	5.81
360.054	5.7
360.263	5.86
360.472	5.88
360.682	5.96
360.891	5.86
361.1	5.9
361.309	6.07
361.519	5.8
361.728	5.67
361.937	5.41
362.146	5.37
362.355	5.38
362.564	5.26
362.774	4.99
362.983	4.87
363.192	5.04
363.401	4.81
363.61	4.96
363.819	5.05
364.028	5.04
364.237	5.04
364.446	5.3
364.655	5.41
364.864	5.24
365.073	5.66
365.282	5.8
365.491	5.85
365.7	6.03
365.909	5.55
366.118	5.4
366.327	5.37
366.536	5.45
366.745	5.2
366.954	5.25
367.162	5.29
367.371	5.02
367.58	4.84
367.789	4.76
367.998	4.48
368.207	4.73
368.415	4.92
368.624	5.16
368.833	5.22
369.042	5.38
369.25	5.44
369.459	5.4
369.668	5.45
369.877	5.5
370.085	5.33
370.294	5.34
370.503	5.59
370.711	5.67
370.92	5.47
371.129	5.3
371.337	5.09
371.546	4.88
371.754	4.81
371.963	4.67
372.171	4.62
372.38	4.49
372.589	4.56
372.797	4.43
373.006	4.43
373.214	4.34
373.423	4.44
373.631	4.5
373.84	4.52
374.048	4.9
374.256	4.96
374.465	5.03
374.673	4.99
374.882	4.98
375.09	4.78
375.298	4.34
375.507	4.32
375.715	4.45
375.923	4.48
376.132	4.61
376.34	4.55
376.548	4.56
376.757	4.42
376.965	4.32
377.173	4.37
377.381	4.58
377.59	5.03
377.798	5.03
378.006	4.89
378.214	4.7
378.423	4.59
378.631	4.47
378.839	4.39
379.047	4.51
379.255	4.73
379.463	4.6
379.671	4.5
379.879	4.21
380.088	3.94
380.296	4.03
380.504	4.11
380.712	3.91
380.92	3.83
381.128	4.02
381.336	3.91
381.544	3.73
381.752	3.86
381.96	3.88
382.168	4.02
382.376	4.2
382.584	4.27
382.791	4.5
382.999	4.44
383.207	4.4
383.415	4.25
383.623	4.07
383.831	4.05
384.039	4.05
384.247	3.99
384.454	4.14
384.662	4.32
384.87	4.21
385.078	3.99
385.285	4.18
385.493	4.07
385.701	3.76
385.909	4.06
386.116	4.11
386.324	4.04
386.532	3.99
386.739	3.88
386.947	3.92
387.155	3.86
387.362	3.95
387.57	3.83
387.778	3.97
387.985	4.17
388.193	4.18
388.4	4.11
388.608	4.02
388.816	4.04
389.023	3.79
389.231	3.88
389.438	3.84
389.646	3.83
389.853	4.06
390.061	4.07
390.268	4.17
390.475	3.91
390.683	4.09
390.89	4.2
391.098	4.26
391.305	4.22
391.512	3.98
391.72	4.01
391.927	3.95
392.135	3.81
392.342	3.77
392.549	3.75
392.756	3.91
392.964	3.88
393.171	3.85
393.378	3.87
393.586	3.94
393.793	4.04
394	4.17
394.207	4.31
394.414	4.17
394.622	4.15
394.829	4.04
395.036	3.95
395.243	3.74
395.45	3.7
395.657	3.42
395.864	3.59
396.072	3.33
396.279	3.06
396.486	3.08
396.693	3.07
396.9	3.26
397.107	3.32
397.314	3.32
397.521	3.65
397.728	3.5
397.935	3.85
398.142	3.74
398.349	4.04
398.556	4.37
398.763	4.22
398.97	4.34
399.177	4.23
399.383	4.26
399.59	4.19
399.797	4.06
400.004	4.31
400.211	4.14
400.418	4.23
400.625	4.2
400.831	4.03
401.038	3.94
401.245	3.97
401.452	4.06
401.658	4.17
401.865	4.28
402.072	4.31
402.279	4.25
402.485	4.14
402.692	4.12
402.899	4
403.105	3.86
403.312	3.71
403.519	3.61
403.725	3.47
403.932	3.33
404.138	3.32
404.345	3.27
404.552	3.38
404.758	3.35
404.965	3.38
405.171	3.19
405.378	3.34
405.584	3.55
405.791	3.58
405.997	3.6
406.204	3.62
406.41	3.66
406.617	3.58
406.823	3.38
407.029	3.6
407.236	3.43
407.442	3.77
407.649	3.7
407.855	3.64
408.061	3.62
408.268	3.53
408.474	3.57
408.68	3.48
408.887	3.55
409.093	3.39
409.299	3.21
409.505	3.34
409.712	3.35
409.918	3.26
410.124	3.34
410.33	3.24
410.537	3.19
410.743	3.13
410.949	3.08
411.155	2.9
411.361	3.15
411.567	3.13
411.773	3
411.98	2.89
412.186	2.94
412.392	2.91
412.598	3.14
412.804	3
413.01	3.13
413.216	3.16
413.422	3.41
413.628	3.3
413.834	3.33
414.04	3.41
414.246	3.27
414.452	3.42
414.658	3.28
414.864	3.06
415.07	3.21
415.275	3.05
415.481	3
415.687	2.93
415.893	2.96
416.099	2.92
416.305	2.9
416.511	3.05
416.716	2.99
416.922	3.02
417.128	3.1
417.334	3.17
417.539	3.27
417.745	3.31
417.951	3.26
418.157	3.21
418.362	3.29
418.568	3.34
418.774	3.32
418.979	3.3
419.185	3.31
419.391	3.33
419.596	3.23
419.802	3.15
420.008	3.14
420.213	3.13
420.419	3.19
420.624	3.14
420.83	3.13
421.035	3.13
421.241	3.11
421.446	3.13
421.652	3.13
421.857	3.19
422.063	3.33
422.268	3.35
422.474	3.41
422.679	3.38
422.885	3.35
423.09	3.31
423.295	3.22
423.501	3.27
423.706	3.2
423.911	3.22
424.117	3.16
424.322	3.06
424.527	2.98
424.733	2.98
424.938	2.96
425.143	2.97
425.349	2.97
425.554	3.05
425.759	3.01
425.964	3.09
426.169	2.98
426.375	3.06
426.58	3.02
426.785	3.12
426.99	3.02
427.195	3.08
427.4	2.98
427.605	2.93
427.811	2.88
428.016	2.89
428.221	2.83
428.426	2.92
428.631	2.82
428.836	2.8
429.041	2.61
429.246	2.66
429.451	2.58
429.656	2.56
429.861	2.54
430.066	2.6
430.271	2.56
430.476	2.61
430.681	2.6
430.886	2.59
431.09	2.53
431.295	2.66
431.5	2.73
431.705	2.7
431.91	2.86
432.115	2.83
432.32	2.81
432.524	2.81
432.729	2.75
432.934	2.62
433.139	2.66
433.343	2.69
433.548	2.58
433.753	2.47
433.958	2.57
434.162	2.46
434.367	2.49
434.572	2.41
434.776	2.31
434.981	2.35
435.186	2.5
435.39	2.47
435.595	2.49
435.799	2.6
436.004	2.61
436.209	2.69
436.413	2.69
436.618	2.7
436.822	2.72
437.027	2.74
437.231	2.73
437.436	2.72
437.64	2.74
437.845	2.69
438.049	2.75
438.253	2.74
438.458	2.64
438.662	2.67
438.867	2.69
439.071	2.65
439.275	2.68
439.48	2.71
439.684	2.77
439.888	2.71
440.093	2.79
440.297	2.81
440.501	2.8
440.706	2.81
440.91	2.77
441.114	2.76
441.318	2.84
441.523	2.84
441.727	2.88
441.931	2.82
442.135	2.83
442.339	2.81
442.543	2.69
442.748	2.73
442.952	2.66
443.156	2.7
443.36	2.74
443.564	2.74
443.768	2.69
443.972	2.56
444.176	2.59
444.38	2.71
444.584	2.68
444.788	2.78
444.992	2.75
445.196	2.77
445.4	2.79
445.604	2.79
445.808	2.73
446.012	2.71
446.216	2.77
446.42	2.71
446.624	2.71
446.828	2.78
447.032	2.67
447.235	2.63
447.439	2.67
447.643	2.57
447.847	2.59
448.051	2.54
448.254	2.62
448.458	2.64
448.662	2.64
448.866	2.52
449.069	2.43
449.273	2.41
449.477	2.4
449.681	2.34
449.884	2.51
450.088	2.32
450.292	2.48
450.495	2.45
450.699	2.38
450.902	2.39
451.106	2.35
451.31	2.4
451.513	2.46
451.717	2.57
451.92	2.54
452.124	2.41
452.327	2.47
452.531	2.44
452.734	2.42
452.938	2.5
453.141	2.44
453.345	2.46
453.548	2.42
453.752	2.42
453.955	2.43
454.158	2.43
454.362	2.45
454.565	2.42
454.769	2.46
454.972	2.62
455.175	2.55
455.379	2.57
455.582	2.65
455.785	2.54
455.988	2.52
456.192	2.45
456.395	2.42
456.598	2.48
456.801	2.49
457.005	2.4
457.208	2.3
457.411	2.39
457.614	2.41
457.817	2.32
458.021	2.49
458.224	2.49
458.427	2.49
458.63	2.51
458.833	2.52
459.036	2.52
459.239	2.52
459.442	2.5
459.645	2.47
459.848	2.49
460.051	2.49
460.254	2.38
460.457	2.36
460.66	2.38
460.863	2.41
461.066	2.45
461.269	2.5
461.472	2.51
461.675	2.52
461.878	2.52
462.081	2.46
462.284	2.42
462.486	2.38
462.689	2.41
462.892	2.46
463.095	2.46
463.298	2.35
463.5	2.32
463.703	2.29
463.906	2.3
464.109	2.28
464.311	2.21
464.514	2.25
464.717	2.29
464.92	2.21
465.122	2.11
465.325	2.17
465.528	2.17
465.73	2.07
465.933	2.12
466.135	2.11
466.338	2.15
466.541	2.24
466.743	2.35
466.946	2.4
467.148	2.48
467.351	2.53
467.553	2.57
467.756	2.66
467.958	2.77
468.161	2.75
468.363	2.78
468.566	2.65
468.768	2.61
468.971	2.62
469.173	2.53
469.375	2.5
469.578	2.55
469.78	2.55
469.983	2.45
470.185	2.35
470.387	2.35
470.59	2.42
470.792	2.5
470.994	2.55
471.196	2.56
471.399	2.53
471.601	2.52
471.803	2.49
472.005	2.44
472.208	2.46
472.41	2.61
472.612	2.61
472.814	2.57
473.016	2.61
473.218	2.62
473.421	2.61
473.623	2.58
473.825	2.55
474.027	2.65
474.229	2.5
474.431	2.47
474.633	2.54
474.835	2.52
475.037	2.43
475.239	2.45
475.441	2.45
475.643	2.37
475.845	2.45
476.047	2.48
476.249	2.29
476.451	2.39
476.653	2.44
476.855	2.38
477.057	2.5
477.258	2.53
477.46	2.45
477.662	2.46
477.864	2.54
478.066	2.62
478.268	2.61
478.469	2.71
478.671	2.7
478.873	2.74
479.075	2.72
479.276	2.61
479.478	2.63
479.68	2.76
479.882	2.8
480.083	2.8
480.285	2.68
480.487	2.72
480.688	2.7
480.89	2.78
481.091	2.79
481.293	2.78
481.495	2.83
481.696	2.85
481.898	2.76
482.099	2.75
482.301	2.73
482.502	2.76
482.704	2.76
482.905	2.76
483.107	2.73
483.308	2.72
483.51	2.73
483.711	2.68
483.913	2.69
484.114	2.73
484.315	2.75
484.517	2.78
484.718	2.78
484.92	2.8
485.121	2.81
485.322	2.8
485.524	2.8
485.725	2.81
485.926	2.84
486.127	2.79
486.329	2.77
486.53	2.75
486.731	2.72
486.932	2.69
487.134	2.68
487.335	2.7
487.536	2.7
487.737	2.73
487.938	2.72
488.139	2.71
488.341	2.74
488.542	2.76
488.743	2.75
488.944	2.77
489.145	2.81
489.346	2.82
489.547	2.77
489.748	2.79
489.949	2.73
490.15	2.7
490.351	2.73
490.552	2.69
490.753	2.73
490.954	2.73
491.155	2.71
491.356	2.66
491.557	2.65
491.758	2.64
491.959	2.62
492.159	2.64
492.36	2.68
492.561	2.66
492.762	2.69
492.963	2.61
493.164	2.57
493.364	2.54
493.565	2.63
493.766	2.62
493.967	2.64
494.167	2.65
494.368	2.62
494.569	2.61
494.769	2.59
494.97	2.66
495.171	2.74
495.371	2.75
495.572	2.81
495.773	2.72
495.973	2.77
496.174	2.75
496.375	2.74
496.575	2.73
496.776	2.69
496.976	2.74
497.177	2.67
497.377	2.63
497.578	2.67
497.778	2.55
497.979	2.54
498.179	2.5
498.38	2.53
498.58	2.54
498.78	2.54
498.981	2.59
499.181	2.58
499.382	2.6
499.582	2.54
499.782	2.52
499.983	2.73
500.183	2.8
500.383	2.87
500.584	2.83
500.784	2.77
500.984	2.81
501.184	2.84
501.385	2.79
501.585	2.71
501.785	2.78
501.985	2.82
502.185	2.79
502.386	2.8
502.586	2.79
502.786	2.88
502.986	2.93
503.186	2.92
503.386	2.88
503.586	2.93
503.786	3.01
503.987	3.04
504.187	3
504.387	2.9
504.587	2.93
504.787	2.88
504.987	2.85
505.187	2.88
505.387	2.84
505.587	2.76
505.786	2.81
505.986	2.8
506.186	2.8
506.386	2.81
506.586	2.91
506.786	2.9
506.986	3.02
507.186	3.04
507.386	3.05
507.585	3.11
507.785	3.19
507.985	3.13
508.185	3.2
508.384	3.2
508.584	3.21
508.784	3.16
508.984	3.23
509.183	3.17
509.383	3.19
509.583	3.14
509.782	3.17
509.982	3.16
510.182	3.26
510.381	3.25
510.581	3.28
510.781	3.34
510.98	3.37
511.18	3.26
511.379	3.26
511.579	3.2
511.778	3.26
511.978	3.25
512.177	3.22
512.377	3.23
512.576	3.29
512.776	3.28
512.975	3.22
513.175	3.29
513.374	3.35
513.573	3.39
513.773	3.43
513.972	3.45
514.172	3.52
514.371	3.67
514.57	3.71
514.77	3.67
514.969	3.64
515.168	3.67
515.367	3.66
515.567	3.68
515.766	3.66
515.965	3.7
516.164	3.69
516.364	3.63
516.563	3.66
516.762	3.58
516.961	3.57
517.16	3.58
517.359	3.59
517.559	3.59
517.758	3.62
517.957	3.64
518.156	3.61
518.355	3.62
518.554	3.68
518.753	3.55
518.952	3.56
519.151	3.61
519.35	3.61
519.549	3.62
519.748	3.61
519.947	3.58
520.146	3.69
520.345	3.72
520.544	3.72
520.743	3.7
520.942	3.79
521.141	3.93
521.339	3.91
521.538	4.01
521.737	4
521.936	4.03
522.135	4.07
522.333	4.03
522.532	4.05
522.731	4.05
522.93	4.03
523.129	4.04
523.327	3.95
523.526	3.92
523.725	3.9
523.923	3.92
524.122	3.93
524.321	3.93
524.519	3.96
524.718	3.99
524.917	4.04
525.115	4.03
525.314	4.13
525.512	4.13
525.711	4.16
525.909	4.19
526.108	4.24
526.306	4.25
526.505	4.31
526.703	4.31
526.902	4.35
527.1	4.38
527.299	4.43
527.497	4.42
527.696	4.43
527.894	4.45
528.092	4.47
528.291	4.46
528.489	4.49
528.688	4.48
528.886	4.5
529.084	4.48
529.283	4.45
529.481	4.44
529.679	4.42
529.877	4.52
530.076	4.55
530.274	4.57
530.472	4.58
530.67	4.64
530.869	4.66
531.067	4.66
531.265	4.73
531.463	4.79
531.661	4.81
531.859	4.81
532.057	4.77
532.255	4.8
532.454	4.76
532.652	4.8
532.85	4.76
533.048	4.75
533.246	4.8
533.444	4.8
533.642	4.83
533.84	4.84
534.038	4.87
534.236	4.89
534.434	4.88
534.632	4.96
534.83	5
535.027	5
535.225	4.98
535.423	4.91
535.621	4.89
535.819	4.87
536.017	4.95
536.215	4.99
536.412	5.01
536.61	5.06
536.808	5.06
537.006	5.06
537.203	5.14
537.401	5.2
537.599	5.26
537.797	5.28
537.994	5.3
538.192	5.31
538.39	5.35
538.587	5.47
538.785	5.51
538.983	5.54
539.18	5.59
539.378	5.62
539.575	5.65
539.773	5.67
539.97	5.68
540.168	5.72
540.366	5.73
540.563	5.74
540.761	5.71
540.958	5.73
541.155	5.77
541.353	5.8
541.55	5.81
541.748	5.81
541.945	5.83
542.143	5.9
542.34	5.99
542.537	6.03
542.735	6.09
542.932	6.11
543.129	6.1
543.327	6.13
543.524	6.17
543.721	6.17
543.919	6.22
544.116	6.3
544.313	6.37
544.51	6.36
544.708	6.34
544.905	6.38
545.102	6.5
545.299	6.55
545.496	6.48
545.693	6.48
545.891	6.52
546.088	6.56
546.285	6.59
546.482	6.56
546.679	6.56
546.876	6.64
547.073	6.6
547.27	6.57
547.467	6.59
547.664	6.65
547.861	6.66
548.058	6.73
548.255	6.95
548.452	6.97
548.649	6.95
548.846	6.99
549.043	7.01
549.24	7.09
549.437	7.15
549.633	7.15
549.83	7.33
550.027	7.45
550.224	7.39
550.421	7.32
550.618	7.37
550.814	7.53
551.011	7.55
551.208	7.59
551.405	7.57
551.601	7.54
551.798	7.63
551.995	7.62
552.191	7.54
552.388	7.63
552.585	7.7
552.781	7.75
552.978	7.71
553.175	7.76
553.371	7.82
553.568	7.88
553.764	7.96
553.961	8.07
554.157	8.11
554.354	8.19
554.55	8.17
554.747	8.13
554.943	8.19
555.14	8.33
555.336	8.41
555.533	8.48
555.729	8.47
555.926	8.59
556.122	8.62
556.318	8.71
556.515	8.83
556.711	9
556.907	9.12
557.104	9.1
557.3	9.17
557.496	9.13
557.693	9.19
557.889	9.27
558.085	9.28
558.281	9.26
558.478	9.25
558.674	9.42
558.87	9.43
559.066	9.43
559.262	9.58
559.459	9.53
559.655	9.75
559.851	9.85
560.047	9.97
560.243	10.02
560.439	10.14
560.635	10.26
560.831	10.28
561.027	10.38
561.223	10.48
561.419	10.51
561.615	10.65
561.811	10.69
562.007	10.7
562.203	10.7
562.399	10.81
562.595	10.9
562.791	10.73
562.987	10.76
563.183	10.83
563.379	10.91
563.575	10.9
563.771	10.99
563.966	11
564.162	11.06
564.358	11.12
564.554	11.15
564.75	11.13
564.945	11.28
565.141	11.31
565.337	11.33
565.533	11.38
565.728	11.53
565.924	11.56
566.12	11.58
566.315	11.63
566.511	11.75
566.707	11.8
566.902	11.87
567.098	11.97
567.293	12.03
567.489	12.06
567.684	12.02
567.88	12.04
568.076	12.05
568.271	12.06
568.467	12.21
568.662	12.25
568.858	12.33
569.053	12.37
569.248	12.36
569.444	12.49
569.639	12.6
569.835	12.77
570.03	12.84
570.225	12.98
570.421	13.1
570.616	13.05
570.812	13.21
571.007	13.27
571.202	13.44
571.397	13.51
571.593	13.37
571.788	13.44
571.983	13.46
572.178	13.56
572.374	13.57
572.569	13.48
572.764	13.54
572.959	13.47
573.154	13.58
573.35	13.55
573.545	13.7
573.74	13.93
573.935	13.94
574.13	13.9
574.325	13.89
574.52	13.88
574.715	14.06
574.91	14.17
575.105	14.18
575.3	14.19
575.495	14.33
575.69	14.33
575.885	14.37
576.08	14.46
576.275	14.62
576.47	14.68
576.665	14.69
576.86	14.7
577.055	14.59
577.25	14.72
577.444	14.67
577.639	14.6
577.834	14.64
578.029	14.65
578.224	14.63
578.418	14.61
578.613	14.58
578.808	14.63
579.003	14.73
579.197	14.78
579.392	14.8
579.587	14.89
579.781	14.95
579.976	14.99
580.171	15.1
580.365	15.08
580.56	15.17
580.755	15.33
580.949	15.32
581.144	15.45
581.338	15.64
581.533	15.68
581.727	15.95
581.922	15.99
582.116	15.98
582.311	16.04
582.505	16.25
582.7	16.25
582.894	16.24
583.089	16.4
583.283	16.29
583.478	16.13
583.672	16.2
583.866	15.98
584.061	16.06
584.255	16.15
584.449	16.03
584.644	16
584.838	16.05
585.032	16.15
585.226	16.26
585.421	16.35
585.615	16.59
585.809	16.6
586.003	16.63
586.198	16.69
586.392	16.77
586.586	16.92
586.78	16.93
586.974	17.07
587.168	17.11
587.363	17.02
587.557	17.15
587.751	17.15
587.945	17.05
588.139	17.2
588.333	17.1
588.527	17.19
588.721	17.13
588.915	17.17
589.109	17.19
589.303	17.09
589.497	17.05
589.691	16.9
589.885	16.8
590.079	16.94
590.273	16.87
590.466	16.99
590.66	16.89
590.854	16.96
591.048	17.01
591.242	16.94
591.436	16.96
591.629	17.14
591.823	17.28
592.017	17.42
592.211	17.44
592.404	17.6
592.598	17.52
592.792	17.59
592.986	17.73
593.179	17.72
593.373	17.63
593.567	17.89
593.76	17.89
593.954	17.8
594.147	17.86
594.341	17.8
594.535	17.86
594.728	18
594.922	18.03
595.115	17.99
595.309	18
595.502	18.14
595.696	18.07
595.889	18.14
596.083	18.09
596.276	18.14
596.47	18.24
596.663	18.12
596.856	18.09
597.05	18.09
597.243	18.04
597.437	18.07
597.63	18.05
597.823	18.03
598.017	18.02
598.21	18.19
598.403	18.13
598.596	18.08
598.79	18.26
598.983	18.27
599.176	18.27
599.369	18.38
599.563	18.54
599.756	18.63
599.949	18.67
600.142	18.76
600.335	18.81
600.528	18.86
600.722	19.04
600.915	18.97
601.108	19.11
601.301	19.13
601.494	19.18
601.687	19.05
601.88	19.09
602.073	19.05
602.266	18.97
602.459	18.95
602.652	18.95
602.845	18.86
603.038	18.94
603.231	18.8
603.424	18.84
603.617	18.87
603.809	18.96
604.002	18.84
604.195	18.91
604.388	19.03
604.581	19.02
604.774	19.08
604.966	19.23
605.159	19.14
605.352	19.27
605.545	19.44
605.737	19.44
605.93	19.35
606.123	19.44
606.316	19.45
606.508	19.42
606.701	19.46
606.894	19.57
607.086	19.5
607.279	19.59
607.471	19.59
607.664	19.46
607.857	19.41
608.049	19.62
608.242	19.72
608.434	19.77
608.627	19.72
608.819	19.8
609.012	19.72
609.204	19.78
609.397	19.68
609.589	19.61
609.782	19.57
609.974	19.58
610.166	19.53
610.359	19.46
610.551	19.49
610.743	19.49
610.936	19.48
611.128	19.5
611.32	19.48
611.513	19.49
611.705	19.6
611.897	19.65
612.09	20
612.282	19.94
612.474	20.02
612.666	19.93
612.858	20.13
613.051	20.16
613.243	20.06
613.435	20.15
613.627	20.2
613.819	20.37
614.011	20.47
614.203	20.14
614.395	20
614.588	20.05
614.78	20.19
614.972	19.91
615.164	19.87
615.356	19.98
615.548	19.87
615.74	20
615.932	19.91
616.124	20.01
616.315	20.15
616.507	20.33
616.699	20.24
616.891	20.26
617.083	20.35
617.275	20.55
617.467	20.57
617.659	20.7
617.85	20.71
618.042	20.65
618.234	20.35
618.426	20.23
618.618	20.3
618.809	20.29
619.001	20.28
619.193	20.35
619.384	20.12
619.576	20.31
619.768	20.33
619.959	20.36
620.151	20.43
620.343	20.79
620.534	20.8
620.726	20.62
620.917	20.7
621.109	20.7
621.301	20.72
621.492	20.94
621.684	20.73
621.875	20.71
622.067	20.58
622.258	20.54
622.45	20.35
622.641	20.36
622.832	20.38
623.024	20.46
623.215	20.39
623.407	20.42
623.598	20.36
623.789	20.3
623.981	20.3
624.172	20.45
624.363	20.58
624.555	20.68
624.746	20.69
624.937	20.75
625.129	20.67
625.32	20.62
625.511	20.66
625.702	20.67
625.893	20.78
626.085	20.78
626.276	20.77
626.467	20.77
626.658	20.7
626.849	20.85
627.04	20.88
627.231	20.99
627.422	21.16
627.614	21.2
627.805	21.23
627.996	21.37
628.187	21.35
628.378	21.4
628.569	21.42
628.76	21.44
628.951	21.3
629.142	21.37
629.332	21.54
629.523	21.67
629.714	21.61
629.905	21.58
630.096	21.47
630.287	21.64
630.478	21.74
630.669	21.6
630.859	21.67
631.05	21.68
631.241	21.7
631.432	21.61
631.623	21.52
631.813	21.65
632.004	21.73
632.195	21.86
632.385	21.67
632.576	21.51
632.767	21.66
632.957	21.64
633.148	21.78
633.339	21.8
633.529	21.96
633.72	21.97
633.91	22
634.101	21.83
634.292	21.82
634.482	22.08
634.673	22.18
634.863	21.98
635.054	22.1
635.244	21.94
635.435	21.97
635.625	21.78
635.815	21.77
636.006	21.49
636.196	21.68
636.387	21.7
636.577	21.69
636.767	21.7
636.958	21.88
637.148	21.71
637.338	21.9
637.529	21.94
637.719	21.9
637.909	22.01
638.099	22.29
638.29	22.44
638.48	22.44
638.67	22.32
638.86	22.32
639.05	22.27
639.241	22.28
639.431	22.22
639.621	22.32
639.811	22.35
640.001	22.13
640.191	22.09
640.381	22.02
640.571	21.93
640.761	22.01
640.951	22
641.141	22.1
641.331	22.17
641.521	22.13
641.711	21.87
641.901	21.86
642.091	21.94
642.281	21.95
642.471	21.76
642.661	21.75
642.851	21.63
643.041	21.6
643.231	21.48
643.42	21.53
643.61	21.62
643.8	21.81
643.99	21.8
644.18	21.78
644.369	21.81
644.559	21.99
644.749	21.88
644.939	21.88
645.128	21.96
645.318	22.05
645.508	22.19
645.697	22.12
645.887	22.05
646.076	22.05
646.266	22.21
646.456	22.03
646.645	21.93
646.835	22.19
647.024	22.37
647.214	22.32
647.403	22.49
647.593	22.45
647.782	22.59
647.972	22.7
648.161	22.52
648.351	22.52
648.54	22.73
648.73	22.7
648.919	22.7
649.108	22.42
649.298	22.32
649.487	22.23
649.677	22.09
649.866	21.94
650.055	22
650.244	22.27
650.434	22.29
650.623	22.22
650.812	22.38
651.002	22.35
651.191	22.71
651.38	22.95
651.569	23.1
651.758	23.14
651.947	23.28
652.137	23.14
652.326	22.98
652.515	23.08
652.704	23.28
652.893	23.26
653.082	23.28
653.271	23.14
653.46	23
653.649	22.94
653.838	23.02
654.027	23.26
654.216	23.26
654.405	23.38
654.594	23.11
654.783	23.23
654.972	23.28
655.161	23.35
655.35	23.34
655.539	23.38
655.728	23.25
655.916	23.41
656.105	23.28
656.294	23.35
656.483	23.47
656.672	23.7
656.86	23.61
657.049	23.66
657.238	23.58
657.427	23.66
657.615	23.85
657.804	23.83
657.993	23.74
658.181	23.69
658.37	23.66
658.559	23.54
658.747	23.45
658.936	23.4
659.125	23.54
659.313	23.64
659.502	23.69
659.69	23.56
659.879	23.65
660.067	23.69
660.256	23.71
660.444	23.58
660.633	23.91
660.821	23.87
661.01	23.9
661.198	23.64
661.387	23.4
661.575	23.29
661.763	23.31
661.952	23.34
662.14	23.32
662.328	23.06
662.517	23.24
662.705	22.83
662.893	22.94
663.082	22.95
663.27	22.89
663.458	23.09
663.646	23.08
663.834	23.12
664.023	23.2
664.211	23.23
664.399	23.48
664.587	23.61
664.775	23.66
664.963	23.8
665.152	23.68
665.34	23.67
665.528	23.36
665.716	23.5
665.904	23.35
666.092	23.02
666.28	23.33
666.468	23.37
666.656	23.25
666.844	23.35
667.032	23.12
667.22	23.23
667.408	23.23
667.596	23.34
667.784	23.25
667.971	23.24
668.159	23.46
668.347	23.23
668.535	23.27
668.723	23.54
668.911	23.67
669.098	23.85
669.286	23.9
669.474	23.77
669.662	24.15
669.849	24.21
670.037	24.33
670.225	24.37
670.413	24.14
670.6	24.36
670.788	24.08
670.976	24.06
671.163	24.07
671.351	24.01
671.538	24.51
671.726	24.19
671.913	24.15
672.101	24.28
672.289	24.35
672.476	24.39
672.664	24.24
672.851	24.11
673.039	23.96
673.226	24.02
673.413	23.94
673.601	23.77
673.788	23.88
673.976	24
674.163	23.91
674.35	23.93
674.538	24.05
674.725	23.83
674.912	24.22
675.1	24.22
675.287	24.21
675.474	24.34
675.662	24.41
675.849	24.66
676.036	24.43
676.223	24.54
676.411	24.43
676.598	24.21
676.785	24.29
676.972	24.15
677.159	24.14
677.346	23.9
677.533	23.75
677.721	23.56
677.908	23.29
678.095	23.43
678.282	23.38
678.469	23.44
678.656	23.83
678.843	23.93
679.03	23.85
679.217	23.85
679.404	24.1
679.591	24
679.778	24.29
679.964	24.33
680.151	24.48
680.338	24.33
680.525	24.38
680.712	24.12
680.899	24.23
681.086	24.31
681.272	24.23
681.459	24.01
681.646	24.25
681.833	23.93
682.02	24.07
682.206	24
682.393	24.24
682.58	24.15
682.766	24.13
682.953	24.15
683.14	24.14
683.326	24.25
683.513	24.36
683.7	24.48
683.886	24.88
684.073	24.98
684.259	25.13
684.446	25.42
684.632	25.35
684.819	25.55
685.005	25.35
685.192	25.26
685.378	25.5
685.565	25.42
685.751	25.21
685.938	25.07
686.124	24.92
686.31	24.6
686.497	24
686.683	23.93
686.87	23.75
687.056	23.59
687.242	23.67
687.429	23.79
687.615	24.13
687.801	24.19
687.987	23.87
688.174	23.66
688.36	23.72
688.546	23.96
688.732	24.15
688.918	24.32
689.105	24.44
689.291	24.46
689.477	24.19
689.663	23.93
689.849	24.02
690.035	24.26
690.221	24.75
690.407	24.8
690.593	24.82
690.779	24.66
690.965	24.76
691.151	24.73
691.337	24.67
691.523	24.87
691.709	24.99
691.895	24.98
692.081	24.83
692.267	24.86
692.453	24.56
692.639	24.59
692.825	24.44
693.011	24.27
693.196	24.31
693.382	24.54
693.568	24.17
693.754	24.03
693.94	23.83
694.125	23.81
694.311	23.51
694.497	23.51
694.682	23.12
694.868	23.49
695.054	23.45
695.239	23.54
695.425	23.39
695.611	23.55
695.796	23.65
695.982	24.27
696.168	24.42
696.353	24.68
696.539	25.09
696.724	25.54
696.91	25.64
697.095	25.88
697.281	26.02
697.466	26.17
697.652	26.33
697.837	26.47
698.023	26.2
698.208	26.32
698.393	26.19
698.579	26.34
698.764	26.28
698.949	26.24
699.135	26.09
699.32	25.92
699.505	25.89
699.691	25.59
699.876	25.52
700.061	25.59
700.246	25.58
700.432	25.64
700.617	25.27
700.802	25.31
700.987	25.4
701.172	25.71
701.358	25.82
701.543	25.99
701.728	26.25
701.913	26.21
702.098	26.23
702.283	26.18
702.468	25.98
702.653	26.12
702.838	26.08
703.023	26.03
703.208	25.55
703.393	25.54
703.578	25.17
703.763	24.93
703.948	25.06
704.133	24.74
704.318	24.86
704.503	24.5
704.688	24.63
704.873	24.57
705.057	24.27
705.242	24.63
705.427	24.76
705.612	25.13
705.797	25.24
705.981	25.04
706.166	25.22
706.351	25.23
706.536	25.95
706.72	25.6
706.905	25.64
707.09	25.7
707.274	25.35
707.459	25.14
707.644	24.93
707.828	24.82
708.013	24.8
708.197	25.02
708.382	24.72
708.567	24.07
708.751	24.51
708.936	24.48
709.12	24.59
709.305	25.28
709.489	25.49
709.673	25.52
709.858	25.93
710.042	26.09
710.227	25.68
710.411	26.02
710.596	26.23
710.78	25.98
710.964	26
711.149	25.87
711.333	25.5
711.517	25.59
711.702	25.41
711.886	25.16
712.07	24.74
712.254	25.2
712.438	25.01
712.623	25.25
712.807	25.31
712.991	25.68
713.175	25.74
713.359	25.7
713.544	25.52
713.728	25.42
713.912	25.48
714.096	26.09
714.28	25.93
714.464	25.82
714.648	25.57
714.832	25.61
715.016	25.42
715.2	25.6
715.384	25.53
715.568	25.68
715.752	25.89
715.936	25.76
716.12	25.17
716.304	25.12
716.488	25.4
716.671	25.73
716.855	25.55
717.039	25.09
717.223	25.17
717.407	25.12
717.59	24.91
717.774	24.72
717.958	25.1
718.142	25.5
718.325	25.66
718.509	25.63
718.693	25.45
718.877	25.56
719.06	25.91
719.244	25.77
719.428	25.72
719.611	26.04
719.795	26.41
719.978	26.36
720.162	26.53
720.345	26.59
720.529	26.7
720.713	26.58
720.896	26.58
721.08	26.56
721.263	26.48
721.446	26.84
721.63	26.69
721.813	26.77
721.997	26.29
722.18	26.04
722.364	25.41
722.547	24.98
722.73	24.94
722.914	24.93
723.097	24.71
723.28	24.73
723.464	24.16
723.647	23.86
723.83	23.77
724.013	24.37
724.197	24.28
724.38	24.61
724.563	24.39
724.746	25.09
724.929	25.08
725.112	25.93
725.296	25.95
725.479	26.59
725.662	26.74
725.845	26.89
726.028	26.25
726.211	26.7
726.394	26.87
726.577	26.74
726.76	26.47
726.943	26.79
727.126	26.41
727.309	26.61
727.492	26.32
727.675	26.55
727.858	26.42
728.041	26.54
728.224	26.37
728.407	26.34
728.589	26.83
728.772	26.87
728.955	26.24
729.138	26.22
729.321	26.15
729.503	26.26
729.686	26.15
729.869	26.19
730.052	26.5
730.234	26.34
730.417	26.78
730.6	26.83
730.782	26.95
730.965	27.02
731.148	26.66
731.33	26.13
731.513	25.94
731.695	25.55
731.878	25.45
732.061	25.09
732.243	25.11
732.426	24.63
732.608	24.44
732.791	24.51
732.973	25.18
733.156	24.96
733.338	25.78
733.52	25.63
733.703	25.98
733.885	26.07
734.068	26.61
734.25	26.62
734.432	26.68
734.615	26.73
734.797	25.94
734.979	25.61
735.162	26.28
735.344	25.37
735.526	25.71
735.708	25.81
735.891	25.98
736.073	26.06
736.255	26.13
736.437	25.74
736.619	25.73
736.802	25.67
736.984	25.82
737.166	25.59
737.348	25.85
737.53	25.77
737.712	25.23
737.894	24.9
738.076	24.58
738.258	24.93
738.44	25.03
738.622	25.13
738.804	26.01
738.986	25.82
739.168	26
739.35	26.48
739.532	26.68
739.714	26.54
739.896	26.89
740.078	26.63
740.259	26.43
740.441	26.63
740.623	26.85
740.805	26.17
740.987	26
741.168	25.63
741.35	25.38
741.532	25.02
741.714	25.74
741.895	25.31
742.077	25.71
742.259	25.57
742.44	25.51
742.622	25.32
742.804	25.27
742.985	25.16
743.167	25.47
743.348	25.28
743.53	25.46
743.711	25.22
743.893	25.06
744.075	24.79
744.256	24.6
744.438	24.93
744.619	24.52
744.8	24.57
744.982	24.93
745.163	24.34
745.345	23.92
745.526	24.65
745.707	24.54
745.889	25.49
746.07	25.89
746.252	25.99
746.433	26.09
746.614	26.41
746.795	26.74
746.977	26.27
747.158	26.65
747.339	26.95
747.52	26.36
747.702	26.29
747.883	26.01
748.064	25.78
748.245	25.49
748.426	25.11
748.607	25.56
748.788	25.82
748.97	26.53
749.151	26.78
749.332	27.16
749.513	27.14
749.694	27.58
749.875	26.94
750.056	26.48
750.237	26.76
750.418	26.86
750.599	26.57
750.78	26.22
750.96	26.24
751.141	25.85
751.322	25.99
751.503	25.69
751.684	26.36
751.865	26.82
752.046	27.47
752.226	27.49
752.407	27.61
752.588	27.75
752.769	27.43
752.949	27.02
753.13	27.51
753.311	27.13
753.492	27.23
753.672	26.1
753.853	26.02
754.034	25.49
754.214	25.24
754.395	24.84
754.575	24.9
754.756	24.63
754.937	25.87
755.117	25.6
755.298	25.73
755.478	25.91
755.659	26.56
755.839	27
756.02	27.95
756.2	27.78
756.381	28.23
756.561	27.88
756.741	28.76
756.922	27.45
757.102	27.46
757.283	27.87
757.463	27.92
757.643	28
757.823	27.92
758.004	27.69
758.184	28.45
758.364	27.66
758.545	27.44
758.725	26.65
758.905	26.62
759.085	26.95
759.265	26.71
759.446	26.32
759.626	26.46
759.806	25.83
759.986	25.68
760.166	25.27
760.346	25.41
760.526	25.84
760.706	26.74
760.886	26.95
761.066	27.1
761.246	27.48
761.426	28.01
761.606	27.64
761.786	27.3
761.966	27.54
762.146	27.81
762.326	28.36
762.506	28.05
762.686	27.83
762.866	27.93
763.046	27.83
763.225	27.51
763.405	27.18
763.585	27.42
763.765	28.21
763.945	28.18
764.124	27.92
764.304	27.73
764.484	28.15
764.664	28.16
764.843	27.82
765.023	27.83
765.203	27.72
765.382	28.03
765.562	27.92
765.741	26.97
765.921	26.41
766.101	26.56
766.28	26.29
766.46	26.05
766.639	26.43
766.819	26.72
766.998	26.8
767.178	26.76
767.357	26.54
767.537	26.42
767.716	26.76
767.896	26.75
768.075	26.79
768.254	27.21
768.434	26.75
768.613	25.82
768.792	25.52
768.972	24.8
769.151	25.28
769.33	25.34
769.51	25.24
769.689	25.35
769.868	25.35
770.047	25.2
770.226	25.31
770.406	25.2
770.585	24.84
770.764	24.29
770.943	24.84
771.122	24.51
771.301	24.71
771.48	24.57
771.66	24.69
771.839	25.09
772.018	24.67
772.197	24.2
772.376	24.75
772.555	25.41
772.734	26.37
772.913	25.61
773.092	26.2
773.271	25.79
773.449	25.34
773.628	25.85
773.807	25.44
773.986	25.71
774.165	25.32
774.344	25.86
774.523	25.14
774.701	25.3
774.88	26.82
775.059	26.33
775.238	26.54
775.417	27.14
775.595	25.97
775.774	25.78
775.953	26.66
776.131	26.52
776.31	25.61
776.489	26.7
776.667	26.16
776.846	24.85
777.025	24.26
777.203	24.37
777.382	23.09
777.56	23.61
777.739	23.66
777.917	22.49
778.096	22.61
778.274	22.59
778.453	22.13
778.631	22.58
778.81	22.34
778.988	22.37
779.166	21.72
779.345	22.31
779.523	22.21
779.702	22.73
779.88	22.83
780.058	22.81
780.237	23.42
780.415	22.82
780.593	23.51
780.771	23.85
780.95	24.79
781.128	25.99
781.306	27.04
781.484	27.45
781.662	27.63
781.841	28.01
782.019	28.43
782.197	27.38
782.375	27.55
782.553	26.72
782.731	26.53
782.909	26.28
783.087	25.03
783.265	24.35
783.443	23.75
783.621	23.12
783.799	23.36
783.977	23.4
784.155	25.05
784.333	25.06
784.511	25.66
784.689	26.77
784.867	25.82
785.045	26.1
785.223	26.45
785.4	26.69
785.578	26.65
785.756	25.14
785.934	24.12
786.112	23.06
786.289	23.25
786.467	22.88
786.645	22.78
786.823	22.5
787	23.08
787.178	22.27
787.356	22.5
787.533	21.83
787.711	22.99
787.889	24.31
788.066	25.03
788.244	25.41
788.421	24.6
788.599	24.4
788.776	24.9
788.954	24.51
789.131	25.14
789.309	24.1
789.486	25.53
789.664	25.49
789.841	25.33
790.019	24.86
790.196	24.41
790.373	24.87
790.551	25.11
790.728	25.31
790.906	24.67
791.083	24.18
791.26	26.03
791.437	25.39
791.615	25.62
791.792	24.89
791.969	24.89
792.146	25.15
792.324	25.38
792.501	25.24
792.678	24.52
792.855	24.94
793.032	26.39
793.209	25.65
793.387	25.45
793.564	24.95
793.741	25.32
793.918	24.71
794.095	25.01
794.272	24.3
794.449	23.45
794.626	24.37
794.803	25.41
794.98	25.19
795.157	25.48
795.334	26.62
795.511	27.04
795.688	27.37
795.864	27.42
796.041	27.65
796.218	28.62
796.395	28.97
796.572	28.7
796.749	27.21
796.925	27.25
797.102	26.29
797.279	25.29
797.456	24.45
797.632	24.3
797.809	24.18
797.986	23.4
798.162	23.65
798.339	23.33
798.516	23.7
798.692	24.13
798.869	22.95
799.046	23.48
799.222	23.16
799.399	22.8
799.575	22.85
799.752	23.03
799.928	24.12
800.105	23.04
800.281	23.35
800.458	22.91
800.634	23.13
800.811	24.7
800.987	24.73
801.163	25.62
801.34	26.78
801.516	26.71
801.692	27.33
801.869	25.76
802.045	25.56
802.221	25.49
802.398	25.59
802.574	25.47
802.75	24.98
802.926	24.17
803.103	23.96
803.279	23.65
803.455	23.02
803.631	23.9
803.807	24.93
803.983	25.31
804.16	25.5
804.336	25.65
804.512	25.78
804.688	24.99
804.864	25.61
805.04	25.41
805.216	25.72
805.392	25.95
805.568	24.49
805.744	23.62
805.92	23.7
806.096	23.6
806.272	23.74
806.448	24.89
806.623	25.66
806.799	25.53
806.975	25.06
807.151	25.62
807.327	25.93
807.503	26.87
807.678	28.14
807.854	28.53
808.03	29.02
808.206	29.19
808.381	27.19
808.557	26.86
808.733	26.81
808.908	26.2
809.084	27.15
809.26	27.99
809.435	27.35
809.611	25.54
809.787	24.7
809.962	24.13
810.138	23.46
810.313	24.8
810.489	25.22
810.664	26.49
810.84	26.73
811.015	24.73
811.191	23.7
811.366	24.21
811.542	25.73
811.717	25.37
811.892	26.13
812.068	26.29
812.243	26.62
812.419	25.73
812.594	24.61
812.769	25.26
812.944	25.02
813.12	25.6
813.295	25.71
813.47	26.73
813.645	27.88
813.821	26.32
813.996	25.97
814.171	25.76
814.346	25.29
814.521	25.75
814.697	24.85
814.872	24.55
815.047	23.89
815.222	23.2
815.397	21.28
815.572	21.17
815.747	22.09
815.922	21.85
816.097	21.2
816.272	21.51
816.447	21.58
816.622	22.06
816.797	22.12
816.972	21.94
817.147	22.56
817.322	23.76
817.496	25.25
817.671	26.2
817.846	26.72
818.021	26.94
818.196	26.94
818.371	26.1
818.545	26.44
818.72	27.6
818.895	27.99
819.069	27.91
819.244	28.65
819.419	27.57
819.594	26.12
819.768	26.86
819.943	26.88
820.117	26.71
820.292	27.41
820.467	27.59
820.641	27.22
820.816	27.05
820.99	26.96
821.165	26.81
821.339	26.89
821.514	27.16
821.688	27.21
821.863	27.05
822.037	27.28
822.212	27.07
822.386	27.25
822.56	27.4
822.735	27.52
822.909	27.47
823.084	27.33
823.258	27.44
823.432	27.4
823.606	27.2
823.781	27.48
823.955	27.08
824.129	27.13
824.303	27.16
824.478	27.16
824.652	27.58
824.826	27.72
825	27.51
825.174	27.62
825.348	27.58
825.523	27.31
825.697	27.55
825.871	28.03
826.045	28.43
826.219	27.95
826.393	27.71
826.567	27.06
826.741	27.1
826.915	27.73
827.089	27.4
827.263	27.27
827.437	27.81
827.611	27.1
827.784	26.92
827.958	26.63
828.132	26.6
828.306	27.04
828.48	27.09
828.654	27.04
828.827	26.87
829.001	26.37
829.175	26.91
829.349	26.04
829.522	25.74
829.696	25.78
829.87	25.68
830.044	26.16
830.217	25.36
830.391	25.27
830.565	25.06
830.738	25.2
830.912	26.06
831.085	26.19
831.259	26.67
831.432	28.67
831.606	28.6
831.779	27.73
831.953	28.31
832.126	27.91
832.3	27.62
832.473	27.57
832.647	26.06
832.82	25.68
832.994	24.99
833.167	25.86
833.34	25.67
833.514	25.87
833.687	26.4
833.86	26.07
834.034	25.71
834.207	26.67
834.38	27.03
834.553	27.91
834.727	28.3
834.9	29.54
835.073	29.37
835.246	28.46
835.419	28.31
835.593	29.23
835.766	28.97
835.939	30.22
836.112	29.4
836.285	27.61
836.458	26.61
836.631	27.2
836.804	25.61
836.977	25.4
837.15	25.14
837.323	26.27
837.496	24.63
837.669	24.54
837.842	23.17
838.015	21.91
838.188	23.05
838.361	22.22
838.533	20.08
838.706	21.89
838.879	19.69
839.052	21.28
839.225	20.18
839.398	20.06
839.57	21.39
839.743	21.91
839.916	24.9
840.088	25.4
840.261	26.88
840.434	27.43
840.607	27.47
840.779	29.46
840.952	30.23
841.124	29.85
841.297	30.88
841.47	29.68
841.642	29.77
841.815	27.47
841.987	28.73
842.16	29.06
842.332	29.43
842.505	27.21
842.677	26.23
842.85	27.42
843.022	28.46
843.194	27.71
843.367	28.77
843.539	29.15
843.712	28.99
843.884	25.3
844.056	21.62
844.229	18.88
844.401	21.17
844.573	19.25
844.745	14.43
844.918	13.66
845.09	10.97
845.262	7.93
845.434	7.31
845.606	6.58
845.779	10.54
845.951	14.53
846.123	16.92
846.295	15.78
846.467	16.12
846.639	20.56
846.811	20.55
846.983	20.56
847.155	21.81
847.327	22.09
847.499	23.05
847.671	22.47
847.843	17.66
848.015	15.62
848.187	14.52
848.359	16.77
848.531	12.59
848.703	14.32
848.875	19.81
849.047	19.13
849.218	16.74
849.39	12.77
849.562	14.09
849.734	18.84
849.905	18.07
850.077	19.15
850.249	15.3
850.421	15.86
850.592	12.8
850.764	9.87
850.936	10.74
851.107	14.4
851.279	20.05
851.451	16.67
851.622	12.57
851.794	15.3
851.965	19.4
852.137	21.26
852.308	20.34
852.48	22.9
852.651	22.28
852.823	26.56
852.994	25.83
853.166	25.11
853.337	25.99
853.509	31
853.68	30.37
853.851	26.03
854.023	27.92
854.194	31.73
854.365	31.33
854.537	28.67
854.708	26.29
854.879	23.54
855.05	21.87
855.222	21.71
855.393	19.19
855.564	21.54
855.735	20.7
855.906	21.56
856.078	16.02
856.249	17.55
856.42	23.51
856.591	22.83
856.762	27.74
856.933	25.92
857.104	28.38
857.275	27.71
857.446	27.64
857.617	27.78
857.788	27.7
857.959	33.27
858.13	35.56
858.301	34.01
858.472	30.77
858.643	28.52
858.814	28.46
858.985	30.44
859.155	29.92
859.326	31.8
859.497	30.91
859.668	29.19
859.839	27.06
860.009	22.41
860.18	17.16
860.351	20.02
860.522	20.98
860.692	25.9
860.863	22.27
861.034	23.45
861.204	20.06
861.375	22.83
861.546	20.63
861.716	18.83
861.887	23.03
862.057	29.21
862.228	27.85
862.398	24.05
862.569	23.92
862.739	24.35
862.91	26.23
863.08	28.82
863.251	25.55
863.421	25.15
863.592	26.94
863.762	24.91
863.932	21.41
864.103	20.09
864.273	27.42
864.443	26.98
864.614	26.62
864.784	25.94
864.954	18.58
865.125	23.28
865.295	26.46
865.465	22.52
865.635	22.28
865.805	27.95
865.976	25.9
866.146	17.85
866.316	18.02
866.486	16.05
866.656	13.24
866.826	20.47
866.996	15.92
867.166	16.2
867.336	16.68
867.506	13.59
867.676	3.88
867.846	5.26
868.016	11.42
868.186	13.31
868.356	11.17
868.526	7.7
868.696	8.31
868.866	17.29
869.036	12.31
869.206	14.34
869.376	15.13
869.545	21.4
869.715	24.53
869.885	22.94
870.055	20.13
870.224	21.39
870.394	28.02
870.564	28.82
870.734	24.7
870.903	28.09
871.073	26.23
871.243	26.27
871.412	27.36
871.582	22.93
871.751	20.11
871.921	20.91
872.091	20.96
872.26	20.04
872.43	17.9
872.599	18.6
872.769	23.56
872.938	28.06
873.108	29.71
873.277	26.32
873.446	30.55
873.616	33.03
873.785	37.14
873.955	40.01
874.124	38.48
874.293	38.28
874.463	34.09
874.632	31.79
874.801	30
874.971	30.95
875.14	34.64
875.309	34.75
875.478	35.06
875.647	30.59
875.817	29.14
875.986	33.31
876.155	33.33
876.324	37
876.493	35.4
876.662	32.32
876.831	30.77
877	28.57
877.17	26.58
877.339	28.07
877.508	30.82
877.677	30.54
877.846	23.55
878.015	23.37
878.184	23.14
878.352	19.6
878.521	18.98
878.69	19.05
878.859	20.51
879.028	19.5
879.197	16.84
879.366	15.25
879.534	16.61
879.703	19.85
879.872	17.04
880.041	19.1
880.21	21.81
880.378	23.85
880.547	24.3
880.716	23.58
880.884	24.6
881.053	25.25
881.222	25.57
881.39	25.35
881.559	26.12
881.727	28.44
881.896	28.23
882.065	27.78
882.233	27.99
882.402	28.39
882.57	29.11
882.739	29.67
882.907	30.28
883.076	30.65
883.244	30.99
883.412	31.29
883.581	30.45
883.749	30.4
883.918	31.12
884.086	31.02
884.254	30.26
884.423	30.43
884.591	29.84
884.759	29.27
884.927	29.1
885.096	27.73
885.264	27.54
885.432	27.56
885.6	27.75
885.769	27.09
885.937	26
886.105	27.41
886.273	26.75
886.441	27.21
886.609	27.65
886.777	24.97
886.945	26.56
887.113	23.97
887.281	27.26
887.449	26.34
887.617	27.68
887.785	29.35
887.953	25.23
888.121	26.61
888.289	24.47
888.457	23.62
888.625	27.95
888.793	29.74
888.961	30.06
889.129	27.45
889.296	26.86
889.464	25.45
889.632	24.33
889.8	28.52
889.967	23.2
890.135	25.57
