Data from 2938469_Reflection_1.txt Node
Date: Wed Jun 17 13:39:01 EDT 2015
User: robert
Spectrometer: USB4E03002
Autoset integration time: false
Trigger mode: 4
Integration Time (sec): 1.000000E-1
Scans to average: 10
Electric dark correction enabled: true
Nonlinearity correction enabled: false
Boxcar width: 5
Stray light correction enabled: false
XAxis mode: Wavelengths
Stop averaging: false
Number of Pixels in Spectrum: 3648
>>>>>Begin Spectral Data<<<<<
177.575	-47.69
177.794	-17.26
178.014	1.11
178.233	-0.7
178.452	10.41
178.672	38.64
178.891	48.69
179.11	1.37
179.33	-7.67
179.549	0.02
179.768	-13.63
179.987	-18.37
180.207	-21.21
180.426	-32.53
180.645	-47.12
180.864	-36.58
181.084	-11.58
181.303	-259.32
181.522	200.55
181.741	73.33
181.96	59.77
182.179	56.06
182.398	26.45
182.618	10.87
182.837	-26.73
183.056	-43.95
183.275	-40.03
183.494	-46.98
183.713	-48.85
183.932	-25.84
184.151	-32.75
184.37	-36.52
184.589	21.01
184.808	48.57
185.027	75.59
185.246	136.62
185.465	68.19
185.684	45.66
185.903	77.31
186.122	69.5
186.341	645.31
186.56	604.69
186.779	149.95
186.998	219.62
187.216	46.81
187.435	82.37
187.654	-1846.51
187.873	-136.01
188.092	119.32
188.311	192.93
188.53	132.29
188.748	216.38
188.967	303.27
189.186	13.74
189.405	-1377.42
189.623	186.55
189.842	114.29
190.061	125.64
190.28	92.05
190.498	26.48
190.717	-26.5
190.936	332.59
191.154	-387.09
191.373	-108.77
191.592	-31.3
191.81	-42.04
192.029	-107.65
192.248	-347.52
192.466	493.32
192.685	800.15
192.904	-20.29
193.122	-8.17
193.341	10.73
193.559	121.98
193.778	113.45
193.996	78.27
194.215	171.17
194.433	22.9
194.652	69.2
194.87	60.65
195.089	52.54
195.307	-189.16
195.526	-236.33
195.744	-243.86
195.963	-78.63
196.181	-7.92
196.399	12.93
196.618	37.82
196.836	76.62
197.055	175.76
197.273	242.1
197.491	185.76
197.71	173.09
197.928	304.94
198.146	376.01
198.365	465.74
198.583	4938.4
198.801	-184.77
199.019	-330.57
199.238	-248.6
199.456	34.57
199.674	-57.76
199.892	-108.57
200.111	-291.45
200.329	274.87
200.547	2935.62
200.765	2.55
200.983	-64.5
201.202	356.15
201.42	303.68
201.638	350.67
201.856	177.19
202.074	110.93
202.292	271.34
202.51	215.68
202.728	227.91
202.946	125.15
203.165	152.09
203.383	124.79
203.601	85.6
203.819	25.11
204.037	-7.77
204.255	45.3
204.473	488.41
204.691	71.61
204.909	-100.9
205.127	-80.69
205.345	-108.71
205.562	-76.69
205.78	-139.19
205.998	615.42
206.216	455.46
206.434	-188.38
206.652	8.53
206.87	22.45
207.088	-1.9
207.306	-11.45
207.523	-4.8
207.741	7.54
207.959	49.35
208.177	49.82
208.395	46.57
208.612	62.43
208.83	51.7
209.048	47.93
209.266	64.91
209.483	75.56
209.701	65.69
209.919	99.48
210.136	71.86
210.354	44.43
210.572	54.36
210.79	64.2
211.007	56.04
211.225	39.45
211.442	45.42
211.66	22.23
211.878	5.75
212.095	-7.88
212.313	-8.45
212.53	0.43
212.748	2.07
212.966	14.12
213.183	4.86
213.401	-14.28
213.618	-15.59
213.836	-19.36
214.053	-13.67
214.271	-2.47
214.488	37.05
214.705	48.26
214.923	38.8
215.14	68.19
215.358	64.87
215.575	92.24
215.793	326.81
216.01	146.1
216.227	111.95
216.445	80.32
216.662	58.04
216.879	56.45
217.097	72.19
217.314	70.55
217.531	75.28
217.749	68.2
217.966	58.35
218.183	56.13
218.4	50.17
218.618	50.87
218.835	59.84
219.052	55.44
219.269	47.96
219.487	35.48
219.704	39.62
219.921	23.85
220.138	24.4
220.355	25.04
220.572	32.92
220.79	36.17
221.007	34.36
221.224	30.14
221.441	41.98
221.658	53.29
221.875	55.76
222.092	45.44
222.309	40.24
222.526	33.78
222.743	33.09
222.96	31.81
223.177	25.24
223.394	13.98
223.611	19.92
223.828	18.29
224.045	13.72
224.262	9.77
224.479	13.9
224.696	16.9
224.913	13.39
225.13	10.96
225.347	6.5
225.564	8.27
225.781	12.04
225.997	10.88
226.214	11.97
226.431	12.39
226.648	13.68
226.865	12.67
227.082	13.08
227.298	14.13
227.515	14.69
227.732	15.42
227.949	14.2
228.165	13.27
228.382	13.98
228.599	14.37
228.816	14.49
229.032	13.79
229.249	13.43
229.466	12.45
229.682	12.01
229.899	12.06
230.116	11.13
230.332	13.31
230.549	14.26
230.765	13.05
230.982	9.19
231.199	9.59
231.415	11.47
231.632	13.05
231.848	14.03
232.065	13.19
232.281	13.59
232.498	12.89
232.714	12.73
232.931	12.98
233.147	12.07
233.364	14
233.58	12.26
233.797	11.14
234.013	10.35
234.23	9.87
234.446	10.99
234.662	10.9
234.879	13.08
235.095	14.67
235.312	12.42
235.528	15.76
235.744	15.09
235.961	16.46
236.177	16.32
236.393	16.1
236.61	15.36
236.826	14.75
237.042	14.52
237.258	11.92
237.475	10.95
237.691	13.48
237.907	12.28
238.123	14.43
238.339	13.29
238.556	12.87
238.772	13.14
238.988	13.07
239.204	12.15
239.42	11.64
239.636	12.04
239.853	11.54
240.069	10.84
240.285	10.02
240.501	8.52
240.717	9.63
240.933	9.54
241.149	9.99
241.365	9.51
241.581	10.03
241.797	9.46
242.013	9.88
242.229	9.51
242.445	9.9
242.661	10.15
242.877	11.31
243.093	10.83
243.309	10.67
243.525	9.77
243.741	11.06
243.957	11.3
244.173	11.66
244.388	11.29
244.604	11.48
244.82	11.5
245.036	11.08
245.252	10.54
245.468	10.06
245.683	10.58
245.899	10.59
246.115	10.33
246.331	9.94
246.547	9.89
246.762	9.78
246.978	9.77
247.194	9.59
247.409	9.36
247.625	9.79
247.841	10
248.057	9.18
248.272	9.24
248.488	9.15
248.703	9.22
248.919	9.35
249.135	9.68
249.35	9.22
249.566	8.94
249.782	8.9
249.997	8.45
250.213	8.63
250.428	8.75
250.644	8.47
250.859	8.73
251.075	8.97
251.29	8.75
251.506	8.45
251.721	8.68
251.937	8.51
252.152	8.74
252.368	9.17
252.583	9.1
252.798	10.39
253.014	10
253.229	9.83
253.445	10.03
253.66	10.92
253.875	11.2
254.091	10.41
254.306	10.41
254.521	11.61
254.737	9.88
254.952	9.6
255.167	8.28
255.383	9.34
255.598	9.6
255.813	8.73
256.028	8.08
256.244	7.67
256.459	8.07
256.674	8.21
256.889	7.82
257.104	7.82
257.32	8.02
257.535	8.28
257.75	8.11
257.965	7.94
258.18	7.92
258.395	8.06
258.61	8.11
258.826	7.89
259.041	7.67
259.256	7.63
259.471	7.99
259.686	7.62
259.901	7.45
260.116	7.35
260.331	7.64
260.546	7.56
260.761	6.89
260.976	7.44
261.191	7.79
261.406	8.48
261.621	7.89
261.836	7.85
262.05	8.33
262.265	8.7
262.48	8.76
262.695	7.83
262.91	8.54
263.125	9.54
263.34	8.8
263.555	8.65
263.769	8.04
263.984	8.79
264.199	8.13
264.414	7.3
264.629	7.38
264.843	7.38
265.058	7.4
265.273	7.54
265.488	7.66
265.702	7.6
265.917	7.38
266.132	7.32
266.346	7.27
266.561	7.75
266.776	8.83
266.99	8.53
267.205	8.54
267.42	9.08
267.634	9.16
267.849	8.52
268.063	8
268.278	8.24
268.492	8.61
268.707	8.75
268.922	8.26
269.136	7.14
269.351	6.66
269.565	6.45
269.78	5.74
269.994	5.46
270.209	6.1
270.423	6.33
270.637	6.42
270.852	6.12
271.066	5.52
271.281	5.67
271.495	5.84
271.709	6.19
271.924	6.2
272.138	6.56
272.353	6.69
272.567	5.74
272.781	5.76
272.996	5.71
273.21	6.17
273.424	6.61
273.638	7.04
273.853	7.51
274.067	7.55
274.281	7.82
274.495	8.35
274.71	8.05
274.924	8.44
275.138	8.46
275.352	8.46
275.566	8.08
275.781	8.31
275.995	7.65
276.209	8.04
276.423	8.04
276.637	7.92
276.851	6.7
277.065	6.27
277.279	6.97
277.493	7.15
277.707	7.06
277.921	7.39
278.135	7.05
278.349	7.31
278.563	6.65
278.777	6.65
278.991	6.74
279.205	7.52
279.419	7.99
279.633	7.36
279.847	7.14
280.061	6.96
280.275	6.83
280.489	6.65
280.703	6.99
280.917	7.28
281.131	7.66
281.344	7.54
281.558	7.01
281.772	7
281.986	7.22
282.2	7.3
282.414	7.28
282.627	7.3
282.841	7.14
283.055	7.1
283.269	6.83
283.482	6.54
283.696	6.34
283.91	6.6
284.123	6.57
284.337	6.56
284.551	6.66
284.764	6.83
284.978	6.87
285.192	6.84
285.405	6.75
285.619	6.75
285.833	6.67
286.046	7.27
286.26	7.31
286.473	7.67
286.687	7.46
286.9	6.98
287.114	6.83
287.327	6.74
287.541	7.36
287.754	7.33
287.968	7.3
288.181	7.15
288.395	6.61
288.608	6.79
288.822	6.74
289.035	7.17
289.248	7.64
289.462	7.98
289.675	7.54
289.889	7.62
290.102	7.29
290.315	7.39
290.529	7.9
290.742	8.27
290.955	8.21
291.169	8.34
291.382	8.06
291.595	8.31
291.808	8.24
292.022	8.95
292.235	8.56
292.448	8.73
292.661	8.87
292.875	8.64
293.088	8.85
293.301	9.21
293.514	8.97
293.727	8.45
293.94	8.15
294.153	7.99
294.367	8.02
294.58	8.19
294.793	8.53
295.006	8.86
295.219	8.8
295.432	8.68
295.645	8.32
295.858	8.01
296.071	8.56
296.284	8.81
296.497	9.08
296.71	8.7
296.923	8.54
297.136	8.36
297.349	8.37
297.562	8.28
297.775	8.46
297.988	8.81
298.201	9.31
298.414	9.1
298.626	8.92
298.839	8.62
299.052	8.74
299.265	8.92
299.478	8.89
299.691	8.68
299.903	8.82
300.116	8.59
300.329	8.38
300.542	8.12
300.755	8.56
300.967	8.59
301.18	9.09
301.393	9.61
301.605	9.82
301.818	9.8
302.031	9.96
302.243	10.1
302.456	10.34
302.669	10.22
302.881	10.23
303.094	10.15
303.307	10.47
303.519	10.18
303.732	10.24
303.944	10.3
304.157	10.51
304.37	10.16
304.582	10.07
304.795	9.61
305.007	10.07
305.22	10.72
305.432	10.37
305.645	9.59
305.857	9.69
306.069	9.67
306.282	9.76
306.494	9.78
306.707	10.08
306.919	10.6
307.132	10.55
307.344	10.42
307.556	10.12
307.769	10.35
307.981	10.91
308.193	10.82
308.406	10.45
308.618	10.07
308.83	9.81
309.043	9.81
309.255	9.47
309.467	9.36
309.679	9.19
309.892	8.76
310.104	8.87
310.316	8.92
310.528	8.91
310.74	9.08
310.953	9.22
311.165	9.39
311.377	9.47
311.589	9.72
311.801	10.13
312.013	10.36
312.225	10.85
312.437	10.84
312.649	10.46
312.862	10.59
313.074	10.47
313.286	10.62
313.498	10.74
313.71	10.53
313.922	10.34
314.134	10.17
314.346	10.13
314.558	10.44
314.77	10.07
314.982	10.47
315.193	10.28
315.405	10.13
315.617	10.09
315.829	9.74
316.041	9.64
316.253	9.45
316.465	9.6
316.677	9.39
316.888	9.6
317.1	10.02
317.312	10
317.524	9.94
317.736	9.84
317.947	10.23
318.159	10.85
318.371	10.71
318.583	10.67
318.794	10.78
319.006	10.93
319.218	10.38
319.43	10.23
319.641	10.59
319.853	10.81
320.064	11.14
320.276	10.83
320.488	10.56
320.699	10.53
320.911	11.4
321.123	11.03
321.334	10.97
321.546	11.05
321.757	10.91
321.969	10.29
322.18	10.64
322.392	10.18
322.603	10.39
322.815	10.01
323.026	10.73
323.238	10.1
323.449	10.16
323.661	10.03
323.872	9.96
324.083	10.25
324.295	10.42
324.506	10.14
324.718	10.62
324.929	10.83
325.14	11.2
325.352	11.35
325.563	11.79
325.774	12.2
325.986	12.4
326.197	12.72
326.408	12.75
326.62	12.54
326.831	12.31
327.042	12.91
327.253	12.59
327.464	12.79
327.676	12.44
327.887	11.63
328.098	11.84
328.309	11.92
328.52	11.71
328.732	11.64
328.943	12.11
329.154	12.54
329.365	12.06
329.576	11.83
329.787	11.7
329.998	11.63
330.209	12.02
330.42	11.6
330.631	11.49
330.842	11.44
331.053	11.3
331.264	10.66
331.475	10.57
331.686	10.35
331.897	10.13
332.108	9.85
332.319	9.62
332.53	9.45
332.741	9.25
332.952	9.12
333.163	8.94
333.374	9.16
333.585	9.52
333.795	9.66
334.006	9.8
334.217	10.01
334.428	10.58
334.639	10.85
334.849	11.16
335.06	11.2
335.271	11.34
335.482	11.38
335.692	11.2
335.903	11.14
336.114	10.64
336.325	10.64
336.535	10.91
336.746	10.33
336.957	10.27
337.167	10.06
337.378	10
337.589	9.91
337.799	9.68
338.01	9.79
338.22	10.1
338.431	10.14
338.642	9.98
338.852	9.92
339.063	9.96
339.273	9.67
339.484	9.74
339.694	9.97
339.905	10
340.115	10.43
340.326	10.26
340.536	10.23
340.746	10.53
340.957	11.04
341.167	10.63
341.378	10.57
341.588	10.79
341.799	10.87
342.009	10.71
342.219	10.65
342.43	10.43
342.64	10.67
342.85	10.26
343.061	10.07
343.271	9.79
343.481	9.88
343.691	10.11
343.902	10.23
344.112	10.2
344.322	10.25
344.532	10.03
344.743	10.27
344.953	10.05
345.163	10.51
345.373	10.6
345.583	10.29
345.793	10.61
346.004	10.41
346.214	10.27
346.424	10.22
346.634	10.12
346.844	10.37
347.054	10.01
347.264	10.02
347.474	9.66
347.684	9.8
347.894	9.93
348.104	9.26
348.314	9.43
348.524	9.12
348.734	8.97
348.944	8.9
349.154	9.06
349.364	9.22
349.574	9.05
349.784	8.99
349.994	8.8
350.204	8.85
350.413	9.33
350.623	9.35
350.833	9.35
351.043	9.4
351.253	9.49
351.463	9.14
351.672	9.12
351.882	9.36
352.092	9.13
352.302	9.27
352.511	8.93
352.721	9
352.931	9.05
353.141	9.27
353.35	9.29
353.56	9.56
353.77	9.57
353.979	9.53
354.189	9.67
354.399	9.82
354.608	9.79
354.818	10.02
355.027	10
355.237	9.56
355.447	9.05
355.656	9.01
355.866	8.6
356.075	8.62
356.285	8.55
356.494	8.36
356.704	8.29
356.913	8.15
357.123	8
357.332	7.69
357.542	7.72
357.751	8.12
357.96	8.25
358.17	8.45
358.379	8.57
358.589	8.67
358.798	8.53
359.007	8.41
359.217	8.34
359.426	8.5
359.635	8.66
359.845	8.59
360.054	8.52
360.263	8.26
360.472	7.96
360.682	7.98
360.891	7.84
361.1	7.91
361.309	8.14
361.519	8.14
361.728	8.08
361.937	8.04
362.146	8.32
362.355	8.4
362.564	8.84
362.774	9.03
362.983	8.76
363.192	8.69
363.401	8.77
363.61	8.49
363.819	8.72
364.028	8.44
364.237	8.61
364.446	8.53
364.655	8.27
364.864	7.87
365.073	7.81
365.282	8.11
365.491	8.09
365.7	8.13
365.909	8.17
366.118	7.84
366.327	7.96
366.536	7.98
366.745	7.95
366.954	8.14
367.162	8.1
367.371	8.3
367.58	8.28
367.789	8.44
367.998	8.02
368.207	8.13
368.415	8.22
368.624	7.98
368.833	7.72
369.042	7.76
369.25	7.77
369.459	8.12
369.668	7.82
369.877	7.69
370.085	7.61
370.294	7.79
370.503	7.75
370.711	7.86
370.92	7.93
371.129	7.8
371.337	7.78
371.546	7.64
371.754	7.32
371.963	7.2
372.171	7.58
372.38	7.54
372.589	7.63
372.797	7.7
373.006	7.56
373.214	7.94
373.423	7.87
373.631	7.73
373.84	7.73
374.048	8.1
374.256	8.11
374.465	7.75
374.673	7.87
374.882	7.7
375.09	7.67
375.298	7.8
375.507	7.72
375.715	7.77
375.923	7.84
376.132	7.89
376.34	7.67
376.548	7.94
376.757	7.9
376.965	7.64
377.173	7.75
377.381	7.54
377.59	7.37
377.798	7.48
378.006	7.46
378.214	7.64
378.423	7.79
378.631	7.42
378.839	7.41
379.047	7.41
379.255	7.65
379.463	7.51
379.671	7.74
379.879	7.71
380.088	7.66
380.296	7.8
380.504	7.46
380.712	7.38
380.92	7.46
381.128	7.13
381.336	7.15
381.544	7.06
381.752	6.95
381.96	7.03
382.168	6.94
382.376	6.83
382.584	6.69
382.791	6.68
382.999	6.58
383.207	6.7
383.415	6.98
383.623	7.12
383.831	7.14
384.039	7.22
384.247	7.11
384.454	7.15
384.662	7
384.87	7.06
385.078	7
385.285	6.96
385.493	6.96
385.701	6.83
385.909	6.66
386.116	6.73
386.324	6.7
386.532	6.44
386.739	6.32
386.947	6.3
387.155	6.23
387.362	6.26
387.57	6.24
387.778	6.12
387.985	6.06
388.193	6.05
388.4	5.76
388.608	5.88
388.816	5.91
389.023	5.99
389.231	5.99
389.438	6.03
389.646	6.02
389.853	6.17
390.061	6.28
390.268	6.46
390.475	6.41
390.683	6.52
390.89	6.49
391.098	6.65
391.305	6.78
391.512	6.81
391.72	6.67
391.927	6.59
392.135	6.49
392.342	6.26
392.549	6.18
392.756	6.16
392.964	6.18
393.171	6.12
393.378	6.07
393.586	6.05
393.793	5.96
394	6.15
394.207	6.26
394.414	6.41
394.622	6.45
394.829	6.31
395.036	6.33
395.243	6.1
395.45	5.9
395.657	5.99
395.864	5.95
396.072	6.09
396.279	5.97
396.486	5.96
396.693	5.79
396.9	5.93
397.107	6.13
397.314	6.32
397.521	6.57
397.728	6.72
397.935	6.51
398.142	6.28
398.349	6.29
398.556	6.08
398.763	6.03
398.97	5.87
399.177	5.65
399.383	5.56
399.59	5.5
399.797	5.55
400.004	5.6
400.211	5.67
400.418	5.82
400.625	5.74
400.831	5.97
401.038	6.04
401.245	6.06
401.452	6.28
401.658	6.26
401.865	6.19
402.072	6.01
402.279	5.99
402.485	5.78
402.692	5.72
402.899	5.65
403.105	5.57
403.312	5.58
403.519	5.67
403.725	5.59
403.932	5.55
404.138	5.39
404.345	5.43
404.552	5.1
404.758	5.3
404.965	5.32
405.171	5.33
405.378	5.34
405.584	5.35
405.791	5.4
405.997	5.28
406.204	5.2
406.41	5.41
406.617	5.39
406.823	5.63
407.029	5.47
407.236	5.42
407.442	5.49
407.649	5.6
407.855	5.37
408.061	5.38
408.268	5.31
408.474	5.49
408.68	5.29
408.887	5.4
409.093	5.26
409.299	5.45
409.505	5.49
409.712	5.38
409.918	5.35
410.124	5.58
410.33	5.36
410.537	5.48
410.743	5.16
410.949	5.06
411.155	4.99
411.361	5.01
411.567	4.9
411.773	4.91
411.98	4.82
412.186	4.76
412.392	4.57
412.598	4.7
412.804	4.64
413.01	4.8
413.216	4.86
413.422	4.84
413.628	5.09
413.834	5.17
414.04	5.04
414.246	5.18
414.452	5.24
414.658	5.29
414.864	5.3
415.07	5.53
415.275	5.57
415.481	5.54
415.687	5.55
415.893	5.5
416.099	5.38
416.305	5.47
416.511	5.38
416.716	5.3
416.922	5.23
417.128	5.3
417.334	5.23
417.539	5.14
417.745	5.19
417.951	5.04
418.157	5.13
418.362	5.11
418.568	5.05
418.774	5.16
418.979	5.18
419.185	5.16
419.391	5.08
419.596	4.97
419.802	4.95
420.008	4.98
420.213	5.17
420.419	5.04
420.624	5.09
420.83	5.12
421.035	5.06
421.241	5.06
421.446	5.12
421.652	5.05
421.857	5.08
422.063	5.11
422.268	5.14
422.474	4.95
422.679	4.99
422.885	5
423.09	5.02
423.295	5.03
423.501	5.04
423.706	5.09
423.911	5.07
424.117	5.01
424.322	4.99
424.527	4.89
424.733	4.96
424.938	4.85
425.143	4.78
425.349	4.72
425.554	4.78
425.759	4.69
425.964	4.57
426.169	4.59
426.375	4.84
426.58	4.8
426.785	4.85
426.99	4.9
427.195	4.88
427.4	4.95
427.605	4.91
427.811	4.75
428.016	4.75
428.221	4.83
428.426	4.95
428.631	4.81
428.836	4.9
429.041	4.94
429.246	4.82
429.451	4.86
429.656	4.83
429.861	4.91
430.066	4.9
430.271	4.86
430.476	4.85
430.681	4.81
430.886	4.83
431.09	4.81
431.295	4.79
431.5	4.85
431.705	4.79
431.91	4.79
432.115	4.82
432.32	4.83
432.524	4.78
432.729	4.78
432.934	4.66
433.139	4.71
433.343	4.66
433.548	4.62
433.753	4.6
433.958	4.83
434.162	4.8
434.367	4.77
434.572	4.71
434.776	4.79
434.981	4.76
435.186	4.9
435.39	4.84
435.595	4.88
435.799	4.85
436.004	4.85
436.209	4.68
436.413	4.69
436.618	4.58
436.822	4.76
437.027	4.84
437.231	4.81
437.436	4.71
437.64	4.62
437.845	4.58
438.049	4.49
438.253	4.58
438.458	4.63
438.662	4.61
438.867	4.68
439.071	4.72
439.275	4.68
439.48	4.64
439.684	4.77
439.888	4.8
440.093	4.87
440.297	4.93
440.501	4.81
440.706	4.82
440.91	4.86
441.114	4.88
441.318	4.73
441.523	4.64
441.727	4.75
441.931	4.68
442.135	4.58
442.339	4.5
442.543	4.41
442.748	4.51
442.952	4.55
443.156	4.57
443.36	4.54
443.564	4.62
443.768	4.65
443.972	4.64
444.176	4.67
444.38	4.69
444.584	4.73
444.788	4.84
444.992	4.85
445.196	4.74
445.4	4.72
445.604	4.64
445.808	4.59
446.012	4.59
446.216	4.55
446.42	4.46
446.624	4.48
446.828	4.49
447.032	4.44
447.235	4.32
447.439	4.4
447.643	4.35
447.847	4.39
448.051	4.46
448.254	4.51
448.458	4.54
448.662	4.53
448.866	4.47
449.069	4.42
449.273	4.47
449.477	4.6
449.681	4.58
449.884	4.75
450.088	4.72
450.292	4.57
450.495	4.44
450.699	4.59
450.902	4.67
451.106	4.78
451.31	4.69
451.513	4.7
451.717	4.64
451.92	4.59
452.124	4.38
452.327	4.39
452.531	4.44
452.734	4.54
452.938	4.39
453.141	4.44
453.345	4.36
453.548	4.39
453.752	4.39
453.955	4.35
454.158	4.39
454.362	4.37
454.565	4.47
454.769	4.43
454.972	4.35
455.175	4.33
455.379	4.21
455.582	4.22
455.785	4.24
455.988	4.17
456.192	4.15
456.395	4.11
456.598	4.13
456.801	4.05
457.005	4.1
457.208	4.16
457.411	4.2
457.614	4.2
457.817	4.3
458.021	4.32
458.224	4.36
458.427	4.45
458.63	4.53
458.833	4.53
459.036	4.47
459.239	4.49
459.442	4.45
459.645	4.4
459.848	4.42
460.051	4.35
460.254	4.4
460.457	4.36
460.66	4.32
460.863	4.18
461.066	4.2
461.269	4.29
461.472	4.26
461.675	4.17
461.878	4.15
462.081	4.24
462.284	4.25
462.486	4.27
462.689	4.29
462.892	4.29
463.095	4.27
463.298	4.33
463.5	4.42
463.703	4.51
463.906	4.58
464.109	4.66
464.311	4.59
464.514	4.63
464.717	4.54
464.92	4.61
465.122	4.62
465.325	4.66
465.528	4.72
465.73	4.7
465.933	4.63
466.135	4.6
466.338	4.5
466.541	4.44
466.743	4.38
466.946	4.45
467.148	4.43
467.351	4.37
467.553	4.4
467.756	4.27
467.958	4.17
468.161	4.11
468.363	4.16
468.566	4.31
468.768	4.45
468.971	4.44
469.173	4.44
469.375	4.3
469.578	4.26
469.78	4.23
469.983	4.22
470.185	4.18
470.387	4.16
470.59	4.05
470.792	3.91
470.994	3.82
471.196	3.77
471.399	3.73
471.601	3.83
471.803	3.8
472.005	3.87
472.208	3.85
472.41	3.9
472.612	3.9
472.814	3.96
473.016	4.11
473.218	4.19
473.421	4.29
473.623	4.19
473.825	4.3
474.027	4.45
474.229	4.39
474.431	4.51
474.633	4.55
474.835	4.53
475.037	4.62
475.239	4.56
475.441	4.45
475.643	4.47
475.845	4.5
476.047	4.47
476.249	4.41
476.451	4.44
476.653	4.43
476.855	4.41
477.057	4.55
477.258	4.52
477.46	4.45
477.662	4.46
477.864	4.39
478.066	4.52
478.268	4.52
478.469	4.59
478.671	4.5
478.873	4.4
479.075	4.46
479.276	4.41
479.478	4.42
479.68	4.41
479.882	4.44
480.083	4.49
480.285	4.44
480.487	4.37
480.688	4.34
480.89	4.45
481.091	4.47
481.293	4.45
481.495	4.46
481.696	4.43
481.898	4.44
482.099	4.4
482.301	4.35
482.502	4.35
482.704	4.38
482.905	4.36
483.107	4.35
483.308	4.37
483.51	4.39
483.711	4.39
483.913	4.41
484.114	4.42
484.315	4.42
484.517	4.48
484.718	4.46
484.92	4.46
485.121	4.48
485.322	4.44
485.524	4.42
485.725	4.41
485.926	4.39
486.127	4.38
486.329	4.37
486.53	4.39
486.731	4.34
486.932	4.4
487.134	4.42
487.335	4.4
487.536	4.42
487.737	4.4
487.938	4.37
488.139	4.37
488.341	4.36
488.542	4.36
488.743	4.34
488.944	4.38
489.145	4.33
489.346	4.28
489.547	4.29
489.748	4.26
489.949	4.29
490.15	4.31
490.351	4.31
490.552	4.37
490.753	4.4
490.954	4.41
491.155	4.39
491.356	4.38
491.557	4.41
491.758	4.44
491.959	4.44
492.159	4.47
492.36	4.42
492.561	4.39
492.762	4.31
492.963	4.34
493.164	4.32
493.364	4.34
493.565	4.36
493.766	4.35
493.967	4.31
494.167	4.42
494.368	4.46
494.569	4.56
494.769	4.59
494.97	4.57
495.171	4.58
495.371	4.63
495.572	4.64
495.773	4.67
495.973	4.71
496.174	4.68
496.375	4.67
496.575	4.63
496.776	4.63
496.976	4.71
497.177	4.68
497.377	4.7
497.578	4.7
497.778	4.7
497.979	4.7
498.179	4.75
498.38	4.81
498.58	4.78
498.78	4.76
498.981	4.7
499.181	4.77
499.382	4.92
499.582	4.88
499.782	4.89
499.983	4.95
500.183	5.01
500.383	5.03
500.584	4.98
500.784	5.08
500.984	5.14
501.184	5.23
501.385	5.16
501.585	5.15
501.785	5.12
501.985	5.19
502.185	5.14
502.386	5.1
502.586	5.06
502.786	5.19
502.986	5.15
503.186	5.12
503.386	5.09
503.586	5.15
503.786	5.17
503.987	5.3
504.187	5.28
504.387	5.31
504.587	5.33
504.787	5.33
504.987	5.33
505.187	5.32
505.387	5.37
505.587	5.44
505.786	5.41
505.986	5.41
506.186	5.37
506.386	5.39
506.586	5.53
506.786	5.52
506.986	5.52
507.186	5.49
507.386	5.55
507.585	5.55
507.785	5.56
507.985	5.54
508.185	5.6
508.384	5.61
508.584	5.6
508.784	5.55
508.984	5.61
509.183	5.61
509.383	5.6
509.583	5.59
509.782	5.59
509.982	5.64
510.182	5.7
510.381	5.68
510.581	5.71
510.781	5.77
510.98	5.78
511.18	5.8
511.379	5.85
511.579	5.96
511.778	6.02
511.978	6.09
512.177	6.01
512.377	6.04
512.576	6.05
512.776	6.05
512.975	6.04
513.175	5.98
513.374	6.05
513.573	6.07
513.773	6.03
513.972	6.01
514.172	6
514.371	6.05
514.57	6.05
514.77	6.04
514.969	6.1
515.168	6.09
515.367	6.28
515.567	6.28
515.766	6.29
515.965	6.34
516.164	6.38
516.364	6.44
516.563	6.4
516.762	6.47
516.961	6.52
517.16	6.5
517.359	6.49
517.559	6.43
517.758	6.45
517.957	6.52
518.156	6.48
518.355	6.5
518.554	6.45
518.753	6.52
518.952	6.46
519.151	6.55
519.35	6.65
519.549	6.74
519.748	6.83
519.947	6.88
520.146	6.9
520.345	7
520.544	7.01
520.743	7.14
520.942	7.24
521.141	7.35
521.339	7.35
521.538	7.35
521.737	7.39
521.936	7.42
522.135	7.36
522.333	7.33
522.532	7.42
522.731	7.45
522.93	7.46
523.129	7.42
523.327	7.41
523.526	7.36
523.725	7.41
523.923	7.46
524.122	7.44
524.321	7.42
524.519	7.55
524.718	7.54
524.917	7.58
525.115	7.6
525.314	7.66
525.512	7.66
525.711	7.7
525.909	7.67
526.108	7.64
526.306	7.7
526.505	7.78
526.703	7.72
526.902	7.71
527.1	7.72
527.299	7.73
527.497	7.75
527.696	7.8
527.894	7.87
528.092	7.93
528.291	7.98
528.489	8.01
528.688	8.06
528.886	8.13
529.084	8.18
529.283	8.25
529.481	8.28
529.679	8.33
529.877	8.34
530.076	8.33
530.274	8.36
530.472	8.38
530.67	8.36
530.869	8.31
531.067	8.3
531.265	8.33
531.463	8.37
531.661	8.36
531.859	8.39
532.057	8.42
532.255	8.43
532.454	8.43
532.652	8.49
532.85	8.54
533.048	8.6
533.246	8.64
533.444	8.71
533.642	8.74
533.84	8.8
534.038	8.8
534.236	8.82
534.434	8.85
534.632	8.86
534.83	8.82
535.027	8.83
535.225	8.79
535.423	8.78
535.621	8.73
535.819	8.78
536.017	8.87
536.215	8.88
536.412	8.95
536.61	8.91
536.808	8.95
537.006	8.96
537.203	9
537.401	9.04
537.599	9.06
537.797	9.11
537.994	9.06
538.192	9.1
538.39	9.11
538.587	9.1
538.785	9.19
538.983	9.25
539.18	9.3
539.378	9.35
539.575	9.37
539.773	9.39
539.97	9.45
540.168	9.49
540.366	9.47
540.563	9.49
540.761	9.52
540.958	9.57
541.155	9.55
541.353	9.57
541.55	9.52
541.748	9.59
541.945	9.66
542.143	9.63
542.34	9.67
542.537	9.73
542.735	9.78
542.932	9.85
543.129	9.81
543.327	9.8
543.524	9.88
543.721	10.03
543.919	10.01
544.116	10
544.313	10.04
544.51	10.04
544.708	10.07
544.905	10.13
545.102	10.13
545.299	10.2
545.496	10.25
545.693	10.23
545.891	10.24
546.088	10.27
546.285	10.34
546.482	10.44
546.679	10.47
546.876	10.47
547.073	10.51
547.27	10.51
547.467	10.58
547.664	10.66
547.861	10.69
548.058	10.77
548.255	10.83
548.452	10.82
548.649	10.84
548.846	10.88
549.043	10.91
549.24	10.9
549.437	10.94
549.633	10.95
549.83	11
550.027	11.07
550.224	11.11
550.421	11.16
550.618	11.25
550.814	11.23
551.011	11.29
551.208	11.45
551.405	11.56
551.601	11.57
551.798	11.65
551.995	11.71
552.191	11.75
552.388	11.73
552.585	11.79
552.781	11.84
552.978	11.79
553.175	11.79
553.371	11.75
553.568	11.75
553.764	11.86
553.961	11.83
554.157	11.85
554.354	11.84
554.55	11.94
554.747	12.01
554.943	11.96
555.14	12.14
555.336	12.28
555.533	12.27
555.729	12.31
555.926	12.36
556.122	12.48
556.318	12.54
556.515	12.59
556.711	12.63
556.907	12.78
557.104	13.01
557.3	13.15
557.496	13.12
557.693	13.12
557.889	13.22
558.085	13.23
558.281	13.28
558.478	13.37
558.674	13.48
558.87	13.46
559.066	13.44
559.262	13.35
559.459	13.28
559.655	13.4
559.851	13.58
560.047	13.59
560.243	13.69
560.439	13.77
560.635	13.77
560.831	13.79
561.027	13.9
561.223	13.91
561.419	14.02
561.615	14.08
561.811	14.07
562.007	14.22
562.203	14.3
562.399	14.3
562.595	14.42
562.791	14.53
562.987	14.63
563.183	14.65
563.379	14.74
563.575	14.84
563.771	15.03
563.966	15.11
564.162	15.15
564.358	15.28
564.554	15.3
564.75	15.32
564.945	15.41
565.141	15.51
565.337	15.61
565.533	15.69
565.728	15.74
565.924	15.72
566.12	15.75
566.315	15.77
566.511	15.8
566.707	16
566.902	16.04
567.098	16.1
567.293	16.21
567.489	16.29
567.684	16.27
567.88	16.24
568.076	16.35
568.271	16.43
568.467	16.43
568.662	16.5
568.858	16.45
569.053	16.61
569.248	16.72
569.444	16.76
569.639	16.91
569.835	17.09
570.03	17.13
570.225	17.18
570.421	17.26
570.616	17.46
570.812	17.62
571.007	17.67
571.202	17.76
571.397	17.84
571.593	17.82
571.788	17.84
571.983	17.86
572.178	18.03
572.374	18.17
572.569	18.23
572.764	18.21
572.959	18.16
573.154	18.26
573.35	18.19
573.545	18.19
573.74	18.34
573.935	18.32
574.13	18.45
574.325	18.62
574.52	18.61
574.715	18.76
574.91	18.84
575.105	18.94
575.3	18.99
575.495	18.96
575.69	19.02
575.885	19.05
576.08	19.09
576.275	19.11
576.47	19.01
576.665	19.13
576.86	18.99
577.055	18.94
577.25	18.97
577.444	19.19
577.639	19.44
577.834	19.56
578.029	19.62
578.224	19.62
578.418	19.68
578.613	19.78
578.808	19.84
579.003	20.09
579.197	20.21
579.392	20.29
579.587	20.22
579.781	20.21
579.976	20.31
580.171	20.47
580.365	20.68
580.56	20.6
580.755	20.48
580.949	20.42
581.144	20.51
581.338	20.44
581.533	20.47
581.727	20.62
581.922	20.63
582.116	20.48
582.311	20.41
582.505	20.37
582.7	20.56
582.894	20.71
583.089	20.75
583.283	20.65
583.478	20.96
583.672	21.11
583.866	21.05
584.061	21.06
584.255	21.27
584.449	21.42
584.644	21.54
584.838	21.55
585.032	21.6
585.226	21.58
585.421	21.75
585.615	21.66
585.809	21.65
586.003	21.83
586.198	22.09
586.392	22.1
586.586	22.02
586.78	21.96
586.974	22
587.168	22.12
587.363	22.39
587.557	22.27
587.751	22.31
587.945	22.3
588.139	22.35
588.333	22.14
588.527	22.2
588.721	22.25
588.915	22.34
589.109	22.51
589.303	22.44
589.497	22.36
589.691	22.65
589.885	22.71
590.079	22.75
590.273	22.66
590.466	22.98
590.66	23.04
590.854	23.09
591.048	23.04
591.242	23.03
591.436	23.05
591.629	23.15
591.823	23.17
592.017	23.24
592.211	23.28
592.404	23.38
592.598	23.27
592.792	23.23
592.986	23.35
593.179	23.54
593.373	23.61
593.567	23.74
593.76	23.77
593.954	23.72
594.147	23.83
594.341	23.93
594.535	24.08
594.728	24.29
594.922	24.41
595.115	24.5
595.309	24.39
595.502	24.41
595.696	24.52
595.889	24.49
596.083	24.62
596.276	24.55
596.47	24.55
596.663	24.37
596.856	24.28
597.05	24.27
597.243	24.11
597.437	24.23
597.63	24.28
597.823	24.27
598.017	24.37
598.21	24.37
598.403	24.41
598.596	24.5
598.79	24.59
598.983	24.62
599.176	24.74
599.369	24.81
599.563	24.86
599.756	24.74
599.949	24.73
600.142	24.7
600.335	24.56
600.528	24.74
600.722	24.74
600.915	24.76
601.108	24.82
601.301	24.83
601.494	25.02
601.687	25.1
601.88	25.26
602.073	25.33
602.266	25.34
602.459	25.37
602.652	25.31
602.845	25.21
603.038	25.33
603.231	25.46
603.424	25.45
603.617	25.45
603.809	25.43
604.002	25.44
604.195	25.39
604.388	25.35
604.581	25.42
604.774	25.43
604.966	25.59
605.159	25.5
605.352	25.3
605.545	25.28
605.737	25.35
605.93	25.41
606.123	25.42
606.316	25.5
606.508	25.78
606.701	26
606.894	26.03
607.086	26.12
607.279	26.21
607.471	26.37
607.664	26.48
607.857	26.39
608.049	26.32
608.242	26.28
608.434	26.41
608.627	26.36
608.819	26.29
609.012	26.31
609.204	26.34
609.397	26.59
609.589	26.62
609.782	26.66
609.974	26.74
610.166	27
610.359	27.24
610.551	27.21
610.743	27.19
610.936	27.21
611.128	27.17
611.32	26.97
611.513	26.8
611.705	26.77
611.897	26.93
612.09	26.9
612.282	26.75
612.474	26.49
612.666	26.47
612.858	26.66
613.051	26.75
613.243	26.99
613.435	27
613.627	27
613.819	27.06
614.011	27.19
614.203	27.34
614.395	27.39
614.588	27.5
614.78	27.57
614.972	27.4
615.164	27.45
615.356	27.19
615.548	27.5
615.74	27.51
615.932	27.42
616.124	27.27
616.315	27.42
616.507	27.42
616.699	27.42
616.891	27.5
617.083	27.58
617.275	27.42
617.467	27.69
617.659	27.54
617.85	27.57
618.042	27.63
618.234	27.38
618.426	27.25
618.618	27.36
618.809	27.44
619.001	27.3
619.193	27.24
619.384	27.31
619.576	27.35
619.768	27.45
619.959	27.37
620.151	27.4
620.343	27.72
620.534	27.56
620.726	27.32
620.917	27.12
621.109	27.12
621.301	27.32
621.492	27.29
621.684	27.26
621.875	27.26
622.067	27.43
622.258	27.45
622.45	27.43
622.641	27.42
622.832	27.53
623.024	27.7
623.215	27.9
623.407	27.81
623.598	28.18
623.789	28.29
623.981	28.3
624.172	28.09
624.363	28.05
624.555	27.92
624.746	27.99
624.937	28.1
625.129	28.27
625.32	28.15
625.511	28.27
625.702	28.02
625.893	27.98
626.085	27.81
626.276	27.95
626.467	28.02
626.658	28.01
626.849	28.07
627.04	28.07
627.231	27.94
627.422	28.11
627.614	28.08
627.805	28.01
627.996	27.87
628.187	28.02
628.378	27.97
628.569	28.01
628.76	28.12
628.951	28.04
629.142	28.04
629.332	28.05
629.523	27.91
629.714	27.7
629.905	27.9
630.096	28.15
630.287	28.3
630.478	28.26
630.669	28.32
630.859	28.35
631.05	28.49
631.241	28.4
631.432	28.45
631.623	28.47
631.813	28.58
632.004	28.57
632.195	28.45
632.385	28.5
632.576	28.72
632.767	28.71
632.957	28.5
633.148	28.51
633.339	28.58
633.529	28.61
633.72	28.71
633.91	28.84
634.101	28.78
634.292	28.77
634.482	28.69
634.673	28.63
634.863	28.58
635.054	28.82
635.244	28.88
635.435	28.99
635.625	28.9
635.815	28.74
636.006	28.71
636.196	28.6
636.387	28.67
636.577	28.77
636.767	28.84
636.958	28.86
637.148	28.88
637.338	28.96
637.529	28.89
637.719	29.04
637.909	29.23
638.099	29.26
638.29	29.28
638.48	29.19
638.67	29.2
638.86	28.97
639.05	29.06
639.241	28.98
639.431	28.8
639.621	28.91
639.811	28.76
640.001	28.52
640.191	28.51
640.381	28.78
640.571	28.8
640.761	28.75
640.951	29
641.141	28.71
641.331	28.88
641.521	28.79
641.711	28.72
641.901	28.73
642.091	29.07
642.281	28.84
642.471	28.81
642.661	28.97
642.851	28.85
643.041	28.71
643.231	28.89
643.42	28.9
643.61	29.11
643.8	29.28
643.99	29.42
644.18	29.21
644.369	29.68
644.559	29.6
644.749	29.62
644.939	29.71
645.128	29.86
645.318	29.96
645.508	29.81
645.697	29.87
645.887	29.69
646.076	29.81
646.266	29.92
646.456	29.67
646.645	29.79
646.835	29.64
647.024	29.64
647.214	29.64
647.403	29.53
647.593	29.67
647.782	29.8
647.972	29.72
648.161	29.55
648.351	29.56
648.54	29.76
648.73	29.77
648.919	29.95
649.108	30.01
649.298	30.17
649.487	30.29
649.677	30.37
649.866	30.28
650.055	30.53
650.244	30.51
650.434	30.37
650.623	30.27
650.812	30.15
651.002	29.99
651.191	29.99
651.38	29.86
651.569	29.93
651.758	29.68
651.947	29.68
652.137	29.34
652.326	29.27
652.515	29.65
652.704	29.76
652.893	29.93
653.082	30.21
653.271	30.31
653.46	30.38
653.649	30.46
653.838	30.56
654.027	30.71
654.216	31.15
654.405	31.39
654.594	31.15
654.783	31.25
654.972	31.08
655.161	31.04
655.35	30.83
655.539	30.88
655.728	30.77
655.916	30.83
656.105	30.83
656.294	30.82
656.483	30.95
656.672	30.94
656.86	30.79
657.049	30.95
657.238	30.69
657.427	31.02
657.615	31.02
657.804	30.98
657.993	30.9
658.181	30.81
658.37	30.64
658.559	30.64
658.747	30.75
658.936	30.8
659.125	31.1
659.313	31.34
659.502	31.33
659.69	31.41
659.879	31.52
660.067	31.51
660.256	31.5
660.444	31.67
660.633	31.72
660.821	31.82
661.01	31.83
661.198	31.54
661.387	31.57
661.575	31.35
661.763	31.05
661.952	31.13
662.14	31.22
662.328	31.2
662.517	31.3
662.705	31.1
662.893	30.99
663.082	31
663.27	30.77
663.458	30.78
663.646	30.84
663.834	31.06
664.023	30.96
664.211	31.08
664.399	31.36
664.587	31.16
664.775	31.21
664.963	31.08
665.152	30.78
665.34	30.99
665.528	30.89
665.716	31.1
665.904	30.91
666.092	31.08
666.28	31.15
666.468	31.02
666.656	31.3
666.844	31.35
667.032	31.57
667.22	31.95
667.408	31.89
667.596	32.01
667.784	31.8
667.971	32.12
668.159	31.97
668.347	31.83
668.535	31.57
668.723	31.56
668.911	31.62
669.098	31.48
669.286	31.51
669.474	31.45
669.662	31.26
669.849	31.35
670.037	31.43
670.225	31.63
670.413	31.82
670.6	32.2
670.788	31.94
670.976	31.93
671.163	31.88
671.351	31.58
671.538	31.77
671.726	31.9
671.913	31.92
672.101	31.38
672.289	31.12
672.476	30.77
672.664	30.59
672.851	30.76
673.039	30.57
673.226	30.85
673.413	31.06
673.601	31.02
673.788	30.96
673.976	30.99
674.163	31.33
674.35	31.44
674.538	31.91
674.725	32.2
674.912	32.08
675.1	32.26
675.287	32.29
675.474	32.37
675.662	32.49
675.849	32.39
676.036	32.44
676.223	32.6
676.411	32.52
676.598	32.45
676.785	32.4
676.972	32.54
677.159	32.6
677.346	32.4
677.533	32.3
677.721	32.08
677.908	32.31
678.095	32.28
678.282	32.3
678.469	32.46
678.656	32.25
678.843	32.13
679.03	32.24
679.217	32.23
679.404	32.27
679.591	32.48
679.778	32.45
679.964	32.47
680.151	32.2
680.338	32.11
680.525	32.13
680.712	32.03
680.899	32.11
681.086	32.01
681.272	31.99
681.459	32.25
681.646	32.02
681.833	32.06
682.02	31.93
682.206	32.22
682.393	32.26
682.58	32.41
682.766	32.46
682.953	32.49
683.14	32.52
683.326	32.84
683.513	32.87
683.7	32.96
683.886	32.98
684.073	33.13
684.259	33.03
684.446	32.74
684.632	32.76
684.819	32.84
685.005	32.72
685.192	32.86
685.378	32.69
685.565	32.59
685.751	32.66
685.938	32.76
686.124	32.6
686.31	32.96
686.497	33.05
686.683	32.93
686.87	33.4
687.056	33.37
687.242	33.13
687.429	33.15
687.615	32.98
687.801	33.04
687.987	32.89
688.174	33.08
688.36	33.22
688.546	33.35
688.732	33.45
688.918	33.11
689.105	33.16
689.291	33.18
689.477	33.32
689.663	33.25
689.849	32.97
690.035	33.23
690.221	33.29
690.407	33.01
690.593	32.82
690.779	32.76
690.965	32.81
691.151	32.83
691.337	32.88
691.523	32.73
691.709	33.07
691.895	33.14
692.081	33.04
692.267	32.98
692.453	33.2
692.639	33.36
692.825	33.39
693.011	33.39
693.196	33.45
693.382	33.15
693.568	33.26
693.754	32.94
693.94	33.03
694.125	33.01
694.311	33.18
694.497	33.06
694.682	33.14
694.868	33.04
695.054	32.96
695.239	33.08
695.425	33.35
695.611	33.53
695.796	33.93
695.982	34.06
696.168	34.21
696.353	33.89
696.539	33.88
696.724	33.72
696.91	33.76
697.095	33.96
697.281	34.14
697.466	34.15
697.652	33.86
697.837	33.57
698.023	33.51
698.208	33.39
698.393	33.61
698.579	33.48
698.764	33.82
698.949	33.81
699.135	33.67
699.32	33.49
699.505	33.43
699.691	33.52
699.876	33.57
700.061	33.63
700.246	33.62
700.432	33.48
700.617	33.49
700.802	33.09
700.987	33.2
701.172	32.53
701.358	32.09
701.543	32.32
701.728	32.44
701.913	32.68
702.098	32.44
702.283	32.67
702.468	32.73
702.653	32.81
702.838	32.7
703.023	32.38
703.208	33.26
703.393	33.72
703.578	33.49
703.763	33.13
703.948	33.25
704.133	33.76
704.318	34.02
704.503	33.85
704.688	33.96
704.873	34.02
705.057	34.09
705.242	33.88
705.427	33.91
705.612	34.02
705.797	34.32
705.981	33.98
706.166	33.55
706.351	33.31
706.536	33.27
706.72	33.33
706.905	33.86
707.09	33.93
707.274	34.21
707.459	34.09
707.644	33.79
707.828	33.81
708.013	33.58
708.197	33.57
708.382	33.44
708.567	33.78
708.751	33.66
708.936	33.57
709.12	33.67
709.305	33.92
709.489	33.96
709.673	34.37
709.858	34.18
710.042	34.78
710.227	34.86
710.411	35.06
710.596	34.91
710.78	34.75
710.964	34.92
711.149	34.68
711.333	34.65
711.517	34.56
711.702	34.63
711.886	34.75
712.07	34.37
712.254	34.36
712.438	34.48
712.623	34.44
712.807	34.55
712.991	34.39
713.175	34.4
713.359	34.1
713.544	34.19
713.728	33.72
713.912	33.73
714.096	33.99
714.28	33.93
714.464	33.86
714.648	33.99
714.832	34.13
715.016	34.35
715.2	34.86
715.384	35.06
715.568	35.14
715.752	35.32
715.936	35.31
716.12	34.89
716.304	35.28
716.488	34.95
716.671	34.99
716.855	35.18
717.039	34.73
717.223	34.38
717.407	33.97
717.59	33.68
717.774	33.56
717.958	33.31
718.142	33.83
718.325	33.53
718.509	33.47
718.693	33.28
718.877	32.69
719.06	32.87
719.244	33.02
719.428	33.2
719.611	33.25
719.795	33.65
719.978	33.91
720.162	33.66
720.345	33.84
720.529	33.96
720.713	34.14
720.896	34.57
721.08	34.47
721.263	34.27
721.446	34.2
721.63	34.33
721.813	33.6
721.997	33.58
722.18	33.84
722.364	33.99
722.547	34.14
722.73	33.83
722.914	33.96
723.097	33.65
723.28	34.02
723.464	33.86
723.647	34.04
723.83	34.44
724.013	34.54
724.197	34.07
724.38	33.64
724.563	33.71
724.746	34.36
724.929	34.16
725.112	34.1
725.296	33.65
725.479	33.9
725.662	33.18
725.845	33.49
726.028	33.45
726.211	33.83
726.394	33.93
726.577	33.53
726.76	32.85
726.943	32.75
727.126	33.19
727.309	33.24
727.492	33.21
727.675	33.5
727.858	33.47
728.041	33.78
728.224	33.34
728.407	33.29
728.589	33.46
728.772	33.73
728.955	34.07
729.138	33.87
729.321	33.63
729.503	33.94
729.686	34.34
729.869	34.17
730.052	33.87
730.234	34.22
730.417	34.43
730.6	34.63
730.782	34.4
730.965	34.11
731.148	34.43
731.33	34.72
731.513	34.59
731.695	34.28
731.878	34.49
732.061	34.59
732.243	34.75
732.426	34.74
732.608	34.82
732.791	35.24
732.973	34.88
733.156	34.74
733.338	34.86
733.52	34.77
733.703	34.49
733.885	34.28
734.068	33.82
734.25	33.45
734.432	33.09
734.615	32.84
734.797	32.93
734.979	33.47
735.162	33.36
735.344	33.28
735.526	33.37
735.708	33.98
735.891	34.22
736.073	34.3
736.255	34.18
736.437	34.04
736.619	34.42
736.802	34.08
736.984	34.14
737.166	34.23
737.348	34.11
737.53	34.09
737.712	34.01
737.894	33.89
738.076	33.99
738.258	34.33
738.44	34.51
738.622	34.57
738.804	34.99
738.986	35.02
739.168	34.89
739.35	34.86
739.532	34.72
739.714	34.68
739.896	34.67
740.078	34.78
740.259	34.71
740.441	34.99
740.623	34.43
740.805	33.69
740.987	33.4
741.168	33.51
741.35	33.54
741.532	33.49
741.714	33.42
741.895	33.65
742.077	33.76
742.259	33.9
742.44	33.88
742.622	34.06
742.804	34.65
742.985	34.8
743.167	35.07
743.348	34.91
743.53	34.8
743.711	34.66
743.893	33.67
744.075	33.34
744.256	33.12
744.438	33.27
744.619	33.44
744.8	33.42
744.982	33.06
745.163	32.83
745.345	33.5
745.526	33.47
745.707	33.33
745.889	33.57
746.07	33.79
746.252	34.46
746.433	34.66
746.614	34.63
746.795	34.26
746.977	34.91
747.158	35.22
747.339	34.92
747.52	35.38
747.702	35.91
747.883	36.31
748.064	36.13
748.245	35.98
748.426	35.36
748.607	35.4
748.788	35.92
748.97	35.22
749.151	34.96
749.332	34.63
749.513	34.05
749.694	33.91
749.875	34.56
750.056	34.74
750.237	34.61
750.418	34.88
750.599	34.51
750.78	34.03
750.96	34.52
751.141	34.36
751.322	34.52
751.503	34.35
751.684	34.28
751.865	32.89
752.046	32.58
752.226	32.13
752.407	32.13
752.588	32.15
752.769	31.76
752.949	31.5
753.13	31.22
753.311	31.1
753.492	31.54
753.672	32.33
753.853	33.27
754.034	32.99
754.214	33.01
754.395	32.91
754.575	33.39
754.756	33.7
754.937	33.66
755.117	32.82
755.298	33.12
755.478	33.04
755.659	33
755.839	32.96
756.02	32.91
756.2	33.3
756.381	33.03
756.561	32.56
756.741	32.08
756.922	32.19
757.102	32.9
757.283	32.71
757.463	33.53
757.643	32.71
757.823	32.71
758.004	33.98
758.184	33.74
758.364	34.07
758.545	34.21
758.725	34.93
758.905	35.1
759.085	35.81
759.265	35.26
759.446	35.04
759.626	35.46
759.806	35.61
759.986	34.95
760.166	34.68
760.346	34.54
760.526	34.79
760.706	35.11
760.886	34.74
761.066	34.9
761.246	35.78
761.426	35.47
761.606	34.99
761.786	34.84
761.966	34.68
762.146	34.99
762.326	35.14
762.506	34.67
762.686	34.31
762.866	34.57
763.046	34.03
763.225	33.89
763.405	33.28
763.585	33.52
763.765	33.21
763.945	33.38
764.124	33.23
764.304	33.28
764.484	33.51
764.664	33.32
764.843	33.26
765.023	33.27
765.203	33.18
765.382	34.08
765.562	34.26
765.741	34.77
765.921	35.34
766.101	34.97
766.28	34.72
766.46	34.86
766.639	35.18
766.819	35.24
766.998	35.68
767.178	35.79
767.357	35.42
767.537	35.06
767.716	34.74
767.896	34.04
768.075	34.58
768.254	35.03
768.434	35.34
768.613	35.16
768.792	34.48
768.972	34.34
769.151	34.12
769.33	34.05
769.51	34.38
769.689	34.97
769.868	34.41
770.047	34.62
770.226	34.4
770.406	34.08
770.585	33.75
770.764	34.07
770.943	33.71
771.122	33.34
771.301	33.68
771.48	32.67
771.66	31.93
771.839	32.56
772.018	31.97
772.197	31.15
772.376	30.68
772.555	31.28
772.734	31.57
772.913	31.97
773.092	32.52
773.271	31.88
773.449	33.1
773.628	33
773.807	33.62
773.986	33.73
774.165	33.49
774.344	33.89
774.523	34.05
774.701	34.22
774.88	33.64
775.059	33.31
775.238	34.07
775.417	33.11
775.595	32.95
775.774	32.45
775.953	32.01
776.131	32.82
776.31	32.3
776.489	32.43
776.667	31.82
776.846	32.37
777.025	32.85
777.203	32.46
777.382	32.69
777.56	32.14
777.739	31.74
777.917	32.06
778.096	32.23
778.274	33.34
778.453	33.34
778.631	34.11
778.81	33.75
778.988	33.4
779.166	32.98
779.345	33.96
779.523	34.68
779.702	34.49
779.88	34.01
780.058	34.09
780.237	33.91
780.415	33.9
780.593	33.9
780.771	34.69
780.95	34.8
781.128	35.73
781.306	35.14
781.484	35.28
781.662	35.27
781.841	36.2
782.019	35.18
782.197	33.91
782.375	33.81
782.553	33.32
782.731	32.56
782.909	32.87
783.087	32.9
783.265	33.19
783.443	32.76
783.621	33.93
783.799	34.4
783.977	36.05
784.155	37.04
784.333	37.25
784.511	36.23
784.689	36.76
784.867	36.09
785.045	36.21
785.223	35.36
785.4	36.54
785.578	35.02
785.756	34.14
785.934	32.83
786.112	33.69
786.289	33.08
786.467	33.25
786.645	33.7
786.823	34.24
787	33.97
787.178	33.63
787.356	33.08
787.533	33.64
787.711	34.4
787.889	34.67
788.066	33.23
788.244	33.02
788.421	33.6
788.599	32.97
788.776	31.98
788.954	32.04
789.131	33.04
789.309	33.07
789.486	34.19
789.664	32.97
789.841	33.47
790.019	33.48
790.196	33.68
790.373	33.59
790.551	33.2
790.728	33.91
790.906	33.62
791.083	34.28
791.26	34.34
791.437	33.88
791.615	35.39
791.792	34.65
791.969	34.81
792.146	35.09
792.324	36.12
792.501	36.2
792.678	36.62
792.855	36.96
793.032	35.34
793.209	35.27
793.387	34.65
793.564	33.85
793.741	33.66
793.918	33.97
794.095	34.07
794.272	33.14
794.449	33.45
794.626	33.01
794.803	32.47
794.98	33.54
795.157	33.53
795.334	33.03
795.511	33.53
795.688	34.56
795.864	34.9
796.041	34.88
796.218	35.64
796.395	36.1
796.572	36.51
796.749	36.08
796.925	34.81
797.102	34.89
797.279	34.65
797.456	33.25
797.632	32.96
797.809	32.5
797.986	32.95
798.162	32.25
798.339	31.85
798.516	31.6
798.692	32.58
798.869	33.4
799.046	33.41
799.222	33.12
799.399	34.75
799.575	34.89
799.752	35.39
799.928	34.71
800.105	34.38
800.281	34.43
800.458	34.48
800.634	33.61
800.811	33.77
800.987	33.8
801.163	34.53
801.34	34.87
801.516	34.04
801.692	34.84
801.869	33.72
802.045	34.83
802.221	34.91
802.398	34.95
802.574	35.41
802.75	35.15
802.926	35.82
803.103	36.3
803.279	35.77
803.455	35.78
803.631	34.4
803.807	35.82
803.983	34.61
804.16	35.86
804.336	36.6
804.512	36.27
804.688	36.64
804.864	35.62
805.04	35.57
805.216	34.6
805.392	34.42
805.568	35.5
805.744	35.63
805.92	36.17
806.096	35.1
806.272	33.51
806.448	34.83
806.623	34.49
806.799	34.86
806.975	34.76
807.151	34.96
807.327	35.69
807.503	33.35
807.678	32.41
807.854	32.2
808.03	32.04
808.206	33.41
808.381	32.89
808.557	33.34
808.733	32.84
808.908	32.6
809.084	33.51
809.26	33.42
809.435	34.26
809.611	33.71
809.787	33.14
809.962	32.72
810.138	31.45
810.313	32.09
810.489	31.37
810.664	32.56
810.84	32.18
811.015	31.23
811.191	31.29
811.366	32.61
811.542	34.15
811.717	33.73
811.892	34.13
812.068	35.1
812.243	32.94
812.419	32.69
812.594	31.08
812.769	31.52
812.944	31.66
813.12	31.27
813.295	30.48
813.47	30.28
813.645	31.19
813.821	30.43
813.996	30.95
814.171	31.53
814.346	31.73
814.521	33.21
814.697	33.6
814.872	33.08
815.047	33.95
815.222	35.26
815.397	33.27
815.572	33.19
815.747	33.09
815.922	32.47
816.097	33.3
816.272	34.38
816.447	33.68
816.622	33.62
816.797	34.82
816.972	35.2
817.147	35.32
817.322	37.78
817.496	38.47
817.671	39.59
817.846	39.85
818.021	38.92
818.196	38.3
818.371	38.68
818.545	38.2
818.72	39.03
818.895	38.55
819.069	37.13
819.244	36.87
819.419	37.28
819.594	36.84
819.768	35.81
819.943	36.12
820.117	35.14
820.292	34.68
820.467	34.66
820.641	34.15
820.816	34.01
820.99	34.28
821.165	33.9
821.339	33.62
821.514	33.63
821.688	33.7
821.863	33.33
822.037	33.28
822.212	33.25
822.386	33.3
822.56	33.14
822.735	33.14
822.909	33.14
823.084	32.97
823.258	32.77
823.432	32.61
823.606	32.74
823.781	33.02
823.955	33.32
824.129	33.43
824.303	33.4
824.478	33.26
824.652	32.83
824.826	32.92
825	33.35
825.174	33.33
825.348	33.14
825.523	33.19
825.697	32.78
825.871	32.82
826.045	32.75
826.219	32.81
826.393	33.12
826.567	33.48
826.741	33.04
826.915	32.39
827.089	32.67
827.263	33.05
827.437	33.1
827.611	33.46
827.784	33.6
827.958	33.82
828.132	33.72
828.306	33.65
828.48	34.21
828.654	35.04
828.827	35.8
829.001	36.28
829.175	36.36
829.349	36.56
829.522	36.83
829.696	36.58
829.87	35.72
830.044	35.93
830.217	35.97
830.391	35.59
830.565	34
830.738	34.15
830.912	32.97
831.085	32.23
831.259	31.85
831.432	31.03
831.606	31.72
831.779	32.41
831.953	33.11
832.126	33.29
832.3	32.7
832.473	32.74
832.647	32.81
832.82	31.97
832.994	33.3
833.167	33.27
833.34	34.16
833.514	33.5
833.687	33.59
833.86	33.62
834.034	33.74
834.207	33.17
834.38	33.71
834.553	33.97
834.727	35.45
834.9	34.77
835.073	34.74
835.246	34.12
835.419	34.9
835.593	35.25
835.766	34.88
835.939	34
836.112	34.99
836.285	34.37
836.458	33.32
836.631	33.56
836.804	34.05
836.977	34.33
837.15	35.11
837.323	34.02
837.496	33.95
837.669	34.37
837.842	35.57
838.015	35.26
838.188	36.6
838.361	37.49
838.533	37.42
838.706	36.6
838.879	35.53
839.052	34.2
839.225	36.21
839.398	34.99
839.57	34.54
839.743	34
839.916	35.15
840.088	35.56
840.261	35.39
840.434	34.1
840.607	34.09
840.779	35.01
840.952	35.23
841.124	32.87
841.297	34.37
841.47	34.41
841.642	35.03
841.815	35.42
841.987	32.53
842.16	32.77
842.332	31.04
842.505	32.37
842.677	32.94
842.85	33.55
843.022	34.43
843.194	32.71
843.367	29.91
843.539	30.32
843.712	27.74
843.884	30.83
844.056	30.88
844.229	34.54
844.401	32.47
844.573	27.11
844.745	25.52
844.918	25.86
845.09	28.84
845.262	34.55
845.434	37.19
845.606	38.49
845.779	37.98
845.951	40.45
846.123	36.42
846.295	33.52
846.467	36.02
846.639	40.44
846.811	38.59
846.983	38.06
847.155	35.23
847.327	29.64
847.499	30.59
847.671	28.61
847.843	28.62
848.015	30.75
848.187	37.01
848.359	40.58
848.531	34.81
848.703	38.47
848.875	36.82
849.047	35.45
849.218	40.07
849.39	36.03
849.562	36.03
849.734	36.67
849.905	39.89
850.077	38.32
850.249	37.68
850.421	38.3
850.592	32.25
850.764	33.38
850.936	33.33
851.107	31.35
851.279	35.2
851.451	38.31
851.622	35.1
851.794	31.96
851.965	30.71
852.137	27.03
852.308	32.2
852.48	35.86
852.651	36.2
852.823	41.25
852.994	41.12
853.166	39.92
853.337	39.65
853.509	43.69
853.68	45.28
853.851	44.62
854.023	43.24
854.194	37.76
854.365	36.45
854.537	35.89
854.708	36.36
854.879	38.44
855.05	37.94
855.222	36.88
855.393	31.57
855.564	33.11
855.735	34.07
855.906	39.25
856.078	40.09
856.249	42.25
856.42	39.01
856.591	37.16
856.762	33.79
856.933	31.13
857.104	31.54
857.275	33.27
857.446	33.27
857.617	31.36
857.788	32.46
857.959	35.38
858.13	37.9
858.301	42.21
858.472	39.63
858.643	39.08
858.814	38.14
858.985	37.85
859.155	40.17
859.326	36.26
859.497	35.65
859.668	31.94
859.839	31.52
860.009	28.69
860.18	25.48
860.351	23.65
860.522	26.46
860.692	27.12
860.863	29.23
861.034	31.87
861.204	35.34
861.375	34.26
861.546	33.95
861.716	28.12
861.887	30.3
862.057	35.16
862.228	39.35
862.398	38.15
862.569	40.87
862.739	43.06
862.91	37.19
863.08	33.7
863.251	35.2
863.421	34.81
863.592	39.62
863.762	37.09
863.932	31.52
864.103	27.93
864.273	30.14
864.443	29.52
864.614	27.61
864.784	34.75
864.954	36.06
865.125	42.04
865.295	45.07
865.465	43.63
865.635	44.8
865.805	49.26
865.976	50.46
866.146	47.71
866.316	46.96
866.486	44.26
866.656	43.7
866.826	43.58
866.996	37.53
867.166	35.69
867.336	39.55
867.506	39.82
867.676	39.64
867.846	42.07
868.016	44.56
868.186	42.77
868.356	44.69
868.526	38.85
868.696	40.41
868.866	37.31
869.036	42.49
869.206	35.49
869.376	34.45
869.545	32.19
869.715	28.8
869.885	27.48
870.055	33.8
870.224	27.61
870.394	27.76
870.564	29.74
870.734	33.37
870.903	22.36
871.073	19.77
871.243	21.97
871.412	21.68
871.582	21.23
871.751	25.6
871.921	20.53
872.091	25.86
872.26	27.68
872.43	20.18
872.599	23.03
872.769	28.01
872.938	33.71
873.108	32.74
873.277	33.02
873.446	37.2
873.616	29.62
873.785	31.76
873.955	26.23
874.124	26
874.293	31.04
874.463	25.65
874.632	29.04
874.801	31.22
874.971	31.69
875.14	34.59
875.309	31.73
875.478	31.82
875.647	31.38
875.817	35.02
875.986	34.22
876.155	35.2
876.324	40.28
876.493	38.45
876.662	41.06
876.831	39.66
877	40.96
877.17	43.42
877.339	48.76
877.508	49.85
877.677	50.21
877.846	49.11
878.015	45.26
878.184	41.21
878.352	37.63
878.521	35.8
878.69	35.79
878.859	32.3
879.028	30.92
879.197	28.79
879.366	25.67
879.534	23.77
879.703	23.63
879.872	27.37
880.041	30.04
880.21	31.91
880.378	32.15
880.547	33.29
880.716	34.32
880.884	34.97
881.053	34.78
881.222	35.3
881.39	34.9
881.559	34.69
881.727	33.45
881.896	32.31
882.065	32.49
882.233	32.52
882.402	32.01
882.57	31.91
882.739	30.91
882.907	31.19
883.076	31.89
883.244	32.64
883.412	32.66
883.581	33.74
883.749	33.79
883.918	33.51
884.086	33.54
884.254	33.57
884.423	34.66
884.591	35.72
884.759	35.64
884.927	34.05
885.096	33.31
885.264	35.95
885.432	35.96
885.6	37.51
885.769	37.05
885.937	37.22
886.105	38
886.273	35.69
886.441	37.2
886.609	36.23
886.777	38.73
886.945	42.28
887.113	41.5
887.281	39.87
887.449	39.46
887.617	39.65
887.785	37.55
887.953	38.52
888.121	37.05
888.289	32.48
888.457	35.05
888.625	32.44
888.793	29.79
888.961	23.49
889.129	25.52
889.296	25.73
889.464	28.29
889.632	29.62
889.8	25.88
889.967	31.03
890.135	35.28
