Data from 2938439_Reflection_3.txt Node
Date: Fri Jun 19 18:26:54 EDT 2015
User: robert
Spectrometer: USB4E03002
Autoset integration time: false
Trigger mode: 4
Integration Time (sec): 1.000000E-1
Scans to average: 10
Electric dark correction enabled: true
Nonlinearity correction enabled: false
Boxcar width: 5
Stray light correction enabled: false
XAxis mode: Wavelengths
Stop averaging: false
Number of Pixels in Spectrum: 3648
>>>>>Begin Spectral Data<<<<<
177.575	72.55
177.794	99.91
178.014	89.48
178.233	64.12
178.452	43.87
178.672	47.01
178.891	-81.86
179.11	79.65
179.33	94.74
179.549	81.23
179.768	75.84
179.987	77.35
180.207	102.08
180.426	93.01
180.645	64.29
180.864	61.31
181.084	69.71
181.303	73.18
181.522	87.68
181.741	81.68
181.96	81.59
182.179	88.73
182.398	78.86
182.618	71.03
182.837	61.03
183.056	75.24
183.275	78.98
183.494	76.29
183.713	67.97
183.932	58.3
184.151	53.88
184.37	72.1
184.589	69.02
184.808	78.36
185.027	87.49
185.246	96.47
185.465	99.28
185.684	86.25
185.903	80.9
186.122	86.66
186.341	79.75
186.56	88.01
186.779	66.15
186.998	67.36
187.216	63.58
187.435	59.92
187.654	68.27
187.873	65.4
188.092	69.68
188.311	70.47
188.53	67.42
188.748	78.63
188.967	71.36
189.186	79.63
189.405	72.83
189.623	88.22
189.842	93.16
190.061	88.2
190.28	95.78
190.498	111.93
190.717	148.06
190.936	146.01
191.154	150.94
191.373	138.62
191.592	172.04
191.81	146.42
192.029	130.97
192.248	163.09
192.466	217.77
192.685	180.93
192.904	156.71
193.122	116.09
193.341	141.42
193.559	121.45
193.778	220.54
193.996	193.31
194.215	240.67
194.433	215.6
194.652	122.62
194.87	134.63
195.089	147.53
195.307	126.03
195.526	115.05
195.744	87.69
195.963	85.08
196.181	52.02
196.399	53.03
196.618	61.79
196.836	52.29
197.055	82.19
197.273	74.82
197.491	70.79
197.71	73.91
197.928	80.44
198.146	82.08
198.365	89.36
198.583	114.21
198.801	114.77
199.019	124.82
199.238	138.64
199.456	116.62
199.674	100.38
199.892	100.6
200.111	70.9
200.329	78.33
200.547	70.94
200.765	64.42
200.983	52.32
201.202	41.64
201.42	24.3
201.638	14.23
201.856	17.72
202.074	20.88
202.292	15.8
202.51	41.3
202.728	30.56
202.946	58.22
203.165	51.47
203.383	35.58
203.601	44.84
203.819	55.15
204.037	56.23
204.255	61.67
204.473	62.98
204.691	73.14
204.909	61.64
205.127	66.45
205.345	58.89
205.562	63.79
205.78	75.4
205.998	64.67
206.216	73.36
206.434	75.91
206.652	84.16
206.87	99.04
207.088	89.27
207.306	94.85
207.523	92.26
207.741	92.66
207.959	110.2
208.177	114.46
208.395	114.19
208.612	92
208.83	90.35
209.048	71.63
209.266	55.49
209.483	66.73
209.701	71.7
209.919	66
210.136	75.34
210.354	68.78
210.572	60.99
210.79	64.4
211.007	71.4
211.225	65.95
211.442	66.54
211.66	73.03
211.878	70.94
212.095	118.03
212.313	135.21
212.53	131.73
212.748	147.53
212.966	155.91
213.183	151.14
213.401	157.76
213.618	164.78
213.836	169.37
214.053	174.74
214.271	161.57
214.488	63.84
214.705	54.63
214.923	57.33
215.14	50.71
215.358	41.62
215.575	38.04
215.793	40.24
216.01	44.48
216.227	48.93
216.445	56.72
216.662	55.71
216.879	58.62
217.097	61.43
217.314	55.84
217.531	53.43
217.749	51.38
217.966	50.67
218.183	46.22
218.4	49.79
218.618	40.95
218.835	47.46
219.052	47.47
219.269	45.68
219.487	38.12
219.704	41.85
219.921	50.96
220.138	58.24
220.355	54.4
220.572	49.12
220.79	55.37
221.007	65.71
221.224	57.3
221.441	61.72
221.658	66.87
221.875	68
222.092	67.84
222.309	60.08
222.526	58.51
222.743	57.58
222.96	57.37
223.177	44.7
223.394	43.63
223.611	39.46
223.828	31.07
224.045	29.27
224.262	36.54
224.479	34.79
224.696	40.29
224.913	34.13
225.13	29.7
225.347	24.8
225.564	30.32
225.781	30.78
225.997	34.12
226.214	33.04
226.431	29.88
226.648	26.44
226.865	25.94
227.082	23.65
227.298	23.13
227.515	25.06
227.732	26.81
227.949	25.22
228.165	24.99
228.382	23.27
228.599	23.76
228.816	24.98
229.032	23.88
229.249	24.48
229.466	24.25
229.682	25.54
229.899	24.5
230.116	24.36
230.332	23.49
230.549	22.25
230.765	23.65
230.982	20.44
231.199	17.41
231.415	18.05
231.632	14.6
231.848	14.11
232.065	12.16
232.281	8.87
232.498	8.12
232.714	9.49
232.931	10.56
233.147	9.33
233.364	11.92
233.58	14.75
233.797	18.08
234.013	19.11
234.23	19.11
234.446	21.15
234.662	22.43
234.879	23.23
235.095	23.3
235.312	22.73
235.528	21.68
235.744	21.93
235.961	21.48
236.177	19.08
236.393	20.32
236.61	22.37
236.826	23.49
237.042	22.37
237.258	21.01
237.475	21.71
237.691	21.06
237.907	23.01
238.123	23.12
238.339	22.13
238.556	25.26
238.772	25.58
238.988	25.25
239.204	22.37
239.42	22.21
239.636	22.16
239.853	20.9
240.069	21.07
240.285	20.01
240.501	19.09
240.717	18.42
240.933	16.87
241.149	16.02
241.365	15.6
241.581	17.04
241.797	17.18
242.013	18.14
242.229	18.77
242.445	18.67
242.661	19.11
242.877	19.44
243.093	20.64
243.309	19.4
243.525	19.33
243.741	19.27
243.957	17.73
244.173	16.74
244.388	15.77
244.604	15.14
244.82	14.71
245.036	14.74
245.252	14.96
245.468	14.68
245.683	14.29
245.899	14.19
246.115	13.54
246.331	13.33
246.547	13.62
246.762	13.88
246.978	13.87
247.194	13.81
247.409	14.04
247.625	13.47
247.841	12.66
248.057	13.67
248.272	13.4
248.488	14.03
248.703	14.2
248.919	13.98
249.135	12.56
249.35	13.37
249.566	13.94
249.782	13.84
249.997	14.31
250.213	14.24
250.428	13.03
250.644	13.64
250.859	13.86
251.075	14.15
251.29	14.38
251.506	14.02
251.721	13.64
251.937	13.55
252.152	12.75
252.368	11.38
252.583	12.7
252.798	13.76
253.014	12.63
253.229	12.42
253.445	11.47
253.66	12.1
253.875	14.46
254.091	13.97
254.306	14.4
254.521	14.67
254.737	16.43
254.952	16
255.167	15.24
255.383	15.82
255.598	14.87
255.813	16.1
256.028	15.17
256.244	14.04
256.459	13.85
256.674	12.18
256.889	12.02
257.104	11.77
257.32	10.92
257.535	10.6
257.75	10.55
257.965	10.85
258.18	10.17
258.395	10.21
258.61	10.07
258.826	9.93
259.041	10.47
259.256	10.38
259.471	10.62
259.686	11.27
259.901	11.61
260.116	11.59
260.331	11.34
260.546	11.99
260.761	12.06
260.976	12.52
261.191	12.9
261.406	12.81
261.621	12.4
261.836	11.36
262.05	10.41
262.265	10.81
262.48	10.22
262.695	10.64
262.91	11.66
263.125	11.33
263.34	12.35
263.555	12.14
263.769	12.28
263.984	13.46
264.199	13.5
264.414	13.83
264.629	13.94
264.843	14.88
265.058	14.65
265.273	13.4
265.488	13.36
265.702	11.89
265.917	11.32
266.132	11.45
266.346	11.14
266.561	11.3
266.776	11.51
266.99	11.15
267.205	10.79
267.42	10.84
267.634	11.42
267.849	11.8
268.063	12.39
268.278	13.03
268.492	12.62
268.707	12.36
268.922	12.75
269.136	12.93
269.351	12.92
269.565	12.11
269.78	11.23
269.994	11.19
270.209	11.2
270.423	10.65
270.637	10.42
270.852	10.55
271.066	10.8
271.281	10.35
271.495	9.98
271.709	9.69
271.924	10.37
272.138	11.28
272.353	10.79
272.567	11.28
272.781	12.04
272.996	12.41
273.21	12.17
273.424	11.94
273.638	12.09
273.853	12.55
274.067	13.26
274.281	12.94
274.495	12.62
274.71	12.06
274.924	11.27
275.138	10.71
275.352	10.98
275.566	11.57
275.781	11.92
275.995	12.29
276.209	11.85
276.423	12.04
276.637	12.01
276.851	11.51
277.065	12.35
277.279	13.75
277.493	13.76
277.707	13.41
277.921	13.02
278.135	13.02
278.349	12.16
278.563	12.39
278.777	12.06
278.991	12.11
279.205	12.54
279.419	11.99
279.633	10.01
279.847	10.22
280.061	9.88
280.275	10.33
280.489	10.34
280.703	11.01
280.917	10.4
281.131	9.92
281.344	10.12
281.558	10.38
281.772	10.87
281.986	12.05
282.2	12.19
282.414	11.92
282.627	11.46
282.841	11.08
283.055	10.95
283.269	11.61
283.482	11.7
283.696	11.76
283.91	11.77
284.123	11.47
284.337	10.42
284.551	9.91
284.764	10
284.978	9.96
285.192	10.48
285.405	10.16
285.619	9.6
285.833	9.68
286.046	9.01
286.26	9.04
286.473	9.3
286.687	10.29
286.9	11.23
287.114	11.65
287.327	11.9
287.541	11.41
287.754	11.48
287.968	11.73
288.181	11.84
288.395	12.39
288.608	12.67
288.822	13.16
289.035	13.14
289.248	12.41
289.462	12.62
289.675	13.18
289.889	13.48
290.102	13.9
290.315	13.81
290.529	13.6
290.742	13.04
290.955	12.73
291.169	11.66
291.382	12.05
291.595	12.45
291.808	12.06
292.022	11.75
292.235	11.64
292.448	11.8
292.661	11.87
292.875	11.8
293.088	12.07
293.301	12.2
293.514	12.13
293.727	11.88
293.94	11.71
294.153	12.21
294.367	12.28
294.58	12.15
294.793	11.73
295.006	12.26
295.219	11.83
295.432	12.36
295.645	12.41
295.858	12.61
296.071	12.34
296.284	12.3
296.497	11.55
296.71	11.21
296.923	11.73
297.136	12
297.349	11.86
297.562	12.3
297.775	11.52
297.988	10.9
298.201	10.92
298.414	10.64
298.626	10.7
298.839	11.09
299.052	11.44
299.265	10.31
299.478	9.79
299.691	9.73
299.903	9.98
300.116	10.22
300.329	10.98
300.542	11.86
300.755	12.61
300.967	12.84
301.18	12.89
301.393	12.53
301.605	12.9
301.818	13.11
302.031	12.79
302.243	12.92
302.456	13.22
302.669	13.62
302.881	13.2
303.094	12.94
303.307	12.79
303.519	12.42
303.732	12.33
303.944	12.73
304.157	13.34
304.37	13.1
304.582	13.16
304.795	13.13
305.007	12.73
305.22	12.65
305.432	12.42
305.645	12.95
305.857	13.53
306.069	13.98
306.282	13.32
306.494	13.25
306.707	13.64
306.919	13.3
307.132	13.7
307.344	14.04
307.556	13.86
307.769	14.42
307.981	13.86
308.193	14.02
308.406	13.91
308.618	14.25
308.83	13.73
309.043	14
309.255	14.63
309.467	15.01
309.679	14.78
309.892	14.7
310.104	14.51
310.316	14.76
310.528	14.58
310.74	14.81
310.953	14.96
311.165	15.14
311.377	14.99
311.589	14.93
311.801	14.65
312.013	13.66
312.225	13.64
312.437	13.24
312.649	12.78
312.862	12.52
313.074	12.11
313.286	11.9
313.498	12.49
313.71	12.23
313.922	11.14
314.134	10.36
314.346	11.39
314.558	12.13
314.77	12.12
314.982	13.33
315.193	13.92
315.405	13.72
315.617	12.83
315.829	11.99
316.041	12.15
316.253	12.9
316.465	13.71
316.677	13.03
316.888	12.73
317.1	13.16
317.312	12.62
317.524	12.33
317.736	12.98
317.947	14.17
318.159	14.69
318.371	14.99
318.583	15.02
318.794	14.06
319.006	14.62
319.218	14.35
319.43	14.35
319.641	13.71
319.853	13.93
320.064	14.31
320.276	14.31
320.488	14.08
320.699	13.41
320.911	12.84
321.123	12.84
321.334	12.69
321.546	13.61
321.757	14.31
321.969	14.45
322.18	14.27
322.392	13.52
322.603	13.59
322.815	14.15
323.026	14.94
323.238	15.26
323.449	15.62
323.661	15.54
323.872	14.32
324.083	13.49
324.295	14.11
324.506	14.9
324.718	14.73
324.929	15.01
325.14	15.01
325.352	15.24
325.563	15.29
325.774	15.8
325.986	15.99
326.197	16.06
326.408	16.82
326.62	16.63
326.831	16.52
327.042	17.05
327.253	17.44
327.464	17.44
327.676	17
327.887	16.74
328.098	16.02
328.309	16.14
328.52	16.23
328.732	16.17
328.943	15.66
329.154	15.51
329.365	14.95
329.576	14.18
329.787	14.15
329.998	14.08
330.209	14.36
330.42	15.65
330.631	16.16
330.842	16.81
331.053	17.2
331.264	17.97
331.475	18.05
331.686	19
331.897	19.21
332.108	19.29
332.319	18.91
332.53	19.7
332.741	18.96
332.952	18.76
333.163	18.05
333.374	17.23
333.585	17.05
333.795	16.84
334.006	16.2
334.217	16.28
334.428	15.84
334.639	16.52
334.849	16.2
335.06	15.81
335.271	15.95
335.482	16.16
335.692	15.98
335.903	16.52
336.114	16.6
336.325	17
336.535	17.05
336.746	16.59
336.957	16.31
337.167	16.07
337.378	17.2
337.589	16.93
337.799	16.97
338.01	17.5
338.22	16.37
338.431	16.76
338.642	16.03
338.852	15.68
339.063	16.2
339.273	16.55
339.484	16.9
339.694	16.36
339.905	16.87
340.115	17.56
340.326	17.22
340.536	18.02
340.746	17.8
340.957	18.54
341.167	18.96
341.378	19.81
341.588	19.87
341.799	19.43
342.009	19.15
342.219	18.66
342.43	18.51
342.64	19.01
342.85	18.87
343.061	19
343.271	18.56
343.481	18.54
343.691	18.02
343.902	17.46
344.112	17.26
344.322	17.65
344.532	17.81
344.743	18.78
344.953	18.47
345.163	18.27
345.373	17.9
345.583	17.8
345.793	17.78
346.004	17.89
346.214	17.9
346.424	18.17
346.634	18.37
346.844	17.83
347.054	17.19
347.264	17.34
347.474	17.74
347.684	17.72
347.894	17.98
348.104	18.38
348.314	18.4
348.524	18.88
348.734	18.66
348.944	18.46
349.154	18.37
349.364	17.94
349.574	17.52
349.784	17.66
349.994	17.54
350.204	17.8
350.413	17.62
350.623	17.53
350.833	16.94
351.043	17.11
351.253	16.7
351.463	17.14
351.672	17.34
351.882	17.44
352.092	17.73
352.302	18.08
352.511	18.1
352.721	17.26
352.931	16.96
353.141	17.37
353.35	17.81
353.56	18.02
353.77	18.34
353.979	17.83
354.189	17.81
354.399	17.41
354.608	17.09
354.818	16.48
355.027	16.73
355.237	17.11
355.447	17.46
355.656	17.19
355.866	16.96
356.075	16.78
356.285	16.97
356.494	16.96
356.704	16.62
356.913	16.55
357.123	16.78
357.332	17.05
357.542	16.49
357.751	16.33
357.96	16.14
358.17	16.07
358.379	16.24
358.589	16.36
358.798	16.29
359.007	16.62
359.217	16.64
359.426	16.6
359.635	16.32
359.845	16.71
360.054	16.23
360.263	16.02
360.472	15.96
360.682	15.61
360.891	15.51
361.1	15.8
361.309	15.17
361.519	14.97
361.728	15.02
361.937	15.12
362.146	14.8
362.355	15.1
362.564	15.53
362.774	16.07
362.983	16.1
363.192	16.05
363.401	15.78
363.61	15.8
363.819	16.15
364.028	15.72
364.237	15.28
364.446	15.62
364.655	15.55
364.864	15.28
365.073	14.59
365.282	14.52
365.491	14.42
365.7	14.26
365.909	14.29
366.118	14.47
366.327	14.5
366.536	14.66
366.745	14.11
366.954	14.32
367.162	14.41
367.371	14.87
367.58	14.91
367.789	15.04
367.998	14.76
368.207	14.84
368.415	14.53
368.624	15.02
368.833	15.07
369.042	15.29
369.25	15.23
369.459	15.19
369.668	14.58
369.877	14.31
370.085	14.2
370.294	14.54
370.503	14.27
370.711	14.26
370.92	14.17
371.129	13.99
371.337	13.7
371.546	13.33
371.754	13.24
371.963	13.65
372.171	13.95
372.38	14.16
372.589	14.01
372.797	14.08
373.006	13.88
373.214	13.92
373.423	14.05
373.631	13.96
373.84	13.85
374.048	13.95
374.256	13.2
374.465	13.15
374.673	12.7
374.882	12.74
375.09	13.14
375.298	13.03
375.507	12.73
375.715	12.3
375.923	12.53
376.132	12.3
376.34	11.86
376.548	12
376.757	11.88
376.965	12.25
377.173	11.82
377.381	11.45
377.59	11.51
377.798	11.56
378.006	11.6
378.214	11.33
378.423	11.52
378.631	11.75
378.839	12.04
379.047	11.99
379.255	11.76
379.463	11.95
379.671	12.12
379.879	11.87
380.088	11.44
380.296	11.81
380.504	11.65
380.712	11.83
380.92	11.9
381.128	11.88
381.336	11.59
381.544	11.27
381.752	11.15
381.96	10.86
382.168	11.07
382.376	11.36
382.584	10.98
382.791	11.23
382.999	10.96
383.207	10.74
383.415	10.52
383.623	10.46
383.831	10.32
384.039	10.26
384.247	10.26
384.454	10.03
384.662	9.62
384.87	9.42
385.078	9.34
385.285	9.22
385.493	9.22
385.701	9
385.909	9.13
386.116	9.28
386.324	9.28
386.532	9.04
386.739	8.8
386.947	8.97
387.155	8.97
387.362	8.8
387.57	8.68
387.778	8.28
387.985	8.38
388.193	8.07
388.4	8.04
388.608	8.28
388.816	8.52
389.023	8.53
389.231	8.42
389.438	8.31
389.646	8.27
389.853	8.08
390.061	8.2
390.268	8.16
390.475	8.18
390.683	7.92
390.89	7.5
391.098	7.26
391.305	7.08
391.512	7.02
391.72	7.26
391.927	7.01
392.135	7.14
392.342	6.9
392.549	6.8
392.756	6.82
392.964	6.73
393.171	6.84
393.378	6.89
393.586	7.1
393.793	7.21
394	6.88
394.207	7.1
394.414	7.14
394.622	7.24
394.829	7.29
395.036	7.16
395.243	7.04
395.45	6.9
395.657	6.66
395.864	6.41
396.072	6.28
396.279	6.34
396.486	6.09
396.693	5.93
396.9	5.9
397.107	5.74
397.314	5.88
397.521	6.09
397.728	6.07
397.935	5.96
398.142	5.96
398.349	5.68
398.556	5.66
398.763	5.81
398.97	5.62
399.177	5.91
399.383	5.87
399.59	5.81
399.797	5.63
400.004	5.57
400.211	5.8
400.418	6.03
400.625	6.04
400.831	6.21
401.038	6.1
401.245	6.14
401.452	5.81
401.658	5.9
401.865	5.87
402.072	5.99
402.279	6
402.485	6.03
402.692	5.87
402.899	5.95
403.105	5.77
403.312	5.78
403.519	5.81
403.725	5.68
403.932	5.66
404.138	5.68
404.345	5.57
404.552	5.52
404.758	5.55
404.965	5.53
405.171	5.44
405.378	5.32
405.584	5.32
405.791	5.31
405.997	5.51
406.204	5.49
406.41	5.49
406.617	5.64
406.823	5.71
407.029	5.62
407.236	5.64
407.442	5.94
407.649	5.97
407.855	5.89
408.061	5.92
408.268	6.06
408.474	6.04
408.68	5.68
408.887	5.6
409.093	5.58
409.299	5.56
409.505	5.5
409.712	5.29
409.918	5.32
410.124	5.36
410.33	5.17
410.537	4.99
410.743	5.01
410.949	5.09
411.155	5.1
411.361	4.88
411.567	4.82
411.773	4.93
411.98	4.88
412.186	4.98
412.392	4.86
412.598	5.09
412.804	5.08
413.01	5.13
413.216	5.27
413.422	5.32
413.628	5.47
413.834	5.54
414.04	5.29
414.246	5.33
414.452	5.31
414.658	5.27
414.864	5.09
415.07	4.96
415.275	4.93
415.481	4.79
415.687	4.62
415.893	4.7
416.099	4.59
416.305	4.71
416.511	4.55
416.716	4.5
416.922	4.43
417.128	4.57
417.334	4.65
417.539	4.62
417.745	4.69
417.951	4.7
418.157	4.54
418.362	4.47
418.568	4.34
418.774	4.36
418.979	4.31
419.185	4.35
419.391	4.3
419.596	4.26
419.802	4.24
420.008	4.21
420.213	4.23
420.419	4.3
420.624	4.42
420.83	4.49
421.035	4.54
421.241	4.58
421.446	4.55
421.652	4.56
421.857	4.53
422.063	4.49
422.268	4.48
422.474	4.45
422.679	4.4
422.885	4.33
423.09	4.29
423.295	4.21
423.501	4.24
423.706	4.25
423.911	4.22
424.117	4.19
424.322	4.19
424.527	4.16
424.733	4.14
424.938	4.17
425.143	4.1
425.349	4.11
425.554	4.15
425.759	4.08
425.964	4.15
426.169	4.15
426.375	4.21
426.58	4.27
426.785	4.34
426.99	4.4
427.195	4.36
427.4	4.43
427.605	4.38
427.811	4.4
428.016	4.41
428.221	4.31
428.426	4.34
428.631	4.32
428.836	4.21
429.041	4.16
429.246	4.19
429.451	4.17
429.656	4.21
429.861	4.28
430.066	4.26
430.271	4.24
430.476	4.33
430.681	4.18
430.886	4.22
431.09	4.23
431.295	4.19
431.5	4.09
431.705	4.13
431.91	4.19
432.115	4.22
432.32	4.19
432.524	4.19
432.729	4.14
432.934	4.21
433.139	4.09
433.343	4.07
433.548	4.1
433.753	4.16
433.958	4.16
434.162	4.14
434.367	4.09
434.572	4.11
434.776	4.11
434.981	4.01
435.186	4.04
435.39	4.14
435.595	4.2
435.799	4.18
436.004	4.12
436.209	4.14
436.413	4.08
436.618	4.05
436.822	4.11
437.027	4.07
437.231	4.18
437.436	4.21
437.64	4.18
437.845	4.09
438.049	4.08
438.253	4.09
438.458	4.1
438.662	4.08
438.867	4.13
439.071	4.12
439.275	4.1
439.48	4.13
439.684	4.07
439.888	4.06
440.093	4.12
440.297	4.11
440.501	4.11
440.706	4.07
440.91	4.07
441.114	4.01
441.318	3.96
441.523	3.92
441.727	3.78
441.931	3.8
442.135	3.8
442.339	3.68
442.543	3.67
442.748	3.66
442.952	3.77
443.156	3.72
443.36	3.7
443.564	3.67
443.768	3.69
443.972	3.7
444.176	3.73
444.38	3.73
444.584	3.86
444.788	3.88
444.992	3.84
445.196	3.78
445.4	3.81
445.604	3.85
445.808	3.87
446.012	3.9
446.216	3.88
446.42	3.78
446.624	3.72
446.828	3.74
447.032	3.68
447.235	3.69
447.439	3.64
447.643	3.63
447.847	3.67
448.051	3.73
448.254	3.76
448.458	3.86
448.662	3.92
448.866	3.95
449.069	3.85
449.273	3.85
449.477	3.83
449.681	3.83
449.884	3.83
450.088	3.71
450.292	3.58
450.495	3.49
450.699	3.44
450.902	3.48
451.106	3.5
451.31	3.46
451.513	3.61
451.717	3.66
451.92	3.67
452.124	3.62
452.327	3.64
452.531	3.71
452.734	3.77
452.938	3.89
453.141	3.83
453.345	3.82
453.548	3.91
453.752	3.78
453.955	3.82
454.158	3.82
454.362	3.94
454.565	4.07
454.769	4.05
454.972	4
455.175	3.86
455.379	3.84
455.582	3.82
455.785	3.77
455.988	3.85
456.192	3.77
456.395	3.74
456.598	3.66
456.801	3.48
457.005	3.43
457.208	3.43
457.411	3.37
457.614	3.46
457.817	3.48
458.021	3.49
458.224	3.51
458.427	3.53
458.63	3.53
458.833	3.48
459.036	3.49
459.239	3.56
459.442	3.61
459.645	3.68
459.848	3.67
460.051	3.7
460.254	3.69
460.457	3.71
460.66	3.67
460.863	3.75
461.066	3.84
461.269	3.99
461.472	3.97
461.675	3.98
461.878	4
462.081	4
462.284	3.98
462.486	3.97
462.689	4.01
462.892	3.91
463.095	3.84
463.298	3.84
463.5	3.76
463.703	3.88
463.906	3.8
464.109	3.85
464.311	3.84
464.514	3.9
464.717	3.93
464.92	3.76
465.122	3.91
465.325	3.94
465.528	4.02
465.73	4.04
465.933	3.86
466.135	4.01
466.338	3.96
466.541	4.01
466.743	3.99
466.946	3.91
467.148	3.92
467.351	3.94
467.553	3.92
467.756	3.84
467.958	3.78
468.161	3.96
468.363	3.86
468.566	3.86
468.768	3.8
468.971	3.8
469.173	3.88
469.375	4.01
469.578	4.01
469.78	3.93
469.983	3.9
470.185	3.99
470.387	3.9
470.59	3.93
470.792	3.84
470.994	3.8
471.196	3.8
471.399	3.81
471.601	3.71
471.803	3.61
472.005	3.66
472.208	3.75
472.41	3.74
472.612	3.7
472.814	3.65
473.016	3.76
473.218	3.81
473.421	3.8
473.623	3.8
473.825	3.89
474.027	3.99
474.229	4.05
474.431	4.03
474.633	4.01
474.835	4.11
475.037	4.12
475.239	4.11
475.441	4.12
475.643	4.12
475.845	4.14
476.047	4.03
476.249	4.08
476.451	4.06
476.653	4
476.855	3.95
477.057	3.95
477.258	3.92
477.46	3.91
477.662	3.85
477.864	3.81
478.066	3.75
478.268	3.91
478.469	3.89
478.671	3.9
478.873	3.89
479.075	3.86
479.276	3.83
479.478	3.9
479.68	3.9
479.882	3.92
480.083	3.91
480.285	3.89
480.487	3.78
480.688	3.68
480.89	3.67
481.091	3.66
481.293	3.66
481.495	3.61
481.696	3.54
481.898	3.55
482.099	3.5
482.301	3.48
482.502	3.47
482.704	3.48
482.905	3.48
483.107	3.48
483.308	3.48
483.51	3.47
483.711	3.49
483.913	3.52
484.114	3.51
484.315	3.57
484.517	3.61
484.718	3.62
484.92	3.6
485.121	3.58
485.322	3.57
485.524	3.61
485.725	3.64
485.926	3.67
486.127	3.66
486.329	3.65
486.53	3.63
486.731	3.61
486.932	3.59
487.134	3.62
487.335	3.66
487.536	3.67
487.737	3.64
487.938	3.64
488.139	3.62
488.341	3.62
488.542	3.64
488.743	3.64
488.944	3.67
489.145	3.7
489.346	3.72
489.547	3.71
489.748	3.71
489.949	3.71
490.15	3.68
490.351	3.63
490.552	3.62
490.753	3.61
490.954	3.62
491.155	3.61
491.356	3.63
491.557	3.61
491.758	3.66
491.959	3.67
492.159	3.72
492.36	3.78
492.561	3.87
492.762	3.94
492.963	4.01
493.164	4.09
493.364	4.11
493.565	4.16
493.766	4.18
493.967	4.21
494.167	4.24
494.368	4.22
494.569	4.18
494.769	4.16
494.97	4.08
495.171	4.09
495.371	4.05
495.572	4.09
495.773	4.05
495.973	4.13
496.174	4.04
496.375	4.05
496.575	4.04
496.776	4.07
496.976	4.07
497.177	4.15
497.377	4.17
497.578	4.23
497.778	4.2
497.979	4.26
498.179	4.17
498.38	4.24
498.58	4.26
498.78	4.28
498.981	4.33
499.181	4.37
499.382	4.4
499.582	4.32
499.782	4.25
499.983	4.33
500.183	4.25
500.383	4.34
500.584	4.35
500.784	4.27
500.984	4.31
501.184	4.4
501.385	4.41
501.585	4.41
501.785	4.46
501.985	4.59
502.185	4.66
502.386	4.75
502.586	4.78
502.786	4.8
502.986	4.91
503.186	4.94
503.386	4.86
503.586	4.9
503.786	4.97
503.987	5.01
504.187	5.01
504.387	4.96
504.587	4.98
504.787	5.02
504.987	5.01
505.187	5.03
505.387	5.09
505.587	5.15
505.786	5.17
505.986	5.11
506.186	5.12
506.386	5.13
506.586	5.07
506.786	5.1
506.986	5.1
507.186	5.21
507.386	5.15
507.585	5.17
507.785	5.16
507.985	5.22
508.185	5.34
508.384	5.4
508.584	5.5
508.784	5.62
508.984	5.68
509.183	5.76
509.383	5.74
509.583	5.86
509.782	5.84
509.982	5.85
510.182	5.88
510.381	5.81
510.581	5.81
510.781	5.74
510.98	5.72
511.18	5.71
511.379	5.7
511.579	5.82
511.778	5.89
511.978	5.97
512.177	5.99
512.377	6
512.576	6.13
512.776	6.19
512.975	6.25
513.175	6.3
513.374	6.34
513.573	6.41
513.773	6.41
513.972	6.43
514.172	6.49
514.371	6.59
514.57	6.65
514.77	6.65
514.969	6.64
515.168	6.66
515.367	6.73
515.567	6.78
515.766	6.74
515.965	6.72
516.164	6.63
516.364	6.62
516.563	6.57
516.762	6.56
516.961	6.58
517.16	6.57
517.359	6.57
517.559	6.48
517.758	6.44
517.957	6.52
518.156	6.57
518.355	6.68
518.554	6.66
518.753	6.71
518.952	6.77
519.151	6.82
519.35	6.89
519.549	6.93
519.748	7.07
519.947	7.13
520.146	7.09
520.345	7.08
520.544	7.08
520.743	7.14
520.942	7.17
521.141	7.15
521.339	7.2
521.538	7.31
521.737	7.37
521.936	7.36
522.135	7.39
522.333	7.36
522.532	7.43
522.731	7.49
522.93	7.51
523.129	7.55
523.327	7.58
523.526	7.55
523.725	7.54
523.923	7.53
524.122	7.57
524.321	7.58
524.519	7.69
524.718	7.67
524.917	7.69
525.115	7.68
525.314	7.72
525.512	7.75
525.711	7.72
525.909	7.73
526.108	7.77
526.306	7.76
526.505	7.8
526.703	7.77
526.902	7.75
527.1	7.73
527.299	7.74
527.497	7.76
527.696	7.77
527.894	7.82
528.092	7.83
528.291	7.83
528.489	7.89
528.688	7.91
528.886	7.94
529.084	8
529.283	8.05
529.481	8.14
529.679	8.16
529.877	8.21
530.076	8.24
530.274	8.3
530.472	8.36
530.67	8.37
530.869	8.39
531.067	8.47
531.265	8.55
531.463	8.59
531.661	8.61
531.859	8.6
532.057	8.66
532.255	8.71
532.454	8.75
532.652	8.8
532.85	8.86
533.048	8.9
533.246	8.88
533.444	8.9
533.642	8.93
533.84	8.91
534.038	8.96
534.236	8.94
534.434	8.9
534.632	8.91
534.83	8.88
535.027	8.86
535.225	8.89
535.423	8.95
535.621	8.94
535.819	9.03
536.017	9.1
536.215	9.18
536.412	9.32
536.61	9.35
536.808	9.36
537.006	9.38
537.203	9.45
537.401	9.46
537.599	9.47
537.797	9.51
537.994	9.48
538.192	9.48
538.39	9.49
538.587	9.45
538.785	9.54
538.983	9.6
539.18	9.64
539.378	9.6
539.575	9.63
539.773	9.66
539.97	9.58
540.168	9.62
540.366	9.64
540.563	9.63
540.761	9.66
540.958	9.67
541.155	9.68
541.353	9.74
541.55	9.8
541.748	9.85
541.945	9.86
542.143	10.01
542.34	10.03
542.537	10.13
542.735	10.25
542.932	10.33
543.129	10.36
543.327	10.43
543.524	10.45
543.721	10.49
543.919	10.56
544.116	10.59
544.313	10.59
544.51	10.65
544.708	10.55
544.905	10.53
545.102	10.53
545.299	10.64
545.496	10.66
545.693	10.66
545.891	10.73
546.088	10.72
546.285	10.83
546.482	10.98
546.679	11.1
546.876	11.18
547.073	11.29
547.27	11.34
547.467	11.27
547.664	11.4
547.861	11.49
548.058	11.58
548.255	11.71
548.452	11.71
548.649	11.67
548.846	11.63
549.043	11.85
549.24	11.79
549.437	11.84
549.633	11.93
549.83	11.88
550.027	11.92
550.224	11.94
550.421	11.93
550.618	12
550.814	12.04
551.011	12
551.208	11.96
551.405	12.14
551.601	12.19
551.798	12.23
551.995	12.38
552.191	12.41
552.388	12.5
552.585	12.47
552.781	12.52
552.978	12.61
553.175	12.77
553.371	12.86
553.568	12.94
553.764	12.96
553.961	12.99
554.157	12.9
554.354	13.05
554.55	13.01
554.747	13.17
554.943	13.17
555.14	13.19
555.336	13.22
555.533	13.28
555.729	13.3
555.926	13.42
556.122	13.58
556.318	13.72
556.515	13.72
556.711	13.82
556.907	13.83
557.104	13.98
557.3	14.01
557.496	14.13
557.693	14.19
557.889	14.21
558.085	14.23
558.281	14.21
558.478	14.19
558.674	14.28
558.87	14.28
559.066	14.36
559.262	14.49
559.459	14.53
559.655	14.59
559.851	14.63
560.047	14.74
560.243	14.76
560.439	14.8
560.635	14.92
560.831	14.98
561.027	15.11
561.223	15.09
561.419	14.99
561.615	15.17
561.811	15.23
562.007	15.28
562.203	15.29
562.399	15.45
562.595	15.51
562.791	15.7
562.987	15.74
563.183	15.77
563.379	15.87
563.575	15.92
563.771	15.89
563.966	15.91
564.162	15.93
564.358	15.95
564.554	15.96
564.75	16.02
564.945	15.95
565.141	16.06
565.337	16.11
565.533	16.23
565.728	16.33
565.924	16.45
566.12	16.53
566.315	16.57
566.511	16.62
566.707	16.67
566.902	16.78
567.098	16.87
567.293	16.9
567.489	17.01
567.684	17.06
567.88	17.14
568.076	17.16
568.271	17.15
568.467	17.18
568.662	17.32
568.858	17.38
569.053	17.31
569.248	17.35
569.444	17.45
569.639	17.52
569.835	17.51
570.03	17.51
570.225	17.52
570.421	17.57
570.616	17.65
570.812	17.64
571.007	17.66
571.202	17.81
571.397	17.85
571.593	17.8
571.788	17.79
571.983	17.98
572.178	18.12
572.374	18.2
572.569	18.32
572.764	18.38
572.959	18.49
573.154	18.69
573.35	18.78
573.545	18.86
573.74	18.99
573.935	19.01
574.13	18.96
574.325	18.94
574.52	18.98
574.715	18.96
574.91	19.03
575.105	19.03
575.3	19.04
575.495	19.05
575.69	19.07
575.885	19.11
576.08	19.24
576.275	19.43
576.47	19.55
576.665	19.7
576.86	19.88
577.055	20.02
577.25	20.06
577.444	20
577.639	19.97
577.834	20.07
578.029	20.13
578.224	20.1
578.418	20
578.613	20.03
578.808	19.98
579.003	19.88
579.197	19.88
579.392	19.93
579.587	20.03
579.781	20.12
579.976	20.13
580.171	20.06
580.365	20.11
580.56	20.13
580.755	20.3
580.949	20.36
581.144	20.5
581.338	20.5
581.533	20.61
581.727	20.63
581.922	20.69
582.116	20.72
582.311	20.82
582.505	20.94
582.7	20.86
582.894	20.78
583.089	20.8
583.283	20.76
583.478	20.79
583.672	20.77
583.866	20.78
584.061	20.76
584.255	20.86
584.449	20.94
584.644	20.86
584.838	21.01
585.032	21.09
585.226	21.15
585.421	21.29
585.615	21.39
585.809	21.42
586.003	21.38
586.198	21.54
586.392	21.67
586.586	21.74
586.78	21.8
586.974	21.83
587.168	21.77
587.363	21.83
587.557	21.83
587.751	21.83
587.945	21.82
588.139	21.98
588.333	21.97
588.527	21.94
588.721	21.89
588.915	21.92
589.109	22
589.303	22.01
589.497	21.99
589.691	21.98
589.885	21.94
590.079	22.09
590.273	22.12
590.466	22.2
590.66	22.26
590.854	22.3
591.048	22.28
591.242	22.35
591.436	22.5
591.629	22.53
591.823	22.63
592.017	22.76
592.211	22.85
592.404	22.7
592.598	22.69
592.792	22.65
592.986	22.74
593.179	22.77
593.373	22.62
593.567	22.67
593.76	22.8
593.954	22.74
594.147	22.67
594.341	22.68
594.535	22.81
594.728	22.74
594.922	22.68
595.115	22.68
595.309	22.67
595.502	22.84
595.696	22.74
595.889	22.65
596.083	22.67
596.276	22.67
596.47	22.71
596.663	22.8
596.856	22.99
597.05	22.98
597.243	22.89
597.437	22.94
597.63	22.82
597.823	22.88
598.017	22.82
598.21	22.89
598.403	22.99
598.596	22.85
598.79	22.67
598.983	22.47
599.176	22.65
599.369	22.65
599.563	22.82
599.756	23.06
599.949	23.04
600.142	23.18
600.335	23.14
600.528	23.12
600.722	23.15
600.915	23.28
601.108	23.37
601.301	23.33
601.494	23.38
601.687	23.31
601.88	23.15
602.073	23.05
602.266	23.07
602.459	23.07
602.652	23.03
602.845	22.99
603.038	23.01
603.231	23.03
603.424	23.05
603.617	23.11
603.809	23.16
604.002	23.25
604.195	23.28
604.388	23.28
604.581	23.36
604.774	23.44
604.966	23.47
605.159	23.44
605.352	23.53
605.545	23.61
605.737	23.61
605.93	23.58
606.123	23.66
606.316	23.79
606.508	23.77
606.701	23.84
606.894	23.68
607.086	23.81
607.279	23.96
607.471	23.93
607.664	23.84
607.857	23.86
608.049	23.97
608.242	23.91
608.434	23.98
608.627	23.95
608.819	23.94
609.012	24.16
609.204	24.17
609.397	24.15
609.589	24.25
609.782	24.26
609.974	24.36
610.166	24.4
610.359	24.49
610.551	24.47
610.743	24.55
610.936	24.68
611.128	24.7
611.32	24.75
611.513	24.8
611.705	24.66
611.897	24.66
612.09	24.6
612.282	24.47
612.474	24.47
612.666	24.57
612.858	24.69
613.051	24.48
613.243	24.37
613.435	24.46
613.627	24.32
613.819	24.39
614.011	24.5
614.203	24.61
614.395	24.58
614.588	24.58
614.78	24.63
614.972	24.6
615.164	24.74
615.356	24.89
615.548	24.75
615.74	24.88
615.932	25.08
616.124	25.08
616.315	25.11
616.507	25.33
616.699	25.44
616.891	25.34
617.083	25.42
617.275	25.35
617.467	25.32
617.659	25.47
617.85	25.39
618.042	25.2
618.234	25.36
618.426	25.19
618.618	24.94
618.809	24.9
619.001	24.99
619.193	25.15
619.384	25.02
619.576	24.99
619.768	24.97
619.959	25.23
620.151	25.15
620.343	25.06
620.534	25.32
620.726	25.43
620.917	25.43
621.109	25.51
621.301	25.26
621.492	25.59
621.684	25.61
621.875	25.59
622.067	25.43
622.258	25.46
622.45	25.51
622.641	25.42
622.832	25.56
623.024	25.47
623.215	25.46
623.407	25.43
623.598	25.36
623.789	25.36
623.981	25.32
624.172	25.21
624.363	25.28
624.555	25.15
624.746	25
624.937	24.88
625.129	24.95
625.32	24.77
625.511	24.87
625.702	24.91
625.893	25.04
626.085	25.12
626.276	25.19
626.467	25.2
626.658	25.39
626.849	25.49
627.04	25.6
627.231	25.54
627.422	25.67
627.614	25.71
627.805	25.59
627.996	25.48
628.187	25.62
628.378	25.89
628.569	25.96
628.76	26.04
628.951	26.04
629.142	26.03
629.332	26.12
629.523	26.18
629.714	26.05
629.905	25.99
630.096	25.89
630.287	25.79
630.478	25.59
630.669	25.56
630.859	25.42
631.05	25.43
631.241	25.43
631.432	25.36
631.623	25.48
631.813	25.65
632.004	25.93
632.195	26.04
632.385	25.91
632.576	25.93
632.767	25.98
632.957	25.84
633.148	25.91
633.339	25.84
633.529	25.98
633.72	25.87
633.91	25.88
634.101	25.82
634.292	25.86
634.482	25.98
634.673	25.93
634.863	25.81
635.054	25.93
635.244	25.95
635.435	26.21
635.625	26.17
635.815	26.25
636.006	26.1
636.196	26.14
636.387	26.2
636.577	26.14
636.767	26.22
636.958	26.41
637.148	26.62
637.338	26.55
637.529	26.42
637.719	26.37
637.909	26.45
638.099	26.74
638.29	26.53
638.48	26.37
638.67	26.39
638.86	26.39
639.05	26.38
639.241	26.14
639.431	26.23
639.621	26.27
639.811	26.42
640.001	26.28
640.191	26.17
640.381	26.14
640.571	26.36
640.761	26.27
640.951	26.37
641.141	26.25
641.331	26.21
641.521	26.38
641.711	26.46
641.901	26.25
642.091	26.15
642.281	26
642.471	26.18
642.661	26.11
642.851	26.39
643.041	26.26
643.231	26.3
643.42	26.55
643.61	26.42
643.8	26.24
643.99	26.42
644.18	26.71
644.369	26.82
644.559	26.81
644.749	26.95
644.939	26.82
645.128	26.97
645.318	27.1
645.508	27.12
645.697	27.06
645.887	27.15
646.076	27.11
646.266	27.1
646.456	27.23
646.645	27.35
646.835	27.17
647.024	27.34
647.214	27.25
647.403	27.22
647.593	27.07
647.782	27.07
647.972	26.78
648.161	26.69
648.351	26.68
648.54	26.71
648.73	26.72
648.919	26.78
649.108	26.63
649.298	26.5
649.487	26.44
649.677	26.62
649.866	26.75
650.055	26.99
650.244	26.94
650.434	26.75
650.623	26.7
650.812	26.63
651.002	26.63
651.191	26.7
651.38	26.93
651.569	27.03
651.758	26.96
651.947	26.9
652.137	27.01
652.326	27.16
652.515	27.27
652.704	27.08
652.893	27.12
653.082	27.06
653.271	26.93
653.46	26.74
653.649	26.55
653.838	26.37
654.027	26.45
654.216	26.52
654.405	26.58
654.594	26.46
654.783	26.64
654.972	26.78
655.161	26.89
655.35	26.94
655.539	27.06
655.728	27.15
655.916	27.39
656.105	27.28
656.294	27.21
656.483	27.46
656.672	27.4
656.86	27.38
657.049	27.16
657.238	27.09
657.427	27.21
657.615	27.15
657.804	27.2
657.993	27.2
658.181	27.03
658.37	27.06
658.559	26.85
658.747	26.94
658.936	26.89
659.125	27.49
659.313	27.51
659.502	27.65
659.69	27.77
659.879	27.78
660.067	27.72
660.256	27.92
660.444	27.95
660.633	27.95
660.821	28
661.01	28.05
661.198	27.49
661.387	27.66
661.575	27.45
661.763	27.38
661.952	27.42
662.14	27.5
662.328	27.59
662.517	27.62
662.705	27.63
662.893	27.57
663.082	27.53
663.27	27.52
663.458	27.4
663.646	27.35
663.834	27.38
664.023	27.26
664.211	27.41
664.399	27.51
664.587	27.29
664.775	27.59
664.963	27.44
665.152	27.8
665.34	27.95
665.528	28.06
665.716	28.15
665.904	28.09
666.092	28.07
666.28	27.99
666.468	27.93
666.656	27.83
666.844	27.73
667.032	27.95
667.22	27.63
667.408	27.4
667.596	27.37
667.784	27.32
667.971	27.32
668.159	27.25
668.347	27.34
668.535	27.34
668.723	27.34
668.911	27.08
669.098	27.17
669.286	27.39
669.474	27.57
669.662	27.43
669.849	27.66
670.037	27.97
670.225	28.19
670.413	28
670.6	27.99
670.788	28.44
670.976	28.67
671.163	28.7
671.351	28.67
671.538	28.47
671.726	28.47
671.913	28.47
672.101	28.37
672.289	28.17
672.476	28.13
672.664	28.21
672.851	27.92
673.039	27.91
673.226	27.78
673.413	27.85
673.601	28.06
673.788	28.03
673.976	27.83
674.163	27.7
674.35	27.92
674.538	28.29
674.725	28.27
674.912	28.54
675.1	28.37
675.287	28.7
675.474	28.64
675.662	28.58
675.849	28.73
676.036	28.71
676.223	28.64
676.411	28.47
676.598	28.16
676.785	27.94
676.972	27.73
677.159	27.93
677.346	27.75
677.533	27.65
677.721	27.55
677.908	27.66
678.095	27.64
678.282	27.55
678.469	27.65
678.656	27.62
678.843	27.95
679.03	27.84
679.217	27.92
679.404	27.78
679.591	27.8
679.778	27.83
679.964	27.66
680.151	27.56
680.338	27.7
680.525	27.73
680.712	28.04
680.899	27.88
681.086	28.01
681.272	27.8
681.459	27.92
681.646	27.89
681.833	27.94
682.02	27.95
682.206	28.21
682.393	28.45
682.58	28.55
682.766	28.27
682.953	28.55
683.14	28.54
683.326	28.66
683.513	28.68
683.7	28.78
683.886	28.76
684.073	29.18
684.259	29.18
684.446	29.13
684.632	29.03
684.819	29.01
685.005	28.95
685.192	28.99
685.378	28.85
685.565	28.8
685.751	28.68
685.938	28.83
686.124	28.81
686.31	28.87
686.497	28.98
686.683	28.85
686.87	28.91
687.056	28.62
687.242	28.45
687.429	28.72
687.615	28.78
687.801	29.09
687.987	28.97
688.174	28.75
688.36	28.47
688.546	28.21
688.732	28.26
688.918	28.23
689.105	28.3
689.291	28.58
689.477	28.41
689.663	28.53
689.849	28.48
690.035	28.51
690.221	28.53
690.407	29.11
690.593	28.97
690.779	29.21
690.965	29.17
691.151	29.46
691.337	29.47
691.523	29.56
691.709	29.34
691.895	28.93
692.081	29.01
692.267	28.94
692.453	28.63
692.639	29.05
692.825	28.8
693.011	28.54
693.196	28.35
693.382	28.29
693.568	28.13
693.754	28.44
693.94	28.6
694.125	28.54
694.311	28.88
694.497	28.57
694.682	28.5
694.868	28.73
695.054	28.94
695.239	29.05
695.425	28.87
695.611	28.69
695.796	28.76
695.982	28.81
696.168	28.36
696.353	28.08
696.539	28.31
696.724	28.19
696.91	27.93
697.095	27.96
697.281	27.88
697.466	27.91
697.652	28.03
697.837	27.94
698.023	27.78
698.208	28.04
698.393	28.07
698.579	28.21
698.764	28.21
698.949	28.35
699.135	28.41
699.32	28.39
699.505	28.41
699.691	28.38
699.876	28.21
700.061	28.66
700.246	28.52
700.432	28.51
700.617	27.91
700.802	27.67
700.987	27.65
701.172	27.41
701.358	27.35
701.543	27.37
701.728	27.51
701.913	27.53
702.098	27.18
702.283	27.49
702.468	27.58
702.653	28.22
702.838	28.67
703.023	28.54
703.208	28.59
703.393	28.64
703.578	29.13
703.763	29.09
703.948	29.19
704.133	29.46
704.318	29.45
704.503	29.17
704.688	29.26
704.873	28.86
705.057	29.19
705.242	29.5
705.427	29.61
705.612	28.95
705.797	29.13
705.981	29.12
706.166	29.14
706.351	29.1
706.536	29.31
706.72	29.21
706.905	29.56
707.09	29.51
707.274	29.51
707.459	29.46
707.644	29.7
707.828	29.5
708.013	29.5
708.197	29.35
708.382	29.36
708.567	29.27
708.751	29.22
708.936	28.81
709.12	28.99
709.305	28.85
709.489	28.69
709.673	28.83
709.858	29.04
710.042	28.95
710.227	28.96
710.411	28.77
710.596	28.87
710.78	28.95
710.964	29.27
711.149	29.21
711.333	29.62
711.517	29.86
711.702	29.43
711.886	29.28
712.07	29.38
712.254	29.13
712.438	29.14
712.623	29.16
712.807	28.77
712.991	28.7
713.175	28.45
713.359	27.84
713.544	27.81
713.728	28.04
713.912	27.99
714.096	28.27
714.28	28.53
714.464	28.81
714.648	28.69
714.832	28.63
715.016	28.81
715.2	29.03
715.384	29.22
715.568	29.35
715.752	29.22
715.936	29.28
716.12	28.85
716.304	28.82
716.488	28.59
716.671	28.28
716.855	28.61
717.039	28.25
717.223	27.8
717.407	27.89
717.59	28.15
717.774	28.35
717.958	28.09
718.142	28.19
718.325	27.76
718.509	27.85
718.693	28.31
718.877	28.31
719.06	28.58
719.244	29.08
719.428	29.02
719.611	28.72
719.795	28.44
719.978	29.03
720.162	29.11
720.345	29.73
720.529	30.12
720.713	30.32
720.896	30.3
721.08	29.96
721.263	29.87
721.446	30.21
721.63	30.15
721.813	30.72
721.997	30.75
722.18	31.05
722.364	31.08
722.547	30.61
722.73	30.46
722.914	30.4
723.097	30.66
723.28	30.71
723.464	30.71
723.647	30.6
723.83	30.28
724.013	30.15
724.197	29.92
724.38	29.7
724.563	29.68
724.746	29.96
724.929	29.99
725.112	30.51
725.296	30.28
725.479	30.25
725.662	29.83
725.845	30.02
726.028	30
726.211	29.86
726.394	29.75
726.577	29.71
726.76	29.32
726.943	29.32
727.126	28.99
727.309	29.14
727.492	28.88
727.675	29.09
727.858	28.82
728.041	28.57
728.224	28.78
728.407	29.02
728.589	29.23
728.772	29.4
728.955	29.4
729.138	29.14
729.321	29.25
729.503	29.31
729.686	29.37
729.869	29.41
730.052	29.76
730.234	29.43
730.417	29.5
730.6	29.27
730.782	29.21
730.965	28.81
731.148	29.09
731.33	28.9
731.513	28.81
731.695	29.01
731.878	29.2
732.061	29.05
732.243	29.22
732.426	28.45
732.608	28.79
732.791	28.94
732.973	29.36
733.156	29.18
733.338	29.09
733.52	29.34
733.703	29.19
733.885	29.53
734.068	29.58
734.25	29.19
734.432	30.12
734.615	29.87
734.797	29.93
734.979	30.08
735.162	30.2
735.344	30.31
735.526	30.01
735.708	29.96
735.891	29.67
736.073	29.13
736.255	29.91
736.437	29.61
736.619	29.48
736.802	29.14
736.984	29.07
737.166	29.15
737.348	29.72
737.53	29.08
737.712	29.07
737.894	29
738.076	29.48
738.258	29.03
738.44	29.15
738.622	29.74
738.804	29.85
738.986	29.75
739.168	29.78
739.35	29.73
739.532	30.3
739.714	30.14
739.896	29.46
740.078	29.89
740.259	29.77
740.441	29.55
740.623	29.34
740.805	29.5
740.987	29.66
741.168	29.67
741.35	29.64
741.532	29.88
741.714	30.25
741.895	30.97
742.077	30.88
742.259	30.69
742.44	30.83
742.622	30.5
742.804	30.55
742.985	29.89
743.167	30.06
743.348	29.5
743.53	29.48
743.711	29.41
743.893	29.83
744.075	29.49
744.256	29.71
744.438	29.82
744.619	29.7
744.8	29.62
744.982	29.71
745.163	29.47
745.345	30.01
745.526	30.18
745.707	30.27
745.889	30.43
746.07	30.39
746.252	30.97
746.433	31.07
746.614	31.9
746.795	32.13
746.977	32.7
747.158	32.92
747.339	32.21
747.52	31.91
747.702	32.14
747.883	31.67
748.064	31.12
748.245	30.3
748.426	30.62
748.607	30.74
748.788	30.29
748.97	29.91
749.151	29.97
749.332	29.64
749.513	29.79
749.694	29.74
749.875	29.85
750.056	30.48
750.237	31.21
750.418	30.43
750.599	30.1
750.78	29.8
750.96	30.27
751.141	29.41
751.322	29.63
751.503	29.81
751.684	29.97
751.865	29.88
752.046	30
752.226	29.48
752.407	30.05
752.588	30.12
752.769	30.42
752.949	29.91
753.13	30.43
753.311	30.99
753.492	30.78
753.672	30.41
753.853	30.74
754.034	30.25
754.214	30.67
754.395	30.34
754.575	30.2
754.756	30.74
754.937	31.47
755.117	31.36
755.298	30.77
755.478	30.48
755.659	30.27
755.839	29.73
756.02	30.43
756.2	30.43
756.381	30.24
756.561	29.74
756.741	29.86
756.922	29.56
757.102	29.76
757.283	30.42
757.463	30.59
757.643	31.2
757.823	31.08
758.004	30.5
758.184	30.28
758.364	30.29
758.545	30.21
758.725	30.14
758.905	30.23
759.085	29.47
759.265	29.48
759.446	29.69
759.626	29.45
759.806	29.48
759.986	29.36
760.166	29.6
760.346	29.88
760.526	30.3
760.706	30.03
760.886	29.85
761.066	29.94
761.246	29.68
761.426	30.2
761.606	30.11
761.786	29.77
761.966	30.67
762.146	29.97
762.326	29.67
762.506	29.65
762.686	29.24
762.866	29.19
763.046	29.2
763.225	29.49
763.405	28.99
763.585	28.98
763.765	29.26
763.945	28.56
764.124	29.09
764.304	29.13
764.484	28.73
764.664	29.12
764.843	29.23
765.023	29.63
765.203	29.46
765.382	29.73
765.562	29.93
765.741	29.88
765.921	30.27
766.101	30.61
766.28	30.43
766.46	30.44
766.639	30.43
766.819	30.58
766.998	30.46
767.178	30.57
767.357	30.61
767.537	29.73
767.716	29.96
767.896	30.12
768.075	29.2
768.254	29.55
768.434	30.39
768.613	30.95
768.792	30.32
768.972	30.59
769.151	30.41
769.33	30.72
769.51	31.16
769.689	30.88
769.868	30
770.047	30.57
770.226	31.25
770.406	30.59
770.585	29.62
770.764	29.66
770.943	28.72
771.122	28.34
771.301	27.97
771.48	27.99
771.66	27.71
771.839	28.93
772.018	29.3
772.197	28.78
772.376	28.63
772.555	28.45
772.734	29.28
772.913	29.84
773.092	30.12
773.271	30.21
773.449	29.66
773.628	31.06
773.807	29.74
773.986	29.32
774.165	29.53
774.344	30.03
774.523	31.3
774.701	30.61
774.88	30.91
775.059	31.25
775.238	30.86
775.417	31.79
775.595	31.46
775.774	31.9
775.953	32.27
776.131	32.46
776.31	32.23
776.489	31.05
776.667	31.44
776.846	31.26
777.025	30.99
777.203	30.32
777.382	30.54
777.56	29.3
777.739	28.79
777.917	27.73
778.096	26.99
778.274	26.34
778.453	27.05
778.631	26.49
778.81	26.38
778.988	26.46
779.166	26.99
779.345	26.43
779.523	27.43
779.702	27.7
779.88	28.39
780.058	28.23
780.237	28.43
780.415	28.36
780.593	29.04
780.771	29.5
780.95	29.6
781.128	30.39
781.306	30.86
781.484	30.6
781.662	30.62
781.841	30.01
782.019	30.66
782.197	31.25
782.375	31.08
782.553	30.53
782.731	30.1
782.909	30.19
783.087	29.61
783.265	29.86
783.443	29.71
783.621	29.77
783.799	30.89
783.977	31.79
784.155	32.4
784.333	32.03
784.511	31.67
784.689	31.77
784.867	31.52
785.045	31.29
785.223	30.47
785.4	30.74
785.578	31.17
785.756	30.14
785.934	28.33
786.112	28.83
786.289	29.8
786.467	30.72
786.645	31.01
786.823	31.12
787	31.97
787.178	31.06
787.356	31.18
787.533	31.41
787.711	32.41
787.889	33.32
788.066	32.47
788.244	31.77
788.421	31.85
788.599	31.34
788.776	30.53
788.954	30.88
789.131	31.36
789.309	30.88
789.486	30.43
789.664	29.81
789.841	30.18
790.019	30.43
790.196	30.79
790.373	30.53
790.551	31.05
790.728	32.44
790.906	31.72
791.083	32.24
791.26	32.04
791.437	32.19
791.615	32.74
791.792	31.82
791.969	31.89
792.146	32.07
792.324	31.94
792.501	31.95
792.678	31.14
792.855	31.7
793.032	32.49
793.209	32.53
793.387	33.01
793.564	32.53
793.741	33.23
793.918	33.55
794.095	33.4
794.272	33
794.449	32.45
794.626	32.95
794.803	31.29
794.98	30.3
795.157	31.22
795.334	30.31
795.511	30.46
795.688	29.66
795.864	28.4
796.041	28.41
796.218	29.11
796.395	28.7
796.572	28.51
796.749	29.93
796.925	31.42
797.102	31.07
797.279	31.54
797.456	31.83
797.632	31.66
797.809	31.2
797.986	31.28
798.162	31.25
798.339	32.6
798.516	32.41
798.692	31.94
798.869	30.61
799.046	29.94
799.222	29.84
799.399	30.06
799.575	30.81
799.752	31.5
799.928	31.41
800.105	31.3
800.281	30.86
800.458	31.19
800.634	31.52
800.811	31.49
800.987	31.99
801.163	31.5
801.34	30.79
801.516	30.99
801.692	31.36
801.869	31.23
802.045	31.39
802.221	31.89
802.398	31.49
802.574	30.97
802.75	31.08
802.926	31.19
803.103	31.52
803.279	30.99
803.455	29.98
803.631	30.73
803.807	31.02
803.983	31.64
804.16	29.88
804.336	30.63
804.512	32.02
804.688	32.7
804.864	33.22
805.04	33.35
805.216	34.08
805.392	34.96
805.568	33.66
805.744	32.94
805.92	32.15
806.096	33.24
806.272	33
806.448	32.2
806.623	31.63
806.799	31.22
806.975	32.06
807.151	31.33
807.327	30.51
807.503	30.81
807.678	31.39
807.854	30.4
808.03	31.22
808.206	30.56
808.381	30.02
808.557	30.97
808.733	31.77
808.908	31.28
809.084	31.6
809.26	31.98
809.435	32.74
809.611	33.16
809.787	33.83
809.962	32.06
810.138	31.54
810.313	31.56
810.489	31.28
810.664	29.81
810.84	30.64
811.015	30.9
811.191	31.39
811.366	31.45
811.542	31.16
811.717	30.79
811.892	32.77
812.068	33.29
812.243	32.84
812.419	31.81
812.594	31.93
812.769	31.06
812.944	31.31
813.12	31.23
813.295	31.29
813.47	31.03
813.645	31.67
813.821	30.94
813.996	30.96
814.171	31.39
814.346	31.85
814.521	32.39
814.697	32.56
814.872	31.84
815.047	32
815.222	31.68
815.397	31.31
815.572	31.7
815.747	30.54
815.922	30.95
816.097	30.81
816.272	30.24
816.447	29.51
816.622	29.53
816.797	30.09
816.972	30.2
817.147	30.3
817.322	30.87
817.496	30.93
817.671	31.58
817.846	31.91
818.021	32.29
818.196	32.58
818.371	33.41
818.545	32.55
818.72	33.35
818.895	33.14
819.069	32.44
819.244	32.63
819.419	31.87
819.594	31.61
819.768	31.14
819.943	30.8
820.117	30.68
820.292	30.29
820.467	30.34
820.641	29.92
820.816	29.66
820.99	29.29
821.165	28.75
821.339	28.92
821.514	28.78
821.688	28.56
821.863	28.26
822.037	28.18
822.212	28.23
822.386	28.25
822.56	28.14
822.735	28.27
822.909	28.77
823.084	28.96
823.258	29.01
823.432	29.12
823.606	29.28
823.781	29.63
823.955	29.82
824.129	29.63
824.303	29.65
824.478	29.72
824.652	29.49
824.826	29.07
825	29.18
825.174	29.1
825.348	29.02
825.523	29.16
825.697	29.28
825.871	29.17
826.045	29.92
826.219	30.06
826.393	29.91
826.567	30.25
826.741	30.51
826.915	30.57
827.089	30.66
827.263	31.17
827.437	30.82
827.611	30.77
827.784	30.96
827.958	30.46
828.132	30.53
828.306	31.06
828.48	30.81
828.654	30.52
828.827	30.53
829.001	30.21
829.175	29.53
829.349	30.29
829.522	30.27
829.696	30.32
829.87	29.76
830.044	29.48
830.217	29.46
830.391	29.51
830.565	30.16
830.738	30.05
830.912	31.16
831.085	32.19
831.259	32.37
831.432	32.74
831.606	33.19
831.779	33.5
831.953	33.66
832.126	33.33
832.3	33.21
832.473	32.32
832.647	32.12
832.82	31.8
832.994	31.09
833.167	30.29
833.34	29.91
833.514	29.63
833.687	29.54
833.86	29.25
834.034	28.91
834.207	28.19
834.38	28.64
834.553	28.71
834.727	28.39
834.9	27.82
835.073	28.38
835.246	28.84
835.419	28.43
835.593	29.05
835.766	29.7
835.939	30.68
836.112	31.3
836.285	31.05
836.458	30.6
836.631	30.36
836.804	31.69
836.977	31.75
837.15	31.64
837.323	31.66
837.496	32.04
837.669	30.54
837.842	30.56
838.015	31.17
838.188	31.04
838.361	32.42
838.533	33.14
838.706	31.79
838.879	32.23
839.052	33.33
839.225	35.02
839.398	34.88
839.57	36.39
839.743	35.64
839.916	36.9
840.088	37.84
840.261	39.2
840.434	39.26
840.607	40.9
840.779	40.84
840.952	38.97
841.124	37.21
841.297	36.76
841.47	36.15
841.642	35.77
841.815	35.65
841.987	35.69
842.16	34.87
842.332	36.17
842.505	35.04
842.677	33.89
842.85	33.22
843.022	35.2
843.194	34.74
843.367	35.8
843.539	36.56
843.712	34.92
843.884	35.71
844.056	35.11
844.229	33.34
844.401	35.93
844.573	36.39
844.745	36.96
844.918	35.97
845.09	37.2
845.262	35.37
845.434	36.55
845.606	36.38
845.779	33.42
845.951	33.95
846.123	34.18
846.295	31.04
846.467	32.01
846.639	33.1
846.811	32.67
846.983	34.34
847.155	37.3
847.327	37.34
847.499	39.87
847.671	40.55
847.843	36.93
848.015	36.86
848.187	35.99
848.359	35.45
848.531	36.63
848.703	35.77
848.875	37.07
849.047	37.44
849.218	37.62
849.39	36.07
849.562	36.91
849.734	39.21
849.905	40.42
850.077	41.69
850.249	41.43
850.421	40.51
850.592	42.77
850.764	38.07
850.936	35.74
851.107	33.01
851.279	34.3
851.451	36.17
851.622	37.3
851.794	37.21
851.965	42.46
852.137	42.38
852.308	42.16
852.48	41.58
852.651	45.91
852.823	48.39
852.994	49.37
853.166	45.35
853.337	43.97
853.509	44.82
853.68	42.9
853.851	38.88
854.023	39.62
854.194	42.14
854.365	41.59
854.537	41.16
854.708	39.63
854.879	41.46
855.05	45.99
855.222	43.58
855.393	42.53
855.564	44.05
855.735	44.4
855.906	41.7
856.078	38.12
856.249	40.22
856.42	37.18
856.591	39.39
856.762	39.35
856.933	37.89
857.104	39.3
857.275	40.91
857.446	40.66
857.617	40.56
857.788	41.47
857.959	42.19
858.13	41.51
858.301	43.64
858.472	40.77
858.643	39.55
858.814	39.5
858.985	40.67
859.155	36.59
859.326	37.95
859.497	37.29
859.668	37.44
859.839	37.74
860.009	35.67
860.18	32.8
860.351	34.17
860.522	31.77
860.692	32.7
860.863	35.61
861.034	37.35
861.204	33.82
861.375	33.16
861.546	36.11
861.716	36.72
861.887	38.38
862.057	42.48
862.228	39.07
862.398	43.55
862.569	42.45
862.739	39.83
862.91	39.2
863.08	39.52
863.251	41.25
863.421	36.18
863.592	40.09
863.762	39.61
863.932	36.13
864.103	38.42
864.273	36.65
864.443	34.74
864.614	35.85
864.784	35.29
864.954	35.31
865.125	36.29
865.295	41.1
865.465	38.5
865.635	38.25
865.805	37.31
865.976	38.88
866.146	37.56
866.316	39.41
866.486	35.82
866.656	36.24
866.826	39.19
866.996	35.5
867.166	31.6
867.336	30.56
867.506	31.06
867.676	31.14
867.846	30.61
868.016	31.93
868.186	35.52
868.356	39.94
868.526	41.98
868.696	41.26
868.866	41.9
869.036	42.37
869.206	42.85
869.376	47.59
869.545	50.85
869.715	52.11
869.885	51.31
870.055	46.29
870.224	44.71
870.394	42.69
870.564	42.37
870.734	44.79
870.903	41.88
871.073	42.28
871.243	40.45
871.412	39.41
871.582	35.16
871.751	36.43
871.921	38.58
872.091	37.27
872.26	37.23
872.43	37.22
872.599	37.85
872.769	41.49
872.938	43.34
873.108	39.79
873.277	37.33
873.446	36.57
873.616	37.44
873.785	35.59
873.955	35.52
874.124	34.75
874.293	34.72
874.463	34.71
874.632	36.63
874.801	35.79
874.971	36.39
875.14	40.64
875.309	42.15
875.478	42.25
875.647	44.58
875.817	45.7
875.986	49.58
876.155	48.21
876.324	48.23
876.493	45.63
876.662	45.82
876.831	45.37
877	42.49
877.17	45.44
877.339	42.9
877.508	42.21
877.677	39.72
877.846	37.57
878.015	39.44
878.184	37.79
878.352	37.56
878.521	35.73
878.69	34.84
878.859	35.55
879.028	33.04
879.197	32.05
879.366	33.03
879.534	35.73
879.703	35.3
879.872	33.88
880.041	31.46
880.21	30.94
880.378	31.56
880.547	31.37
880.716	32.51
880.884	32.98
881.053	32.53
881.222	31.41
881.39	29.42
881.559	29.26
881.727	29.22
881.896	29.79
882.065	30.08
882.233	29.43
882.402	29.58
882.57	28.6
882.739	27.58
882.907	28.53
883.076	29.26
883.244	30.27
883.412	30.06
883.581	30.7
883.749	31.02
883.918	31.05
884.086	32.37
884.254	33.64
884.423	34.02
884.591	35.51
884.759	34.9
884.927	34.99
885.096	35
885.264	35.51
885.432	35.65
885.6	37.07
885.769	37.45
885.937	37.31
886.105	35.91
886.273	33.94
886.441	33.64
886.609	35.27
886.777	33.97
886.945	35.17
887.113	33.97
887.281	34.1
887.449	33.19
887.617	33.43
887.785	31.34
887.953	32.54
888.121	34.66
888.289	33.37
888.457	33.56
888.625	37.19
888.793	34.42
888.961	39.99
889.129	41.22
889.296	39.72
889.464	40.01
889.632	42.56
889.8	41.19
889.967	43.35
890.135	47.24
