Data from 2938469_Reflection_2.txt Node
Date: Wed Jun 17 13:39:14 EDT 2015
User: robert
Spectrometer: USB4E03002
Autoset integration time: false
Trigger mode: 4
Integration Time (sec): 1.000000E-1
Scans to average: 10
Electric dark correction enabled: true
Nonlinearity correction enabled: false
Boxcar width: 5
Stray light correction enabled: false
XAxis mode: Wavelengths
Stop averaging: false
Number of Pixels in Spectrum: 3648
>>>>>Begin Spectral Data<<<<<
177.575	-4.13
177.794	4.1
178.014	-3.39
178.233	5.33
178.452	18.57
178.672	26.28
178.891	95.82
179.11	53.55
179.33	53.11
179.549	46.48
179.768	19.8
179.987	35.98
180.207	14.13
180.426	18.7
180.645	5.72
180.864	-0.35
181.084	47.04
181.303	165.61
181.522	-80.33
181.741	-6.97
181.96	12.55
182.179	-12.42
182.398	7.79
182.618	-19.08
182.837	-12.44
183.056	-86.49
183.275	-117.93
183.494	-26.32
183.713	-27.97
183.932	17.98
184.151	-2.07
184.37	12.76
184.589	27.6
184.808	22.03
185.027	5.96
185.246	22.32
185.465	43.61
185.684	27.22
185.903	45.8
186.122	125.49
186.341	550.62
186.56	993.44
186.779	174.36
186.998	1081.72
187.216	-177.37
187.435	-591.69
187.654	4391.86
187.873	-648.77
188.092	180.93
188.311	260.12
188.53	203.53
188.748	93.77
188.967	57.29
189.186	137.86
189.405	4716.13
189.623	-82.09
189.842	24.94
190.061	63.21
190.28	143.34
190.498	-29.34
190.717	-687.56
190.936	621.17
191.154	-46.74
191.373	-20.11
191.592	53.41
191.81	-23.89
192.029	-65.82
192.248	-155.63
192.466	212.38
192.685	749.16
192.904	-17.6
193.122	-126.74
193.341	-101.05
193.559	-3.73
193.778	52.52
193.996	49.1
194.215	408.11
194.433	152.56
194.652	108.79
194.87	70.2
195.089	155.1
195.307	751.12
195.526	348.6
195.744	233.04
195.963	213.07
196.181	220.45
196.399	182.17
196.618	163.75
196.836	185.4
197.055	217.81
197.273	342.15
197.491	200.83
197.71	133.77
197.928	157.21
198.146	206.93
198.365	237.72
198.583	1732
198.801	-5.75
199.019	-10.66
199.238	-16.93
199.456	89
199.674	78.35
199.892	545.9
200.111	139.85
200.329	245.11
200.547	3321.92
200.765	77.58
200.983	183.44
201.202	66.45
201.42	12.91
201.638	42.43
201.856	119.84
202.074	90.52
202.292	262.65
202.51	186.26
202.728	157.98
202.946	121.3
203.165	125.39
203.383	116.56
203.601	80.36
203.819	56.97
204.037	38.48
204.255	-53.88
204.473	-1907.25
204.691	-14.25
204.909	-160.13
205.127	-144.81
205.345	-299.4
205.562	-106.8
205.78	-128.43
205.998	678.69
206.216	672.44
206.434	376.23
206.652	-46.78
206.87	-82.93
207.088	-215.84
207.306	-154.14
207.523	-85.89
207.741	-66.87
207.959	-68.69
208.177	-34.13
208.395	-0.79
208.612	28.89
208.83	27.91
209.048	28.24
209.266	72.39
209.483	64.96
209.701	39.87
209.919	64.45
210.136	61.52
210.354	46.02
210.572	37.6
210.79	21.96
211.007	-8.26
211.225	-8.01
211.442	-29.92
211.66	-35.35
211.878	-41.18
212.095	-22.84
212.313	-21.75
212.53	-16.16
212.748	-20.8
212.966	-9
213.183	-28.61
213.401	-19.03
213.618	-16.65
213.836	-6.15
214.053	-15.65
214.271	-9.57
214.488	-27.4
214.705	5.89
214.923	-64.28
215.14	-40.28
215.358	-28.25
215.575	3.4
215.793	-97.27
216.01	-16.21
216.227	11.07
216.445	24.78
216.662	15.81
216.879	13.35
217.097	-0.89
217.314	9.61
217.531	27.04
217.749	17.39
217.966	23.36
218.183	37.08
218.4	21.18
218.618	5.27
218.835	5.4
219.052	14.38
219.269	11.8
219.487	9.99
219.704	23.35
219.921	10.04
220.138	12.47
220.355	7.73
220.572	8.15
220.79	23.49
221.007	31.54
221.224	27.5
221.441	23.49
221.658	36.09
221.875	34.21
222.092	25.99
222.309	23.5
222.526	28.5
222.743	24.96
222.96	18.02
223.177	14.17
223.394	19.18
223.611	24.28
223.828	26.61
224.045	20.91
224.262	20.95
224.479	19.78
224.696	18.58
224.913	15.62
225.13	14.86
225.347	12.83
225.564	12.98
225.781	13.25
225.997	10.84
226.214	10.26
226.431	10.42
226.648	11.17
226.865	12.06
227.082	12.41
227.298	13.63
227.515	14.14
227.732	15.05
227.949	14.93
228.165	12.95
228.382	14.72
228.599	16.36
228.816	16.35
229.032	15.96
229.249	14.38
229.466	13.39
229.682	11.86
229.899	13.4
230.116	12.22
230.332	12.25
230.549	14.24
230.765	12.77
230.982	9.68
231.199	11.03
231.415	11.74
231.632	13.13
231.848	16.37
232.065	16.81
232.281	13.28
232.498	12.43
232.714	12.42
232.931	12.83
233.147	12.25
233.364	12.82
233.58	10.62
233.797	10.77
234.013	9.73
234.23	8.73
234.446	6.89
234.662	8.7
234.879	10.24
235.095	10.66
235.312	9.71
235.528	11.15
235.744	12.3
235.961	13.87
236.177	13.99
236.393	13.75
236.61	12.93
236.826	14.42
237.042	12.44
237.258	10.96
237.475	10.24
237.691	12.12
237.907	10.25
238.123	9.33
238.339	10.34
238.556	11.77
238.772	12.91
238.988	12.1
239.204	11.75
239.42	12.39
239.636	12.94
239.853	13
240.069	12.2
240.285	13.26
240.501	12.67
240.717	12.52
240.933	11.41
241.149	11.57
241.365	12.27
241.581	12.32
241.797	11.98
242.013	12.02
242.229	12.1
242.445	11.86
242.661	11.47
242.877	12.21
243.093	11.59
243.309	11.32
243.525	10.75
243.741	10.8
243.957	10.66
244.173	10.78
244.388	10.57
244.604	10.28
244.82	10.95
245.036	10.66
245.252	10.41
245.468	10.36
245.683	11.16
245.899	11.14
246.115	11.25
246.331	11.09
246.547	11.46
246.762	11.58
246.978	11.84
247.194	11.34
247.409	11.25
247.625	11.1
247.841	11.89
248.057	10.86
248.272	11.12
248.488	11.23
248.703	11.72
248.919	11.34
249.135	11.44
249.35	11.07
249.566	11.78
249.782	11.43
249.997	11.81
250.213	10.88
250.428	11.73
250.644	11.82
250.859	11.16
251.075	10.78
251.29	10.1
251.506	9.87
251.721	10.02
251.937	9.31
252.152	9.61
252.368	10.36
252.583	10.21
252.798	10.11
253.014	10.06
253.229	9.91
253.445	11.05
253.66	12.55
253.875	12.01
254.091	11.21
254.306	10.8
254.521	10.92
254.737	9.63
254.952	10.05
255.167	8.99
255.383	9.41
255.598	9.95
255.813	9.33
256.028	9.22
256.244	9.13
256.459	9.76
256.674	9.82
256.889	9.38
257.104	9.02
257.32	9.11
257.535	9.25
257.75	8.75
257.965	8.66
258.18	8.22
258.395	8.29
258.61	8.61
258.826	8.09
259.041	8.22
259.256	8.12
259.471	8.55
259.686	8.14
259.901	8.09
260.116	8.08
260.331	8.05
260.546	8.49
260.761	7.93
260.976	7.61
261.191	8.15
261.406	8.27
261.621	8.58
261.836	7.75
262.05	7.62
262.265	8.26
262.48	8.22
262.695	8.19
262.91	8.37
263.125	9.06
263.34	9.23
263.555	9.15
263.769	8.95
263.984	9.27
264.199	9.58
264.414	9.71
264.629	9.71
264.843	9.66
265.058	8.9
265.273	8.61
265.488	8.57
265.702	8.28
265.917	8.36
266.132	8.26
266.346	7.81
266.561	7.75
266.776	8.21
266.99	7.71
267.205	7.76
267.42	8.23
267.634	8.73
267.849	7.92
268.063	7.73
268.278	8
268.492	7.99
268.707	8.39
268.922	8.27
269.136	7.55
269.351	7.52
269.565	7.13
269.78	6.85
269.994	6.41
270.209	6.95
270.423	6.83
270.637	6.63
270.852	6.84
271.066	6.72
271.281	6.86
271.495	6.99
271.709	7.11
271.924	7.3
272.138	7.47
272.353	8.05
272.567	7.52
272.781	7.71
272.996	7.5
273.21	7.63
273.424	7.52
273.638	8.08
273.853	8.3
274.067	8.14
274.281	8.11
274.495	8.14
274.71	7.5
274.924	8
275.138	7.88
275.352	8.28
275.566	7.89
275.781	7.93
275.995	6.62
276.209	7.33
276.423	6.96
276.637	6.97
276.851	6.65
277.065	6.29
277.279	6.32
277.493	7.06
277.707	6.81
277.921	7.07
278.135	7.34
278.349	7.81
278.563	6.72
278.777	7.4
278.991	7.28
279.205	7.59
279.419	7.78
279.633	7.59
279.847	7.39
280.061	7.32
280.275	7.49
280.489	7.2
280.703	7.44
280.917	7.82
281.131	7.55
281.344	7.6
281.558	7.47
281.772	7.47
281.986	7.42
282.2	7.13
282.414	6.93
282.627	6.57
282.841	6.34
283.055	6.27
283.269	6.11
283.482	6.51
283.696	6.58
283.91	6.72
284.123	6.78
284.337	6.95
284.551	6.71
284.764	7.05
284.978	7.15
285.192	7.32
285.405	7.51
285.619	7.88
285.833	7.43
286.046	7.66
286.26	7.34
286.473	7.5
286.687	7.03
286.9	7.24
287.114	7.31
287.327	7.3
287.541	7.64
287.754	7.67
287.968	7.4
288.181	7.54
288.395	7.58
288.608	8.22
288.822	8.19
289.035	8.8
289.248	9.31
289.462	9.41
289.675	9.35
289.889	9.31
290.102	8.79
290.315	8.78
290.529	8.91
290.742	8.71
290.955	8.55
291.169	8.64
291.382	8.31
291.595	8.65
291.808	8.59
292.022	8.63
292.235	8.87
292.448	8.96
292.661	8.97
292.875	9.01
293.088	9.05
293.301	9.16
293.514	9.02
293.727	8.87
293.94	8.32
294.153	8.31
294.367	8.44
294.58	8.27
294.793	8.58
295.006	8.96
295.219	8.91
295.432	9.01
295.645	8.96
295.858	8.94
296.071	9.11
296.284	9.12
296.497	9.08
296.71	8.94
296.923	8.73
297.136	8.74
297.349	8.61
297.562	8.79
297.775	8.9
297.988	8.61
298.201	8.79
298.414	8.56
298.626	8.5
298.839	8.26
299.052	8.04
299.265	8.27
299.478	8.22
299.691	7.98
299.903	7.94
300.116	8.11
300.329	8.16
300.542	8.47
300.755	8.95
300.967	9.02
301.18	9.39
301.393	9.91
301.605	9.92
301.818	9.92
302.031	9.93
302.243	9.8
302.456	9.75
302.669	10.11
302.881	9.8
303.094	9.86
303.307	9.81
303.519	9.75
303.732	9.72
303.944	9.86
304.157	10.14
304.37	10.52
304.582	10.13
304.795	9.83
305.007	9.63
305.22	9.67
305.432	9.13
305.645	9.3
305.857	9.32
306.069	9.67
306.282	9.72
306.494	9.56
306.707	9.83
306.919	10.38
307.132	10.4
307.344	10.84
307.556	10.93
307.769	11.32
307.981	11.31
308.193	11.18
308.406	10.81
308.618	10.75
308.83	10.57
309.043	10.3
309.255	10.21
309.467	10.34
309.679	10.07
309.892	9.56
310.104	9.37
310.316	9.3
310.528	9.65
310.74	9.63
310.953	9.6
311.165	9.72
311.377	10.02
311.589	9.78
311.801	9.98
312.013	9.96
312.225	10.4
312.437	10.53
312.649	10.63
312.862	10.47
313.074	10.35
313.286	10.01
313.498	9.63
313.71	9.58
313.922	9.8
314.134	9.66
314.346	9.68
314.558	9.98
314.77	10.05
314.982	9.94
315.193	9.85
315.405	9.85
315.617	10.01
315.829	10.37
316.041	9.93
316.253	10.2
316.465	10.22
316.677	10.24
316.888	10.17
317.1	10.28
317.312	10.55
317.524	10.72
317.736	10.75
317.947	11.4
318.159	11.8
318.371	11.75
318.583	11.11
318.794	10.92
319.006	10.53
319.218	10.09
319.43	10.36
319.641	10.59
319.853	10.4
320.064	10.53
320.276	9.96
320.488	9.79
320.699	9.64
320.911	10.63
321.123	10.4
321.334	10.66
321.546	10.85
321.757	9.82
321.969	9.52
322.18	9.35
322.392	9.49
322.603	9.98
322.815	9.42
323.026	9.54
323.238	8.94
323.449	9.09
323.661	9.06
323.872	9.42
324.083	10.4
324.295	10.04
324.506	9.78
324.718	9.77
324.929	9.87
325.14	10.23
325.352	10.4
325.563	10.99
325.774	11.11
325.986	11.17
326.197	10.88
326.408	10.16
326.62	10.16
326.831	10.61
327.042	10.67
327.253	10.01
327.464	10.08
327.676	10.27
327.887	9.6
328.098	9.88
328.309	9.99
328.52	10.03
328.732	10.76
328.943	11.38
329.154	11.58
329.365	11.45
329.576	11.71
329.787	12.01
329.998	11.68
330.209	11.8
330.42	11.37
330.631	11.09
330.842	11.18
331.053	10.8
331.264	10.02
331.475	9.76
331.686	9.67
331.897	9.84
332.108	9.44
332.319	9.25
332.53	9.72
332.741	9.64
332.952	9.62
333.163	9.71
333.374	10.01
333.585	10.19
333.795	10.8
334.006	10.92
334.217	10.98
334.428	11.46
334.639	11.94
334.849	12.1
335.06	12.49
335.271	12.63
335.482	12.46
335.692	11.99
335.903	12.13
336.114	11.44
336.325	11.18
336.535	11.6
336.746	11.31
336.957	11.26
337.167	10.97
337.378	10.33
337.589	10.65
337.799	10.55
338.01	11.21
338.22	11.62
338.431	11.49
338.642	11.68
338.852	11.24
339.063	11.1
339.273	10.5
339.484	10.24
339.694	10.38
339.905	10.05
340.115	10.23
340.326	9.65
340.536	9.56
340.746	9.63
340.957	9.9
341.167	9.64
341.378	9.5
341.588	10.23
341.799	10.3
342.009	10.46
342.219	10.39
342.43	10.28
342.64	10.6
342.85	10.19
343.061	10.22
343.271	9.86
343.481	10.06
343.691	10.24
343.902	10.01
344.112	10
344.322	10.1
344.532	9.89
344.743	10.12
344.953	9.88
345.163	10.1
345.373	10.16
345.583	10.06
345.793	10.01
346.004	10.14
346.214	10.06
346.424	10.26
346.634	10.2
346.844	10.85
347.054	10.5
347.264	10.76
347.474	10.82
347.684	10.75
347.894	11
348.104	10.98
348.314	10.83
348.524	10.78
348.734	10.78
348.944	10.65
349.154	10.21
349.364	10.43
349.574	10.11
349.784	10.04
349.994	10.22
350.204	10.11
350.413	10.17
350.623	10.07
350.833	9.77
351.043	9.65
351.253	9.89
351.463	9.77
351.672	9.59
351.882	9.6
352.092	9.19
352.302	9.31
352.511	9.4
352.721	9.12
352.931	9.17
353.141	9.52
353.35	9.3
353.56	9.15
353.77	9.57
353.979	9.16
354.189	9.54
354.399	9.93
354.608	9.61
354.818	9.69
355.027	9.9
355.237	9.76
355.447	9.3
355.656	9.21
355.866	8.94
356.075	8.64
356.285	8.91
356.494	8.51
356.704	8.38
356.913	8.44
357.123	8.21
357.332	7.96
357.542	7.99
357.751	8.21
357.96	8.37
358.17	8.66
358.379	8.77
358.589	8.9
358.798	8.88
359.007	8.98
359.217	8.82
359.426	9.07
359.635	9.13
359.845	8.99
360.054	8.98
360.263	8.9
360.472	8.76
360.682	8.68
360.891	8.68
361.1	8.83
361.309	8.64
361.519	8.65
361.728	8.25
361.937	8.13
362.146	8.31
362.355	8.29
362.564	8.55
362.774	8.5
362.983	8.46
363.192	8.23
363.401	8.13
363.61	8.07
363.819	8.39
364.028	8.72
364.237	9.03
364.446	9.09
364.655	9.1
364.864	8.86
365.073	8.82
365.282	8.95
365.491	9.08
365.7	9.09
365.909	9.2
366.118	9.05
366.327	8.95
366.536	8.94
366.745	8.77
366.954	8.89
367.162	8.85
367.371	8.74
367.58	8.74
367.789	8.63
367.998	8.26
368.207	8.31
368.415	7.98
368.624	7.78
368.833	7.79
369.042	7.79
369.25	7.8
369.459	7.82
369.668	8.1
369.877	7.98
370.085	8.07
370.294	8.11
370.503	7.99
370.711	8.3
370.92	8.33
371.129	8.08
371.337	7.95
371.546	7.6
371.754	7.47
371.963	7.38
372.171	7.59
372.38	7.42
372.589	7.63
372.797	7.67
373.006	7.38
373.214	7.61
373.423	7.55
373.631	7.73
373.84	7.93
374.048	8.36
374.256	8.29
374.465	7.87
374.673	8
374.882	8.02
375.09	8.28
375.298	8.26
375.507	8.38
375.715	8.32
375.923	8.27
376.132	8.3
376.34	8.05
376.548	8.2
376.757	8.39
376.965	8.09
377.173	7.92
377.381	7.68
377.59	7.66
377.798	7.53
378.006	7.65
378.214	7.63
378.423	7.49
378.631	7.18
378.839	7.07
379.047	7
379.255	7.33
379.463	7.45
379.671	7.34
379.879	7.46
380.088	7.45
380.296	7.59
380.504	7.52
380.712	7.78
380.92	7.84
381.128	7.75
381.336	7.65
381.544	7.57
381.752	7.47
381.96	7.58
382.168	7.5
382.376	7.44
382.584	7.22
382.791	7.15
382.999	6.86
383.207	6.87
383.415	6.98
383.623	7.32
383.831	7.2
384.039	7.28
384.247	7.24
384.454	7.22
384.662	7.18
384.87	7.22
385.078	7.21
385.285	7.25
385.493	7.41
385.701	7.29
385.909	6.92
386.116	7.1
386.324	6.97
386.532	6.81
386.739	6.75
386.947	6.55
387.155	6.5
387.362	6.4
387.57	6.51
387.778	6.32
387.985	6.24
388.193	6.35
388.4	6.25
388.608	6.43
388.816	6.54
389.023	6.66
389.231	6.73
389.438	6.65
389.646	6.72
389.853	6.69
390.061	6.74
390.268	6.9
390.475	6.84
390.683	6.54
390.89	6.48
391.098	6.53
391.305	6.44
391.512	6.36
391.72	6.22
391.927	6.14
392.135	6.14
392.342	6
392.549	5.89
392.756	5.82
392.964	6.09
393.171	6.05
393.378	5.97
393.586	6.06
393.793	6.18
394	6.23
394.207	6.31
394.414	6.29
394.622	6.4
394.829	6.33
395.036	6.31
395.243	6.26
395.45	6.18
395.657	6.19
395.864	6.14
396.072	6.14
396.279	6.25
396.486	6.29
396.693	6.12
396.9	6
397.107	6.04
397.314	6.2
397.521	6.11
397.728	6.14
397.935	5.99
398.142	5.89
398.349	5.8
398.556	5.7
398.763	5.54
398.97	5.53
399.177	5.65
399.383	5.75
399.59	5.75
399.797	5.94
400.004	6.07
400.211	6.22
400.418	6.31
400.625	6.41
400.831	6.33
401.038	6.37
401.245	6.38
401.452	6.29
401.658	6.18
401.865	6.24
402.072	6.02
402.279	5.94
402.485	5.81
402.692	5.72
402.899	5.65
403.105	5.67
403.312	5.9
403.519	5.94
403.725	5.93
403.932	5.93
404.138	5.7
404.345	5.75
404.552	5.53
404.758	5.6
404.965	5.54
405.171	5.54
405.378	5.5
405.584	5.34
405.791	5.19
405.997	5.22
406.204	5.14
406.41	5.29
406.617	5.31
406.823	5.46
407.029	5.22
407.236	5.24
407.442	5.16
407.649	5.41
407.855	5.31
408.061	5.31
408.268	5.24
408.474	5.36
408.68	5.09
408.887	5.15
409.093	5.05
409.299	5.33
409.505	5.43
409.712	5.52
409.918	5.44
410.124	5.36
410.33	5.49
410.537	5.54
410.743	5.41
410.949	5.47
411.155	5.43
411.361	5.28
411.567	5.25
411.773	5.14
411.98	5.04
412.186	5.1
412.392	5.2
412.598	5.2
412.804	5.15
413.01	5.21
413.216	5.27
413.422	5.23
413.628	5.59
413.834	5.53
414.04	5.62
414.246	5.65
414.452	5.63
414.658	5.6
414.864	5.48
415.07	5.58
415.275	5.52
415.481	5.51
415.687	5.61
415.893	5.54
416.099	5.56
416.305	5.52
416.511	5.52
416.716	5.33
416.922	5.32
417.128	5.47
417.334	5.41
417.539	5.4
417.745	5.37
417.951	5.17
418.157	5.11
418.362	5.06
418.568	5.03
418.774	4.96
418.979	5
419.185	4.96
419.391	4.85
419.596	4.81
419.802	4.77
420.008	4.81
420.213	4.98
420.419	5.01
420.624	5.09
420.83	5.02
421.035	5.06
421.241	5.17
421.446	5.2
421.652	5.29
421.857	5.32
422.063	5.29
422.268	5.26
422.474	5.18
422.679	5.18
422.885	5.21
423.09	5.27
423.295	5.22
423.501	5.16
423.706	5.1
423.911	4.95
424.117	4.87
424.322	4.94
424.527	4.91
424.733	4.87
424.938	4.81
425.143	4.65
425.349	4.65
425.554	4.77
425.759	4.72
425.964	4.76
426.169	4.75
426.375	4.87
426.58	4.78
426.785	4.73
426.99	4.67
427.195	4.61
427.4	4.56
427.605	4.55
427.811	4.46
428.016	4.39
428.221	4.46
428.426	4.61
428.631	4.62
428.836	4.65
429.041	4.7
429.246	4.74
429.451	4.71
429.656	4.82
429.861	4.79
430.066	4.72
430.271	4.76
430.476	4.69
430.681	4.67
430.886	4.59
431.09	4.66
431.295	4.72
431.5	4.67
431.705	4.63
431.91	4.57
432.115	4.6
432.32	4.58
432.524	4.43
432.729	4.47
432.934	4.38
433.139	4.43
433.343	4.29
433.548	4.22
433.753	4.3
433.958	4.49
434.162	4.48
434.367	4.46
434.572	4.46
434.776	4.58
434.981	4.62
435.186	4.69
435.39	4.61
435.595	4.7
435.799	4.7
436.004	4.67
436.209	4.59
436.413	4.58
436.618	4.57
436.822	4.61
437.027	4.72
437.231	4.64
437.436	4.57
437.64	4.56
437.845	4.56
438.049	4.58
438.253	4.65
438.458	4.69
438.662	4.7
438.867	4.66
439.071	4.74
439.275	4.67
439.48	4.62
439.684	4.7
439.888	4.67
440.093	4.71
440.297	4.71
440.501	4.61
440.706	4.61
440.91	4.58
441.114	4.6
441.318	4.53
441.523	4.45
441.727	4.54
441.931	4.5
442.135	4.57
442.339	4.49
442.543	4.44
442.748	4.5
442.952	4.38
443.156	4.43
443.36	4.4
443.564	4.44
443.768	4.5
443.972	4.51
444.176	4.5
444.38	4.39
444.584	4.46
444.788	4.54
444.992	4.51
445.196	4.58
445.4	4.59
445.604	4.54
445.808	4.46
446.012	4.45
446.216	4.39
446.42	4.34
446.624	4.37
446.828	4.39
447.032	4.37
447.235	4.37
447.439	4.29
447.643	4.21
447.847	4.37
448.051	4.46
448.254	4.46
448.458	4.53
448.662	4.53
448.866	4.61
449.069	4.49
449.273	4.39
449.477	4.38
449.681	4.5
449.884	4.6
450.088	4.54
450.292	4.42
450.495	4.36
450.699	4.43
450.902	4.5
451.106	4.48
451.31	4.5
451.513	4.5
451.717	4.51
451.92	4.43
452.124	4.3
452.327	4.22
452.531	4.32
452.734	4.41
452.938	4.31
453.141	4.27
453.345	4.34
453.548	4.34
453.752	4.34
453.955	4.28
454.158	4.27
454.362	4.35
454.565	4.44
454.769	4.38
454.972	4.31
455.175	4.29
455.379	4.26
455.582	4.15
455.785	4.05
455.988	3.98
456.192	4.09
456.395	3.99
456.598	4.01
456.801	4.01
457.005	3.95
457.208	4.01
457.411	4.03
457.614	4.05
457.817	4.08
458.021	4.14
458.224	4.28
458.427	4.27
458.63	4.38
458.833	4.4
459.036	4.32
459.239	4.33
459.442	4.25
459.645	4.21
459.848	4.21
460.051	4.22
460.254	4.27
460.457	4.21
460.66	4.18
460.863	4.08
461.066	3.89
461.269	3.95
461.472	4.02
461.675	3.96
461.878	3.97
462.081	4.04
462.284	4.11
462.486	4.11
462.689	4.12
462.892	4.11
463.095	4.26
463.298	4.43
463.5	4.48
463.703	4.55
463.906	4.62
464.109	4.61
464.311	4.51
464.514	4.38
464.717	4.33
464.92	4.37
465.122	4.33
465.325	4.26
465.528	4.29
465.73	4.27
465.933	4.22
466.135	4.21
466.338	4.21
466.541	4.22
466.743	4.25
466.946	4.3
467.148	4.2
467.351	4.19
467.553	4.23
467.756	4.22
467.958	4.21
468.161	4.09
468.363	4.17
468.566	4.25
468.768	4.3
468.971	4.35
469.173	4.3
469.375	4.32
469.578	4.28
469.78	4.29
469.983	4.21
470.185	4.22
470.387	4.45
470.59	4.54
470.792	4.48
470.994	4.5
471.196	4.42
471.399	4.44
471.601	4.44
471.803	4.41
472.005	4.38
472.208	4.37
472.41	4.38
472.612	4.19
472.814	4.1
473.016	4.13
473.218	4.05
473.421	4.13
473.623	4.05
473.825	4.12
474.027	4.21
474.229	4.2
474.431	4.22
474.633	4.19
474.835	4.19
475.037	4.17
475.239	4.21
475.441	4.22
475.643	4.23
475.845	4.29
476.047	4.26
476.249	4.24
476.451	4.22
476.653	4.33
476.855	4.36
477.057	4.38
477.258	4.41
477.46	4.36
477.662	4.36
477.864	4.31
478.066	4.33
478.268	4.38
478.469	4.49
478.671	4.47
478.873	4.35
479.075	4.35
479.276	4.33
479.478	4.3
479.68	4.27
479.882	4.31
480.083	4.36
480.285	4.34
480.487	4.32
480.688	4.26
480.89	4.29
481.091	4.3
481.293	4.3
481.495	4.31
481.696	4.3
481.898	4.33
482.099	4.28
482.301	4.25
482.502	4.25
482.704	4.24
482.905	4.23
483.107	4.23
483.308	4.22
483.51	4.23
483.711	4.22
483.913	4.23
484.114	4.21
484.315	4.2
484.517	4.23
484.718	4.22
484.92	4.22
485.121	4.22
485.322	4.19
485.524	4.19
485.725	4.21
485.926	4.21
486.127	4.18
486.329	4.19
486.53	4.23
486.731	4.21
486.932	4.25
487.134	4.24
487.335	4.24
487.536	4.22
487.737	4.22
487.938	4.17
488.139	4.19
488.341	4.2
488.542	4.25
488.743	4.27
488.944	4.24
489.145	4.21
489.346	4.22
489.547	4.24
489.748	4.31
489.949	4.29
490.15	4.28
490.351	4.25
490.552	4.29
490.753	4.29
490.954	4.29
491.155	4.29
491.356	4.29
491.557	4.29
491.758	4.32
491.959	4.24
492.159	4.31
492.36	4.29
492.561	4.3
492.762	4.29
492.963	4.23
493.164	4.23
493.364	4.25
493.565	4.28
493.766	4.27
493.967	4.22
494.167	4.32
494.368	4.33
494.569	4.49
494.769	4.53
494.97	4.51
495.171	4.56
495.371	4.54
495.572	4.55
495.773	4.56
495.973	4.54
496.174	4.58
496.375	4.56
496.575	4.53
496.776	4.52
496.976	4.59
497.177	4.54
497.377	4.58
497.578	4.52
497.778	4.53
497.979	4.55
498.179	4.63
498.38	4.69
498.58	4.66
498.78	4.66
498.981	4.56
499.181	4.52
499.382	4.64
499.582	4.55
499.782	4.63
499.983	4.66
500.183	4.68
500.383	4.7
500.584	4.56
500.784	4.68
500.984	4.65
501.184	4.75
501.385	4.74
501.585	4.73
501.785	4.7
501.985	4.81
502.185	4.85
502.386	4.89
502.586	4.91
502.786	5.05
502.986	4.99
503.186	5.09
503.386	5.11
503.586	5.16
503.786	5.18
503.987	5.21
504.187	5.24
504.387	5.23
504.587	5.2
504.787	5.21
504.987	5.23
505.187	5.26
505.387	5.23
505.587	5.22
505.786	5.22
505.986	5.17
506.186	5.19
506.386	5.2
506.586	5.3
506.786	5.27
506.986	5.21
507.186	5.12
507.386	5.14
507.585	5.03
507.785	5.09
507.985	5.06
508.185	5.17
508.384	5.18
508.584	5.11
508.784	5.05
508.984	5.1
509.183	5.12
509.383	5.08
509.583	5.09
509.782	5.21
509.982	5.19
510.182	5.23
510.381	5.15
510.581	5.14
510.781	5.18
510.98	5.26
511.18	5.26
511.379	5.27
511.579	5.41
511.778	5.53
511.978	5.5
512.177	5.54
512.377	5.55
512.576	5.64
512.776	5.77
512.975	5.79
513.175	5.74
513.374	5.78
513.573	5.82
513.773	5.8
513.972	5.74
514.172	5.78
514.371	5.79
514.57	5.87
514.77	5.85
514.969	5.84
515.168	5.77
515.367	5.83
515.567	5.87
515.766	5.86
515.965	5.87
516.164	5.93
516.364	5.99
516.563	5.94
516.762	5.91
516.961	5.98
517.16	5.96
517.359	6.03
517.559	5.96
517.758	5.93
517.957	5.95
518.156	6
518.355	5.99
518.554	5.95
518.753	6.01
518.952	5.99
519.151	6.04
519.35	6.08
519.549	6.06
519.748	6.2
519.947	6.28
520.146	6.38
520.345	6.41
520.544	6.41
520.743	6.49
520.942	6.51
521.141	6.65
521.339	6.58
521.538	6.57
521.737	6.68
521.936	6.64
522.135	6.59
522.333	6.51
522.532	6.51
522.731	6.6
522.93	6.6
523.129	6.63
523.327	6.58
523.526	6.58
523.725	6.65
523.923	6.6
524.122	6.65
524.321	6.59
524.519	6.71
524.718	6.72
524.917	6.72
525.115	6.74
525.314	6.73
525.512	6.73
525.711	6.77
525.909	6.74
526.108	6.74
526.306	6.76
526.505	6.81
526.703	6.78
526.902	6.79
527.1	6.78
527.299	6.78
527.497	6.8
527.696	6.85
527.894	6.87
528.092	6.93
528.291	6.99
528.489	7.02
528.688	7.11
528.886	7.14
529.084	7.17
529.283	7.21
529.481	7.26
529.679	7.26
529.877	7.26
530.076	7.29
530.274	7.25
530.472	7.23
530.67	7.16
530.869	7.13
531.067	7.11
531.265	7.13
531.463	7.16
531.661	7.17
531.859	7.23
532.057	7.26
532.255	7.29
532.454	7.33
532.652	7.37
532.85	7.43
533.048	7.43
533.246	7.5
533.444	7.58
533.642	7.65
533.84	7.65
534.038	7.63
534.236	7.67
534.434	7.69
534.632	7.7
534.83	7.76
535.027	7.82
535.225	7.87
535.423	7.87
535.621	7.78
535.819	7.74
536.017	7.83
536.215	7.87
536.412	7.8
536.61	7.77
536.808	7.77
537.006	7.7
537.203	7.67
537.401	7.63
537.599	7.67
537.797	7.78
537.994	7.78
538.192	7.75
538.39	7.83
538.587	7.95
538.785	7.96
538.983	8.02
539.18	8.09
539.378	8.08
539.575	8.13
539.773	8.13
539.97	8.2
540.168	8.23
540.366	8.28
540.563	8.26
540.761	8.29
540.958	8.32
541.155	8.34
541.353	8.37
541.55	8.43
541.748	8.48
541.945	8.52
542.143	8.49
542.34	8.54
542.537	8.61
542.735	8.68
542.932	8.72
543.129	8.78
543.327	8.78
543.524	8.83
543.721	8.84
543.919	8.87
544.116	8.91
544.313	8.97
544.51	8.98
544.708	8.96
544.905	8.95
545.102	8.92
545.299	8.96
545.496	8.98
545.693	9.02
545.891	9.09
546.088	9.07
546.285	9.09
546.482	9.15
546.679	9.19
546.876	9.22
547.073	9.3
547.27	9.37
547.467	9.4
547.664	9.5
547.861	9.42
548.058	9.45
548.255	9.52
548.452	9.53
548.649	9.51
548.846	9.58
549.043	9.68
549.24	9.73
549.437	9.83
549.633	9.92
549.83	9.89
550.027	10.06
550.224	10.09
550.421	10.24
550.618	10.34
550.814	10.41
551.011	10.38
551.208	10.43
551.405	10.5
551.601	10.55
551.798	10.56
551.995	10.66
552.191	10.67
552.388	10.72
552.585	10.7
552.781	10.83
552.978	10.84
553.175	10.88
553.371	10.95
553.568	10.93
553.764	10.99
553.961	11.1
554.157	11.04
554.354	11.14
554.55	11.22
554.747	11.33
554.943	11.26
555.14	11.28
555.336	11.42
555.533	11.38
555.729	11.47
555.926	11.54
556.122	11.56
556.318	11.7
556.515	11.78
556.711	11.76
556.907	11.94
557.104	12.08
557.3	12.27
557.496	12.38
557.693	12.36
557.889	12.5
558.085	12.43
558.281	12.48
558.478	12.45
558.674	12.59
558.87	12.61
559.066	12.46
559.262	12.46
559.459	12.39
559.655	12.34
559.851	12.58
560.047	12.59
560.243	12.77
560.439	12.83
560.635	12.96
560.831	12.93
561.027	13.08
561.223	13.08
561.419	13.13
561.615	13.23
561.811	13.2
562.007	13.18
562.203	13.17
562.399	13.1
562.595	13.09
562.791	13.17
562.987	13.26
563.183	13.36
563.379	13.46
563.575	13.61
563.771	13.71
563.966	13.87
564.162	13.95
564.358	14.07
564.554	14.19
564.75	14.32
564.945	14.34
565.141	14.46
565.337	14.5
565.533	14.64
565.728	14.63
565.924	14.62
566.12	14.67
566.315	14.67
566.511	14.7
566.707	14.78
566.902	14.83
567.098	14.97
567.293	14.94
567.489	14.97
567.684	14.97
567.88	15.14
568.076	15.32
568.271	15.39
568.467	15.43
568.662	15.54
568.858	15.67
569.053	15.8
569.248	15.8
569.444	15.89
569.639	16
569.835	16.04
570.03	16.05
570.225	16.02
570.421	16.08
570.616	16.23
570.812	16.29
571.007	16.34
571.202	16.42
571.397	16.52
571.593	16.66
571.788	16.68
571.983	16.82
572.178	16.84
572.374	16.9
572.569	17.04
572.764	17.06
572.959	17.1
573.154	17.11
573.35	17.12
573.545	17.24
573.74	17.28
573.935	17.36
574.13	17.34
574.325	17.49
574.52	17.55
574.715	17.63
574.91	17.73
575.105	17.85
575.3	17.92
575.495	17.97
575.69	18
575.885	17.94
576.08	17.86
576.275	17.97
576.47	17.98
576.665	18.14
576.86	18.08
577.055	18.05
577.25	18.08
577.444	18.2
577.639	18.3
577.834	18.38
578.029	18.47
578.224	18.65
578.418	18.77
578.613	18.74
578.808	18.86
579.003	18.94
579.197	19.05
579.392	19.09
579.587	19.1
579.781	19.15
579.976	19.17
580.171	19.24
580.365	19.44
580.56	19.37
580.755	19.37
580.949	19.33
581.144	19.34
581.338	19.3
581.533	19.34
581.727	19.31
581.922	19.34
582.116	19.21
582.311	19.25
582.505	19.07
582.7	19.21
582.894	19.29
583.089	19.3
583.283	19.27
583.478	19.52
583.672	19.7
583.866	19.75
584.061	19.78
584.255	19.96
584.449	19.97
584.644	20.26
584.838	20.25
585.032	20.48
585.226	20.57
585.421	20.73
585.615	20.69
585.809	20.6
586.003	20.8
586.198	20.99
586.392	21.14
586.586	21.1
586.78	21
586.974	21.01
587.168	20.95
587.363	20.97
587.557	21.03
587.751	21.15
587.945	21.28
588.139	21.41
588.333	21.29
588.527	21.24
588.721	21.43
588.915	21.47
589.109	21.65
589.303	21.83
589.497	21.86
589.691	21.93
589.885	21.97
590.079	22.08
590.273	21.94
590.466	22.07
590.66	22.27
590.854	22.15
591.048	22.16
591.242	22.14
591.436	22.08
591.629	22.11
591.823	22.07
592.017	22.09
592.211	21.99
592.404	21.99
592.598	22.02
592.792	21.98
592.986	22.16
593.179	22.23
593.373	22.27
593.567	22.43
593.76	22.53
593.954	22.65
594.147	22.73
594.341	22.77
594.535	22.92
594.728	23.02
594.922	23.03
595.115	23.09
595.309	23.18
595.502	23.28
595.696	23.22
595.889	23.16
596.083	23.23
596.276	23.2
596.47	23.24
596.663	23.26
596.856	23.27
597.05	23.38
597.243	23.29
597.437	23.41
597.63	23.45
597.823	23.43
598.017	23.53
598.21	23.51
598.403	23.58
598.596	23.59
598.79	23.64
598.983	23.54
599.176	23.47
599.369	23.57
599.563	23.57
599.756	23.41
599.949	23.59
600.142	23.69
600.335	23.74
600.528	23.78
600.722	23.97
600.915	23.99
601.108	24.11
601.301	24.12
601.494	24.23
601.687	24.29
601.88	24.37
602.073	24.29
602.266	24.41
602.459	24.36
602.652	24.26
602.845	24.1
603.038	24.08
603.231	24.1
603.424	24.2
603.617	24.26
603.809	24.21
604.002	24.22
604.195	24.2
604.388	24.02
604.581	24.21
604.774	24.44
604.966	24.59
605.159	24.53
605.352	24.44
605.545	24.41
605.737	24.39
605.93	24.39
606.123	24.39
606.316	24.56
606.508	24.67
606.701	24.56
606.894	24.37
607.086	24.41
607.279	24.49
607.471	24.55
607.664	24.54
607.857	24.48
608.049	24.4
608.242	24.49
608.434	24.43
608.627	24.48
608.819	24.58
609.012	24.58
609.204	24.7
609.397	24.83
609.589	25.06
609.782	25.18
609.974	25.23
610.166	25.49
610.359	25.57
610.551	25.67
610.743	25.61
610.936	25.62
611.128	25.7
611.32	25.54
611.513	25.46
611.705	25.21
611.897	25.12
612.09	25.3
612.282	25.25
612.474	25.17
612.666	25.19
612.858	25.4
613.051	25.23
613.243	25.31
613.435	25.42
613.627	25.54
613.819	25.67
614.011	26.09
614.203	26.07
614.395	26.13
614.588	26.04
614.78	25.98
614.972	25.94
615.164	26.06
615.356	26.09
615.548	26.1
615.74	25.95
615.932	25.92
616.124	25.65
616.315	25.68
616.507	25.75
616.699	25.85
616.891	25.84
617.083	25.76
617.275	25.83
617.467	25.9
617.659	26.13
617.85	26.25
618.042	26.46
618.234	26.28
618.426	26.35
618.618	26.11
618.809	26.12
619.001	26.24
619.193	26.21
619.384	26.19
619.576	26.27
619.768	25.94
619.959	25.79
620.151	25.67
620.343	25.94
620.534	25.66
620.726	25.69
620.917	25.83
621.109	25.84
621.301	26.09
621.492	26.13
621.684	25.98
621.875	26.31
622.067	26.59
622.258	26.68
622.45	26.73
622.641	26.94
622.832	26.87
623.024	26.78
623.215	26.88
623.407	26.94
623.598	27.02
623.789	26.93
623.981	26.77
624.172	26.72
624.363	26.66
624.555	26.52
624.746	26.56
624.937	26.92
625.129	27.06
625.32	27.04
625.511	27.05
625.702	26.86
625.893	27.17
626.085	27
626.276	27.06
626.467	27.15
626.658	27.15
626.849	27.13
627.04	26.98
627.231	26.87
627.422	26.91
627.614	26.92
627.805	26.95
627.996	26.75
628.187	26.93
628.378	26.92
628.569	26.74
628.76	26.84
628.951	26.83
629.142	26.8
629.332	26.82
629.523	26.69
629.714	26.65
629.905	26.86
630.096	26.98
630.287	27.04
630.478	26.98
630.669	27.18
630.859	27.21
631.05	27.2
631.241	27.28
631.432	27.39
631.623	27.52
631.813	27.39
632.004	27.32
632.195	27.35
632.385	27.39
632.576	27.48
632.767	27.43
632.957	27.45
633.148	27.33
633.339	27.33
633.529	27.47
633.72	27.45
633.91	27.6
634.101	27.52
634.292	27.57
634.482	27.4
634.673	27.4
634.863	27.37
635.054	27.34
635.244	27.65
635.435	27.69
635.625	27.55
635.815	27.48
636.006	27.43
636.196	27.43
636.387	27.38
636.577	27.64
636.767	27.83
636.958	27.91
637.148	27.95
637.338	27.75
637.529	27.76
637.719	27.82
637.909	27.97
638.099	28.13
638.29	28.34
638.48	28.28
638.67	28.11
638.86	27.93
639.05	28.01
639.241	28.03
639.431	28.12
639.621	28.19
639.811	28.03
640.001	28
640.191	27.74
640.381	27.73
640.571	27.75
640.761	27.9
640.951	27.96
641.141	27.73
641.331	27.53
641.521	27.44
641.711	27.2
641.901	27.12
642.091	27.18
642.281	27.45
642.471	27.33
642.661	27.41
642.851	27.24
643.041	27.16
643.231	27.37
643.42	27.63
643.61	27.7
643.8	27.9
643.99	28.18
644.18	28.04
644.369	28.03
644.559	28.34
644.749	28.3
644.939	28.38
645.128	28.41
645.318	28.39
645.508	28.41
645.697	28.54
645.887	28.63
646.076	28.64
646.266	28.77
646.456	28.85
646.645	28.59
646.835	28.63
647.024	28.77
647.214	28.69
647.403	28.64
647.593	28.51
647.782	28.71
647.972	28.62
648.161	28.76
648.351	28.74
648.54	28.73
648.73	28.82
648.919	28.75
649.108	28.61
649.298	28.98
649.487	29.2
649.677	29.31
649.866	29.22
650.055	29.34
650.244	29.22
650.434	29.28
650.623	29.17
650.812	29.07
651.002	29.06
651.191	29.09
651.38	29
651.569	28.93
651.758	28.99
651.947	28.95
652.137	28.89
652.326	28.83
652.515	29.06
652.704	29.08
652.893	29.18
653.082	29.22
653.271	29.59
653.46	29.39
653.649	29.33
653.838	29.33
654.027	29.27
654.216	29.35
654.405	29.38
654.594	29.27
654.783	29.19
654.972	29.18
655.161	29.39
655.35	28.95
655.539	29.07
655.728	28.9
655.916	28.95
656.105	29.14
656.294	29.12
656.483	29.28
656.672	29.15
656.86	29.25
657.049	29.29
657.238	29.26
657.427	29.59
657.615	29.55
657.804	29.63
657.993	29.64
658.181	29.5
658.37	29.54
658.559	29.38
658.747	29.41
658.936	29.39
659.125	29.77
659.313	29.73
659.502	29.54
659.69	29.72
659.879	29.79
660.067	29.6
660.256	29.7
660.444	29.68
660.633	29.81
660.821	29.94
661.01	29.86
661.198	29.49
661.387	29.48
661.575	29.25
661.763	29.03
661.952	29
662.14	29.15
662.328	29.18
662.517	29.13
662.705	29.13
662.893	29
663.082	29.17
663.27	29.07
663.458	29
663.646	29.31
663.834	29.42
664.023	29.33
664.211	29.4
664.399	29.43
664.587	29.5
664.775	29.16
664.963	29.02
665.152	28.79
665.34	28.91
665.528	29
665.716	28.97
665.904	29.03
666.092	29.27
666.28	29.23
666.468	29.11
666.656	29.06
666.844	29.52
667.032	29.81
667.22	30.08
667.408	29.91
667.596	29.92
667.784	29.91
667.971	29.95
668.159	29.7
668.347	29.77
668.535	29.8
668.723	29.83
668.911	29.65
669.098	29.53
669.286	29.6
669.474	29.48
669.662	29.78
669.849	29.91
670.037	29.71
670.225	29.95
670.413	30.05
670.6	30.29
670.788	30.16
670.976	30.16
671.163	30.23
671.351	30.11
671.538	30.41
671.726	30.09
671.913	29.98
672.101	30.1
672.289	30.09
672.476	29.79
672.664	29.6
672.851	29.62
673.039	29.86
673.226	29.73
673.413	29.64
673.601	29.69
673.788	29.93
673.976	29.97
674.163	29.94
674.35	30.09
674.538	30.35
674.725	30.57
674.912	30.63
675.1	30.49
675.287	30.49
675.474	30.72
675.662	30.66
675.849	30.27
676.036	30.27
676.223	30.24
676.411	30.02
676.598	30.06
676.785	30.03
676.972	30.12
677.159	30.49
677.346	30.57
677.533	30.5
677.721	30.42
677.908	30.74
678.095	30.79
678.282	30.87
678.469	30.92
678.656	30.79
678.843	30.68
679.03	30.83
679.217	30.46
679.404	30.49
679.591	30.54
679.778	30.59
679.964	30.58
680.151	30.25
680.338	30.4
680.525	30.4
680.712	30.33
680.899	30.54
681.086	30.3
681.272	30.24
681.459	30.44
681.646	30.3
681.833	30.59
682.02	30.38
682.206	30.87
682.393	30.85
682.58	31.23
682.766	31.13
682.953	30.99
683.14	31.22
683.326	31.71
683.513	31.61
683.7	31.58
683.886	31.42
684.073	31.41
684.259	31.22
684.446	30.97
684.632	30.63
684.819	30.93
685.005	30.79
685.192	30.74
685.378	30.58
685.565	30.72
685.751	30.9
685.938	30.85
686.124	31.28
686.31	31.51
686.497	31.21
686.683	31.29
686.87	31.6
687.056	31.43
687.242	31.31
687.429	31.03
687.615	30.78
687.801	30.64
687.987	30.73
688.174	30.48
688.36	30.35
688.546	30.68
688.732	30.82
688.918	30.73
689.105	30.74
689.291	30.83
689.477	31.01
689.663	31.13
689.849	31.19
690.035	31.06
690.221	31.28
690.407	31.23
690.593	31.08
690.779	31
690.965	30.76
691.151	31.11
691.337	31.18
691.523	31.46
691.709	31.6
691.895	31.73
692.081	31.65
692.267	32
692.453	32.42
692.639	32.42
692.825	32.05
693.011	31.93
693.196	32.13
693.382	32.18
693.568	31.94
693.754	31.7
693.94	31.47
694.125	31.71
694.311	31.47
694.497	31.17
694.682	31.42
694.868	31.84
695.054	31.94
695.239	31.71
695.425	31.74
695.611	31.62
695.796	31.87
695.982	32.11
696.168	32.11
696.353	31.82
696.539	31.84
696.724	31.88
696.91	31.69
697.095	31.83
697.281	31.87
697.466	31.86
697.652	31.87
697.837	31.87
698.023	31.86
698.208	31.72
698.393	31.93
698.579	31.91
698.764	32.05
698.949	31.98
699.135	31.94
699.32	31.94
699.505	31.81
699.691	32.05
699.876	31.89
700.061	31.78
700.246	31.86
700.432	31.67
700.617	31.61
700.802	31.49
700.987	31.71
701.172	31.34
701.358	31.16
701.543	31.3
701.728	31.06
701.913	31.32
702.098	31.47
702.283	31.66
702.468	31.69
702.653	31.77
702.838	31.62
703.023	31.73
703.208	32.16
703.393	32.58
703.578	32.61
703.763	32.42
703.948	32.21
704.133	32.27
704.318	32.29
704.503	32.23
704.688	32.66
704.873	32.84
705.057	32.97
705.242	32.96
705.427	32.67
705.612	32.86
705.797	33.2
705.981	33.59
706.166	33.48
706.351	33.4
706.536	33.15
706.72	32.85
706.905	33.13
707.09	32.96
707.274	32.95
707.459	32.97
707.644	32.88
707.828	32.87
708.013	32.28
708.197	32.09
708.382	32.19
708.567	32.53
708.751	32.31
708.936	31.98
709.12	32.31
709.305	32.08
709.489	32.04
709.673	31.86
709.858	31.65
710.042	32.07
710.227	32.27
710.411	32.25
710.596	32.56
710.78	32.53
710.964	32.53
711.149	32.26
711.333	32.69
711.517	32.52
711.702	32.6
711.886	32.57
712.07	32.53
712.254	32.51
712.438	32.51
712.623	32.26
712.807	32.41
712.991	32.32
713.175	32.32
713.359	32.31
713.544	32.56
713.728	32.35
713.912	32.39
714.096	32.2
714.28	31.8
714.464	31.86
714.648	31.78
714.832	31.86
715.016	31.67
715.2	31.74
715.384	31.72
715.568	32.1
715.752	32.37
715.936	32.57
716.12	32.72
716.304	33.23
716.488	33.17
716.671	33.11
716.855	33.28
717.039	33.4
717.223	33.11
717.407	33.03
717.59	32.42
717.774	32.02
717.958	31.65
718.142	31.49
718.325	31.45
718.509	31.25
718.693	31.13
718.877	30.58
719.06	30.9
719.244	31.21
719.428	31.32
719.611	31.37
719.795	31.96
719.978	32.48
720.162	32.62
720.345	32.34
720.529	32.11
720.713	32.46
720.896	32.64
721.08	32.49
721.263	32.35
721.446	32.29
721.63	32.92
721.813	32.61
721.997	32.18
722.18	31.89
722.364	32.27
722.547	32.59
722.73	32.32
722.914	32.39
723.097	32.25
723.28	32.31
723.464	31.85
723.647	31.18
723.83	30.87
724.013	30.83
724.197	31.33
724.38	31.17
724.563	31.69
724.746	31.88
724.929	32.02
725.112	31.54
725.296	31.18
725.479	31.66
725.662	31.6
725.845	32.03
726.028	32.06
726.211	31.98
726.394	31.65
726.577	31.13
726.76	31.44
726.943	31.4
727.126	32.14
727.309	32.39
727.492	32.43
727.675	32.54
727.858	32.56
728.041	33.08
728.224	32.85
728.407	33.13
728.589	33.25
728.772	32.48
728.955	32.61
729.138	32.39
729.321	32.53
729.503	32.34
729.686	32.27
729.869	32.36
730.052	32.23
730.234	32.45
730.417	32.64
730.6	32.69
730.782	33.13
730.965	33.31
731.148	33.79
731.33	34.1
731.513	34.15
731.695	34.22
731.878	33.94
732.061	33.72
732.243	33.86
732.426	34.21
732.608	34.24
732.791	34.19
732.973	33.94
733.156	33.82
733.338	33.42
733.52	33.43
733.703	33.19
733.885	32.78
734.068	32.25
734.25	31.85
734.432	31.25
734.615	30.92
734.797	31.21
734.979	31.32
735.162	30.34
735.344	29.77
735.526	29.17
735.708	29.38
735.891	29.88
736.073	30.31
736.255	30.15
736.437	30.24
736.619	30.29
736.802	29.81
736.984	29.82
737.166	30.6
737.348	31.2
737.53	31.73
737.712	31.6
737.894	31.58
738.076	32.01
738.258	32.55
738.44	32.78
738.622	33.24
738.804	33.7
738.986	33.84
739.168	33.98
739.35	34.06
739.532	33.83
739.714	33.77
739.896	33.72
740.078	33.56
740.259	33.48
740.441	33.67
740.623	32.74
740.805	32.44
740.987	32.28
741.168	32.21
741.35	32.24
741.532	32.52
741.714	32.81
741.895	32.94
742.077	32.74
742.259	32.8
742.44	32.43
742.622	33.04
742.804	33.26
742.985	33.24
743.167	33.82
743.348	33.11
743.53	32.69
743.711	32.2
743.893	31.81
744.075	32.06
744.256	31.76
744.438	31.75
744.619	32.25
744.8	31.96
744.982	31.77
745.163	30.95
745.345	31.61
745.526	32.17
745.707	32.33
745.889	32.33
746.07	31.94
746.252	31.84
746.433	31.53
746.614	31
746.795	31.42
746.977	31.59
747.158	31.55
747.339	31.61
747.52	31.73
747.702	31.94
747.883	31.95
748.064	32.14
748.245	32.93
748.426	32.68
748.607	32.62
748.788	31.97
748.97	31.47
749.151	31.69
749.332	31.46
749.513	31.23
749.694	31.4
749.875	32.65
750.056	33.22
750.237	32.43
750.418	32.84
750.599	32.66
750.78	32.5
750.96	32.51
751.141	32.81
751.322	32.59
751.503	32.25
751.684	32.2
751.865	31.45
752.046	30.62
752.226	30.1
752.407	30.09
752.588	29.85
752.769	30.05
752.949	30.74
753.13	30.42
753.311	30.95
753.492	31.27
753.672	31.75
753.853	31.65
754.034	31.72
754.214	32.29
754.395	32.08
754.575	32.59
754.756	32.94
754.937	32.55
755.117	32.04
755.298	32.57
755.478	31.83
755.659	31.68
755.839	32.18
756.02	32.25
756.2	32.63
756.381	32.8
756.561	33.15
756.741	32.94
756.922	32.79
757.102	33.03
757.283	32.1
757.463	33.11
757.643	32.28
757.823	31.63
758.004	32.37
758.184	32.4
758.364	33.05
758.545	32.13
758.725	32.49
758.905	32.4
759.085	32.61
759.265	32.44
759.446	31.87
759.626	32.49
759.806	32.74
759.986	31.98
760.166	31.46
760.346	30.71
760.526	31.62
760.706	31.65
760.886	31.73
761.066	32.28
761.246	33.2
761.426	32.97
761.606	32.79
761.786	32.58
761.966	32.66
762.146	32.66
762.326	32.73
762.506	32.3
762.686	32.46
762.866	32.59
763.046	32.34
763.225	32.05
763.405	32.19
763.585	32.29
763.765	32.49
763.945	32.57
764.124	32.78
764.304	32.67
764.484	32.6
764.664	32.28
764.843	32.46
765.023	32.14
765.203	31.86
765.382	32.17
765.562	32.2
765.741	32.24
765.921	32.82
766.101	32.49
766.28	32.31
766.46	32.81
766.639	32.7
766.819	32.52
766.998	33.24
767.178	33.17
767.357	32.7
767.537	32.64
767.716	32.53
767.896	32.54
768.075	32.66
768.254	33.27
768.434	33.11
768.613	33.39
768.792	32.8
768.972	32.4
769.151	33.02
769.33	33
769.51	33.29
769.689	33.8
769.868	33.44
770.047	34.09
770.226	34.21
770.406	34.12
770.585	34.71
770.764	34.34
770.943	34.91
771.122	33.99
771.301	34.49
771.48	33.98
771.66	33.62
771.839	32.84
772.018	32.29
772.197	31.97
772.376	31.74
772.555	30.78
772.734	31.99
772.913	30.85
773.092	31.17
773.271	30.39
773.449	30.97
773.628	30.76
773.807	31.38
773.986	30.77
774.165	30.74
774.344	31.48
774.523	31.47
774.701	30.92
774.88	31.52
775.059	31.83
775.238	32.26
775.417	31.51
775.595	31.73
775.774	30.76
775.953	31.34
776.131	32.23
776.31	30.85
776.489	31.4
776.667	31.34
776.846	31.37
777.025	30.88
777.203	31.03
777.382	31.49
777.56	30.67
777.739	31.13
777.917	31.45
778.096	30.65
778.274	32.19
778.453	31.9
778.631	32.35
778.81	32.2
778.988	32.88
779.166	32.88
779.345	32.75
779.523	33.25
779.702	33.02
779.88	32.43
780.058	32.68
780.237	31.54
780.415	32.24
780.593	32.27
780.771	31.85
780.95	31.85
781.128	32
781.306	31.8
781.484	32.05
781.662	32.74
781.841	32.53
782.019	31.48
782.197	32.6
782.375	31.66
782.553	31.45
782.731	31.91
782.909	32.17
783.087	32.78
783.265	32.82
783.443	32.27
783.621	32.73
783.799	33.37
783.977	34.12
784.155	33.28
784.333	33.54
784.511	33.28
784.689	32.98
784.867	32.8
785.045	32.31
785.223	32.52
785.4	32.65
785.578	32.14
785.756	31.73
785.934	31.27
786.112	31.79
786.289	31.47
786.467	32.21
786.645	32.63
786.823	32.65
787	32.66
787.178	32.2
787.356	32.37
787.533	31.25
787.711	32.7
787.889	32.83
788.066	32.33
788.244	32.38
788.421	32.33
788.599	32.61
788.776	32.16
788.954	32.67
789.131	33.28
789.309	32.92
789.486	33.84
789.664	32.91
789.841	33.32
790.019	32.72
790.196	33.15
790.373	32.7
790.551	32.14
790.728	32.15
790.906	31.62
791.083	30.55
791.26	31.14
791.437	31.08
791.615	31.38
791.792	31.47
791.969	31.93
792.146	32.03
792.324	33.08
792.501	33.56
792.678	33.9
792.855	33.94
793.032	34.38
793.209	33.88
793.387	33.91
793.564	33.71
793.741	32.96
793.918	31.83
794.095	31.42
794.272	30.75
794.449	29.77
794.626	29.77
794.803	29.71
794.98	30.19
795.157	29.75
795.334	29.69
795.511	28.88
795.688	30.18
795.864	31.71
796.041	32.2
796.218	32.33
796.395	32.83
796.572	32.98
796.749	32.36
796.925	32.01
797.102	33.43
797.279	33.48
797.456	33.9
797.632	33.36
797.809	32.83
797.986	32.17
798.162	31.57
798.339	31.7
798.516	31.92
798.692	32.76
798.869	33
799.046	31.93
799.222	31
799.399	31.07
799.575	30.91
799.752	31.13
799.928	30.9
800.105	31.13
800.281	32.08
800.458	31.41
800.634	31.3
800.811	31.52
800.987	31.76
801.163	31.88
801.34	32.06
801.516	32.72
801.692	34.71
801.869	35.54
802.045	36.24
802.221	34.53
802.398	35.02
802.574	33.43
802.75	32.37
802.926	33.21
803.103	33.66
803.279	33.2
803.455	32.67
803.631	30.81
803.807	30.61
803.983	29.4
804.16	30.81
804.336	31.18
804.512	31.89
804.688	33.22
804.864	33.2
805.04	34.3
805.216	34.28
805.392	34.39
805.568	34.71
805.744	34.94
805.92	35.56
806.096	35.15
806.272	34.23
806.448	35.75
806.623	35.68
806.799	35.33
806.975	34.96
807.151	34.17
807.327	34.01
807.503	34.09
807.678	33.72
807.854	33.23
808.03	32.78
808.206	34.25
808.381	33.25
808.557	32.86
808.733	32.18
808.908	32.4
809.084	33.99
809.26	33.96
809.435	33.33
809.611	32.84
809.787	32.25
809.962	32.64
810.138	31.32
810.313	31.7
810.489	31.88
810.664	33.17
810.84	32.98
811.015	32.09
811.191	31.28
811.366	32.66
811.542	32.64
811.717	33.64
811.892	33.31
812.068	33.69
812.243	32.58
812.419	31.89
812.594	31.13
812.769	31.11
812.944	31.53
813.12	31.43
813.295	32
813.47	32.37
813.645	32.68
813.821	33.35
813.996	33.02
814.171	34.14
814.346	34.37
814.521	35.05
814.697	35.81
814.872	35.16
815.047	36.16
815.222	35.68
815.397	34.32
815.572	33.55
815.747	33.29
815.922	32.72
816.097	32.26
816.272	33.78
816.447	33.14
816.622	32.37
816.797	32.89
816.972	33.07
817.147	32.77
817.322	34.53
817.496	35.56
817.671	35.95
817.846	37.38
818.021	36.83
818.196	34.85
818.371	35.24
818.545	35.12
818.72	35.99
818.895	35.5
819.069	34.28
819.244	33.91
819.419	34.05
819.594	33.8
819.768	32.43
819.943	32.72
820.117	33.16
820.292	32.61
820.467	32.94
820.641	32.41
820.816	32.68
820.99	33.17
821.165	33.36
821.339	33.01
821.514	32.84
821.688	33.33
821.863	33.35
822.037	33.13
822.212	33.25
822.386	33.13
822.56	33.28
822.735	33.29
822.909	33.39
823.084	33.09
823.258	33.23
823.432	33.12
823.606	32.92
823.781	32.95
823.955	33.44
824.129	33.46
824.303	33.46
824.478	33.09
824.652	32.84
824.826	32.6
825	32.78
825.174	32.51
825.348	32.73
825.523	32.38
825.697	32.24
825.871	32.15
826.045	31.78
826.219	32.28
826.393	33.07
826.567	33.09
826.741	33.5
826.915	33.88
827.089	34.12
827.263	34.45
827.437	35.22
827.611	35.74
827.784	35.82
827.958	36.41
828.132	35.76
828.306	35.32
828.48	36.04
828.654	36.1
828.827	35.81
829.001	36.28
829.175	36.33
829.349	35.66
829.522	35.28
829.696	35.28
829.87	34.55
830.044	34.89
830.217	34.73
830.391	33.93
830.565	32.55
830.738	31.99
830.912	29.59
831.085	28.46
831.259	28.59
831.432	28.37
831.606	28.03
831.779	28.54
831.953	28.8
832.126	29.29
832.3	30.08
832.473	30.22
832.647	30.3
832.82	31.5
832.994	32.01
833.167	32.52
833.34	33.01
833.514	33.32
833.687	33.7
833.86	33.83
834.034	33.54
834.207	33.06
834.38	33.91
834.553	34.31
834.727	34.35
834.9	34.11
835.073	34.09
835.246	34
835.419	33.8
835.593	33.92
835.766	33.74
835.939	34.12
836.112	33.88
836.285	32.93
836.458	32.92
836.631	33.94
836.804	35.86
836.977	35.82
837.15	36.1
837.323	35.96
837.496	36.05
837.669	36.1
837.842	37.4
838.015	38.69
838.188	38.95
838.361	39.59
838.533	39.49
838.706	38.67
838.879	39.02
839.052	38.72
839.225	39.81
839.398	39.46
839.57	39.55
839.743	36.81
839.916	37.52
840.088	38.51
840.261	38.17
840.434	37.7
840.607	37.08
840.779	36.73
840.952	35.88
841.124	34.43
841.297	35.24
841.47	36.85
841.642	39.09
841.815	37.92
841.987	37.19
842.16	35.75
842.332	34.55
842.505	36.3
842.677	38.38
842.85	38.77
843.022	38.53
843.194	36.22
843.367	33.36
843.539	31.29
843.712	30.64
843.884	32.26
844.056	36.49
844.229	35.14
844.401	30.33
844.573	24.78
844.745	24.98
844.918	26.47
845.09	27.19
845.262	30.27
845.434	32.91
845.606	32.38
845.779	31.55
845.951	31.57
846.123	32.01
846.295	32.98
846.467	32.69
846.639	33.57
846.811	35.34
846.983	37.6
847.155	34.83
847.327	34.99
847.499	36.85
847.671	31.89
847.843	30.81
848.015	33.21
848.187	33.98
848.359	37.63
848.531	35.89
848.703	33.98
848.875	31.15
849.047	30.58
849.218	30.65
849.39	27.38
849.562	30.22
849.734	30.54
849.905	33.96
850.077	34.27
850.249	31.49
850.421	32.06
850.592	28.28
850.764	33.47
850.936	33.95
851.107	32.36
851.279	34.82
851.451	37.96
851.622	38.81
851.794	35.64
851.965	34.13
852.137	34.52
852.308	37.54
852.48	40.32
852.651	35.45
852.823	38.99
852.994	37.77
853.166	39.66
853.337	34.82
853.509	32.66
853.68	32.78
853.851	31.87
854.023	33.87
854.194	32.75
854.365	32.34
854.537	31.64
854.708	34.5
854.879	37.83
855.05	38.06
855.222	41.41
855.393	43.66
855.564	43.59
855.735	45.43
855.906	46.42
856.078	43.71
856.249	43.28
856.42	41.02
856.591	38.36
856.762	33.44
856.933	27.76
857.104	23.99
857.275	21.94
857.446	20.16
857.617	20.86
857.788	19.72
857.959	25.01
858.13	28.68
858.301	34.52
858.472	33.69
858.643	38.83
858.814	38.64
858.985	38.54
859.155	34.31
859.326	35.82
859.497	37.12
859.668	33.4
859.839	32.33
860.009	28.16
860.18	24.86
860.351	19.5
860.522	16.1
860.692	20.13
860.863	21.64
861.034	28.49
861.204	27.4
861.375	21.81
861.546	26.99
861.716	23.74
861.887	27.91
862.057	34.59
862.228	39.19
862.398	39.13
862.569	35.84
862.739	35.75
862.91	35.35
863.08	35.19
863.251	37.09
863.421	34.5
863.592	37.04
863.762	33.2
863.932	26.78
864.103	23.8
864.273	26.48
864.443	28.17
864.614	28.07
864.784	23.13
864.954	23.7
865.125	27.54
865.295	23.79
865.465	26.26
865.635	24.81
865.805	28.55
865.976	29.4
866.146	28.74
866.316	29.8
866.486	32.25
866.656	35.08
866.826	32.28
866.996	28.49
867.166	38.14
867.336	37.39
867.506	41.83
867.676	38.02
867.846	36.55
868.016	38.47
868.186	35.52
868.356	36.09
868.526	39.17
868.696	42.22
868.866	36.66
869.036	32.48
869.206	24.72
869.376	20.12
869.545	22.4
869.715	24.37
869.885	15.62
870.055	19.07
870.224	19.83
870.394	17.51
870.564	19.44
870.734	29.61
870.903	25.42
871.073	26.32
871.243	29.72
871.412	31.22
871.582	31.03
871.751	38.3
871.921	39.85
872.091	35.45
872.26	34.43
872.43	29.96
872.599	27.04
872.769	30.6
872.938	35.9
873.108	36.88
873.277	33.66
873.446	34.93
873.616	31.1
873.785	30.93
873.955	30.99
874.124	31.72
874.293	32.21
874.463	28.98
874.632	29.37
874.801	24.26
874.971	26.01
875.14	27.22
875.309	24.63
875.478	25.77
875.647	25.83
875.817	26.3
875.986	30.12
876.155	35.71
876.324	38.11
876.493	41.86
876.662	45.33
876.831	47.1
877	45.12
877.17	46.31
877.339	52.91
877.508	52.93
877.677	56.43
877.846	50.15
878.015	46.57
878.184	45.19
878.352	38.41
878.521	36.54
878.69	33.14
878.859	32.61
879.028	32.53
879.197	27.58
879.366	26.93
879.534	25.49
879.703	27.64
879.872	27.19
880.041	28.21
880.21	29.28
880.378	29.18
880.547	29
880.716	30.83
880.884	31.1
881.053	30.77
881.222	32.57
881.39	32.56
881.559	32.08
881.727	31.84
881.896	32.33
882.065	32.55
882.233	33.34
882.402	33.93
882.57	34.07
882.739	33.92
882.907	34.13
883.076	33.69
883.244	33.97
883.412	34.16
883.581	35.09
883.749	34.49
883.918	34.39
884.086	33.41
884.254	33.05
884.423	33.78
884.591	34.32
884.759	34.37
884.927	33.09
885.096	32.05
885.264	33.77
885.432	33.36
885.6	34.33
885.769	34.56
885.937	35.18
886.105	35.74
886.273	35.55
886.441	34.18
886.609	35.04
886.777	34.57
886.945	38.69
887.113	37.64
887.281	35.69
887.449	34.41
887.617	34.47
887.785	34.51
887.953	35.35
888.121	33.15
888.289	31.9
888.457	32.03
888.625	32.31
888.793	28.69
888.961	26.16
889.129	29.95
889.296	32.99
889.464	34.38
889.632	35.03
889.8	33.11
889.967	34.38
890.135	39.69
