Data from 2938540_Reflection_1.txt Node
Date: Mon Jun 15 23:38:15 EDT 2015
User: robert
Spectrometer: USB4E03002
Autoset integration time: false
Trigger mode: 4
Integration Time (sec): 1.000000E-1
Scans to average: 10
Electric dark correction enabled: true
Nonlinearity correction enabled: false
Boxcar width: 6
Stray light correction enabled: false
XAxis mode: Wavelengths
Stop averaging: false
Number of Pixels in Spectrum: 3648
>>>>>Begin Spectral Data<<<<<
177.575	10.41
177.794	24.97
178.014	-39.2
178.233	-91.45
178.452	-671.05
178.672	-191.83
178.891	260
179.11	-120.97
179.33	-139.25
179.549	-155.95
179.768	-120
179.987	-231.22
180.207	-68.47
180.426	-75.58
180.645	-54.89
180.864	-49.7
181.084	-74.07
181.303	-78.12
181.522	-71.38
181.741	-64.52
181.96	-36.2
182.179	-11.7
182.398	-17.71
182.618	-77.39
182.837	-36.06
183.056	-96
183.275	-36.6
183.494	-40.34
183.713	-90.86
183.932	-87.05
184.151	-179.84
184.37	-172.16
184.589	-141.62
184.808	-319.25
185.027	-485.38
185.246	-171.59
185.465	-87.14
185.684	-203.62
185.903	-180
186.122	-1463.83
186.341	4195
186.56	970.37
186.779	1917.95
186.998	-411.97
187.216	2676.92
187.435	254.75
187.654	611.65
187.873	3357.14
188.092	694.53
188.311	561.9
188.53	2954.17
188.748	-3315
188.967	-588.18
189.186	-1826.83
189.405	-868.83
189.623	1423.08
189.842	473.91
190.061	5290.91
190.28	-418.92
190.498	-901.75
190.717	-640.54
190.936	-3407.14
191.154	-1137.84
191.373	3855.56
191.592	1640.74
191.81	967.57
192.029	366.13
192.248	533.33
192.466	-737.5
192.685	-158.22
192.904	-272.73
193.122	961.22
193.341	1637.04
193.559	161.75
193.778	253.25
193.996	165.23
194.215	196.99
194.433	187.05
194.652	219.87
194.87	316.48
195.089	210.43
195.307	220.64
195.526	165.1
195.744	179.51
195.963	457.38
196.181	514.45
196.399	2833.33
196.618	648.09
196.836	-365.78
197.055	-268.06
197.273	-564.17
197.491	-170.4
197.71	-361.66
197.928	-87.85
198.146	-92.13
198.365	-62.5
198.583	-144.13
198.801	10000
199.019	405.26
199.238	632.76
199.456	1175
199.674	207.61
199.892	257.05
200.111	1067.86
200.329	105.75
200.547	151.63
200.765	212.5
200.983	249.15
201.202	279.3
201.42	408.28
201.638	255.49
201.856	621.67
202.074	291.3
202.292	258.66
202.51	285.71
202.728	256.86
202.946	183.42
203.165	170.36
203.383	172.53
203.601	110.22
203.819	77.85
204.037	85.59
204.255	81.69
204.473	93.33
204.691	74.66
204.909	50.34
205.127	38.25
205.345	21.96
205.562	44.21
205.78	-0
205.998	11.58
206.216	20.98
206.434	65.25
206.652	72.61
206.87	76.83
207.088	85.35
207.306	114.96
207.523	116.44
207.741	198.31
207.959	168.47
208.177	175.47
208.395	150.78
208.612	141.13
208.83	233.33
209.048	210.18
209.266	205.43
209.483	219.01
209.701	316.07
209.919	746.15
210.136	323.51
210.354	327.15
210.572	266.18
210.79	276.99
211.007	237.18
211.225	212.41
211.442	171.71
211.66	121.53
211.878	54.97
212.095	50.37
212.313	26.68
212.53	3.43
212.748	-19.65
212.966	-34.95
213.183	-16.7
213.401	8.09
213.618	4.65
213.836	-14.1
214.053	27.22
214.271	47.96
214.488	48.86
214.705	155.77
214.923	131.29
215.14	148.19
215.358	136.47
215.575	143.71
215.793	139.58
216.01	125.75
216.227	114.55
216.445	102.61
216.662	97.77
216.879	90.76
217.097	67.76
217.314	71.9
217.531	70.97
217.749	89.6
217.966	69.46
218.183	41.76
218.4	35.27
218.618	14.86
218.835	2.71
219.052	-11.07
219.269	-16.96
219.487	-16.49
219.704	5.46
219.921	11.82
220.138	20.27
220.355	25.69
220.572	20.94
220.79	15.19
221.007	16.97
221.224	26.37
221.441	35.94
221.658	39.46
221.875	41.98
222.092	39.91
222.309	37.61
222.526	38.81
222.743	35.53
222.96	28.97
223.177	23.12
223.394	18.86
223.611	23.2
223.828	23.2
224.045	20.48
224.262	18.65
224.479	16.79
224.696	15.55
224.913	16.03
225.13	14.48
225.347	11.44
225.564	9.57
225.781	8.34
225.997	9.99
226.214	9.14
226.431	9.84
226.648	10.69
226.865	11.26
227.082	12.14
227.298	11.73
227.515	11.59
227.732	11.01
227.949	9.66
228.165	9.95
228.382	10.84
228.599	11.19
228.816	10.8
229.032	11.05
229.249	11.17
229.466	11.13
229.682	10.68
229.899	9.24
230.116	10.04
230.332	8.78
230.549	8.58
230.765	11.49
230.982	11.8
231.199	11.55
231.415	11.88
231.632	12.12
231.848	13.03
232.065	10.83
232.281	10.02
232.498	9.01
232.714	9.82
232.931	9.48
233.147	10.26
233.364	9.61
233.58	9.15
233.797	9.02
234.013	9.67
234.23	8.92
234.446	8.14
234.662	8.79
234.879	8.7
235.095	7.87
235.312	9.39
235.528	7.37
235.744	8.31
235.961	8.34
236.177	10.53
236.393	8.99
236.61	7.6
236.826	6.64
237.042	7.52
237.258	8.61
237.475	7.37
237.691	6.87
237.907	8.08
238.123	8.47
238.339	10.64
238.556	10.44
238.772	10.09
238.988	9.15
239.204	10.85
239.42	11.39
239.636	11.39
239.853	11.93
240.069	10.87
240.285	11.41
240.501	12.15
240.717	11.87
240.933	11.3
241.149	11.19
241.365	11.47
241.581	11.55
241.797	11.04
242.013	10.41
242.229	10.67
242.445	11.41
242.661	10.59
242.877	10.71
243.093	10.43
243.309	10.13
243.525	9.7
243.741	9.45
243.957	8.56
244.173	8.07
244.388	8.15
244.604	8.9
244.82	8.45
245.036	7.64
245.252	7.21
245.468	7.34
245.683	7.36
245.899	7.25
246.115	7.25
246.331	7.41
246.547	7.12
246.762	7.47
246.978	7.2
247.194	7.2
247.409	7.14
247.625	7.16
247.841	7.9
248.057	7.37
248.272	7.59
248.488	7.76
248.703	7.62
248.919	7.32
249.135	7.13
249.35	7.96
249.566	7.96
249.782	8.39
249.997	7.93
250.213	7.3
250.428	7.53
250.644	7.42
250.859	8.08
251.075	7.56
251.29	7.44
251.506	7.83
251.721	8.12
251.937	8.43
252.152	8.44
252.368	8.48
252.583	8.41
252.798	9.24
253.014	9.66
253.229	9.5
253.445	9.86
253.66	10.53
253.875	11.24
254.091	12.2
254.306	11.82
254.521	11.23
254.737	10.35
254.952	10.36
255.167	9.99
255.383	9.89
255.598	9.45
255.813	8.73
256.028	8.78
256.244	7.94
256.459	7.26
256.674	6.87
256.889	6.36
257.104	5.78
257.32	6.09
257.535	6.25
257.75	6.12
257.965	5.96
258.18	5.99
258.395	5.85
258.61	5.98
258.826	5.99
259.041	6.14
259.256	6.05
259.471	5.96
259.686	5.95
259.901	6.18
260.116	6.07
260.331	6.29
260.546	5.97
260.761	6.16
260.976	5.9
261.191	6.09
261.406	5.81
261.621	5.78
261.836	5.6
262.05	5.81
262.265	5.79
262.48	5.9
262.695	5.86
262.91	5.45
263.125	4.92
263.34	4.97
263.555	4.4
263.769	4.51
263.984	4.55
264.199	5.31
264.414	5.19
264.629	5.16
264.843	5.35
265.058	5.53
265.273	5.07
265.488	5.27
265.702	5.45
265.917	5.68
266.132	6.1
266.346	6.79
266.561	6.8
266.776	6.71
266.99	6.76
267.205	6.48
267.42	6.32
267.634	6.42
267.849	6.63
268.063	7.06
268.278	6.65
268.492	6.69
268.707	6.68
268.922	6.26
269.136	6.06
269.351	6.23
269.565	6.01
269.78	5.75
269.994	5.89
270.209	5.51
270.423	5.16
270.637	5.01
270.852	4.95
271.066	5.54
271.281	5.65
271.495	5.6
271.709	6.07
271.924	6.19
272.138	6.07
272.353	6.3
272.567	6.29
272.781	6.04
272.996	6.43
273.21	6.41
273.424	6.56
273.638	6.42
273.853	6.04
274.067	5.81
274.281	5.6
274.495	5.09
274.71	4.72
274.924	4.39
275.138	4.59
275.352	4.49
275.566	4.57
275.781	4.63
275.995	4.98
276.209	4.76
276.423	4.44
276.637	4.41
276.851	4.72
277.065	4.99
277.279	5.28
277.493	5.35
277.707	6.02
277.921	6.14
278.135	6.13
278.349	6.3
278.563	6.24
278.777	6.02
278.991	6.04
279.205	6.41
279.419	6.36
279.633	6.05
279.847	6.07
280.061	6.05
280.275	6.07
280.489	5.87
280.703	5.57
280.917	5.33
281.131	5.55
281.344	5.6
281.558	5.44
281.772	5.16
281.986	5.04
282.2	5.25
282.414	5.28
282.627	5.12
282.841	5.09
283.055	5.03
283.269	4.97
283.482	4.9
283.696	5.26
283.91	4.82
284.123	4.98
284.337	5.19
284.551	5.49
284.764	5.4
284.978	5.41
285.192	5.31
285.405	5.54
285.619	5.41
285.833	5.61
286.046	5.66
286.26	5.66
286.473	5.7
286.687	5.87
286.9	6.19
287.114	6.36
287.327	6.34
287.541	6.67
287.754	6.78
287.968	6.77
288.181	6.54
288.395	6.88
288.608	6.8
288.822	6.71
289.035	7.01
289.248	6.93
289.462	7.01
289.675	6.69
289.889	6.27
290.102	6.25
290.315	6.05
290.529	5.76
290.742	5.58
290.955	5.72
291.169	5.65
291.382	5.43
291.595	5.52
291.808	5.23
292.022	5.02
292.235	5.09
292.448	5.17
292.661	5.79
292.875	5.71
293.088	5.97
293.301	5.97
293.514	6.24
293.727	6.02
293.94	5.98
294.153	6.19
294.367	6.02
294.58	6.05
294.793	6.21
295.006	6.25
295.219	6.17
295.432	5.75
295.645	5.62
295.858	5.37
296.071	5.36
296.284	5.56
296.497	5.49
296.71	5.51
296.923	5.43
297.136	5.61
297.349	5.77
297.562	5.79
297.775	5.7
297.988	5.76
298.201	5.94
298.414	6.24
298.626	6.26
298.839	6.2
299.052	6.06
299.265	6.3
299.478	6.24
299.691	6.17
299.903	6.32
300.116	6.33
300.329	6.08
300.542	6.13
300.755	6.22
300.967	6.18
301.18	5.97
301.393	6.14
301.605	6.59
301.818	6.87
302.031	6.98
302.243	6.85
302.456	6.91
302.669	6.87
302.881	6.68
303.094	6.86
303.307	6.83
303.519	6.87
303.732	7.04
303.944	7.13
304.157	7.24
304.37	7.16
304.582	7.21
304.795	7.35
305.007	7.38
305.22	7.41
305.432	7.34
305.645	7.22
305.857	7.36
306.069	7.41
306.282	7.39
306.494	7.46
306.707	7.46
306.919	7.34
307.132	7.42
307.344	7.12
307.556	6.73
307.769	6.46
307.981	6.38
308.193	6.32
308.406	6.44
308.618	6.41
308.83	6.34
309.043	6.25
309.255	6.38
309.467	6.44
309.679	6.48
309.892	6.18
310.104	6.39
310.316	6.54
310.528	7.02
310.74	7.21
310.953	7.52
311.165	7.58
311.377	7.51
311.589	7.73
311.801	7.52
312.013	7.71
312.225	7.94
312.437	8.39
312.649	8.47
312.862	8.5
313.074	8.66
313.286	8.44
313.498	8.63
313.71	8.26
313.922	8.19
314.134	8.33
314.346	8.34
314.558	8.98
314.77	8.61
314.982	8.24
315.193	7.65
315.405	7.55
315.617	7.38
315.829	7.04
316.041	6.71
316.253	6.53
316.465	6.08
316.677	6.23
316.888	5.93
317.1	5.86
317.312	5.2
317.524	5.09
317.736	5.31
317.947	5.71
318.159	6.07
318.371	6.27
318.583	6.66
318.794	7.49
319.006	7.42
319.218	8.1
319.43	8.14
319.641	8.5
319.853	8.59
320.064	8.86
320.276	9.39
320.488	9.54
320.699	9.5
320.911	9.43
321.123	9.68
321.334	9.52
321.546	8.9
321.757	8.72
321.969	8.86
322.18	8.56
322.392	8.61
322.603	8.45
322.815	8.48
323.026	7.88
323.238	7.8
323.449	7.66
323.661	8.06
323.872	7.48
324.083	7.63
324.295	7.83
324.506	7.83
324.718	7.33
324.929	7.11
325.14	7.05
325.352	7.41
325.563	7.48
325.774	7.81
325.986	7.63
326.197	7.77
326.408	7.49
326.62	7.7
326.831	7.71
327.042	7.96
327.253	8.58
327.464	8.89
327.676	9.76
327.887	9.96
328.098	9.51
328.309	9.55
328.52	9.65
328.732	9.8
328.943	9.85
329.154	10.24
329.365	10.13
329.576	10.24
329.787	10.3
329.998	9.72
330.209	9.68
330.42	9.26
330.631	9.39
330.842	9.84
331.053	9.52
331.264	9.41
331.475	9.47
331.686	9.32
331.897	9.01
332.108	9.16
332.319	9.21
332.53	9.06
332.741	9.56
332.952	9.27
333.163	9.21
333.374	9.03
333.585	9.08
333.795	9.07
334.006	9.02
334.217	9.17
334.428	9.37
334.639	9.31
334.849	9.17
335.06	9
335.271	9.1
335.482	8.75
335.692	9.43
335.903	9.49
336.114	9.51
336.325	9.2
336.535	9.51
336.746	9.48
336.957	9.51
337.167	9.18
337.378	9.81
337.589	9.75
337.799	9.84
338.01	9.59
338.22	9.44
338.431	8.99
338.642	8.95
338.852	8.94
339.063	8.95
339.273	8.94
339.484	9.2
339.694	9.32
339.905	9.36
340.115	8.66
340.326	8.91
340.536	8.81
340.746	9.03
340.957	9.33
341.167	9.65
341.378	9.67
341.588	9.58
341.799	9.73
342.009	9.52
342.219	9.23
342.43	8.87
342.64	9.02
342.85	9.14
343.061	9.17
343.271	9.26
343.481	9.08
343.691	8.91
343.902	8.66
344.112	8.67
344.322	8.62
344.532	8.55
344.743	8.54
344.953	8.62
345.163	8.74
345.373	8.56
345.583	8.74
345.793	8.71
346.004	8.7
346.214	9.06
346.424	9.27
346.634	9.34
346.844	9.1
347.054	9.23
347.264	9.3
347.474	9.25
347.684	9.33
347.894	9.05
348.104	9.29
348.314	9.12
348.524	8.8
348.734	9.03
348.944	8.72
349.154	8.46
349.364	8.46
349.574	8.73
349.784	8.55
349.994	8.43
350.204	8.63
350.413	8.27
350.623	8.46
350.833	8.16
351.043	8.16
351.253	8.27
351.463	7.83
351.672	7.84
351.882	7.86
352.092	7.72
352.302	7.63
352.511	7.41
352.721	7.66
352.931	7.71
353.141	7.93
353.35	7.89
353.56	8.1
353.77	7.94
353.979	7.91
354.189	7.81
354.399	7.74
354.608	7.84
354.818	7.85
355.027	7.75
355.237	7.94
355.447	7.84
355.656	7.53
355.866	7.31
356.075	7.26
356.285	7.29
356.494	7.25
356.704	7.27
356.913	7.49
357.123	7.63
357.332	7.54
357.542	7.53
357.751	7.42
357.96	7.55
358.17	7.51
358.379	7.62
358.589	7.71
358.798	7.61
359.007	7.38
359.217	7.22
359.426	7.26
359.635	7.16
359.845	7.04
360.054	6.93
360.263	6.9
360.472	7.07
360.682	6.89
360.891	6.67
361.1	6.63
361.309	6.67
361.519	6.78
361.728	6.8
361.937	6.98
362.146	6.91
362.355	6.95
362.564	6.93
362.774	7.06
362.983	7.09
363.192	7.11
363.401	7.12
363.61	7.49
363.819	7.45
364.028	7.27
364.237	7.24
364.446	7.14
364.655	7.06
364.864	7.3
365.073	7.22
365.282	7.14
365.491	7.15
365.7	7.16
365.909	7.03
366.118	7.16
366.327	7
366.536	7.15
366.745	7.19
366.954	7.23
367.162	7.22
367.371	7.46
367.58	7.1
367.789	7.11
367.998	7.26
368.207	7.13
368.415	7.07
368.624	7.05
368.833	7.05
369.042	6.84
369.25	6.61
369.459	6.93
369.668	6.72
369.877	6.66
370.085	6.35
370.294	6.53
370.503	6.53
370.711	6.35
370.92	6.48
371.129	6.32
371.337	6.33
371.546	6.29
371.754	6.43
371.963	6.56
372.171	6.24
372.38	6.46
372.589	6.67
372.797	6.63
373.006	6.57
373.214	6.79
373.423	6.93
373.631	6.73
373.84	7.05
374.048	7.13
374.256	7.02
374.465	6.97
374.673	6.93
374.882	7.05
375.09	6.85
375.298	6.8
375.507	6.64
375.715	6.38
375.923	6.01
376.132	5.91
376.34	5.92
376.548	5.85
376.757	6.04
376.965	6.11
377.173	5.95
377.381	5.89
377.59	5.73
377.798	5.63
378.006	5.57
378.214	5.69
378.423	5.96
378.631	5.95
378.839	5.9
379.047	6.02
379.255	5.87
379.463	5.55
379.671	5.36
379.879	5.48
380.088	5.57
380.296	5.57
380.504	6.04
380.712	5.84
380.92	5.89
381.128	5.76
381.336	5.71
381.544	5.71
381.752	5.69
381.96	5.63
382.168	5.59
382.376	5.58
382.584	5.71
382.791	5.81
382.999	5.78
383.207	5.32
383.415	5.55
383.623	5.48
383.831	5.57
384.039	5.71
384.247	5.64
384.454	5.51
384.662	5.51
384.87	5.43
385.078	5.48
385.285	5.28
385.493	5.06
385.701	5.12
385.909	5.34
386.116	5.21
386.324	5.37
386.532	5.46
386.739	5.55
386.947	5.69
387.155	5.65
387.362	5.65
387.57	5.9
387.778	5.89
387.985	5.88
388.193	6.04
388.4	6.2
388.608	6.17
388.816	6.16
389.023	6.06
389.231	5.89
389.438	5.73
389.646	5.64
389.853	5.7
390.061	5.66
390.268	5.51
390.475	5.53
390.683	5.58
390.89	5.51
391.098	5.39
391.305	5.23
391.512	5.35
391.72	5.29
391.927	5.27
392.135	5.19
392.342	5.17
392.549	5.14
392.756	5.07
392.964	5.03
393.171	4.91
393.378	4.95
393.586	4.81
393.793	4.61
394	4.78
394.207	4.52
394.414	4.48
394.622	4.43
394.829	4.4
395.036	4.58
395.243	4.52
395.45	4.65
395.657	4.68
395.864	4.7
396.072	4.58
396.279	4.67
396.486	4.88
396.693	4.81
396.9	5.02
397.107	5.3
397.314	5.26
397.521	5.23
397.728	5.02
397.935	5.1
398.142	4.95
398.349	4.91
398.556	5.01
398.763	5.02
398.97	4.99
399.177	4.87
399.383	4.96
399.59	4.95
399.797	4.86
400.004	4.99
400.211	5.08
400.418	5.07
400.625	5.08
400.831	5.22
401.038	5.2
401.245	5.08
401.452	4.95
401.658	4.96
401.865	4.98
402.072	4.92
402.279	4.77
402.485	4.59
402.692	4.5
402.899	4.56
403.105	4.43
403.312	4.41
403.519	4.37
403.725	4.39
403.932	4.39
404.138	4.48
404.345	4.46
404.552	4.51
404.758	4.36
404.965	4.43
405.171	4.52
405.378	4.57
405.584	4.51
405.791	4.58
405.997	4.55
406.204	4.51
406.41	4.54
406.617	4.59
406.823	4.42
407.029	4.4
407.236	4.25
407.442	4.31
407.649	4.16
407.855	4.01
408.061	3.94
408.268	3.96
408.474	3.92
408.68	4.08
408.887	4.15
409.093	4.08
409.299	4.01
409.505	4.2
409.712	4.23
409.918	4.22
410.124	4.2
410.33	4.24
410.537	4.26
410.743	4.3
410.949	4.19
411.155	4.29
411.361	4.06
411.567	3.87
411.773	3.75
411.98	3.72
412.186	3.69
412.392	3.66
412.598	3.72
412.804	3.83
413.01	3.92
413.216	4.01
413.422	3.93
413.628	3.96
413.834	3.92
414.04	3.85
414.246	3.89
414.452	4.01
414.658	4.05
414.864	4
415.07	4.05
415.275	3.96
415.481	4
415.687	3.95
415.893	3.86
416.099	3.92
416.305	3.94
416.511	3.95
416.716	4.05
416.922	4.05
417.128	4.06
417.334	4.05
417.539	4.03
417.745	4.03
417.951	4.09
418.157	3.99
418.362	4.02
418.568	4.05
418.774	3.97
418.979	3.93
419.185	3.87
419.391	3.89
419.596	3.93
419.802	3.91
420.008	3.41
420.213	3.44
420.419	3.35
420.624	3.29
420.83	3.26
421.035	3.24
421.241	3.23
421.446	3.24
421.652	3.27
421.857	3.3
422.063	3.24
422.268	3.23
422.474	3.18
422.679	3.66
422.885	3.63
423.09	3.63
423.295	3.65
423.501	3.71
423.706	3.64
423.911	3.67
424.117	3.62
424.322	3.61
424.527	3.58
424.733	3.46
424.938	3.37
425.143	3.4
425.349	3.35
425.554	3.43
425.759	3.54
425.964	3.49
426.169	3.46
426.375	3.55
426.58	3.52
426.785	3.63
426.99	3.59
427.195	3.61
427.4	3.83
427.605	3.99
427.811	4.07
428.016	4.06
428.221	3.9
428.426	3.75
428.631	3.71
428.836	3.69
429.041	3.63
429.246	3.56
429.451	3.54
429.656	3.47
429.861	3.53
430.066	3.45
430.271	3.23
430.476	3.11
430.681	3.15
430.886	3.25
431.09	3.3
431.295	3.38
431.5	3.35
431.705	3.42
431.91	3.46
432.115	3.48
432.32	3.49
432.524	3.43
432.729	3.44
432.934	3.51
433.139	3.57
433.343	3.47
433.548	3.36
433.753	3.41
433.958	3.37
434.162	3.43
434.367	3.48
434.572	3.48
434.776	3.46
434.981	3.43
435.186	3.42
435.39	3.31
435.595	3.28
435.799	3.25
436.004	3.28
436.209	3.36
436.413	3.33
436.618	3.31
436.822	3.26
437.027	3.19
437.231	3.1
437.436	3.09
437.64	3.24
437.845	3.24
438.049	3.3
438.253	3.37
438.458	3.32
438.662	3.38
438.867	3.42
439.071	3.32
439.275	3.35
439.48	3.32
439.684	3.29
439.888	3.37
440.093	3.38
440.297	3.29
440.501	3.32
440.706	3.42
440.91	3.43
441.114	3.52
441.318	3.54
441.523	3.47
441.727	3.49
441.931	3.5
442.135	3.49
442.339	3.54
442.543	3.59
442.748	3.58
442.952	3.61
443.156	3.58
443.36	3.48
443.564	3.42
443.768	3.29
443.972	3.35
444.176	3.4
444.38	3.41
444.584	3.32
444.788	3.37
444.992	3.33
445.196	3.29
445.4	3.24
445.604	3.21
445.808	3.26
446.012	3.21
446.216	3.24
446.42	3.34
446.624	3.2
446.828	3.14
447.032	3.12
447.235	3.17
447.439	3.13
447.643	3.13
447.847	3.1
448.051	3.13
448.254	3.12
448.458	3.05
448.662	3.04
448.866	3.01
449.069	2.98
449.273	2.91
449.477	2.93
449.681	2.97
449.884	3
450.088	2.97
450.292	3.03
450.495	3
450.699	3.03
450.902	3.01
451.106	3.06
451.31	3.17
451.513	3.25
451.717	3.22
451.92	3.4
452.124	3.39
452.327	3.35
452.531	3.44
452.734	3.43
452.938	3.43
453.141	3.34
453.345	3.25
453.548	3.3
453.752	3.34
453.955	3.15
454.158	3.06
454.362	3.09
454.565	3.03
454.769	3.07
454.972	3.13
455.175	3.02
455.379	3.04
455.582	3.03
455.785	3.23
455.988	3.25
456.192	3.16
456.395	3.11
456.598	3.17
456.801	3.13
457.005	3.09
457.208	3.04
457.411	2.97
457.614	3.04
457.817	3.04
458.021	3.08
458.224	3.04
458.427	3.02
458.63	3.03
458.833	3.06
459.036	3.06
459.239	3.07
459.442	3.17
459.645	3.2
459.848	3.29
460.051	3.35
460.254	3.33
460.457	3.39
460.66	3.43
460.863	3.45
461.066	3.36
461.269	3.4
461.472	3.38
461.675	3.39
461.878	3.39
462.081	3.34
462.284	3.27
462.486	3.25
462.689	3.23
462.892	3.17
463.095	3.15
463.298	3.11
463.5	3.1
463.703	3.14
463.906	3.17
464.109	3.21
464.311	3.27
464.514	3.42
464.717	3.52
464.92	3.62
465.122	3.55
465.325	3.53
465.528	3.53
465.73	3.47
465.933	3.4
466.135	3.39
466.338	3.43
466.541	3.39
466.743	3.34
466.946	3.15
467.148	3.06
467.351	2.95
467.553	2.86
467.756	2.89
467.958	2.86
468.161	2.93
468.363	2.98
468.566	2.95
468.768	2.91
468.971	2.85
469.173	2.83
469.375	2.88
469.578	2.96
469.78	3.02
469.983	3
470.185	3.08
470.387	3.09
470.59	3.19
470.792	3.13
470.994	3.05
471.196	3.17
471.399	3.24
471.601	3.28
471.803	3.31
472.005	3.39
472.208	3.39
472.41	3.37
472.612	3.33
472.814	3.28
473.016	3.28
473.218	3.23
473.421	3.28
473.623	3.35
473.825	3.28
474.027	3.32
474.229	3.33
474.431	3.34
474.633	3.26
474.835	3.34
475.037	3.39
475.239	3.49
475.441	3.49
475.643	3.46
475.845	3.46
476.047	3.48
476.249	3.46
476.451	3.5
476.653	3.55
476.855	3.53
477.057	3.47
477.258	3.49
477.46	3.46
477.662	3.39
477.864	3.33
478.066	3.3
478.268	3.35
478.469	3.31
478.671	3.26
478.873	3.26
479.075	3.25
479.276	3.19
479.478	3.17
479.68	3.23
479.882	3.22
480.083	3.18
480.285	3.15
480.487	3.11
480.688	3.15
480.89	3.1
481.091	3.1
481.293	3.1
481.495	3.08
481.696	3.03
481.898	3.01
482.099	3.01
482.301	2.97
482.502	2.97
482.704	3
482.905	3
483.107	3
483.308	2.97
483.51	2.98
483.711	3.01
483.913	3.01
484.114	3.02
484.315	3.06
484.517	3.09
484.718	3.07
484.92	3.1
485.121	3.13
485.322	3.09
485.524	3.11
485.725	3.1
485.926	3.11
486.127	3.09
486.329	3.05
486.53	3.04
486.731	3.06
486.932	3.06
487.134	3.03
487.335	3.05
487.536	3.06
487.737	3.06
487.938	3.03
488.139	3.05
488.341	3.07
488.542	3.07
488.743	3.1
488.944	3.08
489.145	3.12
489.346	3.12
489.547	3.11
489.748	3.17
489.949	3.2
490.15	3.16
490.351	3.17
490.552	3.23
490.753	3.24
490.954	3.27
491.155	3.32
491.356	3.32
491.557	3.35
491.758	3.33
491.959	3.29
492.159	3.35
492.36	3.32
492.561	3.35
492.762	3.43
492.963	3.43
493.164	3.44
493.364	3.41
493.565	3.42
493.766	3.42
493.967	3.34
494.167	3.35
494.368	3.32
494.569	3.38
494.769	3.36
494.97	3.38
495.171	3.34
495.371	3.34
495.572	3.37
495.773	3.33
495.973	3.36
496.174	3.35
496.375	3.35
496.575	3.45
496.776	3.52
496.976	3.63
497.177	3.59
497.377	3.6
497.578	3.59
497.778	3.6
497.979	3.6
498.179	3.63
498.38	3.7
498.58	3.77
498.78	3.81
498.981	3.8
499.181	3.77
499.382	3.79
499.582	3.74
499.782	3.79
499.983	3.77
500.183	3.81
500.383	3.75
500.584	3.71
500.784	3.72
500.984	3.68
501.184	3.66
501.385	3.64
501.585	3.71
501.785	3.73
501.985	3.75
502.185	3.74
502.386	3.73
502.586	3.81
502.786	3.81
502.986	3.98
503.186	3.96
503.386	3.96
503.586	4.07
503.786	4.05
503.987	4.1
504.187	4.04
504.387	4.02
504.587	4
504.787	4.13
504.987	4.15
505.187	4.12
505.387	4.09
505.587	4.03
505.786	4.11
505.986	4.13
506.186	4.07
506.386	4.11
506.586	4.08
506.786	4.14
506.986	4.18
507.186	4.15
507.386	4.04
507.585	4.05
507.785	4.08
507.985	4.16
508.185	4.18
508.384	4.13
508.584	4.14
508.784	4.12
508.984	4.13
509.183	4.16
509.383	4.15
509.583	4.25
509.782	4.34
509.982	4.44
510.182	4.47
510.381	4.43
510.581	4.49
510.781	4.51
510.98	4.63
511.18	4.74
511.379	4.79
511.579	4.86
511.778	4.87
511.978	4.9
512.177	4.87
512.377	4.78
512.576	4.76
512.776	4.79
512.975	4.88
513.175	4.83
513.374	4.92
513.573	4.93
513.773	4.84
513.972	4.86
514.172	4.86
514.371	4.95
514.57	5.01
514.77	5.03
514.969	5.11
515.168	5.18
515.367	5.17
515.567	5.14
515.766	5.16
515.965	5.14
516.164	5.14
516.364	5.17
516.563	5.24
516.762	5.25
516.961	5.25
517.16	5.23
517.359	5.26
517.559	5.3
517.758	5.36
517.957	5.43
518.156	5.53
518.355	5.57
518.554	5.56
518.753	5.6
518.952	5.67
519.151	5.68
519.35	5.68
519.549	5.73
519.748	5.84
519.947	5.86
520.146	5.89
520.345	5.87
520.544	5.93
520.743	5.89
520.942	5.94
521.141	6.06
521.339	6.04
521.538	6.04
521.737	6.08
521.936	6.13
522.135	6.1
522.333	6.01
522.532	6.04
522.731	6.04
522.93	6.05
523.129	6.06
523.327	6.12
523.526	6.15
523.725	6.14
523.923	6.18
524.122	6.2
524.321	6.25
524.519	6.26
524.718	6.3
524.917	6.32
525.115	6.33
525.314	6.37
525.512	6.38
525.711	6.33
525.909	6.31
526.108	6.29
526.306	6.34
526.505	6.35
526.703	6.34
526.902	6.31
527.1	6.33
527.299	6.36
527.497	6.39
527.696	6.42
527.894	6.42
528.092	6.47
528.291	6.54
528.489	6.57
528.688	6.58
528.886	6.56
529.084	6.6
529.283	6.66
529.481	6.71
529.679	6.75
529.877	6.77
530.076	6.84
530.274	6.88
530.472	6.92
530.67	6.9
530.869	6.94
531.067	7
531.265	7.09
531.463	7.15
531.661	7.17
531.859	7.22
532.057	7.29
532.255	7.29
532.454	7.34
532.652	7.39
532.85	7.39
533.048	7.44
533.246	7.46
533.444	7.47
533.642	7.5
533.84	7.51
534.038	7.51
534.236	7.54
534.434	7.49
534.632	7.48
534.83	7.49
535.027	7.53
535.225	7.51
535.423	7.56
535.621	7.59
535.819	7.67
536.017	7.66
536.215	7.67
536.412	7.63
536.61	7.69
536.808	7.64
537.006	7.76
537.203	7.82
537.401	7.85
537.599	7.81
537.797	7.84
537.994	7.88
538.192	7.85
538.39	7.84
538.587	7.86
538.785	7.88
538.983	7.96
539.18	7.91
539.378	8.03
539.575	8
539.773	8
539.97	8.02
540.168	8.05
540.366	8.09
540.563	8.11
540.761	8.16
540.958	8.23
541.155	8.27
541.353	8.3
541.55	8.32
541.748	8.42
541.945	8.43
542.143	8.51
542.34	8.58
542.537	8.67
542.735	8.78
542.932	8.85
543.129	8.92
543.327	8.95
543.524	8.94
543.721	9.04
543.919	9.13
544.116	9.21
544.313	9.23
544.51	9.28
544.708	9.32
544.905	9.27
545.102	9.29
545.299	9.29
545.496	9.27
545.693	9.26
545.891	9.32
546.088	9.34
546.285	9.37
546.482	9.4
546.679	9.4
546.876	9.43
547.073	9.51
547.27	9.54
547.467	9.73
547.664	9.81
547.861	9.88
548.058	9.96
548.255	10.09
548.452	10.18
548.649	10.29
548.846	10.27
549.043	10.29
549.24	10.42
549.437	10.41
549.633	10.39
549.83	10.4
550.027	10.34
550.224	10.36
550.421	10.33
550.618	10.47
550.814	10.41
551.011	10.37
551.208	10.41
551.405	10.45
551.601	10.49
551.798	10.46
551.995	10.56
552.191	10.62
552.388	10.65
552.585	10.67
552.781	10.73
552.978	10.79
553.175	10.8
553.371	10.82
553.568	11
553.764	10.99
553.961	11.05
554.157	11.05
554.354	11.19
554.55	11.26
554.747	11.26
554.943	11.29
555.14	11.42
555.336	11.35
555.533	11.41
555.729	11.45
555.926	11.57
556.122	11.52
556.318	11.65
556.515	11.73
556.711	11.84
556.907	11.87
557.104	11.94
557.3	12.08
557.496	12.25
557.693	12.28
557.889	12.46
558.085	12.62
558.281	12.61
558.478	12.66
558.674	12.65
558.87	12.72
559.066	12.84
559.262	12.96
559.459	13.04
559.655	13.12
559.851	13.11
560.047	13.15
560.243	13.28
560.439	13.32
560.635	13.32
560.831	13.45
561.027	13.39
561.223	13.47
561.419	13.58
561.615	13.66
561.811	13.65
562.007	13.68
562.203	13.75
562.399	13.87
562.595	13.93
562.791	13.99
562.987	14.05
563.183	14.06
563.379	14.03
563.575	14.23
563.771	14.39
563.966	14.42
564.162	14.4
564.358	14.56
564.554	14.54
564.75	14.51
564.945	14.51
565.141	14.59
565.337	14.67
565.533	14.73
565.728	14.82
565.924	14.9
566.12	14.94
566.315	15.08
566.511	15.22
566.707	15.31
566.902	15.35
567.098	15.45
567.293	15.45
567.489	15.53
567.684	15.56
567.88	15.56
568.076	15.62
568.271	15.67
568.467	15.76
568.662	15.83
568.858	15.76
569.053	15.69
569.248	15.67
569.444	15.71
569.639	15.85
569.835	16.04
570.03	16.13
570.225	16.26
570.421	16.34
570.616	16.42
570.812	16.45
571.007	16.54
571.202	16.62
571.397	16.71
571.593	16.84
571.788	16.96
571.983	17.02
572.178	17.11
572.374	17.2
572.569	17.25
572.764	17.17
572.959	17.17
573.154	17.12
573.35	17.24
573.545	17.2
573.74	17.26
573.935	17.26
574.13	17.17
574.325	17.22
574.52	17.3
574.715	17.17
574.91	17.18
575.105	17.26
575.3	17.35
575.495	17.42
575.69	17.54
575.885	17.6
576.08	17.72
576.275	17.76
576.47	17.89
576.665	18.07
576.86	18.25
577.055	18.25
577.25	18.45
577.444	18.5
577.639	18.45
577.834	18.58
578.029	18.54
578.224	18.6
578.418	18.67
578.613	18.72
578.808	18.72
579.003	18.8
579.197	18.93
579.392	18.87
579.587	18.86
579.781	18.88
579.976	18.98
580.171	19.08
580.365	19.04
580.56	19.16
580.755	19.17
580.949	19.11
581.144	19.13
581.338	19.19
581.533	19.11
581.727	19
581.922	19.09
582.116	19.12
582.311	19.15
582.505	19.13
582.7	19.2
582.894	19.18
583.089	19.15
583.283	19.15
583.478	19.26
583.672	19.44
583.866	19.51
584.061	19.63
584.255	19.76
584.449	19.84
584.644	19.91
584.838	19.93
585.032	19.98
585.226	19.94
585.421	19.99
585.615	20.08
585.809	20.15
586.003	20.21
586.198	20.14
586.392	20.1
586.586	20.04
586.78	20.08
586.974	20.04
587.168	20.07
587.363	20.14
587.557	20.16
587.751	20.26
587.945	20.34
588.139	20.42
588.333	20.52
588.527	20.47
588.721	20.49
588.915	20.57
589.109	20.62
589.303	20.6
589.497	20.67
589.691	20.76
589.885	20.77
590.079	20.88
590.273	20.95
590.466	20.96
590.66	20.98
590.854	20.85
591.048	20.92
591.242	20.98
591.436	21.03
591.629	21.13
591.823	21.17
592.017	21.12
592.211	21.03
592.404	21.01
592.598	20.94
592.792	20.92
592.986	20.93
593.179	21
593.373	21.14
593.567	21.22
593.76	21.18
593.954	21.17
594.147	21.25
594.341	21.29
594.535	21.27
594.728	21.39
594.922	21.53
595.115	21.53
595.309	21.62
595.502	21.78
595.696	21.73
595.889	21.7
596.083	21.67
596.276	21.77
596.47	21.78
596.663	21.65
596.856	21.66
597.05	21.67
597.243	21.58
597.437	21.53
597.63	21.69
597.823	21.71
598.017	21.55
598.21	21.74
598.403	21.88
598.596	21.89
598.79	21.84
598.983	21.8
599.176	21.95
599.369	21.87
599.563	22.03
599.756	22.19
599.949	22.27
600.142	22.13
600.335	22.08
600.528	22.21
600.722	22.05
600.915	22.14
601.108	22.19
601.301	22.2
601.494	22.25
601.687	22.29
601.88	22.34
602.073	22.23
602.266	22.24
602.459	22.24
602.652	22.23
602.845	22.2
603.038	22.22
603.231	22.27
603.424	22.17
603.617	22.23
603.809	22.3
604.002	22.42
604.195	22.35
604.388	22.41
604.581	22.49
604.774	22.53
604.966	22.46
605.159	22.49
605.352	22.63
605.545	22.55
605.737	22.53
605.93	22.63
606.123	22.46
606.316	22.46
606.508	22.44
606.701	22.53
606.894	22.53
607.086	22.55
607.279	22.52
607.471	22.66
607.664	22.8
607.857	22.8
608.049	22.81
608.242	22.71
608.434	22.76
608.627	22.86
608.819	22.87
609.012	22.87
609.204	22.84
609.397	22.85
609.589	22.92
609.782	23.03
609.974	23.01
610.166	22.86
610.359	22.88
610.551	23.07
610.743	23.26
610.936	23.16
611.128	23.19
611.32	23.06
611.513	23.03
611.705	23.01
611.897	23.16
612.09	23.24
612.282	23.13
612.474	23.22
612.666	23.45
612.858	23.57
613.051	23.29
613.243	23.28
613.435	23.46
613.627	23.46
613.819	23.76
614.011	23.84
614.203	23.8
614.395	23.61
614.588	23.5
614.78	23.5
614.972	23.5
615.164	23.41
615.356	23.35
615.548	23.59
615.74	23.68
615.932	23.57
616.124	23.73
616.315	23.6
616.507	23.61
616.699	23.82
616.891	23.89
617.083	23.94
617.275	23.88
617.467	23.88
617.659	23.9
617.85	23.82
618.042	23.82
618.234	23.74
618.426	23.71
618.618	23.58
618.809	23.7
619.001	23.66
619.193	23.67
619.384	23.69
619.576	23.63
619.768	23.77
619.959	23.71
620.151	23.81
620.343	23.87
620.534	23.85
620.726	23.97
620.917	23.94
621.109	23.94
621.301	23.73
621.492	23.77
621.684	23.53
621.875	23.51
622.067	23.69
622.258	23.63
622.45	23.73
622.641	23.69
622.832	23.74
623.024	23.83
623.215	23.77
623.407	23.82
623.598	23.87
623.789	24.1
623.981	24.14
624.172	24.33
624.363	24.57
624.555	24.43
624.746	24.52
624.937	24.4
625.129	24.31
625.32	24.16
625.511	24.14
625.702	24.16
625.893	24.22
626.085	24.18
626.276	24.05
626.467	23.98
626.658	24.04
626.849	23.88
627.04	23.86
627.231	23.75
627.422	23.84
627.614	23.9
627.805	24
627.996	24.01
628.187	23.96
628.378	24.01
628.569	24.22
628.76	24.33
628.951	24.28
629.142	24.31
629.332	24.4
629.523	24.46
629.714	24.54
629.905	24.42
630.096	24.4
630.287	24.35
630.478	24.35
630.669	24.45
630.859	24.36
631.05	24.15
631.241	24.03
631.432	24.13
631.623	24.08
631.813	23.88
632.004	23.84
632.195	23.86
632.385	24.1
632.576	24.03
632.767	24.16
632.957	24.15
633.148	24.22
633.339	24.35
633.529	24.42
633.72	24.51
633.91	24.5
634.101	24.41
634.292	24.46
634.482	24.6
634.673	24.52
634.863	24.38
635.054	24.46
635.244	24.44
635.435	24.45
635.625	24.36
635.815	24.41
636.006	24.5
636.196	24.54
636.387	24.7
636.577	24.84
636.767	25.03
636.958	24.75
637.148	24.93
637.338	24.88
637.529	24.8
637.719	24.77
637.909	24.79
638.099	24.89
638.29	24.77
638.48	24.71
638.67	24.93
638.86	24.66
639.05	24.76
639.241	24.76
639.431	24.87
639.621	24.95
639.811	25.1
640.001	25.26
640.191	25.23
640.381	25.23
640.571	25.08
640.761	25.11
640.951	25.18
641.141	24.86
641.331	25.07
641.521	24.88
641.711	25.01
641.901	25.05
642.091	24.87
642.281	24.91
642.471	25.03
642.661	25.26
642.851	25.35
643.041	25.59
643.231	25.39
643.42	25.31
643.61	25.34
643.8	25.38
643.99	25.44
644.18	25.26
644.369	25.51
644.559	25.54
644.749	25.38
644.939	25.13
645.128	25.02
645.318	25.16
645.508	25.04
645.697	25.19
645.887	25.25
646.076	25.52
646.266	25.59
646.456	25.57
646.645	25.73
646.835	25.57
647.024	25.83
647.214	26.11
647.403	26.35
647.593	26.41
647.782	26.23
647.972	26.16
648.161	26.15
648.351	26.19
648.54	26.07
648.73	25.9
648.919	25.87
649.108	25.72
649.298	25.81
649.487	25.82
649.677	25.58
649.866	25.54
650.055	25.55
650.244	25.6
650.434	25.66
650.623	25.86
650.812	25.81
651.002	25.77
651.191	26.02
651.38	26.05
651.569	26.1
651.758	25.95
651.947	25.81
652.137	26
652.326	25.87
652.515	26.02
652.704	25.98
652.893	25.98
653.082	25.86
653.271	26.16
653.46	26.08
653.649	25.98
653.838	26.02
654.027	26.21
654.216	26.4
654.405	26.4
654.594	26.24
654.783	26.32
654.972	26.16
655.161	26.1
655.35	26.11
655.539	26.09
655.728	25.91
655.916	26.05
656.105	26.3
656.294	26.26
656.483	26.18
656.672	26.2
656.86	26.16
657.049	26.21
657.238	26.18
657.427	26.17
657.615	26.31
657.804	26.19
657.993	26.36
658.181	26.39
658.37	26.37
658.559	26.12
658.747	26.09
658.936	25.84
659.125	25.82
659.313	25.68
659.502	25.69
659.69	25.76
659.879	25.86
660.067	25.69
660.256	25.82
660.444	25.69
660.633	25.63
660.821	25.53
661.01	25.37
661.198	25.25
661.387	25.43
661.575	25.4
661.763	25.56
661.952	25.73
662.14	25.48
662.328	25.48
662.517	25.78
662.705	25.71
662.893	25.82
663.082	25.8
663.27	26.1
663.458	26.17
663.646	26.48
663.834	26.46
664.023	26.35
664.211	26.44
664.399	26.1
664.587	26.47
664.775	26.2
664.963	26.03
665.152	26.21
665.34	25.94
665.528	25.99
665.716	25.89
665.904	26.14
666.092	26.14
666.28	26.29
666.468	26.57
666.656	26.63
666.844	26.84
667.032	26.77
667.22	27.03
667.408	26.96
667.596	26.98
667.784	27.18
667.971	27.12
668.159	27.03
668.347	26.91
668.535	26.99
668.723	26.99
668.911	26.86
669.098	26.76
669.286	26.59
669.474	26.55
669.662	26.5
669.849	26.69
670.037	26.53
670.225	26.49
670.413	26.6
670.6	26.8
670.788	26.91
670.976	26.91
671.163	26.64
671.351	26.65
671.538	26.62
671.726	26.72
671.913	26.88
672.101	26.84
672.289	26.65
672.476	26.9
672.664	26.94
672.851	26.79
673.039	26.71
673.226	26.83
673.413	26.66
673.601	26.74
673.788	26.75
673.976	26.76
674.163	26.78
674.35	26.63
674.538	26.49
674.725	26.72
674.912	26.63
675.1	26.6
675.287	26.72
675.474	26.65
675.662	26.47
675.849	26.67
676.036	26.63
676.223	26.48
676.411	26.65
676.598	26.79
676.785	26.73
676.972	26.79
677.159	26.84
677.346	26.76
677.533	26.6
677.721	26.56
677.908	26.58
678.095	26.82
678.282	26.68
678.469	26.8
678.656	27.04
678.843	27.17
679.03	27.11
679.217	27.17
679.404	27.21
679.591	27.14
679.778	27.04
679.964	27.25
680.151	27.25
680.338	27.21
680.525	26.89
680.712	27.04
680.899	27.08
681.086	27.01
681.272	26.95
681.459	27
681.646	26.96
681.833	27.22
682.02	27.11
682.206	27.11
682.393	26.86
682.58	26.95
682.766	27.06
682.953	27.28
683.14	27.42
683.326	27.62
683.513	27.71
683.7	27.51
683.886	27.41
684.073	27.67
684.259	27.36
684.446	27.42
684.632	27.69
684.819	27.99
685.005	27.96
685.192	28
685.378	28.12
685.565	27.59
685.751	27.37
685.938	27.27
686.124	27.21
686.31	27.45
686.497	27.29
686.683	27.4
686.87	27.4
687.056	27.4
687.242	27.36
687.429	27.32
687.615	27.34
687.801	27.37
687.987	27.56
688.174	27.77
688.36	27.66
688.546	27.67
688.732	27.31
688.918	27.32
689.105	27.29
689.291	27.34
689.477	27.26
689.663	27.2
689.849	27.36
690.035	27.45
690.221	27.47
690.407	27.29
690.593	27.22
690.779	27.14
690.965	27.34
691.151	27.68
691.337	27.76
691.523	28.07
691.709	28.31
691.895	28.44
692.081	28.48
692.267	28.68
692.453	28.5
692.639	28.2
692.825	28.57
693.011	28.56
693.196	28.67
693.382	28.8
693.568	28.43
693.754	28.34
693.94	28.01
694.125	27.44
694.311	27.3
694.497	27.33
694.682	27.17
694.868	27.31
695.054	27.44
695.239	27.22
695.425	27.18
695.611	27.17
695.796	27.06
695.982	27.46
696.168	27.64
696.353	27.95
696.539	28.24
696.724	28.37
696.91	28.39
697.095	28.14
697.281	28.09
697.466	28.12
697.652	28.12
697.837	28.19
698.023	28.33
698.208	28.31
698.393	28.26
698.579	28.01
698.764	27.87
698.949	27.94
699.135	28.03
699.32	28.14
699.505	28.21
699.691	28.14
699.876	28.06
700.061	28.15
700.246	28.27
700.432	28.03
700.617	27.83
700.802	27.61
700.987	28.43
701.172	28.42
701.358	28.4
701.543	28.21
701.728	28.09
701.913	28.2
702.098	28.27
702.283	28.34
702.468	28.34
702.653	28.39
702.838	28.54
703.023	28.92
703.208	29.22
703.393	28.86
703.578	28.85
703.763	28.87
703.948	28.93
704.133	28.83
704.318	28.83
704.503	28.97
704.688	28.69
704.873	29.14
705.057	28.99
705.242	29.11
705.427	29.29
705.612	29.11
705.797	28.64
705.981	28.78
706.166	28.63
706.351	28.39
706.536	28.15
706.72	28.24
706.905	27.98
707.09	28.26
707.274	28
707.459	27.96
707.644	27.96
707.828	27.76
708.013	27.86
708.197	28.04
708.382	27.98
708.567	27.96
708.751	27.89
708.936	27.98
709.12	27.95
709.305	27.83
709.489	27.96
709.673	28.04
709.858	27.99
710.042	27.88
710.227	27.96
710.411	28.13
710.596	28.07
710.78	28.23
710.964	28.33
711.149	28.6
711.333	28.68
711.517	28.66
711.702	28.95
711.886	28.72
712.07	28.4
712.254	28.29
712.438	28.43
712.623	28.18
712.807	27.98
712.991	27.97
713.175	27.68
713.359	27.89
713.544	28.01
713.728	28.29
713.912	28.5
714.096	28.37
714.28	28.36
714.464	28.3
714.648	28.36
714.832	28.31
715.016	28.45
715.2	28.37
715.384	28.45
715.568	28.52
715.752	28.5
715.936	28.15
716.12	28.16
716.304	28.34
716.488	28.54
716.671	28.81
716.855	29.16
717.039	29.02
717.223	29.09
717.407	28.87
717.59	29.15
717.774	29.29
717.958	29.31
718.142	29.04
718.325	29.07
718.509	28.99
718.693	28.78
718.877	28.82
719.06	28.47
719.244	28.34
719.428	28.6
719.611	28.76
719.795	28.85
719.978	28.81
720.162	28.85
720.345	29
720.529	29.16
720.713	29.2
720.896	29.05
721.08	29.15
721.263	29.02
721.446	29.1
721.63	28.89
721.813	28.7
721.997	28.3
722.18	28.43
722.364	28.02
722.547	27.73
722.73	27.47
722.914	27.2
723.097	27.45
723.28	27.25
723.464	27.1
723.647	27.4
723.83	27.7
724.013	28.05
724.197	28.44
724.38	28.6
724.563	29.23
724.746	29.65
724.929	29.77
725.112	29.73
725.296	30.24
725.479	30.44
725.662	30.78
725.845	30.73
726.028	30.27
726.211	30.39
726.394	30.22
726.577	30.02
726.76	30.31
726.943	29.71
727.126	29.6
727.309	29.79
727.492	29.82
727.675	29.73
727.858	29.51
728.041	29.3
728.224	29.1
728.407	29.4
728.589	29.31
728.772	29.46
728.955	29.62
729.138	29.69
729.321	30.17
729.503	30.2
729.686	29.86
729.869	29.84
730.052	29.68
730.234	29.61
730.417	29.55
730.6	29.46
730.782	29.43
730.965	29.66
731.148	29.54
731.33	29.23
731.513	28.92
731.695	28.66
731.878	28.41
732.061	28.62
732.243	29.11
732.426	28.95
732.608	29.07
732.791	29.23
732.973	29.75
733.156	29.8
733.338	29.22
733.52	29.11
733.703	29.5
733.885	29.57
734.068	29.27
734.25	29.4
734.432	29.36
734.615	29.2
734.797	29.38
734.979	29.28
735.162	29.3
735.344	29.08
735.526	29.35
735.708	29.86
735.891	29.52
736.073	28.87
736.255	28.69
736.437	28.74
736.619	28.73
736.802	28.4
736.984	27.98
737.166	27.9
737.348	27.92
737.53	28.02
737.712	27.95
737.894	27.55
738.076	27.09
738.258	27.9
738.44	28.51
738.622	28.48
738.804	28.57
738.986	28.35
739.168	28.77
739.35	29.21
739.532	29.79
739.714	29.94
739.896	29.88
740.078	30.01
740.259	30.07
740.441	30.56
740.623	29.91
740.805	29.92
740.987	30.06
741.168	30.33
741.35	30.74
741.532	30.24
741.714	30.05
741.895	29.7
742.077	29.73
742.259	29.82
742.44	29.44
742.622	29.67
742.804	28.89
742.985	29.34
743.167	28.76
743.348	29.09
743.53	28.8
743.711	29.4
743.893	29.65
744.075	29.57
744.256	29.2
744.438	28.87
744.619	28.92
744.8	29.18
744.982	29
745.163	29.77
745.345	29.44
745.526	30.26
745.707	30.35
745.889	30.93
746.07	30.35
746.252	30.32
746.433	29.83
746.614	29.81
746.795	29.99
746.977	30.3
747.158	30.49
747.339	30.06
747.52	29.37
747.702	29.81
747.883	30
748.064	29.88
748.245	29.62
748.426	29.44
748.607	29.44
748.788	29.92
748.97	29.94
749.151	30.1
749.332	29.99
749.513	29.29
749.694	29.3
749.875	29.69
750.056	29.43
750.237	29.26
750.418	28.45
750.599	28.36
750.78	28.16
750.96	28.41
751.141	28.23
751.322	28.79
751.503	28.47
751.684	27.69
751.865	27.8
752.046	28.03
752.226	28.28
752.407	28.19
752.588	28.05
752.769	28.81
752.949	29.25
753.13	29.45
753.311	29.66
753.492	29.47
753.672	29.25
753.853	29.24
754.034	29.56
754.214	29.72
754.395	29.62
754.575	29.02
754.756	29.48
754.937	29.64
755.117	30.25
755.298	30.1
755.478	29.5
755.659	28.99
755.839	29.49
756.02	29.47
756.2	29.61
756.381	29.99
756.561	30.34
756.741	30.9
756.922	31.28
757.102	31.56
757.283	31.08
757.463	30.4
757.643	30.98
757.823	31.72
758.004	32.24
758.184	32.44
758.364	32.46
758.545	32.42
758.725	32.31
758.905	32.22
759.085	31.85
759.265	31.93
759.446	31.34
759.626	31.49
759.806	31.38
759.986	30.33
760.166	30.37
760.346	30.29
760.526	30.33
760.706	30.15
760.886	30.09
761.066	29.79
761.246	29.48
761.426	29.18
761.606	29.07
761.786	28.9
761.966	28.53
762.146	28.62
762.326	29.15
762.506	28.96
762.686	29
762.866	28.59
763.046	28.55
763.225	28.89
763.405	28.83
763.585	29.05
763.765	29.51
763.945	29.44
764.124	29.78
764.304	30.23
764.484	30.29
764.664	29.85
764.843	30.03
765.023	29.74
765.203	29.64
765.382	29.74
765.562	29.59
765.741	29.96
765.921	29.87
766.101	29.78
766.28	30.4
766.46	30.62
766.639	30.41
766.819	30.58
766.998	30.64
767.178	31.2
767.357	31.82
767.537	32.39
767.716	32.24
767.896	32.3
768.075	31.87
768.254	32.25
768.434	32.48
768.613	31.89
768.792	31.39
768.972	31.25
769.151	30.75
769.33	31.59
769.51	31.32
769.689	30.96
769.868	31.51
770.047	31.66
770.226	31.66
770.406	32.28
770.585	31.8
770.764	30.93
770.943	31.07
771.122	31.92
771.301	32.05
771.48	32.18
771.66	31.2
771.839	30.9
772.018	31.29
772.197	30.54
772.376	30.15
772.555	29.99
772.734	29.35
772.913	29.46
773.092	29.68
773.271	29.96
773.449	29.58
773.628	29.81
773.807	30.45
773.986	30.64
774.165	30.84
774.344	30.18
774.523	30.07
774.701	30.52
774.88	30.24
775.059	30.17
775.238	30.63
775.417	31.68
775.595	31.56
775.774	31.57
775.953	31.57
776.131	30.87
776.31	31.08
776.489	31.15
776.667	31.16
776.846	31.13
777.025	31.22
777.203	31.43
777.382	31.68
777.56	31.18
777.739	30.74
777.917	30.95
778.096	30.58
778.274	31.36
778.453	31.79
778.631	30.85
778.81	31.42
778.988	31.48
779.166	31.58
779.345	31.76
779.523	32.07
779.702	31.63
779.88	31.32
780.058	30.79
780.237	30.75
780.415	31.1
780.593	29.68
780.771	31.01
780.95	31.95
781.128	30.82
781.306	31.76
781.484	31.66
781.662	31.82
781.841	31.24
782.019	31.59
782.197	31.76
782.375	31.85
782.553	31.16
782.731	30.58
782.909	32.09
783.087	31.65
783.265	32.52
783.443	32.67
783.621	32.41
783.799	32.59
783.977	32.33
784.155	33.14
784.333	32.94
784.511	33.13
784.689	33.79
784.867	33.93
785.045	34.34
785.223	33.45
785.4	32.7
785.578	31.42
785.756	31.03
785.934	30.61
786.112	30.6
786.289	30.12
786.467	29.3
786.645	29.57
786.823	30.38
787	29.75
787.178	29.35
787.356	29.51
787.533	29.4
787.711	28.87
787.889	29.61
788.066	30.11
788.244	29.72
788.421	29.68
788.599	29.84
788.776	30.57
788.954	30.81
789.131	30.37
789.309	31.41
789.486	32.28
789.664	32.09
789.841	31.43
790.019	31.98
790.196	31.14
790.373	31.83
790.551	32.24
790.728	32.49
790.906	32.75
791.083	32.41
791.26	32.32
791.437	31.81
791.615	30.69
791.792	30.49
791.969	30.39
792.146	31.67
792.324	31.9
792.501	32.47
792.678	31.56
792.855	31.09
793.032	31.2
793.209	31.66
793.387	31.57
793.564	31.89
793.741	32.94
793.918	33.05
794.095	33.11
794.272	33.94
794.449	34.74
794.626	34.18
794.803	35.06
794.98	35.32
795.157	36.48
795.334	36.73
795.511	36.32
795.688	35.8
795.864	35.76
796.041	34.68
796.218	34.02
796.395	34.36
796.572	33.81
796.749	32.31
796.925	33.42
797.102	32.62
797.279	32.29
797.456	31.53
797.632	30.65
797.809	31.12
797.986	31.41
798.162	31.75
798.339	31.71
798.516	32.34
798.692	32.16
798.869	32.51
799.046	33.54
799.222	32.35
799.399	33.15
799.575	33.48
799.752	34.32
799.928	35.37
800.105	35.28
800.281	35.78
800.458	35.18
800.634	35.76
800.811	35.7
800.987	36.02
801.163	36.14
801.34	35.03
801.516	35.27
801.692	34.31
801.869	34.51
802.045	33.83
802.221	33.32
802.398	33.37
802.574	33.92
802.75	34.14
802.926	34.67
803.103	34.83
803.279	33.66
803.455	34.36
803.631	34.77
803.807	35.34
803.983	35.05
804.16	34.83
804.336	34.41
804.512	35.1
804.688	34.28
804.864	33.24
805.04	34.37
805.216	34.31
805.392	34.17
805.568	34.7
805.744	33.1
805.92	32.79
806.096	33.07
806.272	33.89
806.448	33.86
806.623	33.83
806.799	32.46
806.975	33.8
807.151	34.11
807.327	32.39
807.503	31.84
807.678	33.15
807.854	32.8
808.03	33.5
808.206	33.54
808.381	33.04
808.557	32.23
808.733	31.93
808.908	32.91
809.084	33.63
809.26	31.81
809.435	31.79
809.611	32.53
809.787	33.35
809.962	32.89
810.138	33.97
810.313	33.93
810.489	34.72
810.664	33.92
810.84	34.29
811.015	35.48
811.191	35.66
811.366	36.15
811.542	35.07
811.717	36.62
811.892	37.29
812.068	36.41
812.243	36.31
812.419	35.67
812.594	35.37
812.769	34.94
812.944	34.8
813.12	34.22
813.295	33.27
813.47	33.38
813.645	33.17
813.821	35.68
813.996	34.86
814.171	35.21
814.346	36.04
814.521	36.13
814.697	35.96
814.872	36.15
815.047	36.89
815.222	37.08
815.397	38.17
815.572	39.15
815.747	39.02
815.922	39.22
816.097	38.11
816.272	38.41
816.447	37.38
816.622	36.45
816.797	36.16
816.972	36.15
817.147	36.43
817.322	35.01
817.496	34.89
817.671	34.01
817.846	33.47
818.021	32.44
818.196	32.03
818.371	32.9
818.545	32.38
818.72	33.06
818.895	32.23
819.069	31.94
819.244	31.44
819.419	30.51
819.594	30.95
819.768	30.9
819.943	30.38
820.117	30.13
820.292	29.98
820.467	29.94
820.641	29.57
820.816	29.55
820.99	29.42
821.165	29.69
821.339	29.83
821.514	30.19
821.688	30.27
821.863	30.13
822.037	30.2
822.212	30.55
822.386	30.28
822.56	30.43
822.735	30.42
822.909	30.51
823.084	30.5
823.258	30.39
823.432	30.33
823.606	30.28
823.781	30.05
823.955	29.96
824.129	30.13
824.303	30.11
824.478	29.66
824.652	29.59
824.826	29.37
825	29.25
825.174	29.26
825.348	28.8
825.523	29.01
825.697	29.22
825.871	29.06
826.045	29.63
826.219	29.62
826.393	29.35
826.567	29.32
826.741	29.18
826.915	29.59
827.089	29.62
827.263	29.99
827.437	29.77
827.611	30.44
827.784	30.09
827.958	29.59
828.132	29.82
828.306	28.94
828.48	29.23
828.654	29.1
828.827	29.44
829.001	29.89
829.175	30.14
829.349	30.01
829.522	29.77
829.696	30.21
829.87	29.86
830.044	30.35
830.217	31.71
830.391	31.83
830.565	32.34
830.738	32.85
830.912	33.24
831.085	32.79
831.259	33.02
831.432	33.46
831.606	33.32
831.779	34
831.953	33.76
832.126	33.81
832.3	34.02
832.473	33.22
832.647	32.73
832.82	32.95
832.994	32.35
833.167	32.8
833.34	32.97
833.514	32.51
833.687	32.15
833.86	32.53
834.034	31.72
834.207	31.68
834.38	31.81
834.553	31.61
834.727	31.29
834.9	31.57
835.073	32.41
835.246	32.77
835.419	32.31
835.593	32.12
835.766	33.26
835.939	33
836.112	33.66
836.285	34.56
836.458	35.33
836.631	36.09
836.804	36.18
836.977	36.39
837.15	36.08
837.323	34.82
837.496	34.16
837.669	35.26
837.842	36.35
838.015	35.74
838.188	36.79
838.361	36.21
838.533	35.17
838.706	34.24
838.879	32.54
839.052	32.29
839.225	33.96
839.398	34.77
839.57	35.61
839.743	35.53
839.916	35.22
840.088	32.66
840.261	32.75
840.434	32.6
840.607	33.2
840.779	33.17
840.952	34.27
841.124	34.65
841.297	33.7
841.47	34.63
841.642	34.75
841.815	33.67
841.987	34.05
842.16	34.44
842.332	36.85
842.505	36.48
842.677	37.45
842.85	38.53
843.022	39.42
843.194	40.2
843.367	40.98
843.539	44.57
843.712	43.27
843.884	41.01
844.056	40.96
844.229	41.53
844.401	38.99
844.573	38.74
844.745	39.83
844.918	37.33
845.09	35.21
845.262	36.15
845.434	30.84
845.606	33.5
845.779	29.99
845.951	33.97
846.123	36.28
846.295	37.31
846.467	37.33
846.639	41.78
846.811	41.42
846.983	42.38
847.155	43.69
847.327	42.35
847.499	41.85
847.671	45.69
847.843	43.74
848.015	43.71
848.187	43.52
848.359	43.95
848.531	41.98
848.703	40.39
848.875	36.36
849.047	34.63
849.218	35.01
849.39	32.66
849.562	32.1
849.734	34.49
849.905	33.54
850.077	29.49
850.249	30.06
850.421	25.78
850.592	25.48
850.764	28.03
850.936	29.83
851.107	30.58
851.279	34.72
851.451	29.63
851.622	32.32
851.794	36.99
851.965	32.41
852.137	31.48
852.308	32.1
852.48	30.91
852.651	31.71
852.823	30.94
852.994	28.96
853.166	29.06
853.337	29.78
853.509	25.87
853.68	30.67
853.851	31.82
854.023	27.34
854.194	27.96
854.365	30.17
854.537	32.39
854.708	36.35
854.879	34.89
855.05	35.47
855.222	37.7
855.393	37.46
855.564	41.99
855.735	43.83
855.906	40.63
856.078	40.73
856.249	42.85
856.42	47.8
856.591	49.32
856.762	47.86
856.933	47.29
857.104	50.87
857.275	53.77
857.446	52.07
857.617	53.62
857.788	51.51
857.959	50.62
858.13	55.44
858.301	57.48
858.472	57.49
858.643	53.49
858.814	49.34
858.985	51.82
859.155	51.52
859.326	47.95
859.497	47.7
859.668	49.91
859.839	46.63
860.009	47.88
860.18	49.7
860.351	45.75
860.522	42.79
860.692	43.35
860.863	46.32
861.034	48.06
861.204	44.07
861.375	41.54
861.546	42.46
861.716	43.06
861.887	43.76
862.057	44.5
862.228	42.6
862.398	39.88
862.569	37.77
862.739	36.04
862.91	31.37
863.08	29.9
863.251	30.21
863.421	32.98
863.592	38.95
863.762	37.45
863.932	37.15
864.103	38.29
864.273	43.29
864.443	42.95
864.614	40.13
864.784	42.32
864.954	43.44
865.125	48.17
865.295	45.21
865.465	45.89
865.635	47.93
865.805	44.54
865.976	46.49
866.146	44.55
866.316	42.94
866.486	40.94
866.656	38.81
866.826	45.51
866.996	50
867.166	44.58
867.336	43.13
867.506	43.03
867.676	40.26
867.846	36.66
868.016	38.63
868.186	34.44
868.356	32.16
868.526	31.14
868.696	29.58
868.866	30.08
869.036	28.48
869.206	25.53
869.376	31.79
869.545	35.71
869.715	39.21
869.885	41.16
870.055	43.49
870.224	42.28
870.394	48.27
870.564	50.3
870.734	48.63
870.903	49.5
871.073	54.2
871.243	56.7
871.412	55.57
871.582	53.36
871.751	47.96
871.921	44.13
872.091	43.02
872.26	44.67
872.43	44.23
872.599	43.89
872.769	46.75
872.938	53.31
873.108	52.61
873.277	46.67
873.446	45.2
873.616	49.02
873.785	50.67
873.955	51.36
874.124	52.55
874.293	60.05
874.463	55.34
874.632	54.78
874.801	52.11
874.971	49.96
875.14	41.17
875.309	44.63
875.478	51.24
875.647	52.83
875.817	54.07
875.986	54.85
876.155	59.85
876.324	63.86
876.493	59.15
876.662	56.68
876.831	56.93
877	58
877.17	55.89
877.339	57.12
877.508	53.34
877.677	53.44
877.846	54.09
878.015	47.79
878.184	44.64
878.352	41.16
878.521	38.96
878.69	39.15
878.859	41.64
879.028	39.84
879.197	36.83
879.366	38.89
879.534	38.41
879.703	38.67
879.872	35.24
880.041	33.72
880.21	34.01
880.378	34.68
880.547	35.78
880.716	35.35
880.884	34.81
881.053	34.54
881.222	35.14
881.39	35.05
881.559	33.84
881.727	33.89
881.896	33.93
882.065	34.08
882.233	33.75
882.402	33.42
882.57	32.48
882.739	32.21
882.907	32.17
883.076	31.62
883.244	31.92
883.412	32.28
883.581	32.9
883.749	33.51
883.918	32.79
884.086	31.89
884.254	32.87
884.423	32.76
884.591	33
884.759	34.03
884.927	33.76
885.096	34.77
885.264	37.34
885.432	36.75
885.6	35.12
885.769	34.96
885.937	35.49
886.105	38.88
886.273	40.53
886.441	40.54
886.609	40.46
886.777	43.03
886.945	42.99
887.113	43.11
887.281	40.15
887.449	36.33
887.617	39.17
887.785	42.36
887.953	42.49
888.121	41.53
888.289	41.27
888.457	42.46
888.625	40.04
888.793	41.15
888.961	37.69
889.129	39.56
889.296	39.39
889.464	41.81
889.632	42.81
889.8	40.89
889.967	37.19
890.135	37.99
