Data from 2938551_Reflection_2.txt Node
Date: Sun Jun 14 23:58:45 EDT 2015
User: robert
Spectrometer: USB4E03002
Autoset integration time: false
Trigger mode: 4
Integration Time (sec): 1.000000E-1
Scans to average: 10
Electric dark correction enabled: true
Nonlinearity correction enabled: false
Boxcar width: 5
Stray light correction enabled: false
XAxis mode: Wavelengths
Stop averaging: false
Number of Pixels in Spectrum: 3648
>>>>>Begin Spectral Data<<<<<
177.575	24.27
177.794	4.63
178.014	16.15
178.233	41.74
178.452	56.7
178.672	70.31
178.891	81.18
179.11	-47.11
179.33	-185.23
179.549	9.61
179.768	34.96
179.987	-1.96
180.207	2.14
180.426	-52.07
180.645	23.04
180.864	53.9
181.084	52.67
181.303	-124.45
181.522	155
181.741	201.2
181.96	-1017.71
182.179	10.7
182.398	-121.01
182.618	-38.6
182.837	875.34
183.056	268.75
183.275	215.36
183.494	-984.51
183.713	490.07
183.932	-239.55
184.151	-125.67
184.37	-63.81
184.589	-243.71
184.808	-211.53
185.027	-113.97
185.246	-109.15
185.465	-91.11
185.684	-115.73
185.903	-76.84
186.122	-99.47
186.341	-574.86
186.56	-615.64
186.779	473.99
186.998	354.02
187.216	307.69
187.435	313.29
187.654	243.19
187.873	244
188.092	233.75
188.311	179.67
188.53	165.03
188.748	200.48
188.967	170.79
189.186	166.65
189.405	134.76
189.623	149.62
189.842	122.48
190.061	164.65
190.28	213.78
190.498	177.36
190.717	188
190.936	573.24
191.154	330.05
191.373	3220.83
191.592	482.8
191.81	-127.52
192.029	-67.49
192.248	-50.54
192.466	-3.55
192.685	19.11
192.904	18.74
193.122	33.97
193.341	18.96
193.559	0.31
193.778	-81.55
193.996	-56.73
194.215	-219.12
194.433	-199.32
194.652	-86.15
194.87	-220.72
195.089	2656.21
195.307	285.12
195.526	1077.83
195.744	7734.59
195.963	-1022.41
196.181	-3045.85
196.399	-1528.1
196.618	-1868.73
196.836	-3364.8
197.055	-427.02
197.273	-611.44
197.491	-92.83
197.71	41.32
197.928	17.47
198.146	49.16
198.365	-52.2
198.583	-131.23
198.801	74.71
199.019	168.37
199.238	193.1
199.456	40.88
199.674	250.43
199.892	396.17
200.111	141.41
200.329	148.22
200.547	186.33
200.765	60.67
200.983	146.05
201.202	367.11
201.42	187.5
201.638	90.39
201.856	-67.42
202.074	-33.45
202.292	72.61
202.51	161.72
202.728	220.76
202.946	-987.02
203.165	-502.01
203.383	-196.92
203.601	-189.8
203.819	-195.27
204.037	-116.19
204.255	-178.23
204.473	-175.09
204.691	-97.3
204.909	-47.05
205.127	-83.78
205.345	-172.58
205.562	-188.14
205.78	-375.61
205.998	-610.8
206.216	-677.93
206.434	-10259.84
206.652	1010.18
206.87	1146.74
207.088	1890.54
207.306	420.66
207.523	292.07
207.741	448.7
207.959	477.51
208.177	5507.98
208.395	936.33
208.612	675.18
208.83	-1325.2
209.048	-334.3
209.266	-227.55
209.483	-117.85
209.701	-18.88
209.919	-6.61
210.136	4.76
210.354	-36.63
210.572	-24.9
210.79	-36.02
211.007	-16.33
211.225	-10.28
211.442	-50.55
211.66	-102.33
211.878	-111.63
212.095	-92.61
212.313	-64.56
212.53	-51.42
212.748	-3.93
212.966	-27.42
213.183	-2.41
213.401	-23.66
213.618	-38.45
213.836	-32.13
214.053	-10.38
214.271	-36.57
214.488	-43.59
214.705	-52.86
214.923	-59.93
215.14	-63.98
215.358	-16.02
215.575	-29.86
215.793	20.93
216.01	27.94
216.227	52.22
216.445	3.88
216.662	19.01
216.879	23.94
217.097	25.52
217.314	14.21
217.531	9.74
217.749	6.62
217.966	17.73
218.183	-8.73
218.4	-13.1
218.618	-26.01
218.835	-11.53
219.052	-14.98
219.269	-21.05
219.487	-21.04
219.704	-28.17
219.921	-31.88
220.138	-44.06
220.355	-53.74
220.572	-63.77
220.79	-47.31
221.007	-50.52
221.224	-69.33
221.441	-48.61
221.658	-26.23
221.875	-29.68
222.092	-13.3
222.309	-17.18
222.526	-10.23
222.743	-22.9
222.96	-14.54
223.177	-22.81
223.394	-16.91
223.611	-10.42
223.828	-13.7
224.045	-18.2
224.262	-22.18
224.479	-25.4
224.696	-17.42
224.913	-12.48
225.13	-8.97
225.347	-5.8
225.564	-3.03
225.781	-0.49
225.997	-0.77
226.214	1.18
226.431	0.89
226.648	3.19
226.865	5.52
227.082	4.87
227.298	5.3
227.515	6.99
227.732	6.83
227.949	6.99
228.165	6.27
228.382	7.26
228.599	6.77
228.816	6.51
229.032	6.09
229.249	4.76
229.466	5.62
229.682	5.99
229.899	5.45
230.116	5.73
230.332	5.86
230.549	6.08
230.765	3.62
230.982	4.54
231.199	4.3
231.415	5.56
231.632	6.22
231.848	6.08
232.065	5.61
232.281	6.22
232.498	5.82
232.714	2.56
232.931	2.94
233.147	5.53
233.364	6.21
233.58	5.58
233.797	5.67
234.013	6.18
234.23	6.13
234.446	3.52
234.662	5.29
234.879	4.11
235.095	6.89
235.312	7.55
235.528	9.18
235.744	9.63
235.961	11.21
236.177	12.33
236.393	11.09
236.61	11.81
236.826	11.59
237.042	9.33
237.258	10.53
237.475	8.07
237.691	8.95
237.907	6.39
238.123	6.48
238.339	6.54
238.556	4.98
238.772	3.9
238.988	4.35
239.204	3.75
239.42	4.09
239.636	3.77
239.853	5.83
240.069	5
240.285	5.97
240.501	5.89
240.717	5.83
240.933	6.4
241.149	7.17
241.365	6.84
241.581	7.61
241.797	7.94
242.013	7.9
242.229	7.46
242.445	7.95
242.661	8.07
242.877	7.66
243.093	7.8
243.309	8.51
243.525	8.23
243.741	8.59
243.957	8.76
244.173	7.83
244.388	8.8
244.604	8.71
244.82	8.83
245.036	8.55
245.252	8.64
245.468	8.73
245.683	8.34
245.899	8.17
246.115	7.9
246.331	7.7
246.547	7.71
246.762	7.3
246.978	7.17
247.194	6.95
247.409	6.41
247.625	6.38
247.841	6.07
248.057	6.06
248.272	6.47
248.488	6.4
248.703	6.22
248.919	7.01
249.135	6.75
249.35	6.86
249.566	7.16
249.782	7.94
249.997	7.18
250.213	6.62
250.428	6.58
250.644	6.48
250.859	5.57
251.075	5.66
251.29	5.14
251.506	4.68
251.721	4.2
251.937	3.79
252.152	3.81
252.368	4.26
252.583	4.29
252.798	3.33
253.014	2.84
253.229	3.63
253.445	3.43
253.66	4.08
253.875	5.31
254.091	6.53
254.306	5.95
254.521	5.02
254.737	5.77
254.952	6.19
255.167	6.55
255.383	7.27
255.598	6.2
255.813	5.28
256.028	5
256.244	4.53
256.459	4.46
256.674	4.18
256.889	4.56
257.104	4.47
257.32	5.2
257.535	5.27
257.75	5.3
257.965	5.59
258.18	6.04
258.395	5.95
258.61	6.03
258.826	5.9
259.041	6.2
259.256	6.23
259.471	6.43
259.686	6.05
259.901	6.08
260.116	5.99
260.331	6.39
260.546	6.43
260.761	6.69
260.976	6.86
261.191	6.59
261.406	6.29
261.621	5.89
261.836	5.15
262.05	5.98
262.265	6.35
262.48	6.06
262.695	5.72
262.91	5.83
263.125	5.46
263.34	4.89
263.555	5.2
263.769	5.83
263.984	5.64
264.199	6.15
264.414	5.42
264.629	5.22
264.843	5.69
265.058	5.97
265.273	5.48
265.488	5.41
265.702	5.6
265.917	6.06
266.132	5.65
266.346	5.76
266.561	4.87
266.776	4.91
266.99	4.62
267.205	4.61
267.42	4.48
267.634	5.02
267.849	5.35
268.063	5.31
268.278	4.81
268.492	4.81
268.707	5.13
268.922	5.84
269.136	5.81
269.351	5.81
269.565	5.15
269.78	5.4
269.994	5.12
270.209	4.79
270.423	5.16
270.637	4.93
270.852	5.07
271.066	4.71
271.281	4.4
271.495	4.26
271.709	4.33
271.924	4.6
272.138	4.23
272.353	4
272.567	4.35
272.781	4.22
272.996	4.22
273.21	4.07
273.424	4.42
273.638	5.29
273.853	5.37
274.067	5.21
274.281	4.88
274.495	4.89
274.71	5.57
274.924	4.91
275.138	4.76
275.352	4.36
275.566	4.21
275.781	4.07
275.995	3.38
276.209	2.96
276.423	3.54
276.637	4.08
276.851	4.13
277.065	3.91
277.279	4.48
277.493	4.77
277.707	5.36
277.921	5.42
278.135	5.5
278.349	5.32
278.563	5.12
278.777	4.81
278.991	4.37
279.205	3.99
279.419	3.86
279.633	4.18
279.847	4.13
280.061	4.2
280.275	4.39
280.489	4.33
280.703	4.51
280.917	5.11
281.131	4.87
281.344	5.14
281.558	5.32
281.772	5.2
281.986	5.07
282.2	5.07
282.414	5.26
282.627	5.23
282.841	5.79
283.055	5.84
283.269	5.53
283.482	5.53
283.696	5.46
283.91	5.54
284.123	5.92
284.337	5.78
284.551	5.63
284.764	5.6
284.978	5.61
285.192	5.06
285.405	4.75
285.619	4.8
285.833	4.59
286.046	4.43
286.26	4.79
286.473	4.26
286.687	4.08
286.9	4.15
287.114	4.16
287.327	4.55
287.541	4.68
287.754	4.84
287.968	5.09
288.181	5.51
288.395	5.39
288.608	5.17
288.822	5.29
289.035	4.93
289.248	5.05
289.462	4.78
289.675	4.61
289.889	4.78
290.102	4.68
290.315	4.51
290.529	4.35
290.742	4.98
290.955	4.68
291.169	4.37
291.382	4.89
291.595	4.71
291.808	4.88
292.022	5.29
292.235	4.73
292.448	5.1
292.661	5.02
292.875	5.03
293.088	4.77
293.301	4.6
293.514	5.2
293.727	5.24
293.94	5.12
294.153	5.12
294.367	4.53
294.58	4.81
294.793	4.41
295.006	4.53
295.219	4.37
295.432	4.34
295.645	4.81
295.858	4.68
296.071	4.65
296.284	4.44
296.497	4.24
296.71	4.09
296.923	4.32
297.136	4.31
297.349	4.02
297.562	4.08
297.775	3.88
297.988	3.66
298.201	3.38
298.414	3.23
298.626	3.46
298.839	3.87
299.052	4.03
299.265	3.74
299.478	4.15
299.691	4.17
299.903	4.69
300.116	5.14
300.329	4.98
300.542	5.28
300.755	5.27
300.967	5.58
301.18	4.96
301.393	4.97
301.605	4.8
301.818	4.56
302.031	4.75
302.243	4.44
302.456	4.13
302.669	4.14
302.881	4.13
303.094	4.37
303.307	4.17
303.519	4.82
303.732	4.93
303.944	5.22
304.157	5.38
304.37	5.14
304.582	4.9
304.795	5.15
305.007	5.28
305.22	5.18
305.432	5.39
305.645	5.47
305.857	5.49
306.069	5.36
306.282	5.34
306.494	5.41
306.707	5.7
306.919	6.14
307.132	5.55
307.344	5.61
307.556	5.88
307.769	5.57
307.981	5.53
308.193	5.54
308.406	5.76
308.618	5.49
308.83	5.25
309.043	5.31
309.255	4.95
309.467	4.98
309.679	5
309.892	4.7
310.104	5.03
310.316	4.84
310.528	4.61
310.74	4.42
310.953	4.58
311.165	4.44
311.377	4.65
311.589	4.96
311.801	5.23
312.013	4.92
312.225	5.17
312.437	4.68
312.649	4.66
312.862	5.1
313.074	5.39
313.286	5.5
313.498	5.78
313.71	5.17
313.922	4.94
314.134	4.96
314.346	5.18
314.558	5.16
314.77	5.4
314.982	5.89
315.193	5.23
315.405	5.1
315.617	5.18
315.829	5.31
316.041	5.44
316.253	5.26
316.465	5.22
316.677	5.28
316.888	4.99
317.1	4.77
317.312	4.23
317.524	4.45
317.736	4.01
317.947	3.96
318.159	3.53
318.371	3.48
318.583	3.68
318.794	3.8
319.006	3.2
319.218	3.41
319.43	3.49
319.641	3.78
319.853	3.97
320.064	4.19
320.276	3.72
320.488	4.05
320.699	4.38
320.911	4.32
321.123	4.18
321.334	4.49
321.546	4.82
321.757	4.79
321.969	4.91
322.18	4.36
322.392	4.38
322.603	4.85
322.815	5.03
323.026	4.91
323.238	4.9
323.449	5.09
323.661	5.25
323.872	4.71
324.083	5.17
324.295	4.95
324.506	5.54
324.718	5.93
324.929	5.8
325.14	5.72
325.352	5.87
325.563	6.08
325.774	5.92
325.986	5.82
326.197	6.22
326.408	6.22
326.62	6.27
326.831	6.12
327.042	5.69
327.253	5.67
327.464	5.61
327.676	5.44
327.887	5.17
328.098	5.18
328.309	4.93
328.52	4.17
328.732	4.06
328.943	3.79
329.154	3.54
329.365	3.82
329.576	3.35
329.787	3.85
329.998	4.04
330.209	4.18
330.42	4.28
330.631	4.31
330.842	4.73
331.053	4.44
331.264	4.78
331.475	5.1
331.686	5.13
331.897	5.58
332.108	4.73
332.319	5.03
332.53	5.09
332.741	5.21
332.952	5.59
333.163	5.57
333.374	5.89
333.585	5.63
333.795	5.14
334.006	5.19
334.217	5.57
334.428	6.08
334.639	5.62
334.849	5.27
335.06	5.11
335.271	5.24
335.482	5.47
335.692	4.94
335.903	4.72
336.114	5.07
336.325	5.33
336.535	5.13
336.746	4.86
336.957	4.96
337.167	5.54
337.378	5.54
337.589	5.12
337.799	4.74
338.01	5.24
338.22	5.69
338.431	5.61
338.642	4.79
338.852	4.63
339.063	4.51
339.273	4.4
339.484	4.05
339.694	4.28
339.905	4.4
340.115	4.78
340.326	5.14
340.536	5.11
340.746	5.04
340.957	5.58
341.167	5.42
341.378	5.78
341.588	5.67
341.799	6.03
342.009	5.91
342.219	6.05
342.43	6.08
342.64	5.4
342.85	5.22
343.061	5.18
343.271	4.82
343.481	4.89
343.691	4.91
343.902	5.26
344.112	5.23
344.322	5.27
344.532	5.1
344.743	5.1
344.953	5.52
345.163	5.41
345.373	5.84
345.583	5.86
345.793	5.88
346.004	5.68
346.214	5.45
346.424	5.28
346.634	5.29
346.844	5.59
347.054	5.64
347.264	5.04
347.474	5.24
347.684	5.08
347.894	5.3
348.104	5.27
348.314	5.06
348.524	4.96
348.734	4.8
348.944	4.7
349.154	4.66
349.364	4.32
349.574	4.78
349.784	4.98
349.994	4.61
350.204	4.5
350.413	4.44
350.623	4.45
350.833	4.55
351.043	4.5
351.253	4.3
351.463	3.93
351.672	4.11
351.882	4.09
352.092	3.99
352.302	3.94
352.511	3.47
352.721	3.58
352.931	4.02
353.141	3.77
353.35	3.66
353.56	4.14
353.77	4.43
353.979	4.18
354.189	4.08
354.399	4.21
354.608	4.31
354.818	4.52
355.027	4.34
355.237	4.1
355.447	4.15
355.656	4.49
355.866	4.15
356.075	4.14
356.285	4.27
356.494	4.16
356.704	3.82
356.913	3.7
357.123	3.94
357.332	4.08
357.542	4.07
357.751	4.08
357.96	3.98
358.17	4.1
358.379	3.79
358.589	3.89
358.798	3.87
359.007	3.82
359.217	4.23
359.426	4.12
359.635	4.28
359.845	4.3
360.054	4.44
360.263	4.5
360.472	4.38
360.682	4.57
360.891	4.64
361.1	4.68
361.309	4.96
361.519	4.59
361.728	4.69
361.937	4.4
362.146	4.5
362.355	4.41
362.564	4.02
362.774	4.16
362.983	4.23
363.192	4
363.401	3.96
363.61	3.73
363.819	3.81
364.028	3.86
364.237	4.05
364.446	3.71
364.655	3.83
364.864	4.02
365.073	3.71
365.282	3.58
365.491	3.51
365.7	3.49
365.909	3.61
366.118	3.56
366.327	3.58
366.536	3.53
366.745	3.75
366.954	3.36
367.162	3.37
367.371	3.96
367.58	3.85
367.789	3.99
367.998	3.86
368.207	3.62
368.415	3.58
368.624	3.59
368.833	3.23
369.042	3.09
369.25	3.29
369.459	3.38
369.668	2.85
369.877	3.05
370.085	2.98
370.294	3.17
370.503	3.15
370.711	3.41
370.92	3.22
371.129	3.54
371.337	3.7
371.546	3.57
371.754	3.62
371.963	3.76
372.171	3.46
372.38	3.44
372.589	3.16
372.797	3.23
373.006	3.18
373.214	3.35
373.423	3.42
373.631	3.29
373.84	3.31
374.048	3.18
374.256	3.29
374.465	3.24
374.673	3.16
374.882	3.43
375.09	3.52
375.298	3.48
375.507	3.32
375.715	3.12
375.923	3.13
376.132	3.36
376.34	3.47
376.548	3.31
376.757	3.63
376.965	3.6
377.173	3.45
377.381	3.38
377.59	3.2
377.798	3.16
378.006	3.3
378.214	3.3
378.423	3.19
378.631	3.13
378.839	3.01
379.047	2.94
379.255	3.07
379.463	3.33
379.671	3.31
379.879	3.56
380.088	3.36
380.296	3.39
380.504	3.45
380.712	3.57
380.92	3.49
381.128	3.39
381.336	3.28
381.544	3.27
381.752	3
381.96	2.95
382.168	2.68
382.376	2.8
382.584	2.7
382.791	2.63
382.999	2.52
383.207	2.6
383.415	2.91
383.623	2.89
383.831	2.89
384.039	2.94
384.247	3.02
384.454	3.17
384.662	3.38
384.87	3.3
385.078	3.26
385.285	3.32
385.493	3.26
385.701	3.15
385.909	3.18
386.116	3.01
386.324	3.05
386.532	3.1
386.739	3.24
386.947	3.07
387.155	3.29
387.362	3.26
387.57	3.01
387.778	2.75
387.985	2.64
388.193	2.6
388.4	2.72
388.608	2.45
388.816	2.42
389.023	2.35
389.231	2.4
389.438	2.27
389.646	2.3
389.853	2.21
390.061	2.51
390.268	2.6
390.475	2.64
390.683	2.6
390.89	2.71
391.098	2.71
391.305	2.65
391.512	2.72
391.72	2.87
391.927	2.92
392.135	3.21
392.342	3.08
392.549	2.98
392.756	3.04
392.964	3.16
393.171	3.09
393.378	3
393.586	2.9
393.793	2.91
394	2.88
394.207	2.97
394.414	2.84
394.622	2.8
394.829	2.95
395.036	2.78
395.243	2.63
395.45	2.92
395.657	2.91
395.864	2.99
396.072	3.04
396.279	2.87
396.486	2.85
396.693	2.77
396.9	2.75
397.107	2.72
397.314	2.55
397.521	2.56
397.728	2.32
397.935	2.5
398.142	2.57
398.349	2.51
398.556	2.67
398.763	2.55
398.97	2.66
399.177	2.64
399.383	2.78
399.59	2.91
399.797	2.94
400.004	2.86
400.211	2.86
400.418	2.85
400.625	2.54
400.831	2.35
401.038	2.38
401.245	2.18
401.452	2.11
401.658	1.8
401.865	1.9
402.072	1.87
402.279	1.92
402.485	1.73
402.692	1.67
402.899	1.79
403.105	1.75
403.312	1.63
403.519	2.04
403.725	2
403.932	2.22
404.138	2.03
404.345	2.12
404.552	2.25
404.758	2.3
404.965	2.13
405.171	2.04
405.378	2.01
405.584	2.29
405.791	1.95
405.997	2.14
406.204	1.99
406.41	2.22
406.617	2.21
406.823	2.05
407.029	2.13
407.236	2.26
407.442	2.41
407.649	2.29
407.855	2.16
408.061	2.18
408.268	2.23
408.474	2.3
408.68	2.3
408.887	2.15
409.093	2.21
409.299	2.14
409.505	2.16
409.712	2.24
409.918	2.56
410.124	2.54
410.33	2.47
410.537	2.45
410.743	2.52
410.949	2.31
411.155	2.32
411.361	2.37
411.567	2.24
411.773	2.18
411.98	2.12
412.186	2.07
412.392	2.07
412.598	2.16
412.804	2.07
413.01	1.88
413.216	2.02
413.422	1.98
413.628	1.93
413.834	2.14
414.04	2.31
414.246	2.26
414.452	2.21
414.658	2.17
414.864	2.3
415.07	2.42
415.275	2.57
415.481	2.63
415.687	2.64
415.893	2.69
416.099	2.57
416.305	2.62
416.511	2.7
416.716	2.62
416.922	2.65
417.128	2.54
417.334	2.52
417.539	2.44
417.745	2.45
417.951	2.49
418.157	2.55
418.362	2.66
418.568	2.57
418.774	2.46
418.979	2.53
419.185	2.48
419.391	2.57
419.596	2.55
419.802	2.59
420.008	2.59
420.213	2.63
420.419	2.49
420.624	2.54
420.83	2.51
421.035	2.55
421.241	2.54
421.446	2.56
421.652	2.5
421.857	2.46
422.063	2.48
422.268	2.46
422.474	2.49
422.679	2.57
422.885	2.48
423.09	2.52
423.295	2.54
423.501	2.56
423.706	2.53
423.911	2.49
424.117	2.47
424.322	2.33
424.527	2.3
424.733	2.24
424.938	2.19
425.143	2.21
425.349	2.17
425.554	2.06
425.759	2.07
425.964	2.07
426.169	2.21
426.375	2.22
426.58	2.32
426.785	2.39
426.99	2.24
427.195	2.41
427.4	2.43
427.605	2.38
427.811	2.48
428.016	2.44
428.221	2.41
428.426	2.24
428.631	2.27
428.836	2.16
429.041	2.05
429.246	2.16
429.451	1.94
429.656	1.91
429.861	2.03
430.066	2.05
430.271	2.09
430.476	2.06
430.681	2.02
430.886	1.91
431.09	2.12
431.295	2.15
431.5	2.2
431.705	2.29
431.91	2.28
432.115	2.13
432.32	2.22
432.524	2.16
432.729	2.25
432.934	2.31
433.139	2.44
433.343	2.33
433.548	2.41
433.753	2.34
433.958	2.32
434.162	2.25
434.367	2.22
434.572	2.07
434.776	2.06
434.981	2.1
435.186	2.02
435.39	1.96
435.595	2.05
435.799	1.97
436.004	1.99
436.209	2.06
436.413	2.12
436.618	2.26
436.822	2.25
437.027	2.19
437.231	2.16
437.436	2.23
437.64	2.23
437.845	2.2
438.049	2.27
438.253	2.21
438.458	2.12
438.662	2.15
438.867	2.22
439.071	2.19
439.275	2.27
439.48	2.22
439.684	2.27
439.888	2.26
440.093	2.19
440.297	2.21
440.501	2.28
440.706	2.36
440.91	2.29
441.114	2.09
441.318	2.15
441.523	2.11
441.727	2.18
441.931	2.11
442.135	2.2
442.339	2.29
442.543	2.21
442.748	2.31
442.952	2.2
443.156	2.2
443.36	2.24
443.564	2.25
443.768	2.22
443.972	2.23
444.176	2.31
444.38	2.3
444.584	2.26
444.788	2.21
444.992	2.2
445.196	2.3
445.4	2.31
445.604	2.36
445.808	2.31
446.012	2.3
446.216	2.19
446.42	2.13
446.624	2.15
446.828	2.23
447.032	2.25
447.235	2.22
447.439	2.11
447.643	2.14
447.847	2.13
448.051	2.15
448.254	2.22
448.458	2.38
448.662	2.37
448.866	2.3
449.069	2.23
449.273	2.2
449.477	2.15
449.681	2.14
449.884	2.11
450.088	2.11
450.292	2.08
450.495	2.02
450.699	1.9
450.902	1.86
451.106	1.88
451.31	1.91
451.513	1.88
451.717	1.8
451.92	1.84
452.124	1.95
452.327	1.88
452.531	1.93
452.734	1.92
452.938	2.01
453.141	2.16
453.345	2.23
453.548	2.11
453.752	2.09
453.955	2.19
454.158	2.24
454.362	2.21
454.565	2.19
454.769	2.1
454.972	2.16
455.175	2.08
455.379	1.96
455.582	1.96
455.785	2.07
455.988	2.22
456.192	2.24
456.395	2.18
456.598	2.12
456.801	2.26
457.005	2.36
457.208	2.37
457.411	2.47
457.614	2.44
457.817	2.42
458.021	2.35
458.224	2.38
458.427	2.33
458.63	2.33
458.833	2.34
459.036	2.3
459.239	2.31
459.442	2.26
459.645	2.22
459.848	2.34
460.051	2.29
460.254	2.28
460.457	2.13
460.66	2.11
460.863	2.14
461.066	2.11
461.269	2.06
461.472	1.98
461.675	2.03
461.878	2
462.081	1.83
462.284	1.76
462.486	1.78
462.689	1.82
462.892	1.98
463.095	2.02
463.298	2.03
463.5	2.1
463.703	2.12
463.906	2.15
464.109	2.09
464.311	2.13
464.514	2.2
464.717	2.15
464.92	2.18
465.122	2.11
465.325	2.07
465.528	2.06
465.73	2.05
465.933	2.04
466.135	1.97
466.338	2.03
466.541	2
466.743	2.03
466.946	2.12
467.148	2.09
467.351	2.06
467.553	1.97
467.756	1.97
467.958	1.9
468.161	1.86
468.363	1.87
468.566	1.8
468.768	1.86
468.971	1.67
469.173	1.62
469.375	1.58
469.578	1.64
469.78	1.72
469.983	1.73
470.185	1.78
470.387	1.84
470.59	1.88
470.792	1.95
470.994	1.95
471.196	2.06
471.399	2.07
471.601	2.11
471.803	2.07
472.005	2.04
472.208	1.95
472.41	1.95
472.612	2.04
472.814	2.08
473.016	2
473.218	2.02
473.421	2.06
473.623	2.09
473.825	2.18
474.027	2.21
474.229	2.33
474.431	2.39
474.633	2.38
474.835	2.26
475.037	2.2
475.239	2.3
475.441	2.23
475.643	2.21
475.845	2.22
476.047	2.19
476.249	2.11
476.451	2.06
476.653	2.13
476.855	2.11
477.057	2.13
477.258	2.13
477.46	2.05
477.662	2.17
477.864	2.27
478.066	2.29
478.268	2.28
478.469	2.32
478.671	2.34
478.873	2.3
479.075	2.3
479.276	2.26
479.478	2.25
479.68	2.3
479.882	2.21
480.083	2.2
480.285	2.2
480.487	2.18
480.688	2.19
480.89	2.19
481.091	2.17
481.293	2.24
481.495	2.3
481.696	2.3
481.898	2.3
482.099	2.31
482.301	2.26
482.502	2.29
482.704	2.29
482.905	2.31
483.107	2.32
483.308	2.36
483.51	2.35
483.711	2.32
483.913	2.34
484.114	2.33
484.315	2.32
484.517	2.38
484.718	2.31
484.92	2.33
485.121	2.3
485.322	2.3
485.524	2.27
485.725	2.24
485.926	2.23
486.127	2.21
486.329	2.24
486.53	2.26
486.731	2.25
486.932	2.3
487.134	2.31
487.335	2.27
487.536	2.26
487.737	2.27
487.938	2.3
488.139	2.3
488.341	2.28
488.542	2.25
488.743	2.25
488.944	2.24
489.145	2.22
489.346	2.21
489.547	2.24
489.748	2.23
489.949	2.2
490.15	2.16
490.351	2.19
490.552	2.21
490.753	2.27
490.954	2.28
491.155	2.3
491.356	2.29
491.557	2.23
491.758	2.23
491.959	2.25
492.159	2.23
492.36	2.29
492.561	2.26
492.762	2.25
492.963	2.13
493.164	2.13
493.364	2.09
493.565	2.04
493.766	2.12
493.967	2.23
494.167	2.21
494.368	2.27
494.569	2.26
494.769	2.26
494.97	2.25
495.171	2.27
495.371	2.21
495.572	2.19
495.773	2.3
495.973	2.32
496.174	2.29
496.375	2.27
496.575	2.27
496.776	2.31
496.976	2.38
497.177	2.4
497.377	2.41
497.578	2.45
497.778	2.5
497.979	2.45
498.179	2.4
498.38	2.39
498.58	2.37
498.78	2.34
498.981	2.33
499.181	2.26
499.382	2.31
499.582	2.32
499.782	2.37
499.983	2.31
500.183	2.31
500.383	2.37
500.584	2.41
500.784	2.48
500.984	2.61
501.184	2.55
501.385	2.54
501.585	2.52
501.785	2.63
501.985	2.66
502.185	2.67
502.386	2.62
502.586	2.66
502.786	2.69
502.986	2.75
503.186	2.64
503.386	2.71
503.586	2.84
503.786	2.79
503.987	2.7
504.187	2.7
504.387	2.75
504.587	2.82
504.787	2.8
504.987	2.77
505.187	2.72
505.387	2.79
505.587	2.81
505.786	2.69
505.986	2.75
506.186	2.81
506.386	2.73
506.586	2.8
506.786	2.88
506.986	2.9
507.186	2.84
507.386	2.82
507.585	2.82
507.785	2.8
507.985	2.8
508.185	2.82
508.384	2.83
508.584	2.88
508.784	2.83
508.984	2.83
509.183	2.81
509.383	2.95
509.583	3.02
509.782	2.96
509.982	3.01
510.182	3.08
510.381	3.09
510.581	3.05
510.781	3.1
510.98	3.18
511.18	3.15
511.379	3.2
511.579	3.16
511.778	3.12
511.978	3.25
512.177	3.19
512.377	3.21
512.576	3.29
512.776	3.28
512.975	3.25
513.175	3.17
513.374	3.16
513.573	3.22
513.773	3.27
513.972	3.33
514.172	3.28
514.371	3.33
514.57	3.3
514.77	3.23
514.969	3.37
515.168	3.35
515.367	3.44
515.567	3.51
515.766	3.37
515.965	3.31
516.164	3.39
516.364	3.45
516.563	3.46
516.762	3.56
516.961	3.59
517.16	3.67
517.359	3.72
517.559	3.78
517.758	3.76
517.957	3.87
518.156	3.94
518.355	3.99
518.554	4.02
518.753	4.06
518.952	4.04
519.151	4.13
519.35	3.99
519.549	4.06
519.748	4.06
519.947	4.04
520.146	4.04
520.345	4.04
520.544	4.03
520.743	4
520.942	4.04
521.141	4.04
521.339	4.11
521.538	4.15
521.737	4.14
521.936	4.11
522.135	4.17
522.333	4.18
522.532	4.17
522.731	4.23
522.93	4.33
523.129	4.39
523.327	4.42
523.526	4.4
523.725	4.48
523.923	4.49
524.122	4.58
524.321	4.64
524.519	4.69
524.718	4.7
524.917	4.67
525.115	4.63
525.314	4.62
525.512	4.65
525.711	4.69
525.909	4.73
526.108	4.77
526.306	4.81
526.505	4.83
526.703	4.84
526.902	4.9
527.1	4.92
527.299	4.97
527.497	4.98
527.696	5.01
527.894	5.01
528.092	5
528.291	5
528.489	4.97
528.688	4.97
528.886	4.97
529.084	4.96
529.283	4.97
529.481	4.99
529.679	4.99
529.877	4.96
530.076	5.05
530.274	5.12
530.472	5.17
530.67	5.22
530.869	5.29
531.067	5.34
531.265	5.39
531.463	5.4
531.661	5.4
531.859	5.49
532.057	5.56
532.255	5.49
532.454	5.51
532.652	5.5
532.85	5.53
533.048	5.53
533.246	5.6
533.444	5.62
533.642	5.67
533.84	5.68
534.038	5.67
534.236	5.71
534.434	5.78
534.632	5.79
534.83	5.82
535.027	5.86
535.225	5.83
535.423	5.8
535.621	5.86
535.819	5.85
536.017	5.85
536.215	5.9
536.412	5.95
536.61	5.94
536.808	5.9
537.006	5.93
537.203	5.95
537.401	6.05
537.599	6.1
537.797	6.1
537.994	6.11
538.192	6.21
538.39	6.21
538.587	6.24
538.785	6.3
538.983	6.39
539.18	6.46
539.378	6.49
539.575	6.46
539.773	6.49
539.97	6.49
540.168	6.55
540.366	6.58
540.563	6.6
540.761	6.55
540.958	6.61
541.155	6.66
541.353	6.67
541.55	6.65
541.748	6.71
541.945	6.76
542.143	6.82
542.34	6.84
542.537	6.83
542.735	6.85
542.932	6.97
543.129	6.98
543.327	6.94
543.524	6.95
543.721	7.09
543.919	7.1
544.116	7.08
544.313	7.12
544.51	7.15
544.708	7.2
544.905	7.35
545.102	7.33
545.299	7.39
545.496	7.46
545.693	7.47
545.891	7.43
546.088	7.43
546.285	7.46
546.482	7.53
546.679	7.56
546.876	7.58
547.073	7.51
547.27	7.62
547.467	7.62
547.664	7.71
547.861	7.82
548.058	7.9
548.255	8.04
548.452	8.16
548.649	8.1
548.846	8.16
549.043	8.25
549.24	8.39
549.437	8.47
549.633	8.48
549.83	8.44
550.027	8.43
550.224	8.45
550.421	8.43
550.618	8.35
550.814	8.47
551.011	8.51
551.208	8.54
551.405	8.47
551.601	8.49
551.798	8.6
551.995	8.64
552.191	8.71
552.388	8.72
552.585	8.81
552.781	8.97
552.978	9.02
553.175	9.03
553.371	9.13
553.568	9.31
553.764	9.38
553.961	9.41
554.157	9.38
554.354	9.41
554.55	9.51
554.747	9.52
554.943	9.44
555.14	9.42
555.336	9.47
555.533	9.43
555.729	9.37
555.926	9.29
556.122	9.26
556.318	9.45
556.515	9.5
556.711	9.6
556.907	9.68
557.104	9.78
557.3	9.79
557.496	9.85
557.693	9.95
557.889	9.92
558.085	10.08
558.281	10.09
558.478	10.04
558.674	10.2
558.87	10.24
559.066	10.29
559.262	10.31
559.459	10.43
559.655	10.54
559.851	10.58
560.047	10.7
560.243	10.71
560.439	10.88
560.635	11.05
560.831	11.01
561.027	11.03
561.223	11.11
561.419	11.2
561.615	11.29
561.811	11.31
562.007	11.26
562.203	11.36
562.399	11.34
562.595	11.4
562.791	11.34
562.987	11.47
563.183	11.51
563.379	11.57
563.575	11.6
563.771	11.67
563.966	11.67
564.162	11.76
564.358	11.8
564.554	11.97
564.75	11.98
564.945	12.07
565.141	12.12
565.337	12.25
565.533	12.23
565.728	12.3
565.924	12.26
566.12	12.39
566.315	12.5
566.511	12.51
566.707	12.49
566.902	12.56
567.098	12.64
567.293	12.62
567.489	12.58
567.684	12.68
567.88	12.71
568.076	12.76
568.271	12.72
568.467	12.72
568.662	12.88
568.858	12.99
569.053	13
569.248	13.03
569.444	13.13
569.639	13.11
569.835	13.18
570.03	13.28
570.225	13.31
570.421	13.36
570.616	13.34
570.812	13.33
571.007	13.3
571.202	13.34
571.397	13.31
571.593	13.27
571.788	13.36
571.983	13.46
572.178	13.4
572.374	13.45
572.569	13.5
572.764	13.6
572.959	13.6
573.154	13.61
573.35	13.63
573.545	13.67
573.74	13.72
573.935	13.77
574.13	13.66
574.325	13.84
574.52	13.89
574.715	14.01
574.91	14.08
575.105	14.23
575.3	14.31
575.495	14.44
575.69	14.55
575.885	14.69
576.08	14.65
576.275	14.79
576.47	14.68
576.665	14.8
576.86	14.73
577.055	14.71
577.25	14.6
577.444	14.73
577.639	14.65
577.834	14.6
578.029	14.66
578.224	14.8
578.418	14.88
578.613	14.88
578.808	14.87
579.003	14.92
579.197	15.02
579.392	15.13
579.587	15.08
579.781	15.21
579.976	15.3
580.171	15.24
580.365	15.08
580.56	15.22
580.755	15.42
580.949	15.51
581.144	15.48
581.338	15.4
581.533	15.39
581.727	15.44
581.922	15.44
582.116	15.6
582.311	15.74
582.505	16
582.7	15.85
582.894	15.79
583.089	15.78
583.283	15.92
583.478	16.06
583.672	16.11
583.866	16.11
584.061	16.14
584.255	16.03
584.449	15.95
584.644	15.97
584.838	16.02
585.032	16.03
585.226	16.04
585.421	15.89
585.615	15.97
585.809	16
586.003	16.17
586.198	16.28
586.392	16.39
586.586	16.46
586.78	16.38
586.974	16.38
587.168	16.38
587.363	16.38
587.557	16.48
587.751	16.38
587.945	16.45
588.139	16.3
588.333	16.38
588.527	16.36
588.721	16.45
588.915	16.5
589.109	16.57
589.303	16.75
589.497	16.91
589.691	16.95
589.885	17.11
590.079	17.24
590.273	17.36
590.466	17.3
590.66	17.32
590.854	17.26
591.048	17.36
591.242	17.31
591.436	17.26
591.629	17.1
591.823	17.12
592.017	17.08
592.211	16.94
592.404	17
592.598	17.01
592.792	17.05
592.986	17.12
593.179	17.32
593.373	17.39
593.567	17.43
593.76	17.59
593.954	17.73
594.147	17.67
594.341	17.81
594.535	17.88
594.728	17.87
594.922	18
595.115	18.05
595.309	17.96
595.502	18.02
595.696	18.11
595.889	18.03
596.083	18.04
596.276	18.14
596.47	17.98
596.663	17.98
596.856	17.97
597.05	17.93
597.243	17.95
597.437	17.98
597.63	18.07
597.823	18.11
598.017	18.19
598.21	18.13
598.403	18.2
598.596	18.37
598.79	18.35
598.983	18.49
599.176	18.44
599.369	18.41
599.563	18.49
599.756	18.39
599.949	18.19
600.142	18.26
600.335	18.39
600.528	18.44
600.722	18.52
600.915	18.44
601.108	18.43
601.301	18.42
601.494	18.3
601.687	18.2
601.88	18.38
602.073	18.42
602.266	18.39
602.459	18.34
602.652	18.33
602.845	18.26
603.038	18.33
603.231	18.35
603.424	18.34
603.617	18.39
603.809	18.32
604.002	18.23
604.195	18.39
604.388	18.32
604.581	18.35
604.774	18.34
604.966	18.46
605.159	18.56
605.352	18.54
605.545	18.71
605.737	18.81
605.93	18.89
606.123	18.84
606.316	18.73
606.508	18.77
606.701	18.81
606.894	18.79
607.086	18.74
607.279	18.69
607.471	18.69
607.664	18.68
607.857	18.73
608.049	18.83
608.242	18.89
608.434	18.98
608.627	19.15
608.819	19.23
609.012	19.42
609.204	19.29
609.397	19.26
609.589	19.35
609.782	19.32
609.974	19.35
610.166	19.26
610.359	19.27
610.551	19.17
610.743	19.01
610.936	18.98
611.128	18.77
611.32	18.94
611.513	19.04
611.705	19.02
611.897	19.01
612.09	19.05
612.282	19.19
612.474	19.17
612.666	19.22
612.858	19.18
613.051	19.2
613.243	19.27
613.435	19.38
613.627	19.33
613.819	19.41
614.011	19.53
614.203	19.32
614.395	19.21
614.588	19.34
614.78	19.45
614.972	19.62
615.164	19.65
615.356	19.7
615.548	19.71
615.74	19.74
615.932	19.71
616.124	19.71
616.315	20
616.507	20.05
616.699	19.95
616.891	19.96
617.083	19.99
617.275	19.92
617.467	20.02
617.659	19.95
617.85	19.85
618.042	19.76
618.234	19.84
618.426	19.64
618.618	19.81
618.809	19.95
619.001	20.05
619.193	20.07
619.384	20.15
619.576	20.02
619.768	20.07
619.959	20.17
620.151	20.44
620.343	20.28
620.534	20.32
620.726	20.27
620.917	20.13
621.109	20.23
621.301	20.17
621.492	20.12
621.684	20.18
621.875	20.32
622.067	20.19
622.258	20.17
622.45	20.32
622.641	20.14
622.832	20.18
623.024	20.33
623.215	20.3
623.407	20.26
623.598	20.24
623.789	20.19
623.981	20.06
624.172	20.25
624.363	20.14
624.555	20.03
624.746	20.34
624.937	20.38
625.129	20.24
625.32	20.24
625.511	20.33
625.702	20.41
625.893	20.47
626.085	20.6
626.276	20.51
626.467	20.53
626.658	20.72
626.849	20.67
627.04	20.65
627.231	20.75
627.422	20.73
627.614	20.74
627.805	20.77
627.996	20.88
628.187	20.86
628.378	20.97
628.569	20.95
628.76	20.88
628.951	20.9
629.142	20.9
629.332	20.99
629.523	21.05
629.714	21.09
629.905	21.03
630.096	20.85
630.287	20.76
630.478	20.79
630.669	20.91
630.859	20.84
631.05	20.92
631.241	20.79
631.432	20.66
631.623	20.48
631.813	20.46
632.004	20.45
632.195	20.44
632.385	20.48
632.576	20.57
632.767	20.38
632.957	20.51
633.148	20.32
633.339	20.66
633.529	20.9
633.72	21.15
633.91	21.11
634.101	21.32
634.292	21.54
634.482	21.45
634.673	21.44
634.863	21.67
635.054	21.57
635.244	22.01
635.435	21.75
635.625	21.61
635.815	21.41
636.006	21.57
636.196	21.42
636.387	21.46
636.577	21.37
636.767	21.28
636.958	21.08
637.148	21.33
637.338	21.17
637.529	21.38
637.719	21.51
637.909	21.61
638.099	21.65
638.29	21.7
638.48	21.6
638.67	21.76
638.86	21.76
639.05	21.99
639.241	21.71
639.431	21.43
639.621	21.28
639.811	21.09
640.001	21.16
640.191	21.08
640.381	21.2
640.571	21.11
640.761	21.31
640.951	21.38
641.141	21.35
641.331	21.41
641.521	21.83
641.711	21.9
641.901	21.93
642.091	21.82
642.281	21.74
642.471	21.53
642.661	21.67
642.851	21.58
643.041	21.65
643.231	21.63
643.42	21.4
643.61	21.16
643.8	21.32
643.99	21.29
644.18	21.2
644.369	21.36
644.559	21.62
644.749	21.6
644.939	21.73
645.128	21.73
645.318	21.72
645.508	21.91
645.697	21.94
645.887	21.73
646.076	22.06
646.266	22.46
646.456	22.23
646.645	22.28
646.835	22.25
647.024	22.11
647.214	22.06
647.403	22.26
647.593	22.31
647.782	22.28
647.972	22.31
648.161	22.16
648.351	22.06
648.54	22.2
648.73	22.14
648.919	22.27
649.108	22.41
649.298	22.12
649.487	22.02
649.677	22.27
649.866	22.19
650.055	22.23
650.244	22.41
650.434	22.18
650.623	22.25
650.812	22.27
651.002	22.37
651.191	22.28
651.38	22.47
651.569	22.32
651.758	22.11
651.947	22.25
652.137	22.27
652.326	22.02
652.515	22.16
652.704	22.19
652.893	22.21
653.082	21.96
653.271	22.01
653.46	21.98
653.649	22.19
653.838	22.43
654.027	22.44
654.216	22.58
654.405	22.84
654.594	22.87
654.783	22.71
654.972	22.62
655.161	22.64
655.35	22.47
655.539	22.71
655.728	22.79
655.916	22.9
656.105	23.02
656.294	22.85
656.483	22.71
656.672	22.7
656.86	22.9
657.049	23.02
657.238	23.22
657.427	23.33
657.615	23.45
657.804	23.42
657.993	23.05
658.181	23.04
658.37	23.13
658.559	23.1
658.747	23.09
658.936	23.1
659.125	22.94
659.313	22.78
659.502	22.88
659.69	22.57
659.879	22.5
660.067	22.87
660.256	22.9
660.444	22.82
660.633	22.84
660.821	22.92
661.01	22.96
661.198	22.94
661.387	22.99
661.575	22.82
661.763	23.17
661.952	23.27
662.14	23.15
662.328	23.18
662.517	23.28
662.705	23.31
662.893	23.24
663.082	23.11
663.27	23.09
663.458	23.09
663.646	23.35
663.834	23.05
664.023	23.05
664.211	23.32
664.399	23.23
664.587	23.33
664.775	23.29
664.963	23.69
665.152	23.67
665.34	23.98
665.528	24.16
665.716	24.13
665.904	24.24
666.092	24.22
666.28	23.97
666.468	23.97
666.656	23.85
666.844	23.76
667.032	23.59
667.22	23.78
667.408	23.7
667.596	23.53
667.784	23.62
667.971	23.78
668.159	23.62
668.347	23.52
668.535	23.39
668.723	23.42
668.911	23.61
669.098	23.81
669.286	23.96
669.474	23.96
669.662	23.99
669.849	23.87
670.037	23.81
670.225	23.91
670.413	24.09
670.6	24.37
670.788	24.43
670.976	24.56
671.163	24.31
671.351	24.08
671.538	24.14
671.726	24.29
671.913	24.32
672.101	24.08
672.289	24.3
672.476	24.16
672.664	24.32
672.851	24.09
673.039	24.06
673.226	23.88
673.413	23.76
673.601	24.01
673.788	23.99
673.976	24.19
674.163	24.63
674.35	24.39
674.538	24.6
674.725	24.4
674.912	24.8
675.1	24.66
675.287	24.85
675.474	24.75
675.662	24.22
675.849	24.15
676.036	24.06
676.223	24.1
676.411	24.29
676.598	24.45
676.785	24.38
676.972	24.26
677.159	24.38
677.346	24.57
677.533	24.62
677.721	24.76
677.908	25.17
678.095	25.22
678.282	25.27
678.469	25.31
678.656	25.04
678.843	24.96
679.03	25.11
679.217	25.1
679.404	24.89
679.591	25.1
679.778	25.29
679.964	24.85
680.151	24.67
680.338	24.28
680.525	24.22
680.712	24.11
680.899	24.33
681.086	24.06
681.272	23.95
681.459	24.08
681.646	24.02
681.833	24.17
682.02	24.58
682.206	24.65
682.393	24.8
682.58	25.01
682.766	25.24
682.953	25.25
683.14	25.52
683.326	25.44
683.513	25.73
683.7	25.58
683.886	25.55
684.073	25.18
684.259	25.39
684.446	25.44
684.632	25.29
684.819	25.16
685.005	24.96
685.192	24.83
685.378	24.77
685.565	24.48
685.751	24.51
685.938	24.58
686.124	24.88
686.31	24.87
686.497	25.18
686.683	25.15
686.87	25.2
687.056	25.47
687.242	25.7
687.429	26.1
687.615	26.12
687.801	26.54
687.987	26.37
688.174	26.14
688.36	26.17
688.546	25.91
688.732	25.88
688.918	25.77
689.105	25.66
689.291	25.45
689.477	25.4
689.663	25.26
689.849	24.66
690.035	24.58
690.221	24.65
690.407	24.6
690.593	24.65
690.779	24.71
690.965	24.82
691.151	24.87
691.337	24.8
691.523	24.84
691.709	25.1
691.895	25.75
692.081	26.04
692.267	26.27
692.453	25.93
692.639	26.07
692.825	25.79
693.011	25.6
693.196	25.57
693.382	25.87
693.568	26.01
693.754	25.72
693.94	25.29
694.125	25.16
694.311	25.08
694.497	25.61
694.682	25.68
694.868	25.73
695.054	26.11
695.239	26.29
695.425	26.55
695.611	26.32
695.796	26.37
695.982	26.51
696.168	26.4
696.353	26.51
696.539	26.55
696.724	26.61
696.91	26.84
697.095	26.86
697.281	26.6
697.466	26.38
697.652	26.3
697.837	26.22
698.023	26.27
698.208	26.37
698.393	26.22
698.579	26.03
698.764	25.88
698.949	25.96
699.135	25.96
699.32	26.31
699.505	26.19
699.691	26.26
699.876	26.61
700.061	26.86
700.246	26.63
700.432	26.65
700.617	26.72
700.802	26.44
700.987	26.26
701.172	26.24
701.358	25.79
701.543	26.16
701.728	26.26
701.913	25.68
702.098	25.42
702.283	25.85
702.468	25.77
702.653	25.84
702.838	26.27
703.023	25.82
703.208	25.85
703.393	25.74
703.578	25.47
703.763	25.61
703.948	25.96
704.133	25.94
704.318	25.61
704.503	25.89
704.688	25.62
704.873	25.88
705.057	26.57
705.242	26.39
705.427	26.38
705.612	26.3
705.797	26.04
705.981	25.94
706.166	25.82
706.351	26.01
706.536	25.9
706.72	26
706.905	25.83
707.09	25.67
707.274	25.77
707.459	26.11
707.644	26.37
707.828	26.52
708.013	26.35
708.197	26.56
708.382	26.53
708.567	26.49
708.751	26.61
708.936	26.55
709.12	26.42
709.305	26.45
709.489	26.63
709.673	26.47
709.858	26.52
710.042	26.78
710.227	26.92
710.411	27.28
710.596	27.4
710.78	27.6
710.964	27.62
711.149	27.62
711.333	27.83
711.517	27.83
711.702	27.88
711.886	28
712.07	27.93
712.254	27.61
712.438	27.17
712.623	26.98
712.807	26.56
712.991	26.88
713.175	27
713.359	26.88
713.544	26.86
713.728	26.58
713.912	26.69
714.096	26.6
714.28	26.84
714.464	26.95
714.648	27.34
714.832	27.5
715.016	27.24
715.2	27.03
715.384	27.02
715.568	26.81
715.752	27.17
715.936	26.92
716.12	27.5
716.304	27.2
716.488	27.37
716.671	27.35
716.855	27.2
717.039	27.26
717.223	27.61
717.407	27.67
717.59	27.59
717.774	27.57
717.958	27.67
718.142	27.17
718.325	27.46
718.509	27.06
718.693	26.93
718.877	27.02
719.06	26.76
719.244	26.64
719.428	26.21
719.611	26.55
719.795	26.34
719.978	26.13
720.162	26.27
720.345	26.04
720.529	26.15
720.713	26.19
720.896	26.19
721.08	26.01
721.263	25.82
721.446	26.13
721.63	26.27
721.813	26.12
721.997	25.95
722.18	25.75
722.364	26.39
722.547	26.08
722.73	25.92
722.914	25.81
723.097	25.9
723.28	26.07
723.464	25.92
723.647	25.44
723.83	25.89
724.013	26.09
724.197	26.26
724.38	25.82
724.563	26.18
724.746	26.22
724.929	25.83
725.112	26.31
725.296	26.39
725.479	26.51
725.662	26.98
725.845	26.81
726.028	27.05
726.211	26.88
726.394	26.76
726.577	26.61
726.76	26.49
726.943	26.96
727.126	26.78
727.309	26.73
727.492	26.72
727.675	26.38
727.858	26.51
728.041	26.28
728.224	26.45
728.407	26.41
728.589	26.78
728.772	26.45
728.955	26.47
729.138	26.16
729.321	25.77
729.503	25.86
729.686	25.94
729.869	25.73
730.052	25.97
730.234	26.04
730.417	26.13
730.6	25.94
730.782	26.09
730.965	26.46
731.148	26.56
731.33	26.83
731.513	26.52
731.695	26.86
731.878	27.3
732.061	27.19
732.243	27.6
732.426	27.57
732.608	27.63
732.791	27.84
732.973	27.56
733.156	27.59
733.338	27.99
733.52	28.65
733.703	28.59
733.885	28.1
734.068	28.11
734.25	27.61
734.432	27.46
734.615	27.59
734.797	27.65
734.979	28.12
735.162	28.38
735.344	28.06
735.526	27.54
735.708	27.32
735.891	27.71
736.073	27.53
736.255	27.49
736.437	27.42
736.619	26.85
736.802	27.12
736.984	26.22
737.166	26.03
737.348	26.34
737.53	26.03
737.712	25.59
737.894	25.16
738.076	25.12
738.258	25.34
738.44	25.38
738.622	26.14
738.804	25.19
738.986	26.18
739.168	26.28
739.35	25.65
739.532	26.07
739.714	26.56
739.896	26.35
740.078	26.43
740.259	26.47
740.441	26.47
740.623	25.92
740.805	26.88
740.987	26.46
741.168	26.6
741.35	27.18
741.532	27.76
741.714	27.66
741.895	27.91
742.077	28.64
742.259	28.14
742.44	28.31
742.622	29.37
742.804	29
742.985	28.54
743.167	28.96
743.348	28.28
743.53	27.97
743.711	27.79
743.893	27.81
744.075	27.66
744.256	27.84
744.438	27.73
744.619	26.73
744.8	26.67
744.982	26.74
745.163	26.65
745.345	27.29
745.526	27.04
745.707	27.62
745.889	28.09
746.07	27.9
746.252	28.2
746.433	28.34
746.614	28.16
746.795	28.25
746.977	29.05
747.158	28.71
747.339	28.28
747.52	28.47
747.702	28.21
747.883	27.66
748.064	27.05
748.245	27.31
748.426	27.55
748.607	27.54
748.788	27.64
748.97	27.04
749.151	25.83
749.332	26.16
749.513	25.92
749.694	25.87
749.875	26.51
750.056	27.21
750.237	26.88
750.418	27.68
750.599	26.97
750.78	26.75
750.96	27.32
751.141	28.17
751.322	28.42
751.503	28.51
751.684	28.97
751.865	29.13
752.046	29.24
752.226	29.37
752.407	28.52
752.588	29.27
752.769	29.28
752.949	28.55
753.13	28.48
753.311	29.09
753.492	29.03
753.672	28.74
753.853	27.62
754.034	26.84
754.214	26.72
754.395	26.42
754.575	26.48
754.756	26.35
754.937	26.72
755.117	27.38
755.298	26.35
755.478	26.56
755.659	26.73
755.839	26.94
756.02	27.02
756.2	27.25
756.381	27.55
756.561	28.41
756.741	28.64
756.922	28.07
757.102	28.08
757.283	27.73
757.463	27.91
757.643	27.67
757.823	27.92
758.004	28.54
758.184	28.45
758.364	28.39
758.545	27.39
758.725	27.52
758.905	27.99
759.085	27.67
759.265	28.68
759.446	28.26
759.626	27.97
759.806	27.75
759.986	28.06
760.166	27.76
760.346	27.37
760.526	28.07
760.706	27.98
760.886	27.62
761.066	28.09
761.246	27.79
761.426	28.03
761.606	28.6
761.786	28.83
761.966	28.62
762.146	28.96
762.326	29.45
762.506	29.47
762.686	29.87
762.866	30.36
763.046	30.43
763.225	30.58
763.405	30.34
763.585	29.83
763.765	29.6
763.945	29.32
764.124	29.92
764.304	29.79
764.484	29.33
764.664	28.95
764.843	28.84
765.023	28.44
765.203	27.9
765.382	27.93
765.562	27.73
765.741	27.64
765.921	26.98
766.101	26.04
766.28	25.97
766.46	26.72
766.639	26.53
766.819	26.38
766.998	25.95
767.178	26.23
767.357	26.41
767.537	26.87
767.716	27.83
767.896	28.72
768.075	28.76
768.254	28.81
768.434	28.12
768.613	28.25
768.792	28.43
768.972	28.91
769.151	29.18
769.33	29.13
769.51	29.31
769.689	28.77
769.868	29.72
770.047	29.6
770.226	29.48
770.406	30.36
770.585	30.48
770.764	30.52
770.943	30.35
771.122	29.76
771.301	29.88
771.48	29.66
771.66	29.86
771.839	28.25
772.018	28.55
772.197	28.75
772.376	28.52
772.555	28.75
772.734	28.66
772.913	29.35
773.092	29.79
773.271	28.76
773.449	28.53
773.628	28.24
773.807	29.56
773.986	29.01
774.165	28.78
774.344	28.81
774.523	28.68
774.701	29.17
774.88	27.74
775.059	26.97
775.238	27.34
775.417	27.55
775.595	27.47
775.774	26.73
775.953	26.81
776.131	26.56
776.31	25.6
776.489	26.22
776.667	26.13
776.846	26.96
777.025	27.6
777.203	28.54
777.382	29.37
777.56	30.12
777.739	30.15
777.917	30.43
778.096	31.11
778.274	31.77
778.453	31.1
778.631	30.55
778.81	30.35
778.988	30.56
779.166	29.97
779.345	30.33
779.523	30.07
779.702	29.55
779.88	29.66
780.058	29.23
780.237	28.88
780.415	28.13
780.593	28.15
780.771	28.37
780.95	28.26
781.128	28.32
781.306	27.27
781.484	27.2
781.662	28.71
781.841	28.54
782.019	28.58
782.197	28.44
782.375	29.58
782.553	29.66
782.731	30.23
782.909	29.74
783.087	29.93
783.265	29.8
783.443	30.31
783.621	29.57
783.799	29.28
783.977	28.95
784.155	29.18
784.333	29.14
784.511	28.24
784.689	27.77
784.867	28.88
785.045	28.34
785.223	29.02
785.4	28.47
785.578	28.41
785.756	29.56
785.934	30.51
786.112	29.83
786.289	29.69
786.467	30.33
786.645	30.46
786.823	29.54
787	29.87
787.178	28.53
787.356	28.16
787.533	27.09
787.711	25.94
787.889	25.59
788.066	26.19
788.244	25.83
788.421	25.01
788.599	25.01
788.776	25.1
788.954	24.87
789.131	26.18
789.309	25.98
789.486	26.99
789.664	26.91
789.841	26.56
790.019	25.75
790.196	25.86
790.373	26.58
790.551	26
790.728	25.89
790.906	26.26
791.083	26.36
791.26	26.92
791.437	26.9
791.615	26.84
791.792	26.62
791.969	26.23
792.146	26.61
792.324	26.75
792.501	27.1
792.678	27.21
792.855	27.35
793.032	26.97
793.209	26.9
793.387	27.14
793.564	28.43
793.741	29.07
793.918	30.44
794.095	29.66
794.272	29.43
794.449	28.84
794.626	28.7
794.803	29.02
794.98	29.48
795.157	28.94
795.334	28.34
795.511	26.8
795.688	27.11
795.864	26.3
796.041	26.67
796.218	27.27
796.395	27.77
796.572	28.04
796.749	28.65
796.925	28.1
797.102	28.31
797.279	28.9
797.456	28.55
797.632	28.31
797.809	28.34
797.986	28.15
798.162	28.09
798.339	27.61
798.516	27.1
798.692	25.59
798.869	25.54
799.046	25.49
799.222	25.44
799.399	26.15
799.575	25.72
799.752	27.26
799.928	26.94
800.105	26.3
800.281	26.77
800.458	27.21
800.634	27.83
800.811	27.7
800.987	28.48
801.163	28.25
801.34	29.49
801.516	29.09
801.692	27.34
801.869	28.06
802.045	28.03
802.221	28.22
802.398	28.29
802.574	28.63
802.75	28.89
802.926	28.72
803.103	28.81
803.279	27.66
803.455	28.81
803.631	29.31
803.807	30.14
803.983	30.52
804.16	30.58
804.336	30.48
804.512	30.25
804.688	29.93
804.864	28.36
805.04	27.66
805.216	27.82
805.392	26.73
805.568	27.23
805.744	26.98
805.92	26.78
806.096	26.63
806.272	26.59
806.448	25.8
806.623	26.18
806.799	26.71
806.975	28.77
807.151	29.39
807.327	29.5
807.503	28.72
807.678	27.93
807.854	28.45
808.03	28.37
808.206	27.27
808.381	27.98
808.557	27.56
808.733	27.92
808.908	27.34
809.084	27.3
809.26	27.7
809.435	28.01
809.611	27.32
809.787	27.06
809.962	26.29
810.138	25.37
810.313	25.62
810.489	25.24
810.664	27.16
810.84	25.66
811.015	24.18
811.191	23.84
811.366	23.37
811.542	23.58
811.717	22.76
811.892	23.07
812.068	25.44
812.243	26.07
812.419	26.88
812.594	25.1
812.769	25.93
812.944	26.71
813.12	26.39
813.295	26.47
813.47	27.24
813.645	26.95
813.821	27.87
813.996	26.1
814.171	25.77
814.346	25.52
814.521	26.45
814.697	25.95
814.872	25.33
815.047	24.75
815.222	25.8
815.397	24.9
815.572	26.87
815.747	26.72
815.922	28.42
816.097	27.96
816.272	27.08
816.447	26.17
816.622	27.71
816.797	29.45
816.972	30.08
817.147	29.78
817.322	31.07
817.496	30.24
817.671	29.8
817.846	29.94
818.021	30.53
818.196	31.83
818.371	32.15
818.545	31.71
818.72	31.7
818.895	32.48
819.069	32.26
819.244	32.48
819.419	32.17
819.594	32.34
819.768	31.8
819.943	30.53
820.117	30.14
820.292	29.72
820.467	29.49
820.641	29.58
820.816	29.49
820.99	29.8
821.165	29.93
821.339	30.13
821.514	30.04
821.688	30.37
821.863	30.63
822.037	30.66
822.212	30.83
822.386	30.75
822.56	30.56
822.735	30.71
822.909	30.66
823.084	30.47
823.258	30.31
823.432	30.52
823.606	30.34
823.781	30.35
823.955	30.37
824.129	30.53
824.303	30.68
824.478	30.86
824.652	30.38
824.826	30.16
825	30.08
825.174	30.23
825.348	30.47
825.523	30.4
825.697	30.2
825.871	30.15
826.045	29.76
826.219	29.68
826.393	29.53
826.567	29.62
826.741	29.57
826.915	29.51
827.089	29.47
827.263	29
827.437	29.08
827.611	29.33
827.784	29.53
827.958	29.73
828.132	29.73
828.306	29.89
828.48	30.55
828.654	30.6
828.827	30.8
829.001	30.52
829.175	30.51
829.349	30.55
829.522	30.37
829.696	30.02
829.87	29.79
830.044	29.71
830.217	29.33
830.391	28.49
830.565	29.07
830.738	28.9
830.912	29.68
831.085	28.09
831.259	27.31
831.432	28.06
831.606	27.61
831.779	27.88
831.953	26.92
832.126	27.47
832.3	28.04
832.473	27.75
832.647	27.69
832.82	27.71
832.994	29.44
833.167	30
833.34	29.08
833.514	29.05
833.687	28.96
833.86	29.95
834.034	29.05
834.207	28.98
834.38	29
834.553	29.35
834.727	29.44
834.9	29.74
835.073	29.86
835.246	29.91
835.419	29.95
835.593	29.31
835.766	29.06
835.939	30.44
836.112	29.67
836.285	29.07
836.458	29.25
836.631	28.08
836.804	26.79
836.977	24.72
837.15	24.21
837.323	24.91
837.496	25.06
837.669	24.93
837.842	25.09
838.015	26.9
838.188	26.73
838.361	26.22
838.533	26.79
838.706	25.72
838.879	26.96
839.052	27.56
839.225	25.64
839.398	24.49
839.57	23.12
839.743	21.46
839.916	21.48
840.088	23.76
840.261	21.27
840.434	22.26
840.607	22.63
840.779	24.07
840.952	24.49
841.124	25.95
841.297	26.86
841.47	28.97
841.642	27.59
841.815	25.14
841.987	24.25
842.16	25.75
842.332	24.95
842.505	25.47
842.677	23.51
842.85	20.62
843.022	21.56
843.194	21.28
843.367	21.87
843.539	25.87
843.712	27.5
843.884	26.43
844.056	26.99
844.229	28.24
844.401	26.68
844.573	26.8
844.745	28.31
844.918	24.79
845.09	28.75
845.262	25.95
845.434	22.45
845.606	20.49
845.779	20.29
845.951	20.27
846.123	17.11
846.295	15.86
846.467	17.68
846.639	17.89
846.811	20.95
846.983	15.9
847.155	14.16
847.327	16.77
847.499	17.51
847.671	20.21
847.843	23.34
848.015	26.17
848.187	28.2
848.359	27.65
848.531	25.54
848.703	24.79
848.875	27.11
849.047	29.89
849.218	28.78
849.39	31.05
849.562	25.33
849.734	20.82
849.905	22.04
850.077	22.06
850.249	22.19
850.421	24.35
850.592	26.18
850.764	25.43
850.936	25.42
851.107	24.55
851.279	19.85
851.451	24.12
851.622	25.44
851.794	24.53
851.965	22.95
852.137	21.8
852.308	21.81
852.48	19.64
852.651	19.54
852.823	19.79
852.994	18.36
853.166	20.99
853.337	18.17
853.509	18.69
853.68	17.07
853.851	20.74
854.023	19.7
854.194	20.49
854.365	19.05
854.537	18.49
854.708	17.94
854.879	17.97
855.05	13.34
855.222	17.18
855.393	17.43
855.564	16.6
855.735	17.06
855.906	20.6
856.078	21.24
856.249	21.27
856.42	18.85
856.591	20.81
856.762	21.25
856.933	24.19
857.104	19.85
857.275	20.36
857.446	22.1
857.617	22.88
857.788	25.43
857.959	29.43
858.13	29.6
858.301	36.55
858.472	36.14
858.643	36.66
858.814	40.76
858.985	43.67
859.155	45.73
859.326	46.74
859.497	43.69
859.668	40.71
859.839	40.29
860.009	36.89
860.18	33.83
860.351	29.25
860.522	33.71
860.692	31.83
860.863	30.37
861.034	25.39
861.204	19.21
861.375	16.51
861.546	14.96
861.716	14.11
861.887	14.81
862.057	16.51
862.228	19.51
862.398	11.37
862.569	5.63
862.739	3.76
862.91	10.28
863.08	12.61
863.251	18.29
863.421	13.94
863.592	11.65
863.762	18.75
863.932	21.02
864.103	22.22
864.273	26.19
864.443	28.16
864.614	25.47
864.784	16.51
864.954	17.78
865.125	15.13
865.295	20.19
865.465	21.73
865.635	26.87
865.805	18.59
865.976	17.15
866.146	11.75
866.316	12.31
866.486	18.51
866.656	21.97
866.826	23.98
866.996	25.84
867.166	26.19
867.336	25.4
867.506	17.06
867.676	24.53
867.846	18.51
868.016	24.21
868.186	23.73
868.356	18.24
868.526	16.01
868.696	12.43
868.866	11.29
869.036	3.83
869.206	2.71
869.376	-1.43
869.545	-7.15
869.715	-1.91
869.885	-3.85
870.055	-2.77
870.224	-2.15
870.394	4.04
870.564	9.9
870.734	6.83
870.903	10.83
871.073	14.31
871.243	11.84
871.412	16.86
871.582	14.45
871.751	15.62
871.921	18.83
872.091	19.06
872.26	13.22
872.43	11.26
872.599	15.02
872.769	16.43
872.938	16.02
873.108	19.44
873.277	17.49
873.446	18.58
873.616	17.06
873.785	18.26
873.955	19.65
874.124	20.95
874.293	20.02
874.463	19.19
874.632	18.05
874.801	18.54
874.971	12.38
875.14	15.24
875.309	18.92
875.478	22.41
875.647	19.05
875.817	20.42
875.986	22.61
876.155	24.86
876.324	27
876.493	27.87
876.662	24.7
876.831	27.51
877	25.32
877.17	22.88
877.339	18.01
877.508	20.22
877.677	17.92
877.846	13.61
878.015	8.44
878.184	6.25
878.352	5.55
878.521	7.92
878.69	7.89
878.859	10.28
879.028	12.67
879.197	16.7
879.366	17.08
879.534	20.74
879.703	24.83
879.872	27.14
880.041	27.63
880.21	27.73
880.378	26.68
880.547	28.01
880.716	27.8
880.884	28.21
881.053	27.88
881.222	29.18
881.39	30.54
881.559	30.09
881.727	29.71
881.896	29.98
882.065	31.06
882.233	31.3
882.402	31.38
882.57	31.38
882.739	31.16
882.907	31.11
883.076	30.82
883.244	29.36
883.412	29.91
883.581	29.85
883.749	29.56
883.918	29.01
884.086	29.36
884.254	29.19
884.423	28.68
884.591	29.93
884.759	30.03
884.927	29.48
885.096	29.97
885.264	29.86
885.432	30.73
885.6	30.62
885.769	29.49
885.937	28.95
886.105	28.23
886.273	29.16
886.441	26.4
886.609	27.33
886.777	27.27
886.945	25.98
887.113	25.84
887.281	22.95
887.449	22.57
887.617	23.24
887.785	22.57
887.953	23.53
888.121	25.63
888.289	25.32
888.457	21.91
888.625	21.39
888.793	24.27
888.961	22.49
889.129	26.81
889.296	30.02
889.464	30.77
889.632	32.84
889.8	34.38
889.967	30.73
890.135	33.22
