Data from 2938558_Reflection_1.txt Node
Date: Sun Jun 14 23:32:33 EDT 2015
User: robert
Spectrometer: USB4E03002
Autoset integration time: false
Trigger mode: 4
Integration Time (sec): 1.000000E-1
Scans to average: 10
Electric dark correction enabled: true
Nonlinearity correction enabled: false
Boxcar width: 5
Stray light correction enabled: false
XAxis mode: Wavelengths
Stop averaging: false
Number of Pixels in Spectrum: 3648
>>>>>Begin Spectral Data<<<<<
177.575	-230.82
177.794	684.57
178.014	-320.66
178.233	130.34
178.452	102.61
178.672	-115.59
178.891	-23.45
179.11	-7.08
179.33	9.6
179.549	18.77
179.768	48.71
179.987	-6.98
180.207	-17.88
180.426	7.91
180.645	21.39
180.864	-23.69
181.084	-7.66
181.303	5.85
181.522	12.86
181.741	-3.6
181.96	-105.49
182.179	-132.99
182.398	-13.03
182.618	-10.32
182.837	0.09
183.056	13.9
183.275	34.3
183.494	69.46
183.713	55.8
183.932	43.43
184.151	26.57
184.37	50
184.589	70.38
184.808	8.63
185.027	16.88
185.246	222.31
185.465	54.42
185.684	13.15
185.903	59.62
186.122	-24.48
186.341	61.94
186.56	163.52
186.779	163.46
186.998	109.81
187.216	78.06
187.435	73.67
187.654	86.56
187.873	28.23
188.092	-1.74
188.311	-53.75
188.53	3.5
188.748	126.44
188.967	124.86
189.186	379.58
189.405	365.78
189.623	35.87
189.842	101.59
190.061	182.46
190.28	-177.57
190.498	137.29
190.717	94.9
190.936	108.35
191.154	110.2
191.373	118.3
191.592	138.52
191.81	87.92
192.029	41.85
192.248	42.78
192.466	48.82
192.685	30.83
192.904	-119.69
193.122	435.47
193.341	-4262.2
193.559	349.42
193.778	-603.06
193.996	-428.43
194.215	-156.72
194.433	-98.84
194.652	-68.97
194.87	-14.23
195.089	17.96
195.307	-9.18
195.526	-62.13
195.744	-22.84
195.963	7.38
196.181	-7.34
196.399	-9.98
196.618	-95.79
196.836	-44.57
197.055	-29.49
197.273	-77.92
197.491	-361.65
197.71	-227.51
197.928	-77.42
198.146	-88.27
198.365	-331.22
198.583	-362.28
198.801	-58.17
199.019	-7.85
199.238	109.09
199.456	42.35
199.674	84.94
199.892	95.04
200.111	121.43
200.329	295.61
200.547	185.28
200.765	154.78
200.983	118.96
201.202	118.38
201.42	96.91
201.638	71.56
201.856	74.37
202.074	64.34
202.292	57.71
202.51	26.43
202.728	40.42
202.946	48.14
203.165	67.65
203.383	22.14
203.601	-359.84
203.819	357.21
204.037	3444.44
204.255	410.72
204.473	317.86
204.691	221.28
204.909	222.94
205.127	201.67
205.345	278.56
205.562	332.21
205.78	563.41
205.998	-699.24
206.216	789.66
206.434	2478.16
206.652	211.87
206.87	161.12
207.088	270.25
207.306	388
207.523	119.88
207.741	82.11
207.959	84.19
208.177	67.48
208.395	69.67
208.612	69.33
208.83	51.33
209.048	53.44
209.266	31.14
209.483	29.08
209.701	23.72
209.919	31.3
210.136	6.26
210.354	24.51
210.572	2.58
210.79	-28.14
211.007	-57.46
211.225	-300.41
211.442	112.68
211.66	21.86
211.878	16.93
212.095	157.9
212.313	118.81
212.53	114.93
212.748	81.86
212.966	86.45
213.183	95.06
213.401	71.08
213.618	55.43
213.836	62.81
214.053	58.89
214.271	72.57
214.488	-30.27
214.705	-0.59
214.923	-9.24
215.14	23.75
215.358	19.55
215.575	-15.47
215.793	45.3
216.01	94.76
216.227	100.78
216.445	176.34
216.662	74.68
216.879	61.05
217.097	91.48
217.314	87.82
217.531	23.21
217.749	-1.44
217.966	-12.43
218.183	-83.15
218.4	-11.22
218.618	-60.72
218.835	-72.54
219.052	-60.91
219.269	-42.83
219.487	-51.26
219.704	-57.13
219.921	-47.89
220.138	-19.19
220.355	-13.92
220.572	-18.48
220.79	-20.88
221.007	0.54
221.224	16.3
221.441	23.3
221.658	21.34
221.875	24.12
222.092	34.71
222.309	20.05
222.526	11.16
222.743	18.68
222.96	22.48
223.177	16.74
223.394	16.33
223.611	16.39
223.828	10.17
224.045	8.44
224.262	6.45
224.479	3.98
224.696	10.68
224.913	7.6
225.13	0.23
225.347	0.8
225.564	2.17
225.781	3.17
225.997	4.74
226.214	5.93
226.431	4.94
226.648	5.94
226.865	6.28
227.082	5.87
227.298	7.14
227.515	8.76
227.732	9.59
227.949	9.03
228.165	9.03
228.382	7.83
228.599	7.43
228.816	8.88
229.032	7.77
229.249	7.35
229.466	6.97
229.682	6.26
229.899	6.03
230.116	5.38
230.332	6.35
230.549	5.53
230.765	4.13
230.982	4.59
231.199	5.04
231.415	7.03
231.632	7.38
231.848	8.53
232.065	8.74
232.281	6.82
232.498	7.59
232.714	7.99
232.931	8.64
233.147	13.03
233.364	14.43
233.58	14.36
233.797	13.88
234.013	13.73
234.23	13.14
234.446	11.65
234.662	13.08
234.879	11.47
235.095	10.87
235.312	10.65
235.528	9.64
235.744	7.3
235.961	7.41
236.177	7.78
236.393	7.51
236.61	5.56
236.826	6.16
237.042	5.06
237.258	5.65
237.475	5.33
237.691	6.51
237.907	3.35
238.123	5.47
238.339	4.74
238.556	4.28
238.772	3.96
238.988	5.75
239.204	7.02
239.42	6.51
239.636	7.49
239.853	8.28
240.069	8.42
240.285	9.56
240.501	9.11
240.717	8.96
240.933	8.91
241.149	9.49
241.365	9.96
241.581	9.13
241.797	10.2
242.013	9.78
242.229	9.43
242.445	9.13
242.661	8.96
242.877	9.62
243.093	10.09
243.309	10.35
243.525	9.62
243.741	8.17
243.957	8.78
244.173	8.28
244.388	8.12
244.604	7.58
244.82	7.72
245.036	7.68
245.252	7.24
245.468	7.46
245.683	7.38
245.899	7.47
246.115	7.88
246.331	7.77
246.547	7.37
246.762	7.65
246.978	8.1
247.194	8.15
247.409	8.11
247.625	8.23
247.841	7.38
248.057	7.23
248.272	7.59
248.488	7.39
248.703	7.4
248.919	8
249.135	7.11
249.35	7.21
249.566	6.5
249.782	6.1
249.997	5.7
250.213	6.75
250.428	7.31
250.644	7.28
250.859	7.14
251.075	6.73
251.29	7.08
251.506	8.43
251.721	6.9
251.937	7.34
252.152	8.13
252.368	8.69
252.583	8.04
252.798	6.42
253.014	5.53
253.229	6.06
253.445	6.14
253.66	6.41
253.875	3.6
254.091	3.76
254.306	4.39
254.521	3.86
254.737	3.74
254.952	3.99
255.167	4.59
255.383	5.22
255.598	5.31
255.813	5.73
256.028	5.05
256.244	5.56
256.459	5.98
256.674	5.33
256.889	4.92
257.104	5.16
257.32	5.2
257.535	5.52
257.75	5.66
257.965	5.46
258.18	5.19
258.395	5.19
258.61	5.22
258.826	5.36
259.041	5.28
259.256	5.44
259.471	5.13
259.686	4.78
259.901	4.62
260.116	4.11
260.331	4.06
260.546	4.42
260.761	4.79
260.976	4.52
261.191	4.22
261.406	4.48
261.621	5.17
261.836	5.25
262.05	6.57
262.265	6.58
262.48	6.81
262.695	7.25
262.91	6.76
263.125	5.58
263.34	5.58
263.555	5.69
263.769	5.06
263.984	3.8
264.199	4.07
264.414	3.35
264.629	3.77
264.843	4.35
265.058	3.63
265.273	3.84
265.488	4.46
265.702	4.85
265.917	4.9
266.132	4.82
266.346	5.51
266.561	5.15
266.776	5.02
266.99	5.01
267.205	4.64
267.42	5.09
267.634	5.17
267.849	4.58
268.063	4.9
268.278	5.1
268.492	5.72
268.707	5.17
268.922	5.4
269.136	5.3
269.351	4.91
269.565	5.16
269.78	5.47
269.994	4.93
270.209	4.7
270.423	4.4
270.637	4.36
270.852	4.28
271.066	4.29
271.281	4.09
271.495	4.43
271.709	4.66
271.924	4.57
272.138	4.04
272.353	4.05
272.567	4.55
272.781	4.11
272.996	4.09
273.21	4.32
273.424	4.46
273.638	5.21
273.853	5.42
274.067	5.69
274.281	5.34
274.495	5.15
274.71	5.26
274.924	5.17
275.138	5.61
275.352	5.19
275.566	5.16
275.781	5.26
275.995	4.66
276.209	4.34
276.423	4.33
276.637	4.42
276.851	4.86
277.065	5.84
277.279	6.19
277.493	6.35
277.707	6
277.921	5.74
278.135	5.37
278.349	5.28
278.563	4.53
278.777	4.34
278.991	4.57
279.205	4.32
279.419	4.01
279.633	3.81
279.847	3.8
280.061	4.15
280.275	3.74
280.489	4.05
280.703	4.33
280.917	4.91
281.131	4.95
281.344	4.56
281.558	4.71
281.772	4.69
281.986	4.6
282.2	4.48
282.414	4.84
282.627	5.07
282.841	5.04
283.055	5.12
283.269	5.01
283.482	4.91
283.696	5.02
283.91	4.62
284.123	4.54
284.337	4.71
284.551	5.21
284.764	5.16
284.978	5.32
285.192	5.56
285.405	5.4
285.619	5.7
285.833	5.84
286.046	5.93
286.26	6.24
286.473	6.19
286.687	6.08
286.9	5.79
287.114	5.77
287.327	5.63
287.541	5.11
287.754	5.35
287.968	5.19
288.181	5.46
288.395	5.77
288.608	5.81
288.822	5.83
289.035	5.95
289.248	5.43
289.462	5.35
289.675	5.26
289.889	5.49
290.102	5.41
290.315	5.18
290.529	4.79
290.742	4.25
290.955	4.55
291.169	4.62
291.382	4.66
291.595	5.25
291.808	5.31
292.022	6.12
292.235	6.22
292.448	6.15
292.661	6.55
292.875	6.57
293.088	7.02
293.301	6.84
293.514	6.79
293.727	6.75
293.94	6.71
294.153	6.94
294.367	6.39
294.58	6.44
294.793	6.33
295.006	5.77
295.219	5.74
295.432	5.34
295.645	5.31
295.858	5.13
296.071	5.06
296.284	4.92
296.497	4.73
296.71	4.66
296.923	4.25
297.136	4.09
297.349	4.29
297.562	4.32
297.775	4.71
297.988	4.77
298.201	4.93
298.414	4.84
298.626	4.99
298.839	5.22
299.052	5.33
299.265	5.96
299.478	6.41
299.691	6.77
299.903	6.43
300.116	6.67
300.329	6.59
300.542	6.37
300.755	6.43
300.967	6.25
301.18	5.86
301.393	5.68
301.605	5.46
301.818	5.25
302.031	4.98
302.243	5.43
302.456	5.1
302.669	4.92
302.881	5.5
303.094	5.83
303.307	5.75
303.519	5.9
303.732	6.05
303.944	5.68
304.157	5.68
304.37	5.5
304.582	5.3
304.795	5.06
305.007	5.15
305.22	5.3
305.432	5.41
305.645	5.63
305.857	5.03
306.069	4.95
306.282	5.11
306.494	5.33
306.707	5.54
306.919	5.67
307.132	5.95
307.344	6.08
307.556	5.75
307.769	5.58
307.981	5.41
308.193	5.78
308.406	5.84
308.618	5.83
308.83	5.66
309.043	5.57
309.255	5.34
309.467	5.36
309.679	5.4
309.892	5.34
310.104	5.34
310.316	5.09
310.528	5.08
310.74	5.15
310.953	5.24
311.165	5.6
311.377	5.37
311.589	5.96
311.801	6.29
312.013	6.35
312.225	6.38
312.437	6.16
312.649	7.21
312.862	7.42
313.074	7.12
313.286	6.87
313.498	6.5
313.71	6.97
313.922	6.59
314.134	6.58
314.346	6.15
314.558	6.3
314.77	6
314.982	5.54
315.193	5.81
315.405	6.26
315.617	6.43
315.829	6.41
316.041	6.23
316.253	6.1
316.465	5.78
316.677	5.99
316.888	5.96
317.1	6.45
317.312	6.42
317.524	6.09
317.736	5.84
317.947	6.33
318.159	6.31
318.371	6.43
318.583	6.35
318.794	5.93
319.006	6.24
319.218	6.42
319.43	6.47
319.641	5.94
319.853	5.91
320.064	6.5
320.276	6.05
320.488	6.07
320.699	5.95
320.911	6.23
321.123	6.28
321.334	6.1
321.546	6.38
321.757	6.21
321.969	6.86
322.18	7.05
322.392	6.11
322.603	6.24
322.815	6.33
323.026	6.51
323.238	6.66
323.449	6.57
323.661	6.92
323.872	6.86
324.083	7.05
324.295	6.59
324.506	6.48
324.718	7.23
324.929	6.93
325.14	6.83
325.352	7.04
325.563	6.86
325.774	7.28
325.986	6.9
326.197	6.93
326.408	7.24
326.62	7.38
326.831	7.31
327.042	6.69
327.253	7.35
327.464	7.66
327.676	7.16
327.887	7.2
328.098	6.75
328.309	6.91
328.52	6.54
328.732	6.13
328.943	6.14
329.154	6.38
329.365	6.66
329.576	6.7
329.787	6.54
329.998	6.74
330.209	6.6
330.42	6.89
330.631	6.81
330.842	6.75
331.053	6.61
331.264	6.76
331.475	6.72
331.686	6.42
331.897	6.15
332.108	5.95
332.319	6.23
332.53	6.06
332.741	6.38
332.952	6.48
333.163	6.76
333.374	7.06
333.585	7.1
333.795	7.03
334.006	7.73
334.217	7.74
334.428	8.12
334.639	8.04
334.849	8.48
335.06	8.29
335.271	8.09
335.482	8.22
335.692	8.1
335.903	8.05
336.114	8.08
336.325	7.51
336.535	7.41
336.746	7.09
336.957	7.17
337.167	7.06
337.378	6.88
337.589	6.96
337.799	6.88
338.01	7.27
338.22	7.06
338.431	7.08
338.642	7.25
338.852	7.27
339.063	7.09
339.273	7.04
339.484	6.99
339.694	6.8
339.905	6.65
340.115	6.22
340.326	5.65
340.536	5.71
340.746	5.59
340.957	5.87
341.167	5.94
341.378	6.23
341.588	6.49
341.799	6.32
342.009	6.33
342.219	6.32
342.43	6.66
342.64	6.75
342.85	6.75
343.061	6.73
343.271	6.33
343.481	6.15
343.691	6.31
343.902	6.02
344.112	6.16
344.322	6.58
344.532	6.5
344.743	6.31
344.953	6.2
345.163	6.16
345.373	6.1
345.583	6.27
345.793	6.36
346.004	5.64
346.214	5.65
346.424	5.76
346.634	5.3
346.844	5.52
347.054	5.58
347.264	5.76
347.474	5.81
347.684	6.1
347.894	5.94
348.104	5.82
348.314	6.42
348.524	6.04
348.734	6
348.944	6.47
349.154	6.64
349.364	6.49
349.574	6.21
349.784	6.41
349.994	6.11
350.204	6.49
350.413	6.45
350.623	6.78
350.833	7.06
351.043	6.82
351.253	6.6
351.463	6.25
351.672	6.16
351.882	6.31
352.092	6.33
352.302	6.37
352.511	6.13
352.721	6.41
352.931	6.16
353.141	6.15
353.35	6.36
353.56	6.35
353.77	6.59
353.979	6.69
354.189	6.76
354.399	6.71
354.608	6.63
354.818	6.71
355.027	6.67
355.237	6.41
355.447	6.45
355.656	6.42
355.866	6.63
356.075	6.63
356.285	6.89
356.494	6.66
356.704	6.74
356.913	6.9
357.123	6.94
357.332	7.03
357.542	6.99
357.751	6.98
357.96	7.04
358.17	6.54
358.379	6.36
358.589	6.11
358.798	6.21
359.007	6.05
359.217	5.93
359.426	5.84
359.635	5.7
359.845	5.66
360.054	5.69
360.263	5.72
360.472	6.08
360.682	6.23
360.891	6.13
361.1	6.1
361.309	6.17
361.519	6.32
361.728	6.24
361.937	6.35
362.146	6.47
362.355	6.38
362.564	6.3
362.774	6.07
362.983	5.84
363.192	5.96
363.401	5.93
363.61	5.95
363.819	6.12
364.028	6.2
364.237	5.94
364.446	6.27
364.655	6.19
364.864	5.92
365.073	5.84
365.282	6
365.491	5.99
365.7	6.27
365.909	5.95
366.118	5.7
366.327	5.58
366.536	5.77
366.745	5.79
366.954	5.97
367.162	6.32
367.371	6.29
367.58	6.24
367.789	6.36
367.998	6.36
368.207	6.69
368.415	6.59
368.624	6.44
368.833	6.26
369.042	6
369.25	5.83
369.459	5.84
369.668	5.77
369.877	5.74
370.085	5.82
370.294	5.92
370.503	5.92
370.711	5.82
370.92	6.11
371.129	6.07
371.337	5.75
371.546	5.72
371.754	5.51
371.963	5.66
372.171	5.65
372.38	5.66
372.589	5.46
372.797	5.35
373.006	5.12
373.214	5.02
373.423	4.87
373.631	5.03
373.84	4.77
374.048	4.84
374.256	4.69
374.465	4.58
374.673	4.4
374.882	4.28
375.09	4.38
375.298	4.68
375.507	4.79
375.715	5.03
375.923	4.75
376.132	5.12
376.34	4.95
376.548	5.08
376.757	5.18
376.965	5.21
377.173	4.96
377.381	5.05
377.59	5.06
377.798	5.16
378.006	5.04
378.214	5.31
378.423	5.15
378.631	5.3
378.839	5.14
379.047	4.95
379.255	4.83
379.463	4.91
379.671	4.74
379.879	4.35
380.088	4.17
380.296	4.04
380.504	3.81
380.712	3.84
380.92	4
381.128	4.3
381.336	4.55
381.544	4.47
381.752	4.56
381.96	4.5
382.168	4.76
382.376	4.55
382.584	4.74
382.791	4.79
382.999	4.81
383.207	4.59
383.415	4.3
383.623	4.32
383.831	4.27
384.039	4.1
384.247	4.23
384.454	4.39
384.662	4.56
384.87	4.58
385.078	4.49
385.285	4.41
385.493	4.29
385.701	4.53
385.909	4.55
386.116	4.57
386.324	4.85
386.532	4.71
386.739	4.59
386.947	4.6
387.155	4.59
387.362	4.71
387.57	4.8
387.778	4.82
387.985	4.52
388.193	4.43
388.4	4.52
388.608	4.51
388.816	4.22
389.023	4.32
389.231	4.52
389.438	4.33
389.646	4.49
389.853	4.51
390.061	4.59
390.268	4.79
390.475	4.78
390.683	4.78
390.89	4.55
391.098	4.77
391.305	4.53
391.512	4.09
391.72	4.3
391.927	4.36
392.135	4.35
392.342	4.3
392.549	4.21
392.756	4.1
392.964	3.97
393.171	4.22
393.378	4.06
393.586	4.02
393.793	4.23
394	3.93
394.207	3.64
394.414	3.31
394.622	3.26
394.829	3.11
395.036	3.19
395.243	3.23
395.45	3.2
395.657	3.03
395.864	3.22
396.072	3.37
396.279	3.6
396.486	3.71
396.693	3.95
396.9	3.97
397.107	4.14
397.314	4.1
397.521	4.18
397.728	4.22
397.935	4.32
398.142	4.23
398.349	4.16
398.556	4.13
398.763	3.98
398.97	3.97
399.177	3.87
399.383	3.92
399.59	4
399.797	4.03
400.004	3.84
400.211	3.99
400.418	3.9
400.625	3.76
400.831	3.61
401.038	3.77
401.245	3.74
401.452	3.78
401.658	3.53
401.865	3.34
402.072	3.18
402.279	3.26
402.485	3.27
402.692	3.42
402.899	3.48
403.105	3.61
403.312	3.45
403.519	3.34
403.725	3.34
403.932	3.47
404.138	3.25
404.345	3.29
404.552	3.3
404.758	3.35
404.965	3.36
405.171	3.24
405.378	3.4
405.584	3.46
405.791	3.66
405.997	3.67
406.204	3.71
406.41	4.08
406.617	4.2
406.823	3.98
407.029	3.86
407.236	3.83
407.442	3.88
407.649	3.54
407.855	3.59
408.061	3.41
408.268	3.55
408.474	3.3
408.68	3.21
408.887	3.02
409.093	3.09
409.299	3.15
409.505	3.15
409.712	3.29
409.918	3.25
410.124	3.17
410.33	3.21
410.537	3.14
410.743	3.48
410.949	3.57
411.155	3.56
411.361	3.52
411.567	3.37
411.773	3.35
411.98	3.38
412.186	3.44
412.392	3.53
412.598	3.46
412.804	3.24
413.01	2.99
413.216	3
413.422	3.01
413.628	3.05
413.834	3.11
414.04	3.02
414.246	2.87
414.452	2.79
414.658	2.67
414.864	2.92
415.07	2.9
415.275	2.87
415.481	2.69
415.687	2.67
415.893	2.71
416.099	2.64
416.305	2.64
416.511	2.6
416.716	2.8
416.922	2.89
417.128	2.71
417.334	2.72
417.539	2.77
417.745	2.81
417.951	2.77
418.157	2.79
418.362	2.82
418.568	2.86
418.774	2.83
418.979	2.78
419.185	2.81
419.391	2.86
419.596	2.89
419.802	2.9
420.008	2.93
420.213	2.19
420.419	2.08
420.624	2.07
420.83	2
421.035	2.07
421.241	2.1
421.446	2.05
421.652	2.13
421.857	2.14
422.063	2.15
422.268	2.15
422.474	3
422.679	3.07
422.885	3.01
423.09	3.03
423.295	2.99
423.501	3.03
423.706	3.03
423.911	2.94
424.117	2.9
424.322	2.88
424.527	2.85
424.733	2.73
424.938	2.7
425.143	2.8
425.349	2.8
425.554	2.86
425.759	2.72
425.964	2.54
426.169	2.51
426.375	2.49
426.58	2.44
426.785	2.46
426.99	2.48
427.195	2.48
427.4	2.32
427.605	2.31
427.811	2.29
428.016	2.31
428.221	2.51
428.426	2.47
428.631	2.53
428.836	2.64
429.041	2.79
429.246	2.73
429.451	2.72
429.656	2.78
429.861	2.83
430.066	2.77
430.271	2.79
430.476	2.77
430.681	2.79
430.886	2.85
431.09	2.85
431.295	2.64
431.5	2.8
431.705	2.88
431.91	2.91
432.115	2.92
432.32	2.92
432.524	2.93
432.729	2.93
432.934	2.95
433.139	2.87
433.343	2.81
433.548	2.82
433.753	2.69
433.958	2.56
434.162	2.55
434.367	2.56
434.572	2.56
434.776	2.61
434.981	2.62
435.186	2.67
435.39	2.66
435.595	2.74
435.799	2.82
436.004	2.89
436.209	2.87
436.413	2.93
436.618	2.83
436.822	2.83
437.027	2.68
437.231	2.68
437.436	2.65
437.64	2.7
437.845	2.62
438.049	2.58
438.253	2.52
438.458	2.54
438.662	2.54
438.867	2.52
439.071	2.5
439.275	2.52
439.48	2.51
439.684	2.49
439.888	2.4
440.093	2.35
440.297	2.38
440.501	2.37
440.706	2.35
440.91	2.27
441.114	2.42
441.318	2.37
441.523	2.49
441.727	2.44
441.931	2.47
442.135	2.59
442.339	2.64
442.543	2.69
442.748	2.71
442.952	2.68
443.156	2.66
443.36	2.55
443.564	2.54
443.768	2.44
443.972	2.39
444.176	2.35
444.38	2.3
444.584	2.3
444.788	2.25
444.992	2.25
445.196	2.33
445.4	2.4
445.604	2.33
445.808	2.32
446.012	2.32
446.216	2.4
446.42	2.36
446.624	2.31
446.828	2.34
447.032	2.2
447.235	2.24
447.439	2.16
447.643	2.13
447.847	2.17
448.051	2.19
448.254	2.14
448.458	2.05
448.662	2.14
448.866	2.18
449.069	2.16
449.273	2.37
449.477	2.31
449.681	2.28
449.884	2.21
450.088	2.29
450.292	2.2
450.495	2.33
450.699	2.39
450.902	2.34
451.106	2.36
451.31	2.34
451.513	2.35
451.717	2.38
451.92	2.38
452.124	2.47
452.327	2.34
452.531	2.34
452.734	2.25
452.938	2.24
453.141	2.13
453.345	2.13
453.548	2.16
453.752	2.06
453.955	2.07
454.158	2.09
454.362	2.1
454.565	2.16
454.769	2.31
454.972	2.42
455.175	2.35
455.379	2.46
455.582	2.48
455.785	2.42
455.988	2.53
456.192	2.45
456.395	2.53
456.598	2.48
456.801	2.51
457.005	2.54
457.208	2.5
457.411	2.59
457.614	2.57
457.817	2.56
458.021	2.52
458.224	2.48
458.427	2.62
458.63	2.62
458.833	2.6
459.036	2.59
459.239	2.55
459.442	2.49
459.645	2.47
459.848	2.49
460.051	2.53
460.254	2.6
460.457	2.5
460.66	2.34
460.863	2.21
461.066	2.33
461.269	2.3
461.472	2.28
461.675	2.28
461.878	2.24
462.081	2.13
462.284	1.95
462.486	1.9
462.689	1.99
462.892	2.1
463.095	2.18
463.298	2.1
463.5	2.16
463.703	2.14
463.906	2.23
464.109	2.38
464.311	2.4
464.514	2.61
464.717	2.69
464.92	2.63
465.122	2.53
465.325	2.52
465.528	2.41
465.73	2.37
465.933	2.3
466.135	2.24
466.338	2.2
466.541	2.18
466.743	2.11
466.946	2
467.148	1.98
467.351	2.06
467.553	2.17
467.756	2.21
467.958	2.37
468.161	2.55
468.363	2.52
468.566	2.3
468.768	2.45
468.971	2.42
469.173	2.45
469.375	2.52
469.578	2.31
469.78	2.2
469.983	2.26
470.185	2.16
470.387	2.05
470.59	2.07
470.792	2.14
470.994	2.02
471.196	2.05
471.399	2.02
471.601	2.07
471.803	2.11
472.005	2.09
472.208	2.02
472.41	1.88
472.612	1.84
472.814	1.87
473.016	1.9
473.218	1.95
473.421	1.98
473.623	2.1
473.825	2.08
474.027	2.19
474.229	2.14
474.431	2.17
474.633	2.25
474.835	2.23
475.037	2.24
475.239	2.23
475.441	2.22
475.643	2.17
475.845	2.12
476.047	2.06
476.249	2.11
476.451	2.19
476.653	2.14
476.855	2.2
477.057	2.19
477.258	2.19
477.46	2.27
477.662	2.31
477.864	2.28
478.066	2.26
478.268	2.31
478.469	2.28
478.671	2.2
478.873	2.22
479.075	2.16
479.276	2.1
479.478	2.09
479.68	2.07
479.882	2.05
480.083	2.07
480.285	2.11
480.487	2.17
480.688	2.17
480.89	2.22
481.091	2.24
481.293	2.25
481.495	2.28
481.696	2.27
481.898	2.26
482.099	2.24
482.301	2.23
482.502	2.24
482.704	2.21
482.905	2.2
483.107	2.19
483.308	2.18
483.51	2.18
483.711	2.18
483.913	2.17
484.114	2.15
484.315	2.17
484.517	2.18
484.718	2.17
484.92	2.18
485.121	2.19
485.322	2.23
485.524	2.22
485.725	2.21
485.926	2.2
486.127	2.19
486.329	2.22
486.53	2.18
486.731	2.14
486.932	2.09
487.134	2.08
487.335	2.06
487.536	2.03
487.737	1.99
487.938	1.99
488.139	2.05
488.341	2.04
488.542	2.02
488.743	2.06
488.944	2.12
489.145	2.17
489.346	2.15
489.547	2.13
489.748	2.14
489.949	2.22
490.15	2.25
490.351	2.18
490.552	2.22
490.753	2.21
490.954	2.23
491.155	2.25
491.356	2.23
491.557	2.24
491.758	2.25
491.959	2.3
492.159	2.26
492.36	2.23
492.561	2.3
492.762	2.3
492.963	2.31
493.164	2.28
493.364	2.3
493.565	2.34
493.766	2.35
493.967	2.41
494.167	2.33
494.368	2.33
494.569	2.42
494.769	2.41
494.97	2.41
495.171	2.43
495.371	2.39
495.572	2.37
495.773	2.42
495.973	2.47
496.174	2.41
496.375	2.42
496.575	2.42
496.776	2.37
496.976	2.29
497.177	2.29
497.377	2.3
497.578	2.32
497.778	2.26
497.979	2.32
498.179	2.31
498.38	2.36
498.58	2.35
498.78	2.43
498.981	2.47
499.181	2.63
499.382	2.62
499.582	2.57
499.782	2.61
499.983	2.66
500.183	2.61
500.383	2.52
500.584	2.64
500.784	2.68
500.984	2.65
501.184	2.65
501.385	2.5
501.585	2.54
501.785	2.58
501.985	2.61
502.185	2.63
502.386	2.56
502.586	2.61
502.786	2.54
502.986	2.51
503.186	2.6
503.386	2.59
503.586	2.68
503.786	2.63
503.987	2.67
504.187	2.7
504.387	2.69
504.587	2.67
504.787	2.73
504.987	2.7
505.187	2.65
505.387	2.53
505.587	2.53
505.786	2.54
505.986	2.67
506.186	2.64
506.386	2.64
506.586	2.58
506.786	2.57
506.986	2.51
507.186	2.49
507.386	2.55
507.585	2.62
507.785	2.7
507.985	2.71
508.185	2.7
508.384	2.7
508.584	2.65
508.784	2.71
508.984	2.81
509.183	2.88
509.383	2.99
509.583	3.04
509.782	3.03
509.982	2.94
510.182	2.98
510.381	2.98
510.581	3.05
510.781	3.17
510.98	3.19
511.18	3.13
511.379	3.11
511.579	3.12
511.778	3.16
511.978	3.22
512.177	3.25
512.377	3.23
512.576	3.26
512.776	3.18
512.975	3.11
513.175	3.2
513.374	3.26
513.573	3.28
513.773	3.21
513.972	3.14
514.172	3.09
514.371	3.13
514.57	3.17
514.77	3.11
514.969	3.22
515.168	3.2
515.367	3.19
515.567	3.12
515.766	3.11
515.965	3.24
516.164	3.39
516.364	3.44
516.563	3.49
516.762	3.52
516.961	3.58
517.16	3.59
517.359	3.69
517.559	3.69
517.758	3.77
517.957	3.84
518.156	3.79
518.355	3.71
518.554	3.77
518.753	3.76
518.952	3.72
519.151	3.78
519.35	3.8
519.549	3.74
519.748	3.69
519.947	3.75
520.146	3.71
520.345	3.71
520.544	3.72
520.743	3.64
520.942	3.65
521.141	3.74
521.339	3.77
521.538	3.79
521.737	3.83
521.936	3.89
522.135	3.87
522.333	3.96
522.532	3.96
522.731	4.02
522.93	4.15
523.129	4.21
523.327	4.16
523.526	4.17
523.725	4.15
523.923	4.21
524.122	4.29
524.321	4.28
524.519	4.23
524.718	4.32
524.917	4.35
525.115	4.32
525.314	4.34
525.512	4.39
525.711	4.38
525.909	4.43
526.108	4.47
526.306	4.45
526.505	4.5
526.703	4.53
526.902	4.52
527.1	4.51
527.299	4.51
527.497	4.53
527.696	4.5
527.894	4.52
528.092	4.51
528.291	4.48
528.489	4.47
528.688	4.44
528.886	4.43
529.084	4.45
529.283	4.5
529.481	4.54
529.679	4.49
529.877	4.57
530.076	4.58
530.274	4.6
530.472	4.66
530.67	4.66
530.869	4.76
531.067	4.82
531.265	4.82
531.463	4.82
531.661	4.8
531.859	4.86
532.057	4.84
532.255	4.87
532.454	4.88
532.652	4.9
532.85	4.96
533.048	4.94
533.246	4.93
533.444	4.94
533.642	4.92
533.84	4.97
534.038	4.99
534.236	5.06
534.434	5.07
534.632	5.14
534.83	5.16
535.027	5.17
535.225	5.26
535.423	5.3
535.621	5.31
535.819	5.35
536.017	5.32
536.215	5.34
536.412	5.29
536.61	5.32
536.808	5.34
537.006	5.32
537.203	5.36
537.401	5.29
537.599	5.28
537.797	5.31
537.994	5.31
538.192	5.34
538.39	5.4
538.587	5.49
538.785	5.5
538.983	5.5
539.18	5.52
539.378	5.56
539.575	5.6
539.773	5.66
539.97	5.72
540.168	5.71
540.366	5.78
540.563	5.78
540.761	5.79
540.958	5.79
541.155	5.87
541.353	5.87
541.55	5.83
541.748	5.87
541.945	5.93
542.143	5.89
542.34	5.98
542.537	6.01
542.735	6.01
542.932	6.1
543.129	6.19
543.327	6.18
543.524	6.23
543.721	6.35
543.919	6.4
544.116	6.39
544.313	6.43
544.51	6.42
544.708	6.44
544.905	6.49
545.102	6.52
545.299	6.52
545.496	6.55
545.693	6.64
545.891	6.71
546.088	6.69
546.285	6.67
546.482	6.77
546.679	6.84
546.876	6.92
547.073	6.97
547.27	6.97
547.467	7.05
547.664	7.11
547.861	7.15
548.058	7.04
548.255	7.1
548.452	7.18
548.649	7.3
548.846	7.3
549.043	7.26
549.24	7.29
549.437	7.32
549.633	7.36
549.83	7.4
550.027	7.46
550.224	7.7
550.421	7.77
550.618	7.88
550.814	7.95
551.011	8.06
551.208	8.26
551.405	8.34
551.601	8.38
551.798	8.46
551.995	8.47
552.191	8.46
552.388	8.31
552.585	8.26
552.781	8.27
552.978	8.19
553.175	8.22
553.371	8.21
553.568	8.22
553.764	8.35
553.961	8.32
554.157	8.34
554.354	8.45
554.55	8.55
554.747	8.74
554.943	8.79
555.14	8.86
555.336	8.88
555.533	8.86
555.729	8.98
555.926	8.98
556.122	9.06
556.318	9.19
556.515	9.3
556.711	9.39
556.907	9.42
557.104	9.58
557.3	9.7
557.496	9.83
557.693	10.02
557.889	10.05
558.085	10.14
558.281	10.09
558.478	10.13
558.674	10.21
558.87	10.27
559.066	10.39
559.262	10.42
559.459	10.44
559.655	10.45
559.851	10.46
560.047	10.4
560.243	10.42
560.439	10.57
560.635	10.65
560.831	10.65
561.027	10.76
561.223	10.83
561.419	10.86
561.615	11.05
561.811	11.17
562.007	11.29
562.203	11.43
562.399	11.39
562.595	11.54
562.791	11.61
562.987	11.63
563.183	11.73
563.379	11.8
563.575	11.82
563.771	11.77
563.966	11.79
564.162	11.91
564.358	11.95
564.554	12.12
564.75	12.12
564.945	12.21
565.141	12.3
565.337	12.4
565.533	12.4
565.728	12.42
565.924	12.53
566.12	12.63
566.315	12.57
566.511	12.63
566.707	12.67
566.902	12.73
567.098	12.79
567.293	12.86
567.489	12.86
567.684	12.78
567.88	12.89
568.076	12.87
568.271	12.95
568.467	13.02
568.662	13.11
568.858	13.24
569.053	13.33
569.248	13.27
569.444	13.31
569.639	13.29
569.835	13.51
570.03	13.59
570.225	13.75
570.421	13.72
570.616	13.84
570.812	13.89
571.007	13.86
571.202	13.97
571.397	14.08
571.593	14.11
571.788	14.23
571.983	14.25
572.178	14.37
572.374	14.34
572.569	14.37
572.764	14.37
572.959	14.49
573.154	14.57
573.35	14.55
573.545	14.54
573.74	14.65
573.935	14.67
574.13	14.79
574.325	14.78
574.52	14.82
574.715	14.93
574.91	14.9
575.105	14.82
575.3	14.89
575.495	14.95
575.69	15.03
575.885	15.1
576.08	15.09
576.275	15.16
576.47	15.14
576.665	15.15
576.86	15.25
577.055	15.25
577.25	15.31
577.444	15.38
577.639	15.45
577.834	15.51
578.029	15.54
578.224	15.79
578.418	15.81
578.613	15.87
578.808	15.99
579.003	15.94
579.197	15.99
579.392	16.22
579.587	16.18
579.781	16.1
579.976	16.07
580.171	16.06
580.365	16.01
580.56	15.95
580.755	15.88
580.949	15.79
581.144	15.72
581.338	15.81
581.533	15.71
581.727	15.66
581.922	15.76
582.116	15.93
582.311	16.04
582.505	16
582.7	16.08
582.894	16.28
583.089	16.32
583.283	16.45
583.478	16.59
583.672	16.57
583.866	16.67
584.061	16.73
584.255	16.66
584.449	16.63
584.644	16.75
584.838	16.78
585.032	16.7
585.226	16.8
585.421	16.85
585.615	16.85
585.809	16.93
586.003	16.97
586.198	16.95
586.392	17.07
586.586	17.19
586.78	17.1
586.974	17.08
587.168	17.04
587.363	17.11
587.557	17.17
587.751	17.04
587.945	16.95
588.139	17.08
588.333	17.15
588.527	17.09
588.721	17.05
588.915	17.18
589.109	17.27
589.303	17.41
589.497	17.51
589.691	17.53
589.885	17.76
590.079	17.88
590.273	17.86
590.466	17.91
590.66	18.03
590.854	18.09
591.048	18.16
591.242	18.25
591.436	18.38
591.629	18.41
591.823	18.47
592.017	18.49
592.211	18.64
592.404	18.68
592.598	18.57
592.792	18.54
592.986	18.65
593.179	18.56
593.373	18.45
593.567	18.43
593.76	18.21
593.954	18.21
594.147	18.15
594.341	18.11
594.535	18.06
594.728	18.14
594.922	18.22
595.115	18.23
595.309	18.28
595.502	18.33
595.696	18.4
595.889	18.45
596.083	18.4
596.276	18.44
596.47	18.36
596.663	18.48
596.856	18.51
597.05	18.43
597.243	18.26
597.437	18.36
597.63	18.31
597.823	18.21
598.017	18.21
598.21	18.25
598.403	18.21
598.596	18.21
598.79	18.16
598.983	17.97
599.176	18.08
599.369	18.23
599.563	18.17
599.756	18.28
599.949	18.25
600.142	18.43
600.335	18.63
600.528	18.7
600.722	18.65
600.915	18.77
601.108	19.06
601.301	19.01
601.494	19.07
601.687	19.05
601.88	19.03
602.073	19.23
602.266	19.17
602.459	19.13
602.652	19.2
602.845	19.32
603.038	19.26
603.231	19.23
603.424	19.28
603.617	19.16
603.809	19.23
604.002	19.2
604.195	19.05
604.388	19.08
604.581	19.09
604.774	19.07
604.966	19.07
605.159	19.14
605.352	19.18
605.545	19.13
605.737	19.24
605.93	19.31
606.123	19.42
606.316	19.53
606.508	19.55
606.701	19.43
606.894	19.29
607.086	19.31
607.279	19.23
607.471	19.15
607.664	19.29
607.857	19.14
608.049	19.12
608.242	19.15
608.434	19.17
608.627	19.21
608.819	19.27
609.012	19.41
609.204	19.3
609.397	19.31
609.589	19.46
609.782	19.38
609.974	19.66
610.166	19.63
610.359	19.67
610.551	19.62
610.743	19.62
610.936	19.65
611.128	19.52
611.32	19.81
611.513	20
611.705	20
611.897	20.06
612.09	19.98
612.282	19.84
612.474	19.79
612.666	19.86
612.858	19.88
613.051	20.04
613.243	20.09
613.435	19.93
613.627	19.79
613.819	19.63
614.011	19.66
614.203	19.63
614.395	19.7
614.588	19.62
614.78	19.67
614.972	19.7
615.164	19.71
615.356	19.65
615.548	19.79
615.74	19.86
615.932	19.93
616.124	19.88
616.315	19.94
616.507	20.04
616.699	20.09
616.891	19.98
617.083	19.96
617.275	19.79
617.467	20.07
617.659	19.93
617.85	20.01
618.042	19.8
618.234	19.68
618.426	19.63
618.618	19.57
618.809	19.57
619.001	19.67
619.193	19.67
619.384	19.92
619.576	19.77
619.768	19.81
619.959	19.75
620.151	19.87
620.343	19.82
620.534	19.96
620.726	20.08
620.917	20.19
621.109	20.22
621.301	20.12
621.492	19.88
621.684	19.96
621.875	19.95
622.067	19.89
622.258	20.08
622.45	20.34
622.641	20.23
622.832	20.27
623.024	20.31
623.215	20.09
623.407	20.08
623.598	20.03
623.789	19.98
623.981	20.12
624.172	20.17
624.363	19.89
624.555	20.02
624.746	20.03
624.937	20.01
625.129	19.96
625.32	20.14
625.511	20.3
625.702	20.41
625.893	20.53
626.085	20.4
626.276	20.33
626.467	20.7
626.658	20.59
626.849	20.58
627.04	20.6
627.231	20.59
627.422	20.5
627.614	20.44
627.805	20.52
627.996	20.48
628.187	20.84
628.378	20.78
628.569	20.68
628.76	20.62
628.951	20.61
629.142	20.55
629.332	20.65
629.523	20.87
629.714	21.01
629.905	20.96
630.096	21.03
630.287	20.74
630.478	20.87
630.669	20.79
630.859	20.98
631.05	21.07
631.241	20.96
631.432	20.91
631.623	20.88
631.813	20.75
632.004	20.76
632.195	20.74
632.385	20.94
632.576	20.83
632.767	20.96
632.957	20.81
633.148	20.77
633.339	21.05
633.529	21.1
633.72	20.99
633.91	21.09
634.101	20.93
634.292	20.68
634.482	20.46
634.673	20.64
634.863	20.5
635.054	20.48
635.244	20.66
635.435	20.62
635.625	20.62
635.815	20.75
636.006	20.57
636.196	20.69
636.387	20.83
636.577	20.75
636.767	20.69
636.958	20.81
637.148	21.03
637.338	20.73
637.529	20.7
637.719	20.68
637.909	20.74
638.099	20.91
638.29	21.07
638.48	21.2
638.67	21.64
638.86	21.66
639.05	21.62
639.241	21.38
639.431	21.66
639.621	21.44
639.811	21.21
640.001	21.3
640.191	21.3
640.381	21.24
640.571	21.05
640.761	20.84
640.951	20.88
641.141	20.71
641.331	20.89
641.521	20.92
641.711	21.12
641.901	21.36
642.091	21.27
642.281	21.16
642.471	21.21
642.661	21.41
642.851	21.3
643.041	21.33
643.231	21.48
643.42	21.54
643.61	21.63
643.8	21.79
643.99	21.76
644.18	21.86
644.369	22.02
644.559	21.9
644.749	21.58
644.939	21.48
645.128	21.51
645.318	21.11
645.508	20.98
645.697	20.77
645.887	20.57
646.076	20.91
646.266	20.82
646.456	20.88
646.645	21.01
646.835	21.4
647.024	21.47
647.214	21.3
647.403	21.67
647.593	21.61
647.782	21.62
647.972	21.79
648.161	21.65
648.351	21.46
648.54	21.4
648.73	21.19
648.919	21.07
649.108	21.16
649.298	21.17
649.487	21.15
649.677	21.2
649.866	21.14
650.055	21.19
650.244	21.27
650.434	21.33
650.623	21.31
650.812	21.46
651.002	21.54
651.191	21.64
651.38	21.6
651.569	21.61
651.758	21.8
651.947	21.98
652.137	21.84
652.326	21.65
652.515	21.79
652.704	21.83
652.893	21.83
653.082	21.86
653.271	21.92
653.46	22.3
653.649	22.42
653.838	22.19
654.027	22.19
654.216	22.11
654.405	22.11
654.594	22.02
654.783	22.07
654.972	22.22
655.161	22.11
655.35	22.15
655.539	21.89
655.728	21.9
655.916	21.93
656.105	21.78
656.294	21.81
656.483	21.95
656.672	22.08
656.86	21.94
657.049	21.75
657.238	21.92
657.427	21.79
657.615	21.63
657.804	21.68
657.993	21.83
658.181	21.85
658.37	22
658.559	22.01
658.747	22.03
658.936	22.23
659.125	22.28
659.313	22.21
659.502	22.11
659.69	22.3
659.879	22.46
660.067	22.36
660.256	22.48
660.444	22.34
660.633	22.13
660.821	21.95
661.01	21.76
661.198	21.8
661.387	21.9
661.575	22.09
661.763	22.04
661.952	21.85
662.14	22.04
662.328	22.01
662.517	22.13
662.705	22.2
662.893	22.26
663.082	22.58
663.27	22.51
663.458	22.37
663.646	22.14
663.834	22.28
664.023	22.13
664.211	21.88
664.399	21.72
664.587	21.65
664.775	21.75
664.963	21.69
665.152	21.57
665.34	21.43
665.528	21.51
665.716	21.92
665.904	22.16
666.092	22.21
666.28	22.44
666.468	22.63
666.656	22.77
666.844	22.59
667.032	22.69
667.22	22.66
667.408	22.85
667.596	22.86
667.784	22.59
667.971	22.38
668.159	22.47
668.347	22.53
668.535	22.54
668.723	22.32
668.911	22.73
669.098	22.88
669.286	22.99
669.474	23.24
669.662	23.2
669.849	23.21
670.037	23.41
670.225	23.26
670.413	23.09
670.6	23.12
670.788	23.19
670.976	22.88
671.163	23.12
671.351	23.04
671.538	23.03
671.726	23.3
671.913	23.34
672.101	23.1
672.289	23.37
672.476	23.36
672.664	23.17
672.851	23.09
673.039	23.08
673.226	22.76
673.413	22.7
673.601	22.64
673.788	22.48
673.976	22.68
674.163	22.67
674.35	22.39
674.538	22.6
674.725	22.57
674.912	22.7
675.1	22.83
675.287	22.79
675.474	22.77
675.662	22.56
675.849	22.34
676.036	22.42
676.223	22.53
676.411	22.83
676.598	22.8
676.785	22.72
676.972	22.91
677.159	23.2
677.346	23.17
677.533	23.12
677.721	23.15
677.908	23.18
678.095	22.98
678.282	23.1
678.469	22.94
678.656	22.82
678.843	22.9
679.03	22.66
679.217	22.3
679.404	22.58
679.591	22.49
679.778	22.52
679.964	22.58
680.151	22.66
680.338	22.48
680.525	22.46
680.712	22.57
680.899	22.66
681.086	22.65
681.272	22.77
681.459	22.31
681.646	22.57
681.833	22.88
682.02	22.96
682.206	23
682.393	23.05
682.58	23.15
682.766	23.07
682.953	22.93
683.14	23.16
683.326	23.25
683.513	23.54
683.7	23.42
683.886	23.26
684.073	23.23
684.259	23.15
684.446	23.38
684.632	23.67
684.819	23.69
685.005	23.83
685.192	23.8
685.378	23.81
685.565	23.83
685.751	23.9
685.938	24.03
686.124	23.85
686.31	24.15
686.497	23.99
686.683	23.85
686.87	23.98
687.056	24.02
687.242	23.91
687.429	23.79
687.615	23.65
687.801	23.64
687.987	23.32
688.174	23.26
688.36	23.04
688.546	22.77
688.732	22.7
688.918	22.29
689.105	22.52
689.291	22.57
689.477	22.48
689.663	22.27
689.849	22.01
690.035	22.22
690.221	22.18
690.407	22.08
690.593	22.39
690.779	22.4
690.965	22.83
691.151	22.58
691.337	22.38
691.523	22.44
691.709	22.62
691.895	22.94
692.081	22.98
692.267	23.22
692.453	23.56
692.639	23.28
692.825	22.93
693.011	22.87
693.196	22.92
693.382	23.03
693.568	23.14
693.754	23.18
693.94	23.28
694.125	23.31
694.311	22.93
694.497	22.31
694.682	22.53
694.868	22.91
695.054	22.58
695.239	22.49
695.425	22.76
695.611	22.71
695.796	22.99
695.982	22.88
696.168	22.8
696.353	23.24
696.539	23.35
696.724	23.36
696.91	23.26
697.095	23.44
697.281	23.27
697.466	23.19
697.652	23.19
697.837	23.16
698.023	23.07
698.208	22.94
698.393	22.73
698.579	22.72
698.764	22.76
698.949	22.97
699.135	23
699.32	23.26
699.505	23.14
699.691	23.31
699.876	23.19
700.061	23.23
700.246	23.21
700.432	23.56
700.617	23.88
700.802	23.6
700.987	23.19
701.172	23.21
701.358	22.95
701.543	23.05
701.728	23.09
701.913	22.95
702.098	22.72
702.283	22.66
702.468	22.42
702.653	21.92
702.838	22.08
703.023	22.25
703.208	22.04
703.393	22.65
703.578	22.58
703.763	22.18
703.948	22.06
704.133	22.23
704.318	22.55
704.503	22.57
704.688	23.01
704.873	23.4
705.057	23.65
705.242	23.78
705.427	23.77
705.612	24.04
705.797	24.17
705.981	24.21
706.166	24.39
706.351	24.45
706.536	24.44
706.72	24.39
706.905	24.14
707.09	23.88
707.274	24.01
707.459	24.13
707.644	23.84
707.828	24.23
708.013	24.49
708.197	24.49
708.382	24.34
708.567	24.52
708.751	24.44
708.936	24.42
709.12	24.45
709.305	24.33
709.489	23.8
709.673	23.79
709.858	23.12
710.042	23.17
710.227	23.07
710.411	23.08
710.596	23.26
710.78	23.26
710.964	23.22
711.149	23.09
711.333	23.2
711.517	23.36
711.702	23.51
711.886	23.87
712.07	23.84
712.254	23.92
712.438	24.03
712.623	23.97
712.807	24.24
712.991	24.31
713.175	24.31
713.359	24.29
713.544	24.29
713.728	24.62
713.912	24.68
714.096	24.59
714.28	24.39
714.464	24.2
714.648	24.07
714.832	24.05
715.016	24.35
715.2	24.55
715.384	24.69
715.568	24.65
715.752	24.27
715.936	24.25
716.12	24.23
716.304	24.6
716.488	24.82
716.671	24.77
716.855	24.99
717.039	24.35
717.223	24.06
717.407	23.74
717.59	23.9
717.774	23.91
717.958	23.68
718.142	24.16
718.325	23.67
718.509	23.41
718.693	23.38
718.877	22.98
719.06	23.6
719.244	23.77
719.428	24.09
719.611	24.17
719.795	24.01
719.978	23.97
720.162	23.34
720.345	23.95
720.529	24.13
720.713	23.95
720.896	23.9
721.08	23.64
721.263	24.06
721.446	24.09
721.63	24.06
721.813	24.36
721.997	24.51
722.18	25.06
722.364	24.81
722.547	24.68
722.73	25.25
722.914	25.6
723.097	25.49
723.28	25.22
723.464	25.16
723.647	25.02
723.83	24.95
724.013	25.04
724.197	24.47
724.38	24.41
724.563	24.6
724.746	24.04
724.929	23.46
725.112	23.61
725.296	23.44
725.479	23.42
725.662	23.57
725.845	23.39
726.028	23.58
726.211	23.29
726.394	23.44
726.577	23.41
726.76	23.84
726.943	23.83
727.126	23.74
727.309	23.6
727.492	23.73
727.675	23.66
727.858	24.19
728.041	24.27
728.224	24.46
728.407	24.62
728.589	24.35
728.772	24.16
728.955	24.43
729.138	24.12
729.321	24.64
729.503	24.44
729.686	24.21
729.869	23.82
730.052	23.78
730.234	23.79
730.417	23.48
730.6	24.09
730.782	23.81
730.965	23.85
731.148	24.66
731.33	24.59
731.513	24.4
731.695	24.72
731.878	25
732.061	24.67
732.243	25.19
732.426	24.97
732.608	24.7
732.791	25.34
732.973	25.57
733.156	24.98
733.338	24.86
733.52	24.92
733.703	24.46
733.885	24.03
734.068	24.14
734.25	23.75
734.432	24.31
734.615	23.79
734.797	23.45
734.979	23.09
735.162	23.47
735.344	23.77
735.526	24.01
735.708	24.48
735.891	24.94
736.073	25.17
736.255	25.5
736.437	25.08
736.619	25.92
736.802	25.55
736.984	26.13
737.166	26.27
737.348	26.21
737.53	26.22
737.712	26.29
737.894	25.75
738.076	25.57
738.258	25.38
738.44	25.56
738.622	25.13
738.804	25.34
738.986	24.05
739.168	23.61
739.35	23.46
739.532	22.86
739.714	22.28
739.896	22.21
740.078	22.34
740.259	22.3
740.441	21.85
740.623	21.83
740.805	22.3
740.987	22.89
741.168	23.3
741.35	22.52
741.532	23.41
741.714	23.44
741.895	24.32
742.077	24.17
742.259	24.04
742.44	24.53
742.622	24.58
742.804	23.96
742.985	23.85
743.167	23.13
743.348	23.86
743.53	23.34
743.711	24.14
743.893	23.91
744.075	23.76
744.256	23.49
744.438	23.22
744.619	23.18
744.8	22.67
744.982	23.32
745.163	23.82
745.345	23.7
745.526	23.88
745.707	24.21
745.889	24.16
746.07	24.45
746.252	25.18
746.433	26.08
746.614	26.55
746.795	27.27
746.977	27.11
747.158	26.83
747.339	27.17
747.52	27.41
747.702	26.69
747.883	26
748.064	25.98
748.245	25.74
748.426	25.08
748.607	25.58
748.788	25.51
748.97	25.64
749.151	26.19
749.332	25.25
749.513	24.98
749.694	25.25
749.875	25.34
750.056	25.27
750.237	24.81
750.418	24.48
750.599	22.98
750.78	22.68
750.96	22.39
751.141	22.31
751.322	22.85
751.503	23.02
751.684	22.32
751.865	22.47
752.046	23.15
752.226	22.68
752.407	22.54
752.588	22.82
752.769	22.84
752.949	23.18
753.13	22.75
753.311	22.62
753.492	22.43
753.672	22.96
753.853	23.53
754.034	22.32
754.214	22.96
754.395	23.08
754.575	23.63
754.756	24.1
754.937	23.53
755.117	24.11
755.298	24.88
755.478	24.77
755.659	24.69
755.839	24.64
756.02	25.33
756.2	25.89
756.381	26.37
756.561	26.6
756.741	26.17
756.922	26.29
757.102	25.69
757.283	25.21
757.463	25.45
757.643	25.26
757.823	24.87
758.004	24.53
758.184	24.65
758.364	24.99
758.545	24.55
758.725	25.32
758.905	25.76
759.085	25.87
759.265	25.98
759.446	25.8
759.626	25.64
759.806	26.01
759.986	26.05
760.166	25.22
760.346	24.34
760.526	24.02
760.706	23.74
760.886	23.4
761.066	23.27
761.246	23.54
761.426	23.3
761.606	23.63
761.786	23.71
761.966	23.63
762.146	24.02
762.326	24.37
762.506	24.92
762.686	24.9
762.866	24.77
763.046	24.52
763.225	24.06
763.405	24.16
763.585	24.44
763.765	24.26
763.945	24.48
764.124	24.62
764.304	24.56
764.484	24.28
764.664	24.35
764.843	24.37
765.023	24.35
765.203	24.57
765.382	24.95
765.562	24.54
765.741	25.31
765.921	25.65
766.101	25.51
766.28	25.54
766.46	25.75
766.639	25.95
766.819	25.91
766.998	26.3
767.178	26.04
767.357	25.76
767.537	26.02
767.716	24.86
767.896	24.71
768.075	24.79
768.254	24.84
768.434	24.14
768.613	23.7
768.792	23.8
768.972	23.64
769.151	24.05
769.33	24.24
769.51	24.24
769.689	24.74
769.868	24.23
770.047	24.14
770.226	23.77
770.406	23.8
770.585	23.58
770.764	23.99
770.943	23.85
771.122	23.1
771.301	23.64
771.48	23.86
771.66	23.39
771.839	24.01
772.018	24.34
772.197	24.25
772.376	25.88
772.555	26.02
772.734	25.7
772.913	26.27
773.092	26.99
773.271	26.62
773.449	26.16
773.628	26.47
773.807	26.19
773.986	26.04
774.165	27.1
774.344	26.25
774.523	26.35
774.701	26.36
774.88	26.7
775.059	25.78
775.238	25.28
775.417	25.47
775.595	25.5
775.774	25.36
775.953	24.81
776.131	24.44
776.31	24.83
776.489	24.32
776.667	24.29
776.846	24.24
777.025	24.68
777.203	24.93
777.382	24.83
777.56	25.05
777.739	25.06
777.917	25.97
778.096	25.82
778.274	25.56
778.453	26.15
778.631	26.36
778.81	26.22
778.988	27.43
779.166	28.04
779.345	27.69
779.523	27.25
779.702	27.76
779.88	27.49
780.058	27.75
780.237	27.65
780.415	27.4
780.593	27.55
780.771	27.94
780.95	26.88
781.128	26.82
781.306	27.53
781.484	27.81
781.662	27.55
781.841	27.88
782.019	27.18
782.197	26.88
782.375	27.31
782.553	27.03
782.731	27.36
782.909	28.17
783.087	27.73
783.265	27.38
783.443	26.5
783.621	26.39
783.799	26.01
783.977	27.02
784.155	27.84
784.333	27.99
784.511	28.27
784.689	27.48
784.867	27.86
785.045	27.81
785.223	28.02
785.4	28.91
785.578	29.12
785.756	29.55
785.934	28.57
786.112	27.78
786.289	28.29
786.467	28.41
786.645	29.89
786.823	29.23
787	29.42
787.178	29.69
787.356	29.4
787.533	29.13
787.711	28.54
787.889	29.76
788.066	29.92
788.244	28.38
788.421	27.11
788.599	25.48
788.776	25.94
788.954	25.61
789.131	24.92
789.309	24.7
789.486	24.43
789.664	23.24
789.841	23.35
790.019	22.98
790.196	23.74
790.373	24.94
790.551	26.02
790.728	25.88
790.906	25.75
791.083	25.5
791.26	24.87
791.437	24.53
791.615	25.89
791.792	24.5
791.969	24.65
792.146	24.43
792.324	24.59
792.501	22.97
792.678	21.85
792.855	22.78
793.032	22.97
793.209	24.14
793.387	25.32
793.564	26.54
793.741	27.24
793.918	26.79
794.095	27.68
794.272	26.55
794.449	27.16
794.626	28.77
794.803	28.63
794.98	29.31
795.157	29.06
795.334	28.12
795.511	26.4
795.688	25.9
795.864	26.84
796.041	25.79
796.218	26.74
796.395	26.21
796.572	24.63
796.749	23.95
796.925	23
797.102	23.57
797.279	24.12
797.456	24.82
797.632	24.54
797.809	24.7
797.986	24.97
798.162	25.16
798.339	25.64
798.516	26.64
798.692	26.61
798.869	26.75
799.046	25.64
799.222	25.69
799.399	25.99
799.575	27.18
799.752	26.21
799.928	26.26
800.105	26.25
800.281	25.73
800.458	24.82
800.634	24.1
800.811	24.71
800.987	25.42
801.163	24.67
801.34	24.12
801.516	22.89
801.692	22.81
801.869	22.95
802.045	22.36
802.221	22.5
802.398	23.25
802.574	25.51
802.75	25.84
802.926	25.47
803.103	26.36
803.279	27.39
803.455	28.04
803.631	29.18
803.807	28.56
803.983	28.58
804.16	29.34
804.336	28.15
804.512	26.72
804.688	26.26
804.864	27.14
805.04	27.71
805.216	26.62
805.392	26.23
805.568	25.82
805.744	25.81
805.92	26.57
806.096	25.81
806.272	26.08
806.448	26.83
806.623	27.7
806.799	26.82
806.975	25.59
807.151	24.88
807.327	23.08
807.503	21.89
807.678	22.47
807.854	21.22
808.03	22.73
808.206	23.53
808.381	22.76
808.557	22.64
808.733	22.77
808.908	23.79
809.084	26.07
809.26	27.88
809.435	29.31
809.611	28.8
809.787	29.28
809.962	28.01
810.138	28.04
810.313	28.05
810.489	27.06
810.664	26.97
810.84	26.45
811.015	24.85
811.191	26.25
811.366	24.31
811.542	24.79
811.717	24.45
811.892	23.77
812.068	24.1
812.243	24.83
812.419	25.7
812.594	26.5
812.769	25.38
812.944	24.75
813.12	24.14
813.295	25.91
813.47	25.63
813.645	27.22
813.821	28.39
813.996	28.01
814.171	27.03
814.346	26.87
814.521	26.01
814.697	26.68
814.872	27.11
815.047	26.45
815.222	26.87
815.397	27.44
815.572	27.16
815.747	26.74
815.922	27.47
816.097	27.01
816.272	27.92
816.447	27.83
816.622	29.38
816.797	28.9
816.972	29.12
817.147	28.84
817.322	29.11
817.496	27.12
817.671	28.16
817.846	28.11
818.021	29.74
818.196	28.07
818.371	29.03
818.545	27.98
818.72	29.66
818.895	29.54
819.069	29.58
819.244	29.26
819.419	30.8
819.594	29.93
819.768	29.07
819.943	28.68
820.117	28.78
820.292	27.97
820.467	27.86
820.641	27.33
820.816	27.68
820.99	27.47
821.165	27.1
821.339	27.06
821.514	27
821.688	27.16
821.863	26.92
822.037	26.72
822.212	26.99
822.386	26.76
822.56	26.56
822.735	26.36
822.909	26.3
823.084	26.56
823.258	26.28
823.432	26.47
823.606	26.58
823.781	26.82
823.955	26.57
824.129	26.52
824.303	26.88
824.478	27.34
824.652	27.55
824.826	27.62
825	27.27
825.174	27.74
825.348	27.8
825.523	27.72
825.697	27.79
825.871	28.4
826.045	28
826.219	28.11
826.393	27.4
826.567	27.11
826.741	26.98
826.915	27.73
827.089	27.33
827.263	27.11
827.437	26.76
827.611	26.24
827.784	26.27
827.958	26.95
828.132	26.78
828.306	27.55
828.48	27.77
828.654	28.11
828.827	27.82
829.001	28.21
829.175	28.51
829.349	29.48
829.522	29.84
829.696	30.11
829.87	29.19
830.044	28.86
830.217	27.55
830.391	27.59
830.565	27.12
830.738	26.47
830.912	26.54
831.085	27.16
831.259	27.29
831.432	28.27
831.606	28.32
831.779	30.06
831.953	29.22
832.126	30.05
832.3	29.33
832.473	30.08
832.647	29.42
832.82	29.07
832.994	27.23
833.167	26.87
833.34	26.15
833.514	25.81
833.687	24.98
833.86	25.46
834.034	25.64
834.207	26.39
834.38	25.49
834.553	25.6
834.727	25.23
834.9	25.74
835.073	25.31
835.246	25.45
835.419	25.73
835.593	25.77
835.766	26.02
835.939	26.62
836.112	25.21
836.285	25.69
836.458	26
836.631	26.32
836.804	26.82
836.977	26.18
837.15	26.32
837.323	24.74
837.496	23.24
837.669	22.31
837.842	20.48
838.015	21.46
838.188	21.95
838.361	22.04
838.533	24.27
838.706	24.93
838.879	25.57
839.052	26.2
839.225	28.57
839.398	30.36
839.57	31.26
839.743	30.48
839.916	31.72
840.088	31.38
840.261	31.32
840.434	29.04
840.607	29.75
840.779	30.61
840.952	29.35
841.124	30.22
841.297	30.23
841.47	31.03
841.642	32.89
841.815	32.45
841.987	30.41
842.16	31.63
842.332	33.11
842.505	30.08
842.677	28.75
842.85	31.68
843.022	30.56
843.194	30.74
843.367	28.86
843.539	28.14
843.712	28.6
843.884	32.12
844.056	32.4
844.229	33.58
844.401	36.98
844.573	37.66
844.745	34.68
844.918	35.38
845.09	32.35
845.262	32.16
845.434	33.12
845.606	30.87
845.779	29.56
845.951	33.42
846.123	29.29
846.295	25.97
846.467	27.34
846.639	29.16
846.811	27.34
846.983	32.56
847.155	31.94
847.327	30.11
847.499	30.72
847.671	31.38
847.843	25.42
848.015	26.46
848.187	31.1
848.359	30.46
848.531	29.45
848.703	29.2
848.875	26.43
849.047	28.32
849.218	28.82
849.39	29.39
849.562	29.94
849.734	29.96
849.905	32.65
850.077	31.84
850.249	34.18
850.421	30.41
850.592	34.04
850.764	34.41
850.936	36.84
851.107	38.95
851.279	40.6
851.451	41.64
851.622	40.37
851.794	39.57
851.965	37.27
852.137	34.53
852.308	38.99
852.48	33.79
852.651	32.63
852.823	26.32
852.994	25.85
853.166	23.66
853.337	21.47
853.509	25.81
853.68	23.66
853.851	24.91
854.023	25.75
854.194	26.26
854.365	25.22
854.537	27.47
854.708	31.01
854.879	31.06
855.05	30.73
855.222	25.86
855.393	21.96
855.564	24.36
855.735	26
855.906	23.9
856.078	18.17
856.249	25.97
856.42	20.02
856.591	18.85
856.762	17.55
856.933	21.41
857.104	25.81
857.275	26.19
857.446	24.77
857.617	24.52
857.788	24.81
857.959	26.31
858.13	26.72
858.301	33.26
858.472	34.03
858.643	31.23
858.814	31.7
858.985	30.44
859.155	29.81
859.326	29.32
859.497	31.26
859.668	29.74
859.839	31.32
860.009	28.22
860.18	25.45
860.351	22.44
860.522	25.52
860.692	26.47
860.863	22.3
861.034	20.68
861.204	19.59
861.375	12.35
861.546	14.82
861.716	10.38
861.887	11.13
862.057	13.67
862.228	18.74
862.398	21.85
862.569	18.64
862.739	23.53
862.91	30.27
863.08	28.44
863.251	32.24
863.421	32.66
863.592	37.47
863.762	34.42
863.932	31.43
864.103	32.59
864.273	28.25
864.443	29.03
864.614	26.68
864.784	24.14
864.954	27.69
865.125	28.4
865.295	22.25
865.465	20.83
865.635	28.88
865.805	30.02
865.976	26.66
866.146	28.43
866.316	25.87
866.486	32.75
866.656	31.73
866.826	35.07
866.996	34.97
867.166	39.73
867.336	39.65
867.506	33.84
867.676	35.12
867.846	34.7
868.016	35.64
868.186	33.54
868.356	30.2
868.526	27.24
868.696	24.77
868.866	25.31
869.036	31.76
869.206	34.15
869.376	41.29
869.545	44.37
869.715	43.39
869.885	39.58
870.055	44.79
870.224	46.15
870.394	50.17
870.564	50.95
870.734	50.59
870.903	45.53
871.073	44.05
871.243	37.64
871.412	34.87
871.582	38.01
871.751	41.09
871.921	32.51
872.091	28.81
872.26	27.26
872.43	23.27
872.599	23.45
872.769	23.29
872.938	27.9
873.108	29.59
873.277	26.38
873.446	25.25
873.616	25.62
873.785	29.5
873.955	36.78
874.124	35.47
874.293	38.39
874.463	36.55
874.632	42.05
874.801	33.17
874.971	32.72
875.14	34.85
875.309	35.52
875.478	37.42
875.647	38.21
875.817	34.75
875.986	33.26
876.155	32.74
876.324	30.09
876.493	25.52
876.662	24.71
876.831	23.21
877	25.93
877.17	26.64
877.339	22.59
877.508	15.93
877.677	16.27
877.846	16.28
878.015	13.2
878.184	14.07
878.352	14.9
878.521	14.99
878.69	15.93
878.859	14.26
879.028	13.29
879.197	16.79
879.366	20.93
879.534	19.3
879.703	21.8
879.872	25.54
880.041	27.88
880.21	27.88
880.378	28.92
880.547	30.35
880.716	28.79
880.884	27.99
881.053	27.91
881.222	27.77
881.39	28.72
881.559	27.7
881.727	27.21
881.896	27.12
882.065	27.19
882.233	27.16
882.402	26.71
882.57	27.6
882.739	27.88
882.907	28.23
883.076	29.18
883.244	28.34
883.412	29.7
883.581	29.79
883.749	30.03
883.918	30.25
884.086	29.9
884.254	29.2
884.423	28.63
884.591	28.19
884.759	27.87
884.927	25.86
885.096	26.05
885.264	24.3
885.432	23.28
885.6	21.83
885.769	21.73
885.937	22.07
886.105	20.98
886.273	21.85
886.441	21.1
886.609	19.83
886.777	20.6
886.945	18.27
887.113	15.39
887.281	18.34
887.449	19.37
887.617	17.47
887.785	17.06
887.953	18.54
888.121	16.33
888.289	20.16
888.457	22.29
888.625	18.91
888.793	25.23
888.961	31.18
889.129	26.79
889.296	30.3
889.464	32.11
889.632	30.83
889.8	35.17
889.967	38.89
890.135	38.28
